ppg,abp
1.0664704,89.37964
1.1523916,95.53492
1.279238,101.574
1.335292,101.60227
1.4456365,108.66794
1.4090881,113.54217
1.4677467,114.741455
1.5945048,118.40866
1.6872725,120.62751
1.7648746,125.36195
1.7536511,128.4917
1.6748003,130.28754
1.7864476,135.36234
1.7322791,132.96231
1.7241707,137.98718
1.7341477,132.0858
1.762937,134.29948
1.7303591,138.0567
1.6843857,129.35512
1.6271672,133.35896
1.633483,134.95163
1.5280061,129.90747
1.4982445,130.18001
1.5224246,130.02988
1.4409434,122.2175
1.4140422,128.52327
1.4286343,122.85182
1.3770068,115.64961
1.3331773,119.007904
1.3166162,111.76953
1.3251585,111.34516
1.3704243,107.91372
1.4321074,107.98609
1.3129344,104.32159
1.2424757,100.49278
1.3374088,99.89807
1.3318518,94.187485
1.2214028,95.67136
1.1889632,92.44983
1.1275578,89.278854
1.2511724,88.28053
1.143183,88.86097
1.0286993,83.42786
0.9790039,80.134544
1.0654355,78.66888
0.91997284,73.141685
0.96894175,72.34946
0.8893035,68.96615
0.85406685,68.387245
0.79424584,63.191948
0.90162855,61.303177
0.7838299,61.332275
0.8245169,58.821194
0.7805405,57.620487
0.85233253,56.523937
0.83188856,48.8032
0.8248967,50.98664
0.7868785,44.920483
0.7498027,49.847107
0.81710756,45.22404
0.7222148,45.217102
0.65235746,41.96466
0.6252193,41.755936
0.5880458,41.452126
0.59496564,40.0
0.63397604,46.795822
0.45791298,50.598392
0.49023992,48.81331
0.47512904,48.984474
0.6020428,55.310658
0.57288367,57.45929
0.6575474,58.349735
0.63143295,62.01856
0.8235343,66.79371
0.88190234,72.58773
0.98257405,76.392075
0.9335546,80.74484
1.0818677,87.11508
1.307916,81.365944
1.4273882,91.92536
1.4708165,96.85717
1.4869527,101.30832
1.6390251,106.39223
1.8347765,108.12538
1.7629957,110.99296
1.8669264,119.64225
1.9018806,123.347046
1.9353448,125.8736
1.8926717,126.680954
1.9282134,131.4827
1.9245027,130.60286
1.9418044,135.11827
1.9233851,131.98863
1.8797638,134.64873
1.9143697,134.56068
1.9502391,139.75098
1.8760564,131.91449
1.8259281,131.33629
1.7283993,132.11095
1.8061355,130.71684
1.8375741,131.43703
1.7731341,127.7291
1.7090564,129.10823
1.7057929,128.8051
1.6529578,122.490234
1.5149553,119.90847
1.5342073,117.55768
1.5557435,118.40701
1.5595872,113.25778
1.5063835,106.38763
1.5800041,106.52844
1.4521706,104.47381
1.5069783,101.251595
1.5217271,99.73826
1.4240419,96.92472
1.3848842,94.74444
1.4044957,93.98321
1.366728,90.84938
1.3296134,88.74569
1.264036,85.09595
1.1878668,83.69603
1.1835401,77.408104
1.0824094,77.6796
1.0785394,74.36431
1.044829,72.42929
1.0420531,73.283325
0.9389122,69.09713
1.006193,68.88948
0.9073777,60.47281
0.8845468,61.822517
0.94410217,58.1646
0.82455033,56.894783
0.8557906,46.366516
0.8931254,49.10127
0.88229907,49.29996
0.8395155,53.52441
0.9378592,45.809486
0.8107406,44.60713
0.8369375,47.571125
0.73557174,44.16816
0.692566,41.17302
0.7473178,43.728527
0.5925835,44.45757
0.5338226,42.932995
0.588682,44.030422
0.5187611,45.875145
0.5070325,52.384132
0.5189736,54.481575
0.6070664,57.654488
0.73078716,58.7978
0.7371695,61.8919
0.7888981,65.71178
0.87045246,74.59088
1.036059,79.59523
1.090274,76.571846
1.178659,85.09465
1.1859789,83.807274
1.3405237,97.69305
1.589321,93.72522
1.6864176,101.57896
1.6601183,105.24023
1.7725668,111.056404
1.7790864,115.35751
1.8220813,117.467354
1.9075394,121.05174
1.8738978,120.94807
1.8574979,129.57774
1.9081149,125.82907
1.9158775,130.95377
1.8943323,133.42561
1.8925017,134.56033
1.9454725,133.63307
1.8477602,135.19948
1.8574797,136.15977
1.8198472,131.96404
1.8421977,131.61125
1.7228957,135.81184
1.7914087,134.30219
1.7554835,128.35298
1.7331461,131.53
1.5784464,126.657524
1.5936338,125.24147
1.5716777,127.16799
1.5938816,121.50274
1.447757,117.53524
1.5208458,111.82845
1.4008574,114.39644
1.4266347,110.614815
1.4849837,107.78282
1.3723449,103.469986
1.448963,99.44084
1.3251568,100.03665
1.3520327,100.273415
1.2309521,93.16632
1.3342006,95.11052
1.2410318,89.71891
1.2379391,87.67517
1.1841818,86.5743
1.0885723,86.70688
1.1012087,77.89393
0.9892911,76.28437
0.9517172,77.01327
0.9155763,73.005356
0.8571934,68.5146
0.8437575,68.52832
0.6629529,64.69243
0.7990957,61.48156
0.7298503,58.20393
0.8596578,52.575314
0.86903363,54.504894
0.73843455,55.145084
0.7465641,53.261715
0.8273781,46.77866
0.6509852,50.344784
0.76617134,44.556656
0.58009404,48.63283
0.679739,41.98805
0.67816335,41.62463
0.5450775,42.580086
0.44178525,40.969334
0.3456257,45.478443
0.41215557,43.218277
0.28064197,45.214703
0.29236987,47.449547
0.25995743,52.2915
0.45830268,55.16848
0.3464853,55.384483
0.47383413,55.817562
0.47233802,66.76461
0.5833726,65.9153
0.63561344,67.830956
0.8396779,71.54009
0.83659697,76.87985
0.90840465,82.761566
1.0133059,89.888954
1.1905175,94.8544
1.2093452,104.17389
1.3200555,98.90519
1.3413587,105.08771
1.4487938,110.40445
1.5216641,110.99322
1.520709,112.59668
1.6180894,124.27526
1.5484449,123.66393
1.661871,127.10244
1.6515856,128.23717
1.7404196,132.61801
1.6795889,125.97193
1.6838892,130.97386
1.5946091,133.36356
1.6756425,134.57652
1.672878,129.77444
1.5745438,138.28488
1.5373901,131.96635
1.5310642,136.3314
1.5277559,133.8823
1.4838219,131.09781
1.348351,126.0918
1.3824322,133.75249
1.2663753,126.81474
1.265308,121.8572
1.2973441,122.44848
1.1653163,116.4928
1.22001,116.40794
1.1886567,113.92809
1.1084068,112.27422
1.049559,104.57639
1.1074364,102.68342
1.1668923,101.13502
0.9923146,103.84749
1.0143453,105.27829
0.99295354,91.85395
1.0357133,92.47553
1.0579859,89.36253
1.0533752,84.26563
0.90819037,85.81889
0.8644569,80.60558
0.8305977,82.655075
0.632383,80.93022
0.64459395,75.54399
0.6285553,72.35933
0.56868976,72.77252
0.5370623,70.59482
0.50275844,60.764416
0.57431644,60.287197
0.5826383,57.77842
0.5057164,58.162804
0.44644105,56.868866
0.4931618,53.82477
0.6455861,51.929497
0.44227162,47.884346
0.4615148,48.72649
0.46938708,49.027832
0.41822308,46.823357
0.32852083,42.485107
0.3637352,40.98251
0.32780203,42.78944
0.24345183,44.056454
0.118457414,47.87837
0.18959682,44.135075
0.08609992,46.125473
0.07510294,47.630318
-0.017568175,48.706207
-0.00027107855,51.27672
0.09271471,54.392952
0.07715245,59.955803
0.18480541,67.66114
0.20135595,63.531982
0.5181443,66.68545
0.4327989,74.31632
0.6211354,76.68755
0.70601404,80.35285
0.77877814,88.83215
0.939259,90.817696
1.039461,98.03359
1.027971,107.39263
1.2187345,103.51
1.2301728,107.186195
1.3118992,110.390976
1.3716316,117.62641
1.3204949,118.69784
1.3493193,121.26562
1.3715647,126.091484
1.461124,131.7605
1.473836,131.18948
1.3694738,132.26921
1.4821413,131.68146
1.3564138,135.02373
1.4285785,139.88933
1.4240304,134.58293
1.3074664,136.90248
1.3156039,135.23334
1.2937744,134.55919
1.2247647,132.6678
1.3002955,128.04997
1.2247895,128.73108
1.1286116,126.89801
1.0460424,127.690865
1.0376565,121.477806
0.9679283,121.13696
1.0366617,115.91298
0.99097776,115.85974
0.9863093,112.66998
0.88039184,111.72927
0.9437095,107.962906
0.92674494,104.15443
0.9915614,102.97446
0.8389643,103.01036
0.89024186,99.559425
0.85908747,96.72872
0.7455894,94.97457
0.7547502,88.736855
0.737905,90.42458
0.64359164,83.340454
0.6573766,83.61188
0.5026908,78.34274
0.6010922,78.40086
0.46096024,79.9319
0.4702319,71.5279
0.5161974,73.72807
0.3236017,70.06929
0.46007115,66.911644
0.34679917,62.016823
0.37146303,61.59772
0.37838066,54.8104
0.42997384,56.483505
0.25183263,53.046757
0.21626027,48.669155
0.35755852,49.594173
0.29554135,50.80161
0.27119324,47.15097
0.29624096,44.225597
0.25942704,46.077065
0.2406772,43.446217
0.1135454,45.20189
0.05703837,42.52115
0.11364417,44.48185
0.01322263,48.159977
-0.08989843,42.136963
-0.05699751,49.89768
0.013807139,47.77426
-0.13763404,54.436863
0.043750905,55.90735
0.08827558,56.92537
0.13840277,60.14738
0.17706339,62.93563
0.23918138,70.08317
0.23754364,75.09101
0.39431864,77.93084
0.5398058,83.78552
0.6160663,89.12886
0.81004345,90.482376
0.8116084,98.48783
0.9701822,101.6277
1.026474,107.37018
1.0423422,111.724556
1.2370291,112.300896
1.2344533,119.34264
1.2274824,119.09902
1.3626108,123.37706
1.3657346,126.45424
1.3601952,129.13618
1.3993958,131.02663
1.4706237,135.38467
1.463822,135.94391
1.3820708,128.52292
1.4281774,136.16348
1.3926073,136.95598
1.3220544,133.01013
1.328156,134.76227
1.2239835,131.36444
1.1672944,131.1863
1.2606573,128.87149
1.1905099,130.61414
1.1094908,124.991684
1.1617035,126.01101
0.9814107,118.94448
1.0776482,121.689476
0.9844137,117.11802
1.0094051,117.586235
1.0519961,115.72047
1.0264934,114.0567
1.0071958,112.04754
0.94327,105.697784
0.98846203,103.360344
0.90943503,102.10123
0.93625355,102.788994
0.8617884,93.70513
0.8083948,94.49472
0.8193729,93.517914
0.72217494,88.25831
0.7678866,87.13974
0.6464556,80.07869
0.6845292,77.282974
0.612397,77.92617
0.62572557,79.08731
0.43210927,77.671745
0.5531177,69.54435
0.5240339,65.08234
0.3937467,63.637833
0.49379167,63.835026
0.4755306,60.89194
0.46621543,61.481155
0.40129662,54.589207
0.36590922,55.152393
0.375493,52.186558
0.46621966,47.73248
0.3873199,49.670406
0.42553276,45.98139
0.31475914,44.48615
0.36526835,40.57709
0.29888678,42.90923
0.13800155,44.41825
0.14366882,45.571007
0.25951222,40.07325
0.13587467,45.182343
0.14048064,46.852768
0.11073285,48.1283
0.05044223,46.681248
0.113219835,53.736305
0.12073901,57.067966
0.1208291,57.635582
0.33577868,61.13654
0.314823,64.24846
0.45472428,70.960205
0.47208238,68.46236
0.63232124,77.56433
0.8267511,79.15049
0.89034104,80.742935
1.0400382,92.2418
0.97063845,93.63069
1.1193898,99.61624
1.2719392,102.07922
1.3378383,108.19802
1.4868379,109.600624
1.4520153,116.036835
1.4586217,118.128265
1.5732213,125.44909
1.5686867,122.50257
1.6052463,131.98059
1.7104675,131.00777
1.6498901,133.32744
1.6118078,128.61905
1.6586362,130.29103
1.6286092,133.87363
1.6671653,132.60191
1.6409361,137.8356
1.5136099,137.90616
1.584435,132.34279
1.4863771,135.80966
1.4562585,134.86983
1.4256489,129.63959
1.3287907,129.5652
1.4347535,125.24728
1.2903214,127.70423
1.2953358,118.594
1.2068136,121.23308
1.2449619,115.7092
1.1708953,115.80487
1.2457297,110.61496
1.2748439,105.84877
1.2730397,103.74295
1.2736193,103.326614
1.1754992,98.15365
1.222246,98.44882
1.2584642,93.062675
1.0737715,91.746445
1.1372895,92.09506
1.1033702,90.220955
1.0619136,89.04381
0.9627269,84.53769
0.8136956,82.468834
0.8267401,81.1548
0.7899865,77.273346
0.8192476,74.14993
0.8031789,71.47013
0.6417058,66.82008
0.7645624,68.055214
0.6411501,60.134007
0.7331153,64.136826
0.62313247,57.43786
0.69152,57.16583
0.71064895,55.548985
0.6573939,55.997726
0.7092808,49.63852
0.6762521,53.13843
0.66429657,45.260902
0.6185221,45.35222
0.6511271,44.026356
0.5913395,42.436962
0.48541698,41.052437
0.5176678,42.91715
0.5219454,45.71161
0.47601026,50.27855
0.37057227,47.939285
0.34706464,46.805573
0.39251843,46.84541
0.39061913,52.69465
0.4405041,51.593773
0.40721798,57.074158
0.4939557,59.67243
0.5942486,67.175255
0.5980376,67.95294
0.85592365,69.62208
0.92081565,75.03227
0.94755036,81.745865
1.1314331,82.22684
1.2690246,90.17665
1.3395684,95.634476
1.4260454,97.65711
1.532151,97.05852
1.5389788,107.77381
1.6565323,114.306366
1.7550476,118.48323
1.7419382,122.14578
1.8965323,124.54615
1.855877,120.68072
1.7501574,128.44395
1.7454263,129.35532
1.8929379,132.7992
1.9062827,132.18578
1.8478211,133.37167
1.9091026,135.13293
1.8301893,135.78139
1.8404126,131.77873
1.7456998,138.0887
1.8167604,137.48009
1.7353115,130.31688
1.682512,133.4647
1.7570055,128.83775
1.6514217,125.77693
1.6271187,125.30172
1.4780838,124.62456
1.6616565,119.21687
1.5913793,117.28309
1.4241871,117.32169
1.4895209,115.363106
1.5235267,115.57538
1.4363782,109.31329
1.457371,108.90033
1.5346324,105.45168
1.5601624,105.7635
1.4708349,97.976395
1.433796,99.23651
1.412921,96.62817
1.4272205,88.669914
1.3301878,88.30242
1.2744356,84.090805
1.2195877,80.48404
1.1009032,82.39022
1.0808281,78.95635
1.0883355,78.97956
1.0373344,72.94317
1.0091106,69.18662
0.9182253,68.190544
0.95257854,65.23376
0.93685645,63.293766
0.8921486,58.747513
0.94389975,61.77133
0.9661451,60.004047
1.0190067,49.637897
0.8578088,51.358036
0.92517585,49.010483
0.87018067,47.200123
0.8171808,44.550632
0.81703126,42.180626
0.82443744,46.440876
0.74646163,43.65208
0.7701014,46.277416
0.7134519,40.672035
0.51196504,44.70508
0.7266521,46.430973
0.58178663,44.062233
0.4889271,45.347893
0.5366101,48.52075
0.69722944,48.247223
0.4950683,51.68665
0.6617186,57.88126
0.6907389,64.405045
0.8390395,61.338753
0.7435304,66.093605
0.94704205,69.1104
0.97939265,74.33382
0.99885976,81.290344
1.259875,83.32272
1.2326422,88.95369
1.4867707,96.60598
1.4429314,95.67171
1.6751919,98.97762
1.7229867,105.93714
1.8686372,108.700745
1.7962652,113.253136
1.8640987,118.56983
1.9357816,122.515724
1.8852425,121.580734
1.9272842,128.23883
1.9626828,127.31666
1.9832999,130.76555
1.9603238,136.00429
1.99734,138.5133
2.0232453,137.35132
1.8905224,135.20724
1.9762573,132.3782
1.922391,136.02739
1.9241922,134.85188
1.8627613,131.69681
1.8081625,133.43059
1.8182588,129.62175
1.5721439,128.43698
1.7771882,120.50405
1.7101313,120.23591
1.6324041,123.04679
1.740427,120.961586
1.5246389,117.97957
1.5242424,116.09909
1.5400664,107.74636
1.6139972,109.39906
1.4923743,111.86839
1.4799372,100.95582
1.4139689,98.89872
1.4135576,96.49582
1.3600271,96.63283
1.3484155,96.89021
1.3743625,90.94777
1.3661919,87.0817
1.361999,84.83117
1.1982992,85.19303
1.259321,85.64553
1.1265744,79.95723
1.0585811,72.0209
1.031924,73.253586
1.047822,72.28639
0.8841123,67.84529
0.85773325,68.29537
0.8546414,63.95712
0.82175374,65.10394
0.8242512,59.87585
0.83625215,54.49899
0.8604548,53.776688
0.8808684,57.479717
0.92847747,52.530014
0.88634026,47.78239
0.8399302,46.787876
0.75930977,47.050407
0.7075096,45.42506
0.76133597,44.880016
0.6093919,40.152225
0.58307624,41.85717
0.65524805,46.40046
0.45991495,41.059162
0.42180952,43.90846
0.48230836,43.960094
0.47840914,47.220936
0.43311805,51.32175
0.48433143,56.765213
0.44079313,55.914608
0.6193783,58.331867
0.5668346,59.164806
0.673076,67.81941
0.7682731,72.35243
0.72734845,72.20731
0.93339443,80.929596
1.042991,83.234924
1.1247873,89.2379
1.3985234,89.43643
1.4852424,98.205055
1.4714706,103.04738
1.5799619,102.632965
1.7202454,108.5521
1.638299,110.65453
1.6455708,121.10888
1.7995472,128.65459
1.751308,122.98879
1.7371123,127.521355
1.7882376,130.75847
1.752392,131.03769
1.8417319,133.73036
1.7692823,132.88849
1.8195794,138.959
1.6660749,133.78525
1.7100502,136.41437
1.6703043,134.6905
1.7087557,131.68018
1.718161,133.08359
1.6269472,134.54033
1.5549268,127.038246
1.4273278,121.5192
1.5155708,131.08221
1.42591,121.62541
1.4491032,123.44852
1.3017814,117.38802
1.3300593,122.769295
1.2621956,112.02772
1.3290306,112.95525
1.3449985,108.734505
1.2188727,102.13107
1.19695,102.27357
1.1370367,102.6002
1.2529709,100.128716
1.1628674,97.140945
1.1814736,97.72465
1.1170762,93.86148
1.0847818,95.68461
1.0290902,90.543015
1.037554,88.43247
0.9398327,85.93595
0.9576781,77.34722
0.9725136,77.579315
0.7577136,73.88026
0.76858187,76.36061
0.6771026,72.233505
0.6775903,66.17507
0.5467086,64.89356
0.683603,59.487583
0.57718134,59.401943
0.56096506,62.590908
0.6131017,55.7049
0.50141823,53.80077
0.5721508,49.812794
0.53847945,47.199356
0.57877934,51.23553
0.5685831,49.26774
0.4430362,40.0
0.43614507,45.55996
0.43403265,41.68597
0.38626972,44.05503
0.34477782,47.469822
0.28303745,43.054672
0.17049979,47.20748
0.22304994,43.019436
0.13712204,45.068596
0.24178545,51.920746
0.1824094,54.20973
0.25349793,55.6431
0.36568648,60.105423
0.32080412,62.0008
0.5096589,65.3061
0.54976535,69.84728
0.51974237,73.2607
0.6527006,80.70397
0.81247026,80.601654
0.89447725,90.55718
0.98202574,93.27389
1.1005384,95.07162
1.1956713,101.87838
1.1964942,103.5469
1.3586612,106.804665
1.424985,113.26311
1.3800738,118.1432
1.5169259,122.970634
1.4803212,125.88682
1.5491298,127.996216
1.5430068,123.507454
1.4399967,132.01288
1.5808845,136.04442
1.5524806,134.22945
1.4844024,134.88878
1.464697,137.68062
1.495152,134.719
1.4819016,133.45074
1.549921,134.36838
1.4290782,132.33058
1.3245567,130.8837
1.2064472,132.3978
1.2490228,130.12373
1.214404,124.7032
1.132543,124.70132
1.1498691,122.331985
0.97700024,116.662315
1.115715,116.36018
1.1133082,116.73159
1.0585096,115.974014
0.9358017,112.4641
0.9110222,107.07278
0.9758339,101.310135
0.960705,104.09062
1.0061648,100.241875
0.84982216,96.74334
0.85682833,97.865005
0.851539,85.58558
0.80753267,87.39452
0.828439,85.74413
0.74068284,83.691345
0.6650454,83.316376
0.62237346,82.53289
0.7035635,75.00906
0.5250461,78.22335
0.47382048,69.91009
0.4608003,72.27905
0.43360502,67.647026
0.37880585,68.16682
0.39844906,58.168354
0.36367828,63.24619
0.39753148,60.758743
0.2799015,50.768433
0.43648413,58.076218
0.27953872,58.361526
0.40504435,56.47522
0.35501465,48.006454
0.36350414,48.92362
0.23962261,44.22098
0.2673474,44.366234
0.28626555,45.23433
0.08651029,44.2492
0.106402114,45.217422
0.02846322,43.472576
-0.13881107,44.139717
0.008107664,43.716663
-0.057034392,50.305866
-0.04300566,51.336292
0.06984142,51.97706
0.05551116,60.730015
-0.009884475,62.17692
0.12598959,65.682205
0.18583101,65.86331
0.2774472,69.16521
0.45724306,75.94731
0.51504534,75.99393
0.52399814,88.41713
0.687716,88.29918
0.79536104,93.94309
0.954114,97.95671
1.0817145,107.028336
1.197978,103.97528
1.215699,111.16169
1.1371696,109.87269
1.1363324,119.325836
1.3146037,125.396126
1.2526672,123.97827
1.3928374,125.28852
1.3033782,128.29529
1.408071,129.46967
1.2843183,132.18518
1.3795449,132.79457
1.3035392,133.59435
1.4093775,137.4829
1.3394995,135.94427
1.3631341,132.54259
1.2052186,136.40793
1.1986701,130.85374
1.2849699,128.544
1.2341762,133.52948
1.1693575,132.81061
1.0357586,127.961655
1.1554338,130.57756
1.025705,123.79968
0.95645237,119.14438
0.92522806,119.149345
0.9896084,116.59407
0.9620929,111.711105
0.9934193,112.391884
0.9932187,106.859055
0.93889564,105.99463
0.97338563,104.91138
0.89583087,97.33892
0.85629904,97.47491
0.8389098,99.69314
0.77533835,92.806656
0.7707654,89.49899
0.7001185,86.71254
0.7247878,85.15798
0.59728146,80.34937
0.5923435,82.48683
0.66253144,75.06698
0.4842042,76.961555
0.4466313,75.272194
0.37621605,72.25687
0.5002101,68.945244
0.224635,65.87554
0.45071435,63.546978
0.3620492,55.083817
0.26344812,60.39837
0.41146567,56.41096
0.27593473,53.807888
0.35699624,51.532722
0.32070455,51.828537
0.4150355,46.151775
0.16207826,46.487232
0.33136743,46.456974
0.26242694,41.889732
0.28555477,46.427002
0.21287362,43.14265
0.1760502,43.15613
0.034192566,42.4786
0.133328,48.40355
-0.05042469,46.918068
0.087237105,47.104496
-0.022027228,49.291523
0.012344639,55.0736
0.0058263983,59.447983
0.12144636,59.576252
0.14079049,61.80718
0.15095077,65.855736
0.32006896,70.33923
0.3657662,74.01234
0.4631848,76.052635
0.5878316,82.46548
0.7977552,84.25509
0.9362383,96.12975
1.0832583,94.531944
1.0725518,102.94906
1.2357204,106.84779
1.235571,107.210304
1.2637849,111.44851
1.3947821,116.5099
1.416464,121.05939
1.5119328,123.26021
1.4744128,120.9028
1.5145118,130.36311
1.5245497,133.7691
1.4299804,129.77731
1.4826628,133.90747
1.4169942,132.66623
1.4683812,135.85938
1.4330342,137.97493
1.3818249,133.90744
1.3580862,132.62544
1.3997792,127.972305
1.3833351,131.80045
1.3190404,128.91591
1.3473847,133.74536
1.3112451,130.08441
1.1918575,122.14038
1.2309617,127.48722
1.1744565,117.936806
1.2044652,119.06681
1.0761491,114.26852
1.1120745,114.51345
1.0680325,111.10865
1.116402,108.91842
1.0244066,111.75503
1.0664409,107.101875
1.189861,98.184555
1.0570775,101.39918
1.0660444,92.33384
1.0060234,88.82245
0.93152136,90.6592
0.87079024,85.77814
1.000228,87.597206
0.907317,86.7981
0.73494345,79.769066
0.7785777,81.62484
0.65366125,77.57021
0.7442432,71.329834
0.66257733,70.81032
0.7169698,70.00412
0.6236794,65.255646
0.56420374,64.342964
0.532929,58.436565
0.6071877,59.085968
0.61884177,57.38504
0.59811103,52.394436
0.54185057,49.745552
0.5943135,51.78603
0.66255164,47.326725
0.6541159,47.221638
0.49335277,46.48782
0.41471523,42.17746
0.46776018,44.16566
0.49762318,44.86035
0.33956277,43.125725
0.3850459,50.864235
0.33072102,41.44674
0.30101454,42.163383
0.27217504,47.949783
0.27828893,51.82531
0.24724749,51.196384
0.24769478,60.746662
0.3976977,54.52763
0.4768904,60.868996
0.48860407,61.129467
0.62585735,65.895676
0.6503666,72.34177
0.7809627,76.470406
1.0350811,81.054855
1.0158176,89.02729
1.0814428,89.81846
1.292133,95.19847
1.3400174,102.173676
1.4674997,102.969765
1.4343371,108.753006
1.5649436,113.7901
1.6413714,116.7462
1.6321222,121.87206
1.6422238,122.761955
1.7869352,125.423874
1.7510797,127.13897
1.769816,130.51714
1.8329048,128.99138
1.8644952,134.46678
1.7078093,132.7488
1.6840352,131.97917
1.7827047,133.7626
1.8076069,131.45602
1.6921091,134.15031
1.686783,136.61346
1.6514201,132.53426
1.5929592,132.9604
1.5164543,131.43604
1.6526965,126.32893
1.4252752,122.72957
1.4716288,124.72484
1.449837,123.94137
1.4054201,119.15917
1.4147702,115.61893
1.2881281,113.510925
1.4554027,110.85807
1.3050826,106.96898
1.3187,105.70736
1.3996903,105.97542
1.3559365,97.80407
1.3039421,98.819626
1.2993219,95.482124
1.2858839,93.463974
1.3183519,92.77247
1.2265533,84.2142
1.0720894,90.677444
1.155567,84.32889
1.0917932,83.65448
1.0575567,82.51623
0.99060756,75.642265
0.99255806,76.91545
0.9805508,67.53539
0.890548,71.78453
0.87235034,68.501816
0.83683604,67.204796
0.91797525,63.836678
0.92653763,59.649223
0.8262997,53.442028
0.8457486,53.155643
0.8742329,56.000523
0.84507966,48.594852
0.88432443,44.601524
0.76883614,45.48251
0.76074654,46.96511
0.80743223,45.61157
0.7449033,42.034462
0.6466522,41.444572
0.6559383,48.814396
0.5179796,45.770004
0.6211033,40.96854
0.46133542,47.457138
0.4911031,49.909058
0.59039485,55.38668
0.48461097,47.76194
0.4463119,53.17385
0.50863695,56.527664
0.67854977,59.175022
0.7167654,66.12683
0.9778185,64.12412
0.97462064,67.93133
1.0253731,75.03192
1.1717415,84.87064
1.2578826,84.50935
1.367502,92.03253
1.3889306,93.23355
1.5952774,100.73503
1.5442269,105.67497
1.7578627,104.542816
1.7552302,111.649506
1.8157701,118.025566
1.8367711,118.09447
1.845502,123.73278
1.891306,125.98854
1.96922,122.528206
1.8799676,136.48883
1.9861017,139.09198
1.9498123,129.13547
1.9887385,135.58305
1.9668871,138.15578
1.9120356,136.69843
1.8704176,137.25835
2.0458596,133.15544
1.7982674,131.59013
1.8143415,131.90968
1.7819761,134.3395
1.6799407,129.29984
1.751261,128.11322
1.7210755,131.04443
1.6808625,127.71715
1.6837012,119.87982
1.5905236,112.42654
1.5698117,115.017075
1.552007,110.2237
1.642549,114.07148
1.5336168,108.812
1.6229546,103.87505
1.4780136,103.5535
1.4727737,99.99699
1.4779254,99.72302
1.4579829,99.16238
1.425189,95.58783
1.4389211,89.519104
1.2993262,83.897644
1.2703214,85.57745
1.1853688,81.01803
1.1040444,82.496864
1.158218,77.398834
1.1547737,78.488686
1.0506792,74.79622
0.95663315,71.04444
1.0437953,67.249115
0.99553007,68.24735
0.9398054,61.812634
0.8873834,63.80148
0.86970353,64.89939
0.9453539,56.343803
0.9287187,54.015663
0.78726614,53.66088
0.9037475,48.517006
0.8958995,41.19065
0.8784095,49.084076
0.89520025,48.206642
0.80166215,43.32424
0.7554953,45.346375
0.62250555,43.190872
0.6354283,42.38934
0.63723934,44.494446
0.60185146,47.71879
0.52798235,47.041668
0.5175998,44.813034
0.5458857,51.10352
0.50514185,52.61736
0.5764336,58.619263
0.55943143,54.722637
0.68936193,61.717113
0.7635667,64.5631
0.8128201,66.36693
0.90943086,68.08114
1.0388179,75.065735
1.1078097,81.17341
1.1937523,83.25054
1.3428521,89.68236
1.5151573,89.56055
1.5582469,106.03589
1.5428594,101.17895
1.6233864,110.82838
1.7279625,109.36028
1.7640903,115.20998
1.7834842,112.79208
1.8670895,124.10202
1.8998063,126.008095
1.8488282,128.47086
1.8017874,123.635345
1.8657485,133.81242
1.9202794,134.75493
1.882481,134.22984
1.8212168,132.12953
1.872665,136.22383
1.9061339,133.9124
1.7395811,134.7376
1.7351451,130.04007
1.6898212,135.24023
1.717594,128.24477
1.6550012,131.81609
1.5936555,130.75612
1.5760379,130.09605
1.5751802,119.495155
1.4854876,123.608185
1.4264802,121.19975
1.4161358,119.154816
1.3604811,113.529175
1.4531422,110.55735
1.3870965,106.20488
1.4104881,105.29527
1.4058235,104.13351
1.391852,99.32573
1.2526503,103.25502
1.2474247,94.41413
1.2419147,94.119865
1.284975,90.11224
1.0900602,89.958336
1.2459844,85.11982
1.1189994,86.774666
1.1246804,80.42272
0.9110182,79.217865
0.9664578,77.15976
0.84418124,75.031975
0.7507621,74.9344
0.7505409,70.866585
0.70548743,65.63476
0.7361466,63.103836
0.74700856,61.064194
0.8341841,55.746437
0.7581517,57.990078
0.7746486,53.962845
0.6899859,51.04198
0.60673517,46.45402
0.6804572,47.86483
0.60371053,48.05655
0.59001505,46.859547
0.56740487,47.215866
0.49284884,40.0
0.5247359,42.219364
0.42037195,46.661114
0.4086702,43.682636
0.40367785,43.54399
0.33020672,43.149536
0.29386896,48.859085
0.17070796,48.65274
0.25983143,47.899326
0.3455972,56.01157
0.40572423,54.730236
0.384986,58.401405
0.5708779,62.5455
0.6394686,67.24365
0.5845694,71.01939
0.71159595,72.586586
0.8261601,79.60706
0.91575336,85.59314
1.1278872,95.11425
1.117817,96.895966
1.1321985,100.02242
1.3126704,101.01363
1.3477775,107.27299
1.4849359,109.18463
1.5113564,115.6013
1.5012238,119.13988
1.5429119,126.69262
1.6285304,130.76088
1.6238276,129.81493
1.5532303,128.47949
1.6210092,129.24022
1.6605504,133.78406
1.5602813,134.0102
1.6812412,136.49655
1.5719539,141.39459
1.5339818,135.42255
1.4362365,133.1758
1.5711018,135.54396
1.4945555,129.3641
1.3796462,131.07108
1.4158093,128.3804
1.3032407,126.385345
1.2494957,128.76945
1.342989,128.38728
1.2444168,119.56043
1.1412609,118.99839
1.1299177,116.49024
1.0595037,115.369965
1.1310939,113.33233
1.1301234,107.724075
1.1504221,106.919464
1.0764391,106.199265
1.0419695,100.40355
0.9976986,98.77221
0.9786777,97.72119
0.9278871,93.08353
0.9831739,93.85057
0.87652946,90.76247
0.78499776,85.00316
0.78199595,84.742874
0.8105226,84.1184
0.7453223,82.331436
0.6679488,76.369934
0.57326895,74.9478
0.53588086,69.7647
0.5248993,69.72084
0.53132236,65.63321
0.45921546,59.71778
0.5391966,60.190884
0.44460163,57.647274
0.518681,59.22224
0.450917,53.453968
0.45171085,49.010357
0.4455996,48.03799
0.44827557,52.056683
0.31427574,47.32606
0.3860803,49.13721
0.29603493,43.053688
0.31783065,46.451138
0.23765504,45.139164
0.16376872,42.033157
0.105616495,43.427155
0.08919413,44.14656
0.03516111,40.0
0.07474229,47.23265
0.05680576,50.329376
0.040234625,49.96165
0.051421866,56.268665
0.06717207,55.709583
0.04057388,59.511803
0.14811914,62.82854
0.37150916,68.40116
0.2768357,74.52448
0.48660424,74.555275
0.5208733,79.14491
0.6395364,84.643456
0.84041846,91.18836
0.8869438,93.08152
0.99283457,95.63577
0.9887102,102.61605
1.0938827,105.98313
1.1523769,115.88167
1.1988881,118.462395
1.3059723,120.53995
1.3539425,123.30108
1.3242404,125.171555
1.4152844,126.13547
1.5104764,128.65512
1.502063,130.39935
1.3614879,130.67188
1.3151453,136.21614
1.4693309,135.23723
1.4450632,132.86978
1.4678451,132.66078
1.3759644,137.7287
1.2297207,136.844
1.2432647,132.5639
1.268711,130.63899
1.1146072,129.66432
1.1049632,129.11725
1.068164,126.298386
1.0934741,124.567505
0.9929431,118.88833
0.88614035,119.97841
1.0038774,117.69984
1.023467,113.34065
0.98318,109.68889
0.8966129,106.52743
0.9453914,107.13944
0.8543179,101.081
0.93236417,103.36895
0.89549756,98.06923
0.921485,98.45445
0.8365292,96.686485
0.8391927,93.19207
0.6840539,87.47089
0.67905396,86.10921
0.6346164,83.591354
0.64403486,85.141335
0.5289032,81.618706
0.5245126,73.61702
0.4140542,72.55489
0.5508182,74.74336
0.3015337,67.133896
0.40517893,68.240204
0.40455082,65.04759
0.40729484,63.76573
0.39992908,57.085518
0.2838647,56.06735
0.37031513,55.6488
0.31442776,55.4111
0.33583152,51.824535
0.32951412,49.72433
0.2935858,41.676994
0.26187807,49.86078
0.22603628,48.4402
0.1579827,43.329975
0.12250573,40.0
0.12445832,48.44227
0.15192409,47.724358
-0.0029252372,41.40128
-0.054001603,44.15051
-0.11957341,46.378517
-0.034719914,48.719143
-0.11015517,52.576782
0.037657518,52.80848
0.0074031716,58.637714
0.047315862,59.81941
0.08696856,64.30243
0.22206171,66.01484
0.4661384,67.404976
0.4299001,74.59432
0.5655209,80.091705
0.697204,83.67253
0.6561326,91.34548
0.78575116,90.93646
1.0049914,101.34515
1.0877104,103.42299
1.0660636,104.31348
1.1820425,108.58956
1.1637151,116.98786
1.2118909,116.576416
1.3086178,115.73594
1.2498488,127.88282
1.399754,125.90269
1.3279276,129.05295
1.3395526,129.96484
1.3452766,133.60477
1.437176,127.61754
1.3353877,137.46356
1.455281,136.21129
1.3223225,135.17891
1.2786758,131.81569
1.3599143,137.20987
1.260195,128.69783
1.2878985,127.601654
1.2917008,131.40045
1.275624,127.52763
1.1920846,124.21203
1.1224513,124.60609
1.0752257,122.99206
1.1532643,117.30076
1.0671552,115.076355
0.99925923,116.09183
1.031174,113.42906
0.9227822,112.02973
0.8492841,107.02956
1.0108042,104.460144
1.0093766,104.84914
1.0343863,96.94701
1.0391756,97.677765
0.94682723,95.232445
0.8311867,91.902534
0.7874353,88.03536
0.73246557,90.48741
0.8489831,81.530235
0.74078494,84.524376
0.6759384,77.49758
0.6297751,78.21897
0.6290023,77.41802
0.5563221,75.87572
0.4974989,69.84202
0.4217965,69.54164
0.5138127,64.484146
0.5231999,61.741795
0.5200727,59.57766
0.43724382,57.88299
0.47192767,55.33896
0.4711952,52.389786
0.4297604,53.351707
0.4341721,48.45397
0.45762584,53.742023
0.41491354,46.353985
0.38509947,44.94295
0.38281816,47.27224
0.33392486,41.196224
0.3177368,44.738167
0.25702545,42.42039
0.20659466,40.517075
0.16747727,43.66742
0.14800408,48.5644
0.057434555,50.159706
0.22554813,50.01788
0.16527705,52.72158
0.33024353,56.41918
0.23756972,62.401928
0.2935277,60.209118
0.38568905,65.05937
0.48085403,68.97936
0.7060449,73.43236
0.7269322,77.20054
0.90640306,83.73409
0.9349538,94.16995
0.936322,92.55974
1.1208694,95.50829
1.2499297,101.703804
1.3260047,107.72401
1.5024433,112.11319
1.4530892,115.7042
1.4968731,120.88841
1.5460296,124.04565
1.5383829,124.53828
1.5857499,127.24007
1.5418519,131.44838
1.7052665,131.04662
1.6267818,134.8213
1.6339462,131.43246
1.6628002,130.38315
1.5025177,133.32668
1.6278056,134.7938
1.5934653,136.75494
1.5671295,135.10953
1.6007894,135.8873
1.5375152,132.93138
1.5040369,128.5817
1.5298988,129.35243
1.5436214,129.38588
1.432916,125.81398
1.4117105,120.42458
1.3154631,124.69207
1.3015605,118.32892
1.2900864,116.38892
1.2853444,109.29538
1.2756125,113.07178
1.2829481,105.949394
1.2683848,103.88499
1.260858,99.0372
1.2466362,100.725876
1.304167,99.330826
1.2587922,95.59596
1.2134314,91.846886
1.088033,92.61911
1.015301,84.72344
1.2065941,84.037926
0.95956844,80.74603
0.97422826,85.174904
0.9483782,78.57228
0.917447,74.59805
0.81490874,72.21792
0.79089946,67.250725
0.90479547,66.6403
0.71630484,62.989826
0.79959095,58.50835
0.777763,60.91976
0.69787717,58.952686
0.7766742,57.646904
0.7517244,50.720753
0.754949,56.103016
0.68545765,48.485283
0.7579923,48.50291
0.7297515,49.25884
0.699292,44.452244
0.70074403,40.0
0.57227707,41.819202
0.6613825,45.301147
0.5288652,43.715244
0.52261347,40.919277
0.367602,45.94293
0.48910397,44.473488
0.4713338,49.222115
0.266546,49.927353
0.4822247,51.290813
0.57180816,55.935204
0.53048205,56.562786
0.61997145,58.00179
0.6414564,66.47521
0.6667623,69.56976
0.8624715,73.58075
0.9545186,75.51243
1.0797927,79.83939
1.1718391,89.656715
1.3344685,95.67806
1.4685886,96.03865
1.4794761,101.93663
1.5081394,102.557625
1.7111996,110.06173
1.7372961,111.982574
1.7599615,116.844154
1.7445198,117.953476
1.8655261,123.461006
1.9071438,127.418465
1.8601725,128.4453
1.9181843,130.36684
1.902344,128.79628
1.8543152,137.84355
1.8401421,135.96397
1.8603121,137.9027
1.824877,134.17853
1.7618617,137.16869
1.7946093,132.43723
1.7997425,134.17374
1.8022056,133.55078
1.8112892,133.04945
1.7174711,127.37298
1.6908475,126.5223
1.5910982,125.468704
1.5889539,123.42046
1.6865283,122.062004
1.5693299,113.46562
1.5461984,118.57413
1.4351418,114.25272
1.5026511,109.22071
1.4750785,104.94259
1.3840806,100.107315
1.444603,102.759056
1.4800225,102.58472
1.3736371,99.81539
1.3955868,95.229675
1.3067008,91.431015
1.3931962,88.82492
1.4025183,87.80609
1.245542,84.95483
1.2819357,80.139465
1.160078,78.36835
1.0522839,77.197105
1.043085,74.26961
1.0889636,74.90451
0.995109,68.97287
0.9494579,69.599075
0.86795187,64.775604
0.91932464,63.60176
0.93221813,59.806133
0.9705808,58.28036
0.9410957,56.95088
0.88399583,58.470325
0.9102257,47.803333
0.9473144,51.16314
0.8319011,46.79092
0.8634709,43.490208
0.7116363,49.952404
0.78655875,43.10255
0.7379185,42.602264
0.65922534,47.50314
0.6122581,44.309753
0.65135443,46.232815
0.5974729,41.75374
0.5094019,50.115852
0.5107995,46.317677
0.5138117,50.92721
0.5164951,51.647842
0.6223217,52.92101
0.68234986,58.833633
0.589438,63.31306
0.7699926,64.06152
0.87619245,67.90595
0.99426025,70.770775
1.0745735,79.09561
1.1391327,81.63052
1.348688,84.81861
1.3429316,87.353165
1.4523048,97.6496
1.5709405,95.18056
1.7393715,103.15662
1.8315058,106.43077
1.7762523,114.18568
1.9728221,118.41426
1.8792753,119.905624
1.9444331,125.435684
1.8793212,127.80175
1.9389603,130.50325
2.0040178,130.89319
1.9320676,131.292
1.90938,134.18492
1.8809361,133.33667
2.0075092,132.19197
1.8232607,135.1887
1.8419702,137.91025
1.9234022,131.88237
1.7889732,135.84764
1.8190849,133.58984
1.7684051,133.20805
1.7533033,131.36794
1.7098371,127.93969
1.6388316,127.749
1.5200303,122.29301
1.5831503,124.21498
1.49257,115.74742
1.5860125,115.43938
1.4914658,121.20771
1.4200877,112.47984
1.4590526,108.74061
1.4630961,105.73396
1.4002681,104.73548
1.4924748,102.072426
1.3982176,101.241684
1.3669147,96.68306
1.3247479,91.74908
1.3113269,93.83235
1.2694292,85.10582
1.2066858,86.57424
1.2477957,85.71327
1.1151619,78.19828
1.0237776,81.00839
1.0923054,74.17069
0.93930733,72.01272
0.986334,69.750496
0.847485,67.2867
0.88402677,65.388115
0.76988417,65.70864
0.76267266,61.887974
0.8164546,57.828274
0.79995245,55.92298
0.8371539,52.762337
0.80948466,55.66297
0.84434104,49.506126
0.8470523,49.998325
0.80790013,49.509987
0.7505175,43.53645
0.58406126,43.869564
0.60655063,44.683144
0.669149,49.668606
0.54333365,40.0
0.51014626,44.804596
0.5604753,43.307053
0.41071677,45.510742
0.36693424,47.483162
0.36076957,50.26306
0.4645712,52.441963
0.298305,53.39355
0.46594983,58.55344
0.50433946,64.745705
0.63110083,69.3585
0.6672246,61.790276
0.751193,73.52986
0.9560258,76.09791
1.0005004,84.42221
1.1852314,80.954414
1.1948272,91.56971
1.3662039,93.692314
1.4062102,99.32327
1.397656,105.2643
1.5421056,107.24167
1.6846284,115.655525
1.6550261,115.195335
1.6349549,117.66771
1.7082187,120.458595
1.688088,123.59365
1.7783059,129.49425
1.6810848,134.27237
1.6629068,131.2039
1.8446802,133.78346
1.6996931,137.18394
1.6479143,135.40242
1.762342,134.41002
1.6088765,132.79036
1.6354868,133.95573
1.6174891,132.54211
1.5752175,133.05759
1.5472343,132.42499
1.3215021,129.51617
1.4726946,126.50558
1.3605922,126.757744
1.3166507,121.200806
1.2761109,115.87841
1.3709505,120.46648
1.3080263,112.35709
1.2453982,116.26995
1.2105438,117.786896
1.2728184,110.16885
1.2566934,103.53351
1.1618296,99.57221
1.2237289,100.61199
1.1204643,99.68389
1.0782428,95.48506
0.9980687,94.14871
1.0034182,90.97098
0.99478936,89.785995
0.93524414,90.780266
0.8493046,78.62832
0.8978221,84.68456
0.8643305,80.60674
0.8511417,79.78387
0.7353566,68.35566
0.64792377,70.97721
0.66698027,65.59647
0.5851154,65.99189
0.6206352,60.68887
0.5933231,61.609097
0.5736569,58.421425
0.52059036,55.15615
0.5655918,54.39681
0.56911165,49.479015
0.58869505,55.5847
0.602315,52.74816
0.5038621,45.62294
0.47010222,44.519993
0.41432282,45.804344
0.27034485,46.18561
0.3557047,43.23665
0.25091124,46.846443
0.2570917,45.180916
0.16606225,43.135036
0.102041766,47.705338
0.050012458,47.813038
0.19337073,48.321476
0.19268867,53.39859
0.10401907,53.896835
0.10910682,57.18245
0.25069615,57.227318
0.25819674,63.34672
0.3631638,65.151184
0.53979146,71.681915
0.5320999,74.60026
0.662971,81.82322
0.75197506,88.18503
0.969754,88.73326
1.0264994,92.938515
1.1193727,101.28699
1.2522842,101.84491
1.1875983,107.253815
1.3608866,110.60989
1.329728,119.41051
1.2894751,119.288025
1.4301393,127.58109
1.559022,124.86432
1.409516,126.50744
1.442103,128.53178
1.4316673,130.99672
1.3668026,133.60722
1.3437057,137.01822
1.478554,133.11766
1.2767704,137.75404
1.3798622,137.70566
1.3181235,133.55424
1.3748502,133.5155
1.2805387,130.01556
1.2237418,129.21742
1.2192028,131.38283
1.1306772,133.0589
1.1553447,121.90715
1.0779239,126.50729
0.98000705,119.87433
0.9538963,120.15089
0.9909836,117.95639
1.0828611,114.984924
1.1215765,110.67053
0.9251884,107.85281
0.98413014,108.64022
0.8734575,101.78064
0.96380496,104.99351
0.8898093,98.66237
0.91171306,99.6895
0.7978307,95.0246
0.72236335,96.589424
0.8148335,92.169945
0.78840595,85.90166
0.6889684,81.010796
0.6298198,79.37983
0.50842434,82.08228
0.5083794,78.71263
0.498752,69.17305
0.40975887,69.95684
0.38267988,70.42702
0.33844712,63.46467
0.3166393,66.42538
0.32529467,60.559757
0.31686884,56.75173
0.32366082,55.172504
0.3901764,55.918922
0.40795586,52.545116
0.44329998,47.798866
0.28892732,49.545193
0.33761492,46.75685
0.32238176,41.952446
0.19384226,46.25365
0.13947591,42.975204
0.19948564,46.980167
0.091001295,44.506763
0.111363105,48.20226
0.0012914801,46.742245
-0.06005867,48.783314
-0.11972403,51.95113
-0.024132125,49.536163
0.004309775,54.70259
-0.04104521,50.339977
-0.009691947,53.97842
0.114648335,59.538734
0.24967574,62.51707
0.27186713,66.4418
0.40348688,68.749504
0.33840755,73.21771
0.5940198,81.736626
0.7105983,86.00417
0.78820384,95.731895
0.83394164,95.8599
0.9520463,100.12118
1.0406044,101.162636
1.0495782,107.74102
1.1682777,113.82973
1.3358842,112.88201
1.2568976,116.90884
1.3128552,120.51939
1.291184,122.64015
1.2844766,126.85296
1.3630815,127.07173
1.3585969,136.46844
1.3867285,133.16519
1.4383898,134.81825
1.2654699,133.92876
1.242722,136.16943
1.2714993,135.6104
1.2418578,135.26819
1.2698215,134.90236
1.2000892,134.8261
1.185236,128.55394
1.1871178,130.11183
1.1509413,128.6463
1.0929304,127.77709
1.10759,124.00318
1.00086,120.366425
0.9875466,117.94383
1.0085816,114.46016
1.0413573,117.74661
0.97054356,112.043076
1.0378369,110.56988
1.0181526,100.05672
0.90433264,105.05256
0.79765105,97.77198
0.8574424,96.0296
0.925034,97.163956
0.8140506,98.67289
0.8813608,91.14352
0.9329915,87.84633
0.81092805,89.26073
0.79452467,82.85796
0.7873723,82.50977
0.56109643,77.84625
0.4983205,78.39576
0.5193186,71.50072
0.519575,71.570244
0.30757347,69.66389
0.37411565,72.17801
0.28938922,64.34929
0.4511415,63.25752
0.39899635,55.81572
0.3950812,59.718628
0.3329417,53.13273
0.36552286,52.626034
0.449728,54.00054
0.3755297,50.08143
0.3437452,49.13856
0.29107848,46.304104
0.43149304,49.118244
0.24365719,46.725666
0.22831468,44.4942
0.2671431,41.50844
0.10859323,46.39033
0.08241275,44.351246
0.08296751,44.53732
0.1117662,48.750557
0.034094326,47.0743
0.1032606,48.870197
0.088515736,57.501835
0.1216157,56.418816
0.21318825,59.919846
0.29997173,62.593445
0.38615194,63.017284
0.36585698,73.42144
0.5325341,75.59548
0.5565772,79.66711
0.71738005,83.67936
0.759623,88.88285
0.9610661,94.17682
1.1128328,96.19689
1.2192037,102.64715
1.2292901,104.37083
1.3270922,110.922035
1.3722459,113.70751
1.4604857,116.549644
1.4422945,120.94107
1.4410299,121.89876
1.4713234,126.68492
1.5447639,126.271484
1.5733391,132.50116
1.62584,136.57948
1.5226432,134.7981
1.5828912,133.5952
1.4182258,136.85262
1.4428724,133.22179
1.4805119,138.98297
1.5289228,132.66519
1.414649,132.48228
1.4103252,132.44405
1.4488438,125.841774
1.3412157,127.401024
1.315471,126.53175
1.2259781,128.4428
1.3223248,120.31876
1.2745943,119.93339
1.217875,113.30135
1.1773796,112.864716
1.2514099,109.40687
1.232156,111.98666
1.1887013,108.402756
1.0939066,106.33667
1.0586042,106.13358
1.149624,101.111496
1.1352329,96.520805
1.133257,96.33832
1.0457449,92.33102
1.0821465,89.55576
0.9366506,86.93135
0.93056655,84.53809
0.8153243,81.84878
0.89492434,79.51031
0.8443746,78.77074
0.8370526,72.58913
0.7593241,74.60253
0.78095573,69.85663
0.80755395,68.92573
0.67346615,67.3168
0.6965953,63.78142
0.60957617,56.65783
0.74370015,52.180767
0.64537054,54.90833
0.600562,50.71028
0.6331677,52.408863
0.63028127,46.144463
0.634555,48.5713
0.63988334,50.166786
0.6515684,44.921143
0.54217225,43.07329
0.4819886,41.710613
0.43093792,46.88604
0.42018947,44.098167
0.31695554,42.609932
0.32283136,43.436516
0.47218642,48.686382
0.289976,48.128647
0.40078926,47.654762
0.4624779,53.95959
0.37647673,57.15976
0.5088937,61.636074
0.47274876,60.307808
0.5849946,68.72659
0.6371325,69.33268
0.7475612,69.966125
1.0026455,78.76585
1.0333356,85.052345
1.0651419,88.718445
1.169101,90.755135
1.271964,95.614746
1.4505435,99.66125
1.5291446,104.390526
1.6226118,107.70794
1.5341313,115.293106
1.6603664,114.84517
1.7142153,123.83175
1.7630413,121.1691
1.7815262,129.66101
1.7934552,128.7704
1.7142593,130.24103
1.8934274,133.77307
1.937436,126.67252
1.7623038,130.3776
1.7807509,133.1492
1.8873589,136.9762
1.7590429,136.04962
1.8230385,138.5127
1.7063553,133.06982
1.7645903,135.95024
1.6107446,134.26912
1.567346,130.56984
1.611756,126.2644
1.5733919,116.822815
1.5660818,120.63863
1.4903932,122.62945
1.5308592,116.74457
1.4789833,116.64279
1.3602877,108.829185
1.4138638,110.12491
1.4430251,112.269554
1.3749878,104.13719
1.4314277,101.39748
1.2949748,102.111565
1.4198142,102.14091
1.3763433,95.899185
1.2888371,93.46535
1.2817719,85.522354
1.1927594,88.37653
1.2146953,83.192406
1.2472337,80.550316
1.1147729,84.31867
1.0817517,79.03748
1.0776021,75.22105
1.015824,73.25573
0.9967371,69.80077
0.95126176,65.082085
0.8644895,62.18502
0.8587528,60.2766
0.8627905,60.646343
0.81318974,56.784893
0.84301347,55.195766
0.8635173,54.506004
0.9062082,57.18431
0.80196947,49.051815
0.81945056,48.47718
0.82243365,49.6902
0.7560909,42.01059
0.73810446,47.763905
0.81252486,47.43681
0.61975396,44.30226
0.61473554,40.225338
0.7269137,44.364883
0.78539515,44.9375
0.55642587,46.595398
0.5164857,53.19547
0.57587975,50.895912
0.53494763,50.701828
0.595346,54.369747
0.6982984,57.38593
0.64399576,60.55868
0.70892763,62.447746
0.8031122,68.90862
0.9717179,73.14957
1.0619751,78.44211
1.1332713,81.11942
1.298259,89.33159
1.2927847,92.77357
1.5203161,95.10321
1.6172266,99.68464
1.6926271,106.52466
1.721931,113.63756
1.7793046,112.67005
1.8113426,117.36256
1.8766167,120.24059
1.9223268,121.88675
1.8523464,127.45521
1.944216,128.31308
1.9437556,130.1967
1.9643896,129.04916
2.0912907,132.89445
1.8568397,136.94427
2.0215065,137.44283
1.9318976,134.26248
1.8195424,135.20447
1.8291882,135.91945
1.8975601,137.513
1.8368696,130.22617
1.6517991,130.29303
1.6779928,125.22689
1.7236999,128.08119
1.6275358,122.17049
1.6112443,118.072044
1.5870296,121.3924
1.5789309,116.43927
1.5804998,113.560745
1.4443654,110.38094
1.4878412,113.33019
1.4836249,107.21086
1.5712,107.49131
1.5743381,102.8543
1.4896777,101.82821
1.4924617,99.5221
1.3778402,94.75398
1.3280272,88.09882
1.3272642,90.289604
1.2574692,84.4404
1.2576448,88.118904
1.2933615,86.66087
1.1615975,75.506645
1.1599524,76.42705
1.0418924,77.751625
1.0177413,70.526245
0.95610297,70.66472
0.94019145,64.22233
0.9755971,63.48044
0.9778314,63.928787
0.90340555,60.223557
0.9357343,57.656178
0.8889583,55.61524
0.9510517,54.500782
0.86574715,54.859463
0.7457106,50.105488
0.78892297,45.419262
0.83663166,50.273838
0.7762559,41.437195
0.7561225,43.417526
0.7263569,41.495316
0.70018363,41.079586
0.6035215,41.52012
0.62331957,45.93947
0.5828125,44.04838
0.42693833,41.37617
0.5062194,44.10237
0.49274516,51.108364
0.47139063,54.080013
0.5361694,57.749527
0.6185499,57.765156
0.60946393,63.590546
0.6830197,65.95011
0.78559047,71.153946
0.8376659,70.50349
0.9923846,79.91988
1.1146058,79.0338
1.2826293,89.40643
1.3635956,94.676346
1.4192933,93.641914
1.5199664,104.03974
1.5239239,106.40088
1.5321041,108.74537
1.6871878,112.52315
1.7172412,115.47302
1.7701393,117.70849
1.7922204,130.05647
1.792736,127.11344
1.8860605,125.303795
1.9051658,129.44818
1.882045,133.65121
1.81221,136.0188
1.8259116,135.97765
1.8956227,136.12463
1.7451426,138.7148
1.8746978,132.93169
1.8559366,134.73128
1.662588,132.20251
1.6976329,129.35619
1.6648408,127.45428
1.681606,129.18651
1.5733604,132.48546
1.4641054,122.60335
1.4668325,123.34914
1.4689763,123.86315
1.3047286,117.7343
1.3007829,114.78478
1.3757962,114.635635
1.3693731,111.79901
1.3630667,108.79065
1.3717768,102.990326
1.3453945,106.61567
1.2263935,104.499695
1.227443,97.576645
1.2509388,92.52569
1.2184504,95.136345
1.2103819,90.90531
1.2486739,87.612755
0.95135623,86.30164
1.1393057,77.097206
0.9711751,79.08359
0.9873695,80.66507
0.83912706,76.803154
0.83923537,75.35071
0.78216493,69.53273
0.64989376,68.277794
0.68421286,67.097176
0.6568863,61.688534
0.7262134,65.98803
0.64802027,56.052933
0.7203643,54.593727
0.6789523,55.065895
0.62236226,50.23254
0.6063683,48.56406
0.59647703,51.118153
0.5556582,48.48905
0.50198615,46.30278
0.52897805,45.91555
0.45566747,43.28204
0.44401622,45.411842
0.39202893,45.810577
0.34732628,46.372227
0.31323248,44.38011
0.288888,44.244987
0.1974341,48.404606
0.20689403,51.966927
0.32179004,51.981037
0.3352828,50.621727
0.25561693,57.792896
0.32910305,62.53052
0.4919867,64.41876
0.6021851,64.73579
0.5366144,75.34379
0.6724357,77.08808
0.7358437,81.05811
0.8997765,87.828
1.0068662,89.73191
1.164169,97.44159
1.1819049,98.98273
1.2452606,105.78689
1.3980184,108.34148
1.4752355,115.064705
1.4617215,113.263405
1.5443974,118.20214
1.5352457,122.05841
1.5851679,124.98028
1.4920437,128.00186
1.5494497,130.08751
1.5587299,136.16763
1.4817024,132.75012
1.5561497,136.99295
1.6361693,131.78247
1.4686117,135.14557
1.4973098,133.76537
1.4748095,132.32527
1.3455837,137.16306
1.4593467,131.9864
1.2728808,130.01752
1.3525906,128.99957
1.2697093,128.3848
1.2205974,125.822914
1.1669853,118.785484
1.289267,123.796295
1.0774868,119.29134
1.1135935,115.32588
0.98660105,108.38154
1.023832,107.37844
0.99398977,111.46454
1.1088418,105.89657
1.064064,105.77359
1.034281,99.05514
0.97507,95.04359
0.8659872,95.264465
0.84268755,91.78137
0.9159598,88.68403
0.8569083,86.89718
0.8367947,84.36935
0.69399524,81.02245
0.7747634,82.49122
0.6502706,77.295006
0.6142036,74.143524
0.4684052,68.93806
0.5138792,71.77383
0.5684984,70.037575
0.40590385,66.62423
0.45049623,67.17223
0.34708735,61.451313
0.4131592,58.258614
0.44148004,55.098774
0.36163473,54.49523
0.40142322,53.20919
0.35408482,50.70763
0.42243072,48.359295
0.2829704,43.10275
0.3645194,46.658955
0.2687136,46.20893
0.21744815,47.0337
0.16603892,40.81094
0.18468672,40.126713
0.092481345,44.415222
0.020424128,50.779873
0.001405324,43.657696
0.030223094,45.59352
-0.030132456,49.58846
-0.0387065,49.408592
-0.008307402,52.08926
0.079995446,57.973183
0.23531613,63.25773
0.1961871,65.388176
0.22099139,66.67107
0.3293336,76.9438
0.5146701,76.07319
0.5763163,82.05722
0.7445487,83.82808
0.7574343,89.011375
0.88939095,94.57667
0.8941347,99.9035
0.9973143,104.84325
1.0952241,109.46966
1.1697782,116.428764
1.2625115,120.61201
1.1768334,125.948944
1.2422792,125.25019
1.3816923,122.34158
1.4032056,130.45949
1.4453278,131.16292
1.4471414,133.66959
1.3466878,128.54169
1.3986995,133.25487
1.3269335,137.8724
1.4363941,136.19365
1.2594266,132.75812
1.3904896,133.20854
1.2856915,133.23921
1.1706558,132.27762
1.1232139,132.75877
1.2215233,130.2412
1.0100088,129.75038
1.119308,127.81976
1.0293623,124.53419
1.0192938,119.666275
0.9588423,122.17773
0.9265688,121.61642
0.9657182,112.13692
0.80055106,110.93623
0.89320666,111.84681
0.9119657,106.04517
0.90986764,104.19878
0.9208043,102.87691
0.8073766,100.92622
0.8924485,97.20042
0.8946973,95.16742
0.79402614,90.51077
0.82439,90.79536
0.6565186,88.087944
0.68523985,82.75692
0.61226654,83.49297
0.5841228,82.15432
0.5961872,79.08721
0.38562757,76.46901
0.47991246,76.126434
0.34902486,67.79871
0.28906766,68.85494
0.43859684,63.05458
0.31717747,56.631424
0.3703135,58.363777
0.3123485,55.74931
0.28801358,54.965115
0.22685698,53.507015
0.311182,48.06989
0.30033812,45.52766
0.29077685,47.762466
0.23992577,48.277935
0.18206736,43.706867
0.25556394,40.0
0.20881936,44.967487
0.12087891,48.37147
0.14430127,43.35572
0.047362745,49.849358
-0.03130262,42.68367
-0.0009354252,50.254086
-0.05658834,46.38549
0.022576926,50.3663
-0.016416715,58.28626
0.10928276,54.68649
0.111604944,61.48784
0.20351164,63.031822
0.27056748,66.97864
0.32944945,72.96665
0.518083,75.79301
0.5799281,81.726
0.8167532,85.71964
0.9037685,91.698845
0.8395075,95.77988
1.0343513,101.30849
1.108164,101.71637
1.2423921,111.456
1.3010045,106.535324
1.2612648,111.58467
1.3277189,121.908646
1.3969011,122.524055
1.4989893,126.66716
1.4000702,126.26798
1.5051286,131.77715
1.4875364,133.49301
1.5474868,134.20859
1.4894679,129.46254
1.4478737,133.5445
1.4629949,129.17354
1.4641819,133.66516
1.3218317,136.74754
1.3360057,136.1149
1.2385529,136.05154
1.2937759,129.042
1.234084,127.18933
1.2531394,123.99162
1.2496396,124.47484
1.0426646,119.90471
1.1880883,122.14248
1.120187,115.77571
1.1630021,113.35385
1.0756661,115.491325
0.9937502,109.77562
1.0401653,109.63481
1.182265,104.01345
1.0052408,103.69021
1.0253915,102.706635
1.0037625,100.34321
0.9360536,90.71194
0.9184993,95.85318
0.9230158,85.26838
0.9359466,90.196556
0.869783,87.605835
0.85878795,87.1563
0.72118604,82.52955
0.8035383,77.945244
0.6873589,71.16292
0.6387016,78.63797
0.5773806,71.05753
0.55487394,71.386665
0.58358777,66.73543
0.5760754,62.13553
0.5484232,64.49649
0.47720915,60.6203
0.52995634,53.897625
0.5132295,52.249317
0.623709,54.651855
0.55801934,53.087666
0.5400521,50.889835
0.50647426,48.322582
0.433564,48.280952
0.5022386,44.076687
0.3582987,43.071384
0.3986671,48.220505
0.349816,40.651455
0.23056334,40.3914
0.38596106,45.269054
0.20075044,46.295414
0.22098221,50.38378
0.23276648,48.238167
0.07263317,47.78493
0.3119573,55.989296
0.24694176,59.414875
0.32339972,59.45142
0.46001786,63.37913
0.56293154,64.090225
0.6269731,72.54406
0.6757644,75.73547
0.82816017,79.83452
0.94223154,85.383095
1.0070845,90.86307
1.1634612,91.38639
1.2615173,97.233185
1.3744085,104.46061
1.4839677,110.48985
1.5283079,114.73142
1.5698316,112.26187
1.5402852,121.66658
1.5900763,120.28635
1.6912192,122.36151
1.7725515,129.39197
1.7894391,131.3646
1.7522565,132.81207
1.753124,130.84322
1.6762145,134.95375
1.6982859,131.22273
1.6802297,132.86201
1.6950045,135.0356
1.6854813,136.25475
1.5242268,131.3047
1.6577339,129.62303
1.5248568,128.63538
1.4936492,130.83319
1.4457215,125.41854
1.5981656,126.12739
1.4702886,122.78303
1.4999505,120.81451
1.4420414,118.024796
1.3141217,115.20975
1.3443774,120.63323
1.4377708,108.16982
1.3146677,107.62507
1.3113352,104.778076
1.365747,102.67869
1.2810004,95.72936
1.265493,99.727745
1.2558196,89.42965
1.304859,97.50621
1.2231832,89.74347
1.2446167,90.43425
1.2280548,84.612656
1.0427257,90.21596
1.1302503,80.99649
1.0088215,79.8211
0.93836576,79.412315
0.9491475,77.41374
0.8914712,72.04057
0.8194729,66.80116
0.80809844,64.361626
0.78587174,63.202606
0.78989923,61.717983
0.8066093,59.671196
0.87321675,60.257656
0.880664,58.060505
0.84010506,55.146725
0.8603712,52.616306
0.7737474,49.891808
0.86376566,47.35908
0.7383346,47.1769
0.8440692,41.45648
0.7941523,43.07329
0.66227996,46.191334
0.6636088,44.328682
0.6226361,45.35804
0.577467,44.206303
0.47041488,43.059315
0.45292565,46.309174
0.37031236,48.18658
0.41713357,48.07138
0.5018573,52.165382
0.4857381,57.60741
0.5744129,60.88399
0.67419624,59.405567
0.87816125,67.36341
0.8849708,71.48902
0.8962371,74.84051
1.0584083,77.571686
1.2469529,81.989235
1.2460884,85.00845
1.3397679,91.369484
1.4452709,99.46401
1.6218697,102.3415
1.6528703,107.47413
1.729521,110.91097
1.7733207,117.64702
1.8280976,118.23888
1.9566501,117.79941
1.9713054,124.09341
1.9416665,121.635895
1.9107229,129.80746
1.9053662,134.72395
1.9165337,134.99126
1.9697726,135.12723
1.9408275,136.07753
1.9049888,131.48259
1.9421492,135.02124
1.9808092,133.39656
1.8722298,136.46039
1.8268986,129.56941
1.8001925,129.15329
1.7497636,131.4189
1.6679358,129.24643
1.7715868,123.50515
1.6211296,122.38744
1.5993978,118.09267
1.6417438,119.15718
1.6097883,117.86336
1.5157847,114.043625
1.590155,112.00404
1.4857976,109.8637
1.5841434,111.8658
1.4882506,99.59578
1.5593617,105.76858
1.4469355,100.6127
1.4980415,97.551865
1.4355056,94.95888
1.3070196,90.38683
1.4461526,88.64766
1.3321892,85.96001
1.2150215,81.57544
1.3386512,82.78403
1.1792998,78.16964
1.0868672,77.34458
1.1441649,71.748924
1.0008612,68.71408
1.1067419,69.94055
0.951007,69.58696
0.8889248,68.30354
0.9115608,65.00735
0.9743344,59.768803
0.91586,52.722282
0.94598716,55.15848
0.891292,52.525486
0.9288686,52.18664
0.9117523,48.97693
0.899501,47.101646
0.83970183,43.815998
0.8662783,44.602768
0.77174914,43.948303
0.7146538,47.53585
0.72162443,45.34776
0.76344717,42.21581
0.6586732,41.161507
0.64531434,46.810944
0.62937325,49.8874
0.5264393,50.173634
0.50778085,51.418793
0.5881931,56.506355
0.51006156,55.545513
0.6189512,54.221653
0.70007706,62.367725
0.79073197,65.24321
0.91552234,71.57514
1.0015392,72.89052
1.0212722,77.44527
1.1648213,83.36101
1.3645128,88.514175
1.3744423,92.92926
1.4764003,94.214745
1.6596464,99.787285
1.6885206,108.16134
1.7801807,111.742256
1.813765,114.05664
1.7599232,114.03182
1.9499085,122.20099
1.7973309,120.182396
1.934028,121.002815
1.8240604,127.92554
1.9693028,136.71996
2.033333,134.09555
1.8768696,135.10764
1.9184153,130.9578
1.918633,132.20576
1.8686794,134.5067
1.8843899,132.25075
1.7540301,134.05939
1.83511,135.58162
1.7284164,128.60866
1.7773956,131.71277
1.6865809,132.33308
1.6874385,122.68969
1.5783961,122.7994
1.4971132,122.87554
1.5042083,122.28194
1.5416687,116.28823
1.490611,113.27992
1.4211566,111.317726
1.4594467,107.64431
1.3772576,105.07817
1.412402,106.84942
1.314911,104.7516
1.3317196,98.09464
1.3788013,100.530815
1.2430786,94.96005
1.3727716,88.1274
1.2886304,90.21945
1.1772135,88.39489
1.0204749,88.500084
1.12654,85.11557
1.0809585,82.93813
1.0164446,79.59137
0.9914953,72.843346
0.8623621,71.196236
0.889526,73.1512
0.91334665,67.78041
0.7229831,64.438156
0.7906327,64.06653
0.710284,55.663254
0.774245,55.16071
0.8169615,56.659077
0.8013986,54.280903
0.797069,47.770573
0.756642,46.766006
0.7506506,48.118576
0.64299226,46.496857
0.8224882,43.699112
0.6881988,41.139145
0.5664832,44.54681
0.62834203,43.11154
0.49354404,43.97847
0.47022954,40.0
0.38643804,47.4037
0.38216555,44.518093
0.3495991,50.218258
0.412927,49.555325
0.3356609,52.931713
0.402779,55.910984
0.44690502,61.605293
0.4852761,62.703583
0.5461445,62.947426
0.6524531,73.488716
0.7208218,76.11557
0.837775,78.73308
0.9799091,83.242195
1.0292594,90.733
1.1435359,92.51478
1.1965098,96.44668
1.3514261,97.89084
1.3973712,101.983444
1.4021786,108.7197
1.5183756,115.488235
1.5739632,118.70964
1.6451169,117.36037
1.6597793,129.75333
1.7293656,122.95521
1.7576324,128.88301
1.6834228,128.2928
1.5983752,132.34413
1.7140312,128.27753
1.7242458,136.4264
1.6480803,134.4905
1.5689206,137.53
1.5278968,135.47827
1.63516,134.88185
1.4813002,136.70993
1.4262282,131.92339
1.465464,129.99359
1.5036535,130.32736
1.3450811,126.68007
1.3035977,124.937706
1.2620182,122.65908
1.3069876,118.108894
1.1711656,117.814964
1.2542769,116.72676
1.2022094,113.38179
1.1380183,111.218056
1.1265483,109.36714
1.0734161,106.024536
1.1462935,102.97127
1.0339427,97.943016
1.1899242,96.03135
1.0202386,97.29449
0.9984936,91.57214
0.9764528,89.260475
0.8832237,94.10955
0.8707969,83.984726
0.93680114,85.169624
0.78230864,79.75206
0.7785955,78.80943
0.70795447,75.69152
0.6270321,69.029045
0.6070618,70.868126
0.4998042,66.50049
0.5197071,68.895935
0.5696785,60.622787
0.49459723,60.04817
0.43367097,58.120358
0.46996614,59.70932
0.43487114,56.53245
0.39944538,52.733414
0.5786309,50.372498
0.45854256,46.688145
0.41282523,44.38511
0.37003237,47.26985
0.33785382,44.62557
0.28147423,46.486
0.26414314,40.0
0.2847768,40.0
0.12551814,44.378635
0.12249295,44.13474
0.069210865,47.389763
0.00840265,44.87711
0.17581916,48.906887
0.111915655,52.01109
0.080781646,51.631126
0.1147067,61.92929
0.22979604,61.92038
0.19359326,65.1896
0.37762767,68.40218
0.43806425,74.264694
0.6315232,77.1891
0.57130253,83.5054
0.63942605,86.08697
0.867144,87.5231
0.8928614,97.947044
1.0718776,101.590996
1.207927,105.24256
1.1785823,114.459785
1.2729785,110.78649
1.2797011,114.879524
1.3372948,124.18371
1.546427,121.290794
1.3739538,126.55421
1.4213061,127.48162
1.4388012,126.489716
1.4844338,131.02931
1.3882293,133.6162
1.3554188,127.40049
1.428177,135.0977
1.4206481,136.58095
1.3836498,133.70909
1.314754,131.97812
1.3113885,132.70802
1.2470534,129.07512
1.2601272,126.875755
1.2196094,129.61664
1.1871891,130.17957
1.0437647,123.934326
0.9678679,125.996155
1.0905821,122.15039
0.9723648,115.48835
0.970747,114.65644
1.0727986,112.24122
1.020694,110.95174
0.8951131,107.58739
0.88277614,103.91565
0.9272409,103.99017
0.8864226,101.62099
0.8673761,94.477135
0.79676074,96.2422
0.8139007,89.86166
0.7502547,90.3743
0.7158494,90.31493
0.74021214,84.822716
0.69320893,81.45712
0.57570624,82.24965
0.6135657,81.695526
0.5514713,79.488846
0.57656246,70.22938
0.41353384,70.00716
0.28096166,66.519035
0.3270262,63.85798
0.3911798,64.89501
0.30006677,61.708157
0.28774938,56.376217
0.28873786,57.38564
0.35240495,52.553986
0.27357915,52.019978
0.22912385,50.558933
0.36410382,49.461346
0.34010342,46.366413
0.31207842,45.944443
0.29959542,46.860676
0.12748346,48.517265
0.15485798,45.297295
0.17429507,40.0
0.1008303,45.12022
0.10068378,45.665558
0.038546477,46.883625
-0.17297584,47.78046
-0.020893453,49.10751
-0.112557516,52.98187
-0.07111412,58.736362
0.0023435277,55.6899
0.082021795,58.359432
0.12722088,62.30526
0.21931493,65.88119
0.32737488,68.72378
0.31052583,79.01575
0.550127,81.506516
0.6350463,86.14139
0.85928285,88.41775
0.9690208,100.42999
0.898404,96.10021
1.125009,102.264084
1.0642884,111.76336
1.2389677,109.5844
1.2823579,113.4735
1.2740391,119.37189
1.2781016,123.81308
1.3117894,124.46207
1.34548,128.90033
1.3825524,131.81523
1.4907789,129.94957
1.3180796,132.02628
1.4319476,127.31811
1.3588963,135.49954
1.3042394,139.76958
1.1995053,138.87822
1.3244886,131.10643
1.2215459,135.37793
1.1968497,133.78818
1.1851337,127.280426
1.1143286,128.34927
1.1899793,125.78667
1.0964671,128.70618
0.9658317,122.84862
0.98472583,121.399254
0.966899,114.14691
0.9801248,120.67357
0.8512966,111.51271
1.0544479,111.37899
1.0024956,107.0283
0.88177526,101.02202
0.86920494,102.32909
0.92009634,101.947784
0.927214,97.756226
0.919134,96.70044
0.8042172,91.92349
0.9401855,92.49
0.7411629,85.25303
0.74769443,86.62532
0.7389772,84.74724
0.6067941,82.15584
0.62847185,79.96282
0.5297115,72.95404
0.58853143,73.61698
0.5769194,71.097885
0.50114083,69.64099
0.4967393,69.060356
0.4314025,68.703026
0.5547031,60.37616
0.6267938,58.22184
0.46851632,57.325485
0.43095705,52.736275
0.3266653,48.69622
0.5006596,48.55495
0.4113408,52.817463
0.38565278,45.365788
0.30698952,44.20072
0.39135924,43.536087
0.2992672,44.575615
0.28447735,45.68452
0.2180766,44.922596
0.13902016,49.680214
0.10956182,46.33917
0.16792691,48.023605
0.08349299,42.550476
0.20578273,50.373302
0.03515342,52.79036
0.0688602,53.466755
0.260579,55.07997
0.2836397,64.19579
0.28362173,65.70302
0.39979166,70.008934
0.5372508,78.6607
0.7351639,76.94555
0.81790286,80.068954
0.8847078,85.40942
0.9424688,88.77485
1.073941,93.47398
1.1657404,99.48574
1.2662253,102.99734
1.4011321,109.182045
1.3339838,112.36641
1.4575841,118.37405
1.517958,115.04623
1.5368259,123.995834
1.5272506,125.51464
1.5066049,131.13971
1.5547466,133.45235
1.6338089,129.50854
1.6462659,132.08255
1.5926771,133.81703
1.5393115,138.55618
1.584183,138.53712
1.5081227,134.48134
1.5187894,134.75325
1.5077629,134.03314
1.4594929,130.52481
1.3770789,133.32152
1.4588195,127.903625
1.2226121,128.70749
1.3262981,129.96646
1.3779736,123.89133
1.2916449,122.5874
1.246554,123.801796
1.2146969,115.817444
1.288295,118.17074
1.2829641,111.93232
1.1868507,106.6334
1.2235423,107.09991
1.2047385,102.377945
1.2052851,103.97647
1.2061087,98.19215
1.1981568,94.58022
1.1457301,93.48037
1.1065464,88.02801
1.1191369,90.15769
1.0237086,86.06478
0.96113425,87.89909
0.94144875,85.017876
0.97634333,82.947464
0.83560985,75.37459
0.98552865,71.80316
0.7241356,71.779175
0.81662756,68.67636
0.70262706,64.20527
0.8029254,68.28697
0.70727545,59.985
0.7993333,60.551773
0.7256977,56.558674
0.7347301,53.859344
0.75856787,52.3261
0.7698408,48.31261
0.62509465,48.606323
0.6823291,44.047096
0.7146217,43.24696
0.7077026,45.45634
0.64806944,48.110867
0.4813483,45.41019
0.5916024,41.054462
0.4593347,40.95061
0.36165524,47.043198
0.46531928,48.5304
0.41537425,46.6714
0.2310413,48.693184
0.43447015,50.459713
0.400455,50.57359
0.4637559,57.031055
0.5540591,60.224525
0.56179434,63.340515
0.6488464,66.92555
0.79810023,73.20717
0.871327,72.56254
0.98434913,78.64872
0.9765645,84.30051
1.2570596,87.33657
1.3937485,95.113014
1.5697207,100.12282
1.5964482,103.38103
1.5805936,107.351
1.6136739,109.721504
1.7147974,112.727974
1.6699296,121.0001
1.7902843,125.77173
1.7312497,123.61588
1.7785225,125.18106
1.7540945,124.37282
1.8544211,132.37297
1.8262125,133.50029
1.8456969,132.73953
1.9192641,135.69745
1.8747009,134.02089
1.7963489,132.45238
1.8951021,136.58301
1.7110208,138.00253
1.7304289,133.50122
1.7032384,127.9993
1.7397071,130.34814
1.712292,124.43059
1.6202805,124.43591
1.6294267,126.89317
1.5681071,121.507576
1.6545593,121.38957
1.4217621,116.94852
1.446186,114.033875
1.4584919,111.94044
1.4622939,106.63061
1.4312875,103.65926
1.4073523,102.358665
1.4802276,95.38867
1.3474742,97.90456
1.4061544,96.502556
1.3154172,94.757324
1.2978625,91.007225
1.2308316,87.549355
1.2661285,87.43683
1.1854069,83.70854
1.2969115,84.19845
1.1143377,80.02937
1.1437025,76.358086
1.0355836,76.68693
0.9322198,65.13757
0.94758445,74.35698
0.87859935,69.54509
0.9814036,63.39084
0.9542804,65.6429
0.98003846,56.536983
0.93008953,56.10606
0.7981487,49.98293
0.9784773,47.49246
1.0455189,52.566677
0.86006534,47.661953
0.8785912,44.911015
0.7948144,50.523464
0.8289246,42.811253
0.76785475,47.00061
0.6947866,45.495934
0.7022947,40.87205
0.6918024,43.235897
0.7254292,43.305153
0.6496424,52.54742
0.4967625,50.733257
0.5336209,54.17611
0.6401173,51.679493
0.71768814,54.028324
0.5675454,54.33238
0.6658646,60.134724
0.82118833,62.907543
0.8576307,70.3896
0.9737916,73.61554
1.11597,76.20484
1.0878055,77.429085
1.1477618,80.30826
1.3967181,90.13103
1.4175403,92.53361
1.4966997,99.69538
1.6961621,106.45546
1.7652782,112.70819
1.8794087,116.082275
1.8796307,115.20939
1.8639116,116.5926
1.9436903,123.79015
1.859595,127.00583
2.0227818,127.073204
2.0125175,130.01909
2.055856,129.49675
1.945667,129.8861
2.0515292,133.1905
1.8378175,134.40569
1.9812137,136.59993
1.8985381,135.98491
1.914863,135.48444
1.8931352,132.5994
1.9027759,128.72556
1.7649264,132.59628
1.7644331,133.21275
1.6834155,124.1909
1.562033,124.585915
1.61593,122.83406
1.5719855,122.912155
1.5765651,122.560135
1.5761855,116.78186
1.434492,116.890755
1.4548233,109.24204
1.5234672,109.18318
1.4690206,104.17903
1.4411585,111.343025
1.5065186,103.740105
1.439263,97.09143
1.4217725,94.99587
1.3935004,91.95754
1.3577442,91.28058
1.239229,92.29481
1.1938524,84.6021
1.1025164,88.243904
1.2433566,81.12246
1.2093811,79.10647
1.0960578,80.845856
1.0018426,74.58038
0.8598559,70.557945
0.9721506,68.74283
0.9043628,71.74016
0.84549344,64.094955
0.9220835,61.7341
0.98141336,60.7205
0.83153486,61.01052
0.89452314,55.842484
0.9346545,52.775288
0.970019,52.45359
0.7907239,47.274277
0.8021965,48.9071
0.792518,49.731205
0.7659094,46.248173
0.733715,43.837463
0.7021164,43.92064
0.78151333,40.0
0.55900306,42.398373
0.53778917,48.682976
0.5175799,46.787106
0.5290272,50.61274
0.43313867,49.964878
0.41219977,50.01851
0.468423,55.93659
0.5273015,58.245262
0.64285976,59.941708
0.7715155,62.599255
0.7481117,67.05634
0.82646585,72.6002
0.84816235,80.719894
0.92316,81.590996
0.9993107,80.96477
1.1980408,84.62923
1.2572181,95.50424
1.5046479,102.04926
1.4152368,104.25131
1.551756,106.59878
1.6440054,109.85922
1.6890312,114.27709
1.7530205,116.44375
1.7293836,120.91744
1.8001559,126.41221
1.821782,123.222786
1.7387967,124.94736
1.8512905,132.08167
1.8031448,132.38756
1.8475513,134.60072
1.740415,130.68266
1.8493336,133.58812
1.8078567,133.97597
1.7056313,132.72168
1.6709458,131.41292
1.6200235,135.20828
1.5421369,132.03165
1.474405,128.98357
1.5452784,125.424805
1.4593253,127.12305
1.4942106,123.231514
1.3535603,125.652954
1.4431396,117.07609
1.3834755,119.96181
1.2527548,116.07263
1.2871823,106.09829
1.3145362,111.06034
1.2719406,110.17574
1.1366751,108.56427
1.1514342,105.95234
1.2348981,97.796005
1.2072008,94.05934
1.1348606,96.83311
1.1047494,90.54236
1.074162,91.629684
0.9807394,84.76971
0.98417175,81.71133
0.9019652,81.933365
0.9290149,77.35068
0.86797065,72.16315
0.7659222,73.628654
0.7761577,73.59305
0.6825376,68.7007
0.5718272,68.02381
0.6493056,66.56442
0.6122195,59.58945
0.66635555,60.262424
0.69834477,57.85415
0.6164337,58.33734
0.5600413,52.128883
0.62195265,46.0558
0.59190255,50.57612
0.50057757,46.342354
0.5604237,48.933117
0.5574041,42.956856
0.42289737,48.25314
0.4099174,40.516373
0.40744004,43.83361
0.20668687,47.21684
0.27705577,47.094296
0.18986791,47.478516
0.25336024,44.8061
0.18209468,50.38237
0.13229479,52.541977
0.24061806,49.60848
0.17183535,59.113518
0.34186283,58.289257
0.29151687,61.390125
0.36982414,65.84307
0.5366127,67.43945
0.59127295,80.38131
0.7060935,81.676834
0.8324067,83.79805
0.83351946,87.78647
1.0466441,95.63263
1.0535635,100.76289
1.1410522,105.92101
1.261076,106.17086
1.3945191,111.19987
1.3526654,111.09077
1.4671316,116.930916
1.4260197,127.701965
1.4857616,122.27306
1.5219818,130.20087
1.5642614,127.777214
1.500827,131.1527
1.4658092,129.90619
1.4642065,135.19505
1.5104568,132.92184
1.518707,133.60893
1.3951069,138.6148
1.4011953,135.5916
1.3287305,134.02597
1.3772254,133.67429
1.2088369,126.930984
1.229596,133.89583
1.2490022,127.22608
1.2729408,127.757164
1.1066959,121.53304
1.0692296,124.55233
1.0691673,118.87169
1.023334,122.31287
1.0162507,115.29563
1.0583539,114.64157
0.9823569,110.200386
0.9642217,108.53466
0.94505984,108.91271
0.9868708,104.693085
0.95839065,97.31754
0.9551632,99.374435
0.9750693,93.76398
0.87901443,95.7906
0.83423144,89.61956
0.816655,87.965485
0.6920532,88.62859
0.6148635,79.618706
0.68311113,81.192924
0.5652495,79.903275
0.5113233,71.381065
0.4644613,68.57716
0.39332867,66.65634
0.39813688,68.41789
0.34756207,65.36279
0.38596347,60.7761
0.32777825,61.56102
0.39120755,55.74652
0.32890895,59.809345
0.33354673,54.85314
0.3282672,50.4817
0.32009548,49.058643
0.34202695,46.98129
0.2741293,40.20399
0.2732644,47.709526
0.310558,42.050888
0.19880962,42.213963
0.12806688,45.196938
0.038080845,47.274445
-0.017867902,47.639374
-0.017863518,45.47921
-0.017242717,43.71408
-0.09381035,46.398804
-0.0322075,51.12706
0.022180313,51.975
-0.012367308,57.373882
0.0554426,59.173542
0.20107691,59.659306
0.25302032,66.33138
0.28516793,67.206635
0.41746378,77.062096
0.5440825,78.77143
0.5526531,85.98124
0.8300585,85.756256
0.8457566,95.38637
0.92498344,100.23676
1.0438479,100.26885
1.1865562,100.83057
1.168788,111.588524
1.1600046,114.48135
1.2455543,116.891365
1.2540514,123.17395
1.3794284,120.85184
1.3656647,124.249146
1.3725181,130.53146
1.3620619,134.71266
1.3681505,135.58434
1.3427604,136.85063
1.3341588,132.40892
1.3343853,133.61969
1.4092028,130.1708
1.320856,137.20815
1.306783,135.51353
1.1817094,131.57349
1.300474,130.04242
1.1902139,131.90814
1.1231449,125.933
1.1052309,130.3332
0.9957775,126.69564
1.077878,123.174355
0.972252,118.615974
1.0029451,118.87835
1.00696,116.74691
0.9488965,115.128624
0.8486954,113.72123
0.82528675,109.4737
0.8940079,100.98714
0.8635197,103.97444
0.90856093,96.82788
0.8717114,95.93613
0.88020986,95.95819
0.7430133,92.37961
0.8300465,94.958466
0.7606786,86.08631
0.7424181,86.37942
0.68477064,82.27887
0.51864743,78.51409
0.59483904,83.4713
0.47796962,76.67928
0.4540506,68.991295
0.4226095,70.889465
0.40814513,72.22702
0.36113322,63.21822
0.3278938,64.21775
0.38752562,59.06057
0.40737745,58.22289
0.35281163,51.72843
0.35942084,51.733738
0.35672984,49.12587
0.38019472,47.817368
0.2904763,46.169037
0.3437915,44.572083
0.29434535,50.32645
0.24123709,44.30466
0.21478412,44.354805
0.1711521,41.485424
0.17897004,44.301487
0.09553741,46.32365
-0.013833592,47.897953
0.06306202,45.794033
0.051545348,47.244812
0.018412577,50.755737
-0.08408865,51.08047
0.08928175,56.42495
0.15391223,55.52006
0.19640797,61.407467
0.1340827,68.97776
0.2901827,67.42888
0.40105426,73.27935
0.50378144,78.2008
0.67139405,77.26349
0.8329263,89.03094
0.913603,90.42119
0.95356816,94.70076
1.0842036,100.752975
1.1493762,104.848915
1.2269697,109.14727
1.2853913,113.22611
1.4106616,116.4994
1.3659703,120.34985
1.3931912,122.02517
1.487884,124.76722
1.4504566,127.410614
1.5049278,139.92334
1.4060493,130.6879
1.4674668,132.45334
1.4968568,134.21393
1.4099358,136.34692
1.4812722,137.13516
1.4076642,134.63383
1.3558365,135.38434
1.4002842,133.54858
1.3026434,133.85757
1.3357862,131.49564
1.3332595,126.833565
1.1824298,126.057365
1.256777,122.942566
1.1911469,124.00611
1.1068965,119.47641
1.2060496,119.52669
1.0383801,113.70913
1.0332525,111.023125
1.0155963,108.37386
1.1471512,106.97997
1.1054423,105.9094
1.0011902,97.895256
1.0356458,101.93872
1.0612885,101.447975
1.0770416,93.09939
0.9519514,101.87136
0.9138917,90.39562
1.0081263,91.90042
0.88795817,83.79452
0.8367781,81.09419
0.82299405,77.116615
0.7289824,77.07347
0.72648084,73.020775
0.6370436,75.95885
0.61620396,70.59724
0.5361194,63.999695
0.6236411,65.382164
0.6185804,66.22613
0.63859767,57.448887
0.5591139,62.08534
0.55213904,60.89199
0.5797041,53.150467
0.5644878,50.038048
0.57490647,53.077442
0.55438524,48.78957
0.5681198,45.676937
0.5618934,46.025085
0.38812622,45.929024
0.5089054,43.621918
0.5213227,42.56447
0.39244547,45.31864
0.35417503,45.358696
0.32744026,48.263924
0.3862166,40.168194
0.24972095,47.735207
0.2972492,48.927643
0.31054312,54.965202
0.28491953,58.16543
0.36961845,58.28794
0.49073026,64.23599
0.52113795,60.550003
0.6984984,68.26533
0.80692357,77.63622
0.9154441,79.42896
0.9462287,86.754265
1.0547266,86.892166
1.0880003,89.25877
1.2043902,98.10074
1.4132359,99.05099
1.402728,102.63727
1.4469991,103.794624
1.6995121,113.17142
1.6810998,117.281166
1.6301785,118.32505
1.6725891,119.89482
1.6839093,126.738686
1.8290545,130.23424
1.8730934,129.55768
1.8290597,133.7176
1.80348,132.23972
1.7636417,135.86456
1.7804625,132.60706
1.8148074,135.78958
1.7614802,134.75867
1.7709607,133.83714
1.6290624,135.79735
1.7006838,133.70804
1.6059381,132.48317
1.6384019,130.48686
1.6412011,130.08784
1.4594364,123.50917
1.5211275,119.067154
1.4525447,119.2575
1.3773283,112.60206
1.4712006,120.046745
1.3979911,114.59378
1.3992152,110.271355
1.3898007,105.769066
1.4020269,109.20659
1.3630832,103.77981
1.3500738,102.11658
1.3583786,99.45928
1.3720696,94.70919
1.1874152,93.05048
1.2582178,89.50878
1.1348665,87.07124
1.2382157,86.51233
1.0752287,81.654655
1.1137064,80.59989
1.1359918,78.292274
1.0260984,76.22375
1.018704,73.261826
0.8667907,75.92115
0.95148104,65.940025
0.83253187,64.93417
0.9157913,62.430923
0.87646097,62.432354
0.7623014,58.29234
0.9094883,59.31976
0.89526325,55.829006
0.86217904,50.841713
0.7670036,52.307537
0.8605231,49.6016
0.7887366,45.48512
0.8165671,48.701393
0.75670797,43.055416
0.76814,43.117702
0.61969215,45.300457
0.7307237,43.96523
0.5615912,42.14361
0.5163354,44.636375
0.5187698,40.73083
0.54728955,49.20232
0.60235137,51.539333
0.5282217,53.846428
0.57139575,52.265766
0.594566,62.198845
0.6186574,63.076324
0.707319,64.551125
0.81324464,67.89354
0.89887995,74.861534
0.9688215,73.35626
1.0842181,81.4879
1.2630423,84.9606
1.3361828,90.14884
1.4354385,97.64983
1.5460573,94.5835
1.6452402,104.097725
1.7555422,108.55089
1.8381184,112.11419
1.7182702,114.934814
1.8651199,119.9217
1.8627713,120.16869
2.0036566,125.13428
1.8647345,124.92215
1.9543525,128.86464
1.9594462,130.58437
1.9933306,135.26855
1.95648,135.69695
1.9829597,133.45036
1.9755684,140.90707
1.9438474,134.02838
1.9077132,137.29117
1.7530499,132.43015
1.877389,131.54921
1.7122017,133.67502
1.7628493,131.94641
1.7256266,127.1448
1.5871735,121.30948
1.6807215,122.020325
1.6509709,123.67446
1.645441,118.43382
1.6315767,113.75209
1.6019007,113.129616
1.4500817,110.85938
1.5429821,105.818306
1.5535543,106.08363
1.4216481,106.410355
1.4983174,101.04296
1.3354526,99.9413
1.406057,95.8819
1.4906039,96.673874
1.3118094,93.66659
1.3233273,92.03629
1.2840978,83.74019
1.2323502,81.94745
1.2111267,79.992905
1.2440673,76.41474
1.117982,75.94057
0.9934402,72.98316
0.94056886,71.80263
0.9358665,71.14486
0.97610706,63.93736
1.0317492,66.10953
0.985591,63.32488
0.8979895,65.127556
0.91805923,57.807583
0.95047754,52.50898
0.8489769,50.262745
0.87133485,50.737865
0.8749708,52.7776
0.9213182,43.858482
0.84912163,47.496243
0.814209,43.673782
0.7678535,40.69053
0.65171194,43.187588
0.6526541,40.67555
0.7173961,45.487236
0.6543338,46.06025
0.5466667,45.90494
0.5774458,47.48415
0.5162399,47.567707
0.4331289,54.36087
0.5706926,55.755608
0.6178502,59.71188
0.6272152,58.58851
0.80592024,65.66685
0.7970721,70.65763
0.92883253,71.557655
0.9904083,78.974915
1.1274076,78.28942
1.2071398,84.230934
1.3107554,87.13178
1.5159503,93.931725
1.4961032,98.80987
1.5459379,104.03972
1.6471758,106.8792
1.7240944,108.95124
1.7517766,116.11791
1.7601826,120.82243
1.8213036,125.67816
1.8291037,123.5887
1.9388589,130.5261
1.8674484,134.52032
1.8732084,129.14502
1.9193847,130.3531
1.8640046,137.29683
1.8574028,134.86452
1.9107949,136.43677
1.7905668,139.93956
1.8172743,131.51605
1.691931,139.78622
1.711166,133.44157
1.5633438,130.64934
1.7273494,132.17503
1.6238108,129.41011
1.5835719,125.14969
1.4827117,123.398285
1.435988,119.64314
1.4885396,121.58066
1.4606776,119.20685
1.398222,114.22521
1.4464923,113.102646
1.4416121,108.889915
1.4289546,109.91271
1.4151123,99.2441
1.3742651,100.12772
1.2891806,96.740135
1.1890675,97.22931
1.3151709,89.99297
1.2620033,91.166916
1.1455128,90.38431
1.2330499,84.74244
1.0811653,83.8546
0.93432665,79.2349
1.0870546,79.918335
0.87736255,75.44573
0.870112,74.551796
0.8023903,69.390564
0.80092645,66.65873
0.8162493,65.87745
0.8458977,60.844604
0.75330335,63.56646
0.7010009,58.937584
0.74466914,52.598763
0.65134096,55.20611
0.7301156,53.545135
0.7483173,50.73692
0.69032776,49.684486
0.6614948,48.053455
0.5940338,43.901928
0.59570825,44.577827
0.664548,40.37808
0.57218444,47.749344
0.5072004,45.166153
0.5012636,44.728516
0.4095069,43.489853
0.30582294,40.0
0.35043028,43.350555
0.20626298,49.98186
0.31305838,51.374596
0.36270416,54.868378
0.34171993,59.687145
0.4574949,57.075253
0.56153405,64.32551
0.4195457,67.350334
0.6132497,73.784966
0.77624834,75.33331
0.944423,79.9402
0.89904976,85.36735
1.1595799,92.731346
1.1069875,90.41292
1.1431278,97.47303
1.2671107,101.26826
1.5151854,107.4568
1.4334996,112.12217
1.5176681,114.68268
1.4324886,122.026024
1.4882712,123.45889
1.5772862,123.6955
1.6611804,128.2963
1.7081091,129.6299
1.5773792,132.04404
1.5751573,134.73538
1.6548911,132.08656
1.677022,138.05064
1.652522,130.48787
1.5995588,130.79074
1.5299553,133.1715
1.5595409,132.75908
1.4386948,132.66483
1.4218725,128.54515
1.425855,127.977806
1.3085803,128.04883
1.2847253,125.789665
1.2464064,125.32339
1.2077565,123.83544
1.1057178,121.66241
1.1743488,117.12927
1.1154552,117.76385
1.0640546,105.83497
1.0534672,107.09719
1.0340017,108.53441
1.1696337,102.88482
0.9977187,103.72871
0.9719074,99.164375
0.9666905,100.05784
0.92184514,93.01723
0.9529601,94.15826
0.9315044,91.174515
0.9341161,88.41469
0.84643406,84.695496
0.76072764,83.24568
0.63498867,80.2496
0.6175007,77.905396
0.60196286,74.95577
0.6316564,66.740326
0.57468146,67.70502
0.56781185,70.00613
0.49233723,62.732533
0.5093624,60.345406
0.5110161,61.363804
0.39055216,58.686817
0.47534454,53.339886
0.46332738,51.726654
0.47337246,49.423157
0.36225596,47.90009
0.32496685,49.881218
0.3987694,44.649952
0.39614743,41.64568
0.3148877,49.97099
0.1835206,43.13111
0.24475986,43.730396
0.07794552,43.60961
0.11712652,44.22147
0.10312418,43.86377
0.070965596,43.383068
0.0537321,50.1806
0.044202056,48.815826
0.009976237,50.15787
0.08973672,51.18869
0.16916835,59.772896
0.120678574,65.61842
0.31491596,66.562225
0.37730542,71.7731
0.5132838,75.44411
0.6268036,74.662315
0.68871415,81.904755
0.7718404,82.755104
0.9644002,92.62029
1.0109208,98.53119
1.1766518,102.00659
1.1418225,108.18291
1.1900313,111.806206
1.2500039,111.86486
1.2478652,122.20274
1.3280203,122.948105
1.4392273,124.12852
1.4052,131.88112
1.4531735,128.93813
1.3978429,130.91982
1.4067214,134.1797
1.4025673,133.53355
1.2949477,132.10481
1.4018396,135.65019
1.3881963,134.88467
1.2707173,134.26389
1.2248676,134.98723
1.2161652,134.41933
1.0957454,130.76553
1.2067367,127.25213
1.1850089,129.95268
1.0506393,128.72597
1.1199598,128.98752
0.9965654,120.62407
0.9041382,119.68465
0.9252513,118.91191
1.0108004,117.604324
0.8840004,110.0665
0.9455423,109.96192
0.90784186,104.735306
0.94121486,103.67594
0.8669425,102.44459
0.9635396,104.56256
0.8809814,100.32324
0.8308918,95.74052
0.82579225,89.094086
0.7641411,90.1669
0.6388962,90.90671
0.70737195,83.2528
0.70075107,80.67697
0.63092387,82.13247
0.56741524,75.78169
0.48974782,75.89687
0.35768813,68.90222
0.3671968,71.17242
0.3943321,64.272705
0.35778263,62.34272
0.33014095,62.767223
0.35816342,59.253967
0.1893538,59.355927
0.22086067,59.731213
0.27578658,54.07176
0.4381395,47.174137
0.33791095,47.20898
0.20712198,48.082355
0.23526922,43.674534
0.23800918,40.0
0.25435635,44.68786
0.1309806,44.38914
0.14571247,41.753613
0.1060757,44.89553
0.08155587,43.73914
-0.03582316,45.25516
-0.079885304,46.64119
-0.04337924,52.000607
-0.04881829,48.09651
-0.01703367,52.527657
0.031200454,54.39408
0.0946302,65.77995
0.12120736,68.84172
0.25809872,64.411026
0.22277951,73.53005
0.42178553,71.77436
0.50814366,83.601555
0.6136596,88.41068
0.70532954,88.77504
0.79311943,92.15751
0.9917342,97.54241
1.0158762,107.88859
1.1135647,104.52429
1.286088,105.2027
1.1972378,115.77484
1.3087324,120.395966
1.3164909,121.455376
1.3008722,124.56273
1.3585289,124.985565
1.4567384,130.9889
1.4509989,131.37184
1.28291,128.84285
1.5183866,134.26686
1.3626767,132.72418
1.3930911,135.74062
1.3292457,137.17024
1.35404,133.17276
1.2856452,133.96735
1.2831972,132.44464
1.3241224,131.81761
1.3008503,128.37372
1.122183,128.50664
1.1500268,123.80106
1.1844275,130.03944
1.2001235,123.296364
1.0745752,116.50308
1.0104522,119.49541
0.9959027,116.363075
0.98414975,115.40219
0.973718,112.92658
1.0426955,106.96632
0.9754086,105.59125
0.92449594,98.45725
0.94781053,100.803444
1.0346518,99.830185
0.97850627,99.22764
0.91981393,96.0792
0.80235595,89.766464
0.87598085,87.860214
0.8943959,81.4436
0.74549204,81.51035
0.72186595,78.651955
0.5849418,79.722275
0.6028138,78.89278
0.55531365,71.863686
0.52663195,75.26613
0.5736339,66.44306
0.54795456,65.630424
0.54211974,66.031746
0.49363923,58.2411
0.49208006,57.370724
0.4652073,54.423737
0.49806246,52.612537
0.4652445,49.78572
0.41742948,48.345722
0.5125266,51.9959
0.39809272,46.671616
0.45524657,44.084797
0.27812243,46.338448
0.32641602,42.22475
0.31495026,41.03579
0.24233454,44.35279
0.21710368,44.90313
0.19024812,43.886402
0.1609042,48.869648
0.13783778,48.623943
0.17442364,52.85191
0.25553855,53.06378
0.22784275,54.772736
0.234959,60.699184
0.30272377,61.171146
0.42116928,67.0507
0.4950419,72.459076
0.6468954,69.14497
0.7448416,74.85453
0.8811054,82.44606
0.9346258,89.08446
1.1508576,97.53243
1.1998957,98.94862
1.1556373,97.889015
1.3920023,105.85086
1.4977806,112.98852
1.3989906,115.4491
1.4360135,116.65761
1.5629612,117.24716
1.5483181,127.28089
1.5657003,126.14836
1.7381771,132.53754
1.6425288,133.62837
1.6275214,133.4922
1.6583681,134.06218
1.6015645,135.63078
1.737615,136.18408
1.6819607,131.24136
1.7116936,137.86305
1.549387,133.99452
1.5336756,135.00964
1.4669187,130.0659
1.4874341,129.91286
1.4440321,126.480415
1.401685,123.58096
1.4415622,129.05844
1.4026086,120.17462
1.3413743,120.24521
1.4181857,117.8642
1.3311098,118.94937
1.2707071,114.19004
1.1844007,115.16782
1.3383061,104.83989
1.2268449,103.77182
1.1919471,105.102646
1.2816908,99.60052
1.2303705,98.99533
1.1286423,96.034744
1.2179183,92.81418
1.1367913,97.05672
1.2031001,87.64857
1.0593848,84.80487
1.0194944,83.02779
1.1056688,77.08703
0.92405486,80.802
0.84666926,76.47145
0.79959506,76.543564
0.9656289,73.1842
0.7086445,64.8545
0.84034944,65.47264
0.7332939,61.987392
0.81423324,64.92843
0.8253751,60.61423
0.7660271,57.653355
0.76042414,53.128593
0.78844535,51.52645
0.7716093,52.03778
0.70911664,45.959187
0.7768047,47.2783
0.713741,46.908497
0.6815235,46.377975
0.620197,45.368
0.6520174,43.230427
0.5252929,43.787212
0.52404803,44.534523
0.46991456,46.719048
0.43290588,45.183723
0.42962226,48.5379
0.40465838,49.164974
0.5130005,58.414738
0.509223,56.52254
0.5435515,55.583336
0.6433358,62.306965
0.7609428,64.71482
0.72726995,66.69181
0.8732828,75.130424
0.95114833,80.20087
1.1731786,80.08609
1.2696542,86.98468
1.3004707,91.69073
1.366528,94.182175
1.4753737,103.51279
1.6086425,105.18106
1.6749673,109.82099
1.6970294,111.74627
1.7296441,120.255394
1.7893184,122.16855
1.8364569,120.89973
1.787889,128.54012
1.8964543,125.8279
1.866496,124.980225
1.8855227,131.83365
1.9028653,131.65375
1.9651166,134.39735
1.8967006,132.98639
1.9251348,133.66927
1.9060326,131.45667
1.923935,130.62637
1.8355908,137.61671
1.72355,130.22675
1.7502952,135.85497
1.6966947,128.46388
1.6363027,126.09556
1.6202272,126.617645
1.5775652,126.16159
1.6228985,118.32293
1.5118936,114.863625
1.567858,115.282196
1.4276739,114.8986
1.4386452,112.45653
1.4546335,106.07472
1.4902047,105.18766
1.4517901,102.269325
1.4171643,103.80236
1.3494416,95.400406
1.3282278,96.6212
1.3684409,93.58951
1.3485192,89.92693
1.3384075,87.35059
1.2500737,85.19174
1.1581302,87.55768
1.2016832,81.55335
1.0659937,74.33324
1.0550615,73.90684
1.0896714,75.28986
1.0397415,68.65982
0.9157423,70.52238
0.8361461,63.352955
1.0403869,65.717026
0.93598545,61.72064
0.93888897,56.203884
0.882772,58.24781
0.88082045,54.04234
0.93775237,52.768368
0.8640881,50.384617
0.9256626,51.61298
0.88563687,46.692493
0.9184653,48.48422
0.8426964,42.845737
0.78753555,40.0
0.6778916,42.177414
0.6936013,44.706524
0.6121709,40.0
0.6401205,45.591824
0.59378296,45.49171
0.57781416,41.472107
0.5419515,53.093605
0.5632363,54.17919
0.4694576,59.05446
0.6100407,56.97414
0.7042435,65.538734
0.7854144,67.70581
0.9475178,64.70288
0.9807879,71.09116
1.081878,74.373
1.0897901,79.759384
1.2665548,87.27029
1.3298318,93.19179
1.493779,96.798874
1.608445,100.83692
1.6791219,104.98767
1.6431755,111.09261
1.7377669,115.44613
1.7955419,116.84293
1.8521914,119.10079
1.9762615,125.53227
1.8951963,129.61601
1.9383395,130.97733
1.9306207,133.09654
1.9771112,126.88576
1.9842876,138.05467
2.0282354,132.83755
1.9617497,130.54713
1.822522,136.6259
1.9333161,133.79663
1.8626249,132.37337
1.8349822,134.04625
1.7279103,133.19107
1.7595028,132.79466
1.6895527,131.95721
1.6225384,119.57498
1.5871557,124.460045
1.6100389,123.0543
1.5613719,122.651924
1.5434904,118.684395
1.5716507,115.777794
1.3651017,114.62321
1.5085373,111.49701
1.4608994,102.87131
1.4620218,107.028404
1.4304736,103.38996
1.435112,101.869194
1.4357115,95.90754
1.457863,94.6828
1.3294659,94.30544
1.231784,89.73821
1.27337,87.59901
1.2006627,81.21158
1.1523935,82.44086
1.0914204,81.44036
1.0885282,82.87925
1.0103923,76.477234
0.97066176,68.481476
0.91637844,72.919334
0.96613026,69.99952
0.8932243,70.82045
0.87249786,66.50963
0.7679962,63.05092
0.7395729,57.108025
0.8905786,51.408928
0.6939301,50.897194
0.71736246,51.10599
0.7929001,47.83313
0.7841447,50.53481
0.8519654,46.40371
0.75473714,45.296627
0.712062,44.93778
0.51546544,45.66133
0.56402344,40.0
0.52877057,40.0
0.51306236,46.556576
0.49941888,43.07892
0.481246,47.53336
0.41862825,48.33749
0.3518172,53.073727
0.3962515,51.754272
0.5111827,51.01917
0.4101783,60.226143
0.52515346,60.719425
0.49445495,60.12236
0.7065889,68.76848
0.77208716,75.69214
0.7890977,81.28249
0.9166084,77.32541
1.1108987,83.74521
1.0557933,92.47302
1.3242449,94.0027
1.327024,100.44705
1.4641163,106.48857
1.4798151,111.11711
1.6477132,113.59244
1.5659729,114.40555
1.7718183,120.86899
1.652632,125.946396
1.7534263,125.80283
1.7319965,122.12954
1.6760936,130.27388
1.8174728,130.10222
1.5990919,130.85675
1.7697008,136.74101
1.692531,137.57973
1.6597304,136.34108
1.5631917,134.257
1.7081684,137.28291
1.6334051,133.92639
1.6090891,133.59622
1.5755336,132.678
1.4786271,127.12114
1.4084911,125.70463
1.4107713,127.652306
1.3499994,122.035385
1.3247432,118.96596
1.3215007,122.81612
1.2424984,114.692116
1.2424729,115.03207
1.1363838,112.43783
1.1648476,108.1357
1.2624135,101.970055
1.2123988,102.02762
1.217367,101.26543
1.1847109,98.70482
1.1355829,96.4154
1.1545124,91.96016
1.0755516,97.49011
0.97558296,87.7162
0.83165056,85.529366
0.8548033,83.486916
0.7984896,82.22315
0.74693024,81.21134
0.81846017,78.41125
0.7565146,69.35426
0.6791458,67.653046
0.695923,73.1629
0.6682074,63.51056
0.63521874,62.83198
0.63803005,59.18863
0.41321525,55.372402
0.55892277,55.8215
0.56080794,52.47023
0.61089766,55.126842
0.51730293,51.15682
0.5278398,44.723713
0.49333823,46.917816
0.4652303,49.085938
0.3335673,43.69259
0.2994727,43.003666
0.38466337,44.495815
0.30893275,40.0
0.21988045,44.7483
0.11182411,44.900463
0.17897697,50.531273
0.1305748,44.17569
0.14267397,46.346592
0.13265565,47.774784
0.09695207,50.788673
0.14585216,56.019814
0.16732429,63.67912
0.23111711,66.47419
0.32407674,69.80742
0.577301,76.17943
0.59858286,76.12275
0.67392105,84.13716
0.80274194,86.02491
0.8667169,87.87031
0.94218844,98.14681
1.1093252,100.07214
1.191903,101.38226
1.2424389,110.68247
1.259201,109.631935
1.3856924,113.65401
1.3763045,115.24445
1.4604136,123.72371
1.4358187,128.06747
1.4389577,130.42186
1.5174599,130.97023
1.5000666,131.54883
1.5052829,135.02867
1.3879119,133.68588
1.4288565,133.68137
1.4521719,131.61002
1.4353728,136.66135
1.4518762,133.89258
1.3125035,133.3551
1.2439934,135.95963
1.247451,131.08469
1.1945387,130.77449
1.1937088,127.301636
1.0786166,128.84576
1.0928653,119.29545
1.1240566,119.71131
1.0613695,116.427284
1.0387713,116.248795
0.8964515,121.45455
1.0094646,111.712425
0.95153475,112.38337
0.9294752,106.20894
1.008815,105.191154
0.93064845,103.495804
0.89435416,100.453
0.9637055,98.18545
0.83394593,91.04821
0.8692757,87.82079
0.8651157,89.43461
0.73239416,85.91282
0.7015399,85.35936
0.6442545,81.03879
0.53333646,76.55346
0.64801383,77.08512
0.4722167,79.09089
0.5119184,68.24123
0.369512,65.6996
0.3751988,65.82044
0.36092317,64.646416
0.29006636,61.700005
0.3003093,55.25655
0.3312024,53.294907
0.25518793,53.643307
0.32935432,53.55131
0.3189113,48.606483
0.23061562,53.455708
0.32993186,48.26184
0.32102332,48.338863
0.22802134,48.82877
0.21686141,40.0
0.08600823,42.932922
0.19131804,45.24089
0.091995694,43.559704
0.015561383,45.355625
-0.13674603,42.34409
0.0063915825,52.448116
-0.054388978,45.295395
-0.107352555,47.556267
0.04912681,52.73628
0.018828968,52.490826
0.01569469,58.1954
0.11946741,68.87462
0.17154169,69.4915
0.21889079,71.38821
0.36548632,73.91726
0.55918205,86.05828
0.7465109,85.09331
0.7234051,87.14843
0.8842354,93.97551
0.8975698,96.17797
1.0555643,103.78128
1.0529435,107.14692
1.1822248,112.57279
1.1160606,114.51176
1.126708,117.59503
1.3423992,124.19805
1.3183501,124.566574
1.3071823,133.19986
1.2544632,132.92351
1.3559282,132.08443
1.3008589,137.95027
1.356069,135.64034
1.3182129,132.4557
1.2976768,135.60614
1.3440577,132.0669
1.2919732,139.71759
1.1958143,136.07051
1.2335813,126.64896
1.1877421,133.5605
1.152238,129.09404
1.0954341,130.5647
1.1235642,121.899445
1.1196223,125.19456
1.0843905,126.32293
1.0140965,120.13615
0.95826757,113.40536
1.0145688,113.9254
1.0194283,113.0136
0.98227984,106.42463
0.9225325,104.68935
0.90204704,98.14139
0.9079679,100.72033
0.8737104,106.39274
0.90651155,94.12617
0.9197674,94.69006
0.9363977,94.2205
0.8324136,85.90324
0.67623574,84.367
0.73406625,87.915054
0.666025,81.32569
0.6345517,80.767555
0.6038833,80.386
0.60795796,76.8183
0.44734707,72.13503
0.44284177,66.62758
0.2911567,68.014915
0.35246083,63.27925
0.34663042,59.188282
0.32933646,56.126328
0.37325463,58.589737
0.4381243,50.141525
0.43794551,47.542778
0.36960104,54.12029
0.47174355,50.39209
0.3580095,43.963226
0.22234428,46.671677
0.24648029,45.00487
0.17996459,45.33447
0.21537532,41.57331
0.1250159,41.16317
0.12959354,45.2899
0.060101848,41.184162
0.06840726,45.76357
0.051158573,45.65003
0.069557965,50.446526
0.0025637806,50.381645
0.083362035,56.010044
0.11059607,56.024075
0.19412382,59.67464
0.21637948,62.695194
0.26308358,67.19742
0.37137175,68.18975
0.5596643,77.05065
0.5567416,78.729454
0.75418603,87.07629
0.8124155,92.28351
0.9777909,93.82654
1.1552242,97.285385
1.1465079,101.372
1.3081735,100.16708
1.425854,113.356346
1.3815398,113.23046
1.4356923,117.674774
1.440149,124.1592
1.5226123,128.69604
1.5033022,130.05417
1.5728872,130.50687
1.5299586,134.54153
1.5860002,132.74217
1.6510093,131.39017
1.5234022,134.2845
1.5174965,137.55733
1.5445689,137.8623
1.4587314,131.87956
1.4491376,136.45773
1.4571354,130.49673
1.4245026,131.3604
1.3305943,131.33705
1.3540615,130.67755
1.3357666,127.13033
1.2833074,126.64698
1.1653103,124.84334
1.3017555,115.589584
1.2544465,118.05617
1.2041633,115.10724
1.0766429,115.28665
1.0830532,104.96035
1.177027,106.9991
1.1287934,103.52486
1.2273215,103.13668
1.1194696,98.54048
1.0796151,92.11679
1.061644,96.778854
1.0931886,94.40583
1.056571,88.27321
0.9848407,88.757965
0.8645027,85.54501
0.8195285,85.444214
0.76778877,82.64521
0.81908166,78.467354
0.70381266,74.12584
0.6299615,69.96101
0.72654897,65.80095
0.673137,70.34836
0.69356215,67.49782
0.6128476,63.28814
0.6702674,56.11175
0.68125206,58.506176
0.7004215,52.86418
0.6044927,50.765293
0.66179776,53.69285
0.6230306,46.582165
0.6775578,48.59054
0.57553756,44.11731
0.5588483,43.773354
0.5251342,43.642258
0.51212764,41.846783
0.49822274,46.57213
0.47841507,40.0
0.33250716,45.87769
0.3970384,40.0
0.27550632,44.004868
0.19558415,53.10068
0.39143503,51.10163
0.24184701,49.697567
0.25469106,54.314117
0.5034042,55.631905
0.53338194,65.00271
0.59499186,66.788635
0.70440346,71.26342
0.7717467,71.52448
0.97367597,76.606155
1.0748111,85.024475
1.2204036,91.60066
1.1891202,95.69833
1.3220404,98.12232
1.4262364,108.521
1.6126419,107.58052
1.6698134,112.828125
1.6363401,115.90909
1.676287,118.99023
1.7263426,124.70458
1.8632616,122.85554
1.7155333,129.56305
1.7977492,131.52496
1.8501716,130.92378
1.8299096,134.31044
1.7623377,131.75224
1.833874,134.148
1.8086375,138.12366
1.7733116,133.55121
1.8222762,133.04114
1.7315156,136.772
1.7886453,134.05893
1.6189345,131.53848
1.6502697,131.923
1.5582234,129.05205
1.5715878,123.00878
1.5794728,119.449
1.5350558,122.17391
1.5747343,118.34188
1.4273344,115.66598
1.4708042,118.32779
1.4867412,106.3421
1.5064913,112.334045
1.4316297,108.60391
1.4676696,104.800186
1.363186,99.00089
1.3761933,97.39479
1.4238925,94.16065
1.3313606,98.069244
1.273166,89.824776
1.4047616,90.88835
1.2052039,85.97977
1.1888676,89.67758
1.2263379,80.43684
1.1948873,80.03047
1.0586743,72.79827
1.099562,75.514534
0.9900192,72.119675
0.9365693,71.49238
0.85846096,69.76677
0.8390439,63.316257
0.94231945,65.05086
0.8820966,60.959713
0.9246267,59.901707
0.95614016,59.059715
0.87443435,56.313675
0.8936186,54.37717
0.9626205,51.315857
0.826511,48.224396
0.9869304,46.16561
0.81906444,46.722775
0.79633224,40.0
0.6675519,44.76563
0.5736648,43.144413
0.6416495,40.0
0.53728753,42.682312
0.5189926,41.514957
0.5079602,47.786667
0.594836,48.022617
0.5946002,51.402885
0.50118756,52.665363
0.46798956,53.651917
0.62756175,59.450005
0.71791255,62.956512
0.7943589,66.45237
0.7809602,68.67128
1.0094604,76.22486
1.1344942,78.55365
1.147363,79.85827
1.2756513,87.22597
1.4711256,93.63836
1.5041596,96.9549
1.5778695,102.59894
1.8648822,104.71824
1.7443103,110.72891
1.621131,116.11408
1.8480076,120.02906
1.8870018,126.65815
1.880935,124.26582
1.9319139,128.14153
1.9099077,128.4168
1.9110295,131.85657
1.9330311,134.32007
2.0421078,132.18532
1.9607232,133.54558
1.8622773,133.86583
2.0096023,137.13687
1.9361839,135.5467
1.7889942,131.88031
1.909347,134.4747
1.7398416,133.34337
1.6969336,135.92924
1.7162151,127.45234
1.7066407,127.13628
1.7354027,121.519966
1.6418343,118.10605
1.5921913,116.80821
1.6205783,120.20191
1.5314366,119.41465
1.5373105,114.11159
1.5964257,113.033646
1.5040424,113.471596
1.5587058,103.30108
1.4859937,102.60657
1.4758857,106.30074
1.5571024,100.98696
1.4810517,92.450005
1.4772826,93.304504
1.3484854,91.88794
1.43801,89.22675
1.2346588,86.52406
1.2315819,82.353714
1.1455392,84.6972
1.0714523,77.58259
1.0291806,74.4564
0.93659025,71.15403
1.0188619,71.36156
0.95721126,67.229004
0.88670975,65.69862
0.9411844,60.85661
0.8806639,59.51555
0.9610995,55.821133
0.9834294,59.804012
0.847606,54.359425
0.74473554,52.218174
0.8381322,51.30787
0.8718996,49.34198
0.86725885,48.39606
0.79008675,43.529408
0.68644667,47.604237
0.71638155,44.549343
0.6771251,43.298653
0.6263337,46.442127
0.5148984,44.913815
0.5656929,47.10775
0.57527643,47.93652
0.53726095,49.581352
0.53561234,44.963905
0.5035938,52.835648
0.5326767,53.70981
0.5110756,58.943443
0.60811985,60.79898
0.6631574,62.81159
0.7272092,72.856735
0.8909017,74.85661
1.0943946,80.1611
1.1258471,82.98394
1.1758306,84.70775
1.2929758,90.591675
1.4015927,97.32837
1.485566,99.80225
1.5500867,103.989265
1.627526,110.31296
1.7109793,110.08952
1.6550794,114.81285
1.8396112,116.87323
1.8136337,127.40852
1.6655706,125.665726
1.8063824,128.77626
1.910079,130.98297
1.9370341,130.56494
1.8567502,131.06783
1.8423684,132.67477
1.7406988,135.30667
1.8894476,132.11244
1.6721504,136.72682
1.6884096,137.50764
1.6395078,133.47871
1.6531085,133.81215
1.6972415,128.86165
1.6047342,129.62357
1.4911085,123.342354
1.5339146,125.22558
1.5532569,125.37507
1.4219636,124.210396
1.3620962,115.10606
1.3254358,112.55517
1.3122154,114.60848
1.3326017,113.42505
1.3685861,111.25779
1.3601619,105.02588
1.3637829,104.54534
1.3862225,100.78966
1.2624962,96.73555
1.2190293,93.53627
1.1900177,89.996605
1.2226514,89.145195
1.0332632,87.14646
0.98547584,84.744995
1.0577661,85.46914
0.97674555,85.01605
0.88245946,76.33595
0.82704985,78.26038
0.8140067,73.533714
0.7365333,72.97688
0.7258007,70.68624
0.7056084,68.5966
0.70045877,62.90698
0.73387104,61.36932
0.67297447,54.873146
0.69067734,52.240097
0.6601291,59.21297
0.6394202,50.32058
0.6472525,50.58298
0.57740635,53.465153
0.61473376,48.69436
0.6059565,46.182465
0.52733237,44.526264
0.40987253,43.193188
0.557863,42.49907
0.45159543,43.17488
0.30346677,43.44573
0.34282836,46.665073
0.320983,42.973583
0.21781981,47.61662
0.2821814,51.71857
0.2758491,48.115482
0.18836644,55.487167
0.30339774,61.658203
0.42988953,67.44776
0.40475368,64.26601
0.53547764,66.37164
0.7187894,78.44141
0.723163,76.065315
0.8868876,85.109634
0.82815874,85.46397
1.0277222,91.016785
1.1202904,93.92451
1.1942127,96.997955
1.3384416,105.99543
1.4098167,104.7832
1.434295,110.890884
1.49335,114.27876
1.5683401,118.647514
1.5217798,120.935425
1.4484026,127.74013
1.5773792,129.16437
1.564605,129.35748
1.5744759,131.13075
1.575911,132.2537
1.5432395,137.98836
1.5051545,139.32314
1.4869622,131.19879
1.4690353,134.54646
1.5191997,132.38422
1.4558123,131.2605
1.3552525,132.95248
1.4089714,132.34767
1.2852256,128.77391
1.1644711,124.287025
1.1061705,122.83986
1.1705887,124.58842
1.0773668,121.743614
1.1145452,119.64964
1.0908115,113.51759
1.1483111,117.12061
1.0712103,114.850716
1.1981927,109.25233
0.9828512,108.19857
0.9877233,102.99903
1.0073473,99.95776
0.99511147,97.900955
0.90472454,94.38315
0.8837079,96.360054
0.84971184,90.47357
0.84732085,87.03726
0.77194005,83.29659
0.8254566,76.410675
0.785784,82.01841
0.56526226,79.982765
0.65091026,79.87431
0.43123347,75.768875
0.543738,65.89008
0.48567364,66.06096
0.5081192,68.15066
0.34519827,59.001686
0.4043056,59.919693
0.428225,55.293293
0.37457395,54.849888
0.43833995,51.067772
0.42883393,48.1797
0.35318676,48.69061
0.4753323,50.364285
0.39204654,47.766636
0.31036872,43.46845
0.29352725,44.82445
0.20090139,43.817654
0.17540762,45.05201
0.22438031,46.7195
0.08903755,47.241974
0.018208256,46.11318
-0.0184353,44.520336
0.060288604,51.54449
-0.061404094,49.11117
-0.0005767372,47.591286
0.028661806,54.530876
0.038310703,57.804604
0.07750138,61.542942
0.17609617,62.62919
0.22957966,64.00898
0.4148115,73.26356
0.39207947,78.28697
0.50464153,79.93659
0.64173967,88.966675
0.86253965,91.09621
0.8455507,95.66786
0.9584347,99.42241
1.1024739,106.19929
1.1396054,111.952675
1.2223731,111.42892
1.1940832,115.289085
1.3199172,117.49811
1.273201,118.60423
1.4114316,125.58474
1.4570781,128.27315
1.3789725,129.25255
1.4338704,131.08823
1.3922819,137.50449
1.3519216,136.71712
1.2943587,134.76831
1.2711806,135.87508
1.3272907,137.83966
1.1884996,133.25574
1.2835859,132.02528
1.2462952,130.91261
1.1537651,131.22992
1.0901843,127.97033
1.1238714,127.52648
1.0766151,125.56077
0.9772863,124.29611
0.9995915,121.14426
0.93212473,120.56527
0.93723446,118.56618
1.083064,110.907906
0.9436188,111.67408
0.9055105,106.75245
0.94425106,105.8761
0.9100861,104.192726
0.78203994,101.717354
0.9290053,97.53273
0.8265036,97.17672
0.902967,94.14793
0.7424566,92.84704
0.86262727,89.090385
0.6662798,88.91051
0.6475695,81.36106
0.5910964,76.18534
0.5892395,83.0482
0.4821312,75.624115
0.44105592,71.690445
0.30672914,66.76217
0.45126182,69.20269
0.4210693,66.25479
0.4810423,64.543724
0.29643536,64.22003
0.3259672,59.322346
0.37769893,56.49198
0.34862742,52.438015
0.30856687,51.512573
0.38500327,52.255188
0.36138815,55.677475
0.3086116,47.531097
0.29778594,42.51236
0.24690247,46.13955
0.27828744,44.309345
0.14019266,40.63588
0.12195603,44.124954
0.06857536,45.65849
0.051622655,44.521313
0.016482873,42.824577
0.056989774,51.93464
-0.0416726,51.58244
-0.02452155,51.02467
0.0044706683,52.49001
-0.012157165,54.278557
0.13576461,57.174217
0.1563352,67.12473
0.30194902,66.827156
0.33111444,72.43433
0.48503718,79.92582
0.58577865,85.863106
0.7415095,89.73235
0.8718936,86.2954
0.9810537,94.86613
1.0210295,102.06005
1.0417926,105.00498
1.1163193,109.863144
1.300977,110.14559
1.271879,116.94438
1.3919901,120.4729
1.3562918,122.378944
1.4071825,126.79415
1.463706,125.7987
1.4127421,127.48902
1.4577663,132.55452
1.5492036,131.9723
1.4075246,132.63498
1.3586009,133.64006
1.5054904,132.53822
1.4263532,136.2878
1.3966655,134.19247
1.3037871,135.25641
1.3997917,131.51656
1.2667649,126.57236
1.2220483,134.3152
1.1800787,129.59193
1.2468772,123.06007
1.1133754,122.098885
1.1791364,123.28162
1.129068,119.94666
1.0098042,115.20972
1.1156064,120.23303
1.0805503,111.90806
0.99616003,105.99547
1.0513468,106.49711
0.96761036,106.83669
1.0855368,99.30448
1.0659635,96.58176
0.9927275,93.63614
1.022239,94.95191
0.90796834,96.14671
0.91660583,88.420135
0.7867739,86.2323
0.82039815,88.567245
0.6967646,82.19842
0.8011066,80.125336
0.7513362,76.692375
0.71961033,71.83978
0.53632414,70.031525
0.5399876,71.02791
0.55159384,64.76252
0.5232034,63.977898
0.5709855,61.4098
0.5932747,57.041973
0.43146384,55.442585
0.49800888,52.62058
0.51203114,54.23806
0.519458,51.14872
0.51749665,48.468555
0.57321066,47.041756
0.60853714,46.626705
0.49577168,48.808517
0.3439044,44.59607
0.3727297,41.588085
0.28596893,40.137447
0.33380997,46.2665
0.30838633,47.77544
0.31344816,48.0352
0.18830442,45.70272
0.1778861,50.809437
0.19756077,47.493446
0.22735655,55.546078
0.30181366,55.210953
0.4659175,59.155994
0.42550027,63.90581
0.49647844,70.3052
0.5748423,73.75379
0.5792047,71.4227
0.8451872,83.566444
0.8241912,83.89672
1.0739716,85.67321
1.1502641,94.635925
1.2118809,97.02651
1.3257039,101.418396
1.3688227,109.97125
1.4915287,110.59478
1.5654814,112.46709
1.7215999,115.85694
1.6297895,125.60299
1.643279,125.46954
1.6337895,130.82893
1.6236136,131.45029
1.8226584,130.56532
1.7226996,133.91916
1.7047156,138.53365
1.7869562,132.07965
1.6828717,134.09914
1.7723337,134.98004
1.6185426,135.87703
1.6296124,130.24959
1.6534175,133.37723
1.6483425,137.08649
1.5231916,129.4038
1.5174335,131.09167
1.5461664,129.50179
1.5645376,128.08481
1.4539589,123.12222
1.3572912,115.40103
1.3045287,116.787186
1.3634313,117.286
1.3974826,113.04073
1.3032689,109.63783
1.3217494,106.30315
1.3225251,101.45042
1.2754537,103.290344
1.3539062,98.09421
1.3640207,95.68644
1.2403079,92.395645
1.2649237,91.9384
1.1334108,86.84896
1.2365559,86.26755
1.1263086,81.80974
1.0679357,84.20457
1.057817,80.97276
0.9577736,81.17223
0.94814026,75.28884
0.89136934,70.19542
0.8961298,66.83461
0.7742057,65.94522
0.79696244,63.57038
0.76672477,62.65786
0.7642765,59.779655
0.8168459,59.784576
0.7709588,54.358124
0.9043784,50.550465
0.8435745,48.73192
0.9101179,48.578243
0.6368148,51.285698
0.9290318,46.809242
0.64747715,47.825855
0.680765,40.997013
0.7051987,42.50588
0.52812415,44.181953
0.5341691,46.55956
0.4759084,44.413033
0.53624886,45.426636
0.44668928,48.0245
0.56479543,49.494347
0.46289203,52.04941
0.5630992,55.8004
0.5571112,56.443825
0.55515635,55.305653
0.67876595,62.05089
0.69320434,66.85161
0.9126441,70.506516
0.9738228,79.45568
1.0547471,79.27472
1.2107266,80.29804
1.2300842,93.68524
1.2557796,94.93508
1.4462335,97.1908
1.6128604,101.95346
1.6261779,102.81699
1.7101232,110.4463
1.7569091,115.10312
1.8292567,117.83996
1.8050982,124.99298
1.9110738,127.781845
1.8462572,127.980316
2.0118558,128.38496
1.91263,130.70992
1.979912,135.0823
1.8170459,137.79231
1.9456788,134.96864
1.8938134,137.06033
1.893752,139.8245
1.8862642,133.27945
1.8320608,133.22997
1.7410978,134.9533
1.8737603,133.95837
1.6678246,131.53508
1.660929,125.72963
1.6371093,124.966446
1.6532089,121.76507
1.5667014,120.67544
1.5832444,117.08637
1.5745023,112.75683
1.4874558,116.22508
1.4776428,110.799835
1.474508,110.50092
1.45928,106.01117
1.4344652,106.61178
1.4580283,96.204445
1.4316074,100.447105
1.4627827,101.696
1.375982,94.7027
1.3900173,90.30367
1.308127,90.983315
1.3251739,89.483635
1.1770809,81.897705
1.1858594,80.854675
1.1351612,77.27142
1.0710213,75.6124
1.1101699,74.81684
1.0282414,69.93392
1.0407125,70.07765
1.0322359,64.5776
0.9471118,68.235054
0.8490554,62.951572
0.8776409,57.888565
0.9513926,61.404636
0.8950387,55.165398
0.8779122,50.27076
0.9927467,51.220455
0.8770654,47.53673
0.7981833,47.612045
0.8507705,47.239933
0.9081433,41.113598
0.7388654,43.352795
0.7789256,44.627674
0.6681231,42.73844
0.6510849,46.849922
0.5478434,40.877533
0.6219609,50.14271
0.47947758,45.101562
0.4982712,49.378403
0.58644503,46.769558
0.5813011,47.822758
0.5559519,50.420616
0.67765534,58.778034
0.757952,58.80101
0.81178594,70.300125
0.85873824,66.32642
0.9087315,82.052155
1.1552354,78.990746
1.1051702,87.021645
1.330025,86.6365
1.4588431,90.44418
1.6188756,96.46641
1.5995828,100.96004
1.6368581,106.067665
1.7863373,111.22966
1.6792039,117.58383
1.7574594,119.08047
1.8078898,122.645775
1.9046919,127.89311
1.8318746,123.221405
1.8937194,131.42674
1.8943628,131.43744
1.9635769,136.39748
1.865374,130.50896
1.8756137,136.83563
1.8219296,137.36623
1.9644957,135.10977
1.918043,136.45715
1.7803229,138.00745
1.7951527,130.92865
1.6617008,131.28024
1.5647899,132.49042
1.8072355,125.57669
1.6406205,126.58433
1.6176137,125.86949
1.5092654,122.07833
1.3831698,124.30107
1.5051106,118.17073
1.508465,118.224754
1.3500922,113.28229
1.439282,108.25805
1.3198929,106.948235
1.4574281,104.621216
1.4705858,102.12707
1.4250993,99.32663
1.5035409,101.65965
1.2755023,92.8325
1.2717261,91.49069
1.2570724,95.6948
1.3043953,86.04392
1.0887077,82.53846
1.0082744,85.986496
1.1057135,78.63903
1.0011127,78.75232
0.92992896,74.5145
0.9091792,73.7105
0.8087057,67.91157
0.8444036,68.33167
0.88885486,65.22506
0.7698279,62.22903
0.798947,58.94946
0.8195116,59.11882
0.86070967,55.277176
0.7995494,48.785328
0.76911885,57.3468
0.76715475,48.31129
0.6413895,47.459576
0.6567651,48.04892
0.6505204,47.37249
0.5237025,42.829266
0.62165076,44.943302
0.5743304,40.519466
0.5176128,43.639236
0.47961703,43.513508
0.38770217,47.019238
0.27132702,49.547325
0.3856981,48.7863
0.3075055,51.872772
0.29381096,52.252903
0.46710056,49.339825
0.40265644,56.374966
0.52396005,60.429012
0.5274317,64.410835
0.64542073,69.27786
0.7837993,79.25349
0.92893344,74.82424
0.99640465,84.02423
1.0426495,88.57353
1.2829316,92.72909
1.2442071,94.569046
1.3453156,99.85288
1.4098291,102.27135
1.4420263,109.75238
1.4502776,115.64051
1.5110265,119.08626
1.7039734,119.11493
1.6906668,119.93324
1.7026614,126.5428
1.59306,127.336586
1.6392866,125.795006
1.6110734,130.83276
1.6275586,129.61287
1.6111884,137.12094
1.7519225,137.01912
1.6058564,136.04572
1.6053408,138.44356
1.582182,138.60007
1.4882034,133.71912
1.499753,132.87381
1.4005564,129.95583
1.318189,127.526665
1.3035395,130.01855
1.3202208,127.30912
1.296648,120.7071
1.3152417,124.21889
1.2874855,120.6758
1.2154862,110.2789
1.1678468,115.99474
1.1974355,111.17325
1.1224527,106.203804
1.0888728,106.75863
1.0784781,103.91346
1.1386985,102.2785
1.1240823,98.01546
1.0208557,96.29257
1.0169755,92.369415
0.9583911,94.35759
1.0075551,88.38746
0.93233675,81.84212
0.83831507,79.66407
0.7079816,80.544174
0.75418055,80.147934
0.6777715,77.38094
0.6403521,71.657234
0.5983839,69.40885
0.4875461,70.21707
0.52277136,64.12586
0.6206863,65.528984
0.5416268,59.472843
0.4758236,58.775776
0.45013067,56.129948
0.46916795,55.83859
0.41543394,54.23287
0.52727115,53.08234
0.47842547,48.47871
0.44137853,44.560966
0.45588693,45.58451
0.45300588,46.896027
0.2926562,47.087044
0.19281437,43.851875
0.24653819,44.328323
0.29171276,44.72004
0.10742195,44.18303
0.02603114,46.547775
0.0053802226,48.477283
0.10083281,49.614246
0.12690721,54.5195
0.074195154,51.8244
0.1449417,53.823242
0.17308621,60.247257
0.30967396,67.85101
0.41485968,70.10827
0.48993793,78.39825
0.567295,77.06433
0.6663139,81.55785
0.77676743,87.36125
0.9291279,90.4265
1.0551873,94.80438
1.0633622,100.532715
1.1422635,103.32412
1.180212,110.04929
1.2224524,113.493
1.231165,122.76706
1.2383227,117.36889
1.3715364,123.555214
1.324341,127.12552
1.3902789,126.4217
1.4384547,135.17311
1.4272482,130.98975
1.4494765,133.54643
1.383153,135.45844
1.3642348,137.99069
1.4203687,130.36755
1.4939088,136.38145
1.2660958,131.10226
1.1885242,134.50835
1.2882448,132.32524
1.2485456,128.50179
1.2362365,128.80396
1.1386424,126.08294
1.044149,125.048195
1.0930414,126.3088
1.1258826,125.50456
0.9773336,119.048386
1.0137808,115.25663
0.974658,112.80474
1.0249763,112.75785
0.9514067,109.92549
0.9230944,106.79478
0.9450481,104.95818
0.8066968,105.15694
0.8501277,97.94205
0.86039144,97.11243
0.7597599,94.70388
0.7330814,86.693245
0.83613306,90.37094
0.6330565,88.20961
0.5952894,79.12365
0.5735314,86.28208
0.5350827,83.35538
0.5908358,70.9847
0.5756275,71.17529
0.39540634,66.442406
0.42492738,70.30143
0.3659937,62.36788
0.34264198,63.254124
0.3860373,58.278957
0.40491325,59.66589
0.25622356,59.823925
0.32746544,53.140736
0.3571115,56.9047
0.35820603,48.110615
0.15751068,46.193295
0.35768256,44.337074
0.31308287,43.920277
0.20074897,44.312588
0.258888,45.990692
0.07539699,43.820934
0.08787439,46.64255
0.13661186,42.653458
0.037924543,44.296535
-0.07237959,48.98685
-0.010407716,52.333622
-0.018737573,54.95247
0.0122650415,51.972134
0.0014751706,56.449764
0.108349256,53.690018
0.1336657,63.105835
0.16859922,64.38002
0.25256088,70.793434
0.3180804,72.46623
0.34418583,72.09645
0.6718157,80.20496
0.686842,81.78795
0.6928841,88.99416
0.89405775,93.08583
0.94761,94.69128
1.0070677,103.99016
1.1920998,111.48606
1.2175685,116.55025
1.1615213,116.294304
1.3170395,117.64653
1.4024626,123.87606
1.4135991,126.816635
1.3556182,133.095
1.3566518,131.00906
1.4075608,132.00739
1.412014,126.29927
1.4635761,136.33997
1.451917,133.4335
1.4723189,133.8274
1.3080156,134.87642
1.2811296,134.1244
1.2793142,133.4377
1.312399,134.69559
1.2550974,132.11201
1.2330006,129.24467
1.1974212,127.36416
1.2149692,127.80471
1.1326933,123.97433
0.9791466,118.79119
1.0279816,122.55951
1.006468,116.03313
0.9056372,114.13062
0.9059096,107.12923
0.9666043,105.20176
0.89390296,101.53999
0.88446504,105.91873
0.9071953,100.3892
0.914509,98.409
0.933827,94.0801
0.8096729,94.280334
0.8550867,92.37231
0.86696184,87.753006
0.8018174,84.21876
0.6713153,82.4616
0.6655298,80.43445
0.5593676,78.07612
0.5910591,76.72907
0.5536914,72.63154
0.58877677,76.94462
0.43353048,71.12055
0.45999306,69.17518
0.48100075,59.506554
0.36408973,60.437614
0.43950137,58.505947
0.42309985,54.785515
0.4488932,56.256565
0.38887742,51.73519
0.46293938,47.97429
0.4955647,55.165607
0.43844527,46.880173
0.36905742,49.22856
0.31057104,48.575916
0.30010614,41.001556
0.244471,42.311718
0.26154312,44.938217
0.17660066,45.724113
0.15580717,45.973274
0.11959187,44.884125
0.08419047,46.07099
0.036632918,46.279476
-0.0003255398,51.524895
0.13930897,53.467857
0.1940721,62.15853
0.279489,61.240627
0.38355538,63.901142
0.41797152,70.99657
0.4749298,73.29247
0.6345386,75.17889
0.67170227,82.63033
0.8361441,88.52677
1.0150431,86.09717
1.1064177,92.12761
1.2064039,101.72659
1.270538,104.41717
1.3447354,109.223946
1.5149395,114.88807
1.4467232,115.44912
1.5214382,117.52819
1.5810274,121.49129
1.6191126,127.186386
1.6223141,123.854385
1.6140732,134.14218
1.5812849,129.76685
1.5665933,135.5196
1.6208042,134.67343
1.6205261,135.40402
1.6134714,136.49399
1.550697,133.0154
1.5437444,133.33482
1.4780298,135.10855
1.4170564,130.85687
1.5010854,132.59146
1.3296478,129.2936
1.4306066,129.95312
1.4389601,122.09669
1.3129694,125.43198
1.3107876,122.503815
1.3333465,121.34308
1.3093432,115.52267
1.1702777,112.5772
1.2859536,111.97948
1.2000579,109.572296
1.2527843,101.74372
1.1451012,104.74679
1.2809508,103.12177
1.1795151,100.2263
1.122601,98.88905
1.2223723,96.04587
1.1009223,91.22244
1.1183252,88.43744
1.0317832,90.2327
0.94996816,87.05827
0.94268656,82.05566
0.9409446,81.432594
0.84473914,75.09374
0.80115765,73.13097
0.7555246,71.71175
0.7721373,70.576256
0.78981054,65.413086
0.7027792,63.827705
0.6235699,62.26981
0.5867786,57.941246
0.6412587,52.25153
0.66187596,57.39288
0.70431215,53.139015
0.70173484,51.354378
0.750855,44.49951
0.6864163,52.45423
0.6665852,42.119884
0.7438742,42.869244
0.68721855,44.819153
0.7090664,45.343346
0.5783851,44.873848
0.45526335,47.255207
0.46374974,42.963066
0.38369197,45.379665
0.3794288,50.74993
0.42380044,46.035465
0.33102077,50.316566
0.45162678,54.536846
0.44874936,56.70593
0.44398063,58.282673
0.57083535,63.410896
0.6034374,69.38662
0.7948453,74.1613
0.9335467,75.0467
0.94051117,78.42778
1.1504909,85.10896
1.2188586,84.20518
1.3460579,90.01068
1.4534955,98.41569
1.5213131,107.80077
1.5626783,108.02727
1.6447417,113.16852
1.6119134,115.468
1.7104206,117.48366
1.8297576,125.92353
1.8355178,129.73648
1.8248405,126.559044
1.8675008,135.32271
1.8528192,134.05968
1.8889483,132.53012
1.9522091,138.9141
1.8187374,132.9742
1.8342286,138.40498
1.6919944,131.18501
1.6663043,133.31592
1.7095981,132.37047
1.7538083,133.54414
1.822347,134.03107
1.6932218,128.30975
1.6785042,128.68431
1.5878307,121.78556
1.6071419,125.30022
1.5061492,117.43488
1.5733438,115.37128
1.4299065,115.92527
1.4953829,114.59298
1.4867405,114.94433
1.3904734,108.16878
1.4556887,103.4768
1.3979107,103.42966
1.412883,97.78738
1.4074192,100.70002
1.3069435,92.95821
1.5015017,89.94055
1.3088521,90.994865
1.3129867,87.51981
1.2280109,90.36085
1.2492598,84.88911
1.1042786,81.90063
1.0672661,79.32466
1.0869677,72.30531
0.923202,71.66515
1.0143116,78.692406
0.96552706,68.17336
0.9216115,66.493004
0.9765556,63.500465
0.9657748,62.22855
0.8586351,60.408913
0.91425323,56.786835
0.8107672,54.043583
0.867537,51.714542
0.83481145,47.574577
1.0472767,51.556717
0.92036253,41.626183
0.8605061,44.735188
0.77366734,43.68388
0.73536277,42.447052
0.77552646,47.4914
0.6737763,45.8202
0.6736696,45.755608
0.6629893,47.644455
0.6289666,43.946503
0.5007116,47.780045
0.6048519,50.962143
0.5359325,48.667183
0.6860846,53.7417
0.6558254,58.168865
0.6919958,61.604927
0.6805583,64.325966
0.8591075,69.02043
0.90389,69.262085
0.9702892,77.15593
1.0692544,74.792854
1.3124889,85.85432
1.4224586,85.21134
1.4421312,96.95766
1.4970955,97.0773
1.653768,99.59072
1.6820048,103.34566
1.6953691,108.32917
1.8371394,112.826256
1.8807328,121.33279
1.8967351,116.71293
1.9547446,125.183716
1.9598722,128.82748
1.9243777,131.33182
1.9620525,130.95476
1.9810112,129.46568
1.9988403,131.81099
1.8066123,134.7132
1.9432133,135.28227
1.9884452,134.31
1.8336782,137.77736
1.8870126,135.36678
1.8551129,137.70245
1.7392591,131.9967
1.7773392,132.24576
1.7058678,124.701126
1.6234696,119.17945
1.6128842,123.34138
1.5824658,120.82506
1.5421767,116.92831
1.5529823,113.938354
1.6105198,110.7992
1.5476569,109.29868
1.506124,109.11909
1.4264385,109.53537
1.5241889,102.25714
1.4287648,101.62534
1.4150418,98.35829
1.4177023,98.99211
1.3113877,96.0223
1.3512701,93.68842
1.3202021,91.16464
1.2897768,82.30144
1.2141571,85.62332
1.1101311,83.91911
1.2421889,76.749954
1.0690074,79.58569
1.0540601,75.69896
0.9607595,77.006096
0.97545516,68.076
0.9404783,65.491264
0.8519901,64.96726
0.9542574,60.9222
0.9014473,59.368538
0.8101087,62.581886
0.8924329,57.49963
0.9182724,55.365772
0.82378477,50.88879
0.71790946,47.911263
0.7579073,50.56597
0.76473314,48.461384
0.72850424,41.661118
0.7049218,42.098152
0.6451859,42.962944
0.7239185,47.9756
0.6284301,47.638084
0.4884759,46.52935
0.48863292,44.507565
0.34737372,51.622646
0.4433941,49.2162
0.4280287,52.095013
0.4474424,53.649757
0.46262208,58.91368
0.5400117,63.66484
0.58441436,58.723797
0.798172,68.41155
0.82771397,72.90069
0.9350388,76.14309
0.96560717,75.969345
1.1684867,86.89372
1.3413806,87.607834
1.2787119,93.821785
1.4105092,95.43847
1.5047348,102.69429
1.568235,104.56154
1.7319386,114.636765
1.6147065,113.67044
1.6808975,117.051414
1.7664833,124.13202
1.7373272,126.54785
1.8648975,127.11467
1.8430334,130.78929
1.818643,132.20859
1.8058128,131.90202
1.7263441,133.04321
1.7935399,134.0678
1.8625039,134.99324
1.7838233,139.75977
1.6917038,135.6731
1.672305,134.80812
1.6543468,137.55376
1.659146,129.79501
1.5724368,129.73889
1.527727,128.1508
1.4751627,126.35204
1.4776524,123.738655
1.3484966,123.750435
1.400681,122.33171
1.3264244,115.15001
1.348666,115.83043
1.2661126,112.121956
1.3776605,107.33708
1.3399377,106.16836
1.1728374,104.378174
1.1988617,101.52528
1.1759039,96.94589
1.1098522,97.32243
1.2489625,98.13763
1.060909,89.656586
1.1151952,96.280624
1.0629684,90.474556
1.082761,85.05925
0.9526568,82.70284
0.80657434,75.81113
0.83874595,75.56206
0.7814733,69.62399
0.6972811,72.31789
0.7546341,70.22333
0.6889912,67.17225
0.7010516,66.9843
0.66945106,59.585705
0.6446271,59.632587
0.5848009,55.662968
0.5411626,58.644913
0.5690856,57.229866
0.6366942,50.175686
0.58641,48.918148
0.5487661,49.58104
0.5424899,47.23914
0.4681247,42.861034
0.49499276,46.2222
0.4093421,40.87388
0.376441,46.92502
0.32052365,44.44433
0.2861467,41.96725
0.24985394,46.4288
0.12565738,41.66395
0.13535297,49.25152
0.1458297,50.728233
0.094980896,52.70352
0.23035902,58.75878
0.29631925,55.98538
0.33970377,62.970047
0.5462007,63.838146
0.5089814,71.905174
0.6663373,75.21138
0.643167,81.69036
0.8139665,80.62758
0.88318825,85.78241
0.94725406,91.01548
1.1533408,101.70969
1.1631658,99.548775
1.3027055,111.19413
1.2883481,112.737114
1.4500252,112.71806
1.3996803,117.860054
1.4989523,122.04139
1.4969633,126.63942
1.5066211,127.80001
1.4410216,130.1723
1.4166697,128.92215
1.5378158,130.31894
1.3942537,136.44525
1.4626495,131.83179
1.4290766,133.25859
1.3934057,138.23758
1.4400839,134.9424
1.3468457,136.33781
1.2944456,133.34978
1.3299892,130.63486
1.3238798,130.44188
1.3078256,128.53912
1.1669824,122.90429
1.1773021,125.8219
1.1600393,120.014336
1.1370573,120.97958
0.9950042,118.554474
1.1007916,111.810844
0.983151,112.29721
0.9395452,109.96114
0.95985985,109.81374
0.88034004,103.47197
0.84510493,98.916
0.96316266,101.92901
0.8819034,99.585106
0.8051982,97.32729
0.92179555,92.41729
0.76157963,90.14121
0.77979386,83.91294
0.7237682,84.66752
0.64893353,83.61651
0.6412518,82.65097
0.60122883,74.29182
0.5689734,74.08752
0.4656342,71.762405
0.5634509,66.32147
0.48240858,61.648087
0.40082136,65.50365
0.4685194,63.07799
0.38853267,59.11832
0.30878052,56.03188
0.43769172,59.01629
0.47881523,52.324753
0.41738886,51.25343
0.35486215,47.201298
0.3594973,47.390163
0.20051722,50.529068
0.2505217,46.134445
0.3341741,43.11321
0.15354283,41.101097
0.05962534,40.0188
0.16418591,43.176895
0.0759011,40.0
-0.022781841,45.091934
0.0005169646,43.406807
-0.07682418,47.547195
-0.063578375,49.77445
-0.057139568,52.79899
-0.0015793934,55.517494
0.018831704,56.878677
0.13700701,62.253517
0.21906593,71.05366
0.2949279,68.883095
0.40273282,74.53423
0.4342871,83.43645
0.5578246,79.2216
0.7948987,91.54847
0.8539324,91.907715
0.90226156,95.579735
0.98416436,99.96776
1.1357816,110.46012
1.1292968,108.99982
1.2403982,114.11732
1.2817222,116.82769
1.3132466,119.5677
1.2771856,123.46562
1.3848279,125.78385
1.4169874,132.72072
1.3532997,131.8208
1.3375127,131.77477
1.249934,135.0883
1.327586,140.1036
1.3177787,133.03003
1.3374286,135.85924
1.3535235,134.01791
1.2808695,135.33049
1.2178702,131.76926
1.1302276,131.60458
1.207113,132.03001
1.0557961,133.00703
1.1506779,125.692375
1.1138057,122.029884
1.0353432,119.46511
0.95147985,118.824524
0.9881516,117.29524
1.0614284,114.832924
0.96249884,114.79088
0.9397664,110.935135
0.84686726,106.71857
0.9136888,101.00487
0.9786161,107.24427
0.9522786,99.81594
0.79389864,100.71698
0.75836045,96.03126
0.8281692,92.41234
0.81997347,89.90807
0.76311255,85.62288
0.6466169,86.86462
0.64468306,83.81817
0.64492404,77.38659
0.6118185,80.50116
0.5436612,71.64869
0.51198906,71.475876
0.46744996,72.17319
0.47966525,71.009895
0.3386242,63.44197
0.35158285,59.205647
0.34807825,61.153606
0.3453362,56.123745
0.347464,57.51785
0.36686727,52.373795
0.40390813,50.245827
0.32698366,47.71674
0.34805596,48.36695
0.38599628,47.807755
0.32160065,43.58293
0.2958131,41.999638
0.25305066,41.017673
0.20500317,41.880924
0.107276656,43.86905
0.09349057,40.629868
0.12506169,42.742783
0.0006968285,50.23213
-0.00419065,46.24981
0.037383627,47.768307
0.010756026,54.286633
0.06850357,56.000145
0.07967455,56.166218
0.19590497,65.23513
0.31968334,65.37408
0.30787542,67.434845
0.47230825,71.706795
0.5568851,79.873344
0.66852576,79.58208
0.8097519,89.829605
0.8146203,89.75096
1.0905541,96.098274
1.0817419,99.25218
1.246255,104.580124
1.2276658,110.35515
1.2869213,108.971596
1.4118733,117.23319
1.3905687,120.49153
1.474645,124.47401
1.4381592,124.764565
1.422359,126.15945
1.5315131,132.5213
1.4782256,132.3708
1.5360453,137.97327
1.5172555,133.69325
1.4684802,133.25533
1.4977285,134.94699
1.485653,138.99002
1.4892399,131.66989
1.3929328,131.18898
1.3603035,131.16965
1.3093604,132.83318
1.2582895,128.67532
1.2099469,125.42182
1.1221802,123.40339
1.2438911,123.3938
1.2163817,119.852776
1.2026137,118.274796
1.1472609,116.432686
1.2165182,117.40993
1.0979872,109.29165
1.2137071,109.831345
1.097521,107.14569
1.1086426,107.729546
1.0199144,100.69478
1.0844964,96.24914
1.1229539,92.930595
1.0383061,95.649605
0.9527205,88.37151
0.87448114,89.16737
0.8095547,89.70038
0.79933435,81.79013
0.78868824,78.17948
0.86099166,78.24088
0.752805,74.78917
0.65925187,74.83079
0.58201927,69.24131
0.6164672,67.81266
0.6738786,62.309006
0.52638686,65.11241
0.5718925,61.666924
0.6383335,61.924896
0.5932435,56.231766
0.5344281,54.091213
0.5993307,51.544098
0.5564951,52.507763
0.6403261,49.071568
0.49894893,54.251434
0.60783166,46.335968
0.46859536,44.0987
0.47119603,46.944855
0.37971556,41.130642
0.34255406,40.43163
0.37024745,44.81197
0.29911125,43.5908
0.2894648,51.42177
0.22560778,49.240856
0.33732596,50.048244
0.32548866,53.920414
0.23887758,52.743076
0.42539692,55.29416
0.47811237,59.949013
0.5184413,62.415413
0.5721077,65.19541
0.65762717,74.75385
0.8808105,73.60757
0.89659476,82.350426
1.0773022,90.19718
1.1375457,87.808495
1.2945207,93.34953
1.359355,100.28945
1.5124832,107.87591
1.6016064,112.14439
1.5126897,112.42156
1.6861365,117.49783
1.6082585,115.14636
1.6223203,123.48491
1.727204,123.591095
1.6832204,131.99257
1.6288104,132.57042
1.8399155,131.22667
1.8507379,135.17888
1.6759092,135.84671
1.7223256,129.953
1.807822,129.78032
1.7134902,133.07431
1.6508281,132.18977
1.6944908,134.017
1.6943538,134.36646
1.5796826,134.14107
1.5817146,133.75888
1.6374627,127.22053
1.4523567,122.76233
1.4466226,124.01815
1.532384,120.619286
1.4528123,115.546486
1.3378817,115.26579
1.4663324,113.06362
1.404662,111.28556
1.3526219,108.693634
1.3622401,104.33755
1.2977737,101.078514
