ppg,abp
1.0901068,84.96042
1.1022152,84.62109
1.2216679,88.88038
1.2487319,87.167465
1.390128,91.13644
1.3868366,91.64649
1.5357565,95.43523
1.5363616,99.109795
1.610716,99.93253
1.6442405,99.97285
1.6220872,99.32358
1.7237121,105.62697
1.6170155,104.75596
1.6865935,105.00164
1.7219955,105.328705
1.7704011,108.08071
1.7955264,107.84646
1.7748135,107.819336
1.7206447,110.087746
1.8049519,105.99121
1.7478232,108.98261
1.7023736,107.9823
1.6432282,107.13477
1.6526972,106.038956
1.7076815,106.12728
1.6805156,109.23115
1.5877827,106.62608
1.604418,108.03335
1.5427713,108.54611
1.5144075,103.30352
1.5271106,105.6816
1.525678,98.99773
1.4050779,105.381645
1.5026648,102.31965
1.4201299,102.84846
1.3389745,98.53582
1.3579732,100.68612
1.268358,97.45433
1.3822453,97.92441
1.3681122,94.233475
1.2828217,93.06711
1.3263481,92.68852
1.4336855,92.63869
1.3218842,92.91954
1.2989237,91.20863
1.3262291,90.46965
1.2774516,86.92369
1.2507627,88.251076
1.2548964,85.967384
1.2465928,87.2266
1.18746,81.2871
1.2151169,84.21265
1.1438736,82.42743
1.1232809,81.75764
1.0891724,83.07341
1.0135924,79.05653
0.95914054,76.42691
0.95311546,75.59896
0.89678437,77.1657
0.89338005,78.053535
0.8738081,73.159744
0.89794546,71.00642
0.8211664,67.83684
0.87752426,73.48813
0.88711786,69.26299
0.81320214,70.16624
0.83849055,69.392166
0.8671675,67.91395
0.83518577,66.86853
0.92799187,67.658226
0.82047814,67.189964
0.8782877,63.16428
0.8082912,63.418156
0.8179856,66.73344
0.7488915,64.35604
0.7384237,64.1583
0.7593455,63.64661
0.7230708,64.09062
0.7036819,64.042885
0.6730494,60.641655
0.57528555,61.980347
0.5652366,64.03249
0.60842454,64.02704
0.5746457,64.69921
0.5562679,66.16951
0.55261266,65.42011
0.5646226,65.57042
0.50862604,68.848045
0.5488448,71.295586
0.67860603,69.49028
0.6630153,69.6256
0.5948232,74.37695
0.7784904,75.7106
0.9050791,74.52357
0.9334327,76.13267
0.99714947,79.23732
1.0419455,81.96684
1.2634174,83.56976
1.2949835,84.062485
1.317195,83.470695
1.5359564,90.88706
1.4711598,87.393425
1.5657347,90.08238
1.5847342,96.446884
1.6764727,94.00509
1.777019,97.056244
1.7957971,98.643906
1.8426017,99.699524
1.8959106,101.287384
1.8723924,104.50681
1.8879337,105.400444
1.9051644,104.37272
1.9439977,106.810074
1.9485888,105.624535
1.9692446,107.5575
1.9951266,109.73598
1.9753873,110.47934
1.9306153,109.30849
2.0433767,108.91661
1.9638101,107.71512
1.9926726,110.13715
1.8827296,111.59839
1.9413325,109.67265
1.9187146,106.36096
1.7468365,108.318054
1.782242,106.35745
1.6885961,105.127914
1.7620584,104.876015
1.6624758,104.69787
1.6529402,103.076584
1.6280667,101.93913
1.6123273,102.370705
1.5812467,100.94995
1.6290818,98.91837
1.5032865,102.12845
1.5443927,100.679375
1.5929725,98.381424
1.5827285,96.615814
1.4933598,98.79992
1.4621967,92.860176
1.483634,92.49982
1.5129951,95.889725
1.3553857,92.099236
1.455643,90.87138
1.4416565,91.77688
1.4304111,89.7121
1.4410075,90.53647
1.3706899,84.8153
1.3115039,86.550896
1.3661766,83.489494
1.2905712,80.25506
1.2293082,82.68247
1.1271136,83.36077
1.1854684,81.16316
1.1347008,79.5463
1.078121,77.53315
0.98205435,76.966835
0.9896961,74.41224
1.0148928,73.48721
0.9464227,74.607414
0.89200944,77.4756
0.8818172,71.9194
0.96096116,71.30918
0.8776458,70.04079
0.998115,71.00732
0.8526082,68.56521
0.90515214,67.603386
0.83173525,69.53349
0.8050833,66.2096
0.88353944,64.9898
0.79269624,67.724884
0.8680934,64.46832
0.8554497,64.561516
0.80614996,63.43883
0.7578935,64.32615
0.7646925,63.141613
0.6711267,63.8697
0.6730476,62.305122
0.64947134,63.11395
0.5410661,64.113716
0.56187606,62.75274
0.4534563,63.561615
0.5462603,62.737015
0.5197675,64.53447
0.46892065,68.765114
0.5613239,69.316605
0.5286949,67.62444
0.5606205,69.46622
0.5754387,73.69285
0.6360277,73.19903
0.6448487,73.41587
0.75349754,74.797806
0.80562025,74.05508
0.8475907,80.77869
0.9792101,82.481255
1.0727012,78.66172
1.089726,83.23392
1.281469,85.69048
1.2726431,82.79928
1.3899853,90.44856
1.4480273,89.7876
1.4373772,94.22384
1.5600886,95.66365
1.6423972,95.199776
1.6623344,100.28348
1.6841339,96.5297
1.7451578,101.307594
1.7310847,102.2651
1.7927614,101.70007
1.7205336,107.61127
1.7313501,102.77514
1.7704626,105.1933
1.8179069,106.103485
1.7752099,109.34246
1.7392627,106.86483
1.8586763,107.05318
1.7579252,109.504196
1.7048362,107.6897
1.713833,106.719345
1.6646967,107.55811
1.6710447,107.52619
1.6392059,109.7173
1.6418861,105.985504
1.6171983,110.96944
1.6800748,104.253075
1.5419226,107.08979
1.4867588,106.34871
1.4762621,105.21911
1.4754122,104.329834
1.460993,104.58797
1.4217516,104.08088
1.3167773,102.4738
1.3094975,99.82291
1.3056961,97.82433
1.3318802,95.43414
1.3006673,97.74593
1.2637826,95.381004
1.2698011,95.810234
1.2992644,95.35312
1.2197682,91.804245
1.1812947,93.23338
1.1728408,91.82805
1.1404778,86.46067
1.0942163,88.965645
1.1084074,87.79277
1.0844721,86.79515
1.0864962,88.54399
1.025567,81.803894
0.98478836,86.59951
1.0004488,83.22458
0.97599036,81.66936
0.92518896,79.37769
0.92362595,80.54799
0.7313425,79.649124
0.7591732,79.08092
0.7797718,78.63509
0.62343514,75.99337
0.69373834,75.309204
0.64371186,73.91502
0.6022021,72.4825
0.6116293,68.39831
0.611314,70.79767
0.61499035,68.40193
0.5830313,71.54829
0.6654884,67.57899
0.59994197,68.64599
0.5409525,66.12547
0.5767355,65.98607
0.57882434,63.241436
0.46675935,66.02737
0.44432762,63.771996
0.49453527,65.81057
0.452063,63.17605
0.4446049,62.036186
0.4236234,64.34082
0.34415722,61.43367
0.2734896,62.819595
0.21134098,59.909832
0.19167317,64.78468
0.057308603,63.30144
0.09769016,63.19209
0.16822425,66.1127
0.13821676,63.774937
0.14066759,65.94105
0.13126247,63.724506
0.15451919,68.75573
0.133004,68.47333
0.20904848,69.04279
0.32410622,70.200935
0.33672357,73.99046
0.3897948,75.78705
0.4305294,80.436035
0.5795013,77.10797
0.7155328,79.77752
0.7020996,84.04948
0.8009454,83.87752
0.7965985,86.693985
0.97075856,85.83659
1.0302188,86.53592
1.0955784,91.72928
1.2235347,94.25231
1.2220911,89.89012
1.2852358,97.80886
1.3446107,98.82073
1.335935,99.263214
1.3548095,99.20764
1.4891424,105.22015
1.465494,102.5739
1.4245905,102.70723
1.4506917,106.30886
1.4280726,103.37509
1.5001106,105.30876
1.4861523,108.4469
1.4557348,109.8893
1.4237584,109.32952
1.4303888,108.686
1.5128399,106.497955
1.3136636,110.174675
1.4198238,112.19055
1.3302258,108.04386
1.3509984,107.75809
1.3295475,105.408134
1.2718878,106.36799
1.2810807,106.64905
1.1796867,103.70196
1.1244769,105.69997
1.1517483,103.51756
1.122715,103.97381
1.1515869,103.78994
1.0713693,103.07936
1.0078516,99.929985
1.0100229,101.16479
0.94671226,97.79591
1.0558928,95.88735
1.0485272,96.618866
0.9233732,94.973915
0.91371125,100.728264
0.941272,95.104515
0.9721327,92.52749
0.91484416,90.9954
0.83962554,92.689415
0.89261067,88.857574
0.92539823,87.76075
0.86172235,90.51401
0.8370139,85.61339
0.8377864,81.88256
0.7926915,84.40413
0.7157217,83.39348
0.63173914,79.62066
0.6608668,83.83714
0.54407966,81.61283
0.6056598,82.53118
0.5429886,79.573524
0.42975837,76.23366
0.43453962,78.14523
0.40458688,76.24512
0.41435328,75.79438
0.44997165,72.68962
0.38397557,74.607124
0.31585515,69.05746
0.26934022,71.41662
0.31149197,71.22992
0.26383632,70.33165
0.33560568,65.576096
0.31212956,68.960045
0.3039573,68.519035
0.34739447,67.35703
0.33033377,67.63035
0.2808621,64.49403
0.22709711,68.71126
0.3115099,64.06676
0.23397435,66.712814
0.12679657,62.884773
0.19661865,63.094967
0.08474131,62.68498
0.094959825,64.86215
-0.04515099,60.813602
0.0036991437,63.41892
0.032735154,63.54535
0.009056084,62.313725
-0.11392931,65.819016
-0.09574972,66.55037
0.0016847973,63.712982
-0.051127225,72.299324
-0.06088555,70.72917
0.05919641,66.165855
0.08227656,68.25834
0.13129844,69.847916
0.29314482,77.4394
0.18702042,77.431595
0.331861,80.93207
0.51271445,80.31077
0.45976752,83.40522
0.56727433,85.7418
0.6710386,86.391304
0.77261716,85.071236
0.9087902,91.171906
0.8832363,90.42484
1.0444263,93.96784
1.0820906,92.20689
1.1598572,99.31398
1.0825776,97.07166
1.220638,99.14036
1.2827666,100.060356
1.2751139,100.56067
1.3177328,101.882904
1.3345767,104.470634
1.4153136,102.78677
1.4212233,100.80727
1.3585308,105.3192
1.4006413,106.06028
1.4283212,108.130295
1.4172444,106.10017
1.350088,108.71268
1.4255852,110.75629
1.3508654,106.631676
1.3136522,107.58979
1.3874462,108.90744
1.3434564,110.12212
1.238854,107.1162
1.3043753,108.50785
1.2561166,105.17861
1.2269634,105.542404
1.2094886,104.40421
1.1677184,106.16573
1.1441855,105.24376
1.156237,102.10931
1.0774062,104.12332
1.0669727,99.33853
1.09133,102.250656
1.0969316,99.66757
0.9864044,95.63744
0.98110425,95.49263
1.0436753,97.89997
0.99939334,96.47177
1.0387807,95.26169
0.99499017,96.3167
0.996572,92.86452
0.9437069,92.1946
1.048612,87.741776
0.9400935,92.561066
0.8866048,85.11531
0.87821895,88.41051
0.9234095,84.99371
0.85310787,85.54238
0.80231434,85.676125
0.7917572,83.4316
0.74148524,81.52134
0.7467255,82.143845
0.8046898,77.88228
0.6346418,81.722466
0.5951796,77.32566
0.5590732,76.308495
0.6202948,75.39294
0.5738707,78.16189
0.5163678,74.86221
0.54594,73.27685
0.5310557,73.43837
0.48160666,70.37218
0.34867626,74.405426
0.47955543,68.80711
0.54503465,70.12822
0.4513168,68.04526
0.5165994,64.493484
0.548343,69.60415
0.48910528,66.819725
0.48054832,64.159325
0.45386907,63.543766
0.40496445,65.38195
0.39633825,64.2333
0.33521283,63.04792
0.29753432,63.11357
0.34131816,62.40655
0.24364573,62.346733
0.33884686,66.227844
0.19499975,63.936047
0.18479592,63.300415
0.20492612,61.619385
0.12471841,64.72341
0.17643021,64.26774
0.1027018,62.844814
0.15962593,64.83743
0.20941913,68.7483
0.22718066,67.83854
0.2635568,72.54707
0.33554843,69.27482
0.4511041,69.47839
0.39368734,75.68379
0.5119005,76.1141
0.6693157,77.410416
0.705461,77.4474
0.7775013,80.824745
0.9512313,82.85768
1.005627,83.63225
1.1009699,84.85698
1.1957818,91.40713
1.2450204,90.87866
1.2799985,94.93247
1.4129825,93.574684
1.472634,97.22554
1.5374995,94.75083
1.5641328,98.930626
1.499088,99.97505
1.6003295,102.68087
1.6457913,105.51436
1.6767119,104.5141
1.7198097,104.51115
1.747457,104.44534
1.6816336,103.88339
1.7313417,105.28793
1.6079074,104.49003
1.7468947,106.85221
1.7418369,110.01315
1.6773714,110.21869
1.6717099,110.70279
1.6931359,110.35111
1.6013716,108.856766
1.5717182,105.64588
1.5715512,108.79163
1.5743185,107.89642
1.6243587,107.083336
1.5890329,105.929375
1.5212886,107.55506
1.4296085,104.59665
1.4457777,107.00537
1.4175937,106.77025
1.4703827,100.70062
1.3602659,98.0755
1.4467112,99.53766
1.3697721,99.0671
1.3548924,101.19496
1.361923,96.46016
1.265174,96.71001
1.3318838,93.79807
1.2246163,93.09041
1.3517029,93.49386
1.2977513,92.78164
1.2282543,90.24833
1.2830415,93.96332
1.2861012,90.43515
1.3010056,89.986824
1.3913132,86.90484
1.1964694,86.895996
1.1368141,82.31149
1.1838009,80.03862
1.1382383,84.53248
1.1769841,83.2104
1.1230654,80.9352
1.0757139,80.72525
1.0796987,78.361404
0.91470706,80.935104
0.90017676,75.877495
0.9051362,78.67495
0.9551458,72.17329
0.79466915,75.059685
0.8607275,72.26802
0.86393887,72.67857
0.89739096,71.58243
0.84884745,70.351524
0.9183251,68.12493
0.8866253,71.05637
0.78723,71.05781
0.7798079,69.270546
0.82713085,68.23151
0.85355926,67.512794
0.7873863,62.427498
0.8025204,66.04208
0.8300675,62.289448
0.7809911,64.769424
0.71725476,64.91709
0.6469163,59.090897
0.61318123,64.41311
0.66788703,64.080215
0.5483708,61.63169
0.5411623,61.705345
0.52495307,66.09361
0.5106192,64.1432
0.53479207,62.513573
0.5607687,62.892277
0.5159258,66.1717
0.46701434,64.968376
0.5491082,65.71871
0.51845574,69.2499
0.6412336,67.89213
0.66385037,68.78089
0.7906209,71.26247
0.7675863,76.60762
0.9344555,75.14692
1.0646185,78.000946
1.083873,80.03241
1.0765481,78.91807
1.2001455,82.36075
1.2284722,83.33343
1.4009686,87.845894
1.430453,88.7518
1.5160079,91.28205
1.532032,92.192345
1.6349531,94.73083
1.6885955,95.12814
1.7836131,96.57891
1.7823362,99.447014
1.812427,98.14146
1.8271555,103.30721
1.8645064,103.962746
1.9423456,102.9325
1.926753,103.19671
1.9850073,107.194145
1.988462,109.627144
1.944187,110.76968
1.9422282,105.48008
1.9256502,109.914925
1.9410938,110.92833
1.9744763,109.721466
1.9991535,106.16468
1.9297785,108.78326
1.8374261,106.38128
1.8446938,107.34906
1.8645359,104.395966
1.7927717,103.136314
1.7622995,107.21917
1.6931905,108.43714
1.7855943,104.6391
1.7030885,100.62465
1.6466522,102.798325
1.647754,105.20688
1.6199869,97.95951
1.6035987,100.16511
1.5701658,100.15872
1.6143471,100.604355
1.5491321,95.07548
1.4780678,95.9078
1.4655367,96.842545
1.5192134,95.43192
1.5160204,90.82731
1.5723002,87.92955
1.4955927,90.10326
1.4373914,90.28922
1.4038259,88.92391
1.4175212,86.47556
1.3636478,89.65729
1.4253297,87.75225
1.3483496,82.53136
1.3183846,85.75081
1.2121224,82.884926
1.3079705,79.88303
1.1944475,79.698654
1.1493758,84.21975
1.0938119,83.39304
1.0858461,77.256386
1.0391985,76.63584
0.97180766,78.160515
1.0419672,75.88516
0.97857535,73.69516
0.9241319,72.76434
0.86817896,71.97229
0.92088556,74.89729
0.9904125,68.581665
0.9102252,69.54121
0.8653017,68.48475
0.9733508,67.6529
0.894598,69.198
0.833558,65.931755
0.8624372,70.021835
0.72792476,62.6194
0.88774836,63.35884
0.7995181,61.89045
0.8071201,67.035614
0.74597144,64.02888
0.78055614,63.01722
0.69219995,64.71986
0.63493615,59.952198
0.6003005,62.036293
0.6230835,64.94715
0.56507045,65.19111
0.59049046,64.180374
0.4873866,67.55829
0.47634923,64.65868
0.5192772,62.694435
0.45916396,64.77665
0.5604171,68.0713
0.54953814,65.08401
0.6626232,71.56884
0.5899948,70.95968
0.6433817,71.9704
0.65450084,71.7791
0.8023237,76.26642
0.8719425,74.535675
0.95258784,82.31351
1.0687506,81.95196
1.0772448,85.297966
1.1545169,86.228035
1.2276973,89.77642
1.37481,85.52313
1.4263189,87.25693
1.4381802,90.84609
1.4814622,91.70027
1.5799665,93.60925
1.6354667,99.043655
1.6582667,96.12206
1.6667587,98.94314
1.7799804,101.69687
1.7885528,99.51906
1.850592,103.11656
1.8544904,104.22202
1.8370003,106.53226
1.8717071,105.26531
1.8814384,106.381
1.865455,106.307076
1.8367313,110.71934
1.7901642,109.85853
1.690173,109.90723
1.8066876,111.099655
1.7757239,107.44233
1.7407486,108.738075
1.7059108,107.439964
1.64465,107.32648
1.6874175,106.859184
1.5764657,103.40222
1.6428332,106.122505
1.6200591,105.366196
1.5625378,102.91199
1.4981977,104.321175
1.483357,101.362656
1.4486415,103.426796
1.3614764,102.86418
1.4080535,98.12289
1.3256184,99.584145
1.3765687,100.3755
1.3200036,95.10647
1.3564293,99.076584
1.3217328,98.11959
1.2637182,95.375496
1.2465874,95.24462
1.2904011,94.9414
1.1970202,92.30243
1.251582,89.45271
1.22492,87.97764
1.1293688,88.22094
1.1644547,85.7715
1.0365971,89.08979
1.0360804,81.54213
1.0380405,86.01002
1.0306199,81.58042
1.004794,84.834076
0.8863513,80.185455
0.94143456,83.6674
0.8210216,80.83106
0.7860642,83.68846
0.7752651,78.13013
0.7606406,76.88513
0.7188256,76.57434
0.64126253,76.96577
0.6772177,72.35775
0.6442876,72.24585
0.59356076,72.42762
0.68963814,68.88043
0.5915945,66.72796
0.6156544,71.05351
0.5872435,70.47072
0.58222723,66.19829
0.5263312,64.022896
0.6011234,67.61187
0.52240115,66.40057
0.55484855,61.262135
0.57806826,62.53837
0.52643615,66.645294
0.404025,65.6647
0.42376342,64.932144
0.38710436,62.565285
0.29259804,65.332054
0.25037622,63.777233
0.21666662,61.93846
0.23983565,61.894684
0.12818414,64.366325
0.2467638,66.74242
0.1848627,63.860798
0.16260919,63.05685
0.2048197,66.37082
0.1268258,68.550644
0.15420407,67.889824
0.2276953,69.10031
0.31220248,69.91384
0.42246214,76.2859
0.47390434,74.35131
0.50244635,76.99271
0.56381917,80.91271
0.6513661,78.14662
0.690892,79.38904
0.7992743,82.69062
0.89688396,83.40802
0.94980705,86.06702
1.041586,88.287575
1.0873605,90.661514
1.0851332,91.176704
1.2140801,91.99391
1.3097062,95.22306
1.2779073,95.99512
1.4281203,98.23305
1.4296293,99.286705
1.4131604,104.1636
1.418527,98.828354
1.4663813,105.44293
1.4741296,106.73189
1.5262098,108.76935
1.5521998,103.99392
1.4673781,105.44462
1.4454644,110.22515
1.532771,110.57208
1.4008642,109.07438
1.4500511,107.19905
1.445859,107.60796
1.4066944,104.58817
1.433987,108.77664
1.3573737,107.68643
1.3962164,106.36008
1.3157078,105.35999
1.2959783,107.45564
1.2229848,106.75432
1.2622422,107.08955
1.1619853,103.77011
1.0994909,107.43466
1.1360594,102.28625
1.1838577,102.48985
1.0544609,99.822105
1.0353158,103.35725
1.012302,99.50038
1.0608802,96.94621
1.0274413,102.63425
0.90900314,95.01668
0.9831604,95.99183
0.96509176,93.62381
0.9742167,91.95508
0.9386934,88.430145
0.9752494,93.70078
0.87276495,91.665665
0.85339975,89.5082
0.91097534,89.89135
0.72067463,89.3761
0.8164553,88.6975
0.7463857,83.835335
0.7062503,83.56464
0.68207484,82.24404
0.7284768,82.454834
0.68255687,82.32055
0.53835386,79.69752
0.5583131,77.435524
0.4980017,78.26325
0.47016203,76.555115
0.42741618,75.42072
0.4413523,78.402145
0.41958666,70.61928
0.31594628,73.33694
0.387856,73.17528
0.32611302,72.09295
0.3472601,69.91552
0.385708,71.421196
0.39708754,66.433136
0.3021649,68.23007
0.3770078,66.47977
0.31919014,66.23529
0.32865387,66.80442
0.3308319,67.5562
0.27475992,64.296974
0.26954937,65.14681
0.24470699,62.692657
0.24381183,60.741867
0.15243042,61.204548
0.10440969,63.6726
0.17169324,61.32239
0.0531847,62.22906
0.032456413,60.68547
-0.023991708,66.94274
-0.123215735,64.62353
0.03906314,65.67765
-0.06537394,65.83207
-0.08115458,67.3455
-0.09099551,64.63346
-0.049198397,69.83337
-0.10470253,69.68382
-0.0008753213,69.96219
0.14373724,71.465126
0.20607506,77.95134
0.20717268,76.31343
0.31814075,76.78224
0.4619318,77.727905
0.49973607,79.33786
0.59927005,82.20544
0.6855021,82.10897
0.6836602,86.828896
0.83461004,88.040016
0.907065,89.4977
0.96709,91.40448
1.0196217,94.42206
1.1431509,93.92268
1.156731,98.90639
1.169942,98.27049
1.1611185,100.907
1.3350949,100.980545
1.3210095,100.74676
1.4167472,104.5804
1.3347275,104.27249
1.3209858,104.85331
1.4335837,105.20123
1.3853302,108.67454
1.3871726,105.73214
1.4219042,108.93414
1.4194733,108.39316
1.4467585,108.597855
1.3889507,107.782875
1.3389626,107.505196
1.2849591,106.4187
1.3436348,109.99433
1.307283,109.251366
1.2716004,109.715416
1.2205759,105.84202
1.2028077,105.53719
1.2649332,106.06814
1.1125834,103.229866
1.1758281,102.01426
1.1306046,104.85619
0.99239093,105.32161
1.0285565,100.0848
0.9441687,103.69451
1.0453053,101.88983
1.0531836,96.86638
0.96812415,97.69843
0.98259515,94.91074
1.0118327,97.71897
0.9949845,92.43048
0.96912223,97.00058
0.9627074,96.20639
0.96615046,90.3879
0.93767416,94.54837
0.92808497,90.82933
0.9191723,90.67962
0.9145939,90.07032
0.8767164,89.78153
0.84271663,86.040794
0.8722023,84.12117
0.65841264,84.35936
0.7550855,83.82729
0.73230076,84.182755
0.7119589,79.27851
0.69081146,81.1059
0.69129026,77.8891
0.60909766,78.86211
0.5643205,74.06011
0.580397,72.49661
0.53370714,76.602875
0.47605318,75.56091
0.4771164,73.69269
0.48321128,77.252945
0.47723666,71.574
0.5389383,71.931564
0.46977445,69.1344
0.43595728,67.51767
0.52859676,68.08589
0.51595014,67.60455
0.40079185,65.90045
0.4912028,67.92987
0.43649197,62.93043
0.39573765,66.40644
0.3756829,61.78043
0.36202678,65.25165
0.31910232,63.488728
0.27123922,61.580086
0.2740801,63.27394
0.26928553,60.38992
0.31580985,63.155094
0.23265442,62.882915
0.15031399,59.66346
0.25306612,67.29258
0.1810784,67.07243
0.18234456,64.78209
0.16462666,69.26052
0.254636,67.24365
0.26631552,69.61537
0.23998322,68.55462
0.30894718,73.01866
0.31375867,74.78754
0.49035776,70.65181
0.4789437,76.850075
0.58390886,77.17078
0.6688022,79.32132
0.7364833,81.45149
0.80118537,80.03665
0.91918075,85.824844
1.004388,84.08418
1.101168,87.38674
1.1651825,87.99694
1.2849934,88.42522
1.3604717,94.01316
1.4078255,92.29389
1.3778226,97.75973
1.4678853,97.7953
1.5476637,96.21366
1.5441337,99.05857
1.6036531,97.933014
1.551742,106.71027
1.623402,101.95624
1.6559964,103.615776
1.6580579,103.41528
1.7349845,105.40809
1.6706885,106.78087
1.6606272,107.88545
1.6853124,110.62529
1.7001508,111.21523
1.7498127,108.7472
1.5835418,104.1757
1.5991852,109.92782
1.6520817,110.20383
1.6067275,106.27195
1.5036967,107.508995
1.5282876,108.60611
1.5672188,103.94428
1.4750984,107.75479
1.4557542,105.17553
1.5757284,106.70706
1.454081,103.61226
1.4284039,100.59404
1.4155658,101.04155
1.3888764,99.737015
1.4029868,100.65799
1.3603023,98.61169
1.3119763,98.83666
1.3433467,96.9077
1.3289571,95.54941
1.3481323,93.9995
1.3722271,94.807396
1.2939873,92.582
1.2518042,91.61866
1.2224944,89.55503
1.2042298,88.05626
1.28492,86.71001
1.2140199,89.05385
1.1767764,87.54961
1.1797905,87.16223
1.24513,82.01096
1.1394877,85.82993
1.1216022,82.28227
1.0679063,79.45305
0.9726061,78.89327
1.0403056,79.83196
0.90809864,76.44854
0.86590177,75.92343
0.9158339,74.745705
0.87093884,75.56889
0.81904256,77.69727
0.83340174,72.831635
0.7844784,72.28354
0.80874354,72.80571
0.749459,70.611916
0.7834009,68.70202
0.8106972,68.02057
0.8672133,64.75203
0.82116234,67.12388
0.7692951,67.52795
0.7705282,64.80981
0.77074265,65.47505
0.8535582,63.849186
0.7332871,65.57762
0.75297254,66.15478
0.7408568,60.898434
0.7446006,62.351963
0.6172141,62.79719
0.67463815,63.47376
0.6566842,63.600986
0.52836454,61.868835
0.49981916,62.495594
0.5064384,63.099117
0.50210166,65.580986
0.6140619,67.025566
0.49392387,64.139595
0.47713193,67.910446
0.4710569,68.57505
0.53355175,68.59139
0.5268506,70.18295
0.6501049,72.17051
0.6870935,70.05649
0.80315644,75.60403
0.7772274,72.05269
0.9549397,77.00405
0.9552516,79.18424
1.0958053,83.79458
1.1682365,84.0825
1.3058896,82.72635
1.339543,89.518684
1.425665,89.18685
1.5467145,91.76401
1.6090953,93.85878
1.5808855,93.764595
1.701571,94.68404
1.7221838,95.184715
1.7904172,95.72734
1.8175461,99.36285
1.8145764,103.7497
1.9251062,101.31338
1.9304624,104.114265
1.8960769,103.574455
1.8977625,102.22056
1.8965733,107.46606
1.943737,108.59875
1.9700572,106.54079
1.9451389,106.16258
1.9574131,112.41462
2.010428,107.37601
1.9473354,109.12056
1.8964646,107.255745
1.9099963,107.40742
1.8522387,106.35446
1.8330417,107.25244
1.8588312,107.445435
1.8101232,104.10472
1.836716,101.313866
1.7326244,108.45388
1.7904997,105.0673
1.6618782,100.84391
1.6618714,102.57146
1.6744915,103.94848
1.564686,100.22589
1.580158,101.59498
1.547618,98.19284
1.5911698,98.263626
1.4967896,98.2334
1.5558577,96.22243
1.5415046,94.681725
1.5301994,95.411835
1.4047405,94.104996
1.5130962,92.797455
1.4419869,93.13054
1.5121189,93.57666
1.5215652,91.31985
1.3611233,87.05841
1.3679426,85.36739
1.3992103,87.82531
1.334044,86.80555
1.2545358,86.82573
1.2852925,83.68725
1.1834818,85.03461
1.1172527,82.94623
1.2202697,80.95956
1.090344,79.80781
1.0676141,78.750175
1.0677787,77.7983
1.0084383,78.50393
0.93347704,75.00816
0.94375545,71.06382
0.9654138,74.92045
0.97592086,73.04502
0.8676142,72.01731
1.0131156,68.28064
0.91092813,72.13706
0.9183973,61.794262
0.8212253,66.385895
0.90102446,67.84076
0.8963475,67.45689
0.9464055,64.228
0.85046667,64.969795
0.78715795,63.39983
0.8608177,64.57349
0.8067667,64.931595
0.8268255,60.00747
0.79118055,64.59473
0.7249537,63.47164
0.6385927,62.078857
0.6366297,63.258102
0.5782305,62.851604
0.6136078,64.74925
0.50897706,64.79572
0.49495536,66.14064
0.5269776,66.27779
0.40954334,64.41217
0.5306762,69.22942
0.5217781,68.86301
0.47151533,66.443115
0.6180732,69.25921
0.69845873,73.858986
0.7524843,73.181015
0.80239886,74.46799
0.84350604,75.27065
0.90089405,81.16033
0.9819179,80.6535
1.141162,78.946045
1.1453224,83.897934
1.2532005,82.321045
1.3919665,86.41071
1.4262818,91.878624
1.4674715,91.11931
1.5979981,92.27879
1.6044482,94.92155
1.6202412,98.66784
1.7913474,97.987946
1.7771548,100.40759
1.8412948,102.3811
1.7780167,100.81488
1.8246763,100.63103
1.8506588,104.69446
1.8437008,105.45162
1.8815818,106.40372
1.8328093,106.739525
1.8260396,108.47066
1.8170555,106.77449
1.854707,108.58971
1.7595962,109.95964
1.7847414,105.89909
1.7245958,110.23925
1.7757131,107.95446
1.7548817,108.99142
1.6926806,107.839745
1.7017366,103.92908
1.7157657,104.67635
1.6864418,102.79682
1.5968977,106.79764
1.5426753,106.04757
1.488701,105.52505
1.4998269,104.54592
1.4788209,101.52516
1.4135773,101.13478
1.4206293,102.150734
1.3792535,102.45381
1.3498598,102.29612
1.2918366,99.04601
1.3110023,96.031944
1.3646487,93.82629
1.3196874,99.280365
1.2501665,94.16855
1.3248671,93.79791
1.2881302,93.746284
1.197214,87.22979
1.2404038,86.30121
1.1401641,88.78288
1.1524521,89.22728
1.224144,92.27551
1.1333507,86.36964
1.1808279,82.57574
1.0707984,84.74218
1.0411363,83.044205
0.99179816,87.51897
0.94730735,82.46104
0.9040303,80.39661
0.8322111,80.51092
0.8549272,81.09728
0.729855,78.3495
0.7458685,78.97341
0.70283234,75.33969
0.69200397,74.364525
0.58532727,74.42441
0.71526,72.34692
0.6129014,70.70578
0.5824485,68.7863
0.6307262,67.53142
0.566877,68.68522
0.59252214,66.322
0.5781797,64.80042
0.5900651,66.94233
0.5342331,61.953373
0.6231201,66.86286
0.52669597,67.436226
0.51423854,63.11737
0.48916623,65.070885
0.43082374,60.864185
0.38067508,62.046803
0.43865433,60.72798
0.2830014,63.391003
0.2658434,64.804565
0.25526878,65.67264
0.3452586,64.344574
0.2689628,67.04399
0.19638808,64.9602
0.112552345,62.33903
0.1860971,64.83553
0.12514828,68.926155
0.16223349,67.746704
0.16136728,70.14633
0.23838358,74.84223
0.41050473,72.103966
0.37190574,71.65475
0.44749075,76.04296
0.5610026,79.6944
0.57309836,76.56939
0.6882414,82.48035
0.7865552,84.887856
0.8547023,85.336815
0.9066264,88.25382
0.9984018,87.85997
1.1248398,91.55219
1.1774312,89.053
1.2382231,93.64774
1.2950258,94.89121
1.3238134,91.95569
1.3186626,100.1799
1.446616,99.974945
1.394892,100.30548
1.3826575,103.486084
1.506696,103.95563
1.4607526,102.17172
1.5160961,105.6003
1.4833083,106.839424
1.5053382,106.940605
1.568066,104.446396
1.5436691,108.615654
1.548951,104.38435
1.3971882,107.974655
1.5215206,110.528366
1.4482021,107.185455
1.4536226,108.72493
1.3812917,106.830956
1.4086165,107.636826
1.3156569,106.91677
1.2732445,105.72069
1.2319863,107.82333
1.2926375,103.31375
1.2178341,105.72402
1.183483,104.56907
1.1423756,100.63508
1.0628268,101.40415
1.020398,99.492905
1.0100763,100.36848
1.0128621,98.084366
0.9941007,98.08134
0.99806345,98.04215
1.0237949,96.167465
1.0176073,98.35892
0.976764,93.18576
0.99160767,93.86112
0.9747802,96.68031
0.9008381,90.189064
0.933993,93.88275
0.905861,91.91425
0.8835588,87.26754
0.83271575,85.784904
0.7935055,86.44981
0.8409421,87.49535
0.6656942,85.25877
0.8251819,82.75787
0.7234698,85.54494
0.6458491,82.04744
0.58351076,79.89486
0.60409874,81.40607
0.54655945,80.11622
0.43622455,77.61249
0.38928783,73.885414
0.43525448,74.567
0.3660241,71.767296
0.33093354,77.39207
0.34908006,75.012535
0.2952974,71.04989
0.41226193,72.669685
0.33505747,68.008965
0.40789416,72.97539
0.47298127,69.78599
0.2885152,70.97959
0.36133036,63.14554
0.36585495,67.73417
0.31823173,67.81252
0.22794984,67.67319
0.21708159,63.75186
0.24728577,66.56469
0.16806583,63.197247
0.19514066,61.28075
0.24096033,60.935894
0.16104703,61.478043
0.0651721,62.57094
0.023558073,59.05933
-0.023614943,64.343376
0.001319787,59.44706
-0.027323535,64.542274
-0.042402975,63.831573
-0.008767939,62.508183
-0.01876211,66.28084
0.044956006,68.01951
-0.08134626,69.9305
0.024385087,70.68441
0.17725113,72.364975
0.14400055,76.510345
0.2743535,72.34644
0.16426298,76.68735
0.41062644,74.86205
0.5071535,78.874916
0.5133147,79.69988
0.6654061,79.76782
0.6200435,84.74828
0.7846571,87.76286
0.92970973,90.104256
0.9391915,90.434555
1.0100485,91.58836
1.0546118,95.47744
1.1060845,94.65395
1.1870314,94.11125
1.1709018,95.664795
1.3053232,100.717384
1.3522542,102.10534
1.314778,104.18454
1.3534497,103.39848
1.4499737,109.177956
1.3448197,106.71487
1.3797144,108.41949
1.3933051,107.95933
1.3962924,108.4997
1.4331096,108.33263
1.4080131,106.44296
1.3915825,108.27757
1.4055058,110.167625
1.3851519,106.49323
1.3068941,109.4756
1.2821398,106.7858
1.2677847,108.77317
1.2951479,107.72626
1.3342943,107.70785
1.1189766,104.54502
1.1651591,105.58046
1.100621,105.136665
1.0896623,104.12677
1.055548,101.4602
1.0951029,102.777275
1.0380408,103.643524
1.0024222,103.67714
1.0721738,96.34002
0.94809586,98.12406
0.9523472,96.07232
1.011174,95.118935
0.91985625,93.766365
0.92624205,92.94461
0.97713864,97.92638
0.9426079,93.39609
0.9636836,94.834145
0.887835,90.21777
0.86774224,87.45108
0.8900624,86.3695
0.8451631,89.04848
0.82410157,89.36393
0.89290816,87.07164
0.8130672,84.846245
0.7496903,83.79537
0.68313867,83.85825
0.703745,83.352806
0.66827404,81.66484
0.543846,79.32984
0.6241729,78.73972
0.4333524,77.78773
0.5378341,79.10575
0.4657864,78.785225
0.45158473,75.50796
0.43598512,72.890175
0.4473916,70.31865
0.38109168,68.8179
0.44168937,73.614555
0.47471526,69.07844
0.46158788,64.89331
0.49028337,67.47596
0.4630967,71.13206
0.47599396,68.306694
0.49626136,69.17916
0.39890438,66.283226
0.38412586,64.454956
0.3793091,61.532986
0.365016,62.631172
0.33789012,64.84771
0.33198872,66.90222
0.27608216,62.75479
0.27607504,62.691975
0.22425593,62.48023
0.21988964,65.265465
0.23554066,64.3969
0.13149227,63.056072
0.06556411,63.194576
0.15803033,65.34758
0.171331,67.95976
0.15603273,66.6555
0.17570929,68.15748
0.19937986,67.787926
0.29151222,70.736664
0.2970124,71.86898
0.31360167,72.52556
0.46585476,74.142815
0.4761618,75.353386
0.5855448,77.25995
0.7069828,80.411316
0.8428764,82.09286
0.8193319,85.8616
0.9691615,84.680695
1.0316185,85.29854
1.1354719,94.02961
1.1994082,90.50644
1.2038548,93.126465
1.2925001,92.77823
1.3580108,95.795204
1.4829475,94.2054
1.5152768,96.60269
1.5603733,98.811424
1.5616078,98.99948
1.5048099,100.786705
1.5582093,104.33642
1.686512,104.94871
1.6476619,108.857574
1.6213869,106.726845
1.7002909,106.99827
1.6938916,105.555466
1.6361657,107.54956
1.6244048,109.16019
1.6600986,109.5918
1.6494764,111.54062
1.6230807,109.57613
1.6005933,109.42288
1.5741723,110.15978
1.6144474,109.73173
1.5845853,104.80494
1.5884751,107.84654
1.5116428,105.55922
1.4249854,103.351974
1.44446,103.988106
1.4523005,101.72503
1.3577367,99.55563
1.3461785,99.267
1.391658,100.22158
1.2800142,101.38229
1.2847562,96.77143
1.3298024,98.0059
1.2503033,97.911575
1.3258419,95.343254
1.2461575,94.10204
1.2768757,95.879196
1.2675761,93.49034
1.3099725,93.09169
1.2996155,91.94304
1.2520294,91.371506
1.2722585,88.42713
1.2259169,86.11804
1.2265047,85.91967
1.1274838,89.74701
1.2053568,82.46785
1.1454967,86.406555
1.0738018,82.51768
1.1224251,80.02255
1.0061697,81.7341
0.9624803,79.644684
0.9267252,78.95527
0.89460486,75.76267
0.9308558,77.15105
0.8097645,76.85342
0.89960724,79.457054
0.8050518,70.77302
0.71515995,73.19501
0.6846374,71.12559
0.8118013,72.70282
0.8434172,71.71865
0.7421935,68.501236
0.829504,67.16063
0.77112967,65.98758
0.74415565,66.454025
0.7670769,69.41632
0.79031163,67.330246
0.8303058,63.03633
0.7252636,63.50921
0.7936451,65.14063
0.7492382,64.25867
0.7122863,61.811924
0.66063416,63.13186
0.63856435,61.819782
0.7055217,60.911274
0.66410536,59.374073
0.53968036,63.210274
0.525031,63.50965
0.46131167,66.91454
0.46791443,63.03898
0.442438,63.711555
0.45977715,65.715645
0.41648486,68.99605
0.5279503,67.33589
0.58532923,73.25331
0.5665753,69.80285
0.70522565,69.547745
0.7372752,72.74298
0.7892211,75.90584
0.866527,76.90376
0.9170456,78.88286
1.0018866,78.7505
1.1900007,81.4208
1.1891248,88.01331
1.2366909,81.72224
1.3822721,85.76104
1.5299804,90.69652
1.4596965,91.614235
1.5985713,94.28967
1.7218353,95.251274
1.6876787,96.47512
1.7191787,94.044426
1.8373413,101.12292
1.8375801,102.33882
1.8583813,103.51607
1.8307478,102.70272
1.8782326,106.25188
1.8232458,103.35999
1.9564811,106.11864
1.9740566,105.39306
1.9240416,107.51123
1.8678422,108.300575
1.8630272,111.9581
1.8744626,106.955605
1.9458809,109.3911
1.8641515,107.9057
1.8787032,112.33583
1.8498617,110.7727
1.8155633,106.224655
1.819356,105.99407
1.8015906,107.051056
1.8365602,106.239975
1.7158601,107.91615
1.6765741,105.92514
1.7391826,102.50238
1.7004136,104.18375
1.6544429,100.53812
1.6622436,105.097946
1.63782,103.063995
1.548871,100.216194
1.5535923,95.93873
1.5019765,98.273125
1.554084,95.232056
1.5624429,96.07606
1.5146344,94.787964
1.5695074,93.63351
1.5264227,89.49596
1.4785787,90.69362
1.463013,91.09443
1.4795216,90.11345
1.3937448,88.77678
1.5170271,86.1658
1.41812,85.92816
1.404653,87.15846
1.3557624,83.32944
1.2967527,86.32666
1.1934474,82.115425
1.2278506,81.23565
1.1606512,77.848724
1.200324,80.80364
1.1119535,78.770294
1.1047463,78.75739
1.0893259,80.216286
1.0113398,78.72659
1.0267336,73.57277
1.0362165,76.31496
0.9206934,73.884094
0.9132291,71.53824
0.94414836,70.19774
0.8992657,68.592636
0.85216856,69.54432
0.9767032,70.49216
0.9831223,67.39881
0.9262424,69.73377
0.883,64.54815
0.8607088,64.93073
0.8713858,65.46037
0.82188,62.007347
0.79227084,61.936703
0.79572856,63.51499
0.8089032,61.01038
0.7564729,63.640335
0.7431834,60.416294
0.64894456,61.106678
0.55863124,64.02538
0.5952908,64.939766
0.4789816,59.760883
0.55183136,64.45401
0.4423068,66.788795
0.5543492,65.45811
0.54619807,67.19984
0.56753486,63.697437
0.5381011,66.441055
0.5928696,69.684746
0.63645196,71.07434
0.61778194,73.0388
0.76287425,74.42605
0.8006725,73.975105
0.88965106,80.681015
0.9201992,78.98833
1.1069537,80.42043
1.2071202,82.2111
1.1795505,85.62298
1.2895489,87.837326
1.3908066,89.17184
1.5241883,88.2559
1.4951403,90.993515
1.5965927,95.90957
1.5783671,92.92888
1.7260988,95.11622
1.7285527,94.95725
1.7663778,99.50212
1.7723343,99.421036
1.8479426,104.62369
1.8818307,103.56398
1.8751153,105.775955
1.864769,105.951294
1.8699414,107.78271
1.9229559,107.31922
1.8430678,106.21798
1.9223102,108.38668
1.8443204,111.46953
1.892603,105.95524
1.8157947,109.31471
1.770067,108.6324
1.7451777,109.71625
1.8263233,110.04516
1.7191112,109.17681
1.7503608,107.18647
1.6305916,107.03268
1.6027161,106.472755
1.6485841,107.63487
1.612868,104.509995
1.5370584,105.00221
1.4848244,103.72059
1.5452232,103.00992
1.4186316,99.02156
1.3667862,101.641556
1.4243126,97.41462
1.4497535,99.1538
1.3327612,97.61576
1.304791,97.40376
1.386198,94.719604
1.3417082,96.41688
1.2966144,93.96489
1.2940896,96.2468
1.2263352,89.35037
1.277027,91.02411
1.2989995,88.1674
1.2472848,88.11035
1.1003069,84.08346
1.1592687,85.4623
1.1276181,88.36716
1.0813366,83.89039
1.0573306,83.146736
0.981062,83.32964
0.9596887,80.794304
0.89849854,77.96833
0.88626486,79.14762
0.86931163,78.20773
0.847251,80.294815
0.79250884,77.85182
0.6958045,73.009895
0.64768654,75.71052
0.6216725,73.25124
0.7176935,71.08665
0.6722847,68.174835
0.71608084,74.58008
0.66399884,71.29361
0.63615966,70.07382
0.6447485,68.90211
0.58548605,68.8061
0.6938868,65.21943
0.58467776,69.61039
0.5315451,65.4755
0.6059364,64.77928
0.52555066,65.65339
0.48977062,62.163654
0.5134245,62.73242
0.41344488,62.02252
0.35837397,60.608498
0.41072816,60.199455
0.33687264,64.684364
0.28384638,62.692272
0.30711773,67.60822
0.18167785,63.395287
0.14993808,64.78039
0.21052405,66.40796
0.11957796,64.097946
0.1889993,66.95838
0.28744596,68.818306
0.20469017,70.9874
0.22549182,71.88216
0.2883301,72.71251
0.35234225,73.7194
0.46002382,72.50845
0.56956095,75.625595
0.6032751,77.65978
0.72075087,80.93506
0.78803456,82.06185
0.8428062,84.40365
0.9194826,85.80658
0.9876744,87.60921
1.115078,86.48494
1.1027875,93.546936
1.2032881,91.69501
1.2662297,93.003296
1.2809684,95.95192
1.3727065,97.66302
1.3264574,95.49493
1.3832939,98.16987
1.530581,99.69002
1.4620494,106.57263
1.4899893,103.58519
1.4691355,103.0684
1.5559587,108.59784
1.4920129,104.889534
1.5962359,105.695145
1.5122732,105.38685
1.4974847,109.953186
1.492773,111.24751
1.5602494,111.96824
1.5148592,112.68887
1.4598671,108.74553
1.3826457,111.83329
1.3988278,105.03497
1.3926864,109.38566
1.397715,106.497025
1.3214206,106.823425
1.2879807,103.620575
1.1792594,103.86088
1.2280083,104.88142
1.2116653,101.85646
1.1558015,101.530556
1.1344509,103.66127
1.0865347,101.5623
1.0653065,99.4668
1.0159557,103.6581
1.0696663,103.22203
0.9981191,96.15059
0.9586009,97.828156
0.9532808,94.66508
1.0163587,96.476944
1.011732,93.96563
0.96456766,92.43777
0.9704148,92.52786
0.917235,88.611465
0.9766748,89.424034
0.8993762,88.85412
0.78955156,86.67581
0.8117727,88.18731
0.7744606,85.57068
0.79738563,83.731735
0.6932848,81.74629
0.62601393,82.85718
0.610639,81.74462
0.6284382,79.12275
0.60308874,77.92753
0.533591,79.8492
0.4348054,79.92291
0.46753335,77.30688
0.4586225,74.38621
0.37217084,74.76626
0.42243057,70.22467
0.39570463,70.34442
0.33250833,73.03606
0.44194695,68.579346
0.3746598,69.63021
0.38341108,69.03191
0.43872166,68.124084
0.38274357,67.715965
0.30347058,69.00854
0.36315426,63.599464
0.37012622,68.048195
0.25567323,64.126144
0.30899242,61.120956
0.24460495,64.33499
0.22827126,62.03738
0.22621544,63.324722
0.1676593,63.87112
0.051752396,65.41894
0.008626688,61.21604
0.04917894,62.667416
-0.025217857,65.106064
-0.05994567,62.688175
-0.112849884,68.27708
-0.024618132,65.45294
-0.0141073065,63.339832
-0.045583654,65.99536
0.006313809,71.1298
0.03587996,70.85195
0.01435092,71.21293
0.11347191,69.28809
0.24284846,75.0579
0.24544774,71.51897
0.26551455,78.20681
0.3857233,77.93699
0.5147106,82.35503
0.60418075,81.75485
0.74106836,81.426315
0.7447416,84.23895
0.8626647,85.93176
0.8552127,89.2741
0.9937237,93.43059
1.0842185,91.37531
1.1004945,95.83324
1.1441662,93.638275
1.1719381,95.5347
1.2729815,96.1434
1.2433668,103.38384
1.2770938,101.55086
1.3461604,103.423225
1.3644891,101.8119
1.4681009,104.12348
1.3446666,106.04425
1.3549811,110.89303
1.4198714,105.55834
1.4327976,110.27761
1.4477476,104.18727
1.3369306,107.26105
1.3524063,105.6415
1.4028049,109.9893
1.3199952,106.18871
1.2588223,108.11732
1.2658213,108.73221
1.2719373,107.25883
1.2090839,108.33964
1.1714069,108.115204
1.2225542,104.60193
1.1020205,103.459236
1.1174514,102.88555
1.096462,106.39722
0.972834,103.05921
1.0571915,104.372986
0.978879,101.965416
0.9628167,99.495155
0.96421826,98.583725
0.835731,98.51357
0.8938582,96.70212
0.97459096,96.85134
0.94946754,93.26805
0.89271194,95.50524
0.8986361,94.93159
0.9366155,91.58058
0.87416744,89.62345
0.944648,88.28596
0.90634763,88.22084
0.83503026,87.38774
0.8552005,87.5944
0.79373485,85.44121
0.79471576,84.75072
0.7471175,84.141106
0.73418355,79.63606
0.70325106,81.862976
0.5704929,77.78467
0.6180756,77.6864
0.54848397,78.20651
0.5620545,76.85892
0.5193078,77.810905
0.49992454,74.2265
0.44950542,77.69277
0.3818884,71.970215
0.44586483,76.01971
0.37889123,73.632614
0.44237906,68.97162
0.46252507,71.65918
0.46721917,68.85639
0.4507083,69.45262
0.39820457,67.08391
0.39840153,67.19536
0.46934804,65.76152
0.41541716,65.454575
0.41750917,66.21395
0.32569823,64.711075
0.49034095,65.27029
0.30062702,63.553097
0.33369118,62.525005
0.3039545,63.10427
0.24643818,59.991646
0.20601135,64.384926
0.14796408,62.935505
0.18300287,62.713284
0.14042924,63.927734
0.14193948,64.95404
0.1376949,64.43789
0.12712197,62.605995
0.06735778,65.70628
0.0919296,70.59548
0.115494795,67.18301
0.09703702,70.33319
0.17802261,71.7244
0.34075454,73.02328
0.3685599,74.317505
0.33108607,75.765594
0.5539308,76.517944
0.6165875,79.47431
0.6553821,80.057884
0.8084991,79.4125
0.8097468,85.83432
0.99809444,85.432816
1.0821362,85.17236
1.0496486,90.04701
1.1796181,96.3879
1.3018457,93.29951
1.3291966,94.96805
1.4180138,95.418495
1.4770426,96.67795
1.411696,99.652695
1.5558151,103.297554
1.5636562,100.02964
1.5847517,100.709465
1.5356479,103.47907
1.6328404,106.63348
1.6781044,105.899734
1.6198012,108.87082
1.5740355,107.9486
1.5872241,107.609795
1.5842754,105.56466
1.6208371,105.89692
1.6823024,107.105156
1.6198212,106.50241
1.566844,110.299614
1.6279755,106.816246
1.5962671,106.01898
1.5242872,105.62843
1.4373832,109.78381
1.4155751,106.464134
1.4510509,106.78391
1.4593446,104.07009
1.4114276,105.76645
1.3391155,103.2401
1.3399038,104.274895
1.2951009,98.74443
1.3092675,101.71075
1.2940745,101.719025
1.2793884,100.7989
1.2182634,97.02311
1.2181154,96.97899
1.2700071,93.79421
1.207415,96.40372
1.2621486,95.41606
1.2775561,93.93389
1.2451823,94.26975
1.2151356,90.2902
1.2127198,89.86084
1.2238691,90.557205
1.2181615,89.165115
1.2419194,86.82224
1.1025199,87.252144
1.1298822,85.483475
1.1306738,82.66467
1.0384855,85.767914
0.9643692,82.1363
0.973097,84.13636
0.99284244,80.05038
0.92934185,78.79351
0.8396065,78.63265
0.8031442,75.16788
0.75476134,77.12839
0.8539582,74.08895
0.8709201,75.48901
0.7946368,73.45219
0.74043417,67.89846
0.7977824,68.79102
0.70075595,70.593025
0.80492157,67.51763
0.8314136,68.13948
0.7878145,67.94534
0.7808122,66.61197
0.69563484,66.96293
0.7740712,67.428505
0.707494,65.90138
0.74765027,67.76098
0.69264245,62.53529
0.7007471,60.83519
0.6950343,61.739624
0.6228697,63.199734
0.606019,62.04175
0.6189883,61.801006
0.55185467,66.27459
0.47375306,62.60765
0.5164729,63.67132
0.51277447,64.66071
0.4947064,66.47028
0.49852052,63.97548
0.40044782,66.73205
0.45898095,66.639084
0.51264614,68.14321
0.5723115,69.99482
0.6345146,73.2691
0.6530943,72.18569
0.773012,77.30257
0.90452933,75.96298
0.89377034,78.0858
1.045991,84.56992
1.05091,78.99433
1.0865905,82.076416
1.2955227,84.02234
1.3857595,88.27329
1.34831,88.4274
1.4583749,91.54585
1.5849544,91.0139
1.6058905,94.316635
1.6899896,94.00897
1.6832616,94.53181
1.7271338,98.59112
1.8862141,99.737
1.8258291,101.5687
1.8460498,103.80639
1.8980311,103.936356
1.8629948,104.1039
1.9525479,104.17577
2.02198,106.42332
1.90738,107.565025
1.9892408,109.17208
1.9526188,106.80093
1.9141424,109.919304
1.8837687,107.73639
1.8577437,108.99039
1.9389478,106.42913
1.8756585,111.15859
1.7843399,105.8931
1.7967477,107.25564
1.7673143,104.96208
1.8146924,104.83851
1.7526385,105.5874
1.720579,105.02451
1.738146,105.59945
1.7004868,102.98466
1.7206259,101.695
1.5777297,102.83913
1.5703442,104.21634
1.6013932,96.35026
1.5242089,98.15009
1.6083763,98.15813
1.5998936,97.66853
1.5709237,96.50276
1.5332172,92.12868
1.5213518,98.90285
1.5879701,93.27085
1.5109937,95.60357
1.493119,90.33553
1.4448999,92.82393
1.4784614,92.40418
1.426629,87.47713
1.3513242,88.26881
1.3086208,86.06011
1.2651141,86.0532
1.3129532,84.73925
1.2514454,82.54724
1.1750182,84.64706
1.0748489,80.8211
1.2386007,82.10505
1.1593366,78.95201
1.0608985,78.40779
1.0475984,78.68642
1.0115843,75.629196
0.99111384,76.91224
0.99294865,77.54755
0.9966864,74.98995
0.9438519,73.1619
0.93337286,71.673546
0.9138262,67.7882
0.9209699,67.66677
0.90441096,69.11037
0.9274921,70.10543
0.96649814,66.73938
0.87978053,66.86546
0.87804395,65.81741
0.89541894,68.33609
0.9445097,67.655495
0.908453,64.32899
0.8849865,64.69183
0.7996026,65.38753
0.7144045,61.87684
0.6383143,64.55412
0.6707261,62.670536
0.69904613,63.185726
0.59701467,65.04577
0.60605013,64.41207
0.5641247,66.528076
0.5811404,65.08311
0.47752574,66.7245
0.54252243,67.34008
0.5264412,70.78235
0.58752275,66.19551
0.5286546,72.5824
0.6167699,68.640526
0.71478385,72.12269
0.7138343,73.22922
0.7501856,73.884796
0.92086285,75.37263
1.0387635,78.28714
1.0242169,78.57133
1.1798022,79.76219
1.2169904,83.61956
1.2960658,86.12433
1.4325173,88.66741
1.4982467,87.208885
1.5297933,94.03239
1.4978582,93.434814
1.6922014,95.448204
1.7507076,95.855965
1.7053926,98.26392
1.7893177,99.19942
1.7701231,99.66556
1.8630828,101.87474
1.9341033,105.50551
1.8960587,102.48049
1.9057865,106.03776
1.8502933,102.57835
1.9107476,106.09868
1.8603637,105.187965
1.8889817,108.53426
1.9580283,108.13025
1.8943251,109.96115
1.837675,108.43208
1.8477973,108.666245
1.8242525,109.47365
1.8421854,107.08639
1.7005677,106.579994
1.7922963,104.99144
1.8009359,106.652885
1.6244944,108.2228
1.6523983,104.816795
1.6277905,107.49603
1.551096,103.709114
1.5355748,104.39318
1.4793719,104.81904
1.4552277,102.34231
1.5467285,99.73592
1.4951447,103.17931
1.4440352,96.46557
1.4118154,101.83287
1.4038707,94.09392
1.4826667,97.06738
1.3009152,92.568184
1.3607675,94.778435
1.3736362,90.175514
1.256519,89.48795
1.2562557,90.74371
1.3008771,89.08299
1.2437465,87.81879
1.2424439,87.003105
1.277445,85.55522
1.1015761,85.227394
1.198459,81.31346
1.137409,83.46348
1.111166,82.09408
1.0581408,83.69366
0.95270205,80.43457
0.9754344,79.47964
0.8287512,81.00357
0.91011596,80.721176
0.84960556,77.409004
0.7726513,76.42449
0.7745689,73.62434
0.7460667,74.01723
0.6783371,75.16476
0.6902798,69.06959
0.77509934,69.81653
0.7227986,67.60967
0.70073175,67.86833
0.72278047,66.55739
0.59537524,66.338
0.6818053,66.50286
0.6624752,69.262985
0.6010264,64.42448
0.5772321,65.24334
0.64762396,67.789505
0.56349754,67.22242
0.5946467,60.685097
0.59700197,62.792004
0.4741165,63.105347
0.43481886,63.105373
0.42414528,59.63871
0.287791,62.952877
0.33642894,62.747246
0.28863466,60.194565
0.29232952,64.33127
0.21176459,62.964516
0.27989966,66.882225
0.16390166,69.93423
0.2337917,69.778206
0.22829606,68.14469
0.3865493,70.126495
0.31956327,71.65886
0.35672933,70.99259
0.42352703,72.58279
0.5181607,71.7022
0.6339551,75.95023
0.64833194,77.97639
0.7759851,78.74903
0.8519254,83.19266
0.83131284,84.61662
0.967196,85.04076
1.1154128,89.69018
1.0948323,89.05226
1.1547852,95.60237
1.3482277,94.67152
1.2905376,94.24369
1.375976,95.17114
1.4322821,99.96073
1.4477087,101.49592
1.4445821,99.4596
1.5183309,103.971405
1.4485996,105.20305
1.4922792,104.97707
1.5410172,105.69596
1.4781531,104.833626
1.5618153,104.65388
1.493634,105.75699
1.5092456,106.92382
1.4515038,110.453224
1.4809079,109.59844
1.4903101,108.166824
1.4211844,108.211296
1.4588977,108.818726
1.434431,110.97751
1.4001236,105.99492
1.3619022,106.768776
1.4057403,107.22582
1.2927268,105.208015
1.2912711,103.273346
1.3325942,101.906395
1.1874282,105.71679
1.2136104,103.24258
1.1532328,98.72427
1.1636002,103.072556
1.1655535,99.98047
1.0297327,101.348434
1.1025697,99.21688
1.0258646,98.074776
0.97419244,93.935234
0.9700537,96.97536
0.99236315,96.58849
0.9322315,96.54918
1.0332673,95.95827
1.0140404,89.120995
0.9569707,90.54329
0.92804193,85.07855
0.83725417,90.701416
0.8256236,87.591064
0.8158598,88.67762
0.7874456,84.10383
0.78201085,86.02611
0.69747746,84.178535
0.66885513,81.21365
0.6245113,81.17239
0.61166096,78.87074
0.6158055,80.45155
0.54933643,78.602066
0.5019646,77.388664
0.5291778,75.97012
0.433144,76.74528
0.38282064,75.65826
0.35874018,76.09341
0.34115908,70.24724
0.392109,72.06816
0.3708494,68.47228
0.4193851,69.301056
0.35695586,70.08608
0.37785566,67.13443
0.397942,65.992096
0.42380914,68.58004
0.37412465,67.94658
0.33567786,65.92437
0.33024225,63.395924
0.26095805,67.34086
0.33186555,64.36563
0.20111732,62.31882
0.22155629,63.24837
0.13289393,63.753895
0.052093104,60.040592
0.09291074,60.94122
0.033178225,61.686897
-0.02135624,62.831528
-0.12795341,63.09437
-0.050890952,66.08945
-0.07149858,67.9599
-0.1552992,67.30937
-0.06141769,67.44902
-0.0042038844,66.94294
0.03325886,71.439125
0.06445686,69.668755
0.11728258,69.16442
0.17565487,73.94231
0.21132758,76.60917
0.27439204,78.704475
0.40103263,78.17006
0.35870337,80.593544
0.6237354,81.18187
0.5369473,79.97965
0.63983077,89.351616
0.8336218,84.69302
0.83985084,86.544754
1.0305746,91.44493
1.0256228,97.76984
1.1201175,93.23855
1.0724902,94.98278
1.161809,96.49834
1.2742493,97.23737
1.2826592,101.816666
1.2870822,104.72818
1.2867581,99.57569
1.3147252,103.6297
1.409353,109.03309
1.436839,103.10676
1.3523909,108.26139
1.3975881,106.72663
1.3690662,106.14432
1.2310461,107.877426
1.3437462,107.04816
1.3247415,109.55663
1.3296566,107.754166
1.3513653,104.940445
1.3913136,111.96676
1.2559038,108.436615
1.240292,107.96301
1.2791301,105.89883
1.1716416,108.02782
1.159082,104.94346
1.1884079,108.42862
1.1536988,105.1528
1.0617537,102.58094
1.111465,103.66911
1.0580094,102.29642
1.0805429,102.715225
0.9756081,98.18958
0.97963727,97.768166
0.99772114,101.46634
0.9664025,95.43212
0.9449907,96.32118
0.956538,93.953445
0.9803608,92.7123
0.90081125,93.09175
0.85805076,95.49099
0.93213546,93.99061
0.9951132,92.78117
0.81510967,90.14365
0.8868069,86.83404
0.7640718,85.88591
0.8185663,86.18371
0.8089455,83.5165
0.7298998,82.47417
0.7464548,83.5635
0.6472861,80.0963
0.7221395,81.94865
0.58230215,78.53023
0.57762474,78.59505
0.51982987,79.04663
0.46093112,76.23274
0.45871538,76.72981
0.48680001,73.46201
0.40060034,77.13847
0.34382662,76.48839
0.3500097,75.35548
0.44669995,73.54071
0.43372837,69.90794
0.38753515,70.52147
0.39222094,72.542534
0.2485506,67.12585
0.4081066,70.160576
0.3492365,63.369774
0.3503909,63.317657
0.37684286,64.61871
0.41389015,64.17877
0.33867747,63.967335
0.3584473,61.698395
0.3109288,60.93258
0.29410917,59.908222
0.22428642,63.090572
0.24451612,61.39404
0.15135084,63.580353
0.13621931,63.462635
0.14745843,63.66933
0.06224148,66.45881
0.05524115,64.24954
0.041757863,63.7457
-0.0035897978,67.82011
0.13753372,64.93501
0.13573268,68.32306
0.20490366,66.36492
0.1754271,71.330635
0.27279738,69.667755
0.33786193,75.37628
0.3256898,75.42248
0.52711916,77.92467
0.5312366,78.31164
0.6509611,77.431915
0.75671434,80.57301
0.80939806,86.96251
0.88407165,88.04038
0.979021,90.08274
1.0724666,88.65906
1.1756322,88.39396
1.1769892,91.112144
1.2459546,96.01913
1.3659654,94.45517
1.3826717,99.54664
1.4748148,99.24589
1.5098759,105.61958
1.5605732,99.131874
1.5409304,105.109055
1.5203569,102.20056
1.5826042,104.312904
1.6561726,104.92106
1.5857689,103.891396
1.5395602,108.26743
1.6304703,106.5803
1.6438586,108.727455
1.5879319,110.05248
1.5844388,109.86134
1.6521103,108.48638
1.5447416,108.585846
1.4557508,110.201164
1.541048,105.17291
1.5320034,105.1332
1.4782075,106.23379
1.4794145,106.45743
1.4871074,104.56198
1.449782,102.28007
1.3574159,99.007965
1.34459,105.90986
1.3489239,101.61174
1.3764774,102.00046
1.293092,100.41329
1.2593516,100.64945
1.2873036,100.839775
1.3194916,97.19241
1.2731093,95.13552
1.2288206,94.5924
1.1923965,98.46663
1.2878405,94.986595
1.2237527,91.27932
1.2095419,94.61025
1.1904082,92.7444
1.2259425,92.52375
1.1985333,86.9479
1.2131038,86.55207
1.1368608,86.563194
1.0660002,89.276
1.0692192,82.83837
1.0350285,83.52748
0.9991093,85.77294
0.9725703,83.6387
0.95524,82.83518
0.95934576,82.26988
0.88746226,78.426834
0.86692697,78.28197
0.8141566,72.611694
0.78010076,74.587814
0.77084154,73.38555
0.8533367,75.001625
0.69307584,73.21011
0.71409154,70.54316
0.80525535,69.764015
0.73250055,70.05065
0.74409366,67.09521
0.81398743,67.93922
0.70208514,69.473854
0.8139469,67.14625
0.7560826,65.34509
0.76515305,65.301926
0.6837589,64.9345
0.7617682,63.637253
0.6844115,62.97093
0.67912614,64.0178
0.62859803,64.11697
0.59377277,63.587982
0.58556205,65.61069
0.5379285,60.997658
0.5592919,67.37171
0.44506982,66.658394
0.453429,63.50604
0.42585042,63.64392
0.4710592,67.4491
0.43920788,64.82743
0.4260203,67.3707
0.4803635,65.26292
0.46351054,68.810715
0.5461361,67.932175
0.6066703,67.99443
0.5655196,72.64537
0.76298654,74.50469
0.76318735,74.306
0.8891118,76.244835
0.93617004,77.60892
1.0131398,79.50621
1.0489832,82.03776
1.2006551,86.817154
1.1496661,84.21396
1.4392105,88.06349
1.5257032,91.31371
1.5523341,92.3022
1.5808481,91.898445
1.740114,94.992714
1.731552,96.6727
1.6867124,97.92297
1.821171,99.20936
1.8303889,100.84477
1.8631868,102.56731
1.8793348,103.94012
1.9109601,109.48251
1.9650724,106.14379
1.9557077,104.38437
1.9185144,107.138
1.9132743,106.83013
1.868059,106.849205
1.8850467,109.561386
1.90449,105.53807
1.9254022,107.336815
1.8511149,107.391655
1.8563578,110.229256
1.8201877,105.43295
1.8280033,108.37162
1.8635554,110.88019
1.7628864,108.196915
1.7945491,104.653435
1.6925603,106.18195
1.7778567,105.761734
1.6685337,103.48027
1.6731839,102.61848
1.5215713,103.38628
1.6344652,101.51408
1.5835694,100.89661
1.5029087,97.42493
1.5689988,97.76219
1.5977039,98.86317
1.510457,97.77831
1.4952066,97.404755
1.5098232,91.86701
1.4356954,94.23755
1.4843204,91.31107
1.453216,91.732315
1.4482722,90.1465
1.4078122,89.46843
1.4083891,88.99871
1.4028769,90.313065
1.3607534,85.1807
1.3449354,88.79256
1.2973112,80.91842
1.1918591,86.55842
1.2547088,83.550095
1.192742,82.061005
1.1353642,80.99822
1.1119221,78.83607
1.1569369,78.89953
1.0126826,79.360825
1.100423,79.66313
0.9648576,77.82577
1.0170925,77.66963
0.9759165,70.42701
0.9625199,73.57772
0.92748433,71.4943
0.90148246,72.06097
0.978712,71.01634
0.9143117,68.21883
0.8301304,65.81188
0.9203956,66.0604
0.94389045,69.1524
0.8940332,62.891197
0.9216647,67.44253
0.8694248,67.243286
0.7926424,66.05426
0.8488674,64.41424
0.83984303,71.41953
0.8111001,62.361183
0.7527434,63.880653
0.6778565,62.14686
0.6798872,63.34473
0.6167447,62.461197
0.52333105,59.317883
0.632066,59.59608
0.47326875,62.564728
0.5180346,64.2597
0.49867827,67.45116
0.57313097,66.26898
0.5396414,64.34852
0.5871279,69.20058
0.51993203,69.98
0.67778754,70.26499
0.7302474,74.30991
0.862723,71.54744
0.81043994,76.19639
0.97277474,78.34097
1.0281281,80.28959
1.0577236,78.03158
1.2405766,87.16939
1.2960869,85.972206
1.3964022,86.53194
1.4404287,84.057144
1.5022868,91.079445
1.5502701,92.988106
1.708383,94.48231
1.5920798,96.307625
1.673442,97.810814
1.6965466,96.47441
1.7570609,100.624054
1.7928421,100.05259
1.8702694,98.277954
1.869288,104.61907
1.967164,104.80858
1.8400692,106.866806
1.8356074,102.198265
1.9126627,109.115746
1.9152721,108.14547
1.9251353,105.78351
1.9107968,110.90128
1.9173645,108.61131
1.8844414,106.94216
1.8358192,108.269424
1.8159876,109.65529
1.8138534,109.0842
1.7718226,106.258705
1.7397009,107.06615
1.6663674,109.252754
1.6922035,107.38606
1.6010091,101.69381
1.6021607,107.9582
1.5527407,103.39838
1.5825366,101.898
1.516693,100.082405
1.4131458,103.97358
1.4271107,98.84272
1.4116852,103.685844
1.4007567,98.85398
1.3578874,94.25862
1.3712877,99.76183
1.3699609,97.34995
1.3979105,96.00685
1.3450655,94.244705
1.3486524,96.21205
1.3206861,90.57581
1.3240837,91.90945
1.2650934,90.20275
1.2981685,89.398346
1.2065253,88.95062
1.1973052,86.90961
1.1304146,85.663345
1.0723193,84.282074
1.0833069,84.09984
1.1291219,86.09216
1.0257304,80.84958
0.9899066,81.46887
0.9000652,78.61991
0.9217818,77.811165
0.88659334,77.098564
0.76143575,74.49788
0.7762302,77.66035
0.77020603,73.66176
0.81111026,74.59619
0.6918558,71.47724
0.74925447,70.57396
0.73395133,68.05853
0.74012136,67.763115
0.8307465,68.19134
0.735644,68.902855
0.6406964,67.49033
0.6879682,69.30763
0.6589485,65.62945
0.6161116,62.76576
0.58362883,64.817024
0.62363034,66.81154
0.52110744,61.106834
0.51887786,63.96043
0.5432341,61.97166
0.45285547,60.59149
0.37089863,61.25963
0.43238637,60.180042
0.35189065,64.03812
0.33988252,67.66995
0.29010332,63.105553
0.29278147,67.87945
0.23524563,65.4605
0.17349896,63.35749
0.31601351,65.28814
0.3038813,67.32677
0.3148508,70.96936
0.38622952,69.57859
0.38652283,72.73936
0.45352858,69.97689
0.5110101,76.298325
0.5618353,77.21028
0.7023328,76.4625
0.7630032,79.99188
0.80072653,82.202835
0.93622434,83.401855
0.992594,84.30555
1.1441983,86.09358
1.0982816,88.763954
1.2459038,92.18987
1.2381941,93.53329
1.3886112,95.00736
1.3269506,97.92852
1.4117807,98.59144
1.4807535,98.410934
1.5192819,98.35389
1.5235099,103.736015
1.5611073,102.70211
1.5750139,108.80993
1.527467,102.8887
1.574784,108.57882
1.6345379,104.7311
1.5395375,106.86334
1.6270069,107.96684
1.5707982,107.6016
1.4852284,107.71617
1.5184519,109.28617
1.5312932,109.7746
1.5306925,105.84522
1.4299393,109.08662
1.5000349,105.89286
1.4778242,108.28404
1.4269955,106.80783
1.3173538,108.15792
1.3270189,108.21171
1.2327167,104.905975
1.2849171,104.92102
1.2642618,106.23301
1.2729908,101.58898
1.1675363,101.29516
1.1420636,102.5333
1.1028476,95.969864
1.079261,98.16149
1.0860639,98.93333
0.977656,94.315155
1.0112569,94.21349
1.0233104,95.55144
1.0097824,97.03468
1.0555773,92.47712
0.99218506,89.768005
1.0029466,90.43749
1.0146914,93.534386
1.0294851,90.13011
0.9582126,91.68683
0.89321214,90.45669
0.8530089,89.76441
0.8932183,87.35027
0.73807096,83.34891
0.7169876,84.710594
0.6546255,79.32093
0.6266565,81.88286
0.6719957,81.71387
0.47673592,82.799835
0.5389214,77.41577
0.49798343,78.94579
0.48196253,73.779144
0.46287137,74.35814
0.45748234,75.004814
0.35137075,72.55191
0.379386,72.23761
0.42015827,72.47909
0.4208745,70.22995
0.33225065,69.64994
0.4053123,70.5134
0.38054034,65.15058
0.3713006,68.79286
0.3435511,70.03654
0.2920424,66.920555
0.29110816,66.2317
0.32745618,64.822365
0.25186512,64.57313
0.19947363,64.165665
0.31074354,63.49796
0.19445059,59.62164
0.09698035,62.21921
0.13451257,62.65474
0.09273341,63.242855
0.035688277,62.470375
0.009332932,65.94738
0.00079368625,60.275734
-0.010319043,63.9954
0.024657778,65.62713
-0.10275455,64.245865
-0.016641334,68.164345
0.016475478,68.58762
0.010765163,66.370445
0.051939473,70.56002
0.12384111,71.18213
0.22203624,71.62084
0.2074576,75.69406
0.33524084,76.999146
0.36397138,77.1386
0.47909904,81.53202
0.61341506,83.53314
0.65274256,86.92118
0.8249154,87.14979
0.75767237,84.49026
0.86261654,88.37642
0.9889865,91.31381
1.0455333,96.084496
1.1113065,96.1864
1.1988014,96.223946
1.2513666,99.88688
1.2782687,102.17298
1.2419147,101.805626
1.3238224,103.21754
1.3810973,103.57866
1.3273134,103.857475
1.3748387,106.73339
1.2974226,105.83682
1.2200766,106.46522
1.2726245,108.51388
1.3070186,109.35036
1.3972874,107.74485
1.3380793,115.224945
1.3938797,110.4296
1.3178173,109.895996
1.3581797,103.53318
1.3515271,109.26976
1.2477583,107.311386
1.1960225,104.75194
1.243174,104.454384
1.2355152,109.15679
1.1800731,106.204895
1.1462846,107.68667
1.0715241,105.721725
1.1570218,101.02834
1.0276742,100.32878
1.0138394,105.133934
1.0366929,98.37184
1.0097531,98.88289
0.95757747,94.66728
0.97532576,96.261246
0.96642464,95.496346
0.9308761,99.08613
0.91620094,95.5897
0.9478597,93.18361
0.8848976,94.23067
0.96678567,94.38783
0.9272398,94.55411
0.9125574,88.77101
0.8382388,87.56374
0.8574209,86.193245
0.82827824,84.95761
0.68072855,87.50094
0.79615533,87.686935
0.6869462,81.56398
0.717989,82.49244
0.64328223,82.92091
0.69245136,80.57801
0.5261025,82.655396
0.5554992,81.683586
0.52305526,76.042946
0.45859402,80.23714
0.45271674,75.21321
0.44537506,75.37681
0.47550294,74.15323
0.39112395,72.86664
0.39997715,69.74792
0.37297037,69.87946
0.3823324,68.95636
0.35004783,70.23867
0.35071656,66.60943
0.39799267,68.03525
0.35464972,65.45836
0.4290257,68.65924
0.39691654,63.37118
0.33163044,62.6597
0.28492138,61.486862
0.41561782,61.746822
0.25012743,63.313385
0.28923407,62.61946
0.29097176,63.165504
0.22044013,62.484196
0.18610527,61.184048
0.2115093,65.372314
0.05387019,60.42331
0.062357284,61.982265
0.1181194,62.3794
0.08174675,61.763287
0.064074755,64.30232
0.1671889,69.13629
0.11241224,68.16129
0.11692277,68.11866
0.1996813,65.87006
0.22611141,74.89438
0.28518113,70.978905
0.2711418,73.35607
0.35207945,72.68121
0.47929525,78.6514
0.55272496,78.841
0.69782865,84.15519
0.81437176,84.68144
0.7567482,84.08799
0.9175548,85.710045
0.9599256,88.83544
1.0512518,93.79315
1.1850859,90.87721
1.2716016,94.00516
1.330908,96.58148
1.4328601,97.94871
1.4171197,97.59934
1.3437488,101.229164
1.4803848,101.52329
1.514521,102.20707
1.5375959,103.262024
1.4897847,106.42507
1.5719537,104.28801
1.654707,106.72603
1.5829344,106.964905
1.5202974,108.65429
1.5899632,106.73524
1.5984424,106.91706
1.555996,111.985664
1.5517446,109.84864
1.5049596,106.679596
1.5315739,106.75335
1.5301354,106.50456
1.5135772,108.19501
1.4887859,105.17984
1.4068474,112.14826
1.3301077,103.387726
1.4046476,104.45791
1.3928837,102.77255
1.3052406,101.37108
1.291395,101.00498
1.3521607,101.0535
1.2794492,100.4206
1.2766898,101.40932
1.3388314,100.55486
1.1653463,98.34512
1.2359926,95.55127
1.2088046,97.395836
1.1876789,94.80572
1.2251775,94.09417
1.2157872,92.046265
1.164944,91.243385
1.2401601,91.978264
1.174054,89.67989
1.1354959,90.90488
1.1987699,90.27961
1.1815461,88.69279
1.0899025,86.948105
1.0421644,87.9758
1.0306801,83.6837
1.0979165,82.24175
1.0293492,84.39381
0.9322241,81.60332
0.9623363,81.461624
0.9075337,78.420685
0.83854806,78.721
0.84165883,80.08424
0.73668116,74.724495
0.6932855,73.61283
0.68824697,71.71225
0.71081936,77.09748
0.78967464,74.91743
0.77999115,70.65468
0.7035917,68.68743
0.7189515,73.6991
0.7499973,67.71551
0.7049418,67.34057
0.75034416,68.49101
0.73175436,68.02968
0.66903335,66.008965
0.69860584,66.11014
0.6843673,64.692795
0.7130779,62.94329
0.6060434,65.71377
0.6795084,60.939137
0.69369256,64.82183
0.6074822,60.822327
0.5849552,61.791504
0.43778792,60.347702
0.4202326,63.423615
0.48368785,66.60552
0.49764723,63.99885
0.37574857,62.068195
0.40685424,64.915924
0.36987537,67.56873
0.4427981,65.019005
0.4866177,68.791435
0.42030963,70.4873
0.49138018,73.188995
0.6005646,71.67659
0.69762963,74.430435
0.771977,73.65422
0.77730525,76.825554
0.8826936,79.48595
1.0091635,79.74359
1.0713143,84.12073
1.1093359,85.44495
1.2762457,84.9116
1.3146758,85.13805
1.3880674,88.25556
1.4164332,92.76717
1.5170668,94.80869
1.6119287,91.56606
1.6966178,98.77124
1.660705,95.18078
1.7531787,96.4644
1.7563709,101.67776
1.8470454,102.20511
1.8541244,103.20877
1.9084293,103.47447
1.9338723,103.72263
1.9197108,106.186356
1.9291979,110.8215
1.8998119,109.6832
1.8419554,108.26632
1.8720659,108.60321
1.8430625,111.25889
1.9056903,108.066826
1.8981822,107.42237
1.9313115,108.85738
1.9042758,107.41953
1.817611,107.62505
1.8357006,106.29046
1.7386351,108.19617
1.6767766,106.49768
1.7296046,106.313255
1.6821322,103.2419
1.6711444,101.117485
1.640927,105.12808
1.6223146,103.074036
1.6562256,101.73233
1.626562,99.04771
1.521443,99.708405
1.5711273,97.17884
1.553042,99.181625
1.5042504,96.195564
1.4477999,95.0706
1.4362369,97.060524
1.4242383,92.25329
1.5116537,93.3761
1.512145,93.426094
1.4274702,88.63452
1.4467266,93.18992
1.4341837,91.11707
1.4051764,88.546844
1.4130911,84.259155
1.3920883,86.74945
1.3404634,84.56639
1.2681943,84.44236
1.2401057,85.4998
1.2627623,81.20233
1.1966883,78.96129
1.1631969,79.22057
1.1648036,83.46759
1.1200328,76.12733
1.085658,75.83904
1.0318282,74.83533
1.0077173,73.5225
0.9748342,75.846535
0.90187246,74.61716
0.950313,69.9189
0.9503631,69.03032
0.99791837,69.31279
0.9488085,69.40523
0.88826394,72.843796
0.96760136,69.45066
0.88749206,68.538765
0.9319474,66.63744
0.9882874,66.68265
0.8881921,69.56983
0.8931958,61.908028
0.79259557,64.86338
0.775849,64.113014
0.7871964,62.357025
0.7559605,61.621933
0.7804791,63.08382
0.7221824,62.516773
0.6609525,67.08444
0.65240264,61.175243
0.637225,62.655415
0.5586022,66.4581
0.5200858,65.56588
0.625784,63.722626
0.5197784,64.97897
0.61701554,62.26783
0.6079455,66.680145
0.5821747,68.39722
0.74069357,67.74522
0.7830198,71.770615
0.8006904,73.20019
0.86921054,77.47668
0.9361613,74.540085
0.979242,77.57147
1.1150427,79.77678
1.2236328,81.715126
1.1894482,79.618935
1.3877571,86.43844
1.4532224,89.1899
1.4367554,89.2775
1.5252236,90.92126
1.5624225,96.824776
1.583648,93.04069
1.8609344,96.697845
1.8162441,99.33105
1.771608,101.41855
1.8667358,101.579666
1.7950954,102.99956
1.8340362,101.864044
1.8863398,101.766785
1.9301049,104.37336
1.8218677,107.10225
1.913585,105.70736
1.8604629,112.06584
1.8864577,103.76887
1.922944,104.67191
1.839921,107.6698
1.866739,111.01933
1.8331909,107.28298
1.8058437,109.48085
1.7805258,108.6755
1.7717417,108.047646
1.773061,109.19878
1.7196109,108.24859
1.6935841,110.2101
1.7134213,105.589676
1.6797016,100.990776
1.5584414,103.78388
1.4862946,104.657585
1.6245934,104.23257
1.521134,97.9031
1.5686487,103.644516
1.4249135,101.4264
1.5170047,95.31496
1.3981229,98.69747
1.4036014,96.58294
1.385623,94.1427
1.333449,92.19608
1.4169891,93.15905
1.3552151,91.20973
1.3310455,93.23928
1.2556356,92.50107
1.2907928,90.30029
1.3516848,89.430626
1.3080553,89.20134
1.203517,85.71011
1.1856697,85.97573
1.1270474,81.88381
1.1075592,78.8945
1.0203619,83.07198
1.0335674,81.9934
0.9784663,78.45768
0.89871216,76.1385
0.95745647,80.87727
0.9019615,77.84078
0.84269446,73.588524
0.7750213,78.49386
0.80481285,74.658806
0.7062758,73.840164
0.7879501,70.062706
0.6845919,69.42453
0.75697285,69.78162
0.758606,69.79389
0.81365526,70.14914
0.6895436,67.49179
0.7202087,65.40658
0.82117236,69.35026
0.67216396,65.814224
0.708513,66.10144
0.64490175,63.41068
0.580463,65.66975
0.6291286,62.393612
0.5643943,65.302284
0.52037996,60.8358
0.4773395,62.915962
0.45329985,62.66189
0.42360646,63.574795
0.43062118,62.42497
0.3238248,63.557022
0.34667745,63.512424
0.33833542,66.109695
0.34050038,64.086334
0.31699607,62.54938
0.32822394,65.5735
0.26279533,68.55882
0.31119853,70.304054
0.36317182,67.5109
0.35028794,71.07976
0.46794558,71.529205
0.4861172,75.97403
0.5615182,75.04972
0.65150213,79.543915
0.7628445,76.13474
0.905392,80.43128
0.88364524,82.33377
0.8825949,84.341515
1.0666215,83.575264
1.1193744,89.75169
1.215965,92.56605
1.2607915,91.20628
1.3318996,88.57856
1.3374908,91.94414
1.4505495,96.68924
1.4030316,97.934746
1.5272293,99.32434
1.488955,103.8652
1.5629531,103.8722
1.5568078,106.41339
1.5865945,104.03279
1.5604662,105.30954
1.7219849,110.43123
1.5486857,105.71987
1.594082,105.546196
1.6158615,109.58835
1.5358279,112.635284
1.4777337,107.32662
1.5183748,110.86146
1.5215206,106.76556
1.5522032,105.54073
1.4681726,108.07588
1.426241,108.248924
1.4089243,110.57384
1.3987482,108.49835
1.3165712,108.75183
1.294438,103.1539
1.2874955,108.22259
1.2547584,102.58285
1.2065318,103.48709
1.2843242,102.60893
1.1702316,99.97121
1.1127255,99.502975
1.1616557,95.73098
1.1243523,97.49357
1.0589132,100.53814
1.0877028,98.13293
1.0476862,96.56137
1.0326465,95.868706
1.0524579,92.3284
1.008025,91.27124
0.95586973,93.08474
0.99668616,88.34657
0.9057158,87.30722
0.97153026,87.61196
0.9560805,86.08586
0.85574186,87.90324
0.89832383,87.55139
0.8643819,85.27365
0.7250039,84.748566
0.7392836,84.594444
0.6631678,79.40978
0.67109054,81.4054
0.6554356,77.04784
0.6071633,80.922455
0.6050694,80.96424
0.501631,77.32135
0.44753847,74.97093
0.44278878,74.3542
0.4254766,76.0296
0.37222534,74.12962
0.43365988,66.83523
0.4252329,71.26869
0.37762603,69.671745
0.45291424,67.27771
0.4502331,67.846985
0.35679078,66.237564
0.43824017,69.866196
0.3269593,68.607635
0.4138365,63.326157
0.4079832,63.39666
0.31184807,66.385544
0.33979824,62.216606
0.21935385,61.46915
0.23718175,61.62747
0.22209015,64.626854
0.060828168,63.72778
0.1533447,64.83535
0.06848101,63.081856
0.035760943,62.936886
-0.0397405,63.41906
-0.07576434,65.76521
-0.12199088,67.45377
-0.05180099,66.95062
-0.013243955,67.46029
0.0143524865,66.108315
-0.02168682,67.21735
0.026878817,70.923645
0.10918294,72.01228
0.1730159,73.67476
0.2115229,73.868546
0.39486122,78.72953
0.38826832,80.1528
0.4538404,81.331955
0.5280754,82.10333
0.7472108,81.42881
0.7728541,84.41829
0.777266,88.043205
0.82433796,90.92538
1.025978,89.60261
1.0339322,91.31797
1.0815451,92.501686
1.1039664,92.30908
1.1111802,93.96968
1.1911691,99.18117
1.257421,98.09999
1.2979944,103.01173
1.3121144,104.68709
1.3231709,102.35517
1.3160065,107.15581
1.3694725,106.1554
1.3574338,107.14906
1.4068091,106.87582
1.3579512,105.41941
1.3574257,109.98921
1.3822541,112.29473
1.3568207,110.05275
1.3436447,109.404366
1.1961461,108.19306
1.3347821,106.5921
1.2505214,109.5322
1.2391695,107.55545
1.2332622,107.22915
1.1730438,109.23698
1.1570761,106.22464
1.0713325,107.89047
1.1583143,104.26635
1.1288294,105.59436
1.035903,103.1037
1.0433513,100.449005
1.0104232,103.25298
0.967024,102.90537
0.9429928,98.89962
0.9467816,98.222916
0.92350763,96.00071
0.97320753,98.52611
0.8829892,96.50108
0.9069903,94.835464
0.9430824,94.54665
0.9157757,93.44822
0.839908,91.637794
0.82275575,89.685814
0.86860424,89.44401
0.7821373,86.46814
0.8670363,87.15077
0.7802042,87.376976
0.80832255,87.504395
0.6861584,80.897026
0.7554999,81.81938
0.640868,79.80686
0.62749,85.92892
0.67230076,79.32304
0.53583175,80.36271
0.4600861,79.4138
0.5235481,73.83465
0.487529,74.86809
0.44297278,77.47958
0.39286184,73.378
0.3956013,74.0661
0.39041385,72.4487
0.407394,72.90598
0.41884893,66.66496
0.41639525,68.30417
0.32333973,63.63411
0.43525314,67.69006
0.32883522,66.26418
0.4173922,65.14169
0.44213226,63.04726
0.34886253,64.878555
0.23271966,65.619896
0.311072,63.997406
0.24924506,63.0199
0.29479042,64.02079
0.2306195,62.703278
0.16430606,62.16323
0.082119405,63.384995
0.047832143,66.18306
0.036040008,59.63403
0.13783064,61.27273
0.1107733,64.9276
0.020950673,65.00233
0.0024145143,64.61667
0.034055706,64.92532
0.12798552,68.37953
0.008948134,65.303764
0.10142834,71.61873
0.28946537,67.72846
0.23185457,69.24392
0.31512707,71.3863
0.29872924,74.170654
0.44534716,76.35998
0.5424697,76.39407
0.61735266,83.94415
0.7650589,79.54335
0.81217647,81.85306
0.8899474,84.82727
1.0048087,86.4937
1.1331815,87.590904
1.1310617,90.9196
1.1651226,92.55153
1.2699076,95.70931
1.256353,96.30389
1.3872613,97.54656
1.359381,96.36472
1.4917941,100.836395
1.4623456,100.29276
1.490127,104.76102
1.5567176,106.31953
1.5341222,104.3089
1.4822843,106.930275
1.5556848,106.2085
1.6360422,106.991585
1.5112714,108.79853
1.5126452,108.56304
1.5670646,110.53
1.5237777,104.780525
1.5068579,108.200424
1.4562361,110.59059
1.5226095,108.59441
1.4856154,108.96941
1.4234405,107.40357
1.4669473,105.930954
1.4454125,104.71864
1.3893201,106.344795
1.3701231,106.48057
1.3094856,101.43078
1.342253,107.945274
1.3096014,104.13519
1.247514,99.990456
1.3173203,103.245384
1.20097,101.38567
1.167573,98.211266
1.1870754,100.38482
1.1575625,97.17453
1.1231848,95.053246
1.1118028,94.53294
1.2867053,98.30837
1.1732402,92.63813
1.1276821,93.38219
1.1662519,92.11295
1.1622247,93.13526
1.1329521,89.08461
1.1863942,89.25976
1.1499958,83.88763
1.0939375,85.48683
1.1014676,85.9938
1.0147036,82.014015
0.9567616,81.2974
0.93928164,81.48707
0.95786464,78.15865
0.8354999,81.290855
0.86296403,79.88424
0.80807775,78.31669
0.71595776,77.3427
0.6843578,76.975136
0.7793932,76.7302
0.782856,73.27836
0.7485053,76.25355
0.6986631,70.544106
0.63910645,72.22049
0.72686696,71.072586
0.7120222,70.396996
0.7020365,68.26948
0.7178979,67.98629
0.7216149,66.926346
0.7887915,65.40056
0.6832322,63.35307
0.6875935,63.05922
0.6509106,63.01705
0.63627106,64.99756
0.6425526,63.760853
0.60112226,64.96926
0.4960364,61.717873
0.51293653,63.437714
0.56991124,63.42022
0.44200766,63.579575
0.4506022,63.03811
0.34628716,64.38534
0.40472755,64.03524
0.39906144,64.01849
0.35186762,67.269035
0.32616675,72.24094
0.3707741,66.52429
0.44168946,72.75561
0.45710275,72.92746
0.59662545,72.69388
0.5592295,72.310524
0.71447396,73.84488
0.7284779,74.41511
0.8235753,77.753815
0.9451245,81.06741
1.0751783,82.16792
1.0959383,85.56124
1.1941098,84.30263
1.2990243,87.12794
1.3561716,86.61639
1.3953493,87.599464
1.5319016,92.15109
1.5534385,95.04751
1.661489,95.305016
1.6901093,96.40104
1.7753145,95.8695
1.7447563,101.18854
1.7965848,101.65482
1.8099055,100.642204
1.8740641,103.00567
1.8693154,106.30422
1.8219532,102.47901
1.8752593,106.88274
1.929469,106.224236
1.9222676,107.13689
1.9603018,108.19669
1.891059,107.44563
1.9395189,109.11745
1.886915,106.0954
1.8452096,111.88109
1.7443694,109.562805
1.7944701,109.828476
1.7491342,106.927864
1.7873933,106.105606
1.7715093,106.788216
1.7286687,106.94286
1.7436452,104.62778
1.6821201,100.995094
1.5645345,107.565704
1.6552271,104.4742
1.5432687,103.03078
1.5697535,102.81968
1.5456915,101.773544
1.6045603,98.61229
1.4617732,96.47266
1.4736587,99.39693
1.5241394,92.85846
1.514662,93.821884
1.5414417,92.75853
1.459331,91.36129
1.4705085,94.51711
1.3831725,93.072525
1.4507178,91.091644
1.440585,88.03354
1.3994089,89.662895
1.3745341,89.405365
1.3472528,86.6513
1.3359519,88.09356
1.2580689,85.434395
1.3015524,82.44245
1.178503,83.591255
1.2553219,84.336525
1.1503642,82.66776
1.0981951,77.35865
1.0817707,81.24542
1.0242308,79.2693
1.0641811,75.4169
1.0466774,75.20501
1.0618961,74.83215
0.9975199,74.54516
0.91330147,75.65797
0.9226212,73.066025
0.9627382,72.35936
1.0040876,68.62611
0.90242326,69.48155
0.98291457,66.506775
0.98199624,67.83114
0.980616,63.105835
0.8886815,66.0827
0.9354686,66.091354
0.95159376,64.13743
0.8734644,64.012344
0.8551064,61.78003
0.82389516,64.83267
0.71440655,62.443928
0.75633305,62.610023
0.6132852,64.35623
0.7820538,64.81218
0.6683849,61.554073
0.6461132,59.985153
0.6290324,65.66494
0.51061386,64.74136
0.5160358,64.46834
0.5838192,63.92582
0.5490381,66.28167
0.6101919,68.47184
0.53783786,70.92372
0.5841814,69.659454
0.6387368,69.94756
0.73272175,73.72126
0.7789011,76.28872
0.8593573,77.884926
0.960681,78.38228
1.0585029,76.44366
1.0556253,83.058815
1.240391,85.24245
1.3163233,83.51287
1.4425185,87.05023
1.4125605,85.983444
1.543166,89.62411
1.6083388,91.048004
1.6364328,90.816025
1.698633,94.854164
1.7440861,95.8837
1.838908,99.41524
1.8437383,100.26902
1.8561134,105.56106
1.7699119,101.940735
1.9206374,101.22874
1.8878399,105.57359
1.8866177,104.793015
1.8528461,109.7026
1.9936763,106.93987
1.926451,107.42191
1.8843262,110.36573
1.9543939,109.13499
1.9266152,110.00313
1.8447361,112.26831
1.8522397,110.75447
1.8574933,111.658966
1.7981387,106.974945
1.7883787,109.20964
1.7411568,105.873825
1.6897818,107.46415
1.6945168,104.5812
1.6756724,106.89328
1.713266,103.06517
1.578512,105.72015
1.4936262,100.42905
1.4956987,102.88838
1.5482742,102.756584
1.5106035,98.23739
1.5006887,101.094574
1.4714471,98.74564
1.4361638,97.43553
1.457684,95.99245
1.4579514,96.95481
1.3411045,94.64725
1.3476259,93.24219
1.3287308,90.35076
1.2805483,92.54301
1.4171213,88.65216
1.3427616,89.71256
1.2723473,88.08231
1.2672164,87.3947
1.316421,88.653015
1.1996619,84.75677
1.1949664,81.550606
1.116373,82.802574
1.0738382,81.81605
1.0697746,84.90731
1.0184371,82.93002
0.9706853,77.49789
0.8733951,77.74488
0.90959847,79.621544
0.86073196,74.24101
0.8096861,76.1967
0.8297119,73.19245
0.8067525,74.47222
0.8162175,75.772354
0.77094615,72.04199
0.6899696,70.51638
0.68233204,70.58605
0.77285004,69.05776
0.7702229,67.72121
0.7340017,66.17942
0.73197424,70.31936
0.6430325,63.902325
0.62237144,65.08453
0.7208058,63.23031
0.66499805,64.66125
0.59389997,62.609917
0.5369338,65.11714
0.539402,64.04522
0.49739173,61.402927
0.4211969,60.13195
0.46862528,63.838295
0.3654633,64.29468
0.36965087,65.846924
0.2986145,64.89535
0.3120835,63.86422
0.30185553,66.92133
0.28082004,63.75321
0.31983274,67.90299
0.3183285,69.42883
0.34080967,72.18921
0.39910057,70.508514
0.46394262,70.54014
0.48551887,73.35495
0.6293437,73.380035
0.6843091,74.312035
0.66290456,76.595825
0.7955029,80.79351
1.0086493,83.20629
0.92241883,81.675674
1.0402492,88.52424
1.1099286,88.2676
1.2242262,92.27518
1.3123404,90.38992
1.3383682,96.59794
1.4091793,94.67922
1.5264454,92.70209
1.5309217,97.67844
1.4683149,99.64014
1.4888141,105.389275
1.5629512,104.7509
1.6047214,102.197495
1.61827,103.5967
1.5738584,105.6012
1.5974993,105.06557
1.590633,105.49162
1.6480358,107.67083
1.5545536,108.815926
1.6214143,108.76704
1.5572995,110.58065
1.5634894,109.75526
1.562685,109.75112
1.550778,108.849075
1.5135028,109.95493
1.528279,105.821106
1.43586,106.11929
1.4130844,104.153755
1.3862746,103.89717
1.3442042,106.61623
1.3020335,103.979904
1.3498721,106.356445
1.2773582,104.064606
1.2665154,104.76056
1.2322179,100.239845
1.1595778,101.576744
1.0876225,99.60988
1.1974792,99.5391
1.0837458,97.48
1.0906622,95.66819
1.0938541,95.79974
1.0802522,93.690834
1.0840135,93.62106
1.0299637,92.36237
1.0442337,90.760735
0.9720142,90.212845
0.96095186,94.54321
0.95221704,90.65423
0.8795262,88.82686
0.89923584,88.202095
0.94694924,85.56207
0.8628516,84.29381
0.7431381,83.68832
0.8160302,84.00318
0.7077909,82.2067
0.61349624,83.37272
0.64700305,82.24728
0.5613758,75.60325
0.63672477,79.357445
0.55057293,76.98932
0.5394932,76.866394
0.47709066,75.14479
0.43141842,74.838066
0.48203662,74.96514
0.39905265,71.33164
0.43744743,70.32156
0.4494294,71.040726
0.36466974,75.41843
0.32964307,67.80364
0.3947837,67.63727
0.3318967,66.1541
0.3626381,64.39916
0.3712447,68.631134
0.41529843,65.95642
0.40926737,64.44348
0.32912847,63.965103
0.290557,64.88239
0.18998201,63.708675
0.18271884,63.383892
0.15847315,63.834846
0.13060461,63.395973
0.10605506,59.661175
0.07686885,64.4501
-0.003943341,63.65827
0.00039213206,65.95098
-0.054440204,65.00977
-0.014354016,66.859924
0.009202764,70.94084
-0.022546789,68.876434
-0.008659482,67.73565
0.045127355,69.33525
0.13599347,71.480865
0.23647898,75.07901
0.23605984,71.10944
0.30799723,75.88198
0.34314263,76.71377
0.46050262,81.390785
0.5306648,82.5365
0.6789009,80.74005
0.6835501,83.06175
0.8079772,87.33581
0.88640004,89.18194
0.91257447,86.41429
1.0030358,88.19617
1.0170289,96.454575
1.1338044,98.566376
1.1860446,95.17625
1.2484771,97.3515
1.2930155,97.05641
1.3480676,102.06169
1.371617,100.08545
1.353597,102.229904
1.35456,104.83477
1.3561466,105.75051
1.35447,103.28479
1.367328,108.23268
1.302618,107.144264
1.3674258,105.85449
1.3408544,107.92862
1.3343395,109.30664
1.2949055,106.2855
1.367144,107.022484
1.3072166,107.158875
1.2829849,109.0954
1.2017955,109.91187
1.25855,105.279015
1.0980194,110.95377
1.2327683,103.11808
1.0841136,102.70586
1.0371298,103.84527
1.0725187,104.95342
1.0172606,102.725685
1.0664569,101.552925
1.0919222,103.32278
0.98873585,101.129875
0.9538999,102.702354
0.8942925,95.03055
0.93768334,94.59033
0.8998929,97.67149
0.9733287,94.67927
0.9458252,93.78631
0.97399074,95.135414
0.94672185,93.24629
0.9541473,88.88126
0.9587388,90.44876
0.8065698,90.84896
0.84504694,90.42364
0.92215544,84.067444
0.8150598,89.1867
0.7352773,86.245605
0.68418306,87.50393
0.76317537,84.28481
0.56525743,84.89826
0.64419675,85.13589
0.56102866,80.728355
0.5675847,78.3911
0.5800133,77.049995
0.4279018,74.942795
0.50136787,77.23171
0.39510798,74.928894
0.33553886,75.14989
0.31325144,73.623634
0.3294086,69.839905
0.38178128,70.68006
0.32347202,72.77121
0.3951332,67.35708
0.34946936,69.89917
0.43955582,66.97045
0.32895768,68.16357
0.33971363,69.100044
0.3845603,66.85457
0.30032992,63.667667
0.298157,65.09288
0.2584691,63.494007
0.29794097,65.231285
0.2915975,61.873043
0.15684225,57.873947
0.13967066,56.137695
0.1482255,62.026768
0.13106947,63.798355
0.11405049,63.79604
0.070884705,64.82351
0.019671382,64.58409
0.079748414,60.799248
0.03445689,64.912285
-0.008460867,68.84355
0.12316106,70.61362
0.023247547,67.90159
0.008360578,66.288574
0.15741897,70.64126
0.19682203,66.14968
0.23000999,73.271126
0.30661348,76.51506
0.4151363,74.86918
0.50603217,77.069725
0.525546,78.76611
0.6822632,80.8714
0.69409573,84.92356
0.8758953,83.67669
0.9182612,88.461365
1.0270782,86.579445
1.0921073,90.064354
1.1288801,89.033745
1.2660929,91.675186
1.2893289,93.64103
1.3807105,94.52076
1.4681201,99.59184
1.3268609,103.51431
1.4887947,101.54737
1.4842592,103.00298
1.4774923,103.2564
1.5177628,106.134834
1.4898814,105.986115
1.5380248,103.82298
1.5419093,106.9393
1.5136781,109.32055
1.4966474,106.06801
1.5425527,106.32338
1.5480807,107.86454
1.4350783,110.275444
1.472677,107.46147
1.46285,108.2062
1.4897171,107.657585
1.4773265,110.48216
1.4654684,107.77424
1.4149659,107.68906
1.300744,108.1982
1.4225336,104.97929
1.3417983,103.3214
1.2840092,101.35784
1.3083196,104.41224
1.2632024,102.17032
1.1968465,100.032455
1.2454875,99.34498
1.1505008,97.3362
1.2113769,98.76648
1.1768682,97.41147
1.1736623,94.64557
1.2476593,94.68805
1.1253326,96.88599
1.1943527,93.25628
1.1636308,90.04174
1.1966504,91.58452
1.0290341,91.31175
1.1059399,87.50212
1.0983024,85.22095
1.0414754,89.40231
1.0605865,85.361664
1.0570842,87.96191
1.0329998,84.24326
0.9639717,82.15622
0.91541696,82.44562
0.82718563,80.01224
0.78607756,80.88456
0.8110291,80.07483
0.7897196,78.789955
0.800661,78.5959
0.73744094,76.997475
0.6538821,75.22789
0.74266875,76.12748
0.60329634,70.59054
0.67515796,70.34249
0.72973305,72.93479
0.6228118,71.52478
0.6883062,70.849144
0.6829078,68.61084
0.68763965,67.33531
0.6743866,65.02612
0.6582613,66.16823
0.7036135,64.7507
0.74484473,63.43821
0.6856085,61.46886
0.6331004,64.60977
0.6561386,64.08518
0.5929954,65.828926
0.52837735,63.815136
0.51887333,61.69443
0.52549285,66.30487
0.4762081,62.960545
0.43980584,61.310787
0.3857387,63.402905
0.4172401,60.50119
0.3823805,64.15569
0.3937855,65.54114
0.33090064,66.25008
0.344131,68.5808
0.35158852,68.67015
0.4478089,65.80182
0.5540965,70.56269
0.71202236,72.23324
0.6199489,72.48801
0.74832845,76.35202
0.7286418,76.637924
0.9431754,76.9102
0.9387564,78.89692
1.0779471,86.128395
1.1551943,81.96125
1.2052287,86.341675
1.3123953,85.25766
1.3960187,89.65119
1.3655953,90.913185
1.4827963,89.737114
1.628873,94.98156
1.6269686,94.33492
1.7165431,94.51048
1.7580812,100.43443
1.7728248,103.1464
1.7914951,101.79536
1.8219042,104.51972
1.8259789,103.3944
1.7995843,104.97086
1.9008441,109.67773
1.8357198,106.451935
1.9003253,104.27293
1.8741429,107.9134
1.8507987,109.27774
1.9640914,107.46138
1.8333429,110.700905
1.8570919,105.53201
1.7828764,104.45786
1.8714886,113.02037
1.7453481,109.02221
1.761418,108.37122
1.8090594,106.53575
1.788505,108.26289
1.7355013,105.9629
1.7055933,106.501465
1.6612346,101.22953
1.5908924,102.23108
1.6606796,102.725975
1.5607218,102.419655
1.4928784,103.12183
1.5367572,100.77635
1.5343227,97.24556
1.5035702,98.44179
1.5381604,98.25452
1.5168809,93.870476
1.5221637,97.312485
1.484948,95.163414
1.4512956,94.15763
1.4919366,92.078285
1.4385947,91.07442
1.4028273,89.75538
1.4612453,90.97999
1.4197778,86.49415
1.3562378,88.54493
1.303855,84.225815
1.3874992,85.33634
1.2194045,86.92547
1.2328315,84.40439
1.187616,79.281815
1.1122808,80.94006
1.1328244,77.320465
1.0699949,82.43085
1.0426072,78.17376
1.0675901,74.10534
0.93351585,77.71746
0.94856364,78.76267
0.9202622,69.73346
0.9797575,74.85249
0.9850187,71.183685
0.9398008,68.4999
0.9953175,70.38605
0.9067497,72.25515
0.93257445,69.09904
0.90428096,67.20552
0.9561106,64.72163
0.9179346,67.57951
0.8258877,67.17354
0.8456695,66.78879
0.8925716,64.994675
0.8708664,64.14914
0.84356797,62.425865
0.84779257,64.00815
0.803017,57.951775
0.7309569,64.50571
0.7791656,64.19361
0.63182026,62.519623
0.60105544,65.92317
0.590787,65.9525
0.5506586,68.8049
0.5642976,59.585403
0.4836293,66.96664
0.5105936,65.210106
0.5860157,68.06499
0.6000905,68.54464
0.5743973,71.28611
0.6758194,72.35029
0.727077,74.33051
0.8221523,73.341934
0.8365473,74.13825
0.94656545,78.78766
1.0217727,81.378624
1.0400207,80.53535
1.2085315,83.24317
1.2591279,82.40925
1.2860069,87.07004
1.485708,87.154915
1.5368983,92.05388
1.5173494,91.8382
1.6174595,93.1253
1.7974483,96.26206
1.7429847,96.92613
1.8242986,99.880516
1.8207227,99.615135
1.8508329,102.71794
1.9084713,102.42898
2.0144181,100.279785
1.9572726,101.44797
1.9179966,106.17038
2.0381787,106.202934
1.8871744,106.1888
2.0220509,106.48476
1.9295565,109.31055
1.8765663,108.53266
1.8851377,106.59979
1.9367436,110.23718
1.8240277,108.51182
1.7985467,107.90901
1.8592772,110.129456
1.756937,112.46427
1.8573306,110.31822
1.6722465,105.96647
1.781641,105.85332
1.7400131,103.840324
1.6660284,107.22407
1.6390315,103.7118
1.524278,103.55773
1.5206857,104.52433
1.4847587,100.47404
1.5189457,103.417404
1.4734232,100.99922
1.4365093,100.34536
1.4936696,99.16453
1.4151189,97.186806
1.4163775,97.06493
1.3819963,95.33924
1.4406103,91.99547
1.3887433,94.37807
1.4247968,90.49489
1.3917753,94.4778
1.3509272,90.658936
1.3411317,87.39452
1.3002979,88.1938
1.2393465,87.21555
1.2694011,86.65014
1.2708615,84.60395
1.1332165,85.60823
1.1036597,83.282326
1.1208303,81.53716
1.095723,80.17525
0.95928174,79.649826
1.0527,75.456184
0.8713429,79.0714
0.9039661,74.76814
0.8691869,77.182495
0.7724744,73.74517
0.8482826,71.90256
0.8531994,69.841965
0.7991858,73.34123
0.77817845,71.35478
0.78498334,75.44756
0.73117036,69.33799
0.77880764,67.95074
0.7940951,65.674515
0.6048884,63.941624
0.75113183,65.91205
0.77719176,68.74724
0.7004531,64.25798
0.6857757,65.21665
0.65555817,63.819588
0.6210552,63.854607
0.580046,65.68741
0.5469779,65.59581
0.450338,60.900383
0.5097983,62.082687
0.5196869,61.09084
0.39439973,61.84023
0.33457413,64.563446
0.32306954,65.38023
0.36907366,63.445904
0.40516376,64.15478
0.30907395,68.01096
0.37032682,70.523224
0.3424408,71.95511
0.3944318,67.81875
0.4887299,69.7573
0.45865571,73.6186
0.55933017,74.455864
0.60857433,76.53721
0.6860737,79.0154
0.8154904,76.3438
0.89040774,79.93353
0.8900905,83.70294
1.1020424,85.98238
1.0495079,86.3314
1.2062622,89.22164
1.2815018,89.71266
1.2248518,92.08811
1.403039,93.369415
1.3765516,94.131386
1.4053183,98.44793
1.493288,101.6561
1.6325524,97.461525
1.529322,101.03156
1.5836482,102.303535
1.5760807,106.26826
1.6311386,103.34083
1.6339498,103.47333
1.5949224,108.25665
1.700708,106.74107
1.5149909,103.926994
1.5803224,106.88015
1.6329293,107.7046
1.6317698,108.75012
1.6110123,109.33381
1.5400149,107.95942
1.5346847,109.76944
1.4853368,110.30183
1.4984175,106.95017
1.4265492,107.70972
1.4234364,106.74527
1.3804681,108.96815
1.3695284,107.574425
1.3164475,102.55838
1.2955457,103.53732
1.2073215,104.34655
1.2540258,101.17575
1.1551353,102.32342
1.1957353,100.726654
1.20247,100.41527
1.0156584,100.242874
1.1600711,97.728584
1.1316326,96.92323
1.0777762,94.43723
1.0348287,96.35736
1.0691289,92.94515
0.95437396,92.72176
1.0380158,92.76659
0.99288213,90.51549
0.99907196,88.279
0.99043375,88.297676
1.0162023,85.22668
0.8755019,84.79083
0.93723595,85.23492
0.8738483,86.29337
0.8192834,83.411255
0.7833572,81.039444
0.7091416,77.97704
0.6625072,80.41775
0.63791513,78.259964
0.6137435,77.22294
0.60892165,78.83592
0.57637477,74.971664
0.47244897,75.48039
0.53830725,73.42388
0.4935991,75.29649
0.47855642,75.1779
0.50605077,69.27539
0.45190173,68.31226
0.4329568,67.96153
0.40725186,67.41098
0.39738217,69.18384
0.42608416,65.565315
0.31744254,66.55492
0.39883777,66.4231
0.41965777,65.76314
0.38014296,65.1809
0.38432595,64.683235
0.29805884,65.40209
0.27800375,61.280506
0.19421089,60.27706
0.16994968,62.448635
0.16523436,65.042564
0.15411946,62.226826
0.08275736,62.969982
0.08325924,62.386307
0.018998459,65.17008
-0.061313957,64.28542
-0.044945076,64.0647
-0.037357215,64.57616
-0.015419452,69.48063
0.13000952,70.4952
-0.018512355,68.4617
0.13109493,71.16557
0.1305632,76.29647
0.19488057,72.12037
0.3830781,73.70225
0.35576472,80.10977
0.43292135,75.3669
0.4869549,82.09047
0.62907135,79.83274
0.6785638,81.15766
0.845768,84.4647
0.80078745,85.98
0.8466262,87.44941
1.0169145,91.15739
0.98904246,89.57522
1.0872264,92.83353
1.1725332,96.63398
1.3005787,92.244545
1.2885052,98.280106
1.2426958,100.4221
1.3126564,103.06838
1.3347771,103.7352
1.3603226,104.29305
1.3909806,107.579475
1.386297,103.85476
1.3809464,105.45637
1.387245,106.94556
1.4301353,105.39789
1.3139096,109.03647
1.2945476,107.30678
1.353898,109.32782
1.2854725,109.82958
1.3876841,110.31704
1.2827414,109.62532
1.2546867,107.696915
1.2263908,108.18101
1.2843844,106.88914
1.2366785,105.14585
1.141088,107.673485
1.1543926,103.366196
1.077287,104.78585
1.0702091,99.41458
1.0168682,103.94584
1.1070504,101.70581
0.96782726,95.77146
0.9714547,100.91334
0.97001743,98.288124
0.92117196,97.202484
0.9451088,99.73439
0.9109345,97.21613
0.8640296,96.31725
0.93594414,92.91438
0.90260726,92.381004
0.9756708,92.296104
0.9414409,93.03673
0.86120564,88.16362
0.8147648,84.921364
0.8272835,88.109024
0.70971304,85.537636
0.78064805,86.37323
0.7089836,85.0421
0.7594433,82.23922
0.6750248,80.60335
0.68289155,82.84395
0.593827,84.73546
0.54143375,79.239426
0.46351272,78.223465
0.50034523,76.87656
0.43987256,75.6428
0.3918629,76.61951
0.42062238,76.00777
0.41621262,71.5294
0.36353198,75.47381
0.45332253,74.11114
0.42002743,71.57184
0.4111498,66.37345
0.3396934,68.8107
0.20500815,65.72553
0.31116158,69.87937
0.3430757,68.7687
0.4002326,65.608345
0.29607916,63.857506
0.26972196,63.52957
0.2962233,64.31734
0.26528633,64.89149
0.27970678,65.94127
0.17441377,62.05264
0.23169887,65.89876
0.13767187,62.037144
0.1483366,65.647835
0.081740685,63.595734
0.030846208,63.195976
0.038342245,63.56107
-0.020421665,61.339375
-0.022829438,63.304695
-0.038463302,62.682377
-0.0467406,68.883446
0.061743982,69.387314
0.11526411,66.40498
0.087542325,70.48552
0.12097134,71.36294
0.14513297,72.91275
0.30182153,75.34925
0.36021718,77.077866
0.395896,75.22745
0.54798675,77.060394
0.53125924,79.49454
0.72972214,82.380486
0.7907268,85.630745
0.76046675,87.74827
0.9770695,88.10066
1.0281212,90.14826
1.0875411,92.079956
1.1731359,91.60247
1.2318078,93.49927
1.2732652,93.86177
1.3714751,95.19658
1.3182213,98.793076
1.4375913,100.787094
1.410925,101.84868
1.4876164,101.29789
1.527271,104.8706
1.4457026,103.05167
1.5014957,108.570526
1.5036311,106.13066
1.4546126,109.77502
1.4611877,106.3979
1.571962,108.257416
1.5756752,107.5584
1.530724,106.40754
1.4313717,107.266785
1.4772749,110.41974
1.4596447,109.98646
1.3813277,106.72754
1.417225,105.920044
1.3268911,106.33001
1.347636,107.886894
1.3669435,102.97697
1.3424261,100.073456
1.1906636,100.989365
1.2669172,103.2584
1.2163277,105.0753
1.19533,101.28266
1.2727461,99.333664
1.2391086,101.94232
1.1305202,95.45143
1.0699458,97.66519
1.1733736,95.2679
1.0718709,94.834656
1.1297123,93.54283
1.0829437,89.244865
1.1006068,92.3304
1.0972797,85.40589
1.1041988,90.07695
1.1046567,87.767136
1.0712972,89.86785
1.1265888,88.75153
0.9811378,85.703705
1.0176859,88.344604
1.0276793,85.71725
0.99714744,85.6459
0.96875226,84.60627
0.87924325,82.12799
0.8635109,81.12497
0.8224653,77.794495
0.85162276,81.71283
0.71698684,76.24796
0.79409236,77.4649
0.6527967,75.73144
0.7290956,75.437325
0.6080639,73.37574
0.6666873,75.491714
0.6853516,72.35575
0.68423504,68.04277
0.6214046,69.63153
0.64334637,66.93908
0.7151308,69.016785
0.65024287,65.72194
0.6634228,66.306465
0.64128155,65.64129
0.62677616,65.5381
0.6444725,64.032646
0.6405162,64.99925
0.6128669,65.31586
0.58520037,62.120193
0.5007095,63.078827
0.45413125,60.515377
0.39877328,60.890354
0.3984534,64.213295
0.4364418,63.01419
0.39866254,61.948647
0.34833637,64.072014
0.39078045,64.92566
0.30812684,62.94769
0.38547865,68.32133
0.29414874,66.35489
0.37692618,69.84278
0.37344185,68.51671
0.40534,72.80686
0.50780195,74.077614
0.5834057,74.06203
0.6218429,76.78752
0.7189981,78.69946
0.7802738,77.09012
0.95128644,79.148834
1.0308408,81.79324
1.0838249,85.28625
1.125244,85.27365
1.2328547,87.9272
1.3375756,91.094215
1.400182,89.36513
1.4665464,92.239265
1.5173994,97.50119
1.5555239,94.97292
1.5847961,95.34341
1.7161249,96.58763
1.6980507,100.37335
1.8008958,100.078995
1.7840647,104.371544
1.8052421,104.667656
1.7719274,104.38835
1.8200365,108.44949
1.8465531,106.72489
1.8580102,106.37898
1.776722,106.60205
1.818735,111.475746
1.8956674,109.160385
1.8113339,105.86124
1.8976882,103.89111
1.888157,107.463486
1.8400114,111.67622
1.7878003,105.26257
1.7371848,104.1458
1.6405919,109.74427
1.7390782,109.95706
1.7062579,108.202415
1.6340352,103.44727
1.6283914,101.96473
1.5308361,108.01351
1.6139807,103.77548
1.600111,102.33574
1.4953898,98.349174
1.5728207,98.39126
1.4803494,99.160934
1.4600034,98.41302
1.4970679,95.34759
1.438375,96.1371
1.4144933,99.39063
1.404405,94.61204
1.4488828,95.014915
1.3869722,91.244576
1.4729512,94.84006
1.4573234,92.41766
1.456877,90.39672
1.3230865,92.00081
1.3806217,89.38855
1.3521022,86.90629
1.2031025,86.9216
1.2802881,83.75549
1.3014687,86.92079
1.233334,81.80724
1.1561868,78.00067
1.1293969,82.786606
1.088994,80.15066
1.1220149,75.81815
0.9757623,78.312195
1.0017468,80.2287
0.9727942,74.211716
0.85544276,79.20744
0.9376064,74.50893
0.9383548,73.72821
0.9621684,73.02248
0.9173827,73.87008
0.8988718,71.27383
0.9685523,68.56383
0.89277446,68.54474
0.92340356,64.68645
0.8983943,65.36871
0.84571356,65.230515
0.88155776,66.36156
0.85414004,63.374012
0.8453604,62.939312
0.8314942,60.975685
0.75900143,64.83512
0.87433326,63.179527
0.7621117,62.468
0.69248277,62.62162
0.6973855,61.39503
0.5601975,63.356735
0.6115868,64.73338
0.60042155,61.457733
0.5624159,63.798027
0.5588429,64.316345
0.4855405,68.50766
0.50953364,66.07199
0.57229835,66.92046
0.6044087,66.12529
0.63552904,72.497444
0.7031259,70.678665
0.68508023,72.30453
0.85892606,74.55736
0.85880953,73.09568
0.94497365,77.63962
1.0736979,82.38526
1.2149734,81.37463
1.2578964,84.3259
1.366178,87.117935
1.4528137,86.83926
1.5476297,88.44816
1.597593,90.57801
1.6546463,89.146576
1.6968306,92.273964
1.7232114,93.23215
1.814958,94.68784
1.7937616,98.36174
1.8961471,101.62047
1.9296904,102.07831
1.9215245,101.91665
1.867867,102.39095
1.8977692,106.50827
1.8886521,104.37618
1.9630066,108.51236
2.0351038,103.5864
2.0037067,104.27318
1.9282473,107.0628
1.979386,110.9931
1.9333198,112.723404
1.8946106,108.04292
1.8409051,108.56461
1.7633047,108.81821
1.8634338,109.9204
1.7430288,110.21629
1.7705611,111.42054
1.7987783,110.06049
1.7582272,103.49726
1.7315443,103.85648
1.6190037,103.83525
1.5985343,103.2686
1.5771303,102.60703
1.5597839,100.59994
1.5870827,101.71235
1.5153688,100.10443
1.5392494,103.3145
1.478293,100.616356
1.5045651,96.72492
1.4592972,97.48449
1.4792552,95.43454
1.3572998,95.28302
1.3824562,95.50535
1.4231173,90.0253
1.3509605,90.131004
1.3836004,90.260735
1.3223206,89.452354
1.2963383,87.44305
1.321595,84.88788
1.2336748,86.937035
1.2911892,86.49286
1.1359257,84.464355
1.1633807,80.87505
1.0947322,86.30866
1.0870734,79.528305
1.078895,78.96561
1.0231369,78.12691
0.964218,79.51899
0.8818373,76.77002
0.89419305,73.90392
0.889122,72.80866
0.84893894,73.925316
0.81764483,76.60944
0.8480426,71.23522
0.74551857,68.951866
0.7448861,68.53987
0.8594049,68.54351
0.81087,68.09011
0.7673348,67.105255
0.76869977,68.25826
0.73724574,63.451336
0.76075804,63.900677
0.74889153,64.49783
0.70334285,63.411133
0.6793472,65.08559
0.6152846,66.87384
0.66234684,65.55157
0.6187804,60.81937
0.5436959,63.278458
0.54634815,63.444572
0.45885915,63.49146
0.4817856,64.42804
0.3908498,60.44383
0.3314319,65.020546
0.3598372,64.96958
0.3475914,67.062325
0.3652272,65.81359
0.39207342,65.03029
0.26652583,66.66039
0.42124286,70.27286
0.46256238,68.372055
0.5228923,70.09884
0.58363765,73.26723
0.55508894,74.4641
0.7226403,76.542404
0.7745256,79.034515
0.8290245,80.46017
0.9966896,82.486275
1.0165027,84.14181
1.1350517,83.95542
1.1447691,88.38673
1.275618,85.87391
1.3009973,91.32227
1.4281175,91.04581
1.4265152,97.77975
1.5219227,96.47059
1.5406449,98.3509
1.570018,96.74828
1.5799555,98.349266
1.5693579,101.319824
1.6641327,103.90718
1.6334417,103.95097
1.692309,106.370804
1.735951,104.80867
1.7304913,106.457985
1.6435,105.54532
1.6098098,108.801636
1.6423116,110.50882
1.6227947,107.573746
1.6192423,111.53017
1.5438516,109.04702
1.6599164,108.98412
1.5627551,107.67189
1.4051356,108.07865
1.4731936,108.48055
1.496963,106.61079
1.3567874,106.395874
1.3625047,107.2447
1.3652967,104.72136
1.2965055,103.47713
1.4038969,100.59165
1.1957911,102.10511
1.2655395,101.39927
1.1868739,101.082
1.1532396,100.07211
1.1300216,99.37874
1.1391416,97.02906
1.1640896,97.28111
1.0667775,96.84172
1.153681,94.125244
1.1864228,94.38071
1.1239545,90.10078
1.039679,92.442085
1.1201816,92.38768
1.0149412,92.20515
1.068338,89.92122
0.940922,86.63587
0.9359574,87.368225
0.94176203,85.646194
0.9253612,87.67065
0.77843434,81.8976
0.8015276,82.62479
0.79280436,77.37509
0.7533185,78.42439
0.63257086,78.985054
0.58799213,77.89592
0.68784684,76.989716
0.5409071,76.703735
0.5286591,76.0484
0.47785628,73.01505
0.54872495,72.7685
0.52183324,70.613
0.48840553,68.97689
0.39568093,72.352135
0.48333332,71.24114
0.48942924,67.24579
0.43088964,70.13564
0.4358004,67.2135
0.46252713,65.51039
0.45066798,64.550415
0.36109763,66.750046
0.43088728,65.4509
0.39821592,64.19097
0.3384207,64.9408
0.32204396,63.435696
0.31212094,61.310246
0.17927706,62.91522
0.26085377,63.98576
0.17055146,64.58617
0.0686787,61.865868
0.1452483,62.57523
0.07353034,64.22646
0.023743859,61.38986
0.036524482,67.59147
0.06960135,64.28343
0.03619441,68.16356
0.09694585,70.09048
0.046185434,68.364494
0.15602978,68.74425
0.17243664,70.49242
0.16708618,74.974464
0.28799304,73.115906
0.32344413,76.18125
0.41813484,78.17116
0.44865286,80.45615
0.54435545,79.29832
0.65866596,83.401474
0.7187589,85.40933
0.80246735,84.48085
0.9447246,90.0901
0.9949429,90.49861
1.0987653,90.35735
1.06518,92.62062
1.1396495,93.0972
1.2461526,96.01385
1.2660159,98.094345
1.3244956,102.45763
1.3558221,99.62424
1.2716981,101.05092
1.3354805,104.59973
1.3777609,101.6594
1.3769438,105.84334
1.4396461,108.48665
1.3895608,107.89504
1.3659627,104.08341
1.3510138,103.73663
1.3310417,107.96268
1.3179921,108.19373
1.3805994,109.62602
1.3939329,111.20012
1.2428651,103.973305
1.2821872,108.87535
1.2136389,109.81939
1.2799898,106.422134
1.2601155,109.093155
1.2051816,105.76598
1.1486142,107.112236
1.1381824,105.67711
1.0949602,104.030975
1.0331918,104.21801
1.0447452,103.62134
0.9740173,101.30256
0.9841815,102.20883
0.9711202,99.66543
0.9391705,96.54943
0.9723072,98.04059
0.81851506,97.7704
0.88894606,95.448586
0.9205048,93.872955
0.8690616,93.77185
0.98072183,95.41068
0.8641499,93.40031
0.87982684,89.75571
0.8543943,86.56888
0.7764003,89.40863
0.8290378,86.809784
0.83312285,85.16001
0.79578936,89.19591
0.6939994,86.006134
0.66808444,83.08422
0.6211287,83.014435
0.58293635,83.0853
0.6295922,78.96606
0.59281665,82.89788
0.46631917,78.5841
0.43210557,77.988045
0.44475767,76.670975
0.41208676,75.36916
0.41390616,73.06702
0.2790706,74.41945
0.32726872,74.78214
0.35262343,74.155304
0.30423206,71.2952
0.3768653,69.01166
0.42559627,63.93114
0.30816862,66.84789
0.32971212,68.414734
0.32038057,66.90453
0.30198988,63.51838
0.28060806,65.94064
0.2952579,64.706665
0.2635556,63.571896
0.24207732,62.93957
0.25357166,62.330814
0.15681909,64.11356
0.23842272,65.395515
0.12436656,62.076942
0.07847786,65.1555
0.063578576,62.818996
-0.009377489,63.56897
0.013543018,63.27536
-0.039995786,61.82752
0.009669933,62.58583
0.036102664,64.93061
-0.055910576,67.59593
0.09097399,66.78366
0.027322557,69.61367
0.1539685,71.21642
0.09443163,74.85932
0.18478972,73.55515
0.29604918,76.3957
0.36606982,77.992256
0.47365203,80.713234
0.4847455,79.27606
0.6807145,79.91775
0.7488015,81.67831
0.7987233,87.19032
0.85191536,87.10241
0.982338,89.46149
1.0129304,89.75357
1.1152412,91.941895
1.1088357,96.06481
1.1567595,94.962135
1.322694,95.57171
1.3265507,92.41156
1.4507313,99.437416
1.4266576,101.07557
1.4649928,105.575485
1.4297447,105.037415
1.4819804,104.690475
1.4445349,105.44863
1.4719571,102.826416
1.4327139,105.19426
1.5475695,109.19277
1.4899261,107.02284
1.481769,110.560005
1.4970828,108.0108
1.4386245,107.98697
1.4984273,111.30431
1.4118494,107.147194
1.4173311,107.958015
1.3623517,106.9002
1.4298773,106.663216
1.4409045,108.33451
1.330243,107.648964
1.3831109,104.357666
1.273408,107.39887
1.2424483,102.26866
1.2490596,103.78166
1.1879485,101.69956
1.1616923,99.95426
1.1983411,103.279816
1.1247113,103.033035
1.1802682,100.62725
1.1076982,98.556885
1.1585591,93.4777
1.155494,93.09527
1.0440456,91.08685
1.124197,93.74001
1.1071154,96.61573
1.1334145,88.56686
1.0680356,88.44995
1.0449593,86.5708
1.091356,85.200516
0.99420285,89.72843
0.9161032,86.74138
0.92133033,86.097626
0.9118319,82.579735
0.9114771,82.08993
0.9094359,83.63352
0.91371745,84.46023
0.7550777,78.863266
0.7915929,83.11481
0.7594662,77.11752
0.7540245,76.75864
0.6867313,74.66889
0.627397,77.701355
0.7022934,73.11843
0.5939279,75.85979
0.6765123,71.68765
0.6554391,75.70404
0.61203307,73.05746
0.6070311,67.122505
0.60922164,68.254295
0.60780144,67.47967
0.6814211,70.66284
0.6310385,61.603115
0.6566534,66.35104
0.6582808,62.119648
0.56085026,61.590015
0.5993385,65.09889
0.5335661,63.342262
0.49815536,58.392708
0.4008846,61.5464
0.43917635,63.23099
0.43170363,63.823288
0.4513991,63.659748
0.4060312,63.16728
0.4161343,62.123978
0.34998888,63.379185
0.30821344,66.21014
0.28481215,63.819202
0.40624255,67.33566
0.35940313,70.27677
0.35886228,69.08242
0.40454873,68.5806
0.4304664,68.95933
0.5097972,73.75355
0.5576787,72.60581
0.6951092,76.335304
0.7759661,76.72909
0.85126096,77.31314
0.87399393,82.33041
1.0287002,83.82427
1.0753467,80.78093
1.1255654,86.77264
1.2651343,85.47144
1.4005884,90.201836
1.4691519,92.2256
1.4971125,96.37959
1.6205752,95.54496
1.6182284,97.50477
1.5887058,98.64787
1.7286631,100.4178
1.6839533,100.51742
1.7435932,103.45506
1.7733864,108.08924
1.9055701,106.49337
1.7791787,104.63669
1.8597142,105.57886
1.7897446,108.407036
1.8206424,108.46615
1.8348193,110.23175
1.8576525,111.5584
1.961525,109.135025
1.8241183,108.4819
1.8183725,107.04987
1.7210839,109.85203
1.839486,112.58517
1.7853272,108.39346
1.806898,109.86173
1.6433511,106.07858
1.6240621,105.54405
1.591118,104.27421
1.5852813,102.69385
1.6018904,104.67774
1.5793427,103.03147
1.6319356,99.24318
1.5729123,97.52543
1.6075287,104.32163
1.4953331,101.454956
1.4990622,96.75604
1.4505639,95.78016
1.4537218,97.938126
1.4090352,98.046616
1.3564277,90.40764
1.4278659,94.342865
1.4297997,95.97225
1.3945823,90.48434
1.4712832,89.556244
1.4477304,90.40151
1.3851057,88.3913
1.4310117,90.23356
1.4213388,86.06344
1.289395,84.07003
1.3006603,88.24978
1.2210133,83.907524
1.2514127,84.41572
1.1534739,85.81934
1.1689589,83.11743
1.0687376,82.59989
1.057128,77.239845
1.0024264,80.35947
0.98457384,81.03907
0.9999378,78.672
0.94022846,71.34769
0.90170366,73.9466
0.98913294,71.18753
0.9043925,74.240654
0.85233843,71.83435
0.9193012,69.218864
0.90821487,72.81211
0.9375305,69.573845
0.9998254,65.60567
0.94789034,66.57134
0.9373987,67.0484
0.88155943,68.15671
0.9517087,67.934204
0.8390139,61.066513
0.8612079,60.82338
0.8251721,59.766724
0.7749536,61.035915
0.8019354,61.728703
0.70364755,62.567394
0.5799881,62.436028
0.5970507,62.687843
0.67169386,59.876236
0.6064997,66.97202
0.6093865,61.81679
0.5361876,67.255585
0.6458939,68.76919
0.56812817,65.84616
0.5988191,68.41954
0.6066149,68.21238
0.6595758,70.20277
0.7084871,69.70565
0.7599288,69.33111
0.80540204,71.97364
0.8568522,69.02437
0.94912934,78.38179
1.0338178,83.732765
1.1057092,81.706
1.2304541,84.12119
1.3130147,86.27698
1.3362203,87.11149
1.4997638,90.07464
1.5227779,89.13253
1.6824845,92.247246
1.6358471,93.298004
1.7310581,97.3301
1.7606949,99.03125
1.8715631,97.26012
1.8875338,98.968185
1.8098801,101.170586
1.9029136,103.703835
1.9367337,103.95572
1.903003,101.857155
1.8845116,104.2949
1.9937186,103.804054
1.9309688,107.21915
2.0003204,105.86414
1.9052968,107.43656
1.9054024,112.43459
1.8992829,109.637474
1.9039143,110.43569
1.9227961,105.9953
1.9122196,106.98701
1.9019351,104.82684
1.886539,105.00011
1.8463001,105.05183
1.863059,106.59083
1.7479808,108.676956
1.6998583,106.39892
1.6476421,104.46357
1.5735283,104.61174
1.5695435,101.61866
1.5536116,99.965065
1.4955891,100.621376
1.5669427,103.10208
1.5278065,104.82481
1.4950762,98.45825
1.4658893,98.350235
1.4920346,100.22825
1.4891388,95.31094
1.5040967,98.05432
1.4687483,91.742
1.4811927,90.4413
1.4944137,91.40822
1.4268706,92.40944
1.4162204,85.49742
1.365527,87.79295
1.301962,88.14321
1.3022687,86.39392
1.2872176,87.271
1.2755734,83.028625
1.1840154,82.10216
1.2565556,81.94142
1.1829875,82.58886
1.0472308,80.11796
1.0481956,81.61188
0.95178676,80.20184
0.92285496,75.897835
0.890768,76.66652
0.9789318,75.870056
0.8880256,75.33542
0.868401,73.602196
0.8528678,72.39095
0.8633427,71.09019
0.85588294,73.71305
0.7878569,66.19196
0.8524378,69.09765
0.75412476,68.21699
0.8768997,66.918274
0.8010651,66.90967
0.7890017,63.507717
0.8096807,65.04147
0.8173001,62.912624
0.7437038,63.16323
0.73064184,62.781624
0.6656521,63.53643
0.58283395,63.822025
0.6284915,65.77544
0.54091805,61.763058
0.49391252,65.780266
0.4540091,64.67258
0.40658432,62.747124
0.46231896,65.30561
0.3412688,62.760365
0.35394594,62.12885
0.37285775,64.98069
0.3936464,70.590065
0.33837774,71.38725
0.39961663,69.34059
0.47337818,68.59344
0.43318325,71.992424
0.4971902,71.601166
0.58803105,74.355225
0.6645922,75.41896
0.8198066,79.58813
0.8476967,82.19522
0.94263893,83.77983
1.0093504,81.895874
1.0902345,85.65275
1.1861967,88.19896
1.1992006,89.47927
1.3672606,89.095604
1.4248321,91.88055
1.4363995,94.38179
1.504832,93.76877
1.5718491,97.89711
1.582012,98.72911
1.5394089,104.52852
1.5701672,101.051674
1.631316,101.78354
1.6985668,103.63784
1.718267,103.44257
1.6410068,108.606995
1.6647116,102.817116
1.6352187,108.89988
1.7211868,107.7189
1.6656648,109.53353
1.6514881,108.22964
1.6379765,116.0601
1.6500256,111.29271
1.5338415,107.30284
1.5206623,109.10793
1.5801846,108.42229
1.4829042,108.07005
1.5256898,106.26767
1.5051523,107.47121
1.3950216,108.265175
1.4741501,101.961464
1.4526002,103.973236
1.3149574,105.22427
1.2828748,104.163345
1.239247,103.69587
1.1952064,103.04112
1.1903197,100.42394
1.1502656,97.45378
1.2523866,101.9601
1.1610842,97.17209
1.1688653,97.02289
1.1617128,95.316315
1.104631,92.02866
1.1085715,97.201416
1.1815965,90.184875
1.0129088,92.23317
1.1040226,90.00251
1.1035515,86.893394
0.9999606,89.95169
0.9182852,88.08409
1.0226185,86.933624
0.9366419,82.93568
0.9141116,85.115845
0.81129706,84.66649
0.8344117,83.5221
0.7401338,81.38813
0.6686602,79.177185
0.65828824,81.24524
0.67699236,80.16229
0.56203395,75.094666
0.61056244,75.93659
0.49597344,73.73024
0.46636972,76.08811
0.501247,72.952446
0.48937768,72.2645
0.45356196,71.43392
0.4635869,70.10702
0.5144984,67.03923
0.46224117,67.41779
0.4483464,67.231926
0.43575552,65.18353
0.48446313,67.78151
0.31815654,67.9567
0.40285936,64.36066
0.35313815,63.476734
0.33091336,62.946667
0.31700528,62.01127
0.3484612,64.15563
0.28659078,62.542297
0.22402836,59.374035
0.1632501,61.958733
0.1654688,65.47816
0.11395297,62.61219
0.017780634,65.192375
0.05795162,65.803246
0.09444046,65.32418
0.03575478,68.17863
0.006256843,67.71959
0.027579078,65.28725
0.030411417,68.326706
0.025793973,72.52088
0.12629482,70.84848
0.10968672,73.2154
0.24947359,70.19645
0.28662625,71.047325
0.41226566,77.14918
0.4944036,76.02265
0.54918915,78.387665
0.6210382,80.832115
0.7803072,84.08281
0.76052725,88.654526
0.9258077,88.47435
0.98865557,90.09431
1.09208,93.10218
1.1177326,95.10186
1.0954854,94.15431
1.1730843,97.6285
1.2136841,97.40048
1.3185867,94.20432
1.3310453,100.81665
1.3199543,102.37145
1.2969097,103.03287
1.3282052,105.42695
1.4423959,103.96523
1.3981276,105.160095
1.3872668,106.024155
1.4064158,106.55242
1.3837041,110.267815
1.3030614,108.58652
1.3604307,105.723015
1.3905855,107.78516
1.1891071,106.510086
1.283837,112.068085
1.2404747,111.00658
1.260297,106.90251
1.2245959,105.7956
1.2336857,107.84738
1.2096083,105.71566
1.1845596,106.90614
1.1722854,102.91661
1.0827655,103.40453
1.0673014,104.18826
1.0159137,103.28937
0.99212056,100.34748
1.0528408,103.36001
0.9671351,101.67412
0.9843591,97.33208
0.94508356,96.308525
0.9296922,97.7705
0.9483177,94.34414
0.9278485,94.68512
0.83972496,91.511635
0.9726015,95.281
0.87005043,92.83266
0.88720924,90.528496
0.8478299,88.747894
0.8298143,86.56962
0.75363684,87.00626
0.7760893,88.387596
0.77251387,87.19834
0.69656736,83.08522
0.62395555,84.40735
0.6668009,82.52469
0.62464637,83.4461
0.6277094,80.663216
0.5921678,79.69334
0.53245825,80.25039
0.39360934,78.86834
0.40453988,76.348625
0.4325374,78.29744
0.42375913,77.81513
0.3687033,72.71626
0.38315678,71.71515
0.343811,73.46983
0.32359654,69.507034
0.36069047,69.98385
0.30637446,72.211334
0.31675988,65.95545
0.3315492,70.53479
0.30255592,66.25056
0.305489,67.15824
0.26095104,66.60315
0.27941334,65.640465
0.34048554,63.94845
0.28554532,62.67504
0.2897195,64.77271
0.2293849,64.7519
0.2615909,62.677624
0.19426474,62.802814
0.16780198,59.844566
0.1069732,65.549164
0.017355978,62.374027
0.050127905,63.39414
-0.018907335,63.349796
0.050505135,66.03004
0.07411283,67.07416
0.026084559,64.99014
0.033489656,65.73929
-0.0035177162,66.60483
0.032036405,71.95345
0.19362874,71.76266
0.11715536,72.07799
0.25825483,73.23082
0.30157283,78.88328
0.42889568,79.7836
0.54348487,79.64133
0.60051894,79.58045
0.6555618,81.55434
0.78615856,82.190445
0.8412999,86.033104
0.8774949,88.361206
1.0351301,92.70317
1.0972465,91.96355
1.1555153,90.82122
1.1800655,94.667076
1.3469913,94.536606
1.2719607,100.37741
1.4290961,102.04743
1.3647029,100.25798
1.3967857,102.464775
1.4166471,106.45014
1.3692032,103.285934
1.5000674,105.91862
1.4381217,104.521
1.4308549,105.63119
1.4825692,104.21527
1.486872,109.55158
1.4403281,109.55889
1.4917684,108.81622
1.468011,106.64185
1.4111264,106.3714
1.4516255,109.7447
1.3783723,105.79246
1.3620228,109.346405
1.3190657,105.59389
1.3395191,105.89703
1.3086976,105.35789
1.246981,104.031876
1.2144055,104.38116
1.2323072,101.353165
1.218576,104.1059
1.1593095,102.89589
1.1753416,102.05821
1.08669,98.019844
1.1674538,97.94409
1.1998457,96.710526
1.054137,97.556854
1.147995,96.06641
1.0811971,95.8823
1.1328421,92.37471
1.0443419,92.88085
1.0756378,94.80949
1.0408095,90.21893
1.0887723,91.45967
1.0502875,86.08549
1.0729724,88.02827
1.015931,87.13014
1.0603951,86.630806
1.0096247,87.124954
0.88622165,84.004196
0.90240836,83.621185
0.87532616,85.20088
0.8433968,80.99071
0.82954377,81.855545
0.7294045,78.773026
0.71780115,79.81396
0.672035,79.78596
0.61032987,77.37999
0.6457444,74.80227
0.59223497,73.644005
0.6445456,71.659676
0.65678245,73.187904
0.6163244,73.79418
0.62669045,68.657166
0.59008,69.34238
0.5642767,67.107994
0.5831752,69.080475
0.62630457,65.86379
0.5293166,66.82094
0.58096147,61.950737
0.57443374,61.958714
0.539169,65.2149
0.59379977,63.217957
0.55586356,64.6166
0.48088744,62.250202
0.47601515,63.940422
0.4284147,62.69455
0.38315856,61.36976
0.4575682,61.67549
0.4107037,64.680786
0.32860014,62.056976
0.27353576,59.24348
0.25294623,63.861835
0.25713652,62.345303
0.28354356,66.15225
0.32663295,69.44275
0.3061168,66.955345
0.33992592,69.57168
0.50553894,74.317085
0.3947739,71.4378
0.5069717,69.99443
0.55498725,74.99303
0.6596259,74.21662
0.7193542,76.93664
0.8303075,80.40341
0.9884262,77.4929
1.0241926,82.49299
1.1338102,83.64094
1.1645712,87.026794
1.3585907,89.243195
1.303055,90.12247
1.4332976,92.665016
1.4665883,96.873886
1.5446284,96.001976
1.6620216,97.38935
1.6742812,97.27063
1.6141906,99.68082
1.767292,104.402794
1.7346168,104.61551
1.8758079,103.66844
1.8285846,103.50641
1.8264569,105.808716
1.7724276,107.846565
1.8256294,109.4829
1.7721891,106.37821
1.9015996,107.45841
1.834325,109.51699
1.7597674,109.75961
1.754645,106.526924
1.8270246,112.64934
1.79957,109.36711
1.7712642,111.1432
1.7411432,104.92494
1.7082508,107.263214
1.6583977,105.16764
1.6727796,101.86364
1.5984197,106.55851
1.6216899,104.07435
1.6637908,102.79887
1.5872612,105.24196
1.5047369,105.54577
1.5101696,103.176506
1.5480367,99.55597
1.4627557,100.09274
1.5253019,99.96941
1.5069388,96.54818
1.4363749,95.63657
1.4201063,95.07076
1.4227422,100.4294
1.4116242,90.29953
1.3958302,90.222725
1.3979858,91.617455
1.4101158,88.6197
1.3132758,89.28737
1.3315551,89.05805
1.3313143,85.14274
1.3135762,87.432495
1.2618923,84.426544
1.2918804,85.72114
1.1753567,84.23759
1.1896782,80.924255
1.0753353,82.86244
1.1137581,78.67354
1.0623764,73.592804
0.9937427,76.58984
1.0627657,75.645004
0.90340215,72.72212
0.9417796,75.67018
0.93423504,75.78738
0.9700324,71.54437
0.9399831,74.902405
0.90755427,70.18551
0.9074324,69.94982
0.8930067,67.51906
0.8493846,67.50091
0.9001067,70.72293
0.89917153,67.38651
0.8763354,69.03711
0.8945862,67.35136
0.85647255,64.30582
0.8496517,66.31816
0.90918314,67.13734
0.84376365,62.73881
0.7951132,65.30549
0.7618693,63.48457
0.74388343,59.002106
0.7079274,64.94474
0.6982638,63.682568
0.6967719,63.06095
0.5380666,65.39383
0.61271113,66.40178
0.56364155,64.68076
0.5352172,64.95715
0.5378008,70.333244
0.4780652,66.18671
0.5713152,68.60545
0.63064116,68.20833
0.58487564,72.84793
0.74038535,69.032875
0.7177918,70.48938
0.8158832,73.11311
0.9292293,76.4203
0.99395794,77.56452
1.1657258,79.50445
1.1512249,82.034065
1.1989801,79.555275
1.3293499,86.38255
1.4389575,89.48995
1.5050796,89.43941
1.5463686,94.53933
1.6516796,93.69402
1.722627,95.80047
1.7462199,94.5667
1.6927146,98.43047
1.8974035,101.5916
1.8509526,95.668076
1.9688354,102.121735
1.8677164,103.03346
1.8951366,108.54976
1.9251515,103.84501
1.9338989,104.27215
1.9729244,106.32777
1.9519546,107.04239
1.9158043,109.11065
1.8957994,108.419754
1.9512945,109.37324
1.9143133,110.03608
1.9270027,107.091576
1.9302815,111.2664
1.8358423,108.15518
1.8565974,107.84795
1.7586935,106.91082
1.788983,108.65383
1.7822102,105.44556
1.7911415,105.606285
1.6898117,106.14453
1.684161,105.22632
1.662663,102.87063
1.611043,105.76945
1.6542956,107.477806
1.5220926,102.49787
1.5976391,102.39145
1.5142471,95.57353
1.4839032,99.27281
1.4358503,97.254166
1.4655933,97.91713
1.5256224,95.1055
1.4246235,93.43724
1.5151157,92.16437
1.4763036,88.98839
1.3807405,91.93313
1.4527503,89.34699
1.3620667,90.88966
1.330014,90.036545
1.3415713,90.21876
1.2242458,83.94639
1.1798903,86.33551
1.2879492,86.240425
1.2373103,83.87938
1.1413063,79.50637
1.1149069,84.487465
1.0637915,80.349945
0.96939653,76.3605
0.9883055,77.14164
0.99305594,74.82065
0.96919733,75.08446
0.9252714,74.069786
0.8811337,74.552666
0.93793875,72.67109
0.787145,72.48452
0.8318487,71.67432
0.94263947,68.951294
0.8362462,72.294426
0.86258334,69.53625
0.8311877,70.502106
0.8627795,69.43788
0.756077,67.12293
0.77175885,63.840885
0.82719564,63.99314
0.7370412,64.94148
0.7486914,62.8048
0.6262192,63.75005
0.63209313,61.019836
0.5556003,61.223545
0.5797085,61.132797
0.5570801,64.833984
0.54592294,62.003094
0.5284902,61.008366
0.36626124,64.76005
0.4428036,64.19774
0.44425592,65.210915
0.3263921,65.70097
0.48812285,72.11086
0.38345075,71.9214
0.43052554,69.33033
0.5309702,70.80406
0.51966894,71.9869
0.5515138,73.62495
0.54832363,78.217865
0.67592555,74.83769
0.8000847,77.05302
0.8660607,80.75792
0.9373699,79.16734
0.9717666,81.91355
1.0770342,79.902504
1.1210848,85.07082
1.2375392,86.147705
1.3056543,90.93045
1.3757981,93.29643
1.4877002,94.95805
1.5882711,95.80843
1.5174807,95.50001
1.6370096,98.10996
1.6156857,100.90785
1.6870197,102.102905
1.7473894,98.726776
1.6720803,102.47826
1.7078534,104.140594
1.6959827,106.69196
1.6059914,106.353546
1.6543033,104.459625
1.7659622,104.833176
1.7988669,105.94734
1.6002321,105.46318
1.6183314,105.16937
1.6952497,107.21723
1.6702247,103.65741
1.5958261,108.24298
1.5570803,106.5108
1.5793926,108.168335
1.5355227,106.57555
1.4924377,106.73125
1.6120919,104.73208
1.423821,104.35865
1.3829501,103.43041
1.3470658,105.325874
1.2927293,104.26163
1.3118303,101.68822
1.215635,100.42905
1.2543586,100.565346
1.1530521,100.40673
1.1696786,98.084404
1.2052001,99.83884
1.2165155,98.23054
1.1379751,96.74947
1.2388608,96.321365
1.1736435,94.37309
1.1155483,96.00991
1.1002814,90.61739
1.0405335,88.18861
1.0383093,88.095795
1.0417395,93.751045
0.978559,88.63216
0.9950229,87.81041
0.9528077,86.62382
0.96501714,86.96583
0.8987456,85.50981
0.8853626,84.24009
0.7973516,78.83149
0.77283555,82.68138
0.6974684,82.58108
0.6606246,79.850876
0.7040945,80.44362
0.62477064,78.06968
0.58930594,75.29565
0.5653917,75.66178
0.49029586,73.25028
0.5086313,72.583694
0.47206903,69.0889
0.45832413,70.817215
0.50106007,71.28614
0.43687496,69.465256
0.4898875,68.48476
0.4449608,66.19051
0.51729316,65.22687
0.43853575,65.67186
0.4256661,61.68092
0.39361078,63.540764
0.38832882,60.946293
0.35956937,64.72398
0.33439678,61.085484
0.29208153,58.817055
0.30575114,66.35148
0.23286092,66.25202
0.13674,64.489784
0.16630167,61.75734
0.120861225,65.82561
0.14362328,65.900696
0.117308505,59.77116
0.06243203,64.49922
-0.03283699,67.087776
-0.006170482,66.37115
0.035732362,69.16726
0.105013676,66.53404
0.105043374,72.43079
0.1603252,71.385796
0.21931607,74.112885
0.3228859,73.94287
0.3780953,76.60868
0.42912516,79.93834
0.533016,80.42554
0.55202144,84.24391
0.6438379,84.405594
0.74998224,84.4395
0.9097887,86.67777
0.9228483,91.63263
1.0334829,90.5173
1.1230496,93.161385
1.1538682,95.76507
1.2201399,93.0039
1.1796069,97.162384
1.2677047,99.577354
1.3042487,98.51302
1.2831126,103.677536
1.3447775,103.51513
1.3821166,105.725006
1.3742015,104.36832
1.3711532,106.35322
1.3428034,104.91102
1.2784505,105.97947
1.5034816,110.57987
1.4465742,105.371895
1.3607901,108.70741
1.3876843,107.63387
1.3680394,110.7434
1.3204217,107.60958
1.3482792,111.65454
1.3265017,107.33641
1.2800834,108.78751
1.2558826,106.78564
1.1919891,106.106255
1.1929482,107.68918
1.1125736,104.9314
1.0844696,102.50379
1.060555,102.06212
1.0704858,101.414955
1.0094327,101.261345
1.0183101,99.371925
1.0572762,98.391014
0.9080424,100.5588
1.0401175,98.9445
0.91892827,98.07014
0.9742797,92.205864
0.94851536,96.54766
0.88312596,92.94645
0.89657533,93.16314
0.83734703,94.1064
0.9437176,90.440285
0.8859029,89.69324
0.9399306,87.23773
0.8515277,90.32484
0.8670918,87.21802
0.8072985,84.8393
0.6955225,87.45506
0.67860126,85.41692
0.57590497,84.47853
0.5771302,82.33574
0.62083197,80.84966
0.50960845,82.58469
0.60907066,81.4564
0.4800838,79.159485
0.4392746,77.99787
0.40018526,74.95119
0.42326054,76.4565
0.38662347,75.13591
0.37037885,72.20456
0.35447404,78.36177
0.30730948,69.13473
0.344553,69.18247
0.35696632,70.598694
0.3003207,67.13198
0.30481616,70.32258
0.28087506,68.38432
0.3132933,68.93163
0.2805265,65.4511
0.36950937,64.238846
0.29710978,64.311226
0.27597016,65.05788
0.27461943,62.026287
0.2842393,61.432846
0.13627361,62.61875
0.22389343,63.989155
0.1321329,61.480713
0.096027695,61.300472
0.00064710295,64.20225
-0.04735131,63.47496
0.010464021,65.95018
0.028831694,61.071106
-0.1037203,63.67733
-0.05885352,67.27352
0.039953943,69.18891
-0.0016846979,67.74624
-0.032804195,71.558945
0.021266256,68.40209
0.16032596,70.79622
0.16918227,73.29034
0.3210444,73.91447
0.33782747,74.92373
0.5537632,77.81237
0.5089752,81.904945
0.5962486,82.72822
0.74436927,82.68725
0.8378,87.40625
0.8911787,86.95129
1.0569664,90.426025
1.0448872,91.73044
1.1149063,91.44501
1.1587998,97.69295
1.275308,97.28727
1.1712033,98.85176
1.2521076,101.5574
1.3368845,98.320015
1.3430208,101.83124
1.411367,102.97646
1.4659498,105.34162
1.4500248,107.292114
1.4302988,106.05806
1.5182772,108.57156
1.4608524,107.0913
1.4413621,108.53316
1.4295326,108.78495
1.4579654,107.31063
1.4196736,107.11802
1.471264,108.81905
1.4123464,107.31992
1.34136,104.837166
1.3179042,110.18744
1.3882658,106.063095
1.302353,103.2192
1.3567208,110.248436
1.3094206,107.27353
1.2257624,104.36738
1.2059425,102.690895
1.1857215,102.9985
1.0973588,104.25925
1.1746743,103.54215
1.1403308,100.49143
1.1385133,95.75073
1.1230316,99.54458
1.1328429,98.492615
1.1454138,96.397575
1.0980319,97.38403
1.077479,94.432594
0.99670345,96.23221
1.0789472,91.095085
1.0452427,92.19201
1.0951635,89.32427
1.0421821,88.963936
1.0276626,90.781395
1.035014,85.657875
1.0095302,86.13365
0.9387075,91.81374
0.96818495,86.28565
0.9163744,83.29497
0.80263275,79.442474
0.72486085,81.2791
0.82306904,81.11731
0.74447507,81.84055
0.76707286,78.72888
0.67125934,77.79624
0.71873367,76.35433
0.6790467,75.837074
0.62413794,76.256195
0.60837364,76.31124
0.61551154,72.79445
0.60810834,76.92438
0.59549624,67.76622
0.49594492,71.84326
0.62128264,70.800476
0.5772658,64.380264
0.6156103,63.73509
0.6027619,70.27416
0.5405855,63.878117
0.54848486,63.63622
0.54008853,62.825638
0.5501274,65.019966
0.49854463,62.082733
0.52753246,64.50446
0.40117252,63.4473
0.48656866,63.27929
0.36204168,58.71672
0.35095876,65.7329
0.36976346,62.526596
0.3897088,64.810104
0.28733703,63.761623
0.27886093,63.216618
0.27923748,65.776634
0.2917008,67.72753
0.30893776,66.206696
0.28101602,67.441696
0.33755645,66.809006
0.37269294,69.54539
0.3524463,69.751
0.43318495,71.90542
0.4802319,74.12175
0.55428135,76.01438
0.7522435,78.78369
0.83739537,80.10654
0.82523406,79.09364
0.9142487,85.874886
1.1107464,80.72436
1.1107527,85.455025
1.19517,84.59855
1.3744742,91.6964
1.4093977,89.778595
1.5026193,96.31455
1.4652591,94.223175
1.5224746,98.31516
1.6548959,98.245155
1.6805503,97.61496
1.6798122,102.740875
1.7559991,103.93661
1.6766169,106.03239
1.6993992,101.69315
1.8017235,104.5418
1.8397912,108.27852
1.7617095,105.88326
1.8489634,106.03497
1.8596207,111.355774
1.8428148,109.30885
1.7554393,108.18822
1.7650379,107.15995
1.7826744,107.86679
1.6950116,108.21295
1.7713886,112.5301
1.7434479,107.271225
1.7211946,104.83641
1.6507564,107.36174
1.7115347,108.052826
1.5623499,106.80359
1.6492102,103.019424
1.616752,100.63391
1.6142981,104.65715
1.573536,103.251144
1.5024216,101.53473
1.432677,97.1785
1.4428005,97.17601
1.4873137,98.178535
1.4605072,99.60128
1.28441,94.85487
1.4465244,94.51458
1.456307,93.80488
1.4393455,93.844986
1.3543135,90.82037
1.3430353,90.81264
1.3516105,89.30868
1.3890685,88.50239
1.3398333,89.39984
1.3092675,85.059746
1.3924114,87.92751
1.2674426,87.60284
1.2974414,84.19457
1.2900969,87.179756
1.1615282,86.15891
1.1270387,86.09498
1.1104343,79.97265
1.1585053,81.763084
1.0866431,76.49167
0.9732157,78.51807
0.97232866,77.88075
1.0132082,75.04849
0.93932664,77.30518
0.9572999,70.33751
0.8614827,72.450195
0.9033329,71.26355
0.87653846,69.92023
0.9391717,65.57115
0.8825697,70.812515
0.89730567,66.123
0.90787417,66.00629
0.90963954,65.49992
0.8854113,67.15446
0.9230753,67.79028
0.8524445,69.10936
0.8094901,67.4915
0.86237496,64.66294
0.8845842,66.84232
0.8254027,63.99735
0.65775365,64.11276
0.7182786,62.06625
0.6210863,62.300888
0.6501108,65.678314
