ppg,abp
1.023108,80.98408
1.1861317,81.15
1.2552599,80.22963
1.3473508,83.71435
1.4806247,78.90505
1.5998836,81.52031
1.531524,83.78805
1.6380695,88.29998
1.5785234,91.20575
1.5681466,83.78551
1.5736392,88.73978
1.6991459,88.64471
1.7918395,87.35895
1.6021419,87.39339
1.7234881,86.707695
1.7565851,90.71494
1.6795641,92.46687
1.6200944,90.094635
1.7462579,89.66328
1.7583374,90.69506
1.6832334,87.5167
1.6479689,85.09957
1.5729116,93.71926
1.5165935,87.84921
1.5595064,92.19425
1.5196629,86.448425
1.5180626,86.59129
1.5265393,85.55313
1.4179008,88.33338
1.5000595,82.74815
1.4038385,85.71819
1.3601202,84.87394
1.3240695,86.785645
1.4078486,86.485085
1.3120481,83.8222
1.3536332,83.70225
1.2942939,80.25976
1.2221903,81.774055
1.3292977,80.88954
1.2807078,81.40676
1.341136,79.52289
1.189078,78.432365
1.1675179,78.287025
1.0866934,79.79756
1.1965653,77.01021
0.9786442,79.86546
0.97616625,76.85615
0.9436965,77.06599
0.82728755,75.64933
0.89149255,74.64846
0.779847,77.34679
0.74685496,75.55352
0.7427247,74.243744
0.7920768,73.71681
0.8182623,72.22655
0.82008916,75.457924
0.9376513,72.30836
0.80689305,72.80058
0.733201,70.99428
0.70578825,68.9922
0.826772,68.15463
0.75241375,66.849106
0.79099816,69.86474
0.70365345,68.10152
0.7467417,69.302605
0.6655273,69.381096
0.56801695,66.563774
0.54215145,73.536194
0.5560178,70.98719
0.54602486,71.47933
0.5815832,74.45584
0.5032575,68.16792
0.43981576,67.80764
0.5880065,70.313126
0.5444536,69.19239
0.63413393,71.99177
0.7053432,73.44597
0.8051169,72.47923
0.89999074,76.305336
1.0815974,77.34643
0.92289466,74.73053
1.1912078,78.46594
1.2332152,78.61232
1.2837898,81.443474
1.5181323,81.89749
1.4876238,80.27598
1.5030848,83.766304
1.673235,82.8645
1.7199372,83.511566
1.7385943,84.16717
1.8028878,85.09195
1.8646227,85.94167
1.9105607,89.61329
1.8773937,83.86262
1.9725028,90.798805
1.9217728,86.8183
1.8788135,89.53097
1.9511987,90.65914
1.956375,90.28369
1.8848997,88.56761
1.8428291,88.827995
1.8218273,85.14949
1.8763425,89.37328
1.7945825,89.23121
1.8623314,90.8089
1.735536,87.05565
1.7073023,89.05597
1.668487,87.82397
1.5823603,90.659096
1.6187028,88.60333
1.5380588,86.60027
1.6425118,82.729866
1.5544847,86.26163
1.5592415,86.63282
1.5131155,85.37045
1.5523292,82.08655
1.5286039,83.66601
1.5000163,81.20225
1.5379057,82.15409
1.4783107,83.207756
1.4893278,81.76094
1.367568,83.73847
1.3483114,79.586655
1.3406523,78.261444
1.4191917,79.036415
1.3029737,79.7791
1.2882099,78.0033
1.3164204,76.81955
1.1039264,76.13483
1.0063807,74.64158
1.1842618,73.940445
1.0624009,75.660576
0.9555126,73.552864
1.0157207,75.282745
0.96266353,74.23323
0.90565056,72.58132
0.8899737,73.11994
0.9609699,73.7182
0.93969685,72.47244
0.9077056,72.73853
0.938408,69.479195
0.9200833,71.34611
0.92362195,65.56648
0.90950274,70.1021
0.79880923,69.14553
0.78136986,68.48858
0.7860145,70.683136
0.7002094,69.79845
0.703949,71.03426
0.72781944,70.112015
0.6712854,69.93822
0.49969146,72.623985
0.52544796,67.13867
0.4931838,69.79565
0.4776394,71.922134
0.5416305,70.228966
0.64814943,74.89747
0.56188387,74.22978
0.6209784,71.93918
0.7048469,74.557076
0.8576693,76.74879
0.90492314,77.0226
0.988144,74.835556
1.1357429,80.19923
1.2792293,79.08922
1.375387,81.275566
1.4645139,83.797585
1.5732349,82.375656
1.6183805,85.245155
1.6680079,82.26405
1.7363137,86.55857
1.7248869,83.64174
1.8817449,88.49569
1.8940775,84.73886
1.8402083,87.9403
1.8604612,90.361015
1.9015422,89.916595
1.9256524,90.94351
1.9029025,89.89102
1.9021467,88.504395
1.877018,89.64114
1.9091196,90.29672
1.9479663,88.123505
1.8176719,88.78191
1.9094582,88.91606
1.8704729,87.66254
1.7300928,91.5165
1.6557846,89.887085
1.7831637,90.29786
1.6812413,88.493614
1.5788739,86.45046
1.5567454,90.195496
1.5346729,84.675446
1.5170707,86.95774
1.4501117,89.02406
1.5535411,84.027306
1.4604493,85.10406
1.3874393,83.25694
1.3824666,80.14871
1.4153795,83.62129
1.2436572,84.09224
1.3254632,82.95247
1.3277864,79.4321
1.2722414,79.54201
1.3052893,79.30172
1.3093396,80.77109
1.1605973,77.2531
1.1751827,80.66942
1.126101,81.26326
1.0624017,78.503174
0.97665715,75.984764
1.0105911,77.71318
0.95746857,77.41054
0.8530657,74.16297
0.7778586,74.85453
0.8193318,73.50861
0.83841634,76.11152
0.82595474,72.27976
0.69052786,69.29031
0.748012,70.48991
0.71395665,71.98284
0.7651077,72.96663
0.7050405,71.320885
0.7100616,68.7907
0.8047588,68.08817
0.7725133,69.760925
0.6714967,70.2421
0.7789805,67.47585
0.6452263,69.20034
0.5965533,68.39623
0.52330214,73.29085
0.46493196,68.47572
0.3983679,71.917244
0.36726218,71.08211
0.31004545,69.69883
0.3674493,71.59696
0.24748379,69.184906
0.35523537,70.81479
0.27151996,70.20079
0.39991355,72.95577
0.47320715,74.693306
0.63913023,73.17563
0.4731668,73.42597
0.6724814,79.67381
0.6383375,76.64177
0.84176093,79.92944
0.91468257,83.62241
1.0584489,76.74053
1.0544152,77.90184
1.2420292,80.3465
1.2679272,83.00353
1.3572216,84.88284
1.4750736,80.25773
1.5983039,85.39125
1.5531398,84.026886
1.5693088,88.9121
1.6131941,83.91083
1.6284268,89.30995
1.6858385,86.13889
1.6000863,87.377426
1.5950829,88.54555
1.6646947,85.69856
1.6125362,85.55379
1.5018932,89.11421
1.6302755,89.36457
1.5828961,90.13001
1.7141676,90.08374
1.4584075,88.02937
1.5019519,88.660675
1.4843823,87.27662
1.4449766,89.46628
1.2879435,90.721306
1.3106385,84.99933
1.3043641,86.86878
1.3108861,85.58247
1.2408818,85.463425
1.3065273,84.53181
1.1563413,85.375015
1.1597716,83.32065
1.2016869,83.7091
1.1015435,82.95655
1.1319681,82.18313
1.097113,82.281166
1.1216222,78.74514
0.9999608,82.82176
1.0282705,83.94954
0.9086066,81.26795
0.9855756,81.155945
0.93965805,80.92577
0.91917515,76.509834
0.7711398,79.1171
0.7416592,75.1758
0.795412,78.28574
0.59750706,77.080605
0.5754268,75.396416
0.5937544,78.81197
0.48726323,74.06337
0.42243317,74.86365
0.5481973,75.54625
0.44503766,74.524506
0.3938903,72.52973
0.4188049,73.38324
0.5063487,74.587456
0.48320267,70.7368
0.49638185,71.624374
0.37311232,74.952095
0.39998096,72.249756
0.45330033,70.05461
0.37925038,68.22971
0.30215594,71.18919
0.27187333,67.67346
0.3206322,65.00553
0.22694887,70.013275
0.24520455,71.912285
0.0811982,71.963356
0.11513211,72.40875
0.076085456,69.87737
0.027251024,69.036316
0.0425892,72.50783
0.022854907,72.89318
-0.029423922,71.78585
0.113406084,70.27294
0.08865343,74.1945
0.19634955,73.35478
0.236966,74.67033
0.3695221,76.68723
0.38769495,78.624016
0.6141288,77.36484
0.6506508,77.74013
0.6506099,79.91081
0.7622939,82.880905
0.96914065,80.98232
1.0320257,81.953735
1.0428449,81.17595
1.1805863,87.55892
1.2451942,84.78622
1.327064,89.695625
1.3489892,86.477356
1.3617506,86.89115
1.4513205,87.16854
1.3456131,90.84495
1.4089177,85.95231
1.2809564,86.40336
1.416496,90.97377
1.4479749,93.27965
1.3606749,88.952896
1.4481483,93.3979
1.358068,90.49133
1.4268818,89.89714
1.2261767,92.104836
1.3429216,87.243324
1.2906408,89.84901
1.2525657,90.332405
1.0765754,88.18643
1.2150204,90.14183
1.1039906,86.34627
1.0217525,88.49024
1.0077947,88.063576
0.9154115,86.93047
0.9498319,86.70175
0.9557352,82.23968
0.92962295,85.332825
0.9056286,84.733536
0.7696977,83.16552
0.91463035,83.017525
0.8761391,84.34882
0.8617103,82.541565
0.85833114,81.62816
0.75892305,82.02058
0.7758135,77.95184
0.8335762,79.04436
0.78745204,78.30653
0.6313528,79.29325
0.61639816,80.31456
0.6758648,76.85072
0.62713474,79.06794
0.5670716,75.08523
0.48536524,76.93902
0.46549687,76.425156
0.41543552,77.97864
0.39796358,75.252045
0.26227152,75.64756
0.25958696,70.188034
0.35969365,72.329
0.32812116,76.30816
0.36857525,74.59508
0.41357645,72.83678
0.35468143,70.37129
0.25835407,72.94549
0.20505491,69.19585
0.34927204,67.14386
0.33275244,69.18048
0.28603262,70.4559
0.16631445,67.50263
0.08914875,67.33673
0.15886533,69.62596
0.10194339,73.09979
-0.06801459,71.55566
0.030374216,67.54017
0.019242104,69.18455
0.010004259,68.84702
-0.07583733,68.05029
0.021474566,72.220825
-0.0022266263,69.09373
-0.012762528,73.774345
0.15993091,74.624664
0.14572836,74.184006
0.23759437,74.41093
0.39271304,77.93967
0.4535222,77.04044
0.45191097,77.34338
0.70513856,78.12809
0.6481386,79.44304
0.90646887,78.32751
0.98657507,82.68302
1.1009074,84.24585
1.1200131,83.38447
1.1583579,84.445076
1.1634789,83.84127
1.2261097,84.2862
1.3044616,90.930954
1.3472644,86.71213
1.5173701,90.20227
1.3832642,90.35717
1.4269435,86.97453
1.4835426,89.57041
1.5001582,90.16667
1.4374903,89.98467
1.4506792,88.49413
1.3424605,88.15845
1.408984,91.99544
1.3739469,90.67305
1.3149856,89.02036
1.3287373,90.16874
1.2749739,91.64921
1.2146525,88.84262
1.2683446,89.320755
1.1158137,89.09401
1.1895996,88.46103
1.0937853,87.701866
1.0671115,87.61268
1.0990137,87.51199
1.0307864,87.02981
1.030127,87.015816
1.064864,85.05758
0.9857147,82.96693
1.0302237,80.96105
0.93814886,84.541145
1.0805361,84.045616
1.0277947,82.24125
0.88996446,81.01208
0.95068336,79.76543
0.9017082,82.507866
0.8578917,81.56985
0.8301831,78.8786
0.7758109,82.11659
0.7501288,79.14318
0.66374266,80.893166
0.6476228,76.99037
0.62958413,77.69201
0.76434267,77.90498
0.7330697,79.85663
0.57845795,74.84702
0.5869543,75.70649
0.5407647,74.386635
0.5525819,73.12233
0.45502245,73.517845
0.48344818,71.264885
0.5640485,68.32106
0.51961184,72.53302
0.43729785,68.98755
0.5056641,68.10041
0.44992328,69.719124
0.44642827,68.567696
0.44884226,69.78711
0.47953865,70.24701
0.36411563,69.24039
0.2831673,69.54511
0.28692997,63.724796
0.21545358,66.96671
0.23475659,73.171616
0.19802456,70.65425
0.19389069,69.922485
0.23162802,69.81089
0.28625828,72.203735
0.16187437,70.54471
0.19123596,71.986084
0.2955561,75.729195
0.40810332,73.6656
0.44716033,74.933426
0.60224575,74.18905
0.6101465,75.26828
0.762229,78.90669
0.9082377,79.52848
0.9489331,79.76585
1.0872872,77.96723
1.1204517,83.51761
1.2685202,79.5733
1.3420732,84.6972
1.3313509,85.4883
1.5088837,86.78781
1.5635345,86.45788
1.5549577,86.36421
1.5749699,85.60571
1.5480306,86.25641
1.674439,90.13561
1.7130953,89.79553
1.66254,88.90233
1.7492285,88.17418
1.6454581,87.19441
1.6999041,90.307175
1.6350535,91.011406
1.646387,94.4417
1.6348158,89.48167
1.6035464,89.493614
1.6369567,89.753876
1.6119838,90.79066
1.5812957,89.07314
1.5437996,86.791916
1.4474075,87.91987
1.5048575,89.564285
1.4510552,88.10222
1.5323126,85.57354
1.3829229,87.186104
1.3781606,86.23635
1.3288608,82.76128
1.3399993,86.5531
1.2548565,81.31906
1.3538263,83.48161
1.3032339,85.281166
1.4097253,82.50739
1.2697254,80.933136
1.2647146,81.986626
1.3137579,81.10691
1.2965122,82.95775
1.1338978,79.58003
1.1182219,79.61946
1.2134893,78.88784
1.0813524,79.75567
1.0534651,77.69034
1.0301003,81.07799
1.0059435,74.667465
0.8942249,77.57272
0.8858049,75.37892
0.94772905,73.84122
0.77780795,77.13755
0.86648285,75.90314
0.8757517,73.617836
0.7526886,73.02991
0.8466249,72.335396
0.86934555,71.43205
0.8141465,69.2643
0.79412943,71.84071
0.8191542,70.93234
0.8129645,71.725395
0.75317186,72.3187
0.7530044,70.30557
0.7099065,68.45832
0.7281604,70.139626
0.7136197,70.690796
0.5998621,72.00936
0.5784708,70.88598
0.6091734,71.6766
0.49299607,71.4003
0.42264295,72.648186
0.4658073,68.796074
0.4791181,71.79003
0.517926,66.680786
0.5111304,71.064026
0.52111346,72.147896
0.61411166,74.70959
0.69499373,73.85526
0.78974307,74.01641
0.9785143,73.693985
0.89180404,76.46789
1.0845517,76.98529
1.1790249,76.653656
1.3116261,79.46691
1.3376453,79.977356
1.5104556,76.64103
1.5878446,83.03017
1.620809,85.632866
1.6573701,88.04033
1.8510011,83.794754
1.826253,88.43744
1.8340555,86.89606
1.9250753,86.90921
1.8612922,88.92081
1.8318056,91.082054
1.8916634,85.94816
2.0032973,91.551
1.9111416,90.15471
1.9165021,88.63174
1.9539868,91.228195
1.8639749,91.48976
1.8316803,89.10658
1.9355767,88.993065
1.6978817,90.81246
1.7887647,89.427155
1.804235,88.36503
1.8851261,92.35456
1.7895415,88.045654
1.58717,89.65809
1.6265455,89.05361
1.649433,85.70943
1.6084088,84.84335
1.6157387,87.70428
1.4915597,85.88648
1.5444453,85.732925
1.4991103,82.775314
1.4850719,87.38599
1.5431225,84.56014
1.36845,85.34284
1.4270768,83.36917
1.472463,81.27441
1.4966223,82.95201
1.5287163,79.92291
1.4488076,78.02922
1.2847764,78.77653
1.3050208,75.48393
1.3656745,80.518936
1.20822,77.749985
1.1926636,77.3814
1.1611903,77.765396
0.9995598,76.55728
1.0365385,78.16603
1.1022198,77.17965
1.0373799,75.438545
1.0040016,76.67361
0.92748743,73.068565
0.9455871,72.142395
0.85606015,71.87789
0.9483391,70.274994
0.9527333,70.140205
0.94380337,73.500336
0.8743935,74.10769
0.914044,69.25653
0.89535177,70.1443
0.77214247,69.845245
0.83079565,70.27021
0.7425575,69.28853
0.71285903,70.71813
0.66601884,70.48074
0.6626665,67.80996
0.54459,70.125
0.6172588,69.34883
0.509736,68.585434
0.5362309,72.524765
0.5278509,70.32071
0.49109524,70.553314
0.5278639,72.416336
0.69924426,76.48165
0.6918366,71.143295
0.58487874,75.00211
0.87204486,73.93362
0.90337235,75.298836
1.131405,77.66427
1.0796666,77.02002
1.1360813,77.808586
1.3582891,80.670235
1.3895233,80.70253
1.4978324,82.384995
1.4808121,82.62599
1.7385993,87.84408
1.6835747,84.35854
1.848876,87.62007
1.8064235,88.38182
1.8540272,88.05901
1.8089751,85.24292
1.8447478,88.307816
1.870522,88.49908
1.9578173,87.524475
1.9181377,91.68958
2.0031106,93.36199
1.9421836,90.27819
1.8532659,88.561424
1.9186031,87.61056
1.8877959,89.52508
1.8426157,90.17847
1.8220946,89.20673
1.8059237,89.56413
1.8254377,88.00937
1.6377884,91.61577
1.7365011,89.30157
1.6457263,87.87401
1.6350375,88.61017
1.530337,88.16538
1.4887398,85.13724
1.4235289,87.7333
1.3773396,87.2986
1.4563092,88.35299
1.5607604,85.20661
1.513315,85.9109
1.3374107,83.64134
1.3840668,79.71621
1.2922155,86.460686
1.3170489,79.8015
1.2634531,80.89705
1.3552014,79.01897
1.3741997,80.19375
1.2543385,80.913475
1.2309858,78.08905
1.1154915,76.646385
1.1591585,77.80009
0.9956546,77.287346
0.97228664,77.605484
0.9810198,75.892136
0.9365497,76.96677
0.84131676,73.268295
0.87767696,73.878044
0.7557536,71.20392
0.7449264,73.72371
0.7554089,72.3199
0.65133315,74.232666
0.7910737,71.886116
0.7357985,69.27037
0.86579543,70.538795
0.70817316,72.4333
0.81090426,72.59384
0.7427017,69.24002
0.740878,67.688705
0.7222019,66.114365
0.64387757,70.48778
0.6114207,67.631775
0.5461606,71.34331
0.50642574,65.88024
0.41437203,67.00581
0.39446765,70.837036
0.37139118,67.20807
0.3182064,73.96941
0.394499,68.52326
0.2645592,72.85501
0.3479944,75.00863
0.39595443,73.11123
0.33545303,71.72231
0.3035714,69.62981
0.4847495,71.23233
0.61101824,71.2908
0.6758614,77.887924
0.7961906,79.07179
0.8778798,78.10314
0.99365526,78.49539
1.1250365,77.56911
1.2205946,82.48079
1.2838682,79.39072
1.3713404,83.80969
1.4875555,84.55767
1.5562208,86.11644
1.4666917,86.37325
1.5728035,86.98526
1.6710073,87.80107
1.6644541,87.95837
1.7276314,86.35723
1.5829543,91.04851
1.6615332,88.14925
1.7830126,87.81272
1.654172,92.93804
1.6868644,88.65627
1.6469929,93.465706
1.5855814,91.336586
1.5971378,89.76235
1.5575572,89.766106
1.4707928,89.910965
1.5167952,89.19123
1.4767873,91.04799
1.4090548,89.668816
1.3085732,87.72893
1.2999485,89.36517
1.2771548,86.1874
1.2832664,89.52118
1.2779826,88.01933
1.2106316,87.297035
1.257051,87.55929
1.0959392,85.55874
1.0579332,83.41835
1.1527108,82.897
1.0892017,84.29156
1.08459,81.72188
1.1915625,83.83188
1.0239681,82.6222
1.0459551,82.42056
1.0212401,80.07681
0.94721496,77.69058
0.8982116,79.376854
0.9356449,78.58253
0.8215805,76.43341
0.8096976,82.317924
0.7855839,76.60795
0.60267615,76.4776
0.61701983,72.92311
0.56667215,76.456726
0.5723694,75.157036
0.58084905,72.30037
0.5253828,70.529335
0.40890846,74.06841
0.5591346,73.30442
0.5192921,72.26856
0.4106538,71.73958
0.49415335,70.56597
0.41980168,71.26341
0.5444983,69.88497
0.31499076,71.89511
0.3537044,74.35413
0.3659021,67.27958
0.37919673,70.98213
0.2662469,71.319534
0.21789572,68.516685
0.20784001,70.09776
0.24723047,71.65568
0.104617245,69.93802
-0.025648676,71.327515
0.23065372,69.94694
0.12352201,66.34387
0.036358837,73.07248
0.091968864,71.11843
0.034703057,71.25893
0.11143414,71.06459
0.1285788,77.84455
0.18578932,74.989975
0.3214247,76.2955
0.3729004,79.72195
0.54605067,79.31555
0.5471317,78.56286
0.7975472,77.84328
0.7434413,79.04596
0.86985284,83.41883
0.9471497,79.48943
0.9768214,84.196815
1.1603526,84.986084
1.2401546,84.77829
1.4028876,85.759636
1.3260263,84.58419
1.2805331,88.37979
1.3741473,88.27569
1.3929232,89.77426
1.4756124,90.13728
1.3430384,85.44468
1.4818834,87.092865
1.4688958,92.56977
1.3137288,86.819305
1.3539753,88.46695
1.225178,88.15403
1.3837312,90.14578
1.242857,87.51402
1.1979847,89.76953
1.2120456,93.42311
1.220537,86.62037
1.1217135,86.2046
1.1626842,90.412605
1.070315,88.663284
1.134508,85.34938
0.9843348,90.329544
1.0535729,87.17189
0.9466546,86.45865
0.9457115,84.25936
0.8899073,87.407906
0.84315133,88.511795
0.90223825,82.665184
1.0292324,82.80642
0.8708328,81.51051
0.8874225,83.173065
0.8115286,83.70259
0.8596393,82.72013
0.8257835,82.18568
0.8615828,80.13978
0.794419,77.61916
0.7797239,81.85571
0.6477737,79.92319
0.6840969,79.38973
0.5955285,80.341965
0.67180353,76.99464
0.48004493,75.83873
0.42722264,72.25463
0.41300192,75.85887
0.39283517,74.35481
0.37586057,75.901405
0.41769847,73.46682
0.27156478,74.46341
0.2983108,71.90352
0.2558028,73.5407
0.23102145,71.83534
0.23390725,72.64362
0.38481295,70.866356
0.21187724,72.06838
0.24370392,71.38823
0.20244986,70.19058
0.2885136,69.20812
0.31662917,71.89737
0.20448703,69.268456
0.19664864,72.96693
0.04802012,68.6849
0.05769634,70.2645
0.050766222,70.615974
0.07984035,73.335106
-0.025991479,68.84
-0.037325542,72.63955
-0.07870955,71.58659
-0.079968706,71.51353
0.10745692,75.11568
0.065880015,73.62687
0.23773542,71.852325
0.25182405,76.154076
0.20175111,71.612976
0.37065938,74.7479
0.29825965,75.390854
0.56122935,77.6323
0.7524524,79.91796
0.8575703,81.70515
0.88423985,81.635956
0.9090261,80.2394
1.1263089,83.689285
1.1162996,84.44349
1.2751838,85.842514
1.2721025,86.62228
1.262977,86.94318
1.2765491,84.07448
1.2382587,84.76176
1.4439293,87.27966
1.3539926,90.41671
1.4379652,88.279396
1.4126683,87.492165
1.4074498,88.40663
1.4142901,88.20208
1.5032754,88.9389
1.3844386,89.612236
1.3706634,90.31784
1.3621033,90.41482
1.254248,89.44406
1.3030454,89.16168
1.2716852,90.14272
1.2256391,88.87092
1.1377198,87.68522
1.1780618,89.88146
1.1267649,86.976685
1.1202871,87.43788
1.1549983,86.62226
1.0250211,86.46067
0.96323717,85.554886
1.038947,84.65054
1.0750225,84.35487
0.9492829,80.574715
1.0053815,84.07063
0.9421395,82.96143
0.94176227,83.60375
0.9053714,80.39969
0.9136188,80.46013
1.0364543,77.900696
0.88464457,79.6002
0.8037751,79.90727
0.8297893,78.49708
0.7089417,81.29447
0.7243181,75.09925
0.6299392,78.6237
0.6903796,77.48421
0.73529714,77.2594
0.5713744,75.08845
0.43700996,79.27454
0.48170218,75.14914
0.45357984,72.76498
0.46179438,71.246666
0.52145916,73.00282
0.41820565,72.73274
0.47495103,70.432045
0.56806856,73.79748
0.3844761,71.88289
0.5181792,71.18554
0.47138467,67.567795
0.56697696,69.14202
0.4066134,69.1233
0.40478772,70.44215
0.33914766,71.17222
0.3900085,71.896774
0.30769718,69.727844
0.22190145,67.57712
0.2404799,71.87488
0.14628129,70.98189
0.11155571,71.26732
0.16571157,68.35785
0.15075402,69.20081
0.20771179,73.63317
0.27415887,69.28627
0.1683236,73.27755
0.2816961,76.89973
0.49608597,75.6775
0.47130838,74.45312
0.63343096,75.067116
0.6655433,77.92843
0.75510436,77.92236
0.96546054,79.28553
0.9928924,80.187904
1.1283541,79.19588
1.2864962,80.883224
1.3124576,82.38301
1.3339599,83.74408
1.4289856,87.52932
1.485649,83.817276
1.6116846,84.496796
1.5038618,86.31141
1.519204,89.39022
1.6094084,89.16907
1.7127322,87.07959
1.658779,89.78389
1.6837856,87.291664
1.6350086,88.4041
1.7744535,88.57225
1.6539992,90.34078
1.6487935,90.56686
1.6200571,87.82352
1.6227314,90.92476
1.6092592,91.748795
1.5228803,91.29654
1.5378584,90.84344
1.5238148,89.671715
1.4811968,88.98357
1.4808643,87.98865
1.3657225,87.17496
1.2973728,86.471
1.3785069,86.14364
1.348702,89.4616
1.2857558,82.3166
1.3803022,88.73987
1.4377067,83.521774
1.3291335,82.101456
1.2700354,81.224464
1.358109,82.33143
1.2307168,85.456276
1.2729653,83.23429
1.2402025,81.562004
1.2144083,80.82484
1.1564543,78.38397
1.0619223,80.75875
1.2016587,79.7628
1.102821,78.864555
1.0188819,81.079056
1.0439017,77.53095
0.95192575,75.924675
0.88237464,74.96108
0.9076344,77.518166
0.81350785,73.080376
0.7654174,77.09714
0.78651017,73.73668
0.8505611,72.41339
0.736016,69.86459
0.80679977,75.44558
0.79005057,73.80602
0.82374614,68.21935
0.75370747,71.71385
0.74256116,70.64452
0.6771936,71.20498
0.7701701,69.235214
0.72257334,66.90728
0.6717716,72.15572
0.73248106,70.72045
0.626979,67.4913
0.62540174,67.68113
0.52497816,68.68503
0.5031213,69.59475
0.5005814,70.757576
0.44395074,71.70213
0.5249565,69.1582
0.487271,71.30245
0.54756683,69.37785
0.49625677,71.551186
0.57568294,69.54547
0.6144636,73.71771
0.7347712,74.518036
0.70833534,74.22324
0.78777564,74.04407
0.9288625,75.81051
1.0209882,78.131
1.0911386,74.935616
1.3039789,78.33232
1.2886584,78.341255
1.4859304,84.96015
1.5700195,80.89612
1.5357652,79.17073
1.6664062,83.85116
1.7494428,81.17679
1.8425822,84.30086
1.8423562,86.82757
1.8689307,85.86466
1.8771068,86.57272
1.9534395,90.08343
1.9028434,89.76104
1.9416116,91.00164
1.9105505,88.18539
2.0045097,89.36239
1.9381856,91.20328
1.9276029,90.597786
1.7960465,88.944885
1.9420817,90.94831
1.8622469,91.86693
1.7123492,93.44913
1.7127457,89.343025
1.8468316,88.00674
1.8405789,87.76846
1.6309184,85.71453
1.6016756,85.99586
1.6657462,87.31898
1.752229,87.19495
1.6420707,86.055824
1.6630325,83.926674
1.5066917,86.36358
1.5270381,83.19592
1.4867653,84.32438
1.464227,82.68173
1.4415876,84.86645
1.4208481,79.71957
1.5516611,82.1702
1.479311,79.10451
1.377852,80.65822
1.47376,81.40006
1.3948541,82.61092
1.2820537,77.25261
1.2727609,78.285774
1.1980578,78.77246
1.27106,76.00865
1.1493822,79.07988
1.1138774,78.65171
1.0137247,76.62803
1.0316474,74.332344
0.95619357,76.761154
0.9337799,72.56314
0.91851,71.79996
1.0387075,75.59197
0.8278812,72.2118
0.95992625,73.11072
0.953789,73.16609
1.0131177,72.3649
0.8584975,72.37817
0.8341573,70.851166
0.86461306,71.92538
0.75451374,68.80996
0.8924362,71.170815
0.7507318,70.87174
0.78978395,71.34793
0.79398257,71.00164
0.7214751,70.416534
0.5821246,67.83764
0.6137177,69.05159
0.5751069,66.345245
0.5374587,72.08824
0.5790345,70.44144
0.53231525,72.01755
0.51927966,69.999435
0.55709106,69.221085
0.59899485,72.32879
0.67204416,72.848
0.76182723,76.162285
0.8465475,75.35748
1.0636749,79.8735
1.0823678,78.41902
1.2414504,76.23569
1.1415993,79.178795
1.3828526,81.0456
1.3588741,78.01
1.6024994,81.251686
1.6107605,78.44626
1.6016847,80.27446
1.6994666,84.701866
1.8481991,85.13751
1.7219454,88.010864
1.9035767,88.47816
1.9104183,86.0979
1.8897151,91.01784
1.9330298,88.37804
1.9421467,91.44246
1.8688369,91.57463
1.9387355,90.4316
1.8688121,89.89331
1.8360898,91.534996
1.9775708,89.10336
1.8228954,90.79654
1.7955489,88.79937
1.7150185,87.846344
1.7450018,90.30496
1.5899864,89.37626
1.6922737,85.10007
1.7031409,92.07781
1.6835068,85.07564
1.5698633,90.12394
1.5671448,84.93973
1.5151715,87.759155
1.4889089,87.285385
1.4346857,86.998566
1.3605396,85.29532
1.4918264,82.0777
1.400343,85.94824
1.4363567,84.71314
1.428796,84.138725
1.3882118,79.62451
1.3761692,83.232796
1.3634361,82.02054
1.2764454,80.94282
1.2913376,80.03447
1.1793357,77.72712
1.1668059,80.06393
1.1558335,74.92159
1.0810244,74.90387
1.043229,80.185455
0.9677616,74.887085
0.9726209,79.23132
0.97248995,74.16331
0.99621016,73.901184
0.80980766,75.80012
0.8573788,74.89113
0.7148948,72.04936
0.86064637,74.42385
0.7547151,72.99851
0.775651,71.41796
0.68662405,72.6594
0.7457488,74.06911
0.7423852,69.43517
0.78239506,70.7785
0.67365056,74.05264
0.78190047,69.72882
0.71423894,66.18102
0.66139406,71.61255
0.5852582,70.66272
0.53280467,69.270706
0.43738276,70.13208
0.36286935,67.91685
0.36524248,68.995995
0.3582237,70.24888
0.29662925,72.29266
0.3363852,69.61696
0.40354732,70.47904
0.41426963,72.70666
0.24366874,73.39812
0.56377786,70.277306
0.4114678,70.25168
0.6791684,74.185
0.7656537,72.29807
0.6911526,74.78083
0.80003494,76.92458
0.967181,75.64919
1.0195891,77.27708
1.0233223,78.985374
1.2763151,80.32251
1.4529523,85.97454
1.4510456,82.4092
1.3807775,86.62037
1.5128018,84.06384
1.6418254,87.22621
1.5210948,86.69601
1.5997058,84.298744
1.6358017,84.7369
1.7563651,89.42494
1.7033082,88.97199
1.6666626,89.243515
1.6489527,87.716866
1.7222102,94.165924
1.6701531,87.761894
1.6456769,90.25983
1.59758,92.53442
1.5110503,88.21063
1.593781,88.16376
1.686369,86.97007
1.5028875,89.26506
1.4893392,85.98676
1.4289273,87.85538
1.4014598,88.74158
1.2883042,89.87384
1.2867249,90.211876
1.277114,88.486275
1.3015891,84.71541
1.1746888,84.11261
1.1956787,86.700294
1.2720762,83.50333
1.0898082,86.5576
1.1158704,79.545
1.0027672,83.94847
1.0749352,82.42774
1.0979527,81.18104
1.0445435,82.71084
1.0553868,79.14895
0.9507549,81.12265
0.9854855,77.960335
0.90840405,82.38913
0.8377317,78.08188
0.74406594,77.66764
0.85793585,80.602196
0.70648634,78.11001
0.5972516,73.73443
0.64790463,77.778114
0.6190531,76.589485
0.5846802,75.97995
0.53611743,77.243484
0.64921814,76.06452
0.47122273,71.973495
0.5605703,73.32046
0.47974673,72.59506
0.46938506,72.45187
0.48726737,73.8055
0.5231704,70.96593
0.47314018,68.21562
0.4263886,72.26611
0.34295362,72.87923
0.3371209,68.03789
0.26145154,70.80171
0.24043593,70.13873
0.33580405,67.96611
0.13243568,69.44701
0.21007578,68.30349
0.14157118,73.77166
0.11982609,71.68027
0.07051055,67.52655
0.036831833,70.488754
0.07241278,67.47608
0.07392908,69.93491
0.20974022,70.75954
0.24783823,73.91611
0.20493764,75.18856
0.25413334,72.85204
0.2915182,77.1755
0.47825795,80.45477
0.5169243,77.9595
0.63717705,79.29191
0.6792445,74.513275
0.82285005,81.09089
0.91311646,81.46239
1.1694413,83.30182
1.1157678,83.48971
1.120852,81.71496
1.225472,88.54369
1.2195073,82.694916
1.3238509,86.05721
1.4213146,86.94305
1.3549552,88.78799
1.3300892,89.8661
1.559007,87.01631
1.4492613,87.7865
1.3554184,87.82538
1.3494473,86.825386
1.5031283,88.76999
1.4170735,89.678246
1.345621,92.03386
1.4170482,90.92533
1.2439831,90.59218
1.2381511,91.63206
1.2908455,88.007225
1.2173245,87.60951
1.1254865,90.236534
1.1019039,91.08243
1.1566384,87.46247
1.0521177,87.39051
1.1165794,87.91353
1.0067073,90.47893
1.065351,86.03345
0.9568097,85.72167
1.0499815,85.841515
0.8661118,83.66103
0.9675152,82.656044
0.97071296,84.285515
0.86599064,79.9687
0.8678874,82.9759
0.78250015,83.33322
0.8323892,82.16154
0.8040457,86.54654
0.75481915,79.84541
0.710755,84.00804
0.65399545,78.62704
0.66422385,80.04993
0.66192347,77.845665
0.4797541,78.82774
0.5708651,78.15222
0.48482582,77.5231
0.4505076,77.486176
0.3476055,75.59407
0.46062097,72.73478
0.2843512,74.955475
0.41367665,74.127335
0.26855418,70.496635
0.31286448,74.23044
0.30747154,68.53793
0.31286737,72.64787
0.38449588,70.19726
0.3016051,74.777176
0.25095785,71.962555
0.2489198,68.07827
0.16796489,69.228455
0.18806545,70.35457
0.22204967,68.459
0.2148771,68.31423
0.09159432,67.03038
0.114123344,67.490074
0.038782667,68.11863
-0.0019622734,75.59577
-0.078369886,70.469025
-0.03524664,69.269104
0.0021499253,67.669876
0.048424542,68.18179
0.06204128,72.747826
0.012760035,75.01131
0.11564698,73.96308
0.0899039,76.31812
0.19378527,72.476494
0.36037064,78.00931
0.49911729,73.29215
0.59764194,77.91718
0.58887154,81.812515
0.69744396,79.18129
0.85022104,81.40489
0.8196465,79.54044
1.0304514,81.858696
1.0066302,82.2411
1.2256598,81.80755
1.1553493,88.58628
1.2644126,87.35545
1.2700869,86.65639
1.2050501,89.850586
1.4836174,85.024025
1.4852489,86.36835
1.2969174,85.23817
1.3282093,89.6717
1.4272715,85.15991
1.4073389,90.91568
1.408923,93.226204
1.3544424,92.23481
1.3521254,89.18209
1.4319073,87.84346
1.3137803,86.72529
1.3179141,89.95987
1.2845554,86.74291
1.2691355,90.8344
1.1412774,88.19321
1.1610459,88.76953
1.1044811,86.74954
1.1580307,87.089035
1.0932605,84.47646
1.0769886,91.621284
1.0303559,86.34349
0.99239844,87.17481
0.9995449,84.630394
0.9988491,85.41524
1.0388372,86.29523
0.9963518,84.12836
0.9183606,82.16761
1.0311782,80.50712
0.97906244,78.76846
0.949882,82.752426
0.8577087,80.60195
0.87721246,79.00103
0.8653184,80.35279
0.83950317,76.99178
0.81389886,79.57453
0.69733804,81.00192
0.6205409,75.40768
0.70199347,76.85037
0.6450543,78.626755
0.5392881,73.62208
0.42377862,78.86217
0.5042846,72.55469
0.56978005,72.977325
0.4361339,73.10328
0.44874984,70.47703
0.45332986,70.551125
0.48312017,71.01319
0.48970482,70.28548
0.42671955,69.3665
0.48101786,73.75218
0.4923786,70.35645
0.37038267,72.06923
0.3829807,68.5413
0.48452175,70.69451
0.34809306,69.732895
0.38503945,69.00022
0.27124918,67.24208
0.21400563,69.71557
0.075634204,67.64644
0.23996393,73.14653
0.22547232,72.09285
0.16037406,73.55892
0.08885493,71.910324
0.025477553,70.84299
0.24000154,73.45103
0.26951098,68.32956
0.32917562,75.56695
0.38719213,73.92698
0.46812943,72.507286
0.6756429,76.795494
0.765441,75.34626
0.8294896,74.70402
0.9181785,81.53883
1.0275754,77.31411
1.2129424,84.196434
1.2009568,83.44322
1.2779751,81.22138
1.2582496,87.08625
1.4619639,83.840065
1.5287987,85.06818
1.5779092,86.66946
1.5350302,87.3836
1.6337919,87.47016
1.5410668,89.04766
1.5765263,91.38187
1.7163125,90.71757
1.6256404,91.247444
1.7149498,94.6567
1.614128,92.10656
1.6053405,89.42217
1.6012424,89.710045
1.665099,91.62087
1.6741781,91.840866
1.5461041,90.93179
1.5361058,93.36725
1.490945,85.56855
1.5868682,87.76046
1.4973333,86.27946
1.4304373,89.32857
1.4321464,84.90728
1.4298282,87.844444
1.3294084,85.83123
1.383639,87.497185
1.3402386,82.02489
1.1857672,85.38853
1.3024248,84.69229
1.2692549,85.10781
1.3778732,81.92802
1.2263763,83.22376
1.29421,78.76699
1.2422922,81.32186
1.2368293,81.52514
1.1996366,80.745
1.1890516,84.02114
1.1354458,80.25839
1.0490505,78.418365
1.0853103,78.23967
0.9265728,77.97571
1.0005103,78.47982
0.9753187,76.38262
0.91929007,75.16675
0.83077085,76.045166
0.7946864,77.76964
0.8303544,73.62218
0.89272434,72.91126
0.69183743,72.46318
0.8103377,71.12334
0.81582534,69.62657
0.819666,72.66531
0.73635775,69.336845
0.81746864,70.41789
0.87476695,71.29903
0.7915801,69.39651
0.7892623,68.8783
0.68822414,68.21202
0.7288015,68.553276
0.7371389,69.51469
0.58728325,67.03844
0.5078615,68.6923
0.557851,72.26895
0.50533915,70.94559
0.5429995,70.809975
0.39752132,68.01731
0.5565337,72.058304
0.4442667,73.827324
0.4561413,71.979744
0.5404195,74.68651
0.58282036,69.772964
0.58064055,72.72765
0.67514926,75.16897
0.7167306,74.67979
1.0263886,73.39552
0.9980248,80.11971
1.0330361,78.64066
1.1299187,82.17657
1.3433675,81.335655
1.3945626,79.2908
1.4452567,81.77042
1.5008861,81.46
1.6212423,81.19765
1.5963664,85.67362
1.6861131,88.88739
1.73894,86.6567
1.827312,85.041824
1.798576,89.89607
1.9399471,92.22813
1.923732,88.24354
1.9616741,86.72269
1.976507,91.21641
1.9044698,91.598694
2.0018551,87.06508
1.8859993,87.97672
1.9226592,86.25684
1.9195104,89.90968
1.955185,88.14148
1.9276251,94.17916
1.7221918,91.03218
1.7750152,87.32459
1.7550375,91.20993
1.6006085,88.74107
1.7353252,86.88682
1.6500261,87.28055
1.6889641,86.17922
1.5899366,82.1445
1.558644,85.74332
1.6325138,87.115395
1.5266942,85.27641
1.4778762,83.3378
1.4319154,83.9999
1.4055678,83.083694
1.4287246,84.39915
1.4801195,82.989136
1.4849914,79.93769
1.4417416,80.80158
1.4739934,80.93911
1.4244119,80.18987
1.2943509,78.900345
1.303846,76.53755
1.2403926,79.25881
1.2037964,78.31365
1.201779,76.570816
1.1876941,77.75241
0.9341899,73.01752
1.0343978,74.77994
0.9326845,73.8135
0.9938823,74.16349
1.0220456,71.69554
0.8981364,74.66988
0.92385775,72.81929
0.95480156,72.5853
0.9665689,71.634415
0.90170044,71.086914
0.92169785,68.8034
0.9512368,69.24112
0.90362483,71.97812
0.96253663,68.393
0.76547647,68.6881
0.8353551,68.97771
0.7622145,68.78936
0.7591406,65.643845
0.73079646,69.29012
0.7121957,68.02907
0.5983556,69.70652
0.55723387,73.81618
0.50397,68.9321
0.521335,71.24321
0.5091958,72.18362
0.5153503,70.95987
0.576279,70.928734
0.5936692,69.960594
0.59565103,76.86705
0.793201,71.9804
0.87563,73.81728
0.8781082,77.00855
1.1530867,75.824615
1.207121,77.15059
1.1889869,79.710045
1.3378761,79.15703
1.3870224,80.06743
1.4339397,82.79759
1.4708778,81.2609
1.6825173,83.828514
1.7347499,85.17677
1.8077656,86.37455
1.8525246,86.24691
1.8668377,87.00373
1.8750225,89.24066
1.850537,84.35411
1.9651833,88.91876
1.9856578,90.77891
1.8907988,90.93928
1.9471823,91.30736
1.8802028,88.41353
2.0407336,90.81869
2.016927,90.12071
1.8683038,93.0397
1.8486688,91.36658
1.8815218,91.37491
1.8692023,90.52069
1.8343482,84.27041
1.7217269,85.58747
1.6947768,89.27792
1.5663173,85.777756
1.6695969,88.403175
1.5590826,88.93717
1.6056917,87.593475
1.5541195,88.206764
1.4642183,85.527374
1.5675951,86.41318
1.460922,83.62762
1.3924972,85.839935
1.4347106,82.38745
1.3840562,80.92484
1.4423889,81.63135
1.4285206,81.54314
1.3432916,81.91797
1.3803931,82.05377
1.2823126,79.65315
1.3032025,80.05534
1.2107636,78.96727
1.2592822,82.45747
1.1199925,76.79984
1.0997586,80.8262
1.0496162,76.385155
1.0276875,78.6848
1.0152167,75.06106
0.85794306,75.01316
0.8405051,69.91105
0.8702015,75.72944
0.8987911,72.04464
0.75995934,76.51404
0.77471954,75.19711
0.72258806,71.80346
0.7520535,71.22068
0.73756754,69.553085
0.8881265,69.244095
0.8278522,71.12053
0.683517,66.85317
0.73448014,72.630486
0.6843045,71.87558
0.6530514,69.88729
0.5583269,69.462814
0.5971101,69.89355
0.5160326,69.15513
0.5383942,67.19424
0.4360861,69.8173
0.4161258,72.00397
0.38663694,71.12817
0.29568145,67.82068
0.30503762,71.70502
0.42284992,71.2724
0.3795387,72.3401
0.4494911,71.30476
0.41990077,71.954216
0.59703463,74.18726
0.71551794,72.835846
0.7675821,75.86537
0.90164334,78.324684
0.9726394,78.079636
1.0378543,79.47279
1.0588552,79.40657
1.2188064,82.249214
1.3256166,81.09593
1.4425367,85.28873
1.3746861,83.968506
1.4765911,83.96652
1.4958161,84.44342
1.6528357,83.84674
1.6065782,87.68847
1.6618937,88.8449
1.6616381,86.05453
1.6851512,87.41748
1.6476134,90.0554
1.7196306,88.54579
1.7196745,86.12156
1.7817471,88.03228
1.6635821,88.334915
1.6318698,89.208046
1.6029836,88.27079
1.5601193,91.222305
1.5377957,88.22996
1.5513245,87.53068
1.5947105,87.16393
1.5510283,90.64949
1.4797676,91.557526
1.423173,87.06271
1.3473132,89.524086
1.2900736,89.29634
1.2643036,85.14735
1.2787846,85.28808
1.2087656,85.206665
1.2616372,83.87116
1.2271504,84.40228
1.1615827,88.06451
1.0535045,81.12208
1.1516234,83.11739
1.1623352,82.82942
1.0821005,81.329575
1.0012549,82.11405
0.9715535,79.65868
0.9965092,79.161026
0.9994802,80.04069
1.0114373,80.69025
0.8464325,77.81414
0.9077598,79.90575
0.83426684,77.9325
0.73677504,74.79825
0.7344623,75.89533
0.63198245,77.35384
0.68062776,73.60456
0.6465762,72.323456
0.5384232,71.78992
0.44735703,72.2699
0.61332065,73.908195
0.49029282,73.62761
0.5657164,74.415436
0.47973648,70.66192
0.43865296,70.34781
0.52953374,72.98676
0.31069484,69.01219
0.46900538,69.92378
0.44092768,71.41813
0.38345733,70.33052
0.24069792,67.97566
0.18945469,70.630356
0.22832993,69.051476
0.17574671,66.7198
0.2128666,69.889366
0.0992907,68.46655
0.1006294,68.49745
0.07385855,71.16313
-0.0036344484,69.05546
0.057329357,69.570465
0.07663341,74.27618
0.18911894,75.59938
0.1736647,75.32161
0.28959846,74.70483
0.35888523,77.25087
0.4000761,76.37075
0.5028229,72.440475
0.6125787,74.8053
0.6527417,81.1395
0.82275933,77.50525
0.9876163,79.90059
1.0060855,80.55882
1.0527639,79.80047
1.2174615,82.18366
1.2437617,83.5745
1.2655942,83.67525
1.3071231,85.17753
1.3186524,87.39096
1.4290515,85.76842
1.4364504,92.99361
1.3641752,86.092476
1.4081849,87.73464
1.370102,87.80839
1.3531348,89.31019
1.4970285,88.91157
1.429818,89.07407
1.3763876,92.74126
1.4474772,89.734566
1.2964283,87.49662
1.2661247,89.673096
1.3100957,93.08131
1.3303702,87.19913
1.2301003,90.08275
1.096841,88.869385
1.2308944,86.434784
1.0723863,86.698555
1.0398238,90.34973
1.0815326,88.88402
1.0108762,85.899956
1.0336887,85.58889
0.9155876,85.416
1.0742158,80.31273
0.951129,81.95955
0.89118904,83.296646
0.88212216,83.0116
0.8957647,84.02467
0.90419465,79.303986
0.8818235,82.53996
0.7741898,83.31698
0.89518183,78.22515
0.6259499,76.40882
0.7465052,76.6139
0.6518704,80.329056
0.59676725,76.87549
0.681618,74.07448
0.51722133,77.87709
0.5435885,76.09847
0.47171295,78.149734
0.33660808,75.31573
0.41984388,74.4362
0.34770554,72.43929
0.3392117,73.056755
0.32153815,74.3132
0.4220709,70.95384
0.38789195,70.813255
0.27486536,69.183655
0.43700913,70.6448
0.33412343,69.230804
0.35443583,68.47836
0.30782655,71.09194
0.24483006,70.81189
0.18039107,72.10069
0.25472566,72.636604
0.05385168,69.10743
0.17431384,66.27534
0.080499604,70.42806
0.054601334,71.80771
-0.09486997,70.26641
0.069714926,68.68822
-0.0853446,67.804825
-0.017737813,71.918724
-0.06250772,70.175385
0.06404666,74.2999
0.017210303,73.01661
0.013802229,70.57841
0.16767444,73.73553
0.2033436,69.865234
0.2913992,73.63604
0.42890105,76.610535
0.4699046,76.2402
0.58607155,78.18963
0.65966916,80.25553
0.80228645,81.623146
0.75613534,84.979294
0.9847691,82.50973
1.0145546,83.88636
1.1127274,82.52218
1.3213664,84.92241
1.2488048,88.5548
1.2320464,85.26289
1.3602133,86.81427
1.4030077,86.32559
1.2702403,88.298836
1.336639,87.999214
1.3816528,86.42655
1.3583121,90.271935
1.3508372,90.413216
1.3404665,89.50549
1.4460092,89.02103
1.3840355,89.33623
1.4291685,89.64626
1.2989615,88.8258
1.2667174,87.73715
1.2931151,89.05874
1.2084491,87.70585
1.2319926,87.80532
1.1102964,90.93269
1.0788817,86.93716
1.1049901,89.19903
1.0914185,88.07499
1.0625029,83.86591
1.0635247,83.60182
1.072193,84.34161
0.99105775,86.21053
0.99502593,85.29477
0.9990204,85.3085
0.9150768,84.7135
0.869905,82.2781
0.846439,84.584656
0.98088896,82.33873
0.8777739,81.98069
0.9443198,80.846985
0.8716229,79.22796
0.7930554,77.670364
0.76265734,78.17833
0.67776847,77.59801
0.73772275,77.58223
0.63214713,74.26057
0.6475253,76.94912
0.5663934,74.158325
0.57765,75.32007
0.4627276,74.86093
0.40257192,74.234
0.40020034,73.667946
0.45124286,73.35216
0.47323558,73.05858
0.47767934,70.43719
0.49290305,72.27307
0.3763756,72.66431
0.44465387,70.505714
0.42766458,67.9839
0.4372026,69.63022
0.4748059,67.73691
0.41014504,67.27603
0.50841725,68.86268
0.37730166,66.12824
0.26405522,73.89488
0.2559925,70.60948
0.19976218,70.65815
0.25165668,69.94762
0.11368967,70.26679
0.07868143,69.53089
0.08036887,70.73599
0.26232427,69.78862
0.13025153,71.37773
0.20006253,68.54564
0.3406055,70.096306
0.2491082,73.79466
0.38691217,73.72051
0.44479585,76.27781
0.6695968,75.44234
0.71856934,76.69688
0.72612613,77.83516
0.9259087,81.00566
1.0447297,77.364525
1.1626093,79.970695
1.1819245,80.081024
1.3327675,81.86837
1.3142053,82.1366
1.301754,86.18438
1.4170717,84.44936
1.4498394,88.0073
1.5432509,81.81763
1.5936015,85.64427
1.6032202,88.21721
1.5506436,90.08904
1.535116,87.82084
1.7178794,91.37683
1.5990406,89.061035
1.5464532,91.25648
1.639965,92.01795
1.6219151,88.94105
1.6683768,91.301476
1.6070011,91.90178
1.570192,90.64048
1.5783976,87.88125
1.5900391,91.01065
1.4536495,88.95899
1.3654654,89.396675
1.3516147,92.744156
1.4022136,85.45939
1.418548,88.301025
1.2751355,85.14408
1.3038886,90.307686
1.2755301,84.36507
1.3000047,85.42415
1.2512124,84.87192
1.284746,85.6447
1.2057675,81.906876
1.2342482,83.330925
1.1891192,85.42919
1.2876922,81.57847
1.2755413,79.684204
1.2015139,80.39008
1.1442015,79.53484
1.1094404,74.03274
1.065431,80.53
1.0744677,80.50619
1.0287641,78.88373
0.9013971,77.25347
0.92973775,74.89076
0.85389745,78.12546
0.88746655,75.49622
0.7810517,74.9545
0.7966557,73.32507
0.8269076,71.92519
0.7401598,73.69002
0.75013316,73.18881
0.6857081,74.09038
0.7443012,70.4692
0.8338509,71.80193
0.71475136,72.63751
0.7576501,68.799965
0.80259657,71.64327
0.74409926,73.11568
0.7712859,73.37106
0.7271255,68.500885
0.7652263,68.73622
0.61288077,69.91618
0.5918895,68.95941
0.6151586,71.20573
0.46048173,69.33287
0.5731114,71.09268
0.55122703,68.975975
0.46318465,72.064766
0.4313276,68.7577
0.45110917,68.747894
0.38466874,70.23293
0.40358245,73.43666
0.57225376,73.57539
0.6235913,75.372665
0.6498469,77.07419
0.73620796,75.63061
0.98944294,74.06251
1.01291,77.238266
1.049774,80.32235
1.2453557,78.65072
1.3269447,79.923805
1.3452469,81.88017
1.5842003,81.29214
1.5878885,84.47181
1.5934558,84.31271
1.6589583,87.70164
1.7337801,88.15975
1.8313171,84.10177
1.9171185,85.24603
1.7553481,87.564926
1.8944087,85.33479
1.9689964,90.547424
1.8609562,89.84127
1.9676256,90.75276
1.8474311,89.754196
1.86803,93.150764
1.9018172,89.79623
1.8137866,93.27646
1.9698126,92.58999
1.8294935,86.61648
1.8383175,92.62205
1.8216588,87.66872
1.7346565,92.23217
1.6853423,86.354935
1.7067789,84.30533
1.6686889,87.170235
1.6670383,88.836815
1.6142248,84.628
1.5964558,88.15022
1.5478157,85.998375
1.5282246,85.078255
1.4885116,84.44678
1.4977775,83.48011
1.4685487,83.306
1.4262898,80.35471
1.4005207,81.02572
1.4905763,82.52738
1.29251,82.52941
1.4854839,81.66615
1.3603511,80.474594
1.2715751,81.40491
1.3259584,78.072136
1.3462212,79.93761
1.2281357,80.680626
1.099687,79.85165
1.2201592,79.35033
1.0553663,78.20963
1.1326534,78.7455
0.9766659,75.239876
0.92953074,77.76567
1.0052655,75.643394
0.9290395,73.116104
0.88031274,74.74745
0.8672717,75.20789
0.9262056,71.20471
0.899822,73.947296
0.93404114,72.19833
0.90683895,71.566124
0.9473868,67.5846
0.8876401,68.24873
0.83490324,68.94674
0.919815,68.35133
0.8122155,66.371056
0.83186024,68.689606
0.692652,69.465324
0.7514102,72.566315
0.7601697,67.72168
0.64842576,70.326126
0.55606264,69.64648
0.55659026,70.22883
0.5738345,68.55239
0.5400349,69.03208
0.59964347,70.48571
0.5591623,72.357574
0.60199463,75.18292
0.6950146,70.28653
0.8265437,77.35723
0.8977361,72.063255
0.8982398,75.28396
1.0747033,78.569305
1.1472766,79.251305
1.2802538,77.69894
1.3667749,78.65755
1.4987972,79.811646
1.5295099,79.473915
1.675864,81.70347
1.6821593,84.60335
1.7723873,83.53133
1.9160604,87.57861
1.890995,82.69463
1.7128716,87.80967
1.8794103,88.64513
1.9182115,89.12754
1.956231,89.22852
1.9531015,87.26449
2.0054986,89.797615
1.9981616,89.29107
2.055093,87.938065
1.9066572,91.209206
1.8678482,90.18433
1.8291497,89.91905
1.8941712,90.03782
1.8241367,90.07081
1.7790977,90.328575
1.758117,89.77887
1.7808741,89.58124
1.6895809,88.28549
1.6081074,85.34561
1.6147012,87.44474
1.6092918,86.95356
1.6493374,86.003265
1.5430514,86.57913
1.5706306,81.20731
1.4708009,85.31174
1.4971278,83.60255
1.4471315,81.961174
1.4588648,83.8675
1.4458905,84.900505
1.3457602,81.24719
1.3896406,81.635284
1.3564043,80.73516
1.3121395,81.252945
1.2482249,79.23766
1.2795688,81.758705
1.1873213,76.48476
1.1819199,79.22417
1.1434835,77.6231
1.0729235,76.42081
0.997631,78.098404
1.0548145,77.80091
0.90539396,76.44379
0.86385673,73.7746
0.894975,74.53444
0.8302277,76.018906
0.8372575,73.18015
0.7682972,73.53016
0.82517505,73.46643
0.7941394,75.002304
0.8054741,70.27443
0.86633635,71.81902
0.7920028,69.69786
0.8147708,70.939964
0.65255475,70.60492
0.80679715,68.278404
0.7048353,71.61591
0.60752773,69.47939
0.71235037,70.76018
0.48589042,69.47558
0.56637317,70.606606
0.48818585,70.97077
0.37323976,74.357605
0.3578456,67.479065
0.50838387,66.95471
0.425712,68.05032
0.37034398,71.6697
0.4856547,71.54821
0.36502302,76.64439
0.54574555,74.31202
0.61932415,77.645546
0.6048313,73.60069
0.6816897,74.51017
0.8709915,76.89249
0.884433,78.09985
1.1051561,76.86535
1.1053576,79.528694
1.2473749,80.61005
1.2585311,78.040794
1.4394015,81.992256
1.4980356,82.27392
1.5594959,84.30513
1.6379118,85.50847
1.5799581,85.70154
1.6629639,88.298515
1.655393,88.6073
1.6214976,90.410545
1.7310151,88.29584
1.7185464,87.90972
1.7507268,89.432755
1.6938418,92.01926
1.7868637,89.52696
1.6427915,90.088165
1.5691463,88.09682
1.7097125,89.26912
1.6372001,92.02655
1.626809,91.66608
1.5948213,90.0714
1.4746147,86.715385
1.4957485,89.06257
1.5669928,91.04972
1.4213606,87.25193
1.4815696,88.28321
1.3240947,86.730606
1.3161451,89.43303
1.2632821,86.885315
1.206757,85.100784
1.2836115,84.07979
1.050555,87.87164
1.2141557,85.644356
1.2484816,82.88479
1.1526,81.773224
1.0911758,79.53346
1.1255136,80.53302
1.089662,77.36594
1.0567394,81.06811
1.0968587,81.94388
0.9068547,77.29827
0.94498086,78.70105
0.8889197,74.92401
0.8625603,75.01774
0.83608747,82.179306
0.8295607,79.65127
0.7218521,75.156425
0.72681904,77.903175
0.5433115,74.93517
0.5721747,75.28498
0.61381567,74.32199
0.48486263,73.24431
0.45082912,72.075455
0.4412232,72.17391
0.55608475,73.376015
0.52643335,71.66292
0.48095658,69.686714
0.4902199,70.41268
0.5371901,74.02244
0.5309565,69.76793
0.40270945,69.91337
0.43514493,72.21894
0.4653461,69.44479
0.26009962,66.2964
0.39936426,67.847565
0.24720207,70.33627
0.19997181,69.228905
0.08302789,72.12062
0.059672836,72.72515
0.029466853,73.51852
0.13242751,69.50819
0.13612297,69.66568
0.03013255,68.740364
0.23391576,71.11972
0.15901275,70.74706
0.2715526,75.036995
0.4066463,74.899864
0.33348438,74.6083
0.44888598,77.7144
0.615393,77.57123
0.7135553,76.85962
0.71595025,77.73568
0.83015954,81.95501
0.94836414,80.08283
1.1238049,84.59717
1.2274339,81.2646
1.1687241,87.44797
1.3301854,83.967125
1.2741244,86.09403
1.3682437,84.15816
1.3136696,89.339455
1.3228085,84.91158
1.4345882,90.782265
1.5177616,89.83282
1.2977616,87.464325
1.4291149,89.72391
1.4404033,88.245705
1.3152906,91.75899
1.4327041,90.17622
1.3662549,89.9617
1.4102589,92.3175
1.3820484,91.89753
1.3097316,89.56935
1.186111,87.94782
1.2208166,90.853226
1.1854477,89.27475
1.1767397,87.637024
1.1556559,86.41257
1.1142427,86.88218
1.1212887,88.75589
1.0934645,83.69776
1.0399332,82.384865
1.0178202,85.53802
0.89685285,84.56313
0.98264897,84.999825
0.9162832,86.52072
0.96406925,82.91671
0.8603648,85.29003
0.9306718,81.59663
0.8390142,82.50968
0.7744765,78.442345
0.81974924,80.2666
0.73769647,83.304535
0.76561993,81.39152
0.75051874,80.80526
0.6349367,78.54358
0.672355,78.30997
0.5391924,75.70692
0.53697425,76.52293
0.43130153,75.54516
0.49769402,75.016304
0.40838704,75.687325
0.32433993,74.5834
0.32418478,74.41743
0.256932,76.13812
0.36590135,77.11626
0.3669719,74.48832
0.35923806,70.661
0.41207466,70.45208
0.4167552,70.38268
0.38813797,66.41336
0.36635393,70.30607
0.16902888,69.17911
0.23950599,70.96093
0.1838074,66.52895
0.2694509,69.51451
0.1752621,66.028305
0.11670615,70.58266
0.14701343,70.6732
0.020210922,71.69085
0.012008101,66.77669
-0.05071879,70.22477
-0.08617523,68.425316
-0.09502331,67.99662
-0.06576597,71.985054
-0.032805376,70.88316
0.0043924605,71.762634
0.091365874,74.320175
0.044124868,74.132614
0.14255038,77.78952
0.3118853,77.996216
0.38297376,78.20788
0.6236194,79.12807
0.6458886,74.10293
0.61172146,79.63591
0.8789894,82.51156
0.9436089,79.7666
1.0513815,82.41495
1.1240565,81.38763
1.1129646,83.78529
1.2337599,85.57578
1.2020687,84.39674
1.1877391,87.78905
1.3407222,85.14424
1.3386703,87.108055
1.2826889,88.247154
1.3993564,90.39446
1.3713273,90.775246
1.3833759,90.42761
1.3096647,87.39633
1.3420776,87.944305
1.3390193,91.668594
1.3494759,93.274445
1.2575319,90.571205
1.2712529,89.11251
1.2472541,92.253265
1.1956564,88.617874
1.1227196,91.824135
1.1349905,88.979614
1.1348481,87.608734
1.133566,87.22
1.0602876,85.37174
0.9797016,90.22953
1.0982987,88.17076
1.0469391,83.70056
0.94372255,85.37935
1.1013454,83.86065
0.90647686,85.27603
0.968197,83.21229
0.9798487,83.48562
1.0571122,81.183014
0.9790114,80.77175
0.9525766,81.117386
0.9686516,80.9579
0.89276993,77.0438
0.8764946,79.941025
0.6933655,78.56116
0.74857223,77.547264
0.68997484,78.6925
0.70420694,75.26071
0.6237065,75.7643
0.591238,75.406395
0.53624636,74.11004
0.52252066,70.294174
0.45549563,73.82226
0.4842854,75.38705
0.41012543,71.81977
0.39326236,74.85767
0.41074157,72.925835
0.4518116,76.42913
0.40148878,70.07147
0.521555,68.63522
0.5049415,67.05143
0.46803778,72.59338
0.5003412,68.252335
0.52529836,67.39738
0.35417694,69.88021
0.42005718,70.82532
0.1936097,69.52437
0.21524575,71.49484
0.26899078,68.877014
0.13771103,69.81045
0.12066817,68.606834
0.060569778,68.51482
0.08793108,73.17788
0.11160755,69.62206
0.03822823,72.29455
0.13781506,70.530235
0.17167361,65.99183
0.25937742,75.365166
0.2461979,72.9504
0.34964007,71.24113
0.46400613,74.34573
0.5533776,78.90511
0.6915152,76.84141
0.8255306,77.09351
0.9468632,81.30392
1.0105096,77.71772
1.1151198,83.48328
1.270019,79.896545
1.107567,82.36342
1.3788127,83.93055
1.4433794,86.75794
1.512434,84.58036
1.5994515,86.0326
1.5294057,89.15301
1.5310284,88.53391
1.6443617,88.27939
1.6024667,91.97883
1.7319626,88.00632
1.5893496,89.63495
1.6255213,89.65183
1.7578803,88.17908
1.6045309,94.76587
1.6390609,90.841125
1.6726645,87.81054
1.4344641,88.66915
1.5263796,92.951614
1.5244634,91.42243
1.4295115,88.784065
1.5529808,88.55599
1.4143418,87.268
1.395377,89.43301
1.3706157,89.69051
1.3493342,85.27296
1.3149127,87.15039
1.2791206,88.74387
1.222632,86.576996
1.2639292,87.15538
1.2118555,81.90649
1.3074982,82.56803
1.2093936,82.70011
1.331014,83.40503
1.2319133,84.59235
1.2042292,80.7116
1.1740227,81.40736
1.2296393,84.73045
1.2136266,78.80504
1.0868306,81.2631
1.1247458,79.34671
0.9654343,77.05836
0.9471372,77.18547
0.9572994,76.46064
0.9431879,79.812706
0.88577336,77.382065
0.81704074,75.33341
0.7990873,76.049385
0.758461,76.085205
0.6823738,74.395706
0.8158723,73.5943
0.80291384,70.861855
0.7087099,72.225266
0.67400646,71.57256
0.64726657,70.71273
0.64763063,68.484535
0.7988151,71.28884
0.62429094,70.559715
0.69364274,70.317726
0.6791098,70.625626
0.6334168,68.89405
0.57196593,70.238686
0.7086104,69.13057
0.5772839,69.76708
0.42433906,70.89874
0.4952144,68.85792
0.42678773,71.423004
0.457152,69.67472
0.46025485,70.9946
0.41268522,70.328636
0.44348863,71.5133
0.5336141,69.02451
0.4537756,73.02119
0.5367231,75.08275
0.5639497,75.26722
0.6457823,74.42843
0.8604572,74.81501
0.90988296,77.560585
1.14148,79.023994
1.1245049,79.26714
1.2747219,81.09229
1.3793492,80.408134
1.4454428,81.84165
1.53751,83.11286
1.6787431,84.07395
1.6075499,83.81877
1.712713,87.237755
1.8395362,85.76512
1.8471158,88.08898
1.829901,89.203156
1.8492913,88.98909
1.8717269,88.351974
1.9428487,89.840645
1.9576912,90.12831
1.9836966,90.44521
1.9647324,92.18105
1.8370327,89.00181
1.8530623,91.78667
1.8243165,87.4273
1.7802516,86.0877
1.8612171,89.006516
1.7733423,87.521835
1.7531836,88.80767
1.7301822,86.153564
1.6905755,92.38714
1.5169848,89.224174
1.6519706,90.15257
1.6381047,86.99202
1.6028762,85.842896
1.5269725,86.30363
1.5184301,84.44057
1.4997783,85.65298
1.3953516,83.256226
1.4510139,83.70788
1.4264593,82.60629
1.4912976,84.861565
1.4682598,83.17728
1.3606997,83.935455
1.4188204,79.504234
1.4218035,79.653915
1.3633989,80.34465
1.2644956,81.803696
1.2831247,80.99112
1.2241124,77.32856
1.1895635,75.93965
1.0656246,77.723625
1.0795617,82.37342
0.97147554,76.54598
1.0186872,77.2972
0.965751,74.7553
0.90901434,77.690895
1.0173577,75.54759
0.91649085,73.84773
0.971387,70.786415
0.92062,73.10894
0.89252305,74.45259
0.820441,70.4392
0.9210405,71.447395
0.86208063,69.67025
0.9246637,72.13904
0.9880534,71.12752
0.9035026,69.718796
0.7510435,68.9677
0.8162393,68.53236
0.76631886,70.2253
0.7373377,67.99443
0.67094296,68.43035
0.6564713,71.95788
0.5786249,70.32268
0.5206444,70.6385
0.5498985,67.88533
0.60964966,70.86502
0.5103078,72.05141
0.60310113,73.026215
0.6104261,74.48047
0.69909453,69.067566
0.6891041,72.99151
0.72299725,77.449615
0.9695927,76.27908
0.9493672,73.162964
1.220119,75.93731
1.2096895,76.13393
1.3819655,79.21563
1.4145178,80.10279
1.4331008,83.76768
1.6331344,82.79783
1.6144783,85.36564
1.7544626,81.77308
1.9053377,84.626755
1.8053361,87.292625
1.8658758,87.28098
1.8318106,86.10885
1.926203,86.01821
1.8831714,86.27518
1.9791598,87.81609
1.9568169,86.65044
1.9055958,88.47998
2.039258,89.50158
1.9190227,90.87791
1.8772837,88.28981
2.0374217,91.00109
1.9456915,89.62648
1.8238889,89.81736
1.7875963,88.87014
1.7470535,89.406555
1.7031279,86.57505
1.6974113,90.08551
1.5734179,90.06648
1.6610408,86.81578
1.6200379,88.74132
1.5745074,88.508125
1.5794287,89.83863
1.5204767,86.791626
1.5268445,85.38625
1.5199214,83.79858
1.3842382,83.43007
1.3757845,83.909164
1.46057,81.13492
1.5971447,82.32725
1.5157284,83.08182
1.3124734,82.345055
1.5046937,81.97976
1.350154,80.13307
1.2986561,80.21216
1.2845083,80.39496
1.1158935,79.25986
1.2067146,79.31089
1.0639259,79.23333
1.083457,77.89245
1.0201678,78.97154
0.9655864,78.53482
0.9870213,77.74751
0.9353477,72.8852
0.8602366,75.736206
0.7833652,73.898315
0.8854395,75.49382
0.8536617,70.10978
0.7820343,74.14493
0.845847,71.67219
0.9058258,71.68502
0.7614279,70.96197
0.7873884,69.97354
0.78936464,69.101456
0.71010846,69.632164
0.6517144,71.52289
0.5829314,70.455414
0.5579719,67.66461
0.60605526,66.71879
0.6311572,73.10443
0.49966905,70.890366
0.50322837,71.27532
0.544508,68.75085
0.42870674,71.139824
0.3367812,70.172325
0.45083478,71.037094
0.41477126,70.28816
0.46064997,75.611885
0.57488793,70.5055
0.5443581,72.2668
0.5937107,76.723625
0.7226936,74.57522
0.7192076,70.726006
0.88647467,78.42608
0.86588794,77.5994
1.1154822,78.861206
1.1425021,77.81738
1.2511383,82.60037
1.3518273,83.11791
1.4794984,83.61427
1.5604944,85.28044
1.5234425,85.70589
1.6444685,84.000114
1.5922015,87.004074
1.6722658,87.86428
1.6968104,87.71488
1.7799873,88.83575
1.712424,88.589264
1.5982169,86.41234
1.6526375,88.512146
1.6569477,90.495766
1.7161129,91.35368
1.6466585,90.624664
1.6607504,91.7778
1.6504856,85.87195
1.501395,87.338135
1.6837043,90.841934
1.5379881,90.791
1.6071804,89.86607
1.5340964,92.3708
1.4225782,89.91716
1.3968812,87.75773
1.3435799,86.54053
1.328524,88.6806
1.3224169,87.32014
1.3447311,87.052605
1.225903,87.6563
1.3236239,85.23251
1.1612284,85.93973
1.1916225,85.28621
1.1704427,85.00611
1.1211553,82.51948
1.1266217,81.29932
1.070295,81.01006
1.1152364,80.01979
1.0515628,80.95864
1.0053284,80.572815
0.97645354,77.18661
0.94122833,82.755005
0.95337445,74.78117
0.8444828,75.147156
0.8316284,78.1468
0.722975,78.731094
0.7477446,77.56188
0.63455206,77.05979
0.54945844,76.432304
0.661623,75.44109
0.54820466,73.48106
0.49419796,72.58796
0.58571666,74.81125
0.58351094,71.08646
0.60416836,70.893005
0.46363634,71.91275
0.5145714,70.28015
0.49876446,70.377235
0.41979098,70.21397
0.4392957,71.86149
0.5329147,71.47146
0.45116127,67.4381
0.2997514,69.40218
0.27762252,69.47238
0.31456897,65.807686
0.31795016,70.221245
0.12913555,69.7331
0.22163163,68.540375
0.18713304,69.294395
0.09336054,69.35112
0.085657135,71.07012
0.05497653,69.64599
0.09072688,69.24563
0.20495225,71.19852
0.26213306,75.08584
0.23667447,76.871445
0.39065003,77.69464
0.4540501,73.6788
0.4711095,76.32611
0.66419095,79.6186
0.6867892,75.96674
0.7940698,81.88443
0.97488946,82.474594
1.1423815,83.65949
1.1181502,83.25989
1.1960585,83.474304
1.1871747,84.37056
1.2849302,83.51218
1.2527941,85.48987
1.457694,87.43024
1.4687854,88.663414
1.5091377,86.044846
1.3744313,88.82298
1.341676,86.12981
1.4268984,89.21103
1.4419035,90.754074
1.4811823,88.294945
1.3721386,87.792366
1.4718876,89.88171
1.4838781,90.4537
1.3345926,90.36283
1.3633194,92.104195
1.3478465,91.88325
1.305368,88.26161
1.239768,87.47187
1.1121135,91.0574
1.2553269,89.83357
1.1190834,88.95381
1.0993205,88.46053
1.1013104,84.95755
1.0591,89.23548
1.0057877,86.05084
1.0528582,83.102066
0.9229816,84.12666
0.991006,86.265564
0.83809006,86.296745
0.8460463,82.042046
0.87442666,82.846825
0.9566953,81.75016
0.70634097,81.26741
0.78017336,80.736664
0.77369255,78.45568
0.79282045,80.078804
0.80178505,80.585884
0.64913076,80.5666
0.73888195,78.46482
0.6284885,78.6933
0.584878,76.39218
0.5137706,75.89734
0.4372475,75.3863
0.44607925,73.79068
0.55442095,73.750694
0.32587096,75.359276
0.2999213,75.07186
0.29321176,71.74593
0.3239713,72.337814
0.356193,74.96916
0.361434,71.74664
0.42186508,69.866425
0.38969076,71.35343
0.262159,70.783134
0.29269424,71.44706
0.26553696,71.31417
0.33259034,68.58973
0.2440173,70.157875
0.259954,66.91739
0.20270373,67.110825
0.12521821,69.16206
0.066543825,68.91702
0.13524814,72.408104
-0.06409468,69.934425
-0.104279086,69.30659
-0.03852336,71.553276
-0.06098232,71.14429
-0.048996728,66.64438
0.0037546123,71.47577
0.042249057,70.87352
0.14252944,76.517166
0.17595099,74.313965
0.38921186,73.22126
0.37313938,77.04296
0.4500899,75.82852
0.6508837,78.552055
0.6734798,77.71154
0.7939463,78.35066
0.80948794,83.86617
0.9658911,83.008156
1.0467198,82.96957
1.1629539,85.3495
1.1562537,85.12812
1.2048354,86.89221
1.2535104,87.73381
1.3275957,88.72605
1.2353284,86.12618
1.3483022,92.31969
1.3979533,88.4762
1.3165361,90.89725
1.3191001,86.554016
1.3557205,89.83224
1.4006122,91.98702
1.347098,87.50849
1.3751262,88.643196
1.359853,91.0854
1.3336216,89.77924
1.1642742,89.52037
1.2979206,88.618065
1.1665176,90.99892
1.262227,88.94974
1.1524087,88.53402
1.1375122,88.35666
1.1428283,86.83248
0.9631163,83.55213
1.0352794,87.37356
1.1012099,85.19492
1.0238575,85.77292
0.94455457,86.7258
1.005757,81.37755
0.9266599,86.428055
0.8850429,82.56871
0.9186471,79.20521
0.8878449,81.36043
0.8727983,79.646675
0.906414,83.16276
0.83931595,78.42119
0.83008116,79.73434
0.7773736,82.754875
0.6767292,77.87867
0.74279326,79.69902
0.74984545,76.99665
0.58787155,76.35434
0.46968046,76.92919
0.5468307,76.115005
0.5563486,76.80501
0.5028536,76.619385
0.36057243,73.94611
0.3795497,71.521614
0.4711152,73.141106
0.44552037,72.915306
0.52400696,74.64925
0.3442863,75.839485
0.47005355,74.409874
0.47366288,67.39455
0.5181652,73.59067
0.46323362,69.51567
0.33645874,69.05889
0.32665825,71.37926
0.41455382,68.17794
0.2659101,69.52725
0.24337956,69.056015
0.23322554,66.34053
0.2125446,68.979996
0.0994759,67.5082
0.2027338,70.44729
0.07343368,70.3278
0.025485903,71.7223
0.07983204,72.447556
0.05393871,72.38181
0.16369061,71.48594
0.09674485,74.60162
0.3025026,73.40718
0.3257102,74.90588
0.4566993,71.94678
0.4292386,76.77253
0.57294387,76.22964
0.6704569,81.3992
0.7742988,80.160645
0.8647254,79.61971
1.0721396,82.49937
1.0939574,82.70759
1.1840018,83.25688
1.2614301,81.731285
1.3875265,85.73813
1.358271,83.73309
1.38318,81.99427
1.4916832,86.68916
1.4238603,88.488655
1.4498166,85.685036
1.5688801,87.46652
1.6472981,89.99266
1.517419,87.61777
1.518968,91.50952
1.5564585,91.006035
1.6543151,90.89791
1.5822083,92.12165
1.5952972,88.727615
1.5175242,90.15011
1.5486093,90.90055
1.5533288,92.294876
1.4848149,91.181076
1.4364791,91.291664
1.4176705,86.25734
1.3282388,85.04181
1.2861087,86.457275
1.2226595,89.34238
1.2473558,85.37043
1.1880711,87.805885
1.2191976,85.85677
1.2570114,85.24087
1.1581874,81.43548
1.1751863,84.41654
1.1473156,83.41919
1.1397897,84.79247
1.2908398,84.78989
1.177637,84.39418
1.2221036,83.37626
1.1127038,83.24381
1.094118,80.74324
1.0215377,77.38408
1.0322001,80.54881
1.0657051,78.67973
0.938524,80.24844
0.80982804,81.45785
0.9555461,78.05864
0.81510496,76.78834
0.6928245,76.342964
0.7733818,77.179115
0.8206413,78.52962
0.7428867,75.75693
0.6789044,73.24785
0.68502903,71.960724
0.82002693,74.75249
0.6732573,70.28847
0.7370844,71.97402
0.7323091,73.438034
0.7366975,68.16496
0.7054125,69.81562
0.68722177,71.92214
0.637272,69.13158
0.7156456,69.30662
0.7093383,66.81219
0.63389754,67.15824
0.61835533,69.31931
0.5346345,70.33835
0.42755958,66.97762
0.37339962,70.90895
0.34706685,70.57605
0.39528346,71.481926
0.38292807,72.40266
0.3329761,72.724236
0.43869773,69.70697
0.5198511,74.17396
0.5394319,70.27927
0.4539281,72.66248
0.6712601,72.7764
0.70989513,76.518036
0.8287896,79.14314
0.9450239,75.43383
1.0851327,78.64683
1.169559,79.55105
1.2636563,78.5752
1.3802295,80.52385
1.4788285,82.52542
1.570023,81.09361
1.635399,83.40245
1.6372308,85.39677
1.7709022,86.27403
1.6869032,90.23023
1.715828,86.91413
1.8917043,88.82233
1.9281727,88.34523
1.9739124,88.10911
1.8104309,88.56593
1.9065112,90.374695
1.8591319,87.73329
1.8515004,89.59385
1.8899206,91.53488
1.8792425,95.325775
1.8954716,87.538345
1.8681934,90.37615
1.7635316,89.24281
1.7413087,89.55317
1.726309,86.878654
1.7442178,88.09164
1.6276853,87.62167
1.701034,87.31118
1.6798879,87.43655
1.5936242,85.68937
1.6052465,90.42233
1.42357,86.40193
1.4999211,82.73175
1.517271,84.07664
1.4587278,84.34727
1.4291097,81.39822
1.442375,84.65786
1.4162672,82.57791
1.4453187,81.49182
1.4032906,80.127464
1.4177798,81.17865
1.3401713,79.38883
1.378286,80.65054
1.2965353,83.18955
1.294199,78.565735
1.182889,79.93759
1.21078,78.99678
1.1634715,80.17571
1.1420686,75.65984
1.127011,78.88171
1.0394179,74.274284
0.96477425,72.49543
0.91458565,73.553154
0.93560594,74.00884
0.99358624,72.228615
0.91628885,72.840126
0.9487018,72.97851
0.8690928,76.36484
1.0214419,71.85675
0.995711,70.91874
0.98016334,68.18707
0.79279613,71.284424
0.8852871,67.45202
0.83448964,70.90113
0.89321786,67.494576
0.73669785,70.627174
0.724159,68.764305
0.63810796,69.190475
0.6479356,67.11545
0.6287866,70.87416
0.5213725,70.17812
0.4802161,67.915245
0.6420096,68.29561
0.5612087,68.94073
0.61731607,71.20184
0.6926432,71.581184
0.73107,76.09445
0.76428026,73.05995
0.81425744,74.75692
0.8432237,75.2499
0.89877987,74.78113
1.0032221,74.01178
1.1496922,76.39392
1.347366,82.023315
1.4009272,80.312065
1.4507971,82.12125
1.560079,82.70762
1.5582372,84.67369
1.6636326,82.032394
1.7928977,86.0447
1.7572137,88.71888
1.761663,84.57856
1.8568864,84.353775
1.9406837,86.34183
1.9440173,87.34369
1.9897184,86.29659
1.871848,90.04825
1.873752,87.909706
1.8987116,88.012184
1.9144819,91.1695
1.9380683,93.373314
1.9129872,90.45212
1.8878514,88.82282
1.773733,90.89206
1.8923094,91.17766
1.8742231,88.059746
1.8369956,86.0733
1.6670612,89.70566
1.7460932,87.43866
1.5448787,88.183815
1.6406846,90.22139
1.512506,84.01333
1.5174221,84.6656
1.5115516,86.91959
1.5239923,83.96402
1.4355974,87.784775
1.3960576,85.148605
1.4291052,81.272354
1.4297292,81.866035
1.4811144,84.7111
1.5360497,81.54056
1.3591349,84.04465
1.3831763,80.75702
1.3828775,80.93724
1.3810825,79.29572
1.2524437,79.11936
1.2005705,77.88043
1.297938,77.23756
1.1799574,82.70242
1.2188615,78.02723
0.96407455,75.64776
0.98962915,73.56853
1.0009129,72.42071
0.88038886,75.13986
0.9846487,73.29665
0.9189356,77.91903
0.8921913,71.44196
0.9170332,71.90492
0.83480614,72.13839
0.8201266,73.68551
0.7722474,69.38762
0.8520444,70.10515
0.814446,68.69252
0.78661793,70.038925
0.76835346,66.503716
0.785628,71.72977
0.7757983,66.79421
0.72683835,68.598465
0.63668877,69.17974
0.65129435,71.4634
0.4683258,71.85915
0.47415867,70.8488
0.54377365,67.86667
0.39159927,68.41537
0.42309368,70.99357
0.45468882,67.94892
0.48420143,71.09874
0.42110276,69.68244
0.5755605,75.93606
0.543753,72.03971
0.66112465,73.79725
0.70533955,78.47133
0.66933477,76.21004
0.74866337,77.01844
0.88653266,77.90746
1.0799843,77.04351
1.1160417,80.781265
1.2946509,83.575096
1.4650415,81.09033
1.3473774,83.18679
1.5088345,83.6488
1.5108241,85.5924
1.6376212,82.405754
1.603253,83.9229
1.6460088,85.2293
1.7138411,85.81717
1.6257917,89.08588
1.7621349,89.71491
1.7214441,89.04393
1.7391902,89.80764
1.9115903,89.617805
1.7210301,92.14369
1.7285767,91.84412
1.7347119,89.844864
1.7325382,90.17203
1.6705384,86.73882
1.6805602,92.515465
1.7528995,89.9565
1.521972,86.265274
1.5857681,89.72644
1.4988667,91.26001
1.4165168,88.53858
1.4671774,89.21926
1.400362,89.70105
1.2565343,82.557045
1.3378507,86.84656
1.2991823,84.81304
1.2279928,86.32652
1.277381,84.33635
1.1886455,84.814224
1.16683,84.117294
1.2174374,82.4138
1.1264993,78.85967
1.1638149,82.95596
1.1922054,78.41337
1.1495538,80.24951
1.1009426,80.63411
1.0347131,80.26145
0.93862116,78.87097
0.984842,78.210724
0.8982728,79.196724
0.9102658,78.562584
0.7994471,79.92509
0.75704217,78.15706
0.6874712,75.85377
0.6040272,73.81069
0.59483093,77.96002
0.6011355,72.070724
0.6904803,75.276855
0.54059124,71.042625
0.48635057,70.620766
0.5695762,73.800446
0.5477846,71.954926
0.5480672,70.42833
0.58570075,71.0389
0.48469305,71.17414
0.44358793,71.15915
0.51748675,69.42595
0.39529225,68.229416
0.37761813,70.12828
0.45685536,71.09071
0.42237252,71.535645
0.27123207,68.02105
0.27424195,71.34301
0.14244394,69.61745
0.15395755,69.89258
0.15009871,69.04508
0.09994036,71.47378
0.08798788,70.10029
0.098761216,71.95252
0.112402774,71.941055
0.13045503,73.256004
0.20671439,74.50174
0.30790412,75.26019
0.44599527,76.7211
0.53036034,74.39424
0.7223258,78.00852
0.7164553,75.30616
0.8528462,77.68777
0.97480583,79.74183
1.0317341,80.2734
1.0796031,83.08222
1.1234332,85.85623
1.3401579,85.72276
1.2606308,84.096664
1.3051271,85.0831
1.3193684,85.01752
1.4356164,86.97652
1.5519987,87.65658
1.4523679,87.41659
1.4216535,90.80547
1.4353199,90.69241
1.4746429,91.1845
1.5145776,93.84245
1.5393109,90.86389
1.3891318,91.10099
1.4668466,91.6441
1.3442639,91.517426
1.3926016,88.14026
1.3255819,89.8305
1.3457581,87.42509
1.2742271,90.35611
1.2150161,90.03547
1.2224556,88.96856
1.1248543,85.526344
1.032699,86.39794
1.1345961,87.95563
1.0216217,88.921524
1.0409027,84.96711
1.1151553,83.71367
0.93644845,84.37036
1.1000316,87.015434
1.0050555,84.94654
1.0681651,83.77615
0.9625323,83.41206
0.82048404,85.27882
0.90526134,85.20257
0.88345325,82.014496
0.92417526,79.11729
0.8503937,81.79377
0.8079931,83.012
0.7985402,77.99999
0.56856567,79.982185
0.5611417,78.3354
0.53205276,75.827576
0.5527869,75.28808
0.50619423,76.25608
0.45457515,75.64546
0.43176782,71.68147
0.37239897,75.278076
0.39793137,75.28509
0.41989693,73.73366
0.34485504,74.71915
0.3931254,70.60069
0.34239766,74.31023
0.34176952,71.58989
0.29890525,69.718185
0.38234103,71.03277
0.29344222,71.10672
0.19578713,67.715775
0.22615582,72.00054
0.26578864,70.38813
0.12650244,72.463974
0.16333087,69.03165
0.13844135,66.296585
0.051069405,68.58743
0.008171947,69.07743
-0.029409373,66.573456
-0.06098653,70.99634
-0.07203553,68.25008
-0.105219774,69.8373
-0.06313314,72.10169
0.032873735,72.14815
0.09087297,74.24077
0.054294467,71.692215
0.09957272,73.99188
0.09452211,78.59
0.3933013,75.94703
0.41659427,77.85012
0.6038217,78.41195
0.6979372,80.33447
0.64282465,81.42343
0.86370295,79.27781
1.0314881,78.23127
1.0032986,82.31566
1.1209476,83.88104
1.1869463,85.08603
1.1737509,83.452034
1.2099541,88.778435
1.2271886,85.950195
1.2420092,85.61677
1.4146107,88.11624
1.3361988,87.967445
1.2949543,86.03995
1.4528321,91.32585
1.4502816,89.989105
1.4319665,89.88974
1.2686486,90.59466
1.3016086,89.396996
1.2201064,92.70985
1.4394352,87.51002
1.2821772,87.82831
1.2409674,88.31174
1.1973664,86.45867
1.1180264,89.12973
1.138914,88.984634
1.0662283,86.604805
1.0533471,89.33358
1.0740229,87.07254
0.9566012,87.40918
0.97004145,86.35184
0.9985271,84.720604
0.98865396,83.73242
1.0351638,82.99907
0.9746431,82.790085
0.9199616,85.02763
0.95952964,80.15886
0.81716156,86.12148
0.90340143,80.9566
1.0153055,81.29111
0.9060189,79.16672
0.86042005,78.48248
0.8576188,77.91611
0.7286312,76.49556
0.7544991,80.82172
0.73237115,76.46965
0.64171165,79.3518
0.53610444,77.532524
0.57737654,77.44779
0.5204825,76.55751
0.5406145,75.05417
0.46339062,77.04008
0.4883111,74.69598
0.5253771,74.33504
0.44844633,72.72064
0.46644413,76.52955
0.42716998,73.13246
0.24735923,73.05913
0.36596033,73.33523
0.3375543,72.094246
0.35055804,67.78411
0.37137187,71.46031
0.27688682,70.27038
0.30937034,68.427284
0.29350743,67.0807
0.28114536,68.1444
0.25485918,69.68602
0.17197654,68.314674
0.11993324,71.79803
0.002810096,72.03971
0.12784646,69.982056
0.033596482,70.0712
-0.0029797782,72.44835
0.09115566,68.7451
0.059838876,68.88772
0.10732557,71.40705
0.19379678,71.05977
0.38940272,72.87629
0.39316526,75.873764
0.44557306,78.41098
0.4936904,74.074196
0.5258268,78.22466
0.8189542,77.97674
0.7476951,78.477516
1.0228034,82.40837
1.0350772,79.98416
1.1528031,83.90112
1.2341132,81.977455
1.244092,82.717354
1.41916,87.46103
1.3887875,86.00653
1.5275861,87.11032
1.5022637,86.320076
1.5158384,86.75113
1.3677467,88.82907
1.5975442,86.55802
1.7400142,87.85177
1.59083,86.5437
1.5763496,89.85546
1.5669357,90.67422
1.5402263,90.39098
1.5941985,92.14244
1.503302,91.682144
1.503384,90.04587
1.5330259,89.470604
1.484959,89.468506
1.4359392,89.42725
1.4175693,86.38851
1.4102893,86.18626
1.3164055,87.9288
1.2706476,87.89811
1.2843916,87.61874
1.2274319,88.65292
1.2223133,87.50537
1.2046694,85.45301
1.118591,86.395515
1.1912769,85.7983
1.14157,83.81456
1.2602735,83.129364
1.1528052,80.44801
1.1192356,80.69981
1.1678482,85.7728
1.1329857,82.07593
1.0707587,82.39005
1.0776529,81.82502
1.005029,80.81526
1.0975001,82.0482
0.9168904,81.38978
0.9725767,77.65981
0.8208459,79.79295
0.7442442,78.351814
0.859134,77.27007
0.8518714,75.08871
0.7385962,74.52535
0.6893153,70.82279
0.694305,73.996956
0.7761356,75.55991
0.6310999,74.79637
0.64129514,71.24517
0.6625867,72.62641
0.66904336,73.20608
0.66342574,71.217445
0.70677155,70.20244
0.73261166,73.93193
0.6471373,68.975395
0.7584198,74.33858
0.53763795,69.642784
0.56482184,68.00026
0.60095143,69.239716
0.38534373,71.06453
0.5397447,67.48609
0.4462126,70.64634
0.32717443,66.85197
0.33209625,68.07906
0.3292644,72.89132
0.3557471,70.2525
0.382519,74.04983
0.34145254,71.86869
0.4186116,72.9681
0.42058343,72.668175
0.656774,75.12579
0.7732238,74.99833
0.77771723,77.08404
1.0427448,78.438866
0.9548006,76.14219
1.1705296,76.7635
1.2373914,83.22723
1.3550526,80.33254
1.3537923,82.79087
1.5649352,86.376434
1.5129684,82.93102
1.6394815,84.017265
1.6787455,86.44788
1.7343942,90.577934
1.8143598,87.31642
1.830282,83.76227
1.9096693,88.83539
1.8859729,89.0738
1.9207087,89.29554
1.8743618,92.78218
1.8203319,87.58937
1.7558292,92.329
1.8473536,86.46345
1.8107973,89.96697
1.8368089,86.5943
1.7313364,90.9091
1.8248508,87.0573
1.7515265,94.481804
1.7536525,90.28212
1.7320715,88.695496
1.6572354,90.56045
1.5856982,90.50677
1.5629176,89.18721
1.5340425,89.23099
1.6075699,85.25701
1.5318568,86.783806
1.5429869,84.13792
1.4309462,84.12457
1.4657624,86.139114
1.47876,81.61639
1.4772303,85.21882
1.4922857,82.938484
1.4483744,80.57856
1.3525267,80.734535
1.4192715,83.837685
1.296143,80.08587
1.4678515,79.802414
1.316175,78.41334
1.3411179,78.65144
1.2729716,77.50812
1.2669214,79.08979
1.1965795,75.10495
1.110779,75.595505
1.082578,76.01915
1.0265281,76.84196
0.9520129,77.4727
0.9127185,76.77095
0.98952466,74.20966
0.8772289,73.97845
0.95596254,75.00203
0.8459421,71.04921
0.80734277,73.75987
1.0049236,69.9119
0.837272,71.89526
0.8191564,70.225975
0.84174806,70.15953
0.85465616,70.39477
0.82256776,73.81482
0.8314775,70.673225
0.8423939,70.89359
0.694415,71.672066
0.6877252,69.29795
0.6751924,70.86546
0.60797644,70.609314
0.6193428,70.70169
0.67399484,71.121155
0.60821074,68.48165
0.5743866,72.271545
0.5830781,69.35035
0.5316695,71.44015
0.64324707,72.365036
0.5366266,73.57099
0.79534787,74.63624
0.7927837,71.77465
0.9880976,75.153046
0.9065556,77.94628
1.1222208,75.15739
1.225999,77.228065
1.3054904,76.390434
1.5642871,81.83579
1.538179,78.84269
1.5172691,81.855484
1.6415912,83.468216
1.7643373,85.927505
1.851655,85.50803
1.8539805,87.75925
1.9027878,85.52868
1.8328924,89.028175
1.9151543,87.98027
1.8673193,92.49535
1.9835334,88.10554
1.9467942,91.56726
1.9033352,90.43702
1.8930713,88.868095
2.035139,90.09735
1.9504659,90.25811
1.8259848,87.66916
1.9227753,91.40109
1.8509932,94.1988
1.8330857,89.4486
1.783537,88.776115
1.6817822,91.18198
1.6563861,88.6766
1.6103657,85.83964
1.6389059,88.9429
1.5555992,87.6629
1.6284357,84.614006
1.5939566,86.01403
1.5762483,86.65704
1.5139196,84.55535
1.4984589,85.94703
1.608162,84.206245
1.4656256,82.386284
1.4779005,82.68788
1.4634056,84.415436
1.540488,81.69687
1.4406158,81.68555
1.4835056,81.89004
1.3646275,79.94324
1.2616242,80.6326
1.1892335,80.694115
1.2226903,76.61869
1.2029107,78.45698
1.158013,77.93253
1.1191396,79.6262
1.1589355,77.14625
1.0128076,75.05133
0.99096626,77.001656
1.0073507,74.22667
0.86184365,73.86233
0.8913632,75.7856
0.89708275,73.06561
0.94867265,71.7156
0.882432,71.80972
0.790352,67.70673
0.80335504,71.11058
0.7674623,67.61168
0.912249,71.50305
0.8159926,70.62616
0.8344716,66.28551
0.81133467,70.816444
0.7259345,67.79752
0.69618624,67.591034
0.59828377,65.961426
0.6210839,67.882454
0.63878745,70.888176
0.5187424,67.904625
0.37666374,68.85376
0.54181045,68.5932
0.5039124,72.27498
0.4600439,71.16114
0.3792841,72.83586
0.3981697,69.97292
0.49966198,72.74182
0.6207566,71.554794
0.58296645,69.27858
0.76572365,72.70562
0.77115744,73.93154
0.9338448,75.91646
1.0155208,79.52814
1.0923377,76.79157
1.1217506,78.06002
1.3402066,80.41944
1.4125621,82.695274
1.4626045,83.88349
1.5683942,82.82798
1.5775588,82.83876
1.6499273,88.33553
1.8001138,85.81428
1.7707919,91.30372
1.703133,88.93402
1.668492,89.67879
1.9110922,87.59205
1.7463515,89.29289
1.8145934,90.95018
1.8233091,90.929436
1.7397217,92.4056
1.7178792,92.35281
1.7786045,89.608475
1.6537303,94.74985
1.6472238,90.71316
1.6383644,88.840675
1.6297631,94.27918
1.5396473,92.86843
1.5159155,88.15447
1.4922628,85.23492
1.5408766,88.4915
1.4011099,89.55736
1.367131,88.09791
1.3670645,82.96719
1.2463531,89.06918
1.3197656,85.875244
1.2648869,84.76843
1.3840109,87.09215
1.249461,83.88732
1.1690767,82.570656
1.1256622,79.98118
1.1868247,81.54557
1.0806489,85.22232
1.0543023,81.59285
1.1858206,76.031654
1.0214349,79.69152
0.99698186,80.33546
1.000088,80.51308
0.9601805,76.94641
1.0101298,80.267624
0.92753106,76.8418
0.7880888,80.39318
0.77828807,76.88623
0.638079,73.82579
0.6739016,73.47595
0.60802525,73.66463
0.59678006,71.55202
0.55910015,75.93511
0.72621864,71.92264
0.6635706,73.924515
0.6937867,73.04212
0.6586172,73.53512
0.59062636,69.17084
0.5425879,73.70609
0.5116538,71.03188
0.5514952,68.164116
0.6037416,70.58191
0.43809253,69.87484
0.39575982,69.545746
0.39581966,69.37764
0.4344334,68.25365
0.2802584,67.675934
0.20737979,67.26117
0.17984135,66.646774
0.25184718,71.62091
0.10462356,69.75292
0.11663131,73.43294
0.106847286,72.49973
0.092482254,72.54518
0.25654748,72.65144
0.223795,70.44977
0.2942862,69.95227
0.45832175,77.6356
0.42700544,71.47111
0.55492175,77.492424
0.6579615,78.17473
0.7599466,74.57214
0.9022699,80.38039
1.0375872,80.555466
0.9397065,82.4414
1.0954674,83.551895
1.2497886,81.685234
1.2879809,82.45445
1.3411607,83.76046
1.3805786,87.345406
1.4168807,87.34788
1.3719871,87.9892
1.4276619,88.67475
1.4713868,87.39266
1.5721915,91.10105
1.4215997,89.87557
1.4961569,89.85554
1.5109497,87.70509
1.4510167,88.89352
1.4214238,90.79184
1.434191,92.46927
1.3338808,87.21732
1.3752942,86.359
1.3896071,91.705696
1.31633,89.572495
1.2806913,85.289474
1.1828458,86.5854
1.2814856,86.29061
1.158623,84.434296
1.1464739,87.11678
1.0416576,88.08663
1.0764332,86.61441
1.102988,85.2291
0.9650871,84.02082
0.91181934,83.962944
1.0093004,83.76305
0.9296818,86.32815
1.045881,81.74237
0.9030198,84.1156
0.98509103,81.05744
0.917615,81.77228
0.85136616,83.03601
0.8269548,80.34997
0.7816567,79.671135
0.7242641,80.280785
0.7795652,77.62194
0.5477457,76.760895
0.61092496,81.89444
0.57620203,75.49575
0.5161168,78.49724
0.47669357,76.12782
0.5175482,79.00978
0.38347942,75.02466
0.32205263,75.04291
0.28632239,73.52411
0.41799214,73.948586
0.31624475,73.72555
0.37892243,70.81409
0.34484857,73.03699
0.28926843,71.54364
0.3606741,72.67437
0.31891188,68.54024
0.3433046,69.28359
0.32567453,68.069534
0.21316761,69.607445
0.20568913,68.64613
0.22490682,67.631355
0.038190037,69.36629
0.054644726,69.990715
0.08793761,68.70129
0.047935944,68.52337
0.06285873,67.81595
-0.058015157,67.83657
-0.017797008,70.5351
0.013939606,73.11452
-0.054410927,72.62834
-0.026943468,72.12089
-0.03710683,75.84468
0.056993105,73.03574
0.14781405,71.61425
0.27010956,74.157585
0.39992937,78.66334
0.5294612,74.89607
0.40723845,78.736984
0.5891195,79.87663
0.77371866,82.216675
0.9229615,82.705376
0.9700209,83.03811
1.0833747,83.81534
0.9964314,80.84589
1.2583638,84.21388
1.0984324,85.49117
1.2959219,86.27756
1.2670666,88.833176
1.3158861,86.59569
1.3303478,88.017334
1.3624687,87.95718
1.3595601,89.76862
1.3810306,89.87124
1.4254133,90.01037
1.306163,89.97555
1.3417554,87.675804
1.2965152,88.31269
1.3894472,89.13979
1.3041357,89.00759
1.2180028,90.221855
1.1659224,88.03072
1.2523924,87.31115
1.132964,88.41263
1.1395653,90.543236
1.1328497,87.79538
0.9957002,88.31547
1.0631955,87.5651
1.0945776,83.20099
0.9506915,85.53974
0.97762495,83.65881
0.9680535,82.19046
0.93552643,81.1513
0.9399993,82.60713
0.9083587,78.81854
0.97895557,82.38164
0.8763859,81.91491
0.909118,83.44558
0.86277145,82.19502
0.91913694,81.30199
0.84620804,79.257126
0.792802,77.03792
0.83447695,80.47196
0.6616489,79.54683
0.661665,78.7385
0.6505917,74.8461
0.6258167,76.74994
0.5479528,80.05804
0.503397,74.6038
0.5581157,76.944466
0.35614902,70.37732
0.35419184,72.103615
0.4013052,75.09245
0.4392201,73.557686
0.4507802,70.16713
0.49876907,72.135086
0.4633887,71.64944
0.37203977,70.62044
0.37931025,71.11313
0.3529883,75.9762
0.3692194,68.776825
0.41518128,69.86432
0.26384646,67.044304
0.21634063,69.77604
0.17687874,70.32789
0.2944666,69.2352
0.10892683,70.43144
0.031361967,70.44148
0.10550245,71.06672
-0.01506666,68.71557
0.11894001,70.832985
0.18116622,71.56464
0.06850874,72.16378
0.09014861,71.62653
0.077088855,72.55391
0.2614447,74.985405
0.29646447,70.95076
0.39862475,73.93846
0.49187815,74.62091
0.48472807,75.43612
0.62556237,77.10127
0.75179034,78.46674
0.878386,81.043884
0.9357667,82.98199
1.0654699,82.26322
1.2515017,82.05747
1.320034,84.59485
1.2448208,85.2185
1.3827852,84.68191
1.2980465,85.64127
1.4823353,87.97715
1.4299746,87.0712
1.5312691,90.847694
1.54165,86.683685
1.5566924,90.291435
1.5156986,90.48794
1.5976541,89.8743
1.676089,90.55195
1.5197461,88.19479
1.5673453,89.93001
1.6003345,88.95641
1.5623093,89.48124
1.5474339,94.6118
1.4159901,92.101456
1.4423486,87.99266
1.4429588,88.68546
1.3254128,87.90479
1.293468,85.558876
1.3555381,89.09971
1.2194886,88.95967
1.3240032,87.948166
1.1829375,86.191444
1.0962464,83.747635
1.2221184,82.27464
1.1954288,84.9961
1.1689185,85.338135
1.1972752,83.74912
1.1641356,82.689354
1.1877013,81.24905
1.071429,85.7231
1.040211,80.99191
1.0923375,80.03669
1.0586805,78.79909
1.0461965,78.48427
1.0677806,82.083595
0.9244817,76.176186
1.0134566,79.20132
0.9094508,76.50979
0.8544972,76.76239
0.74428964,79.791595
0.6990495,77.21619
0.7066218,74.41352
0.6988652,73.407326
0.79432887,75.066025
0.6471377,73.014275
0.7090583,74.890434
0.61011803,73.868935
0.8110011,73.44862
0.6568699,72.95657
0.6744043,72.70757
0.6201298,72.72016
0.72752446,70.9377
0.5816137,72.36088
0.63702554,69.77202
0.65232784,70.12486
0.58513325,65.64678
0.6255531,67.90212
0.48941237,70.70995
0.35896394,70.0891
0.5851009,71.707085
0.3882182,67.09508
0.41922545,71.838356
0.3339251,72.29069
0.31139007,71.99361
0.31929743,71.16111
0.3701799,70.82208
0.4225669,74.645386
0.38815546,72.14539
0.5724577,71.98914
0.65009224,73.06827
0.72133976,77.82524
0.8982588,77.10743
0.9339441,76.241585
1.0663724,80.99476
1.108687,79.93274
1.2089026,77.07685
1.3518705,82.41428
1.4499654,84.00539
1.5350112,81.55993
1.4837563,85.18364
1.5942106,86.92845
1.6059818,84.24191
1.7571409,88.71954
1.7230655,87.28221
1.7966626,87.50979
1.719828,87.35348
1.8049009,88.86947
1.8230083,89.66772
1.9598025,87.47205
1.7749935,90.1056
1.9068578,88.53751
1.9269818,92.87461
1.8515135,88.22821
1.8602386,90.791
1.8693037,90.83511
1.6708057,91.38691
1.8317024,89.92234
1.6435671,91.77497
1.5597478,86.55036
1.6601143,91.98269
1.5929644,85.95034
1.5480305,91.23812
1.5323507,83.942085
1.5710566,85.75635
1.3014233,84.53925
1.4858513,87.19312
1.4923646,81.62938
1.512165,85.405685
1.4905192,82.410706
1.451941,85.40959
1.5116341,83.96777
1.4724268,80.88847
1.4748079,81.979866
1.3600776,81.247406
1.3509805,80.82785
1.2485311,82.06926
1.3701056,80.34657
1.2109494,77.05477
1.1676517,78.18812
1.1566929,78.25566
1.0723327,78.95907
1.073438,71.5955
0.9963795,78.694374
1.1321844,75.94002
1.0105319,73.208984
0.9364866,75.96456
1.0195239,75.011116
0.9713286,70.86975
0.8681227,72.362144
0.92743254,70.81948
0.84695977,72.29079
0.9353414,72.4108
0.9565386,71.46421
0.8791205,71.05612
0.84464175,73.457
0.86081964,69.56124
0.6622566,69.783104
0.83520097,74.324356
0.7710265,72.57897
0.761967,67.52886
0.746022,69.40968
0.713028,69.60387
0.5823463,69.23256
0.53624,71.56873
0.5499632,71.28535
0.5490832,71.6603
0.43683547,68.90737
0.5821098,68.02313
0.61177254,72.791306
0.66134876,70.54656
0.66205925,72.101814
0.80355394,74.57396
0.8818355,73.63792
0.9415325,73.82707
1.0157332,75.4843
1.1871554,75.44708
1.2273676,78.67473
1.2628185,78.599174
1.3894448,80.77782
1.6368426,81.50976
1.668043,81.9136
1.7038776,84.88343
1.8125589,84.25926
1.7965437,84.76557
1.9115405,86.20897
1.8829898,90.25618
1.8886232,87.201675
1.9109544,88.75688
1.926461,90.03102
2.0495217,90.928986
1.9385847,87.431526
1.9230039,89.07003
1.9389095,86.893105
1.8820448,92.389084
1.9411083,92.510376
1.9301016,90.63
1.9755055,88.46658
1.7623876,92.314445
1.7597959,90.72499
1.6755464,91.215454
1.7748137,87.96966
1.7745991,89.56677
1.7305552,90.46118
1.5722524,90.42762
1.7068716,87.11065
1.5395299,85.65016
1.504133,86.66589
1.5458392,84.96807
1.5041212,84.63818
1.5555989,81.82986
1.4917818,82.6285
1.538958,85.87917
1.4626999,80.690445
1.5297688,81.607315
1.5431471,84.610085
1.431449,81.81331
1.3617896,79.88058
1.4965376,79.23825
1.4145217,78.19098
1.3566234,79.85345
1.1875733,81.02396
1.1869295,77.36578
1.1629857,76.58749
1.1423227,78.4879
1.0381695,77.98369
1.0560848,78.07743
1.1013747,74.23687
0.8650364,79.607285
0.9025738,75.49311
0.800756,75.215096
0.8288051,71.907234
0.9261989,71.168945
0.88195115,72.906586
0.8690797,70.89526
0.72243744,72.281784
0.9031076,74.11878
0.8923317,70.82472
0.8633078,67.13399
0.8290026,69.65258
0.7719743,69.73568
0.6988549,70.61854
0.6611341,69.95434
0.4908107,72.83527
0.49058074,67.720795
0.58076423,68.17618
0.5384906,71.033615
0.40691125,71.00044
0.4905076,68.9408
0.5120947,71.7723
0.47890708,67.81928
0.43116263,71.926895
0.5746568,72.22823
0.5863066,74.82765
0.6679607,74.364815
0.69171953,76.02241
0.7806423,77.56462
0.8902517,73.314156
0.92358565,77.45346
1.156447,76.57339
1.2524664,78.37842
1.3518056,82.469795
1.4584887,82.438324
1.3581154,81.91285
1.5624603,83.52228
1.5511221,85.243935
1.7724613,86.08956
1.6663873,84.68492
1.7083677,89.60357
1.799526,90.54201
1.734967,88.60295
1.7915118,89.20972
1.7073538,88.69894
1.759813,86.85434
1.8668367,88.6794
1.8430108,88.53436
1.7703664,89.43411
1.7801052,88.239975
1.8024966,91.55306
1.709186,90.56811
1.6014909,89.65437
1.5667968,92.089645
1.6313671,91.661865
1.5778718,88.10501
1.4387578,85.92512
1.5100298,91.921234
1.4446093,87.21038
1.3846312,90.42301
1.4531924,85.35258
1.290827,84.202866
1.3453302,82.9108
1.2846185,84.760506
1.3273431,85.81032
1.3611292,84.4103
1.2296168,86.28366
1.1971163,84.81126
1.2695538,82.47271
1.2309064,80.77141
1.2156702,80.56355
1.1112008,82.29451
1.1726803,81.69439
1.1275703,80.23277
1.0387006,80.19341
1.0405507,77.68223
0.8935534,78.67665
0.8522721,79.193954
0.928318,76.907486
0.87002826,76.22131
0.6799325,81.10253
0.8788274,74.925186
0.6786828,74.11069
0.71986336,73.398445
0.7295561,73.187065
0.59871185,73.16232
0.65257984,71.111664
0.6266142,73.80315
0.62691337,74.08373
0.5824908,69.96708
0.5630832,74.32886
0.45113868,72.15306
0.5597073,67.69801
0.45726272,69.08118
0.4839435,69.44753
0.44957465,68.429184
0.49170303,68.36976
0.38576978,68.587135
0.32258525,68.61747
0.32962158,71.38008
0.23319541,66.79033
0.29067564,69.961975
0.2144395,69.54391
0.22737028,71.89501
0.117654346,72.74149
0.17920163,73.736145
0.25214753,73.71976
0.21312658,73.08494
0.34979993,73.321075
0.40263098,74.53175
0.4647534,77.748276
0.49355245,73.89263
0.62876695,78.35729
0.6988835,77.877716
0.80472887,82.8115
0.89972186,81.416245
0.9376561,81.54858
1.1296345,79.70003
1.2382779,85.34772
1.333846,80.923996
1.3297021,85.80617
1.4050583,83.13247
1.4249103,86.54493
1.525232,89.59818
1.5859513,88.35264
1.396962,88.222885
1.4969913,89.05272
1.4009069,92.3502
1.3666209,88.33013
1.5457551,89.57619
1.4686488,94.411736
1.4508872,89.490875
1.3870102,89.90256
1.4644686,90.466034
1.4647309,90.876114
1.397349,88.85542
1.2934749,91.57105
1.2551272,87.00258
1.1751766,89.35735
1.2120038,89.47346
1.1706603,88.02054
1.1594031,86.289024
1.1344256,86.43067
1.1019795,89.02644
1.1107868,86.07035
0.94547355,84.84909
0.95007855,86.701614
0.9173869,82.755615
1.0118448,81.92368
0.8765178,81.6784
0.9952041,85.698135
1.00336,82.001236
0.8661835,79.30666
0.9731541,79.60454
0.76977307,81.302925
0.8379765,79.141136
0.76919395,79.73633
0.70563173,77.90693
0.7171673,77.90885
0.596284,79.50189
0.55201274,78.22482
0.54556304,74.43205
0.52616954,76.690025
0.4558989,79.79537
0.43462932,78.194916
0.40122288,77.5564
0.3260668,78.17523
0.3121321,75.80548
0.38090676,72.02922
0.45066732,72.35959
0.37974644,72.910484
0.4074997,72.04119
0.36357808,70.71459
0.27652475,67.9579
0.32799944,67.999054
0.26296943,67.53066
0.19090146,67.41478
0.20402598,70.54597
0.25884935,67.9106
0.20882349,68.682396
0.081664264,71.44544
0.1236863,66.382774
0.05057531,69.94518
-0.036550537,69.03862
-0.118336886,69.07275
-0.22904027,73.3482
-0.024706392,73.751175
-0.05076838,71.41149
-0.03139625,73.902695
0.028439347,69.462036
0.091088966,72.88777
0.2548195,72.943596
0.21592066,74.30272
0.33648664,75.80036
0.49267742,75.686195
0.536,76.86794
0.7232217,76.35293
0.7552795,81.992836
0.8356559,83.80692
0.89234656,80.66718
0.97579765,81.54626
1.0350608,83.59219
1.133093,85.77887
1.2578605,87.4592
1.2269135,85.938805
1.2461433,86.22504
1.2812335,90.50098
1.3165891,89.20921
1.4159038,89.82195
1.4648511,88.45116
1.4080495,91.1544
1.4786897,88.38552
1.2901318,86.065
1.4260387,87.70192
1.2390585,92.06195
1.4117895,88.97534
1.3005785,90.907814
1.280466,86.70866
1.2936481,87.32983
1.2396895,91.0932
1.2069273,88.73437
1.1045814,87.91039
1.0447308,88.835464
1.1648766,85.467804
1.1333756,87.23654
0.99476105,84.91311
0.9751146,83.22907
0.96197754,86.15821
0.91166633,86.04356
0.9529534,84.11834
0.82675254,83.09312
0.89735925,83.83758
0.8981411,84.499565
0.84398127,81.80173
0.9060509,81.91806
0.9073365,79.77614
0.90782785,83.485954
0.78521734,78.692085
0.78015816,76.9929
0.6986168,78.26286
0.8042408,81.96377
0.71943086,78.88978
0.6693263,78.040146
0.61180973,78.54096
0.56912494,80.34761
0.48198852,77.72657
0.4350881,75.93927
0.46266484,74.694565
0.29233664,72.23937
0.36986393,78.05065
0.44325098,74.95332
0.4054715,72.51024
0.40821645,74.24414
0.4425136,75.20458
0.45045862,71.111305
0.28097937,71.66153
0.39802358,70.63274
0.28621712,70.90876
0.30283824,72.62246
0.31285796,66.49671
0.3475234,69.06355
0.14777559,68.18865
0.19660638,70.158844
0.13942727,69.80633
0.11480351,68.595566
0.12724732,69.28837
0.07586951,70.6126
-0.019586144,65.02001
0.0440675,72.3084
0.12609878,70.202354
0.044613093,67.93537
0.07248612,72.68024
0.12361061,74.04759
0.20711474,74.23354
0.22827975,70.62867
0.31008396,73.88727
0.4611543,72.62363
0.5300192,77.379654
0.75065714,79.648285
0.89886856,79.166245
0.9458911,78.872696
0.9872237,82.27347
1.1526715,85.95013
1.1538796,79.59166
1.1704344,82.886765
1.4049256,87.43434
1.3312926,82.51042
1.4504583,86.016884
1.4139354,88.20012
1.4044017,87.44413
1.5550605,87.74652
1.4985867,89.47115
1.5652649,88.8221
1.5864784,90.33898
1.4527099,88.556046
1.4874114,91.05742
1.5355123,89.63299
1.4884408,87.700905
1.4945532,88.71103
1.522243,88.03126
1.4898009,87.71814
1.3623633,88.30364
1.438314,87.85641
1.4017661,87.28659
1.3296826,87.07292
1.2863046,88.933105
1.19893,89.53301
1.3227764,82.98674
1.2037774,82.09748
1.1663678,86.3213
1.1828693,86.248
1.0699213,84.08721
1.138139,82.55067
1.1733878,83.65243
1.2332934,86.47398
1.1992989,83.052124
1.0635355,83.57636
1.1130401,83.236244
1.0880485,80.54608
1.1220037,80.517426
1.0505514,78.88648
0.96736574,81.29999
0.91678476,79.25912
0.8809575,76.70566
0.84385884,79.4343
0.7485916,74.95006
0.7265538,76.1672
0.7189015,75.33201
0.73147184,74.97235
0.76323867,76.73918
0.7387873,72.893776
0.70233566,75.07118
0.6885713,71.5005
0.5778942,74.55498
0.65851486,73.43429
0.5889858,72.521996
0.6917033,70.98471
0.6873357,71.1046
0.62381107,72.79446
0.63697183,69.35389
0.67196023,70.431335
0.66854197,69.13094
0.43660584,70.3238
0.51333857,69.70069
0.5236208,69.37427
0.40147203,68.50856
0.52638894,73.847496
0.47882482,68.439674
0.35853755,69.74557
0.37325746,70.13483
0.35375655,66.83233
0.22686633,69.33076
0.38195503,75.94409
0.40687507,71.95722
0.45440292,73.08418
0.50700116,73.63326
0.49592677,75.99291
0.6899032,71.89969
0.7806052,74.18372
0.88831484,78.47648
0.9100606,78.64999
1.0464332,77.48596
1.1440498,77.29489
1.2096095,82.64795
1.4579571,82.55652
1.4344493,82.65514
1.4960912,86.35
1.623251,83.77405
1.6612396,84.13159
1.6457965,85.13582
1.6001632,86.736
1.7665175,85.77944
1.8307989,87.683334
1.7474222,90.45229
1.8505924,88.505226
1.8384633,89.95393
1.8768549,89.14038
1.7449453,86.21894
1.8712847,89.87722
1.7857547,91.3303
1.8288392,88.92489
1.6944124,89.437035
1.7457874,90.73186
1.8047318,87.948265
1.6785625,91.01009
1.6355563,89.89684
1.612316,88.66639
1.636032,90.87587
1.5574558,83.980354
1.5386095,86.05204
1.4413414,86.871185
1.5783762,83.55337
1.4404012,85.46497
1.4705081,83.48124
1.4367168,84.69903
1.3932161,85.9497
1.5335077,83.861916
1.3473618,82.2896
1.4518502,80.933235
1.360969,83.01938
1.311606,82.59472
1.2712878,82.62536
1.2130278,80.81781
1.3277203,77.0946
1.2258652,79.35907
1.1886799,77.50038
1.1261717,77.206764
1.0915241,77.63666
1.0928771,79.46063
1.0790815,75.705025
0.98249924,75.6861
0.9611714,76.51044
0.9769281,72.50528
0.80172604,75.43343
0.7841033,74.226036
0.859428,74.88242
0.86761624,74.013885
0.9744872,67.05421
0.8806385,69.78478
0.9048871,72.45766
0.8981997,71.46055
0.9093566,69.753944
0.89431226,74.38818
0.7528698,69.39637
0.7395342,70.16235
0.7386815,71.50604
0.7654763,70.107666
0.70719564,69.86605
0.7742292,70.155685
0.6354397,68.78523
0.63657296,65.37203
0.5765007,71.21604
0.6150281,70.731026
0.61850727,72.67785
0.5500688,72.16316
0.5106587,74.794044
0.5277821,71.250145
0.6479765,72.93033
0.6502499,71.394714
0.78786606,73.42211
0.9425835,74.979485
1.0902073,75.0707
1.1426163,78.788635
1.1422285,79.480774
1.2040854,78.44716
1.3885527,79.055664
1.5316045,82.20705
1.5620173,82.55351
1.7350738,80.39701
1.7616637,82.60163
1.745854,85.954956
1.8619272,86.61439
1.9069893,84.119354
1.8569232,85.62422
1.9303107,89.78403
1.9030405,87.72896
2.0534809,86.97536
2.0285482,89.82991
1.9555949,88.00236
1.9501001,90.75687
2.0383081,90.0468
2.0101037,92.47969
1.8566943,90.99677
1.8145748,89.90464
1.8405298,89.10431
1.8495882,89.04346
1.7777705,87.859184
1.7466611,90.8611
1.7806541,85.38281
1.675575,87.2578
1.6204678,88.60611
1.5845144,89.624374
1.7247329,86.86749
1.6236278,85.90042
1.5203232,84.595825
1.5379269,82.85553
1.5113797,86.02457
1.4977151,84.324234
1.4963138,81.16905
1.4735653,84.40466
1.4843211,83.8456
1.4848111,84.94997
1.4602747,82.31465
1.3731416,79.18942
1.4707582,78.929535
1.335539,81.092125
1.3274804,79.85118
1.2785826,80.656334
1.268081,81.13985
1.1620136,77.242035
1.1110733,77.5375
1.1121135,77.05258
1.1972021,77.36771
0.9209848,73.54004
0.9069435,75.78103
0.96468323,75.12398
0.88105357,71.272896
0.9233472,73.04942
0.87819046,72.12853
0.8099456,68.086876
0.8692964,70.52614
0.8963961,68.726875
0.78699374,69.02395
0.9186666,70.10095
0.9349626,72.429306
0.8035914,67.867546
0.7330358,70.40311
0.74286675,69.47268
0.6179878,70.316315
0.65420306,68.67603
0.5984115,69.1173
0.6729852,68.45334
0.49180934,70.017876
0.6004674,69.130226
0.36345822,72.29107
0.4820553,68.784615
0.37115636,70.76807
0.4757618,70.63878
0.46544197,71.99172
0.5905228,73.74792
0.58100617,76.0312
0.71822,73.50239
0.68852484,74.72887
0.88140965,77.4664
0.9428649,76.4267
1.0574358,80.214714
1.148004,78.56857
1.1891966,77.72028
1.390603,81.22869
1.4217619,83.90571
1.5385716,83.05493
1.5158958,84.32666
1.5666417,84.785614
1.6301627,86.498695
1.7435195,87.81547
1.7029747,87.71284
1.8064436,88.15532
1.772931,87.56465
1.8062726,86.51248
1.7567787,90.722534
1.8976125,91.0704
1.8544027,90.17186
1.8372871,89.94757
1.6949826,91.98186
1.8042477,87.01388
1.7883002,89.7313
1.7268164,89.5614
1.6373013,89.145515
1.6600734,89.534645
1.564965,91.09381
1.5064843,90.3412
1.5358033,89.9306
1.5535891,87.99898
1.4086144,86.71806
1.3877866,86.05255
1.4385843,87.37668
1.3641416,86.940056
1.2784637,88.563736
1.289965,85.455086
1.3448226,84.79244
1.2431161,83.65123
1.1626644,81.88839
1.2451262,84.13028
1.3034515,84.084915
1.1965717,85.61885
1.2110057,80.65884
1.203727,80.94669
1.1215059,81.01858
1.0541704,80.03904
0.9840023,78.83513
0.9942208,80.95726
0.9545044,76.40868
0.8865082,78.75154
0.84725434,76.44547
0.8651988,76.97636
0.6772029,76.11664
0.73941195,76.946815
0.6303863,77.338
0.68083966,74.672806
0.662349,77.53413
0.57028306,74.04357
0.5868077,70.12683
0.5814448,70.56584
0.66228247,69.85479
0.69542116,73.372795
0.6009813,73.459206
0.6407089,70.749405
0.6208678,69.134186
0.5810803,70.34714
0.43288654,69.90166
0.49003682,67.219246
0.38909182,69.229164
0.36315703,68.33991
0.4642301,71.022026
0.23056471,71.58285
0.32827458,69.063126
0.24502195,71.42164
0.23136246,72.377235
0.239059,70.61199
0.107233524,71.37099
0.16460103,69.06257
0.19089533,70.099525
0.22797246,71.49564
0.43866578,75.46616
0.5170768,74.26535
0.48165005,77.291824
0.6699441,77.44926
0.69665647,78.910095
0.9006806,77.70159
0.8916925,79.05355
0.9764825,80.71623
1.1896255,82.20192
1.1845602,84.11489
1.2630436,83.83467
1.3049642,83.29019
1.3806607,82.740875
1.4214894,86.03013
1.4109858,87.71939
1.5223873,85.25192
1.5275489,85.09969
1.5289024,88.20999
1.4668491,87.490845
1.52698,90.28085
1.4904106,93.224625
1.5611228,85.60891
1.4512713,91.734375
1.4119186,90.344055
1.5620593,87.38006
1.4186798,88.94938
1.4847358,89.48241
1.376115,87.453476
1.3776652,87.97479
1.2206606,89.73133
1.346376,85.91364
1.2508018,85.847305
1.134023,89.816444
1.1370885,86.416084
1.1189293,87.13024
1.1485202,87.89213
1.0593407,86.99754
1.1140676,80.70375
1.0146426,82.342636
0.98183167,82.49877
1.0555025,84.07862
0.99431884,82.19712
1.0879573,85.00134
1.0739902,85.480385
0.9159124,80.640854
1.0071077,80.44055
0.7835662,78.14133
0.85912085,80.34877
0.8564527,80.111694
0.72472286,77.84704
0.7326231,79.988945
0.6001519,79.87657
0.5898615,76.516846
0.4903123,76.84245
0.59104586,78.43754
0.5737792,76.08611
0.46951005,74.02452
0.38093308,75.63902
0.4029364,75.03706
0.32559428,73.5031
0.39690444,74.02096
0.43626562,72.47993
0.4613942,73.74603
0.35104337,72.175
0.39779183,71.4335
0.38745978,74.153
0.34893355,69.8177
0.24501781,69.11576
0.26278126,71.14682
0.18395466,69.30802
0.017007237,70.63025
0.129535,67.81154
0.058379125,70.27183
0.07575464,68.119835
-0.08232222,71.43677
-0.03126969,68.85386
-0.07526654,69.97821
-0.00068874203,67.9878
-0.01962047,71.4095
-0.08085394,69.87364
-0.028154422,70.14931
-0.00231236,70.95751
0.32223308,71.26263
0.118727565,78.58266
0.38846865,77.04365
0.44994673,78.57523
0.49610096,74.181725
0.5319745,78.398254
0.71705,76.52599
0.64206445,78.34333
0.8987702,77.84311
0.9594704,82.28837
1.0158533,84.042854
1.1879603,82.105865
1.2266266,84.54497
1.2057495,84.433846
1.2034913,85.73331
1.2693797,88.154465
1.3198783,86.7815
1.3358256,89.09298
1.278141,91.22405
1.4095448,91.661674
1.3413274,88.64192
1.3476324,91.5055
1.3819577,90.13517
1.3696158,91.49965
1.4006345,89.26843
1.3564153,89.8778
1.3275764,88.124954
1.2609055,90.51228
1.2313819,94.25708
1.2247771,89.72679
1.1978071,87.48992
1.0567511,90.1192
1.1258069,88.558586
1.0005441,86.511116
1.0323166,86.89303
1.0291299,91.070885
1.032263,84.25732
1.0079668,83.2152
1.0507001,86.39314
0.9425172,82.57162
0.93200284,84.22461
0.94548804,81.53166
0.92499715,80.1958
0.91431737,83.46062
0.955583,78.84359
0.7289958,82.816605
0.82117397,79.40576
0.8186185,82.04728
0.6922039,79.19391
0.6529117,77.878204
0.63920945,78.01491
0.6418607,80.355705
0.6200205,78.36907
0.6032961,78.81052
0.48159295,79.59788
0.48468727,75.72673
0.4744134,72.35426
0.38466534,77.04469
0.49566373,72.175316
0.3632644,73.01726
0.42751664,74.83097
0.34253907,72.98866
0.3931719,71.69267
0.40222606,72.40085
0.4045453,69.98846
0.27135476,71.357704
0.26813394,68.81858
0.3727622,66.10198
0.24578255,73.550804
0.29586104,67.62956
0.3511672,69.85291
0.20751867,69.17383
0.19052278,70.57574
0.16089648,66.77541
0.02276851,71.65246
0.03346129,67.0589
0.086807266,69.51142
-0.009771324,69.08327
-0.008188508,72.133965
0.0661747,71.68875
0.1413558,69.31135
0.1379061,72.61303
0.12327915,74.889145
0.2844238,74.27951
0.3858468,78.338356
0.3284418,71.937935
0.51037616,76.69039
0.5295423,77.878944
0.79833,77.30375
0.8682302,78.87871
0.9476025,82.19241
1.0904787,84.89713
1.146205,82.1778
1.1808275,83.85235
1.2311214,85.35294
1.2767887,84.017784
1.3728458,85.97753
1.5009283,86.04831
1.4007399,89.44815
1.4636279,88.15176
1.5662472,88.94611
1.5132788,86.73873
1.5584242,89.18916
1.563788,90.40292
1.4832107,90.70741
1.5047507,89.64764
1.5675756,92.030655
1.4262345,90.69226
1.3092307,91.33048
1.5443919,89.81645
1.3294663,85.96941
1.3609322,89.80187
1.3824146,93.03412
1.3137261,86.383675
1.3201545,87.70827
1.2160788,86.64084
1.1384757,85.18425
1.208831,87.90702
1.1331638,88.38644
1.1318629,84.72993
1.1784556,85.31215
1.1609985,88.39871
1.0670087,84.89505
1.0887594,82.204185
1.1691663,82.43004
0.9797989,85.6444
1.1064726,82.76351
1.0646298,80.161095
1.0817876,81.314545
1.0043823,80.76262
1.0731897,77.02112
1.0006858,77.84425
0.9358058,79.5736
0.867507,77.93211
0.81008905,74.61379
0.78628385,77.87249
0.7582453,75.063034
0.75885606,74.96853
0.66206926,78.678
0.5295447,73.77852
0.6788795,75.30042
0.6477274,73.49022
0.5341828,73.96381
0.6197391,72.18223
0.706188,72.299995
0.64897156,71.70917
0.6145605,70.131546
0.632876,73.46135
0.6254561,73.237816
0.626944,68.9322
0.5974174,69.516525
0.50233155,71.02813
0.64878994,69.63849
0.5210268,68.06376
0.46777546,72.48364
0.35161838,70.06667
0.39622644,68.91584
0.43367127,69.576454
0.2813482,67.83565
0.29855156,67.72023
0.29350072,71.92438
0.3624387,71.05311
0.37744603,72.3453
0.3492607,72.95635
0.35943535,73.60373
0.51531476,72.39638
0.5532867,73.85729
0.6732278,77.4552
0.78080726,76.47907
0.8180188,74.92042
0.9182594,78.858894
1.0580789,81.59954
1.3786796,78.5521
1.2171535,82.865234
1.3988538,80.756226
1.570306,81.36597
1.5333683,83.359886
1.7271378,88.10378
1.605431,82.353874
1.7196486,89.15011
1.7913325,87.08344
1.8237412,89.25618
1.8402896,86.231094
1.8395268,89.16212
1.8887573,93.45484
1.8451786,88.0068
1.7499622,90.547554
1.7940193,86.69951
1.7384044,90.52738
1.7720678,89.8565
1.7299623,89.8363
1.7720094,86.80143
1.6962922,89.82678
1.6970997,89.439545
1.7433594,89.18801
1.5443189,89.342804
1.6189008,88.973465
1.58809,86.43843
1.51757,88.4374
1.5018829,86.80321
1.4193382,88.79575
1.5383369,85.340126
1.3968296,83.44696
1.3275303,85.59778
1.4639156,83.42346
1.3738576,83.6114
1.410093,82.090004
1.308516,81.96791
1.316397,79.67799
1.5562025,78.43655
1.3593124,81.62333
1.4363519,82.75542
1.314525,79.25917
1.3492179,80.95898
1.2089841,79.23843
1.1126252,79.56494
1.2473558,76.29608
1.065445,77.07093
1.0356382,78.73565
1.0830313,75.17823
1.0073358,75.52697
0.9505303,72.33129
0.8243115,73.52073
0.92202216,73.27952
0.8494981,75.10117
0.91775936,71.205795
0.9095717,72.71119
0.9000092,71.79198
0.97869164,69.540016
0.9205382,70.2575
0.79304427,70.52883
0.8899916,68.67288
0.7636356,70.98366
0.8216454,68.844574
0.84626514,69.00262
0.73765093,72.12254
0.78344053,70.48418
0.7081865,67.118195
0.6929736,70.64142
0.6735863,67.331436
0.56086713,69.088425
0.5608325,72.05557
0.46848807,73.6392
0.5502081,70.08622
0.5661211,68.21365
0.5357156,72.0996
0.636143,72.697754
0.6677764,73.05492
0.70702404,74.31822
0.9096942,78.669716
0.9129363,76.89366
0.9962199,76.0384
1.1033128,77.589836
1.2479476,76.7483
1.3672423,81.02932
1.5090955,83.027405
1.6726998,84.022835
1.566724,82.3096
1.6239672,85.44779
1.6891968,87.83316
1.8163849,85.02791
1.8221376,86.72111
1.8361043,89.25518
1.8891016,92.961655
2.0482588,88.067986
1.8880011,86.420555
1.9784838,86.522545
1.9260942,91.11373
1.9206542,90.17707
1.9464995,92.47576
1.9295161,89.83635
1.8958671,89.34584
1.8650588,87.10406
1.8233252,88.57956
1.8705598,85.44185
1.9087064,89.07294
1.8117473,89.609245
1.7148393,88.82412
1.7303518,87.9556
1.687032,88.49096
1.7299728,88.33948
1.5440562,88.23997
1.6699876,88.82049
1.4849513,87.185715
1.5264381,85.37059
1.5108908,84.154976
1.4922316,82.87998
1.4951339,83.50635
1.4317704,82.19798
1.4015476,81.93818
1.5296859,80.51056
1.4479219,83.040955
1.394018,79.311844
1.408779,79.90123
1.4084347,79.71298
1.4682348,78.6882
1.2750018,78.10118
1.1470118,79.336395
1.1680492,78.956154
1.1939224,76.85446
1.0582129,76.73766
1.0635916,76.38518
1.1153216,72.53584
1.0674069,76.634
0.9738966,76.00718
0.96827567,75.13116
0.9190998,73.22849
0.8588004,73.415924
0.8575308,73.02686
0.793472,70.45474
0.8623911,70.04477
0.8640042,70.142044
0.8489359,72.00283
0.83173376,72.09307
0.8483676,71.333145
0.904379,72.75611
0.76525265,70.30106
0.77773,71.47981
0.6851937,67.2594
0.6953469,68.43556
0.5471532,69.342636
0.578719,71.28805
0.5707344,71.7421
0.57905287,69.99166
0.45099273,67.63736
0.46592012,71.47953
0.53193724,69.50744
0.49840114,71.338455
0.5418515,71.92975
0.55435973,73.81039
0.63219154,74.4192
0.7767858,76.10088
0.80638045,75.77978
0.92253107,80.44329
1.0032337,79.06457
1.031395,80.317696
1.1843097,80.068855
1.3720744,80.89203
1.4022152,83.87496
1.4429685,83.85998
1.5549111,83.21946
1.6502179,85.90038
1.5780115,83.44533
1.7293046,86.955315
1.7807723,85.541306
1.7941464,85.85948
1.7781305,87.23913
1.7385972,88.72001
1.8181826,89.25809
1.748373,88.92755
1.7678707,89.17725
1.8183024,90.261894
1.795599,89.21586
1.9136808,87.82561
1.7719713,90.7584
1.6862243,91.9232
1.7847881,92.584564
1.7163345,88.4541
1.5776664,89.33808
1.6432939,89.8573
1.4482841,90.00798
1.487752,85.44509
1.4753942,85.015175
1.5152024,90.1733
1.4925088,84.815796
1.4051685,87.466
1.395245,87.11135
1.4319882,85.561325
1.2560227,85.61834
1.3334566,84.473076
1.3406746,82.546715
1.2829955,84.636604
1.2925502,85.26417
1.3315493,84.29017
1.2726527,79.61218
1.2362338,83.100365
1.2006378,82.626854
1.143977,79.637184
1.0605793,79.0697
1.1126648,78.32849
1.0541122,77.87715
0.97284126,77.05455
0.72723436,75.83704
0.90832144,78.59109
0.8776353,77.74635
0.7973554,76.02294
0.60104865,74.98263
0.6734018,74.31641
0.7606193,72.8811
0.70107913,75.45417
0.6773859,71.720764
0.6389447,73.1348
0.6470624,73.42463
0.4848133,73.82813
0.606456,75.05685
0.64395607,69.2689
0.5877072,67.21585
0.40770283,71.49868
0.57860243,68.58826
0.48186177,72.12569
0.5267036,67.0358
0.42086107,67.86602
0.4053416,67.51783
0.3675109,71.811264
0.2684465,69.76554
0.28727263,74.48902
0.20234339,71.27603
0.20833862,67.047554
0.24401644,71.617096
0.13277811,71.30212
0.20655757,70.255585
0.25932854,72.74328
0.37021127,75.02094
0.3358587,74.10064
0.5332928,74.46922
0.6316108,76.963356
0.6789516,78.9798
0.7596522,78.60559
0.8695244,77.66591
1.0453488,80.64163
1.0435395,82.735985
1.2489723,82.87987
1.256517,81.89784
1.3197292,85.46494
1.4420485,84.65339
1.3883681,86.37507
1.5900823,83.29799
1.4166318,84.5464
1.5358415,85.75518
1.426362,90.86651
1.5359849,86.57626
1.5496893,87.29598
1.5510837,93.175316
1.5128493,89.90007
1.5555861,87.85193
1.5039634,90.358444
1.4705616,89.62464
1.5038445,88.68708
1.4201349,87.40592
1.3128858,86.236664
1.2878048,88.1588
1.4562123,90.89123
1.2279221,88.82049
1.3086087,89.06345
1.2414558,89.91263
1.3145657,85.628685
1.1936011,88.572655
1.1648836,88.32578
1.0536296,86.37726
1.0206239,86.15331
1.0859942,87.24381
1.062451,82.86161
1.0080206,86.29655
1.0170859,84.7909
0.968215,83.117874
0.92458385,84.57768
0.9631954,79.295906
0.90818596,81.23958
0.8402102,79.72345
0.90829635,78.85621
0.84836483,82.06584
0.828883,78.81422
0.685829,82.189896
0.71051306,78.15115
0.58401537,78.26338
0.6112096,75.87904
0.5548823,76.35205
0.5977712,75.326004
0.5541186,75.99464
0.4047384,72.71109
0.45500958,76.25986
0.30002984,75.54067
0.43839046,72.59145
0.4089254,76.66196
0.3918746,73.53204
0.3544729,69.92944
0.39482018,70.54868
0.44432822,71.36347
0.32120848,72.718475
0.33232522,69.456215
0.31821817,70.84262
0.23787306,72.905945
0.3417038,66.59954
0.16810799,71.828285
0.12637278,71.11968
0.0663016,69.88551
0.057646073,70.775276
-0.029674586,70.12265
-0.06457274,67.17642
-0.009386791,70.42311
-0.07226272,68.214516
0.08280081,69.63634
0.012234994,70.425415
0.054045454,73.66917
-0.024371393,74.04486
0.24641967,74.602516
0.24458322,75.210045
0.26240602,74.90044
0.5263602,73.80553
0.5629725,79.68688
0.6269749,77.48158
0.82249933,82.64698
0.8338555,79.577675
0.93920565,85.046844
1.0352966,79.61763
1.1580831,84.16404
1.12659,83.38077
1.2464021,86.59371
1.1678394,86.1605
1.2524327,83.696754
1.3324153,85.8075
1.366185,86.473854
1.3676624,86.513885
1.3853261,89.80929
1.4119697,91.70605
1.2228475,88.36176
1.3661033,92.54822
1.3184651,91.11693
1.1961118,87.771095
1.2935796,89.662704
1.3139888,90.75491
1.3206618,88.88048
1.2524428,87.767784
1.1267506,89.50068
1.1783016,90.510376
1.0776713,88.12712
1.1817857,88.57648
1.0769479,87.02849
1.0094961,89.337875
1.0057193,85.271484
0.9518903,86.09913
0.885649,85.3125
0.8725969,86.62118
0.9681254,84.752495
0.918969,82.45194
0.9262191,85.9766
0.8889471,83.4701
0.87878567,80.96391
0.9332926,79.08526
0.7263025,79.23523
0.91196424,83.99811
0.85530186,79.16717
0.7370542,83.20271
0.76647305,79.4588
0.6658048,77.579254
0.7009908,74.94375
0.4841178,77.44173
0.59200335,75.10195
0.52065057,75.722626
0.3930162,74.22458
0.5123826,78.55623
0.4882008,74.026825
0.38328177,73.030014
0.42994142,73.44397
0.3895515,71.7322
0.43019927,72.45812
0.44166872,71.34094
0.2747361,67.83976
0.39753366,70.879395
0.37779325,68.222015
0.38064635,71.019455
0.391836,70.44114
0.32771987,69.24226
0.33445677,70.68953
0.23626108,71.552315
0.16910905,68.916565
0.2670427,71.38244
0.1689952,69.31319
0.20330371,70.63976
0.05261028,70.86956
0.15222837,67.89753
0.0056150137,69.1248
-0.033802137,69.881645
0.123067945,70.490295
0.04086672,70.00968
0.04900858,67.45462
0.06049125,76.04542
0.1403669,73.11548
0.23208155,75.33944
0.41203108,76.49943
0.44776765,74.89559
0.5857363,78.446625
0.6846435,78.79681
0.7333319,80.4547
0.8790157,80.47
0.91459817,80.17079
1.0580512,83.58002
1.1451917,83.392914
1.2921655,81.53887
1.2863952,84.428024
1.3480933,85.190834
1.4071504,88.625984
1.329025,88.32178
1.3534801,87.70086
1.5279495,89.12837
1.3323532,90.47631
1.4770931,88.633545
1.484196,91.76488
1.4558427,91.031685
1.4735594,89.89288
1.3329927,91.462265
1.4093809,90.21241
1.425071,91.32844
1.4592743,90.06851
1.4212496,86.90605
1.4329728,91.24671
1.4001864,88.31399
1.3260506,88.465904
1.243777,86.96167
1.3041123,89.58097
1.2051846,88.46963
1.1731676,84.28567
1.1502686,84.708916
1.2348517,83.97019
1.1532437,84.49828
1.0502167,86.83885
1.0996155,83.92811
1.1366309,86.044174
1.0463583,84.627304
1.1396393,83.56792
1.0618699,79.069916
1.0933576,82.85865
1.0166901,79.533745
1.0652059,82.00614
1.0417982,83.56623
0.87278235,79.010826
0.90033126,79.61173
0.9181257,79.335915
0.8383148,79.40185
0.6552237,78.19968
0.79425037,72.08748
0.75034285,73.6979
0.69165844,75.52804
0.67696494,71.39774
0.5783448,74.09768
0.6016367,77.67707
0.7015353,74.076706
0.58147025,72.32389
0.7222504,72.094986
0.8066148,73.724045
0.6311221,70.04764
0.6836324,69.071686
0.6665417,69.73617
0.55327266,68.43122
0.55706066,71.07705
0.61873865,68.255226
0.53127354,65.462456
0.50890553,72.239655
0.41777083,66.65667
0.45159414,70.58406
0.34994578,68.095566
0.44289404,70.374176
0.2609528,69.47373
0.28107646,68.08553
0.34969807,72.37213
0.22236529,70.306145
0.33395022,70.30904
0.34516993,71.53801
0.38964027,72.229065
0.39629138,74.79864
0.49428758,76.23744
0.57998604,75.4439
0.6969924,75.65155
0.859799,74.198524
0.9599247,77.52494
0.9188881,78.13535
1.1285449,77.165276
1.2581421,79.69161
1.3390468,81.441765
1.3525985,80.43239
1.479618,83.3189
1.5974259,82.160675
1.5089006,85.16592
1.7230009,83.03504
1.7193462,86.08725
1.7368157,85.00499
1.7094985,89.488464
1.7503066,88.12677
1.8366344,86.83388
1.7430595,92.37057
1.7318356,89.29633
1.7725806,93.166534
1.7681345,91.01477
1.7869623,92.675064
1.8351498,91.189545
1.7146432,89.55053
1.7662158,90.705345
1.7289803,88.61489
1.6112854,93.026306
1.7002177,91.27257
1.5462563,89.12514
1.5398043,90.10691
1.6159203,86.63485
1.3890446,86.96519
1.3725961,82.62484
1.4141157,86.78077
1.4080368,86.70576
1.3855712,83.817924
1.4025656,84.30845
1.4640888,86.448326
1.3924022,82.694
1.4539042,83.92116
1.3740613,78.84456
1.4223285,82.86774
1.2792566,82.10976
1.3849056,78.499886
1.3673596,82.83723
1.3425868,76.71916
1.2811009,81.26949
1.1857718,74.86283
1.1505165,78.38013
1.1581484,75.6809
0.97411376,77.80799
1.0785385,76.02908
0.97544044,74.995926
0.91497344,75.71684
0.7877665,74.190544
0.86418444,76.34843
0.85709846,73.74201
0.8879723,73.56448
0.8023447,71.69827
0.84629333,72.85688
0.92953587,71.65753
0.8986017,70.17729
0.83653516,71.21207
0.90389186,68.59183
0.9107214,68.99931
0.91211945,69.9179
0.78148824,68.17896
0.82205665,71.41834
0.6721441,70.8727
0.6656718,70.729324
0.75404286,69.06091
0.5728386,66.951904
0.6082421,70.628944
0.5994383,71.0073
0.5581278,67.46988
0.4578168,72.53575
0.51226306,69.78166
0.5393348,71.332886
0.6060264,73.484955
0.63436925,74.623024
0.7587783,72.49928
0.72827363,75.6473
0.9246858,74.65924
1.0207486,76.38751
1.1123507,76.50701
1.1935577,77.40353
1.3725176,81.30508
1.3398119,79.85243
1.4607182,82.151115
1.5841227,85.82635
1.6027169,82.067635
1.7046611,82.74942
1.7981744,85.24629
1.8872987,85.712265
1.839069,86.50943
1.9564171,87.44367
1.9942572,88.46552
1.9043568,91.42386
1.931727,89.837685
1.9977568,91.03301
1.9640448,90.72187
1.973714,90.44598
1.910229,93.13392
1.9704323,89.040245
1.8731937,89.644684
1.9818505,90.63307
1.8684413,91.804634
1.842374,90.222496
1.8073115,87.94937
1.7432368,89.91405
1.6899133,86.9713
1.7117965,84.13622
1.6923739,85.61236
1.7170596,85.52683
1.6632173,83.51401
1.6369236,87.70307
1.4750776,86.62787
1.6762853,87.51213
1.5559921,83.7091
1.5315449,85.37122
1.4836388,82.261375
1.5479084,82.60423
1.4206333,85.309494
1.5392874,81.26642
1.4153311,78.64683
1.2562283,81.11625
1.4278338,77.59069
1.3273809,76.08963
1.3347015,81.732765
1.2512181,79.1388
1.2592686,79.16941
1.2031523,79.972015
1.1327966,78.92702
1.063226,77.21437
1.0613654,75.15808
0.96868306,75.020386
0.90748537,73.159424
0.94429904,73.81985
1.0144472,71.904396
0.8877914,68.78179
0.8842898,73.227776
0.9278247,74.75531
0.8794815,70.41061
0.94128644,69.84003
0.8464676,69.2152
0.9312008,72.52649
0.8157632,66.87123
0.88918155,69.94937
0.7754718,69.358604
0.8296859,72.04873
0.72673297,67.5213
0.63897604,68.1486
0.64915967,68.52931
0.64446926,68.594894
0.60912114,67.42601
0.5697633,70.07244
0.54271966,68.02403
0.4145902,72.50234
0.5377071,69.67196
0.4578555,74.323074
0.42657346,73.81541
0.5851774,70.47816
0.6296381,74.55418
0.6931164,73.71464
0.8675366,77.39862
0.8022026,73.18899
0.981694,76.65009
1.0880735,79.35924
1.2494712,80.62304
1.3687332,79.616776
1.3834258,80.44505
1.4268637,82.58923
1.5133846,81.322845
1.5858171,85.26724
1.6785849,84.405945
1.7092689,87.138435
1.7863222,83.72198
1.7832997,87.56766
1.8724859,86.11299
1.8504502,88.72516
1.8041824,89.98807
1.859085,89.90999
1.8253107,92.15192
1.8931952,90.803535
1.7491794,88.93129
1.7743821,92.39813
1.8356196,89.39391
1.7726868,90.45792
1.743988,92.77456
1.7830582,91.68112
1.6176547,90.55878
1.698211,89.112625
1.5175039,88.45912
1.5800169,84.120895
1.5277926,87.57548
1.4979489,88.468094
1.4039325,88.572754
1.4272637,86.61591
1.3929179,86.01965
1.3877609,84.253944
1.3155885,84.38022
1.4401637,81.93037
1.2929276,85.868256
1.2983919,84.7086
1.2301404,83.515854
1.2776026,83.01116
1.2332573,80.02941
1.187105,83.53578
1.1420847,80.7816
1.1115588,80.5588
1.1163677,80.21469
1.1043671,79.44845
1.0068696,79.76072
0.91194403,77.83494
0.91027296,79.26162
0.88329214,76.85708
0.9877821,75.80104
0.7758528,71.89288
0.81452614,77.66771
0.6507368,76.7453
0.7139493,71.94253
0.74521667,73.844246
0.62009984,76.68239
0.6501612,76.999466
0.77420676,70.63769
0.5929923,71.22808
0.69463944,73.91419
0.6810894,67.28628
0.67661226,72.7071
0.63167673,69.345474
0.61235505,70.955925
0.48837522,67.541336
0.5711473,65.695946
0.47730958,67.75778
0.42572203,69.1419
0.33824858,71.06425
0.23537317,69.50091
0.3162173,69.43558
0.29507557,68.9795
0.14437592,69.72863
0.19768508,72.93989
0.2766021,71.9621
0.12036884,74.38652
0.27505025,73.39338
0.38407373,75.44115
0.29720396,72.85696
0.4832003,75.619644
0.65279585,75.146904
0.63131166,77.91534
0.7391772,76.88765
0.8762323,77.5575
1.0331403,82.011246
0.9831303,79.69761
1.2134057,80.12888
1.141706,80.22267
1.3064348,85.724525
1.4412264,85.19171
1.3459883,82.20588
1.4886487,86.977615
1.4573474,83.360374
1.5256323,88.025314
1.5004524,90.855354
1.606024,87.433495
1.5828776,88.81959
1.5583737,88.10017
1.558431,86.2841
1.5987899,90.85828
1.5945519,91.83806
1.4826716,90.58485
1.4928302,89.56836
1.4122646,91.33079
1.3270516,91.541
1.3427473,87.89457
1.3242725,90.32853
1.4096237,87.68712
1.3084902,88.14597
1.1639246,90.399895
1.3374085,89.26885
1.1441149,91.01639
1.1200361,88.309875
1.0102929,87.91455
1.1483865,87.04439
1.079226,85.4875
1.0190935,88.63698
0.97830707,85.95245
1.0951841,82.44083
0.9961129,84.15904
0.97195905,82.251976
0.96290714,83.65106
0.97337925,84.69092
1.0400897,78.75867
0.9832623,81.54629
0.8544036,78.838905
0.862586,78.367485
0.80139714,81.06521
0.7038769,77.10809
0.702913,75.99033
0.6098509,79.91693
0.47575477,79.61517
0.4057825,77.14959
0.5124144,74.55814
0.41560352,74.96731
0.49253312,75.81517
0.3674992,73.36596
0.44071576,74.45591
0.42808208,73.25494
0.45178154,73.27621
0.3923655,74.89104
0.44051906,73.10925
0.3077938,72.56469
0.3734939,71.33899
0.4081097,74.34305
0.37603003,68.01661
0.25182873,68.44912
0.28184605,71.03477
0.25125217,69.88101
0.1499089,70.36551
0.12181269,65.429115
0.1106606,71.99842
-0.0055473046,70.00117
0.15488024,70.25532
-0.01634776,70.78018
-0.03765688,70.48047
0.0045522065,68.52088
0.012482552,69.09206
-0.0524222,69.07114
0.10742398,76.58493
0.10597366,72.551254
0.20927356,72.32465
0.30261374,75.6107
0.44287962,76.074974
0.52781117,76.90468
0.5308648,76.823395
0.7628112,79.06182
0.8519463,81.165504
0.8779665,81.97279
0.88162327,82.01451
0.99812615,82.402626
1.103296,84.07652
1.2487934,85.45675
1.1663502,89.237656
1.2537004,86.84475
1.3615108,86.59032
1.3906521,85.42371
1.3741945,90.58666
1.3920307,92.047745
1.392243,87.482735
1.3231189,90.68746
1.3444841,89.94835
1.3984245,89.24093
1.2254794,90.14552
1.313063,88.40874
1.3118237,89.21617
1.2516605,89.68022
1.1975104,89.05417
1.3084497,91.885414
1.2028921,88.59916
1.1351697,89.278786
1.190041,87.71079
1.1411818,88.00097
1.1124295,89.90662
0.9901452,83.32094
0.99260706,86.482216
1.0110672,87.03942
1.0980392,85.34885
0.99219555,82.39554
0.92019314,83.68969
0.86767817,85.1354
0.9784393,84.9569
0.87456006,81.16757
0.8279107,79.985085
0.8074814,83.29578
0.8643867,83.01779
0.8381302,77.46896
0.8144251,83.68979
0.76378036,78.78274
0.7372705,81.15436
0.68822294,79.91003
0.5144444,78.84921
0.47379088,78.53584
0.5660778,75.28338
0.4909984,78.15591
0.43915743,77.983894
0.46489698,73.194595
0.3952327,73.63217
0.35513312,75.31357
0.30478778,74.065056
0.4867788,69.33886
0.37823716,74.99447
0.40804622,71.13291
0.3704923,72.48621
0.27327102,72.2162
0.38106456,69.19675
0.28538442,71.3524
0.45199743,69.75878
0.24456817,71.497765
0.29033253,68.705505
0.24119331,69.65276
0.21433939,67.98886
0.071692325,68.14543
0.08018177,66.89246
0.07946242,69.44308
0.010361474,70.9076
0.059548605,68.98959
-0.021466233,72.19403
0.0024999918,75.03469
-0.00034566573,69.3168
0.059406165,72.085014
0.14939241,71.85986
0.18732788,67.99224
0.21343213,71.982086
0.3141739,77.15769
0.45024103,77.11649
0.5605066,79.15534
0.6311434,76.089935
0.65085304,80.58565
0.7539851,79.139435
0.8744044,83.00046
0.9649125,84.805145
1.1863301,83.52483
1.1012527,82.581535
1.2243683,86.49822
1.3095306,82.05855
1.3648818,86.361404
1.3749745,85.56136
1.4131137,87.55939
1.5647272,90.040924
1.5396442,91.070435
1.5081602,87.52919
1.45076,87.61735
1.4060237,88.21984
1.5154018,88.00269
1.4431796,89.19432
1.438915,91.24815
1.4140484,88.7086
1.4735769,91.46975
1.3819077,89.40355
1.3990618,88.457756
1.38377,91.07095
1.2595103,86.920944
1.242212,86.7122
1.2079548,90.11195
1.212016,88.037125
1.2207592,87.54161
1.2078614,89.50756
1.1171637,85.45028
1.1581184,82.45614
1.0933274,84.80303
0.9835509,84.606766
1.0571748,79.86945
1.019752,82.52668
1.0828079,87.87505
1.0399199,85.17712
1.0572067,82.41642
1.1054906,78.06287
1.1153216,80.75221
1.0053556,82.17934
1.0336984,80.07632
0.92530364,79.7286
0.86546993,78.74896
0.80538607,73.86194
0.76247704,79.503586
0.8405045,78.311584
0.7927046,73.56583
0.6048527,76.88523
0.6259968,76.31336
0.72250634,73.09738
0.673337,73.92728
0.641701,73.12338
0.51397026,70.23945
0.60548174,73.61177
0.5878095,71.934494
0.5093174,72.28139
0.5561528,67.02018
0.6272097,70.63603
0.5278568,69.48926
0.5083568,73.2584
0.5548981,70.57173
0.54333997,70.37297
0.5721144,66.79309
0.48629692,68.33538
0.4370624,65.62561
0.3468537,69.689384
0.35693386,68.011505
0.26966572,65.28959
0.22411887,66.21137
0.3646398,69.81389
0.32544556,68.565384
0.36662865,68.810905
0.29940978,73.4659
0.2669491,70.6204
0.3848955,70.93486
0.43533564,72.47576
0.49601135,74.16161
0.7037414,74.274055
0.78783935,75.44434
0.7726607,75.217545
0.9464497,79.835754
1.1857544,78.29996
1.1716121,76.9819
1.3077321,80.814575
1.4162836,82.3211
1.4408656,85.71107
1.4342237,84.55618
1.558317,85.90214
1.5986729,88.28042
1.6995683,85.519585
1.7597133,90.36018
1.8334755,89.886475
1.6841801,85.70569
1.6922603,89.08612
1.6475654,90.226906
1.7723284,91.161964
1.841346,92.69783
1.885659,90.13867
1.7578987,87.608246
1.7426844,90.38711
1.7072314,89.53538
1.6926507,89.61525
1.7535625,93.64036
1.7054855,91.863945
1.6096188,89.21025
1.5013651,87.23777
1.557881,89.620476
1.5577986,89.390045
1.4757187,89.636955
1.4573941,88.11512
1.5025898,89.82016
1.50698,84.00294
1.4368569,86.832726
1.3725778,84.50483
1.3523705,85.234474
1.3625972,81.74847
1.4171102,83.1011
1.4300693,82.334145
1.3878757,83.31008
1.4021287,80.4821
1.3921593,80.75942
1.3882604,84.13749
1.3011439,80.72954
1.3656051,76.30872
1.1333756,81.17741
1.1371356,76.50978
1.0012571,75.03426
1.0021275,79.468185
1.031907,77.30876
0.9251983,75.72449
0.938658,76.249146
0.8767762,72.13361
1.036351,73.902176
0.88396215,72.894684
0.9115656,73.28559
0.7805686,73.01676
0.77132946,72.74231
0.87786436,70.47647
0.82406217,70.84541
0.83488476,71.511086
0.8156373,71.03331
0.82743573,68.99276
0.8125228,70.05246
0.8497853,68.402695
0.899327,68.97813
0.80532974,69.4452
0.65164924,68.57778
0.61068493,67.9837
0.72955316,69.88088
0.5499995,70.00174
0.5499421,71.48059
0.5387074,69.616005
0.3800869,72.256836
0.5338754,71.09639
0.45501432,74.286575
0.49713856,71.75935
0.5447509,72.65605
0.6964654,71.9615
0.7523557,75.2197
0.7149835,78.29887
0.93586767,77.58548
1.0996531,74.85898
1.0417827,77.85003
1.3639717,83.11882
1.3882511,77.07773
1.5485923,78.43697
1.5067247,79.30235
1.6513298,82.16192
1.7542644,85.09585
1.7990113,85.004036
1.8291485,86.98088
1.8539282,87.694244
1.9290819,85.48754
1.8999866,91.064735
1.8970227,87.697105
1.983282,87.947395
2.0284054,91.901535
2.0105824,87.363655
1.9411616,90.306175
1.956374,92.16972
1.9602021,90.09757
2.0019615,90.0448
1.8839804,90.47464
1.9274896,88.15074
1.9066842,90.93684
1.8305982,88.352875
1.8211821,90.94509
1.8113234,89.51393
1.7147267,90.55388
1.8226988,88.5221
1.6648761,83.84636
1.6541504,87.653435
1.5590123,84.03259
1.572823,88.98334
1.5266777,82.90687
1.5312095,87.29636
1.5836649,85.53584
1.5337217,84.95725
1.4439576,84.63954
1.4392303,85.2669
1.4279275,83.23304
1.4546745,82.91228
1.4963925,84.53875
1.3933052,77.72092
1.2979774,81.01423
1.2835964,79.07304
1.3880621,81.52128
1.2466105,77.913666
1.2714039,82.11937
1.246901,76.87264
1.1556677,76.90922
1.1992282,79.01446
0.97925436,74.709236
1.026399,77.12781
0.9778063,74.047066
0.90699846,73.62254
0.9203778,73.66498
0.89152825,74.464096
0.8808405,69.794495
0.98962504,72.08086
0.9299274,72.28539
0.8588686,71.501305
0.8310045,71.11531
0.8731873,71.219894
0.84695977,68.162964
0.8580613,71.02154
0.86450493,71.31601
0.8347663,70.7563
0.8036609,71.432785
0.644638,67.456245
0.6634769,71.74988
0.5976493,70.00769
0.50956136,68.72212
0.43101695,71.89359
0.51472497,70.531784
0.65341634,71.3461
0.49121004,73.13776
0.42444903,72.77015
0.51059693,71.40177
0.7282894,75.1804
0.5973526,70.80661
0.7688698,75.997955
0.91789895,73.45306
0.865815,75.44591
0.986551,76.91626
1.1290318,77.29844
1.2660314,77.49345
1.3269088,81.59523
1.4802067,83.48944
1.4458042,83.28648
1.5227742,81.836586
1.6807836,85.060425
1.6734164,84.53562
1.7378708,87.23474
1.7947152,88.98495
1.8055744,91.04706
1.8160392,84.45837
1.9685166,87.10284
1.8390466,90.06203
1.7429036,88.53098
