ppg,abp
0.98775196,94.94029
1.1372565,99.489716
1.3168811,101.25724
1.297759,107.16861
1.4121547,109.72171
1.4527302,111.049576
1.5508267,116.84172
1.6274066,115.77622
1.6427745,119.34718
1.6458687,122.754555
1.5792837,122.3428
1.6923218,124.84021
1.7274288,127.644005
1.7137519,124.866684
1.6771508,127.01366
1.7123404,132.55452
1.6740029,128.4698
1.6483419,125.61521
1.5894877,127.338196
1.5565454,128.77972
1.6037319,128.48376
1.5963346,125.60458
1.5321529,125.994934
1.4817278,122.52904
1.4605755,122.36009
1.4499985,117.4239
1.42212,119.00304
1.3400751,116.717575
1.3559399,114.22877
1.3984169,112.04019
1.3506399,109.498
1.3053261,108.38602
1.3828672,107.210785
1.2569237,106.41186
1.3044906,101.5659
1.2616309,99.661835
1.2320731,98.46325
1.2672851,97.32108
1.2920445,94.61815
1.0886561,93.33406
1.1248442,89.57168
1.0914403,88.366554
1.0479599,84.51776
0.9937268,84.50845
0.86408454,82.02747
0.92042965,82.98456
0.8535676,85.27141
0.80077416,79.31698
0.8216385,75.86566
0.7645253,73.90803
0.8160266,69.59434
0.7153897,72.325356
0.8525483,67.34728
0.74650854,66.57475
0.83627266,63.754234
0.84263855,66.079796
0.73733145,63.628925
0.71983826,61.661793
0.70544875,61.207157
0.7610106,57.560825
0.62265825,63.02777
0.50996196,61.890766
0.47307956,60.691807
0.5514978,61.441933
0.44793206,64.4411
0.4843896,66.504654
0.4567543,67.32702
0.56961286,71.91788
0.5919716,71.6395
0.64864814,71.893555
0.71734977,77.787125
0.7514256,77.430954
0.85355943,81.50712
0.9488518,86.46062
1.1449342,89.56287
1.2260906,89.843506
1.2965505,98.89136
1.4065771,97.61332
1.6238993,103.00022
1.6350833,105.74534
1.6685237,108.174
1.7233827,111.222
1.7384717,117.34687
1.8391628,115.532005
1.9061493,121.212746
1.8561139,122.83276
1.9173461,124.83767
1.8895154,128.16628
1.9171153,128.36752
1.902225,126.19868
1.8888049,128.7654
1.871795,127.76687
1.9276583,128.52328
1.8508638,126.66874
1.8523511,127.35825
1.7290422,127.80458
1.8667647,126.13583
1.7370491,121.91721
1.6793058,121.754105
1.6647698,121.26404
1.6580666,120.69733
1.6222264,117.52464
1.6439142,118.23001
1.484,114.235
1.5487639,112.68193
1.5438632,109.45618
1.5624161,110.7496
1.4997041,106.19784
1.5176613,105.600914
1.4456656,105.144165
1.4658654,100.06136
1.4252048,101.10846
1.5157332,95.79104
1.2847016,98.2694
1.3846593,93.41048
1.2127444,91.761856
1.1440501,89.3273
1.2124546,89.22703
1.1302737,85.55319
1.1079313,86.21189
1.0069356,82.79059
1.0178963,79.28888
0.9230075,77.04358
1.0117197,78.59204
0.98046,74.439384
0.90285283,71.83275
0.9543093,69.790474
0.86020416,66.75676
0.8954951,66.13274
0.87487704,67.148254
0.93189746,65.83594
0.89917004,63.034874
0.8239341,59.528114
0.86694664,61.656845
0.77545726,62.999874
0.86266124,62.112633
0.71713805,59.824554
0.6069695,61.954136
0.60389686,63.99596
0.6215503,61.81691
0.5516021,62.1208
0.59088606,65.803825
0.57885736,66.1139
0.5899877,67.29141
0.5922044,69.30748
0.62217414,75.43546
0.72374606,76.99384
0.85506207,81.55894
0.9971347,83.46987
1.0950067,87.649895
1.101538,88.29217
1.2790923,94.08918
1.3673385,94.80218
1.4640423,100.191925
1.6060706,103.23031
1.6089327,105.69144
1.6769546,108.4393
1.8285997,112.88892
1.8315729,117.90672
1.9079756,120.37749
1.8502336,119.54618
1.961542,123.00067
1.9181277,125.641495
1.8260123,125.24383
1.9729334,124.88521
1.9217585,128.56392
1.8452326,125.378235
1.8949739,130.93633
1.8469622,125.80341
1.8326615,126.39039
1.8136612,126.07819
1.7847984,129.22527
1.7950978,124.790375
1.7112418,126.989555
1.6392195,121.083145
1.5960624,121.842545
1.6478685,117.96695
1.6019999,119.04627
1.5697807,119.997475
1.5221599,114.29922
1.4931031,114.440765
1.4474069,111.065895
1.4671181,107.82851
1.4780556,107.783195
1.416029,104.78559
1.3751005,105.18079
1.3674655,100.550705
1.3752296,96.66179
1.2650945,97.12002
1.306958,95.73762
1.2343208,93.61032
1.178945,91.46534
1.1019744,90.4726
1.1035529,88.504845
1.0122281,85.95787
0.9179019,85.95043
0.9315636,83.26498
0.8757131,78.33915
0.8662226,77.04763
0.7739467,79.671104
0.7652018,71.07703
0.7409654,73.351105
0.7808303,69.852585
0.75176424,69.99977
0.85069436,67.843796
0.7650747,65.621605
0.73955745,65.29292
0.748274,64.95084
0.70237845,64.109985
0.5961272,59.933464
0.7049388,62.41869
0.60329217,62.560246
0.587001,60.52877
0.44801244,62.773113
0.42587516,63.268024
0.40295857,62.476578
0.4062322,62.145287
0.34138885,65.65878
0.32162544,66.628975
0.3438425,68.65533
0.37588578,72.880455
0.43616262,72.60177
0.5552415,77.035416
0.63336146,82.10717
0.69459677,83.730446
0.8655305,87.08575
0.9585258,86.98372
1.1170955,95.482285
1.2602565,98.84687
1.3158284,102.04251
1.4838371,102.00852
1.511192,107.62341
1.5520432,113.26157
1.581116,113.389084
1.6505651,115.27406
1.6542006,121.70302
1.65328,120.375244
1.6631387,124.07018
1.7176872,124.529625
1.7136561,126.43896
1.6785653,128.4781
1.7564197,127.04096
1.6484917,127.87364
1.6594353,128.28827
1.6543547,126.93807
1.5844079,126.97252
1.5598971,128.35762
1.5719243,125.75558
1.4727061,124.586845
1.4870358,123.33082
1.375342,123.75694
1.4399011,121.01036
1.3031075,117.46591
1.3384839,115.88671
1.2669864,115.28616
1.2515285,110.71645
1.3563294,112.87749
1.2479706,112.09582
1.1988902,106.11951
1.2042428,104.06862
1.1689917,103.42538
1.0801575,103.02316
1.1105095,99.44976
1.0617683,102.77177
1.0627173,95.914635
0.97702557,96.577034
0.95260745,94.25552
0.8169558,89.8574
0.7368557,90.2212
0.79252315,88.676605
0.6777746,85.197586
0.70259666,84.06476
0.72361207,77.5568
0.50276357,81.97366
0.62077004,78.16951
0.5237289,76.539345
0.5131516,74.26828
0.49963334,70.984955
0.4674564,68.332794
0.5352725,67.68533
0.6116547,66.114494
0.5138834,68.30243
0.40966952,61.7478
0.5054908,65.16372
0.49097553,60.732952
0.32593527,62.801113
0.36590847,60.425724
0.35219592,58.97684
0.20380113,60.64236
0.20152009,61.763363
0.18979508,62.64605
0.12364256,63.241623
0.09555154,61.10016
0.050059687,67.73437
0.10991879,66.813126
0.17903316,70.607666
0.1713538,71.82906
0.18912219,74.602646
0.27605575,74.68431
0.46781233,80.99208
0.6146398,83.40034
0.6213099,86.581436
0.81699795,91.736275
0.8740832,93.64835
1.0807558,99.041275
1.0049938,100.38845
1.1963526,101.06548
1.1511981,106.17538
1.2944536,111.37656
1.3979043,115.23064
1.27642,114.880905
1.3497006,117.19739
1.3663391,121.97913
1.4033235,121.79762
1.5026603,123.073715
1.415594,125.16433
1.4964726,125.59235
1.3857777,129.03404
1.4569597,130.15459
1.4506224,128.64732
1.3027414,124.86597
1.3476974,127.584404
1.369348,129.48215
1.2981931,124.31331
1.2122282,126.45606
1.2109739,124.40259
1.1205729,121.061264
1.220518,119.54279
1.1452496,121.75569
1.1183916,117.90617
1.0444086,117.617966
0.96657366,113.43181
0.98399514,112.20931
0.9931554,109.95639
1.062697,107.99011
0.95337164,105.80967
0.9638054,103.01529
0.9863883,103.54104
0.8934255,100.32411
0.8889339,98.83302
0.7782873,96.05023
0.77809125,92.21111
0.7899817,91.00671
0.64670235,92.8902
0.65200245,91.072365
0.5520798,85.69872
0.47124082,87.330414
0.50938976,82.64896
0.39869696,82.70553
0.39281785,77.18239
0.44288146,80.06437
0.337624,82.65049
0.31710297,74.607254
0.3211649,72.588486
0.35728675,67.43587
0.3887108,68.752495
0.3054915,64.484886
0.29773837,66.04136
0.24532792,63.51431
0.27229422,66.27435
0.25088716,60.608124
0.13331349,61.348885
0.13379209,62.01554
0.17833263,59.873856
-7.067789e-05,58.66665
0.085078254,62.30843
-0.061879393,61.6137
-0.084501825,62.793045
-0.070842326,64.69149
-0.07856698,64.24577
0.0019284176,69.33934
-0.0536918,70.379654
-0.013601406,70.93002
0.17761786,73.89805
0.2445123,79.36431
0.33435774,83.74926
0.42362037,89.21154
0.60398334,87.879395
0.59653664,92.727356
0.7066478,93.28219
0.8529989,99.02872
0.9528375,103.23265
1.0566014,103.79552
1.1435224,112.30531
1.2573608,109.9576
1.2007029,113.53478
1.30758,120.27227
1.3008925,121.87516
1.3247322,120.82452
1.4049766,125.1951
1.3624214,125.58871
1.3467231,130.26546
1.2982118,126.506256
1.3826879,126.01959
1.414228,129.58774
1.388577,127.08873
1.3050224,129.81624
1.2996424,125.65657
1.2679753,127.56147
1.2141838,123.6376
1.1606508,126.28326
1.1710205,125.67492
1.0504556,122.50753
1.1130478,117.96198
1.0690267,120.50763
1.0140191,118.10612
1.0584214,119.13865
1.0274942,110.821014
0.98840874,112.59985
0.92445564,110.44278
0.98889273,108.92469
0.93094814,107.15639
0.9469318,103.38803
0.88956773,103.568565
0.895407,102.38021
0.79492986,95.26393
0.8274337,95.64409
0.78099996,94.407585
0.7358069,91.83952
0.6794685,90.88504
0.6891926,86.17152
0.57394737,88.07548
0.5838494,86.15815
0.5334006,79.76783
0.43766943,81.04501
0.41329435,77.869484
0.48506424,80.83724
0.46371102,74.5133
0.41985604,72.84855
0.3756609,73.67825
0.37359762,69.418846
0.38844565,66.753265
0.36965945,67.26623
0.3540592,65.18675
0.3642829,64.65765
0.34499803,62.96389
0.3156839,63.40049
0.2928335,61.83133
0.25236535,60.857136
0.25531444,60.82391
0.10923813,57.16148
0.13102509,60.851997
0.09915348,63.89547
0.068428755,63.064728
0.011440569,64.15753
0.05468516,66.582985
0.03491184,68.73401
0.085487664,71.55857
0.17029761,73.004196
0.32186985,75.69466
0.38856485,80.95525
0.46014294,82.31574
0.5840091,86.2565
0.66708755,92.054665
0.82727027,92.33281
0.82704926,98.07164
1.0025665,99.56802
1.0880996,99.872475
1.2255073,108.927734
1.2643152,110.505394
1.3925036,117.80343
1.378024,113.58035
1.4557557,119.28815
1.4711604,122.501564
1.4202293,122.0216
1.587538,129.06885
1.5427414,126.766304
1.4624678,123.810776
1.5866523,127.8493
1.5988643,127.35442
1.5720698,131.11734
1.5333818,128.6393
1.4330465,129.48299
1.4377178,129.93433
1.459401,124.12201
1.3854936,123.59374
1.3666226,123.5046
1.3432255,121.89179
1.2876225,122.20834
1.2524332,121.35131
1.2755387,117.28722
1.2112678,115.7124
1.1955484,112.62026
1.1602114,113.16868
1.141524,109.23309
1.0756707,108.57644
1.1133386,106.97059
1.1604861,103.568375
1.1299212,105.49908
1.0747406,101.91128
1.0456271,98.8696
1.0054636,96.49255
1.039753,90.743225
1.0366908,93.56291
0.9817748,90.86358
0.85484403,83.75323
0.8710746,90.034515
0.79804504,85.434944
0.80301064,84.386665
0.6814046,83.598915
0.7584125,79.96436
0.676542,80.06118
0.5819923,78.02333
0.6535917,73.10047
0.6422894,73.72542
0.6216944,69.45655
0.6634738,66.11211
0.6518994,68.66593
0.6430901,68.76023
0.5939207,61.346165
0.6517991,64.01992
0.63859963,60.138683
0.5284174,59.75881
0.5916345,62.088104
0.44939643,61.216923
0.53459513,62.518276
0.41134775,61.171143
0.36005566,59.85166
0.26668507,63.15017
0.33214805,64.04104
0.2615937,66.38337
0.2704175,66.6147
0.3931148,70.40175
0.38997245,70.18671
0.5021418,73.02794
0.5025187,75.47562
0.6953541,79.98757
0.72361165,80.4223
0.8727569,88.11712
1.0431753,91.745186
1.1360636,93.60529
1.2263888,96.81613
1.4008776,99.472984
1.5345271,103.99527
1.5275767,108.08277
1.5961888,110.87541
1.5911003,114.51461
1.7113142,117.09466
1.8057758,119.7973
1.771493,120.76487
1.7680125,122.76195
1.8153872,126.2869
1.8683652,124.5908
1.879952,124.74992
1.807961,130.902
1.9176362,128.99689
1.8010099,132.19695
1.7298204,127.72773
1.8132017,128.06355
1.7050236,127.38027
1.6517233,126.3878
1.6647806,127.5076
1.5899878,122.9635
1.5957724,123.16538
1.5737982,120.334015
1.5084658,118.37487
1.494695,116.77727
1.4542263,113.84115
1.4101228,116.38708
1.3591144,114.97332
1.37269,112.66684
1.4079161,106.22745
1.4689463,104.25905
1.3724422,104.79245
1.415011,99.76845
1.3238076,104.48612
1.3527982,97.555
1.3078213,99.17199
1.31008,99.12601
1.2475556,90.74335
1.1863351,93.64379
1.1607202,88.5757
1.1173222,84.27799
1.0445378,88.269005
0.95762295,84.43327
0.9099516,82.73154
0.92458564,78.01744
0.9387247,74.4825
0.9152523,76.73158
0.7991839,76.52849
0.90919816,74.52207
0.8718605,71.3641
0.78772146,70.30649
0.8165648,69.20718
0.89974755,64.45512
0.8464974,62.978714
0.77212924,64.87522
0.8354732,62.10963
0.8506342,60.954075
0.7344248,61.732643
0.68843085,61.24117
0.7107819,61.10677
0.67905223,63.78622
0.60927105,64.10347
0.5879526,57.661774
0.48544222,61.490395
0.4722612,64.69026
0.5440671,66.5044
0.66032666,70.036934
0.56783456,73.87463
0.6821592,75.08479
0.8958239,78.590576
0.87305516,81.16317
0.94993097,83.840294
1.0670898,86.61355
1.2199705,92.84488
1.3444922,92.329
1.466791,95.8944
1.6485469,99.4078
1.588714,109.06767
1.732819,108.81662
1.7882172,114.15017
1.812506,116.783646
1.906526,116.84472
1.897627,118.76134
1.9546697,123.15734
2.021298,123.74012
1.9956012,124.172676
1.9179753,125.46935
1.9725337,127.283676
1.9254696,128.514
1.9419442,128.37389
1.8929332,130.09859
1.9577879,128.80415
1.8886528,124.960846
1.810726,128.88605
1.8326136,124.84057
1.7491463,125.4074
1.7120354,125.945854
1.8102951,119.87266
1.732,122.05522
1.6111155,117.04962
1.6269686,118.58454
1.5922524,115.44273
1.5257694,115.76056
1.5054523,112.424065
1.4906257,109.14226
1.5387686,109.21173
1.4577792,102.70623
1.4711899,108.92451
1.426828,103.83096
1.4771527,100.94292
1.3397354,96.152756
1.4590604,96.73164
1.3058119,94.968994
1.2663845,92.331924
1.2239972,91.395584
1.1674349,88.78031
1.0950693,86.251465
1.0545715,88.05391
1.0579833,81.382126
0.9339945,81.00602
0.97034675,76.239655
0.8958697,76.33379
0.9401474,73.10778
0.9189659,71.19035
0.9353634,72.68364
0.93757284,68.00808
0.87260634,69.22738
0.9337953,69.05314
0.8339767,65.295815
0.8506706,65.35424
0.81196433,63.799603
0.7794612,62.519028
0.77423203,61.11579
0.6666374,63.17121
0.7764716,62.98554
0.61389977,60.84469
0.58108383,60.404613
0.5922137,63.988167
0.44561082,64.9431
0.48552322,64.98887
0.535503,67.189674
0.5152475,69.23088
0.54498667,70.44295
0.5716928,70.57474
0.6989709,76.35478
0.735337,78.9318
0.91962767,79.836716
0.9812267,82.45435
1.0922556,87.69358
1.1189,89.55535
1.2792375,97.14485
1.3904791,97.70976
1.5219865,102.86769
1.5697528,103.55174
1.6341263,106.64632
1.6964536,109.77194
1.8278612,115.59216
1.8447757,118.20159
1.8044839,120.164665
1.7798369,122.38858
1.8108598,122.237724
1.8475914,125.26937
1.890619,127.134056
1.8724788,128.3145
1.8834435,131.26706
1.8004886,128.25769
1.836496,129.01244
1.7458819,127.8348
1.6981357,126.61887
1.6774684,125.00285
1.74408,125.382965
1.6657016,123.34543
1.6026577,123.06401
1.5251071,124.18019
1.5020807,117.11943
1.53681,120.59358
1.540033,116.49595
1.3683666,115.558426
1.383062,112.454384
1.3677949,111.46142
1.3127111,110.70279
1.3581715,108.31597
1.3103305,105.31551
1.3830761,102.15389
1.1852844,102.62884
1.310264,101.06227
1.2686847,96.14724
1.100899,93.561165
1.1377501,93.19772
1.1111064,92.72499
1.0136428,89.34219
0.8816172,88.19
0.9369215,84.37349
0.90160817,84.54566
0.81127846,79.645004
0.77475953,82.25284
0.6858026,81.76451
0.7499978,77.87338
0.70238733,74.22513
0.7198747,71.62849
0.6824508,72.2517
0.6823438,70.724205
0.7638521,67.2859
0.6044802,66.15779
0.64944875,66.239624
0.6350942,64.67194
0.64624494,63.85843
0.55050415,65.14396
0.4847156,62.295856
0.43286228,58.660156
0.44891685,60.46219
0.3708163,57.507133
0.33310047,60.542114
0.25327757,64.97591
0.25620854,65.4506
0.3041463,61.22592
0.25780258,65.3691
0.3229903,65.768776
0.39122164,69.66788
0.34660327,72.23133
0.46066532,77.474014
0.525421,81.59583
0.6304157,82.91433
0.7866515,85.56174
0.76950705,91.13798
0.96816176,93.02624
1.0711654,97.32277
1.197254,98.45164
1.278024,104.38312
1.378904,106.79989
1.4034007,109.42367
1.4854282,111.54181
1.4478357,114.882
1.5846894,118.63042
1.6295977,119.75232
1.6078663,122.65913
1.5931304,124.02631
1.6310136,127.865616
1.6212149,128.70149
1.5584017,126.5292
1.5968385,129.78183
1.5367092,127.35444
1.4708943,128.66159
1.5057216,124.69327
1.5293553,128.721
1.4822924,126.15203
1.3322849,125.977196
1.3120967,126.44216
1.3473,123.687386
1.2791156,121.965355
1.3131293,121.24969
1.1636199,119.27578
1.1811585,116.07877
1.0843297,116.95079
1.128578,112.424675
1.139377,111.49226
1.1013476,106.09828
1.0409092,108.50656
1.119182,105.61327
1.0757815,104.80906
0.97206265,100.61071
0.9499598,97.08717
0.99860346,98.88078
0.88454044,95.7231
0.8133464,93.82596
0.7857835,90.89907
0.75829613,90.81573
0.70148194,88.32867
0.62900907,85.75479
0.6421842,83.22237
0.554099,85.314735
0.5373962,82.728546
0.4353046,75.54849
0.3853709,76.95376
0.442036,72.104065
0.42095906,73.34774
0.444465,69.71419
0.46354347,67.27647
0.38042167,68.757095
0.44866768,68.1373
0.3736931,64.11527
0.37001127,64.01255
0.39438987,60.230423
0.3321842,59.906464
0.27557486,60.03232
0.16501409,60.697666
0.21117729,59.471558
0.15442742,61.395668
0.11110638,62.253338
-0.013451088,64.37904
0.015600598,60.92783
-0.0063194414,64.039795
-0.12184701,68.52846
0.02620804,66.4693
0.015396719,69.941536
0.1629484,75.72666
0.24635729,77.489456
0.42971268,80.549
0.4129603,82.8402
0.595169,87.1939
0.6015727,91.05226
0.7499072,95.97797
0.84285057,95.90191
0.90193003,102.75664
1.0744791,103.255325
1.1274501,108.52389
1.2351661,111.46302
1.2174661,112.75711
1.3313668,117.16896
1.3719753,117.87022
1.3206465,121.28144
1.3755982,123.928894
1.3162968,124.370415
1.4571426,125.45093
1.4544214,128.1417
1.420518,127.9135
1.3141918,129.30707
1.3150309,128.93932
1.3332092,126.23079
1.3348244,129.17918
1.3144785,125.731384
1.187186,127.080376
1.127,123.97032
1.24595,123.3049
1.1112245,122.71929
1.0583231,121.91239
1.057259,118.798744
1.0039632,117.10157
1.0360367,115.65722
0.9477186,113.21764
0.9741008,112.79864
0.97699094,108.76253
0.9407714,109.0821
0.89403075,106.22287
0.90175194,101.72535
0.8930284,102.8755
0.82939154,98.3581
0.8960781,99.303375
0.7569089,97.987114
0.79704016,93.8493
0.7987628,96.59829
0.5780557,90.77041
0.5877964,87.633514
0.5260454,86.98684
0.5677004,87.28682
0.43044132,84.203865
0.48795924,80.11405
0.44417843,78.89089
0.39871556,79.78701
0.40758157,76.2278
0.199847,76.802284
0.35011643,73.21495
0.3692368,73.83404
0.30721253,69.542755
0.35214764,67.3619
0.34165806,65.33075
0.33470985,65.31612
0.29047868,63.763504
0.29705596,60.448254
0.23245004,62.308685
0.21397585,59.919727
0.19779111,62.404655
0.072764866,58.266926
0.071955964,60.0638
-0.011010957,61.024086
-0.04505879,60.99926
0.027703118,65.4435
-0.014752831,62.47259
-0.057079997,67.88061
0.07758166,71.881996
0.07298627,73.10924
0.104076885,74.978905
0.18653785,77.64253
0.298111,83.638756
0.4062182,82.20139
0.52972806,86.271034
0.63806176,92.40377
0.76160127,97.42751
0.8721758,96.98044
1.0115918,102.753365
1.0519096,105.527054
1.102106,106.436584
1.1853253,112.49482
1.2149088,113.73602
1.2606208,119.47935
1.293125,120.49681
1.4014376,122.630844
1.3202916,125.13475
1.4713364,124.71022
1.3749872,124.673515
1.3721473,131.13646
1.3917183,126.19129
1.3774276,132.12088
1.3973118,125.29765
1.3855491,129.32936
1.3421959,127.94152
1.3171439,129.43536
1.2864519,127.84509
1.2279745,122.41074
1.2147855,123.15125
1.1658518,125.93038
1.1391755,121.827065
1.1480591,119.13662
0.9915792,119.082115
1.101333,116.49225
1.1479142,114.05595
0.99104536,110.62526
0.96814096,109.064606
0.97736484,106.44583
0.9834157,107.202194
0.95394814,107.213326
0.9997669,102.89229
0.96772355,99.55144
0.8923327,94.91754
0.91040885,96.61626
0.82597566,94.14774
0.81287897,93.73617
0.81151694,89.04941
0.7736137,91.13006
0.7739637,88.0383
0.6741626,85.27051
0.5877828,84.31839
0.5805106,78.69356
0.48830152,84.35168
0.55812687,75.15446
0.5544994,76.67429
0.5111376,73.15542
0.47578704,72.29207
0.4734333,69.34531
0.49153137,69.92889
0.4738941,69.54384
0.48261335,66.82449
0.5114809,64.2596
0.40751642,63.102547
0.43067184,63.29801
0.38565445,59.92701
0.4071141,60.336674
0.1952428,64.062675
0.29577515,61.800087
0.32885957,59.737858
0.2117483,60.70563
0.15005763,62.47621
0.09923354,65.92906
0.19925615,68.09955
0.18803947,70.14409
0.264332,69.69562
0.27879182,71.37294
0.34963745,76.238434
0.44321227,80.68514
0.5539911,78.07951
0.7285461,85.233795
0.7208312,86.3127
0.9474858,88.39881
0.9549814,95.70559
1.0942385,98.09749
1.2285264,99.66381
1.2277248,102.92449
1.4455495,108.81198
1.4861581,112.07894
1.4787368,113.14481
1.4759429,117.21209
1.5737576,120.041885
1.6134293,123.506454
1.632238,122.88696
1.7074027,123.97771
1.6226223,125.46426
1.7045364,129.2523
1.6421032,128.48488
1.6380093,129.60983
1.6758283,126.124954
1.6637754,127.40918
1.5832846,127.834
1.6402509,125.0177
1.5382224,126.74409
1.5047402,125.07555
1.4002763,124.2081
1.4605497,121.20503
1.4402027,119.13844
1.3919224,119.128
1.3396798,117.35682
1.2627482,116.70096
1.405421,112.68155
1.3264041,111.24791
1.272482,109.36166
1.3347982,107.13193
1.2180274,106.22585
1.2755052,103.97028
1.2770073,100.5392
1.213333,101.13676
1.1769471,101.57213
1.1969812,95.7947
1.0220621,94.69868
1.0677593,90.455345
1.0506412,91.420395
0.9152025,86.5339
0.9971837,86.45434
0.87060666,85.20906
0.8731449,81.68235
0.78138345,82.6073
0.859446,80.384735
0.67824936,75.13908
0.74613714,73.770966
0.79528,72.71595
0.7942988,71.476685
0.6835255,68.28298
0.77777344,68.91723
0.7702535,66.05879
0.69724303,67.195244
0.7419756,59.081726
0.7808524,64.30602
0.7883783,60.186356
0.58247405,61.250805
0.591434,58.888363
0.51319873,61.55053
0.53762776,59.966198
0.5148214,62.59266
0.49687597,62.23335
0.40922654,62.746586
0.4263639,68.56206
0.3648685,66.18329
0.4847936,69.66347
0.51448554,70.76513
0.54701704,75.054756
0.6675663,76.62206
0.7768335,78.41543
0.8341272,82.664505
0.99846894,85.45175
1.1032321,89.44626
1.1974068,92.93482
1.3566542,95.00544
1.4349902,100.395676
1.5198222,105.60876
1.6134361,105.446594
1.7242749,110.38233
1.6870288,111.740486
1.7378682,117.17421
1.681535,117.31091
1.8389509,117.88293
1.9383494,121.13381
1.9201316,121.08121
1.938906,125.01943
1.9406787,126.37302
1.9125645,127.005936
1.8550844,126.575096
2.0023754,128.35574
1.857048,128.37102
1.7820901,126.6193
1.8168565,129.37343
1.7052836,130.1145
1.813036,125.10189
1.6916884,122.85781
1.7120229,120.80163
1.6459739,120.50872
1.5825034,121.008415
1.6377641,116.56828
1.6107929,117.14295
1.4664398,115.32557
1.5116453,113.749985
1.4744352,111.35567
1.3971516,108.33332
1.464345,108.83857
1.4668182,103.35858
1.404654,105.92661
1.4411567,101.304115
1.4578037,98.612465
1.4935384,95.915764
1.2603643,98.0797
1.3779829,95.69421
1.2651918,92.06204
1.188646,90.72597
1.1194062,86.152176
1.2008832,84.98922
1.0659611,84.26249
0.9861065,82.004684
1.0571167,79.43096
1.0226585,77.98624
0.8649013,76.97029
0.851919,73.10627
0.9941995,73.26951
0.97366506,72.781494
0.86844707,67.72237
0.90330845,69.51404
0.95715684,65.00469
0.89271986,66.899445
0.92103386,62.258404
0.8304776,63.73126
0.8789328,59.83846
0.78685105,62.21942
0.669232,61.61006
0.7215018,57.301277
0.56492156,63.518234
0.5982909,62.15679
0.6003142,65.05503
0.50649333,63.39355
0.5349823,66.56345
0.48022646,67.39186
0.58514124,69.09351
0.63525206,72.15805
0.7452937,73.51929
0.81836355,73.74739
0.8505933,78.778435
0.9995518,85.44827
1.1483375,89.77154
1.1924752,89.81761
1.282835,94.64815
1.517796,93.86076
1.5665101,100.92485
1.5225246,104.26864
1.6517168,107.58354
1.7204683,110.475624
1.799271,111.63931
1.9262376,115.87024
1.9090115,116.11104
1.9342865,119.58513
1.9488498,123.27974
1.9786371,123.93351
1.8685173,126.98454
1.961604,127.95318
1.996154,126.5595
1.9675053,129.7642
1.8875809,128.23161
1.887455,127.22005
1.9233805,129.28503
1.8619146,125.73164
1.8605411,125.08419
1.7691175,123.49723
1.8074716,124.03814
1.6401209,124.34433
1.6630131,121.28096
1.6376318,118.5262
1.5487784,119.41557
1.4682876,114.88073
1.4897773,113.22369
1.494677,114.03179
1.4907496,110.02535
1.419757,106.85648
1.3948395,105.12436
1.3919034,104.92713
1.5057901,101.28793
1.4887235,99.061516
1.3643821,96.40343
1.3695618,97.88273
1.3801724,96.184944
1.1874503,93.77132
1.212271,90.8566
1.096501,85.9236
1.1459775,85.411804
1.0254788,86.00995
1.0808862,84.63972
0.91833323,82.57869
0.90036577,78.073975
0.91961724,79.70981
0.83576655,76.317444
0.82874817,71.500854
0.8792282,71.72563
0.8630383,70.2925
0.7994017,68.333305
0.8544778,64.68191
0.8249717,64.24661
0.7517986,61.9286
0.7598316,61.390724
0.79452735,62.70857
0.66326535,63.857075
0.64887685,60.36707
0.658349,62.877964
0.59941745,59.993443
0.53705484,58.483257
0.4772778,60.636917
0.4385624,63.410675
0.42772776,64.60223
0.40880704,64.53443
0.40112394,66.30624
0.51337534,69.17962
0.46605617,73.49418
0.63014895,77.41423
0.5972297,75.79234
0.81330526,76.92218
0.85768753,85.19947
0.9554299,85.59554
1.0675515,89.54302
1.1544002,95.94434
1.1968137,97.84434
1.3341156,101.759544
1.4962099,110.15145
1.5267894,107.7406
1.6840544,108.981766
1.64388,113.31015
1.6416447,114.21828
1.6535426,121.28596
1.6957041,119.92515
1.8237057,121.343895
1.7080071,125.02773
1.7752101,128.46825
1.750608,127.231125
1.809016,127.75698
1.7648901,129.18083
1.6203884,131.8056
1.678999,127.245926
1.5946982,127.6358
1.6472874,125.6052
1.5982343,125.02138
1.5610076,124.87214
1.4804769,125.42377
1.5105692,120.72307
1.4625026,120.74515
1.3950183,119.02711
1.3804418,115.50956
1.3271921,116.81177
1.2628716,114.85967
1.297154,111.27189
1.2402527,110.34828
1.2533813,110.2147
1.20476,106.38987
1.3167068,104.28951
1.1318856,103.27872
1.1765474,99.37059
1.1488369,98.78916
1.07949,97.56148
1.0608108,90.564095
0.98521245,93.738495
0.969434,88.68291
0.8667805,88.50022
0.7549586,89.23344
0.7712321,87.81674
0.7758642,79.58837
0.6671019,82.80536
0.61346275,77.82299
0.6665432,78.2511
0.7286499,76.35828
0.57110286,72.89774
0.6042974,70.999985
0.57672995,72.82742
0.67014813,73.1611
0.5357793,69.85539
0.55855507,66.46746
0.5579682,64.864365
0.50634265,62.231583
0.54169744,62.48491
0.38823262,61.916447
0.42366517,64.43119
0.29110622,62.758163
0.33217382,64.263916
0.23961629,60.446274
0.1320594,61.0372
0.12166008,64.10154
0.1454895,63.25239
0.14182115,65.935455
0.20147865,67.05391
0.23053358,68.13558
0.26237044,70.839134
0.26312003,75.326164
0.46257806,80.03531
0.52961963,79.31983
0.64179605,87.041695
0.6776762,85.10401
0.83540523,89.99637
0.9991432,94.21597
1.085976,101.04474
1.1211193,100.22633
1.2662741,104.675354
1.253678,109.69065
1.361776,113.51845
1.3356055,111.65951
1.3636448,116.92043
1.4343497,117.399574
1.4940448,122.25088
1.5178354,123.64316
1.4939779,125.062744
1.6114688,125.00733
1.5187048,126.78311
1.4394629,125.01616
1.4987419,129.19026
1.4107163,128.26413
1.4610751,127.76152
1.3958609,127.29493
1.4457035,126.86006
1.3357232,124.45501
1.2850606,124.59559
1.1976146,125.89238
1.1985105,120.18765
1.2044457,119.41449
1.1097914,117.84053
1.1327981,113.728035
0.9884834,115.56204
1.0177053,114.09664
1.0758532,110.37331
0.9633837,109.92291
0.9753432,109.94213
0.93740326,105.071754
0.9169173,103.048195
0.9640258,103.41004
0.92092645,97.228096
0.8545712,99.00708
0.83550954,94.944145
0.72892743,97.50173
0.7827643,91.06344
0.68001294,91.02442
0.5916719,90.766884
0.6034459,83.3172
0.5285544,85.69622
0.50972766,81.65338
0.40306607,77.93667
0.43178356,75.53849
0.31721905,78.60363
0.34189233,76.3661
0.4325605,74.09869
0.3810002,68.918396
0.38015482,70.1053
0.3240671,67.13688
0.3763671,65.07422
0.43604094,65.55947
0.33547923,63.718575
0.29270375,62.653564
0.343533,61.5114
0.26248303,63.56948
0.10459183,59.668167
0.08517953,61.107784
0.059191797,62.25876
0.07501166,62.84369
0.030801263,61.452408
0.021414785,62.392994
0.031732824,64.12001
0.0069396133,66.156425
0.029421637,67.857285
0.025029816,65.53506
0.0094387075,73.1997
0.19993058,72.733025
0.26800093,78.21126
0.35220832,79.71505
0.49846363,86.2933
0.5710497,87.40705
0.6836981,94.159004
0.771032,94.441795
0.9545082,98.474144
0.96621,103.04614
1.1380486,104.65837
1.0456808,109.96865
1.1641313,113.07738
1.2152907,114.6475
1.3391203,117.24075
1.3264208,124.04956
1.310591,119.1303
1.4096398,122.15589
1.389246,124.75371
1.3671231,124.35272
1.4113873,129.04805
1.3842319,128.11784
1.3738605,126.49691
1.2723349,127.938774
1.268873,129.43896
1.3316445,127.166855
1.2121676,124.719696
1.2651988,127.17474
1.2152703,127.53159
1.1982168,120.87827
1.1705393,118.87272
1.0581081,119.68964
0.9941504,118.805244
1.0613239,115.86213
0.95805,113.19863
0.9412889,115.92075
0.96388155,110.71337
0.9976054,109.45108
0.94732606,105.80271
1.0130316,105.061356
0.8594621,102.49432
0.889343,101.66688
0.8396877,100.486496
0.8119041,96.72116
0.766288,95.616066
0.7101109,92.35411
0.6748091,91.5772
0.6687163,89.73714
0.69253314,87.04722
0.54555815,86.63274
0.44706002,82.81936
0.52922934,84.73428
0.36305597,79.45195
0.38389575,77.298035
0.2842599,76.159775
0.39530006,76.21348
0.4187564,71.92399
0.3773318,70.53594
0.4065162,71.36764
0.3782007,67.86773
0.36611983,69.0457
0.29966062,66.80435
0.34190145,62.731983
0.3707036,60.822243
0.35041502,61.189564
0.25360218,62.672283
0.1045219,60.189667
0.3273334,60.39878
0.11942924,62.86014
0.039433476,61.238422
0.10124604,63.747597
-0.10336663,62.453403
0.0035475923,64.121574
0.020038899,66.8742
0.019721659,72.54496
0.12784545,68.795334
0.14874646,73.66074
0.21067551,75.14953
0.2725259,75.87917
0.44849554,80.99804
0.60913026,84.954994
0.68528146,88.69697
0.712491,93.0432
0.94540167,97.42828
0.9999803,98.131516
1.1106542,105.18314
1.2119527,106.438934
1.2731954,110.187996
1.2588252,111.70887
1.3775307,115.97584
1.3991661,117.76274
1.4835498,122.58893
1.490816,123.27124
1.4383712,124.90059
1.545861,127.17673
1.4504577,124.96642
1.4834039,131.4771
1.4021267,129.64981
1.4832242,128.50209
1.4656926,128.52423
1.4833106,128.31921
1.4924853,127.161064
1.3714651,127.70865
1.3491408,126.149345
1.2814773,124.352394
1.2496607,124.54344
1.3185264,119.49774
1.155534,119.16064
1.0838085,116.86236
1.100515,116.06495
1.1454313,110.131935
1.1387645,112.747734
1.1113971,111.042404
1.0934204,112.1502
1.0706453,104.513
1.052517,103.98907
1.0816624,103.628365
1.0018587,102.205185
1.0369995,97.059814
0.95506185,95.245285
0.97218764,96.91536
0.95164055,90.883865
0.85144943,91.98794
0.7988047,86.85839
0.90215254,85.283714
0.7384919,88.23026
0.77636117,81.811844
0.6909438,82.25275
0.6600165,82.899055
0.5617103,77.48404
0.6078147,73.20531
0.5996249,70.876175
0.58993095,71.06249
0.6109441,72.340485
0.54524595,67.92897
0.6256369,68.00267
0.5440911,67.48145
0.56214255,64.61773
0.56209016,65.22591
0.5504179,61.54113
0.53266835,60.86167
0.47527155,61.854687
0.39540088,60.365395
0.41239256,60.81287
0.39703497,61.53906
0.31860444,60.985718
0.23822127,64.060555
0.24137536,64.55154
0.262282,65.38224
0.24226172,68.53786
0.29515228,68.189964
0.4167081,72.99607
0.43187475,77.27021
0.5872908,75.46052
0.6918136,81.421585
0.6934963,84.94219
0.93434757,84.339424
1.0370933,90.41912
1.1368306,91.26062
1.2354926,96.7961
1.2823943,100.075
1.4539319,104.83876
1.4867586,106.29357
1.5688171,109.99032
1.5729865,113.97799
1.6541742,116.262436
1.7686282,120.013885
1.628879,123.09563
1.7693359,123.903404
1.7131048,121.42238
1.6998137,126.845245
1.8199552,127.02813
1.7117666,127.813126
1.8149465,128.10596
1.7078202,129.3534
1.7694159,128.21738
1.6693497,128.93416
1.732416,129.14359
1.6204004,127.74194
1.6071674,121.33553
1.6528851,123.79456
1.4565147,123.884056
1.5423495,122.04573
1.400558,119.9939
1.4610132,118.10455
1.4366218,113.26026
1.432688,113.642204
1.3971957,113.48547
1.395085,111.85986
1.3909425,106.00865
1.3276373,104.78849
1.32687,103.5943
1.3564856,103.32987
1.3238059,98.95349
1.2975372,99.05808
1.2761025,95.05795
1.2594414,95.99978
1.2621533,93.928314
1.1066686,88.79543
1.141204,90.373695
1.0726436,87.25163
1.0536678,85.95783
0.9938461,87.71878
0.90108544,82.06863
0.89541394,79.4247
0.9751102,78.40099
0.82653826,76.67999
0.9202466,73.10318
0.865178,70.78781
0.873063,68.045296
0.8134805,69.74588
0.86481565,64.34713
0.82963175,65.38794
0.86647946,62.268658
0.77781945,62.049706
0.7265711,62.419792
0.904314,58.67068
0.6728004,61.56484
0.6830852,63.396435
0.5863698,60.91207
0.55675405,60.908607
0.46197924,65.325424
0.53560364,61.807728
0.5227853,63.95471
0.62599415,67.495026
0.5822092,67.077034
0.5935611,74.68755
0.54556036,73.914986
0.7087174,76.45457
0.7874008,76.58565
0.8563779,81.161285
0.9696109,85.41831
1.1322472,89.48625
1.201018,92.18574
1.341557,96.351265
1.5881393,95.529686
1.4736226,102.38654
1.5882846,106.95069
1.7330737,106.517815
1.8053471,110.74277
1.7951474,115.32696
1.9108217,118.31837
1.8869151,121.88181
1.9414182,122.84159
1.8873197,124.486626
2.003294,122.4333
1.9907382,126.10164
2.013019,127.13171
1.9045895,127.83218
1.9397774,126.413185
1.9392842,131.35458
1.903455,127.96351
1.8458165,130.59097
1.8441726,129.90393
1.8470259,126.63787
1.7621508,125.07615
1.7442362,123.79716
1.7078595,121.26862
1.6747005,121.180824
1.5845593,118.62656
1.5914235,116.56466
1.5000663,115.39335
1.5897303,110.7683
1.6336251,109.64635
1.5582087,110.09344
1.5183415,106.47478
1.442802,106.74011
1.480164,102.45468
1.4516027,102.98801
1.429805,101.39453
1.436137,97.48908
1.4111031,97.23348
1.3567041,93.31252
1.2571142,95.216
1.1492525,90.77783
1.1821495,89.75076
1.1622673,86.83631
1.1547801,83.87659
0.96153826,86.92378
1.0154117,81.92699
1.0167402,75.697205
0.994562,77.410904
0.95814353,76.377655
0.9594766,75.09016
0.9837477,71.287155
0.9201445,70.0127
0.97834104,66.29458
0.9349991,65.59905
0.8616159,63.32367
0.9399209,64.77029
0.79167056,66.887886
0.8522125,60.190315
0.79357684,61.35846
0.70655555,60.41136
0.682386,59.685562
0.6380633,60.46456
0.55181575,59.179222
0.5299389,59.290676
0.5969485,62.279045
0.49440283,66.02147
0.5264131,63.4602
0.58782005,65.13353
0.6111256,69.508255
0.70149916,76.00251
0.7556123,77.60425
0.8361003,82.4451
0.96219003,85.11831
0.98157054,90.92352
1.1085372,88.64361
1.1445699,93.18055
1.3079802,96.47382
1.4405664,102.49935
1.5852123,102.72967
1.5566306,106.58675
1.6807257,108.41134
1.7471477,109.18184
1.8057843,114.26648
1.8026646,115.90563
1.8947389,118.14275
1.8902788,121.92931
1.9054768,123.688614
1.961403,125.37133
1.9455949,127.61567
1.904236,126.9133
1.8888768,129.23038
1.9105083,126.802765
1.8069826,127.246544
1.7996433,129.22398
1.7931417,127.72969
1.8665494,124.57017
1.6617477,125.68931
1.7509685,125.64544
1.6877297,122.43673
1.5403048,122.456505
1.5732435,122.03855
1.4541794,118.80951
1.512713,118.05107
1.4947906,112.16724
1.44061,110.7209
1.3357636,112.317505
1.4346054,107.281685
1.3944747,107.03276
1.4409233,104.951515
1.3809777,103.605995
1.4012945,100.52997
1.2972893,99.45079
1.2293165,98.17032
1.2678375,94.87574
1.0978255,94.620224
1.138905,90.447495
1.0636142,89.14989
0.9877857,87.4071
0.9890142,87.27673
0.96977997,84.86293
0.9178272,79.07006
0.87122744,80.08269
0.8138235,78.370605
0.7057409,79.35159
0.8166488,77.23394
0.74736154,74.226715
0.7761141,70.53948
0.87380046,70.10461
0.74528515,66.23049
0.7578407,65.899185
0.6935601,64.148735
0.6101776,63.775646
0.6389784,62.217617
0.6409339,62.07104
0.58511436,61.397087
0.565348,62.854923
0.42430398,59.71218
0.4896938,63.069603
0.3722996,60.431377
0.3667743,62.933296
0.30765393,64.820656
0.26681894,65.901855
0.36223885,66.227776
0.35885596,68.07025
0.33287767,71.99969
0.5018921,75.12794
0.48673296,78.297485
0.5347575,78.32997
0.71033996,84.31074
0.79208994,84.57964
0.9551546,86.307434
1.0450569,94.889435
1.1686491,96.57368
1.2647374,100.31089
1.2902874,105.746956
1.3645811,105.38096
1.434146,110.23132
1.5198208,112.47043
1.6198592,114.696106
1.5205278,118.782394
1.6411463,119.32132
1.6856661,124.46052
1.6956071,125.510704
1.6365678,122.77161
1.6263732,127.42263
1.6315117,128.1886
1.6384032,127.4715
1.6037416,130.57887
1.5642965,126.864914
1.5588468,126.68213
1.5390462,127.99202
1.4890491,130.0422
1.4849129,125.72677
1.3306932,124.63547
1.3520236,122.19434
1.3629661,118.97279
1.2584316,120.34749
1.3254057,115.08188
1.2595601,113.85145
1.2052264,114.412415
1.1809225,111.28139
1.1263207,109.50851
1.1428496,107.02405
1.1089025,105.67866
1.1598724,107.263885
1.1402338,98.80786
1.1118889,102.25968
1.0314066,97.47491
1.0376453,96.28219
0.85772073,93.943886
0.8326794,93.92523
0.84825027,91.06824
0.85801244,90.2371
0.73340726,85.620575
0.68526363,85.45564
0.57807314,83.45907
0.61308783,81.287476
0.5280766,77.8694
0.4788095,79.093254
0.5628752,71.76489
0.6149302,77.228745
0.4810782,70.153244
0.53541493,70.124245
0.45303544,68.46068
0.52777135,66.9869
0.4434929,64.759514
0.44289404,64.38821
0.43521684,64.697174
0.3914951,63.326004
0.31625018,60.80219
0.2604601,59.307465
0.24733792,60.99882
0.24442194,64.05473
0.249587,58.479343
0.045489527,58.748528
-0.018253513,62.723232
0.023200728,62.48509
0.060559604,66.581665
0.05865452,68.215416
0.12641619,66.89062
0.08762048,71.477974
0.21726115,71.81599
0.30912796,75.28073
0.4075277,78.91295
0.5348165,85.38002
0.64170086,83.81422
0.78106064,86.88299
0.79357475,92.9571
0.93787676,99.78705
0.95888513,99.59067
1.1445528,103.68438
1.1878605,106.762985
1.2909285,110.94163
1.2593411,118.42896
1.3463509,115.54145
1.3859608,121.00136
1.276566,119.98962
1.4365593,124.26584
1.4469969,125.79116
1.3923292,125.9385
1.425603,127.11749
1.4112206,127.87766
1.3435993,129.56819
1.3097503,127.30414
1.3171465,128.68335
1.2894299,127.390015
1.3084402,128.56192
1.2592694,125.90266
1.2343326,124.47103
1.1827914,125.21736
1.1459221,122.91104
1.0692469,122.28196
1.0367105,118.94996
1.0418364,117.66594
0.98826534,115.79122
1.0062853,114.704216
0.9059845,112.31705
0.9033725,108.51492
0.94194365,107.319626
0.90138036,106.22616
0.8171422,103.03603
0.9326455,102.72525
0.90986526,99.86747
0.8239897,96.31506
0.81579155,95.635796
0.729945,93.93071
0.713178,94.53727
0.673072,89.59615
0.5834829,88.902275
0.6360074,87.329796
0.4887635,83.008835
0.42180282,85.875565
0.4178511,78.74927
0.32637468,80.147896
0.4162096,78.873375
0.25862873,75.21578
0.34323356,74.608826
0.27584141,73.03488
0.32641548,67.55426
0.33380437,70.7447
0.2643862,68.843544
0.24924552,65.778404
0.37430623,64.15816
0.23175858,63.768387
0.18545541,65.884384
0.17872283,60.753536
0.1498912,61.830734
0.0137201445,62.045776
0.0007632388,61.958424
0.0064027756,60.749046
-0.054852795,62.661213
-0.090519056,62.215057
-0.073343165,64.0281
-0.06413369,66.96967
0.06551959,68.639465
0.020338371,69.71604
0.061470143,74.83537
0.024329558,76.43768
0.253809,77.12356
0.3445586,78.77316
0.47592625,84.88074
0.48149228,83.70449
0.69612306,90.67522
0.8376204,96.48691
0.81369674,97.30181
0.8962842,101.42319
1.0422045,102.36608
1.053289,109.2959
1.1271566,110.872635
1.2848729,114.6002
1.2787888,117.669685
1.3276014,120.258766
1.3694603,123.539375
1.3237804,123.18723
1.358364,122.14645
1.4610533,127.53062
1.4084579,128.00552
1.4070024,124.88126
1.4116566,127.71786
1.3275363,129.37924
1.3259717,129.21135
1.241443,126.86115
1.2469382,130.1117
1.2516912,128.91579
1.1751912,124.65267
1.1753076,125.93552
1.1254841,123.098946
1.0714848,120.953354
1.0570594,123.16479
1.1407168,117.732994
1.0402895,114.34723
0.9858665,114.729256
0.9183071,110.93585
0.97433805,111.43338
0.96814007,107.76835
0.95904714,103.242004
0.9350143,103.14431
0.9460133,100.52402
0.9924726,101.87522
0.8501517,100.79292
0.89546555,96.438034
0.76285124,92.09234
0.78947735,92.39237
0.7311737,90.47881
0.67688614,89.49463
0.62147343,89.97523
0.57949656,83.30419
0.45596513,85.41536
0.5803797,78.16273
0.49886733,77.37668
0.45175338,76.76887
0.39923638,73.849434
0.4256803,72.81839
0.4759096,71.54472
0.410844,71.47234
0.33921823,67.341125
0.4549471,67.15827
0.3740867,66.8526
0.49012592,61.328953
0.3529273,61.361824
0.40661827,61.012295
0.29264602,63.12488
0.27712598,61.833508
0.16924652,60.649185
0.23872437,61.753048
0.18905486,61.090088
0.12676014,60.899666
0.048913058,64.89437
0.03224517,63.223675
0.07694375,66.30637
0.15395698,69.49184
0.21015583,70.763626
0.2687965,71.58422
0.3265706,77.131134
0.4223135,80.62507
0.55186206,79.79653
0.5968064,84.15539
0.7854468,87.412605
0.8755514,90.877884
0.9368144,97.19546
1.1048152,96.259605
1.1136427,102.84941
1.3292464,105.100555
1.3128543,112.538216
1.4105221,114.883965
1.420197,111.417564
1.5184983,116.34745
1.5370857,120.002785
1.586931,122.62449
1.6343243,124.43529
1.5993476,125.832054
1.6781024,126.77336
1.649462,129.5833
1.5710841,129.27684
1.5818137,124.677124
1.5386755,128.4678
1.5159097,127.96731
1.4912812,123.86798
1.5108072,125.60529
1.4691561,124.156525
1.4178841,124.81588
1.3482791,123.74481
1.43297,122.46249
1.2988238,121.59912
1.3066348,120.26914
1.3469248,115.375595
1.247609,115.54086
1.2334911,110.913574
1.2090613,109.996895
1.2021744,108.16448
1.1724646,107.31676
1.2007444,104.606186
1.1753759,104.885414
1.1154858,100.4456
1.1677858,98.344025
1.0961051,98.78748
1.0127422,98.71828
1.0542324,93.6327
0.95245576,92.12645
0.9454194,91.62238
0.97695416,90.104195
0.880598,86.01551
0.8735614,83.033035
0.81142765,81.327774
0.7259797,80.87961
0.7806903,78.57979
0.7561287,78.5506
0.6833782,72.39316
0.7323677,76.181725
0.6611171,70.15663
0.72715056,69.674255
0.68879694,66.3775
0.72612226,67.54888
0.7217031,61.71289
0.73261,63.717052
0.6918221,66.25185
0.6059069,62.909782
0.5140783,62.088093
0.4536952,63.23155
0.48346028,62.489483
0.4295836,60.67412
0.37707978,58.90177
0.30544484,62.583027
0.3686695,62.86269
0.42492935,64.87477
0.38228226,65.66094
0.3601768,68.02228
0.4666136,69.46378
0.50496334,71.32143
0.6361013,79.331215
0.66527104,82.624825
0.805593,82.03622
0.95203954,87.60754
1.0493575,90.457855
1.1802666,93.47125
1.2831079,96.56923
1.4263997,97.77139
1.4795257,104.567894
1.5588961,105.90137
1.5842035,109.75034
1.7321838,118.00118
1.6777862,114.28342
1.730767,119.43012
1.8160301,122.30621
1.8363252,121.82548
1.9050016,123.526215
1.9055979,124.055786
1.8748395,128.33815
1.8800687,125.11481
1.9263134,130.44136
1.8533882,128.88058
1.7907671,126.94913
1.7796072,128.13086
1.7872744,126.3935
1.7658968,125.530914
1.6871535,126.298325
1.6566073,122.28794
1.6414171,122.52429
1.5763183,120.52157
1.6416398,121.794846
1.5922885,118.554565
1.5671718,115.025764
1.4676474,112.50322
1.480832,111.17073
1.4584024,113.210815
1.4586751,107.9272
1.4559253,106.508
1.4639233,107.18189
1.3243665,106.10674
1.4872211,100.8476
1.4014037,96.76231
1.3555156,95.097916
1.336878,96.76423
1.2868092,91.9647
1.2270217,93.11915
1.1288252,89.256676
1.1091832,89.56643
1.1072218,85.488914
1.1001585,80.80719
0.9885148,83.45973
1.0151281,81.31949
0.92293006,75.404594
0.90227705,77.83373
0.8983647,70.49581
0.9044478,71.829956
0.8576715,67.92842
0.9999812,69.93156
0.8442083,64.85839
0.8814679,63.796097
0.89705765,64.81251
0.8868932,64.01091
0.93169105,62.08485
0.7608832,63.72621
0.7201385,61.34814
0.74949145,58.397987
0.698908,60.552654
0.625938,62.213047
0.5928922,65.098526
0.6212095,63.121094
0.58116215,62.775894
0.52936655,64.15314
0.5356811,69.34741
0.5379372,71.110725
0.6873306,71.97507
0.7232878,73.188324
0.7856508,77.60897
0.90799755,79.89741
0.90835595,82.93397
1.080445,86.02638
1.2075287,91.87829
1.3953301,92.0819
1.4782698,97.66724
1.5208179,98.51159
1.6570272,105.32
1.6856029,106.96623
1.7729572,109.9687
1.7902992,113.51012
1.936158,119.98567
1.8072735,119.489494
1.91785,121.82744
1.9573854,124.482155
1.9804443,124.47474
1.9539229,126.59486
1.8745075,128.56932
1.9755018,123.95896
1.9555645,128.76013
1.9170785,130.28964
1.8445908,131.23581
1.8029261,130.41582
1.9061949,124.68958
1.7946372,124.168816
1.8049016,125.00414
1.7627147,123.89643
1.7492472,121.316124
1.6944759,119.3902
1.5648603,119.71671
1.4869317,116.97604
1.5140715,115.720085
1.6071537,116.0121
1.4968362,113.42521
1.5311345,108.23342
1.4976352,106.966896
1.4815936,107.46633
1.4316083,104.95424
1.4179493,103.4715
1.4574212,101.29287
1.3376678,98.77551
1.300988,95.83368
1.3518503,93.59486
1.330687,93.48961
1.2413933,93.13547
1.2100406,88.44916
1.202496,88.353516
1.1266166,86.823006
1.0602536,82.6919
1.0266148,82.64166
0.9639858,80.97087
0.94084585,77.0496
0.9015683,76.8265
0.96743757,72.54851
0.9670339,70.89873
0.9053262,72.10591
0.87822676,67.09552
0.903515,66.9407
0.8419421,68.37636
0.85999894,61.61227
0.87459475,64.42353
0.8046383,61.832645
0.7811614,63.60664
0.7111267,56.104836
0.7087732,60.136406
0.5152257,61.188335
0.52240896,60.04925
0.53075576,60.91539
0.44560662,63.11473
0.47557893,63.268124
0.4294969,66.470314
0.44243765,67.14632
0.5644518,70.443665
0.61010176,74.13011
0.6548802,75.980736
0.7625998,78.25674
0.84849924,82.592766
0.9729578,82.64258
1.0546124,89.48024
1.0723675,88.83607
1.2651689,95.48253
1.4062926,99.09433
1.4383086,104.33869
1.5317652,105.748856
1.5936737,109.165245
1.6255809,110.14504
1.5999205,111.42098
1.6687168,116.25405
1.782832,119.40016
1.7778853,120.58015
1.8938537,122.659035
1.8311201,125.553116
1.725032,126.19424
1.851454,127.90362
1.7968214,128.10992
1.8523988,128.59474
1.7690135,130.87534
1.7431409,130.2768
1.7764264,126.58739
1.7049447,126.11248
1.6171983,124.257225
1.5893619,125.87216
1.6005585,125.206795
1.5956308,124.3715
1.483822,116.814354
1.4157598,117.193855
1.4057,118.94961
1.3190011,115.23827
1.3226666,114.119675
1.3220304,110.01099
1.2961911,111.77375
1.2689172,107.033
1.1922129,106.27303
1.2602743,103.59758
1.2524998,102.44755
1.3193414,98.43669
1.2232208,99.06615
1.1650153,100.40148
1.1601056,96.8712
1.0186563,91.573044
0.97478634,93.63021
0.9788503,89.80848
0.93485886,88.43371
0.73214275,85.964005
0.8031547,85.30199
0.72463584,77.44909
0.669164,76.52854
0.65439534,74.59485
0.6041655,74.4459
0.723354,73.87724
0.65431845,70.91851
0.6464806,68.8057
0.6026208,70.25398
0.5233124,67.82485
0.6384396,66.76846
0.6015022,63.856018
0.60429204,61.366844
0.52683693,60.899136
0.4729511,62.05996
0.44557032,59.581078
0.40215245,61.00392
0.34735295,62.543407
0.21830381,62.983173
0.35784507,62.389874
0.2863623,62.99538
0.14314811,63.479385
0.16365652,66.0622
0.18589112,68.825516
0.28152582,67.8632
0.30344954,72.64451
0.39635235,74.319885
0.48720214,78.63997
0.4858981,80.301926
0.66054565,87.53846
0.85242003,89.822
0.9495542,91.61936
1.0873452,97.28126
1.0650264,98.00073
1.1368818,101.251076
1.2033933,103.96081
1.24433,107.0513
1.3660542,113.96126
1.4521916,115.87392
1.4454563,117.33267
1.5106378,119.951355
1.5321716,120.26838
1.5490555,123.429276
1.4889008,122.99336
1.5309616,129.52155
1.5887334,126.18161
1.5074397,129.09348
1.4768982,126.63398
1.457177,128.13025
1.3579124,132.13399
1.3883256,129.29866
1.3154498,128.91585
1.285031,124.52676
1.2858316,125.69219
1.3099979,121.71822
1.1940368,123.229805
1.1637402,121.18264
1.1586257,119.356926
1.1619382,116.31472
1.0889039,117.416046
1.0376023,113.41101
0.9882854,113.77147
1.041625,107.540794
1.050351,106.467926
1.0380309,105.95374
0.9921556,103.81837
1.0338502,103.50408
0.91564727,102.412
0.8556906,96.28938
0.8392617,99.01333
0.8494211,93.566864
0.80252105,92.01465
0.7458101,89.681206
0.62004435,90.15826
0.54901195,87.115
0.6814043,84.5648
0.49799383,80.27739
0.55372477,77.98448
0.4534586,78.84507
0.38848794,76.02458
0.37418342,76.2981
0.43699455,70.46479
0.35812262,69.99525
0.44637725,67.07804
0.34195837,65.52877
0.36090514,68.07953
0.40183863,66.07514
0.33520508,64.52718
0.2611597,61.7459
0.30018693,64.54045
0.29206732,63.16261
0.25978082,58.55674
0.09810558,58.23928
0.13214864,61.34794
0.081249245,61.695267
-0.0016839956,62.440002
0.026512323,63.081146
-0.052819923,63.033566
-0.016570576,67.42649
-0.016036183,67.48014
0.06769633,70.16709
0.1775584,72.61731
0.25052106,77.779564
0.2923209,78.69366
0.3843532,79.05495
0.54193556,87.468185
0.67340195,88.83399
0.72062,95.15828
0.83392406,93.28118
0.90287095,99.98963
0.96775407,102.370255
1.085189,107.83509
1.2104831,111.01514
1.1532015,110.13416
1.2060713,118.17691
1.3022592,118.57791
1.3068554,119.647736
1.4071726,122.566765
1.349706,124.340996
1.4004444,125.55057
1.3723251,125.84149
1.4384897,128.31921
1.4205979,128.72708
1.39363,129.36705
1.2807105,127.144295
1.3905702,129.31793
1.2596594,131.14413
1.254513,126.22922
1.2174652,126.42857
1.1688261,126.09494
1.2577873,121.944305
1.0294799,120.58224
1.0645832,120.284584
0.97046566,117.21843
0.9760138,114.27729
0.984604,112.51405
0.9072557,112.81057
0.92219794,110.55892
0.89853257,108.47203
0.8538277,106.85305
0.8793818,104.91724
0.80758053,106.98388
0.8278603,102.98347
0.8750745,97.34981
0.8647947,98.82961
0.83903193,95.25875
0.73118496,92.548996
0.6724435,90.60294
0.7514939,88.654976
0.53793246,86.81539
0.47495294,83.08168
0.46748152,84.6006
0.4471919,83.27065
0.3600648,77.05956
0.3561862,79.224396
0.41144392,78.59286
0.33980188,74.709465
0.29482082,72.19122
0.41910064,69.92263
0.4062426,70.76666
0.3875674,66.10918
0.28563458,66.783295
0.29856345,64.63265
0.3169843,61.54656
0.34006843,63.12347
0.25901002,61.924656
0.13238989,58.297855
0.100256614,59.195972
0.12757435,60.476627
0.03687076,61.832344
0.0721089,62.04746
-0.0044512907,60.116127
0.051528163,65.40183
0.05248108,66.20541
-0.044983394,67.06527
0.00780945,70.9058
0.097484566,72.07472
0.1908872,76.911766
0.30987823,77.995094
0.30038893,79.57549
0.4897498,83.36256
0.52346087,86.03885
0.62840176,89.80917
0.8319698,93.19231
0.8767494,96.7544
1.0153645,98.18063
1.0773005,103.83174
1.123813,104.91316
1.2187409,110.600075
1.3125215,114.55104
1.3719122,114.03933
1.3597258,120.78855
1.427116,122.17627
1.4492812,124.832184
1.4685832,122.64552
1.5107312,126.8149
1.5506437,126.983696
1.4906305,127.99045
1.4399086,126.99466
1.4548979,128.09894
1.3379897,130.07115
1.3774948,128.37819
1.3397105,127.75224
1.270248,126.67793
1.2649642,122.22624
1.3222761,123.43414
1.19406,121.03572
1.1227425,119.57317
1.1530915,119.8569
1.1431624,119.07057
1.1090043,115.037796
1.1130618,114.404686
1.103155,112.36414
1.0566778,113.04809
1.1602998,110.85837
1.0751634,106.8401
1.0331616,103.90319
0.9965809,101.860954
1.0125431,100.2844
0.9545781,99.95058
0.9285978,95.19348
0.9507901,94.873085
0.8590465,91.50973
0.8391592,88.85684
0.8078886,89.29245
0.7332008,85.690704
0.67257583,85.98583
0.6377764,83.67888
0.6472334,81.0599
0.6467372,79.034325
0.5320956,81.1383
0.50617915,72.372894
0.5617994,72.87532
0.5284235,72.66529
0.57354194,71.71559
0.65738183,71.109764
0.51945037,67.811035
0.49707463,66.7744
0.52709717,63.43778
0.43019015,62.97346
0.48649177,60.09125
0.40805587,59.77747
0.39475277,61.587875
0.43382925,62.429165
0.34898612,59.959854
0.32924843,60.737156
0.29631385,60.576023
0.22312982,62.60401
0.22863029,66.21959
0.25891927,67.140045
0.27844992,70.189835
0.3922179,71.19895
0.32335272,72.07698
0.4524318,76.73156
0.5041235,78.57268
0.57802886,80.06627
0.6652839,84.24976
0.8505992,88.19747
1.011759,91.56108
1.0293198,94.246056
1.1905859,97.41111
1.3110647,100.92512
1.3576969,106.96449
1.4002703,109.84433
1.5368848,112.440056
1.5415225,116.12977
1.6107833,116.26223
1.6728916,120.0812
1.6666347,120.41959
1.7298989,124.43863
1.7475755,121.45788
1.6682708,124.004135
1.7195745,124.54231
1.7361163,126.824234
1.7518677,130.72272
1.6282593,130.42566
1.6838773,126.759026
1.6255625,130.40358
1.6112959,124.241646
1.5870124,125.34283
1.5678506,122.96182
1.5531508,124.65724
1.4635144,119.71016
1.4681749,119.94293
1.4036155,119.41694
1.3745735,117.103905
1.3467096,114.06233
1.3755773,112.05577
1.4194958,109.42993
1.3342272,107.3581
1.3332497,109.05271
1.331086,106.30798
1.243533,103.30831
1.2823838,102.98083
1.2556673,98.49747
1.2488685,100.4345
1.2192936,95.32596
1.2327262,93.37605
1.1328155,91.67587
1.0916346,90.819244
1.056022,87.499504
0.96166754,84.29832
1.0416508,85.92467
0.89113754,81.924225
0.9042395,81.94631
0.88036346,79.47719
0.78441405,78.28905
0.8064788,74.83639
0.81192166,71.81022
0.787146,72.59893
0.79051524,70.20729
0.83679193,70.39392
0.8092377,63.943943
0.7485805,66.085915
0.78841645,62.018513
0.7779936,62.37915
0.69122106,61.788795
0.5879116,60.926815
0.6429291,60.199196
0.6183996,63.07926
0.5750259,64.07141
0.5648347,62.002823
0.5193193,62.548763
0.45487243,63.875183
0.4988525,64.930016
0.51207817,67.27282
0.5217576,66.42318
0.5255029,70.71828
0.60329896,69.058334
0.6458748,74.541985
0.77298564,76.91694
0.8650259,80.23519
0.9715505,85.64453
1.0793365,88.96402
1.1921581,89.92342
1.3770136,93.86522
1.3984452,98.34398
1.4824388,103.56436
1.5438552,108.07659
1.7589568,107.33052
1.764565,112.86549
1.8214618,115.02032
1.9477729,117.22675
1.8176047,118.600784
1.9034181,123.67869
1.9210333,121.76933
1.9731634,125.461395
1.973359,124.57278
1.9362541,127.574745
1.8738261,126.08195
1.8786504,126.192184
1.9601777,128.77625
1.8329312,127.13108
1.9174082,129.18872
1.7909384,124.802986
1.7856085,123.40973
1.740724,124.119576
1.7251191,122.23416
1.6212308,122.72461
1.6787543,120.43935
1.5492364,119.29344
1.6142159,115.798225
1.5731493,116.21265
1.5130212,116.19072
1.4439814,112.09596
1.5397286,109.738625
1.4316193,105.59632
1.47925,104.381546
1.4602649,103.40379
1.4413078,102.71652
1.4226456,102.36389
1.4321613,97.03281
1.3542817,97.94555
1.3216314,91.62874
1.3018432,91.28552
1.2572513,88.34862
1.1855259,87.35078
1.0806714,89.723495
1.0399048,84.88291
0.9773014,81.96303
0.93364435,82.14962
0.9528313,82.19966
0.923875,77.56897
0.8918773,74.59541
0.9705022,72.78617
0.94408023,70.39231
0.90490884,69.5825
0.93191487,72.19351
0.967652,66.07086
0.9906979,66.85619
0.9190801,63.482956
0.82866734,62.578014
0.86585,59.673885
0.83329713,59.60234
0.70993626,58.93515
0.73843277,61.358013
0.6711791,60.875355
0.60769,62.941895
0.6422121,59.659378
0.5157077,63.007103
0.52091306,65.45452
0.47758695,64.56699
0.5604831,68.219604
0.5012668,72.98776
0.66954184,72.69209
0.7727757,79.50498
0.8508049,79.61326
0.89269966,81.93559
0.9831287,84.35168
1.1388853,88.20857
1.2304542,93.72245
1.4675615,95.21196
1.4710239,97.05154
1.6646564,101.65621
1.655716,107.558784
1.7067769,107.96208
1.8133801,112.51769
1.8029625,119.29254
1.9317334,118.803276
1.9028876,117.61256
1.8941995,119.76943
1.96731,123.88925
1.9170288,126.32006
1.9085788,127.18445
1.9642318,124.011986
1.9842634,126.80032
1.9687282,126.19093
1.8329226,128.54326
1.8832095,127.66587
1.6953154,126.10829
1.7638624,123.896255
1.7340064,125.574455
1.7507203,122.99979
1.6852165,123.28498
1.6875356,115.75189
1.5342643,120.83858
1.5119468,119.4612
1.5330427,116.77621
1.5297023,114.530495
1.5401725,114.87972
1.4276459,109.6004
1.4050841,107.63415
1.4565138,108.24458
1.4114248,104.897194
1.3715217,102.974014
1.4119791,99.42187
1.348376,101.40022
1.3258479,98.211716
1.2232467,98.422874
1.1290826,94.68702
1.2252539,93.30352
1.1477903,89.98011
1.1136945,86.01717
1.0629677,87.04169
0.9350559,84.18396
0.91811305,82.69761
0.8933842,78.72756
0.8166397,79.895096
0.8046105,72.79507
0.81843746,74.62491
0.8451496,75.91306
0.8009133,69.1379
0.8283396,71.545654
0.82201856,66.51285
0.70108426,63.99841
0.80051184,66.05893
0.70838606,65.555176
0.7050616,61.88982
0.72239435,58.669006
0.6048463,61.50328
0.49269247,62.544487
0.4413854,61.04558
0.5142489,63.536827
0.494864,61.421978
0.4184901,62.33444
0.3148244,61.882748
0.4185544,64.97159
0.40619415,67.92159
0.41556033,67.604836
0.50442207,72.268906
0.5641958,72.745575
0.56390196,77.0848
0.74514747,80.90278
0.8108384,82.18985
0.95360625,86.905556
0.9915214,88.74105
1.0999942,94.329254
1.163996,97.939995
1.258122,98.548035
1.3871269,105.07117
1.4997618,103.229614
1.530159,111.37218
1.5591539,111.8258
1.5722326,119.25426
1.644034,116.95834
1.6942716,119.9759
1.6860611,125.292015
1.7565837,121.69401
1.6572495,125.90362
1.692506,126.682526
1.6530744,128.20085
1.7779715,126.76311
1.676827,126.83556
1.596491,126.9624
1.640033,127.56086
1.6018001,127.40346
1.554056,125.05869
1.4009185,125.1723
1.4376833,123.64346
1.3671906,122.76943
1.3829222,121.55143
1.340882,119.59674
1.3471007,116.963684
1.21954,117.699974
1.2678248,116.6228
1.2604779,113.29255
1.1697344,113.31497
1.1464446,110.646675
1.1197175,105.69442
1.14978,105.000175
1.1372576,101.177704
1.1336334,100.33891
1.0545003,99.90717
1.0573375,98.27726
1.0275319,94.52006
0.9783786,94.317184
0.8980324,93.32945
0.7996584,89.8628
0.77316153,87.35439
0.8592443,86.3606
0.68916494,80.08378
0.59718955,81.98331
0.59725016,79.316284
0.5967044,80.747314
0.6062191,74.70947
0.46786517,71.93975
0.56232846,70.31133
0.47844344,70.979195
0.50862706,67.92591
0.48104858,67.62645
0.5385315,63.72171
0.43480822,63.692516
0.4900198,59.381557
0.35869387,63.939545
0.4010587,60.66179
0.42630565,58.536373
0.30889592,61.761723
0.26721832,65.05382
0.14683309,61.505093
0.2280625,63.1083
0.12308837,62.664658
0.11384418,65.593895
0.120078295,64.99457
0.06504117,66.792244
0.1484028,71.23869
0.19931965,74.07401
0.18685657,74.55957
0.32140332,76.30809
0.42144835,80.270584
0.5310978,83.480606
0.6442875,85.39066
0.7019306,89.97984
0.8176721,95.04646
0.95014685,96.988266
1.082542,98.86327
1.2164726,104.888214
1.2791073,106.91319
1.2240536,114.86693
1.3559946,111.01738
1.4116024,117.60582
1.3878654,116.231186
1.4507608,120.24937
1.5410202,124.34019
1.462733,121.51235
1.4957073,129.13612
1.4452115,126.17055
1.395188,127.48814
1.4053657,131.53064
1.360726,127.826355
1.4434779,126.87919
1.3306935,128.73209
1.3050007,126.023254
1.216124,126.43514
1.2761184,124.99896
1.1726238,124.55399
1.1839253,122.830734
1.0741374,120.45083
1.1039016,118.60754
1.047829,118.765625
1.0437814,114.91343
1.0107019,113.82713
1.0734131,111.64611
0.90213317,112.73262
0.9467192,105.92635
0.95114225,104.591545
0.89965034,104.6924
0.86897844,102.11698
0.85686606,98.73597
0.82925427,99.64045
0.7755031,96.89874
0.78565234,95.37768
0.7930545,91.271194
0.7290013,90.58802
0.56475836,90.89175
0.5307672,83.75297
0.5409754,85.94795
0.44409817,84.224884
0.44398883,80.9758
0.38842386,74.621826
0.4064537,77.131744
0.31058273,73.30043
0.40008363,77.266495
0.2407073,73.93296
0.29042873,71.785805
0.34755206,68.48805
0.29171473,63.982155
0.34817535,66.513535
0.31133136,65.781525
0.297139,65.3342
0.22848003,60.493458
0.16023289,60.79071
0.16993283,59.612427
0.12142133,62.65604
0.049736734,62.151123
-0.0070472807,61.214725
0.015832126,62.871834
-0.06368953,65.30545
-0.025927113,63.132317
-0.12127485,67.05832
-0.043112308,68.26903
0.022621276,70.3537
0.018915348,72.60859
0.18417668,76.48104
0.27568847,80.818436
0.41119128,79.64523
0.43553236,85.87678
0.5090747,88.84644
0.66875786,92.72804
0.801467,95.99987
0.83211315,97.377495
0.9538446,104.08993
1.0694782,102.42721
1.1633143,108.142265
1.1123239,114.18187
1.1862942,110.689606
1.247785,118.94377
1.3562137,118.31241
1.3247596,119.26372
1.4282503,123.54092
1.3709191,125.98852
1.4027227,125.93556
1.352004,129.68634
1.329777,127.268295
1.3967159,128.02539
1.3060713,128.56293
1.3065231,129.7174
1.2589753,128.50183
1.1892071,126.72839
1.3075033,125.20086
1.1330116,126.7986
1.0838006,122.36705
1.0883219,121.73908
1.0687858,120.15317
1.0679681,120.290146
1.0221611,115.75751
1.0016111,118.08016
0.966217,114.04915
1.05333,114.04321
0.9030676,107.1575
1.0030078,108.539444
0.86851466,105.32207
0.88759035,104.41337
0.8628924,103.00732
0.94141483,97.07059
0.90571177,100.58783
0.8027032,94.55707
0.7426386,92.50364
0.80872136,93.43352
0.6885783,92.74107
0.69841117,92.92037
0.5334865,89.12025
0.5825809,81.33493
0.4668782,85.6177
0.41131932,82.36879
0.46884638,79.031044
0.33014596,76.42573
0.3884014,75.2251
0.3436405,73.21617
0.3759209,69.21114
0.37065244,69.59002
0.3629618,66.44106
0.29616168,69.55736
0.34688088,65.484245
0.34702775,63.746037
0.29812005,61.599873
0.35206628,59.747356
0.2828143,59.69544
0.30056894,60.904976
0.23097934,60.20775
0.14021601,62.045773
0.11534452,61.344765
0.039744347,59.52628
0.08475571,64.10017
0.019297404,65.11217
0.1045643,68.29766
0.119247824,67.618225
0.12175145,71.68
0.3008554,73.01432
0.33928996,75.78609
0.36508152,80.08475
0.47375032,83.13631
0.6328894,83.45151
0.63887197,89.2242
0.78156066,91.46178
0.9506137,96.502144
1.1253115,102.284485
1.1279031,101.67442
1.2790879,107.09655
1.2619598,107.00484
1.3331016,108.39899
1.3852925,118.63988
1.4921136,115.866234
1.5008779,121.20567
1.5232916,121.913216
1.5362177,125.53107
1.5628393,125.34648
1.4914794,128.74207
1.5466491,127.466095
1.4963714,127.41407
1.5533109,128.98637
1.4267329,129.74876
1.4864862,127.52305
1.4027371,126.25803
1.4556612,126.96419
1.4960418,128.11348
1.3807096,122.87322
1.3639463,121.483025
1.2710081,119.964325
1.2564117,119.520676
1.2156755,116.647804
1.2208785,116.4787
1.1506402,116.383705
1.1482263,114.497734
1.0626867,109.70796
1.1532928,108.787544
1.1388576,108.43512
1.1113436,107.56081
1.178406,101.69773
1.0926443,101.90668
1.1104966,97.049644
1.1527665,97.27064
1.0253214,97.44066
1.0731865,95.00701
0.9239123,89.77003
0.8939852,91.42255
0.7968189,91.36976
0.84376645,85.808395
0.8234711,82.96662
0.73137075,81.71635
0.8349918,80.69932
0.63381076,76.91823
0.68777055,80.16932
0.6494217,75.96478
0.62054724,72.23244
0.61059904,67.755226
0.683079,66.55534
0.61881113,69.6117
0.69025993,68.51077
0.59338516,64.086365
0.5888451,63.07645
0.5327736,60.957966
0.6003881,63.375095
0.5080086,61.274704
0.5004237,62.994637
0.47230014,60.594746
0.4283329,63.352715
0.32615405,61.98284
0.38794342,60.824345
0.3565437,65.43053
0.3854409,64.24643
0.38554987,67.8596
0.3985621,68.292114
0.46121103,68.48589
0.45688698,72.39085
0.5446355,80.523964
0.6313592,83.18218
0.7958748,86.88132
0.805843,88.90101
1.0073621,88.72954
1.1198233,91.88266
1.2350619,95.44787
1.3050531,99.971176
1.4356626,105.53154
1.4870503,108.18072
1.5831809,111.13567
1.648461,113.34008
1.7711926,115.27755
1.6739821,116.53842
1.7625711,120.28103
1.7938659,120.53991
1.8955615,124.40564
1.7738591,125.03451
1.8466233,126.94573
1.8024865,129.08485
1.838554,128.56712
1.7714922,126.86497
1.7418369,128.08829
1.770536,131.85352
1.7015584,127.85014
1.7654642,129.46028
1.7592218,124.28289
1.6099161,124.10682
1.6216477,122.491234
1.5904847,123.33868
1.5211382,119.10153
1.4693546,115.61384
1.4662808,114.920616
1.4025278,116.80776
1.4656216,110.52497
1.418596,109.99388
1.417795,108.54779
1.403545,106.054756
1.3969077,107.75165
1.3728644,99.563835
1.35685,97.4396
1.3091977,96.88237
1.298308,95.935
1.3167113,96.19412
1.2380495,96.08222
1.220607,89.87901
1.2478951,91.03001
1.0872667,88.04516
1.0970193,84.399475
1.098371,84.681786
0.8902768,81.03362
0.9520973,81.87162
0.8704882,78.014595
0.85878044,73.82235
0.9141804,74.48806
0.88341904,72.29753
0.8951993,69.91837
0.91833264,68.248825
0.84702665,69.07204
0.85533667,66.74236
0.862551,63.591824
0.90837264,61.856064
0.80726826,63.26707
0.8391485,60.005512
0.7368777,61.08023
0.7159058,60.40436
0.6658939,59.950974
0.6419576,60.969078
0.5303674,62.367245
0.53897107,62.44092
0.5067668,63.551136
0.5400138,67.10363
0.55901545,69.884636
0.54791003,68.35612
0.49727538,73.89184
0.6999845,72.85037
0.77023345,77.79068
0.9157656,81.97034
0.9650449,85.4783
1.1296147,87.7308
1.2060131,90.71453
1.3070745,93.144295
1.4515165,98.76176
1.5343062,101.5413
1.58357,105.5802
1.7254281,106.067314
1.779104,110.732056
1.7886729,114.13452
1.9131095,114.69922
1.8766373,120.69405
1.9275578,122.10278
1.9480803,123.668396
1.9515604,121.471466
1.9840562,128.76685
1.9762275,126.06305
1.9142804,124.39816
1.9859952,129.25641
1.8946917,128.17929
1.9231678,127.62657
1.8906928,127.775345
1.9186374,127.30399
1.845009,126.01842
1.7598566,126.132225
1.7752405,122.218544
1.74066,123.65209
1.6812685,122.116905
1.5675126,118.41734
1.6095935,115.799965
1.5862155,117.16066
1.5821174,116.22254
1.5145303,112.37029
1.5814883,112.542305
1.4718395,104.46687
1.3920871,106.30883
1.4963404,104.057884
1.4241803,102.975525
1.434609,100.01366
1.3771878,98.77563
1.327649,100.56405
1.3580891,96.10196
1.2739624,93.57218
1.276405,88.59572
1.168106,89.9213
1.0601228,87.59064
1.0567974,86.17113
1.0088103,81.8292
1.0079935,82.36199
0.932765,79.19316
0.9308498,80.16291
0.91901857,75.80747
0.8740389,74.86307
0.8895696,71.616
0.8918571,66.79954
0.82391006,67.96369
0.83717763,63.859802
0.93066674,64.08265
0.8759667,60.42717
0.82344586,63.0059
0.9038113,61.32689
0.80877185,60.94221
0.74645144,60.62957
0.7237126,58.589752
0.6305174,60.666378
0.5442223,61.109634
0.5307014,59.420708
0.46671936,63.81631
0.4822278,65.68494
0.515766,63.58931
0.4758024,66.58291
0.5503791,71.157814
0.63903284,72.0445
0.6600302,77.7064
0.7849975,74.65611
0.8608449,82.98368
0.97797877,86.79212
1.0918763,87.92361
1.1447015,88.27957
1.326964,94.891
1.3499951,98.897514
1.4714987,98.9894
1.5411178,107.51484
1.6557603,107.49387
1.7260387,114.64673
1.7367387,113.81436
1.7663716,118.82826
1.791932,120.84452
1.9506286,121.926895
1.8627027,125.74924
1.8222067,123.81502
1.8433347,127.78782
1.9020118,125.14484
1.8003095,127.1123
1.7705475,127.181656
1.818491,127.90479
1.758429,125.460106
1.721184,125.89861
1.6692103,128.13696
1.6645298,125.11479
1.6997869,125.00012
1.601685,121.501045
1.535011,121.05451
1.5575297,121.70228
1.4269361,120.54308
1.4950343,116.60654
1.4558612,116.149124
1.3551296,112.92716
1.3646178,110.82946
1.3147023,112.10761
1.356716,108.690445
1.346471,104.13206
1.3298078,104.33473
1.2842398,103.2973
1.2696061,98.416855
1.205956,97.39923
1.1800647,94.762924
1.0831695,95.09448
1.1081961,93.736755
1.0299392,91.539566
0.9853813,89.51849
0.9336658,87.07484
0.84608924,82.86779
0.8096705,83.74587
0.7738869,80.21441
0.70292157,79.58303
0.6931577,77.76455
0.71804595,74.56347
0.6832673,74.499275
0.69233245,72.19371
0.6705576,67.763535
0.72677004,65.87624
0.6402497,66.50449
0.7098778,67.44837
0.7602029,63.65341
0.5827409,62.20553
0.5489339,61.668827
0.54114556,63.31608
0.4626445,59.946377
0.46161678,62.63663
0.40383074,61.871845
0.38709503,58.702244
0.17379789,62.911877
0.32228807,64.819466
0.2721946,63.33819
0.2890186,66.105576
0.26850334,69.50265
0.3815713,72.0094
0.41678172,73.10206
0.48682687,76.772835
0.58490723,78.35835
0.59058857,82.770386
0.7180114,85.47069
0.89856064,89.27327
0.93987215,94.06278
1.108914,97.56237
1.1832119,97.43609
1.2768338,104.19227
1.2824852,106.40869
1.4474717,109.49124
1.4765909,110.54294
1.4839637,113.674644
1.5278493,116.17518
1.5934539,120.364716
1.5822039,121.64053
1.6596621,119.4691
1.6330158,125.62111
1.5995673,127.175446
1.6087751,126.914345
1.591708,131.0566
1.4720339,128.07497
1.4925507,129.01907
1.4497212,129.49728
1.4416032,127.53921
1.437592,124.496254
1.3832855,126.54507
1.2822216,123.96961
1.3082657,125.141556
1.2647834,119.9867
1.2863525,122.109825
1.1261762,117.89275
1.1938834,118.31551
1.1863142,115.62863
1.0879847,111.33312
1.0790951,111.42228
0.96193105,107.45301
1.0498245,105.13134
1.0062339,104.09558
1.0088183,102.25837
0.9743113,99.45966
0.9570273,100.89792
0.95034003,98.39764
0.97082764,95.311615
0.75875485,94.34581
0.795601,92.31671
0.76319677,91.81108
0.6875512,86.1175
0.73814845,89.809654
0.6081583,83.95381
0.5254669,81.76651
0.54538864,78.78085
0.51320815,79.7588
0.4785401,74.39005
0.4173196,72.55113
0.48436618,73.75011
0.46182695,70.21112
0.39435095,70.59244
0.3805748,70.81039
0.43327728,68.244675
0.3703749,62.70249
0.33466822,64.53381
0.33672783,63.022972
0.27152103,66.045296
0.19305067,58.754803
0.215748,60.855526
0.20613578,59.967865
0.15416262,60.283817
0.07598999,60.70626
0.0697627,62.93648
-0.05817781,63.220936
-0.01451096,65.485825
0.010338399,65.681046
0.01905588,71.31023
0.08247833,70.60524
0.17855434,74.052925
0.25499436,77.25595
0.34648305,78.471
0.42648587,83.21242
0.49585092,88.38005
0.52449536,87.83926
0.7055867,93.26526
0.88412106,92.27398
0.94899017,102.35551
1.054877,101.7934
1.1389405,106.96268
1.2061101,112.246925
1.2262553,111.65404
1.2515767,119.10102
1.3280356,117.64498
1.3714646,119.08873
1.399256,121.19237
1.3966373,125.300446
1.4465497,126.30726
1.3842443,126.3291
1.3626359,128.32541
1.3928058,129.55646
1.38952,127.56503
1.3372815,125.4036
1.3198022,126.96946
1.2541811,126.10361
1.2450525,126.24336
1.2184297,123.60699
1.1318363,123.84158
1.1362826,124.30156
1.1446639,122.317665
1.0156577,122.02394
1.069617,119.59764
1.0279086,118.97932
0.86364764,114.407776
0.9730942,112.73192
0.99742633,109.705894
0.8677195,108.49101
0.9560156,101.94697
0.8509455,104.75272
0.8234045,104.56442
0.7956821,103.25143
0.9074405,99.23937
0.70942324,94.34766
0.8287383,95.863754
0.734573,95.91179
0.6640229,92.17432
0.632627,92.60183
0.56343466,88.83681
0.44701225,86.40549
0.4391376,85.19042
0.4356504,82.56777
0.45688683,79.87229
0.41923395,78.25363
0.39861524,77.00087
0.31362757,73.18608
0.37410915,71.71466
0.32718474,68.99031
0.40175816,67.689064
0.34402284,66.97671
0.29498383,65.02953
0.24484107,61.89281
0.26115903,62.389996
0.1853672,59.107746
0.23005995,59.963196
0.12989703,61.5683
0.14997606,58.126083
0.09822421,61.307354
0.12230508,61.050476
-0.03404017,62.393463
-0.049075652,67.39348
0.049922258,63.745117
-0.025435159,64.06775
0.01820756,65.50111
0.014384229,69.5017
0.058785725,70.459785
0.16591157,74.3331
0.30344206,75.63623
0.30083597,78.857796
0.37405667,86.24356
0.49081632,85.059525
0.58204776,91.27654
0.8430091,95.43225
0.9101744,98.531784
0.96980655,100.60249
1.1074022,106.07827
1.1632297,107.0365
1.1792479,109.13959
1.2218423,113.01951
1.379144,116.14971
1.3328004,119.8666
1.3615552,121.16331
1.3431664,123.57919
1.4742063,124.67925
1.4958758,127.589905
1.4765538,125.457115
1.4800591,129.2006
1.4345776,128.42834
1.4712343,129.95085
1.3525344,127.8017
1.4162546,128.29773
1.3607128,126.762115
1.2933344,125.43319
1.2661672,124.971954
1.1643026,124.18682
1.2129071,122.5726
1.0677993,121.79093
1.0804852,119.54279
1.0762724,116.92678
1.0421108,116.918175
1.038972,115.57118
1.0613481,114.552155
0.9342338,110.3541
1.0010074,108.63881
1.0422568,102.19139
0.96605283,105.97159
1.0373846,105.65318
1.0471996,100.712204
0.9465778,99.00913
0.86981857,97.23505
0.8528256,95.82009
0.7781516,91.79199
0.82830787,89.44557
0.7100439,87.890045
0.6413358,89.090935
0.6663014,85.88375
0.5787596,84.59413
0.6384549,82.23944
0.51116633,79.23809
0.39613253,77.657036
0.52637064,76.138245
0.5255292,74.734665
0.4360038,70.56555
0.4930829,71.223274
0.4943993,66.88814
0.48338062,66.95635
0.48478013,64.109184
0.5050486,63.801453
0.42991117,64.39876
0.4533596,58.696114
0.34366873,61.724407
0.37079456,63.335796
0.17447183,62.739044
0.24838497,61.25752
0.21443711,59.89669
0.29380688,63.912865
0.14184412,61.84046
0.14727803,63.133198
0.16427623,66.03064
0.1913623,68.38551
0.24996267,71.412285
0.26525134,71.935394
0.3717673,76.48291
0.42035863,80.01388
0.57497275,81.74092
0.6943814,85.82157
0.7212637,88.29865
0.9324006,91.53962
0.98950016,94.554146
1.1850168,99.12461
1.2233443,105.73945
1.3104117,104.91759
1.3780594,108.16792
1.4241147,109.05085
1.5014431,115.44854
1.5990229,117.22964
1.5358859,119.45931
1.6633894,122.77553
1.7357167,125.65834
1.6538303,125.83052
1.6630065,124.90762
1.6965383,128.69536
1.667445,128.81238
1.6092979,126.872734
1.7030946,125.7025
1.5559074,130.45119
1.672182,128.2542
1.5016867,124.88405
1.5645123,127.16194
1.4686108,126.12617
1.4383947,124.10125
1.4210317,120.89755
1.4343743,120.22011
1.3267975,118.10014
1.3462818,117.387344
1.344918,115.81475
1.2612213,108.05327
1.295472,112.68194
1.248437,110.9219
1.250368,107.989685
1.2847914,107.06639
1.2796623,103.49533
1.2718842,104.33664
1.1805053,99.19275
1.18506,98.393364
1.0805439,98.10017
1.1091385,94.50073
1.1353492,91.56807
1.0816662,88.694405
0.9650534,89.84672
0.9607437,87.159645
0.99934363,85.13815
0.80693007,84.004005
0.9100024,81.25139
0.77220106,79.55024
0.7636074,75.88413
0.7574798,75.95905
0.79465705,73.208435
0.7580377,72.08701
0.78309435,72.369545
0.75496626,68.18476
0.772941,65.63738
0.6795122,66.688255
0.75041676,65.73093
0.6981327,62.300545
0.68756974,65.61503
0.5814291,63.44252
0.6587879,64.04911
0.51801753,62.4544
0.56962705,63.563503
0.4584239,59.89259
0.539353,64.822685
0.38443524,61.52921
0.39460933,62.734406
0.38898578,63.534916
0.4305587,67.758446
0.45585358,70.94317
0.5770078,76.68314
0.70833236,76.36199
0.8098155,78.84076
0.9247254,78.866844
0.8129751,85.26515
1.000593,91.712845
1.140967,94.73416
1.2684996,96.83599
1.381652,101.05476
1.549462,103.486565
1.5278839,105.55157
1.6434176,110.68132
1.7046915,110.808556
1.7041063,115.253006
1.8151276,117.38864
1.8608088,122.28229
1.8614781,121.40746
2.0032027,126.1663
1.8251225,124.87664
1.9757981,125.65192
1.9122894,129.24559
1.9171572,130.12926
1.884316,128.69058
1.925169,131.76372
1.7907729,127.65887
1.79554,126.758736
1.8765948,126.32326
1.7845447,127.88627
1.7312317,125.4623
1.6126786,123.879074
1.6959511,121.51451
1.6702204,122.95601
1.5399644,118.996284
1.5850717,116.96985
1.5127141,115.06865
1.4931686,116.23031
1.4552863,108.69316
1.5413235,110.83346
1.4696233,105.44788
1.449337,102.80186
1.461884,101.68894
1.4306585,100.49543
1.3679068,98.25374
1.3668759,96.36081
1.2917706,96.66113
1.3437079,92.8058
1.3076831,89.70867
1.1854541,91.72736
1.1725497,92.905396
1.1599396,87.02354
1.1667646,84.670685
1.0354552,82.24955
0.9020476,81.51263
0.9514582,80.994446
0.99063385,76.51971
0.88742495,76.05184
0.9182192,72.188866
0.88650966,73.14894
0.94600517,64.66611
0.95747674,67.83522
0.8994749,68.35387
0.89824927,64.44663
0.8573052,63.780937
0.84610933,61.269783
0.8177014,60.952713
0.77019614,60.66017
0.70721036,58.15086
0.69782996,63.835384
0.6206002,62.396103
0.558555,62.314983
0.6381614,61.551323
0.51095396,63.831642
0.6074418,63.02177
0.541695,66.168365
0.5270741,68.12263
0.5519013,69.9886
0.7611934,75.055504
0.77294075,76.57951
0.92710143,80.03381
0.9561456,85.36843
1.0198879,83.059616
1.1544456,91.38706
1.3435885,93.870445
1.4088082,98.093155
1.4603392,102.2202
1.6688936,104.53965
1.6559874,107.72992
1.7930055,111.12411
1.8634207,110.947105
1.8787758,117.73622
1.8412527,122.21983
1.9718753,123.00678
1.9185269,120.48747
1.9123516,124.3447
1.9979032,126.89755
2.0037913,126.16962
1.9607711,125.154495
2.031781,130.1383
1.9720421,127.36182
1.903136,127.35567
1.8945962,128.6197
1.8382666,128.86467
1.7613521,126.66475
1.6989844,126.92697
1.7662542,126.212
1.6828133,123.045135
1.6328661,122.66142
1.6145908,120.15064
1.5367166,117.85637
1.515583,115.53637
1.5092969,114.043884
1.4760199,110.111496
1.5389613,111.746185
1.3839151,109.94634
1.4467466,108.37384
1.4680274,108.100365
1.4184937,101.51508
1.3939316,100.38529
1.3975097,96.75175
1.3488516,97.96194
1.1752602,99.11926
1.252096,95.843155
1.2331262,87.53024
1.1843903,90.958824
1.0717926,86.93457
1.0143812,85.518394
0.94484484,81.77961
0.9239328,82.6439
0.94762325,81.20401
0.9044881,76.35651
0.8709956,76.78333
0.817367,75.37912
0.93489677,69.996574
0.88444,70.00573
0.7732483,69.93188
0.8102071,68.56808
0.8527831,66.872154
0.78447807,66.31652
0.8401987,62.7103
0.7394417,61.3683
0.710661,61.33723
0.65161353,60.810646
0.5970652,63.38699
0.58054286,60.730312
0.4672178,60.178722
0.53132105,60.1557
0.48292795,65.07975
0.38318694,63.746212
0.37531266,66.85084
0.40824923,67.01987
0.47107568,73.444214
0.521912,73.77744
0.5606441,73.123695
0.7231763,75.83743
0.7234675,82.33291
0.89089453,87.1032
0.9309734,85.68464
1.2088492,91.973785
1.209382,94.67442
1.3196937,98.24894
1.3787262,104.43009
1.461288,106.30652
1.5307353,104.13156
1.5631025,111.63733
1.6931882,115.0358
1.6995231,117.584175
1.7253925,118.29038
1.6359383,119.227356
1.7795069,122.805916
1.7257289,123.15955
1.7906721,125.51676
1.7990005,123.71827
1.7994082,125.46076
1.6837509,127.79271
1.7381926,127.68065
1.6657634,125.9505
1.669013,125.48952
1.6569192,126.34496
1.5988628,126.23957
1.5372028,123.66618
1.3718216,122.12241
1.3330755,122.54461
1.4123727,120.86347
1.3383381,120.95474
1.3410217,118.037125
1.3809277,120.30959
1.3146678,113.895325
1.2117481,113.52866
1.2597834,109.1243
1.241621,109.07802
1.2289273,105.20228
1.2054195,104.35013
1.130123,99.73128
1.1906797,99.909744
1.1200336,99.52397
1.1078537,94.05783
0.99362725,96.98047
1.0251583,92.832695
1.0245891,89.41993
0.8973611,92.70678
0.8178822,86.86107
0.7549717,84.03963
0.7752997,84.052414
0.79529,80.452194
0.6171798,80.88979
0.54321223,78.90375
0.6125198,74.97568
0.5346939,74.96603
0.56534547,71.58279
0.6285747,69.76578
0.5508443,66.837746
0.57315975,67.5663
0.56986755,66.33247
0.4791763,63.308006
0.50706667,62.821163
0.37905243,61.18714
0.4237873,60.36216
0.46364683,64.72375
0.37485272,60.637856
0.30216414,59.281834
0.19692703,64.51129
0.17245497,63.52614
0.12319191,63.431236
0.22384293,65.42317
0.2096096,68.40406
0.18712944,67.315674
0.1682633,68.66873
0.24833244,72.01999
0.32760227,75.50161
0.3644953,81.61526
0.46224082,84.737915
0.594495,84.57639
0.7156288,88.93482
0.80777353,91.5558
0.93184566,96.8672
0.9541778,102.018845
1.0912751,103.82762
1.1856974,101.63044
1.2621753,107.786865
1.4146788,112.68099
1.4075154,114.4088
1.4505954,114.74363
1.4615183,119.65955
1.4801618,121.93902
1.462604,124.212204
1.5330588,123.81585
1.4556724,127.67211
1.4284344,128.73958
1.4985844,128.7534
1.4303493,127.57965
1.4054241,129.86906
1.4098638,127.759026
1.3873856,127.800186
1.3202,126.55128
1.329195,127.25134
1.3205541,122.37455
1.2314016,123.388916
1.25965,123.78398
1.156177,117.68737
1.0883845,118.42553
1.0156263,116.32952
1.0718322,115.8226
0.99470586,114.07749
0.97469485,110.143196
1.023758,106.711205
1.0131334,107.26921
0.9241974,106.60336
0.8949356,100.59484
0.94299775,100.89623
0.85566086,101.466774
0.842623,96.07287
0.881836,97.09119
0.81579435,94.020294
0.6768377,94.040375
0.6722975,91.09152
0.59881556,88.58963
0.5650143,89.37583
0.5585828,84.621826
0.46313858,79.33746
0.47685516,81.71157
0.4628401,81.57633
0.39433238,77.20621
0.3494059,75.23025
0.4240368,72.745705
0.40446022,72.95242
0.3426767,67.55409
0.26485464,66.203926
0.33313602,64.399055
0.38270044,66.50056
0.3085971,61.657146
0.24412411,63.675446
0.25957343,62.33404
0.22981301,62.483868
0.16958736,59.909378
0.09147376,60.075478
0.0808169,61.651833
-0.033433698,60.1052
0.052149475,60.71094
-0.0846265,61.652824
-0.020186268,64.76792
-0.0093359165,66.2986
0.010609309,69.08627
-0.011371001,71.69933
0.16200978,71.148834
0.17131351,77.26749
0.21552984,80.66452
0.3825866,84.35228
0.5171308,88.207985
0.5058321,88.88887
0.71818715,92.28967
0.7373267,95.35349
0.87731963,99.074265
0.93054014,103.44671
1.1087093,107.07988
1.1930267,110.28694
1.2009759,113.75181
1.1929059,111.69573
1.2546538,116.21619
1.2539732,120.99628
1.3189989,119.09807
1.4120041,121.54831
1.2665117,126.008705
1.3661138,127.088394
1.3693177,130.52757
1.4106714,127.18911
1.3685164,127.13147
1.3981961,126.76496
1.2114648,127.72732
1.2468995,126.91688
1.196938,125.22988
1.1330112,126.450676
1.1435434,126.68643
1.0724692,121.844955
1.1014886,120.24642
1.0148166,118.69691
1.0345857,118.33504
0.97864693,116.746124
0.95308125,116.237015
0.8927049,112.13663
0.9539675,110.246826
0.97277313,109.29292
0.8887262,108.35532
0.8969383,105.06898
0.8824993,103.42208
0.86716145,102.04094
0.8627104,97.359406
0.9003909,96.82342
0.8126097,95.542656
0.76108134,93.96689
0.68994725,93.53687
0.6379126,90.74822
0.56848586,88.488716
0.57118016,84.287155
0.44870588,84.18957
0.39953503,82.94458
0.38507107,80.722145
0.410777,79.08065
0.36743623,74.17419
0.39055005,73.142
0.29072747,71.74026
0.2696259,72.01962
0.34794298,68.949165
0.27652195,70.73039
0.3660576,66.30982
0.42415366,65.14319
0.32451123,62.400375
0.28637186,64.039696
0.32336536,61.485653
0.24356577,61.730183
0.30024654,60.017643
0.20704012,61.645565
0.16836464,61.918514
0.1040365,59.058704
0.024012845,64.638565
-0.013384299,67.507095
-0.033988692,68.87251
-0.04913148,68.912224
0.12350949,68.72335
0.043933984,71.55086
0.067976214,76.66502
0.26368222,77.39966
0.3186076,77.51193
0.56938857,84.393425
0.63230574,87.69781
0.6622099,90.1129
0.77931035,89.5645
0.9121328,96.82869
1.0380105,100.06381
1.1409116,102.55428
1.1472954,106.05672
1.1925828,110.988846
1.2877344,112.37594
1.389507,115.04921
1.3886414,119.31656
1.4219158,119.98214
1.4259659,121.883835
1.4073755,127.93445
1.5477138,123.46266
1.4384376,126.911804
1.4833916,128.42387
1.3667154,130.26334
1.438554,127.54489
1.4255493,127.53653
1.3996549,127.224594
1.3759017,124.71336
1.4572383,128.46182
1.3143488,126.21658
1.2375801,125.02959
1.2605193,124.71076
1.2502878,121.46031
1.2151222,119.22626
1.1683159,119.58718
1.1311301,117.19014
1.1033242,113.740814
1.0740865,110.593346
1.1294062,110.7813
1.1027051,106.93946
1.1070458,104.72669
1.1137141,107.657745
1.0932847,101.63714
1.0251291,99.95852
1.0345805,102.418945
0.96527225,94.47705
0.99684405,93.21446
0.89531326,95.66546
0.9332044,92.19081
0.869159,90.61466
0.736668,89.249916
0.76514304,86.514465
0.71907246,81.081764
0.6155553,79.14209
0.58216494,81.366104
0.68583316,77.592636
0.60234493,76.46676
0.5731044,73.67685
0.5904328,72.48468
0.67174214,70.25264
0.6280865,68.50405
0.5196593,67.98227
0.5812937,64.26584
0.5246397,65.21302
0.5445079,59.748463
0.42911306,61.43802
0.49026805,63.788734
0.46826673,60.848896
0.35902578,62.770706
0.40660852,63.887863
0.38767484,61.961533
0.2715668,63.58516
0.33422303,61.52223
0.19967732,65.34175
0.25131986,64.43597
0.25585335,69.36905
0.33701226,66.63015
0.4407148,71.10489
0.4958148,75.10861
0.54278153,77.485306
0.6005974,80.19936
0.691489,83.41746
0.866513,88.9681
0.94961786,91.813614
1.1631548,92.7771
1.1950666,94.32615
1.2901876,101.61871
1.3512516,105.08836
1.450365,107.15732
1.512197,110.20171
1.5518404,114.00925
1.6370599,120.16119
1.7274784,116.38522
1.7509927,122.16888
1.7860389,121.651825
1.7146382,128.53082
1.7355511,126.87877
1.7862457,127.40848
1.7376585,127.28406
1.6898435,126.84638
1.7313037,128.63103
1.7265292,128.44882
1.7254571,126.788925
1.6654121,124.26803
1.6808331,127.33423
1.5922127,124.01717
1.4820625,126.20477
1.5642415,123.54118
1.5110129,116.942276
1.5373142,119.790924
1.492623,120.70798
1.4648931,113.31443
1.438709,115.47635
1.4060501,112.05228
1.3754358,109.58715
1.4425204,108.44678
1.3432248,108.79696
1.4171973,107.42762
1.305866,101.161514
1.243769,103.80713
1.2942394,95.76949
1.3279802,99.80156
1.3826928,92.57289
1.2432823,90.65387
1.2255448,90.112595
1.2093182,88.81301
1.1211948,85.10562
1.0547323,85.16972
0.93178105,83.61876
0.83738256,80.16117
0.8843748,80.46613
0.8860638,80.63434
0.76927507,75.23419
0.9355714,72.87255
0.840751,69.08983
0.7965022,72.24834
0.91742015,68.81432
0.8414295,67.83112
0.78896016,65.8066
0.8107556,66.38442
0.8993474,63.694485
0.72469985,61.496677
0.70914906,62.806293
0.686771,62.592884
0.7088359,59.876293
0.62980115,62.32562
0.5847204,61.555626
0.54369146,62.709656
0.47658122,63.952347
0.46917313,65.04106
0.5615572,67.59305
0.64522386,66.47435
0.585527,69.09178
0.5308654,74.36023
0.6172625,71.918526
0.75106245,78.37912
0.87712556,81.04418
1.0045675,86.40081
1.0524478,88.294334
1.1950631,91.66068
1.3043821,97.70751
1.4228113,99.8499
1.5247788,98.740555
1.6238506,105.70164
1.7547755,108.04792
1.7816234,111.1151
1.8714409,115.83498
1.8571827,116.58343
1.8433198,118.681496
1.942665,123.38086
1.92945,123.50747
1.9685385,125.781235
1.8862727,128.79791
1.9771044,128.94649
1.9088315,128.01846
1.9338278,130.557
1.8674635,130.90796
1.9091809,129.03261
1.8313287,125.85013
1.8808863,128.6704
1.8160248,126.512505
1.7888732,125.32948
1.6992277,122.55923
1.701047,120.432655
1.6231506,120.217766
1.6267941,120.44254
1.6261387,121.473625
1.5226178,115.771904
1.6181834,107.83559
1.4789925,110.03048
1.4990852,106.9066
1.4782953,105.503494
1.5635014,105.79313
1.4595951,103.98424
1.5000489,100.76718
1.4717801,100.4845
1.383097,96.08137
1.2947966,99.40048
1.2582428,94.2956
1.2843828,91.001785
1.2344152,92.23414
1.2600365,90.65499
1.116881,85.96244
1.0715672,84.694016
1.0244898,83.73962
1.074502,79.473885
1.0385704,75.49787
0.99364716,76.0062
0.87849474,73.754395
0.88325137,72.35663
0.9963598,71.766685
0.948417,69.584595
0.8957413,69.156044
0.92740834,64.62296
0.93411183,64.45245
0.88473487,65.59082
0.8416179,61.932972
0.74770665,63.230427
0.74013233,59.69163
0.7493817,58.96431
0.634177,62.847397
0.6834134,61.017555
0.588591,61.20338
0.500355,59.756756
0.5338479,64.4034
0.5492578,66.58314
0.5678936,68.03314
0.48282555,66.60223
0.6492515,71.06544
0.6618004,73.65948
0.71472836,74.08558
0.7708698,77.021095
0.9376899,83.16621
1.0050924,84.02523
1.1548363,87.38657
1.2562953,92.51059
1.3118556,95.742676
1.4139441,98.85921
1.5691434,102.300934
1.6563084,100.86048
1.7390723,111.16835
1.8093611,110.37946
1.7604269,115.31179
1.8345685,115.495766
1.8759184,119.57325
1.8717318,122.03926
1.8754603,121.99674
1.8359785,125.66514
1.9143565,127.31804
1.8679641,128.09706
1.8860518,127.27831
1.8767477,128.3932
1.8158079,129.28801
1.8342242,126.4802
1.7758262,128.66727
1.723095,126.45939
1.7459685,124.587524
1.6760463,124.843315
1.6336904,122.857155
1.6278769,122.47548
1.4763042,122.98037
1.565195,118.500534
1.4642164,115.81629
1.5405908,115.834625
1.5036098,113.66025
1.5215147,109.73177
1.4030522,108.62461
1.4035544,105.51728
1.3241707,103.00815
1.2969078,106.79171
1.3605008,102.328636
1.346138,101.37514
1.3175571,97.014244
1.1760389,96.59343
1.2120544,95.48458
1.1284721,94.33216
1.0705007,86.80003
1.0724118,86.56131
0.96738374,89.08963
0.94299847,86.18657
0.904057,82.82291
0.8658233,77.991714
0.84771216,77.552086
0.68866825,77.26868
0.76897836,72.592735
0.78568614,74.90664
0.75561965,71.954765
0.75130284,69.95959
0.69984424,68.43813
0.79269516,66.70501
0.723387,63.615
0.70889324,64.35457
0.71634406,61.83584
0.65511596,61.18798
0.5630527,59.170116
0.5551552,62.92548
0.5261361,62.541443
0.46678683,63.069836
0.33195922,60.207767
0.3000611,61.41637
0.36718243,62.768257
0.376216,65.17668
0.25884393,69.2237
0.3110494,69.09008
0.4650809,72.50493
0.4342972,74.01412
0.45739743,76.581635
0.68685967,77.451546
0.70841455,81.65124
0.8224064,86.24328
0.939201,90.176186
1.0769701,93.848785
1.1776615,98.18321
1.1326128,101.05688
1.3012395,104.91391
1.3180472,105.3587
1.4051964,110.70238
1.4964631,114.33497
1.5591054,115.376465
1.6325097,118.26902
1.584278,120.32946
1.6684947,121.02284
1.7358581,123.01159
1.7438881,125.83398
1.5984675,128.39749
1.6050239,127.074165
1.5667306,127.48692
1.625575,126.335846
1.6440037,127.75616
1.5829762,126.87678
1.5149262,126.669876
1.5366386,126.63303
1.4157054,125.86465
1.3214084,124.07674
1.3808722,123.49164
1.3166916,123.87297
1.3001417,122.32077
1.2737821,118.342705
1.2392564,117.994804
1.258481,114.05702
1.1692711,113.486824
1.1301997,112.24867
1.0672113,107.90241
1.1603948,104.251236
1.1389236,104.85394
1.01683,106.737335
1.0778431,102.436386
1.0045872,95.65269
1.0149112,97.48129
1.023255,95.97306
0.8896487,93.01575
0.81579965,90.73585
0.80605644,88.98073
0.72620827,89.06317
0.6940528,85.78594
0.5594707,84.22631
0.617353,84.398094
0.5572382,80.20596
0.5366282,80.22997
0.500149,79.48798
0.4734886,74.51185
0.5411065,73.1863
0.53009766,72.07071
0.5018131,73.374084
0.4872039,67.12256
0.44598597,64.944855
0.41526425,64.36748
0.32682404,61.763405
0.40133718,64.20736
0.339874,62.462517
0.26252937,59.123035
0.2782358,61.958164
0.23522119,60.960823
0.15766378,60.775917
0.10624999,63.70434
0.0816426,62.80299
0.036063727,63.255943
0.052265313,63.715073
0.08099909,70.526306
0.073557466,68.25559
0.1534636,72.31056
0.20736215,74.23982
0.26473746,76.04567
0.36540717,81.48367
0.44438,81.879
0.5738737,87.08138
0.68517166,90.05937
0.83542037,93.42815
0.9536327,95.91453
0.95038676,101.37408
1.1593966,105.24206
1.1648978,107.39505
1.229092,113.10473
1.2825445,114.63891
1.3042285,116.40289
1.4020039,120.03985
1.3316743,120.22051
1.4387614,123.227196
1.3440986,126.56165
1.3350669,125.52279
1.376191,125.906784
1.3753506,127.82126
1.4157119,128.0346
1.3846505,125.45264
1.4172759,128.87471
1.3004756,127.68583
1.2820616,129.45969
1.1844087,125.50338
1.186277,125.88584
1.1277393,126.225685
1.1523601,121.24242
1.1465542,121.348915
1.0400379,122.19798
0.9847397,120.18884
0.95450526,118.67101
0.9369105,115.03022
0.9807167,111.952484
0.9038932,108.70931
0.96605325,108.986465
0.9628066,105.45902
0.85738134,107.085075
0.91629523,104.42043
0.8133495,100.09921
0.82998985,95.74912
0.8252687,96.7439
0.7701636,95.105576
0.7610124,94.13855
0.6502365,91.81262
0.6303559,89.052895
0.56490475,86.97581
0.4601251,87.544754
0.4280496,83.0008
0.39423552,80.90584
0.30033088,77.72838
0.3996852,80.34518
0.37525567,75.08592
0.3816261,73.84664
0.28617814,72.25538
0.33747467,67.35012
0.33881846,68.85708
0.31629154,65.772964
0.3789219,65.0723
0.3894135,61.26759
0.23265159,59.218456
0.25470364,62.918842
0.1532672,58.764256
0.049795527,61.97733
0.113450706,61.82026
0.05586949,60.72499
0.012195859,62.33016
0.032110676,62.16973
-0.02578558,61.7181
0.017168645,65.43423
-0.017670497,67.75033
-0.043465916,67.68681
0.036366105,72.08163
0.08778008,73.34491
0.10905991,76.56577
0.23590878,77.853714
0.32736117,81.29679
0.44486523,88.28716
0.47967386,87.65402
0.65281206,90.28593
0.78530943,93.08314
0.8344782,99.49156
0.9931295,102.0203
1.0556991,105.148254
1.122045,107.76833
1.1721832,109.69175
1.2834638,117.699936
1.2613496,116.20398
1.3125604,119.93233
1.404905,124.60063
1.3908389,124.4872
1.4736034,123.13216
1.4101579,125.54349
1.3946459,128.21
1.3728082,126.81039
1.3255972,126.77841
1.3818988,129.04466
1.4416038,128.97372
1.2737015,128.0658
1.2112788,129.80247
1.1750506,128.82649
1.2079921,126.37805
1.2242231,123.920784
1.152007,123.451035
0.98455215,117.55862
1.035989,119.37707
1.0823817,116.33332
1.0544074,116.13684
1.0913996,111.59797
1.0255126,111.87462
0.9866371,108.068596
1.0126016,107.65965
1.0563737,106.87883
0.9241987,104.62686
0.9751752,103.002754
0.90267915,98.687515
0.8756016,96.56846
0.8678952,97.231606
0.86147815,94.68261
0.7518241,93.24398
0.66747046,93.16558
0.6818751,88.97118
0.6472283,87.681
0.5284452,81.97871
0.5082218,83.09127
0.5500534,81.248665
0.41164425,78.34601
0.4565395,78.49186
0.4818784,75.48055
0.40048945,74.479294
0.4367178,73.77322
0.5317574,68.34197
0.37267488,68.24961
0.4257115,68.16344
0.3488394,67.19611
0.49439916,62.96961
0.3635084,62.7297
0.4819114,64.41183
0.30649814,60.525253
0.3274769,60.447433
0.22620879,63.491577
0.2402663,61.858986
0.22956538,60.882862
0.1709347,61.78992
0.15577225,63.883503
0.08472096,62.219913
0.1127074,67.62551
0.07972079,67.27897
0.21587323,71.53585
0.23723903,71.75153
0.3299669,75.5223
0.3628843,80.10797
0.49281606,82.206856
0.6402571,83.24433
0.7702157,87.87118
0.8078738,92.74341
0.9966394,97.03392
1.0078181,98.091644
1.18274,101.60517
1.2674444,105.04653
1.3635914,109.12048
1.358253,114.01021
1.4610331,116.82743
1.5272348,117.65154
1.5298417,118.11365
1.6492714,125.942696
1.4924697,121.466934
1.5540581,125.57649
1.5469105,126.88539
1.5575008,123.54202
1.6245071,127.75356
1.6043323,129.87796
1.5335954,128.70335
1.5787288,124.09498
1.5803343,127.501656
1.5110885,128.06602
1.4402776,128.74585
1.432735,123.77425
1.424036,123.167244
1.409632,119.030624
1.335222,121.15223
1.3008244,120.57311
1.3223997,116.29475
1.3460859,114.0988
1.2578778,109.8317
1.216821,112.26855
1.3273532,108.47148
1.2294083,107.09824
1.1789023,104.034325
1.151603,102.8529
1.2357967,101.59598
1.1446195,100.21562
1.1717845,99.074524
1.0923488,95.09626
1.1079323,92.60396
0.89323694,91.59578
0.93800944,90.298225
0.986235,87.76926
0.85878485,85.01358
0.7216951,83.948616
0.82498246,82.8929
0.7213192,78.773476
0.79545236,78.73625
0.6043778,76.90059
0.7552379,75.22209
0.74472934,72.99348
0.7225514,72.19179
0.709833,71.41562
0.6562713,68.50345
0.68539786,64.47567
0.6104939,67.15433
0.6719996,64.48618
0.6577744,63.96227
0.6479477,59.997055
0.63011223,61.47231
0.5324914,59.363358
0.5445609,59.47851
0.50094795,61.695076
0.4248809,63.374767
0.32005122,62.218735
0.39798647,61.98849
0.34965208,64.938965
0.45671853,65.518845
0.43558803,68.70414
0.4882159,69.22446
0.50490093,72.966995
0.63140357,74.09079
0.72162783,79.66895
0.755623,79.88516
0.89972895,86.60958
0.98321605,90.33451
1.1770552,93.76105
1.2580366,95.780815
1.437414,103.810715
1.4005034,102.93865
1.5651863,108.29946
1.5716835,108.352684
1.7418553,115.94218
1.6669998,115.34513
1.7940286,121.610146
1.7210635,120.60087
1.900829,122.506355
1.9159335,123.48467
1.829246,125.42948
1.9527442,125.1931
1.8172477,126.72198
1.8653654,128.76562
1.8995483,130.18695
1.823018,129.12624
1.7971766,128.57019
1.7599804,129.56642
1.7754536,127.88743
1.7091852,126.376396
1.6712772,125.6556
1.6091334,122.676315
1.542213,120.87549
1.5722427,120.2628
1.5572956,116.08738
1.5705507,116.27203
1.504848,113.81582
1.4266075,111.00024
1.4158742,111.28655
1.4243702,110.76316
1.4427414,109.35996
1.3966825,106.411446
1.4145328,98.97311
1.4446596,100.13007
1.422234,101.935555
1.3384808,97.380455
1.3573895,97.25791
1.2543831,93.43999
1.2483748,93.7409
1.188509,88.76554
1.2065339,89.60975
1.1032383,83.353775
1.0617174,82.963264
1.0289606,80.56236
0.84877646,79.58899
0.93076795,77.977684
1.0393414,77.568054
0.7921094,77.68073
0.894714,74.76638
0.85499734,72.85614
0.9914574,68.393555
0.92973316,66.38191
0.7960679,63.110806
0.91483855,67.14792
0.8485866,63.011402
0.8631771,61.96749
0.7912577,62.565655
0.7467318,62.759556
0.6765875,61.478962
0.6427607,62.29899
0.6560388,59.406963
0.60752743,61.36666
0.5935798,61.429573
0.5633304,63.47706
0.57041675,63.07015
0.610461,65.59282
0.6452911,69.45482
0.6483715,70.81128
0.73871875,77.62948
0.86131614,78.91696
0.96511316,82.752945
1.0228571,82.65786
1.1691713,88.0145
1.1893703,87.48251
1.3641561,93.009476
1.46686,97.92645
1.5446408,97.513214
1.5946609,102.52302
1.7047101,104.497375
1.7783551,112.241905
1.8466806,112.43546
1.8895017,118.32957
1.9123253,118.0826
1.9331892,122.677574
1.9298868,125.24321
1.9756343,124.51498
1.9410642,124.67115
1.9390019,128.58572
1.9802085,130.02519
1.9455665,125.4894
1.9253675,128.73254
1.9197537,127.66817
1.8769498,129.48048
1.8539306,127.67719
1.7837021,126.13834
1.7676948,126.661316
1.7348518,123.64926
1.6955603,120.88265
1.6433802,119.42964
1.6592516,122.29791
1.5576586,116.675224
1.641098,118.0656
1.5629505,112.51616
1.5901529,111.639656
1.5374008,112.237785
1.4978994,107.73422
1.3856884,107.24052
1.4142714,103.56345
1.4943137,101.769485
1.4375101,101.08042
1.4133075,99.36168
1.3391612,96.89753
1.4250886,93.64086
1.356375,92.213234
1.3065834,91.300674
1.1242568,87.9709
1.07223,88.45698
1.0681192,87.624275
1.0577993,85.81102
1.001648,84.63259
0.95829517,80.06368
1.0126774,77.98524
0.9213792,73.31547
0.9402365,72.40338
0.9226833,71.181404
0.85143554,72.84788
0.8631588,70.35857
0.8790421,66.53815
0.8579314,68.95598
0.9238791,61.472927
0.8536659,62.169144
0.7983936,60.678425
0.8007955,59.32652
0.6792287,58.60688
0.6641504,58.063095
0.59255075,63.107037
0.579571,60.969624
0.525472,58.850216
0.5159346,59.355675
0.3713359,63.398148
0.5329387,62.24978
0.47077322,67.63608
0.41688347,67.16628
0.5745988,71.0296
0.6109289,77.449036
0.6654012,77.08197
0.8348763,79.91169
0.99408674,86.737625
1.0541811,85.73307
1.0850483,90.15037
1.271059,94.94698
1.3322477,98.0084
1.534998,99.926445
1.5117017,106.5721
1.5976661,108.56099
1.7080401,111.021034
1.736821,114.87731
1.7143595,119.24156
1.7220494,120.92481
1.780402,121.533165
1.8008372,124.60565
1.800845,126.595856
1.8178537,128.60893
1.8155369,127.71244
1.8082567,126.84984
1.7804024,128.81241
1.8139678,127.73033
1.7395189,129.9892
1.694653,128.792
1.6672899,126.954445
1.6280569,125.94963
1.5711569,125.357666
1.5236498,123.694374
1.5730339,121.16503
1.4152087,120.56128
1.4598224,119.084175
1.4861377,117.570595
1.4394523,117.933655
1.3025081,113.668495
1.3375618,108.76515
1.2934557,107.22134
1.2563791,105.83941
1.2535512,107.48334
1.2960389,103.23879
1.2753971,102.08273
1.1876528,101.101555
1.1841252,97.00739
1.0964912,94.86263
1.0823172,93.057205
1.1005353,92.346504
0.9944319,90.52257
1.0030476,86.81422
0.9276502,88.050705
0.8607859,83.85927
0.74799365,85.81414
0.8140681,81.504814
0.65817577,76.17751
0.70543504,79.67812
0.6190941,74.67801
0.5617582,73.562515
0.6289752,71.63437
0.60587937,72.1554
0.59268945,69.52203
0.6279892,66.55949
0.64412045,67.03736
0.6249337,62.592693
0.56732446,64.03779
0.51778924,63.758186
0.47522676,62.554127
0.4720633,61.257954
0.34254238,60.64007
0.34231228,63.746983
0.30312133,60.504
0.3369438,60.62912
0.22157565,60.87174
0.15338457,66.83314
0.19140485,62.81556
0.22422819,69.569786
0.28959697,73.73123
0.31962156,75.01014
0.3566388,77.239075
0.44521752,75.23965
0.6668551,80.54179
0.7041844,87.88069
0.7679939,88.443504
0.9348073,92.11281
1.0646894,97.56174
1.0896184,97.87137
1.1779095,104.76957
1.3417127,106.401215
1.3806939,108.48274
1.3526137,113.86557
1.4557307,114.70516
1.4666138,118.20228
1.5126197,121.027214
1.5202627,123.210526
1.494703,122.329346
1.5390394,125.98183
1.479638,123.84333
1.5877485,129.08553
1.5099734,128.11826
1.4560448,128.10428
1.4407737,131.79758
1.4651446,127.46022
1.3670386,127.7743
1.4213175,124.46613
1.4375203,126.1863
1.2954748,125.01405
1.2608819,124.53312
1.1620456,121.027084
1.202128,122.141945
1.1561916,120.789795
1.0351043,115.40156
1.0850608,116.80343
1.0515511,115.12029
1.0117875,108.72753
1.1164676,108.48643
0.9787458,108.59516
1.10159,101.11684
1.056452,103.79461
0.9958713,102.66868
0.9582679,98.78021
0.8740551,96.74361
0.81076664,96.16837
0.8135064,95.419525
0.7972881,92.40604
0.69673795,90.39883
0.686395,88.51619
0.6506871,89.27215
0.57864,85.29199
0.566195,84.63552
0.43108734,80.25392
0.46344644,77.69759
0.4244634,77.487045
0.38526952,74.717415
0.4342972,70.77528
0.39176285,74.02847
0.37983382,67.205345
0.33863124,69.19127
0.31728035,66.80446
0.4552223,66.04641
0.3752588,62.2978
0.33703896,62.709454
0.26104963,63.207664
0.23355363,62.914978
0.13261794,60.3189
0.12160928,62.891712
0.08742632,60.868484
-0.006990391,65.22284
0.023941299,64.153915
-0.024671288,63.017296
0.02961322,63.777058
-0.018708387,66.55693
0.0864478,69.41043
-0.02056077,71.02497
0.14725825,75.218956
0.20070255,75.97476
0.16049555,77.75101
0.33010367,85.36728
0.51780254,85.54774
0.6094382,89.50477
0.8128338,94.13448
0.8558145,95.96695
0.99055713,103.42089
1.0098692,102.697395
1.0999432,105.94267
1.2390255,109.59294
1.23692,112.438484
1.156098,118.455
1.2683618,118.18969
1.3054715,119.88278
1.3481351,124.34345
1.3784821,124.81957
1.3296131,127.61834
1.482861,127.922325
1.4204057,129.64783
1.3013393,131.11752
1.3067217,129.33209
1.3478624,131.80809
1.287112,128.72115
1.2962186,130.37823
1.2366598,128.24931
1.2013721,123.425606
1.1366953,123.450615
1.1679983,123.66607
1.062846,120.1075
1.0846086,116.27982
1.136087,119.25662
0.97658265,115.96416
1.0185065,115.94917
0.9376929,111.75505
0.9221249,112.124115
0.91496587,111.651436
0.9117036,107.8892
0.82356966,109.69617
0.8378173,104.34578
0.86185306,101.92055
0.84225065,102.28375
0.8046496,98.21349
0.7948304,94.33784
0.6996668,95.15571
0.7487343,92.634895
0.65978444,89.827835
0.5895017,86.85288
0.48739448,88.212166
0.5365232,84.36256
0.47127512,80.63363
0.42077547,81.93173
0.37035835,79.37066
0.3828777,76.31254
0.31207696,73.50227
0.35776317,75.034294
0.39876813,72.5084
0.39268816,68.08695
0.3169693,69.3363
0.37462205,63.34168
0.35087216,66.18897
0.34331918,64.68325
0.35290712,59.52696
0.29056275,61.196156
0.1402971,60.577553
0.053613417,62.84966
0.17481002,59.66217
0.08632691,61.468266
0.07719979,61.746574
-0.04336657,64.08378
0.03078392,64.08095
-0.045087107,68.24429
-0.04788815,67.34394
0.0025106645,69.35731
0.08195141,71.66623
0.15627469,75.59438
0.16990753,79.167114
0.25767323,82.550575
0.45474887,80.74364
0.6534073,87.56776
0.65723574,90.20413
0.7574664,94.734375
0.84432536,97.716835
1.0229487,101.44144
1.085012,106.12804
1.1771584,109.05641
1.2159716,109.965935
1.2758303,114.409935
1.3691235,115.925064
1.3556421,120.55678
1.3281611,122.25882
1.4584236,121.10333
1.417731,123.24869
1.470284,125.347565
1.4868121,125.949265
1.5113084,126.96144
1.4504378,128.87308
1.4464768,130.29633
1.4465396,130.3236
1.4281251,127.5829
1.3924041,127.45668
1.3555878,124.115425
1.3107512,124.127495
1.2475289,123.73386
1.2195297,124.61664
1.1827058,121.322235
1.147239,117.26964
1.239692,118.70991
1.0722487,116.06047
1.165853,113.80177
1.0663035,112.82349
1.0603753,111.263
1.065025,107.45619
1.0379131,108.85093
1.0418873,106.83401
1.002344,103.26907
0.9855032,98.099106
0.9362146,98.37785
0.9866855,99.084274
0.8956884,96.20955
0.90569973,94.44852
0.8001951,92.17139
0.782091,89.74414
0.6880545,85.86314
0.6556665,84.9843
0.57411283,83.153015
0.6062113,81.551216
0.58076435,79.39058
0.62492794,78.40137
0.49010217,76.31963
0.52696,75.53944
0.55060065,71.10315
0.5353764,70.312355
0.5053649,70.341515
0.5469671,68.07417
0.51959527,64.95036
0.5342993,67.599915
0.52487797,66.32977
0.4814596,59.672745
0.42719057,60.707813
0.39181802,60.98636
0.39781582,57.967937
0.37131113,62.35873
0.21591304,61.309784
0.2873619,61.102283
0.20079201,65.40749
0.20045628,62.591557
0.24136505,67.616745
0.23950684,68.216774
0.3453073,69.349724
0.31644958,73.3874
0.49712303,75.627594
0.4113945,78.5081
0.64482903,80.048706
0.69036084,80.84644
0.763916,88.74962
0.92070085,94.05527
1.0470998,95.273605
1.1396394,96.530075
1.2496828,100.63482
1.3691617,102.737175
1.4634817,109.28721
1.4213164,110.19806
1.5738492,110.9383
1.56529,116.28329
1.6402432,119.96056
1.6415634,119.57184
1.6798954,123.98123
1.723239,123.205826
1.7171427,126.95151
1.6570264,128.61165
1.7516649,127.36646
1.6798658,127.097984
1.727222,129.25923
1.6646272,131.8874
1.6348997,128.41591
1.5859525,127.48567
1.6295915,125.854
1.5562733,123.63209
1.4203897,123.672386
1.5600142,121.05076
1.497561,120.880196
1.3690974,117.34471
1.340037,119.23567
1.3642677,115.678406
1.4512048,116.23274
1.3605548,111.43338
1.3480967,110.21176
1.3221452,110.68357
1.3358084,104.50758
1.2514884,101.15496
1.2924306,102.57683
1.2639239,101.815895
1.2473938,97.97754
1.2291318,95.27993
1.204527,93.02021
1.127022,93.00664
1.1580585,89.17409
1.0717374,88.02938
0.97018385,86.57829
0.9084913,83.62882
0.85009754,84.64989
0.9399014,78.68811
0.86810815,77.52605
0.8511591,79.49857
0.8343799,73.93407
0.7579031,72.630684
0.8120618,69.05838
0.8642229,71.684135
0.86928767,71.88162
0.7487259,64.89002
0.7829001,65.98705
0.7953435,62.923077
0.7603978,62.16609
0.7306463,61.38038
0.6943128,62.613922
0.66985285,62.370132
0.60948396,58.083046
0.5654936,57.983185
0.462486,62.310753
0.42580986,62.610218
0.4800307,63.170567
0.4823387,63.155067
0.4615098,66.02586
0.5236489,69.501465
0.52396005,68.224396
0.600152,73.858894
0.6695202,75.82711
0.7852726,76.72297
0.91500956,83.54044
1.0593189,84.89881
1.1359388,86.69913
1.1979265,90.409225
1.3407327,96.68278
1.3918748,101.10355
1.5347694,104.1135
1.6635752,108.15378
1.6904986,110.20409
1.7606177,112.97692
1.7294657,114.3257
1.8302174,115.72924
1.8429109,118.61162
1.8160003,121.105446
1.9596418,126.207245
1.9059159,127.51845
1.9052832,127.23642
1.9569998,126.405495
1.9422243,128.63947
1.9410311,126.87377
1.9295788,131.04883
1.842528,128.27864
1.9140072,129.1103
1.812379,128.95512
1.8432859,126.90373
1.7295327,124.27412
1.7496632,120.924225
1.6456393,122.01281
1.6487325,121.070496
1.5768667,116.64775
1.5857701,116.28985
1.5211095,112.37249
1.5083438,114.667244
1.5111775,114.25183
1.5395185,108.69154
1.4520636,105.68734
1.4358939,102.33974
1.4333602,105.767105
1.5245689,102.62774
1.4523252,98.94538
1.4196883,98.94682
1.3572633,95.57569
1.1667408,96.974464
1.3353852,91.842064
1.2389431,90.04163
1.1762604,87.53406
1.1300877,87.273834
1.125782,81.23205
1.0959759,82.17061
1.0046461,79.828156
0.9669598,77.7152
0.9172518,78.0438
0.9336301,74.763275
0.92075646,72.646736
0.9336759,70.82366
0.95513356,67.338356
0.9765306,65.4623
0.8983736,66.79215
0.9665026,64.68093
0.861598,61.83491
0.8879219,60.25683
0.8303657,59.712383
0.7408203,58.07311
0.80006975,58.07953
0.7654868,59.177868
0.669792,62.958736
0.60812825,62.189983
0.5469259,63.056797
0.47128195,66.08211
0.45237094,64.61274
0.5157718,68.05522
0.6032574,68.98964
0.63718,73.959366
0.63266623,71.31477
0.7624784,75.982025
0.8309219,81.048416
0.9745016,83.1077
1.1043842,84.937325
1.1251622,88.2884
1.2404363,90.8089
1.3720398,98.19255
1.5047971,103.05122
1.5703944,104.16506
1.6760576,110.630974
1.7656513,106.94271
1.8063763,110.83113
1.8805718,116.518234
1.8493489,118.72887
1.8434695,120.92088
1.8404449,123.40905
2.0520253,126.135445
1.9551764,124.99694
1.9422964,125.74455
1.9085743,126.0928
2.041875,129.96822
1.879373,127.19249
1.8932339,128.61514
1.8285441,124.36595
1.8059278,127.11456
1.7799252,126.066185
1.7097012,125.48277
1.7688879,122.62883
1.7314608,122.45998
1.6183597,123.68886
1.6593181,120.66797
1.5570987,117.86709
1.5886295,119.195496
1.5213813,114.22508
1.4895277,114.37825
1.4867407,107.83888
1.4258181,108.63233
1.4238359,108.149605
1.4606094,104.295906
1.3775275,100.926315
1.4008925,97.38613
1.3591172,98.556755
1.2369951,97.437126
1.3301969,97.35689
1.2798557,94.959465
1.1764233,91.08496
1.1136289,90.10377
1.1107007,90.28856
0.9986039,90.183525
1.0047926,83.015724
0.98513275,80.52349
0.89504594,79.293396
0.8784802,78.2588
0.89867586,74.22604
0.7331404,75.47157
0.8067285,73.806366
0.79768306,73.66856
0.77754605,67.37864
0.86157155,66.70163
0.81814,68.85509
0.73638386,62.42692
0.7370503,62.58019
0.72773737,61.422874
0.6970233,62.58449
0.6468316,60.033447
0.5977104,61.05922
0.5008415,64.94302
0.40743062,59.70975
0.39352158,63.160904
0.38883144,64.43366
0.4435257,64.47208
0.36621258,64.549164
0.40122855,67.33862
0.37424397,69.268936
0.4315821,72.59817
0.4980057,74.316696
0.61618376,78.55771
0.58483887,79.4601
0.8091816,84.464355
0.9265813,86.57342
1.0016041,91.08712
1.0864993,94.532295
1.1452981,98.631226
1.3264629,100.01849
1.360099,107.87751
1.4862863,106.40292
1.6206802,109.850624
1.6352544,112.52964
1.63567,116.29537
1.7104769,116.67578
1.7160032,119.81136
1.7061344,122.15234
1.6227437,124.94484
1.6620094,126.26469
1.6888616,126.7901
1.6200404,130.53107
1.7395124,131.72832
1.7005409,129.64398
1.6341583,129.5303
1.696551,125.77455
1.5314804,127.6995
1.5079441,126.13853
1.4564716,125.64802
1.3535521,124.5797
1.4573433,121.360756
1.3999028,120.541
1.3495575,120.41814
1.3010727,119.22864
1.2151222,115.59999
1.2612813,115.96147
1.2132746,112.042274
1.1571856,108.64117
1.1119128,109.16057
1.1354914,107.80139
1.1054267,101.83028
1.1174163,103.958595
1.1289269,96.07935
1.121125,97.350525
0.9935,95.74798
0.9742382,97.99761
0.9773222,93.193825
0.9417303,90.81591
0.8871079,87.34038
0.8322442,88.652885
0.7147436,83.07384
0.65831,82.405785
0.7009212,83.53041
0.6061805,78.670715
0.6062594,78.8896
0.64415145,75.64702
0.5291832,76.14085
0.4874721,75.397484
0.53962684,71.345116
0.5543857,66.196144
0.50844324,65.44757
0.4816322,62.21198
0.56930745,67.013664
0.48157084,65.51356
0.45103553,59.817173
0.35456654,62.47059
0.28369567,63.49585
0.29112667,59.22837
0.21006083,62.46604
0.23675972,61.5935
0.09225021,61.55483
0.11642683,60.775833
0.1013369,63.45168
0.073184706,65.770515
0.10494861,70.36818
0.11752277,68.84993
0.21697526,72.41462
0.3564716,73.44981
0.31956252,77.488754
0.44109437,80.49698
0.6213655,87.55729
0.65002453,89.40172
0.7389049,91.90408
0.8072215,96.85747
0.8944166,99.42217
1.0938258,101.77272
1.1345283,106.45128
1.1737484,107.46281
1.2992674,113.881584
1.4046967,114.518486
1.3651917,118.633865
1.362814,120.17368
1.4735221,121.8032
1.4621208,124.15403
1.4916986,123.89794
1.4813384,126.0025
1.3854896,128.11894
1.4094467,128.61717
1.4243553,127.66463
1.3386607,132.75925
1.3596426,127.07775
1.3065784,128.97841
1.3511951,128.27994
1.279645,128.62286
1.2127854,125.821465
1.1583147,123.03858
1.1143601,121.428085
1.1560634,121.20014
1.1597633,117.281746
1.0385596,116.720375
1.0471624,117.0674
1.037031,115.328186
0.99383676,110.33639
0.99924284,108.82255
0.98732287,108.33849
0.93681365,105.87336
0.9898135,103.82151
0.900953,102.01837
0.90108126,97.20321
0.866161,95.09577
0.80413467,97.68709
0.77507937,94.66748
0.76110846,92.39781
0.7323408,90.66013
0.6018013,89.00368
0.5774018,88.27403
0.44539467,84.86802
0.46183494,83.40139
0.37730053,81.549065
0.4300899,78.79521
0.31638876,75.42057
0.34095553,74.43738
0.33693084,75.52557
0.31712338,70.8494
0.37771726,69.700096
0.3084627,69.26748
0.37421966,67.301186
0.2861837,65.20781
0.32794237,65.667755
0.25258812,59.37
0.21681528,65.912865
0.18824747,59.977528
0.11615393,60.969856
0.13850056,63.89162
0.035733588,65.375015
0.047115687,61.167767
-0.06860014,59.676296
-0.06473884,63.504257
-0.03145645,63.21083
-0.09686888,64.03172
-0.0766856,68.8696
0.0046482063,70.60819
0.1025841,72.83851
0.17338009,76.37848
0.23829395,76.14307
0.30114573,82.91814
0.4460022,82.24899
0.46907678,87.236176
0.6456536,92.5888
0.7380447,95.20155
0.85724425,100.236755
0.93868804,102.56196
1.1010649,105.504715
1.1343288,108.594536
1.1762966,112.95799
1.2372072,116.05689
1.304352,118.02846
1.3446212,119.09525
1.3059697,121.95809
1.3199795,123.50128
1.3711251,123.91981
1.4434247,125.45566
1.3680562,126.680664
1.4172875,128.33371
1.4040931,127.597534
1.2885567,130.05977
1.284449,129.36308
1.2591295,129.91043
1.2431582,125.23323
1.2080914,123.35643
1.1972831,125.860725
1.1843711,123.312836
1.0585476,124.08743
1.0284523,119.745636
1.1655812,118.326324
1.0115693,117.3282
1.002994,116.472466
0.9625373,112.890976
0.98458713,109.69637
0.94904834,105.60661
0.98073334,108.392456
0.8741616,105.20126
0.90307426,104.09958
0.8687219,102.19658
0.9049767,98.07444
0.8685738,99.98891
0.8032086,96.52591
0.7897276,94.661095
0.7193473,91.41663
0.7097044,88.95791
0.581955,88.459915
0.58759236,87.75417
0.4789164,84.39356
0.5751758,84.51595
0.49686885,80.61192
0.45780534,77.7074
0.43410018,77.24782
0.34311894,74.76907
0.3902952,74.51835
0.46164766,73.532715
0.504232,65.48793
0.49762824,65.632324
0.35396025,67.071144
0.42457128,64.18686
0.4549195,63.18231
0.30064377,62.852432
0.42188412,62.019836
0.26642272,57.690483
0.20576118,63.52092
0.15500903,59.620865
0.19021505,61.360367
0.08339356,63.29485
0.07642401,63.046432
0.018387767,61.276836
0.03885331,67.21318
0.005193574,66.327545
0.072317176,70.19681
0.21115991,67.25938
0.24923466,72.938965
0.261971,75.74054
0.4191843,77.153625
0.41920137,83.399185
0.6351419,82.63471
0.7638574,86.55442
0.79037166,93.55824
0.8964646,97.42823
1.0789734,101.84258
1.1517487,104.12303
1.2107837,105.91982
1.2775801,110.669044
1.3670399,114.72691
1.4210529,112.99969
1.4007161,118.50413
1.5182124,123.427086
1.4552376,121.12983
1.4743499,123.02639
1.5011445,123.94516
1.592184,125.39995
1.5552763,128.92108
1.5651531,126.9668
1.5538384,127.794556
1.5125794,127.75741
1.5350376,128.7221
1.4587973,128.14005
1.4359913,124.99357
1.4028199,125.16965
1.3155774,125.211136
1.2982242,122.47459
1.3521978,122.762955
1.2376448,119.19065
1.2042619,117.30749
1.2035934,115.73447
1.1482488,111.7317
1.1430651,112.590454
1.141642,112.44988
1.2134135,108.51446
1.2028959,106.424484
1.0391752,102.97753
1.1379584,104.193344
1.0767453,100.4705
1.1630813,96.732124
1.0355469,98.97511
1.0201329,94.24803
0.9634633,92.199936
0.97237885,93.57564
0.9165974,91.12778
0.89745957,84.629654
0.8684817,90.2508
0.7637836,86.61455
0.7225692,82.32389
0.7194901,83.418236
0.6440699,76.252075
0.6159507,78.17935
0.73178554,75.97643
0.615813,72.94669
0.5926296,71.79724
0.64553034,69.04508
0.6221333,67.59356
0.6452326,65.90027
0.6751667,62.48928
0.65219253,63.685444
0.65735453,63.325836
0.5609766,61.933975
0.57602274,58.872875
0.44907877,63.866184
0.44067186,58.364372
0.48698384,63.625202
0.40369666,58.635983
0.26183382,64.78437
0.3229426,62.452927
0.35234344,65.92376
0.39519697,68.30116
0.34225386,67.26009
0.48325714,71.51988
0.5141548,72.74704
0.5344357,77.83935
0.598333,80.729774
0.7175994,83.089455
0.9157948,86.63534
1.0550865,87.882805
1.1696609,94.95698
1.1871618,98.73744
1.321032,100.80238
1.4404032,101.56163
1.5642135,106.58485
1.6313322,110.05859
1.6925071,114.414055
1.7194481,118.118546
1.7259634,120.190895
1.7672242,120.43098
1.7884876,122.09665
1.8700637,126.779144
1.7750027,122.616974
1.7963777,127.18053
1.817913,128.05528
1.8400407,129.71518
1.7875242,129.4572
1.7145203,130.68529
1.7368194,128.34126
1.6518904,126.34508
1.698415,126.6323
1.6498412,126.61051
1.5959109,123.71673
1.6238933,122.92673
1.5751706,122.44422
1.5347378,119.12453
1.5053077,114.86589
1.4927788,115.79031
1.4266177,113.454956
1.461211,113.833405
1.4179853,111.62684
1.4392365,107.18201
1.3302863,106.01896
1.4270942,105.62698
1.4479433,103.83881
1.3395199,98.78607
1.3073727,97.222694
1.3139038,96.88958
1.2749691,98.129234
1.2886299,94.73199
1.256904,90.080315
1.1728673,88.25338
1.0933278,85.998474
0.9912112,85.62194
1.043322,84.2553
0.96739745,82.137146
0.90590936,78.927284
0.9303364,78.616
0.9709409,78.157974
0.91233224,75.19379
0.85602367,74.11834
0.9266495,72.76247
0.93888533,70.45478
0.8766698,65.56348
0.94697464,66.64498
0.86728084,66.652954
0.88372374,62.701855
0.88852316,64.288345
0.7685015,63.53951
0.76608694,61.343586
0.730988,62.190033
0.6943205,60.85443
0.61961615,58.086254
0.5187378,63.46115
0.5184886,63.796047
0.4952108,66.157486
0.53943,64.97097
0.5926547,67.00391
0.535423,72.37633
0.62100154,74.17815
0.6337165,74.498344
0.783359,75.376305
0.8956327,79.69935
1.0481255,83.43866
1.1130751,83.772194
1.1869521,92.952805
1.3143276,95.83717
1.4191457,97.53654
1.5331345,100.16553
1.68852,102.96136
1.7419224,106.65671
1.7593288,113.00442
1.895103,115.16919
1.9234169,121.91689
1.8254149,119.40633
2.0748045,125.3662
1.9055939,123.25675
1.9581602,127.77237
1.9783505,125.07078
1.9092052,128.13321
1.9061055,126.59466
1.8994299,128.36713
1.8842615,129.52036
1.9012941,128.6141
1.9252125,130.02293
1.8140018,128.21446
1.8066941,124.452774
1.8144906,124.82069
1.7430791,123.75202
1.6680456,123.07152
1.6547589,120.68988
1.6121672,118.472374
1.5944155,117.6851
1.6207846,116.058426
1.548792,113.39485
1.5061579,108.38209
1.5102649,110.223564
1.5542924,107.376045
1.4728566,103.812996
1.4571685,104.576164
1.5306988,100.78934
1.4427264,97.95256
1.4422225,95.24124
1.4137431,97.320015
1.3329632,95.50224
1.3169305,92.57535
1.2535906,94.219666
1.2029855,86.65359
1.1432692,87.43223
1.110138,85.944244
1.0727589,84.412186
1.0002681,81.39859
1.030192,80.03727
0.8507185,79.82496
0.9542283,71.757324
0.84282386,72.28343
0.85253716,72.48562
0.88320464,70.36835
0.87881154,69.55125
0.89496094,65.563034
0.90019226,61.888664
0.8915217,60.26173
0.8107345,61.754387
0.84831774,62.82635
0.8130204,60.128784
0.7329076,61.669064
0.7878399,59.60066
0.5976477,62.438873
0.5661253,63.54552
0.5138732,61.765858
0.51577586,63.350273
0.52238494,65.160736
0.5901906,65.87612
0.4709538,66.69278
0.6042632,77.27035
0.6454266,71.00431
0.74944746,75.151474
0.7477327,76.43169
0.83932394,82.655685
1.0095421,84.52614
1.0282695,88.656105
1.1708621,90.44723
1.3627614,96.954124
1.3752409,93.65376
1.5503702,101.74026
1.572142,104.38781
1.6263676,110.23731
1.7356939,112.2658
1.7592963,115.762596
1.7485062,115.04718
1.7934227,119.4204
1.8772523,122.82356
1.7646159,121.80521
1.9026328,126.76793
1.9034731,126.571175
1.9124967,125.58656
1.8370612,131.15341
1.8625984,129.323
1.81686,128.59119
1.8152759,128.87526
1.6993622,128.83466
1.7661514,125.40755
1.7534359,126.31719
1.6854521,122.10501
1.6336336,121.607864
1.5180749,123.48315
1.5668505,118.464294
1.4625305,117.20533
1.4513102,118.41836
1.4124792,117.318756
1.4175646,111.77555
1.3735874,110.096016
1.3663114,108.79827
1.3173401,108.25487
1.3144654,106.430885
1.3114538,104.51848
1.2674191,99.13282
1.3073177,101.35284
1.1632874,98.19794
1.255341,94.41257
1.111458,94.12843
1.1170192,92.02465
0.96242034,90.051155
0.95995414,86.35514
0.96847856,87.6823
0.84367776,85.628456
0.87675977,84.80889
0.712115,82.91466
0.77591115,79.4336
0.74247664,77.08068
0.73015106,74.11035
0.65305346,75.8929
0.69168985,70.845024
0.73444563,70.7987
0.65145904,64.97564
0.7194121,62.73131
0.71796983,64.35437
0.6132498,64.25976
0.6753255,63.450996
0.59990007,59.635685
0.5498319,61.77913
0.3901736,62.282402
0.47717384,59.41855
0.40713978,60.453037
0.2947828,61.24697
0.28322867,63.636257
0.26377037,65.955475
0.32966194,62.296875
0.29335082,62.236794
0.21045646,67.73178
0.2879204,69.3988
0.33462486,72.670265
0.5239452,75.2813
0.54014266,78.403984
0.6076253,82.992546
0.6780885,82.73731
0.9296547,87.47506
0.94936824,94.14505
1.0617422,96.56188
1.1170422,98.6073
1.33509,102.34267
1.3207077,104.61692
1.3178321,108.32057
1.4685171,115.14638
1.4966924,113.990074
1.4963919,120.010765
1.5698019,123.47852
1.6141847,122.30205
1.5792594,122.60271
1.6244001,124.413994
1.6366011,127.669
1.568713,126.98764
1.5617797,126.33875
1.5334992,129.48056
1.4572608,128.77252
1.5730531,128.62566
1.4935567,130.19887
1.5088115,126.73463
1.412369,124.14945
1.3096617,124.45423
1.2667826,125.66101
1.2669235,121.41287
1.2193334,119.89764
1.1635472,120.67891
1.1364063,115.26185
1.0609727,112.382545
1.1307826,113.95778
1.0542942,111.418846
1.0250608,108.36703
1.0966583,107.34941
1.0380464,102.1185
0.9650505,103.76459
0.99893856,101.92919
1.0187887,102.22521
0.9092144,98.98661
0.91239923,92.25339
0.86564845,92.009415
0.76153445,90.98303
0.72444224,91.59222
0.6897713,87.668976
0.66301954,83.747856
0.6419327,85.36253
0.5475954,80.90509
0.5438321,77.640274
0.48432457,78.467384
0.44913533,75.05145
0.36486378,74.394066
0.43779948,71.27593
0.40584862,71.48885
0.4281426,73.735214
0.4160042,67.97282
0.38786027,62.943375
0.35071573,65.11067
0.31359982,63.98136
0.39832157,62.92604
0.30388957,61.970978
0.2636514,58.128834
0.16466624,61.93428
0.1761638,61.38204
0.042297076,61.00506
0.1608681,61.75046
0.03889538,60.019897
0.07555041,65.41855
-0.0041825045,66.21631
0.040063232,65.548546
-0.01372094,71.18473
0.08967631,69.361694
0.1265264,74.219154
0.2284355,75.72585
0.3680767,78.8745
0.43147624,82.65123
0.5827396,86.074905
0.67770845,89.1899
0.8175512,95.78087
0.8112744,95.207924
1.0433019,102.92166
1.0551912,103.351494
1.083308,107.82467
1.1278754,113.07784
1.2095474,111.70774
1.3421723,118.5189
1.3068669,117.10879
1.3542063,118.37149
1.3439093,123.852516
1.3244368,123.78647
1.3666853,124.80189
1.4414296,126.547386
1.4023315,129.60861
1.4059058,128.42096
1.3288695,128.84283
1.3194747,128.05147
1.3614169,129.54655
1.3163513,127.62133
1.3124703,126.10759
1.1313865,126.75385
1.1316923,124.8352
1.0413454,123.86832
1.1369363,120.72245
1.0535038,117.7149
1.0025221,115.782394
1.0181458,118.22232
0.9889403,112.162315
0.92485887,112.747826
0.9581199,109.5306
0.9382806,106.02389
0.8042,107.16643
0.9150522,104.17871
0.849536,102.63144
0.8679716,103.6617
0.79937446,98.302444
0.796116,96.87068
0.68820506,92.297455
0.63787717,93.11107
0.6924581,92.61843
0.6051675,90.77592
0.5791318,86.6802
0.5469158,84.83778
0.4594892,82.65891
0.41202036,83.12045
0.48200858,79.54807
0.38867542,77.96614
0.37814552,77.868324
0.37118012,70.92783
0.32857352,69.63341
0.3661739,72.63035
0.42531395,68.64567
0.33582672,66.360245
0.3012874,65.80708
0.26103014,64.79311
0.29484674,64.20209
0.2078372,64.13217
0.22422303,60.67052
0.1671361,61.24949
0.0915269,62.65156
0.03780101,56.698505
0.016914103,62.263912
-0.035717577,63.506947
-0.11777203,62.215744
0.0664065,64.92969
0.0016026605,65.06413
-0.04304705,68.98379
-0.056984387,69.60478
0.07604025,71.56029
0.16327469,75.002174
0.17815943,74.22363
0.37271932,81.78896
0.43101057,85.067406
0.4983853,88.62864
0.6379935,94.59473
0.7838126,94.776405
0.88387537,100.47037
0.9647752,100.611244
1.0050108,105.53732
1.1785617,106.83038
1.2215055,111.22139
1.2635456,111.92177
1.2870686,116.81421
1.3621917,117.711006
1.3324469,119.324486
1.4003344,123.807526
1.3786459,124.84265
1.3981767,127.457016
1.4690825,125.28073
1.4677969,126.77368
1.4087195,127.03324
1.3903967,129.78587
1.398547,128.42577
1.2776705,126.25737
1.2963297,126.747284
1.2868712,131.24309
1.2176689,125.9749
1.2568696,127.07392
1.1883703,124.081345
1.178479,119.15643
1.1114866,120.53545
1.1208917,119.03881
1.0308899,116.642166
1.0507675,111.11958
1.0464027,114.127945
1.0049239,110.348495
1.062616,107.20001
1.0161772,105.881676
0.9415819,103.66964
0.93983823,103.51937
0.9502971,98.642525
0.9178815,98.742836
0.9563592,96.38853
0.8362312,94.503075
0.8056672,92.347466
0.83424574,88.82822
0.71256304,89.15116
0.7153648,86.59306
0.6981692,84.8015
0.52560985,81.387764
0.45885348,81.29332
0.53689927,77.95545
0.490818,76.40045
0.54367906,77.80835
0.46002194,73.02618
0.4803275,70.99058
0.501137,71.90938
0.43874267,69.29523
0.42452338,67.63977
0.46253085,65.51405
0.4896788,63.392757
0.39591792,63.182907
0.48504344,64.84028
0.36457944,63.978542
0.24244758,59.60345
0.3510388,60.421238
0.15591392,61.081284
0.2358525,64.67297
0.17147638,60.620373
0.13193716,61.444836
0.08636332,63.81648
0.13384406,68.54475
0.18348718,69.803894
0.25056395,69.677704
0.29281968,73.58719
0.3786986,78.36968
0.5218315,77.697624
0.58208376,81.860565
0.63905287,84.18962
0.79322666,88.528915
0.94270843,93.47586
0.9773179,93.49771
1.1476985,100.088615
1.2908347,103.81971
1.3328782,108.34787
1.385403,109.751854
1.4964712,112.30779
1.5427916,113.13126
1.5095322,117.8801
1.5808364,119.16738
1.5928845,120.607056
1.6243556,123.63463
1.6743577,128.0345
1.5536525,126.17114
1.6189581,129.24788
1.6813015,125.12866
1.6702251,128.41135
1.6393558,128.84985
1.610595,126.49907
1.6191021,124.86486
1.5373571,128.69214
1.4571526,125.3162
1.5437058,122.71374
1.5169606,122.37273
1.3950007,123.61413
1.3706411,120.837296
1.3694727,117.326004
1.3696451,117.72754
1.2727451,112.804726
1.2709186,115.546646
1.2393482,111.22135
1.3480712,104.19839
1.2955542,107.72104
1.266926,104.91519
1.2320002,104.6778
1.2418846,100.69401
1.2492422,100.01051
1.2583427,96.826675
1.0830139,94.60749
1.1392282,93.32695
1.0791185,92.06292
1.0265925,88.90628
0.93065524,86.15144
1.0170681,86.52816
0.90511084,83.089874
0.8030104,81.97049
0.78020513,79.70989
0.83493114,77.84777
0.75346327,77.96877
0.7980643,74.98132
0.785218,72.27542
0.74486417,74.35149
0.7665486,72.03283
0.7776164,66.45391
0.7892263,66.414314
0.74740374,63.633247
0.8122732,63.513542
0.71460336,61.133865
0.66882366,61.343227
0.6310062,59.61739
0.5638179,65.29555
0.5546928,58.94391
