ppg,abp
1.026203,82.662346
1.1178436,86.44288
1.2765063,85.90944
1.3182433,84.166336
1.5202749,85.309326
1.5000287,90.010056
1.5149775,87.56918
1.5980363,88.34099
1.6235422,91.15671
1.541852,89.37627
1.7286652,89.07414
1.6549081,93.42593
1.6158574,90.22239
1.7397217,95.69879
1.7943007,92.68384
1.722749,95.748116
1.7314205,88.05804
1.7199081,93.9664
1.6824555,92.386795
1.6177547,92.68241
1.6668528,93.27494
1.5696489,94.26236
1.5639311,94.072525
1.5368121,95.07874
1.5220041,90.856155
1.5295887,94.20252
1.4488568,92.482185
1.3679671,90.40136
1.4926256,88.91825
1.3987205,92.75728
1.444241,91.354
1.3841417,84.82097
1.3375585,88.698845
1.4749957,88.99655
1.3758754,89.020355
1.28771,86.26451
1.3299451,83.93947
1.3233244,86.02579
1.3140428,84.119484
1.2172419,85.25303
1.2389472,84.98186
1.2137543,80.98867
1.178272,81.06028
1.124979,82.07736
1.2971915,83.12645
1.0805804,82.9588
1.1036755,82.4938
1.0295148,76.09516
1.0630691,81.082436
0.94754356,78.12217
1.0130209,79.338554
0.8927841,79.590034
0.8545832,76.87137
0.802803,76.12144
0.7812645,76.50354
0.8419363,72.027596
0.8856184,78.72407
0.88456875,74.87634
0.8126833,75.963936
0.8818376,76.99444
0.84870213,74.50315
0.75101775,73.33437
0.7869144,68.876205
0.8236021,70.152435
0.76038814,71.690926
0.77243125,72.76591
0.8375119,70.38614
0.63117766,72.16777
0.5399296,69.3456
0.6388015,71.53008
0.5522546,69.357346
0.51328194,72.60564
0.40026796,72.56122
0.4816956,74.10597
0.37666884,72.20564
0.48408455,75.389565
0.5705244,74.748634
0.45754698,78.60665
0.5626058,76.03365
0.6036419,79.39493
0.72094023,75.4722
0.90518063,77.13554
0.87513524,77.44586
0.9253763,81.84085
1.137837,77.49425
1.2333785,80.909584
1.247863,82.448265
1.4197097,82.67467
1.3553954,82.52311
1.5623316,84.51531
1.6259767,84.06622
1.6646451,90.493996
1.7753873,88.62358
1.8112458,91.26782
1.985011,92.952415
1.8525916,90.616196
1.9190013,86.6274
1.9361577,91.216644
1.9213289,89.44166
1.926922,91.25266
1.9556828,91.46681
1.8712914,95.05887
1.9561665,92.109535
1.9004189,91.61606
1.8428619,96.4446
1.8871226,92.523285
1.8927382,90.501854
1.8883799,95.83012
1.8066761,93.480446
1.7865238,91.20079
1.8616894,91.87189
1.790566,89.75642
1.6651168,90.44251
1.7269155,89.19999
1.693823,91.07199
1.6383623,90.25221
1.585579,85.53477
1.608544,91.39367
1.5380766,92.787224
1.5249481,85.7203
1.5457191,90.54637
1.4424156,88.15757
1.4330561,85.026985
1.5391368,86.99594
1.5540681,84.69887
1.436312,84.34514
1.4290551,85.67329
1.3687305,84.18837
1.4756491,81.38115
1.308781,83.479744
1.3637798,81.8403
1.2265663,81.172455
1.1722865,79.03099
1.1840954,80.49738
1.078263,81.474236
1.1665492,82.23881
1.069118,78.56912
1.0825301,80.81371
0.9401931,74.330734
0.9294309,78.817795
0.8845651,76.461494
0.9246091,73.252235
0.90608525,77.60873
0.9458262,71.730644
0.89305085,76.3342
0.96748644,75.57309
0.9187237,74.351944
0.94212306,75.335304
0.852321,73.454956
0.7761309,74.63097
0.8988627,74.74685
0.7707114,70.95732
0.7733668,72.65949
0.7214778,73.447624
0.6891133,72.38134
0.6583526,73.537605
0.6596051,73.52908
0.6228212,71.77976
0.55850965,69.96068
0.5285235,73.69075
0.49150744,71.83336
0.48388672,74.5427
0.5948925,74.459465
0.45486805,77.07313
0.5970836,75.79763
0.65338045,74.71065
0.697151,74.36201
0.79097104,77.26173
0.97295237,76.76914
0.9160504,82.22527
0.9533381,83.93068
1.2133262,81.44084
1.230078,84.57087
1.309715,83.60708
1.4577951,84.19053
1.6666979,84.09369
1.5639371,84.703545
1.5512793,88.6838
1.6740322,86.107925
1.7515936,88.99866
1.7738647,91.0529
1.7742977,89.52337
1.8384945,93.07355
1.8038853,90.88412
1.9524775,92.34193
1.9647926,90.49652
1.8276833,90.91363
1.9770204,92.62618
1.9053915,94.499825
1.8190277,92.12946
1.8263139,93.83497
1.8562329,93.24962
1.7781668,92.82484
1.682217,93.76859
1.8102124,93.070854
1.7454195,92.915184
1.6693741,91.60486
1.6313998,95.19933
1.5895052,91.92761
1.4844108,89.20396
1.5656245,88.969505
1.4791422,91.50955
1.4702747,89.77543
1.3791904,86.31958
1.4503012,87.74188
1.4525286,85.31225
1.4358505,85.01194
1.445818,86.96981
1.4638522,86.86551
1.2524623,87.29907
1.432208,86.405045
1.369793,83.92745
1.2863467,85.6851
1.2684728,84.12419
1.1574347,82.068344
1.1635092,84.79683
1.2456596,82.69782
1.0564045,81.50868
1.0884485,80.96492
1.059079,78.20144
0.8900087,83.0103
0.91633236,81.246185
0.8679732,77.60795
0.86066234,77.555435
0.79853517,79.855484
0.91803676,77.34159
0.73927045,75.834175
0.6601824,78.43607
0.76342845,80.29088
0.701015,74.505104
0.80769587,77.89821
0.7189136,78.16489
0.7077993,73.698555
0.6240683,75.838905
0.7056174,73.758385
0.71388274,73.70631
0.66219866,68.385765
0.6247724,73.07853
0.5953982,72.619835
0.52269506,74.16216
0.4636635,71.36331
0.3643917,69.87086
0.35064498,70.23572
0.41480833,67.74756
0.336372,71.43885
0.36931586,73.966446
0.28564975,75.370026
0.20171958,75.04699
0.21108443,75.67021
0.3401305,72.63696
0.36394164,76.85685
0.37857157,77.75217
0.40761408,76.1259
0.52389294,77.15281
0.5646444,77.03655
0.83626276,78.6804
0.73161244,83.063255
0.9550656,80.884186
0.9657904,82.31059
1.0746241,85.49649
1.1066923,84.61024
1.20242,86.44922
1.2505126,85.51342
1.3375354,88.95074
1.5143516,88.46575
1.4113907,87.64607
1.4956039,86.88647
1.5089642,87.594444
1.5408767,88.90437
1.5796944,87.65461
1.5780783,89.36135
1.4893342,92.98431
1.6360899,92.09069
1.5232477,92.818405
1.5645889,96.12308
1.602213,90.99061
1.5988963,98.108055
1.6027178,93.33804
1.4338553,93.0554
1.478426,92.05839
1.4140588,91.498634
1.4736683,92.87972
1.4003857,90.04707
1.3662229,90.773056
1.282067,91.711876
1.2112169,88.30435
1.1706744,92.27861
1.2622645,88.87695
1.2086688,90.12737
1.0494244,89.575005
1.1173432,89.907104
1.1754589,86.80378
0.97890574,89.10168
1.0809456,90.14778
0.9584367,88.593925
1.0982779,85.118355
1.0416491,87.23432
0.879753,85.17773
1.0049132,84.47704
1.0544753,83.01741
0.98952514,84.10474
0.86996555,84.09452
0.8559458,83.58685
0.85897046,82.404335
0.79482514,80.19979
0.7882939,80.0831
0.67602,83.19556
0.57033634,78.64103
0.6576334,81.19267
0.5819263,82.91246
0.6176847,78.07503
0.49819022,81.00523
0.46337444,77.203354
0.3604739,79.38965
0.5191152,79.093895
0.40001437,74.03951
0.39843693,72.21015
0.40969256,75.25394
0.38747415,74.1747
0.5357489,73.9006
0.37280223,70.60951
0.4212907,70.90793
0.3666179,75.71433
0.28714648,69.99663
0.25807986,73.34884
0.2610016,71.245384
0.17114677,69.989784
0.19877511,71.43571
0.060138848,76.97454
0.12405141,70.75918
0.073436536,74.00585
-0.062257603,70.94077
-0.023539064,75.39477
-0.02651477,78.816635
-0.04535532,76.32065
-0.07696413,76.710686
0.039730452,78.332405
0.15424924,74.22938
0.16501257,77.881256
0.20644751,79.79228
0.32183567,79.97395
0.39536858,78.61259
0.48222584,82.8733
0.6259634,83.8915
0.6761439,78.48434
0.77803195,80.44723
0.91813314,81.375565
0.82560873,86.95704
1.1654198,84.571846
1.0754238,82.963295
1.1352335,89.35799
1.275617,90.03826
1.328449,91.195755
1.3245648,91.43985
1.2965488,87.17453
1.345034,89.57156
1.3673211,92.16319
1.2675115,91.32708
1.3990158,92.015
1.2714936,94.603035
1.358408,92.92188
1.3123755,94.86567
1.3666224,94.60725
1.377058,88.74607
1.2924598,94.51983
1.3421993,92.25384
1.2638416,90.126434
1.2969705,92.60382
1.1976709,89.942024
1.0888795,90.40302
1.1958063,89.72638
1.1245847,91.70886
1.0114115,93.62451
1.0920329,90.13828
0.88551295,89.04759
0.8890582,84.08857
0.8612936,88.1846
0.99474573,87.69126
1.0286993,91.057945
0.9010297,88.93412
0.9486238,86.94176
0.8189432,83.479675
0.8526305,88.513245
0.75386816,83.19615
0.8828828,83.07391
0.83568114,84.697266
0.81165737,82.39567
0.86611676,80.235985
0.844471,81.440895
0.6876714,82.057045
0.63216496,80.091576
0.7318092,80.69709
0.5720572,80.09773
0.65169936,81.52437
0.57493913,77.538734
0.5497931,79.25405
0.4854375,78.27347
0.4793673,75.61197
0.37992328,77.56729
0.3927436,78.14186
0.35418874,79.35201
0.3808925,75.69412
0.3228039,77.78547
0.32265094,75.05217
0.2909562,76.332054
0.39970708,72.89415
0.44186008,74.367935
0.29480684,77.033806
0.24446882,72.50703
0.30278534,72.21087
0.39312017,71.98213
0.24433956,73.10358
0.2521887,75.23458
0.17073703,75.38577
0.14215773,70.51341
0.17702706,72.68857
0.055571906,75.10019
-0.055785697,75.53471
-0.036333207,72.58832
-0.019411696,74.47426
-0.0725648,73.03624
0.033922803,76.18591
0.04415868,72.54061
0.13297158,80.04592
0.15847638,77.28742
0.3022855,75.49016
0.23890203,73.72461
0.45812714,79.17283
0.53183424,80.83281
0.56847197,82.083305
0.76860404,83.49611
0.812871,78.13917
0.86750525,83.88448
1.0993828,82.1628
1.0674828,86.21382
1.157592,82.36061
1.2114357,86.288956
1.238955,88.96557
1.2843647,86.59058
1.3577425,84.60813
1.389375,85.95639
1.4377384,94.889565
1.4409227,91.71741
1.5222301,94.26072
1.3730544,94.33384
1.4718105,91.50347
1.449132,94.092636
1.5045916,91.52905
1.4245052,89.52951
1.5237689,92.826126
1.4646324,91.11325
1.3655972,91.36932
1.3978645,94.161194
1.2350506,94.17384
1.3566897,94.3527
1.3225482,88.63049
1.3646015,90.44486
1.2009346,89.65252
1.2654438,93.95935
1.1990821,87.34199
1.1511321,88.69317
1.1834203,88.308846
1.0550029,87.22647
1.1470519,87.851616
1.0670738,88.20333
1.0283732,87.99187
1.107487,86.16157
1.0977193,87.526764
1.1150028,87.32377
1.1173896,89.32239
1.0601447,85.35791
1.0746933,84.38534
0.9912779,82.88788
1.0459074,80.292564
0.99095947,80.255684
0.9063191,81.8438
0.8172259,85.17325
0.83030766,80.57618
0.8056951,79.31551
0.71530366,79.60683
0.76410097,77.675095
0.6266945,76.899
0.6470073,79.85813
0.6815109,78.83426
0.60802716,76.99616
0.6470635,78.89887
0.56126165,76.44079
0.59336036,70.95116
0.63045645,77.91203
0.58299124,71.07595
0.55139834,75.36075
0.5477839,77.48674
0.5973465,73.65842
0.559116,74.83648
0.5829051,76.376434
0.50178725,72.74457
0.52751666,71.10169
0.5762986,71.86625
0.41109857,73.418564
0.4377134,72.86871
0.3366413,76.23054
0.38230973,70.509285
0.303291,71.99161
0.31027597,73.291565
0.28981405,72.409035
0.33508265,72.07299
0.26653078,75.27737
0.3628784,75.73058
0.33230802,79.56801
0.4594558,77.64373
0.45636126,77.380196
0.5432493,77.13272
0.6403781,77.50956
0.61867666,80.706635
0.81149507,79.759605
0.9474793,80.47747
0.96047837,81.351845
1.1667962,80.39669
1.1731424,82.099754
1.3398286,83.90541
1.4381618,90.88155
1.2725171,86.66592
1.4751784,87.02237
1.6173067,85.77217
1.6256158,89.11829
1.6274782,91.03164
1.6252916,90.17685
1.7291741,91.51022
1.7304562,92.17942
1.7647758,94.70236
1.686769,91.94199
1.7557414,92.789085
1.7449651,93.01334
1.7969347,96.10817
1.732706,91.89367
1.8379031,94.677086
1.7982993,97.36708
1.7055162,94.52397
1.7162001,93.796616
1.6569991,90.37703
1.7295665,94.04972
1.6621739,92.83215
1.6492773,94.425674
1.5372454,91.7182
1.5525239,92.25036
1.4487661,93.197525
1.4604168,91.12935
1.448929,88.560745
1.4959528,87.72953
1.4618481,88.58756
1.4837164,89.08464
1.4690793,82.86061
1.4430948,89.79497
1.3772831,82.956985
1.1802225,87.21155
1.3597606,84.93477
1.4274942,86.406006
1.3461974,85.926765
1.3821275,83.40058
1.2948053,80.75336
1.2330939,82.49558
1.2554204,82.48036
1.2073436,83.186195
1.0988073,78.25909
1.2193424,83.61473
1.1514612,79.99966
0.97208524,77.10022
0.95108455,78.00448
0.8427636,78.38819
0.96753895,78.066414
0.9023627,76.34696
0.89655155,76.70892
0.7659003,75.95473
0.8922335,79.49573
0.90811473,74.51281
0.9481588,75.47398
0.8226975,79.10237
0.8279891,71.58906
0.7916799,72.66258
0.8793341,73.02748
0.8380161,75.52431
0.793343,73.98087
0.79827917,71.313
0.72088736,70.06827
0.6268736,73.25798
0.63097626,73.64967
0.6239121,71.81389
0.6035958,72.33667
0.583198,72.06007
0.6071654,72.06358
0.5022203,72.28676
0.56038815,66.69283
0.4206511,75.82221
0.5565062,74.37389
0.5720962,73.22285
0.61914265,73.110245
0.672903,76.19525
0.70008135,77.84277
0.8046303,79.05053
0.9345077,81.554146
1.0705318,78.18579
1.0801109,80.40788
1.2641155,79.75491
1.3399919,82.730606
1.3217273,81.2019
1.4214927,82.8929
1.545093,83.60051
1.5452443,87.09806
1.7958777,86.557816
1.7688076,89.252365
1.7493049,92.0792
1.8204278,90.23033
1.8459072,88.28232
1.932234,89.5341
1.8965213,92.12059
2.0209944,91.12529
2.009767,92.579094
1.9360547,91.221535
2.0556998,90.49307
1.9477564,93.44312
1.9567132,89.65879
1.9746935,93.91434
1.92276,92.603455
1.9589547,89.33514
1.9019752,93.7114
1.8813436,96.530365
1.8398261,90.967674
1.7190479,90.23455
1.6560867,88.974754
1.7303762,92.60566
1.6304363,89.60281
1.6703006,91.82121
1.5301735,88.856926
1.5690274,90.782074
1.5729969,89.943275
1.5900909,87.865814
1.5324773,87.5566
1.520906,87.48975
1.4915137,87.60467
1.4795383,87.58415
1.5803753,88.558876
1.4293478,86.60076
1.4136815,88.330505
1.3923541,84.33745
1.3052628,83.01797
1.3117169,85.96293
1.3834068,80.64284
1.2859207,83.66328
1.2792289,80.107925
1.2531219,79.95301
1.2606858,80.68773
1.1652833,78.460556
1.1117959,75.44355
1.0406219,79.03418
1.0525466,81.90087
0.87589616,79.45138
0.90143454,76.954315
0.90973437,77.61142
0.99213904,74.86053
0.79805994,74.49558
0.83129776,76.44737
0.9186794,76.477554
0.8366276,77.3807
0.8921662,77.1335
0.9086611,71.83735
0.88495755,75.74674
0.8492074,69.526474
0.8212033,72.634346
0.8024097,73.43151
0.7285592,70.944016
0.821138,72.641624
0.6060066,72.28554
0.6384083,73.38988
0.66432744,72.5446
0.62587076,71.78795
0.49655077,73.30248
0.50725085,72.65414
0.49334422,75.89943
0.44716036,78.19738
0.50802934,75.150856
0.45538837,74.737976
0.4626805,72.23026
0.661728,79.41007
0.63438785,81.54236
0.66565865,82.0974
0.83779615,78.27816
0.8597908,81.59407
1.0149783,79.75252
1.0995356,78.93748
1.1693103,80.88391
1.3921558,82.97281
1.3989284,82.80311
1.4233304,88.75555
1.5083495,89.551956
1.5868105,86.41631
1.6964902,84.35526
1.679423,88.91137
1.7517686,88.610054
1.7749743,90.16844
1.8667133,93.19081
1.8004087,88.17828
1.8430327,91.80992
1.8399992,95.04439
1.8050064,90.02163
1.8070952,92.22582
1.8362603,96.17018
1.7254007,89.87105
1.7795308,94.22038
1.7832612,94.002464
1.7136443,93.94912
1.7102954,91.71863
1.7736427,90.04536
1.5887297,90.26148
1.610399,93.02128
1.5555125,93.0958
1.6707529,92.067696
1.4191895,88.66766
1.4666041,88.852295
1.4636606,89.72978
1.4482179,89.343994
1.380267,87.23809
1.3134851,91.868675
1.3074467,90.83635
1.3511988,87.760765
1.352052,88.476234
1.2618955,86.3543
1.2696285,81.66472
1.2398121,85.11354
1.2835774,83.80931
1.2831256,84.56064
1.1675104,82.77881
1.1514323,82.836624
1.2068545,83.93342
1.1462046,81.63825
1.0778579,82.54985
1.0344415,84.22206
1.0288295,79.546295
0.9545583,78.74745
0.87300885,80.73684
0.7953379,83.07621
0.84852487,78.12292
0.81193215,77.44276
0.69720125,80.37618
0.71297675,81.734184
0.72542614,77.95143
0.6801458,76.48311
0.67160213,75.12624
0.6928228,72.86776
0.720059,74.45097
0.72465676,73.743576
0.6689014,76.150314
0.6083332,71.886734
0.6393943,75.39679
0.5295144,71.279686
0.54424614,74.21744
0.48847497,73.8864
0.36833733,70.91334
0.31713527,73.09528
0.385305,73.00563
0.32322913,73.12073
0.21738687,69.677414
0.23012194,72.708954
0.25089625,75.998955
0.3053416,75.883095
0.22962219,71.85762
0.17193909,72.50426
0.20669088,73.040184
0.3504135,75.501724
0.3898628,74.91108
0.3413022,75.571434
0.36168644,78.49276
0.43909436,81.82199
0.53325236,81.642715
0.64901745,84.189995
0.8272938,80.19807
0.7917439,84.75792
0.9869246,83.12842
1.1577778,82.46294
1.1819147,82.83702
1.2858615,85.56856
1.2728956,88.57963
1.347131,84.87864
1.409005,83.02634
1.5325068,86.71102
1.4574066,89.73486
1.5288746,90.48725
1.4376415,89.73487
1.5220169,92.141716
1.5534111,94.652695
1.4456041,89.98153
1.5011411,92.73042
1.5231587,91.09846
1.4610734,90.457886
1.4871217,95.42053
1.5214363,93.50258
1.3823997,91.02665
1.4540856,92.846954
1.3566926,90.610176
1.3797476,93.1565
1.4204394,92.94618
1.316192,89.873726
1.1530234,90.27995
1.2763269,91.063934
1.151447,89.93833
1.2549657,90.99614
1.0917639,87.731255
1.0135899,89.12305
0.9833276,88.96187
1.0375614,91.18534
0.94356793,89.092735
1.0877992,87.095566
1.0205197,87.86252
0.9239379,84.92201
0.9853748,81.37067
0.96551114,87.29693
0.95590425,84.740074
0.7947029,83.29633
0.86807966,84.15475
0.8891605,81.599
0.6796328,80.91024
0.75795037,81.60071
0.78137314,81.561584
0.6738189,84.62045
0.66942966,77.9382
0.5030064,83.195854
0.50492877,82.283264
0.5250778,79.72458
0.4636494,79.135475
0.4792111,80.99326
0.4225232,77.06986
0.3604635,78.70357
0.4489922,76.484825
0.32572272,75.89683
0.3341401,77.63905
0.3469245,76.630226
0.31138694,74.03036
0.37286764,76.395195
0.28851193,73.23072
0.41242045,74.739426
0.26132217,73.54204
0.22993656,70.45153
0.22898126,71.33756
0.22234944,72.79701
0.25816098,70.34164
0.13586223,72.04602
0.17939998,70.280975
0.083597645,74.00054
0.00567179,70.23449
-0.13050826,76.968735
0.0058402484,74.53811
0.06663302,72.731834
-0.033917714,73.66321
-0.0011679718,72.574036
0.023702737,75.93945
0.07898434,75.82945
0.19532833,78.81019
0.16554917,75.14829
0.2057291,77.90469
0.40979394,79.09296
0.5006986,83.2959
0.5778295,80.32786
0.6635508,80.40044
0.6877387,85.12277
0.84750617,85.867836
0.8922666,87.49981
1.1036885,87.56926
1.057189,86.54817
1.065559,87.01738
1.2755277,92.740715
1.264103,85.97666
1.2904661,87.47643
1.298997,88.55965
1.3538797,89.25515
1.3513167,88.318184
1.3024136,92.06665
1.4567021,89.27151
1.3436517,91.66591
1.4200296,93.88172
1.3325192,93.14575
1.3897918,95.993805
1.3169163,94.204834
1.3337594,95.39734
1.2277925,93.239456
1.2422271,92.95291
1.3745844,91.599594
1.2595679,89.72968
1.2514684,91.33932
1.0941135,95.69371
1.0562826,91.02449
1.058087,91.37753
1.0114431,93.16424
1.0400928,90.12996
1.0054541,91.503815
0.9926759,87.325035
0.8894714,89.0738
0.94726443,84.69221
0.9316542,85.70977
0.91430634,88.43915
0.8531362,88.26557
0.8901428,85.44447
0.8915488,82.31374
0.93078387,83.23284
0.85704064,83.34586
0.7210769,85.42885
0.8212932,86.59584
0.7049082,84.238815
0.79928434,80.818344
0.6745298,77.01063
0.65537465,78.63138
0.61488825,81.070274
0.45686644,81.156975
0.5049942,82.00782
0.47258395,73.62775
0.5968893,77.693886
0.5278817,81.96568
0.43038082,78.95308
0.42147908,76.75001
0.33569342,75.690216
0.34475386,78.81967
0.3525774,75.90948
0.2952174,75.09412
0.43492755,74.36115
0.3819669,75.47421
0.42453533,75.21979
0.3164927,75.40646
0.3633645,74.810234
0.28319722,72.98402
0.25645894,73.22563
0.1983253,74.86191
0.2840899,74.400314
0.12894154,70.57299
0.19314767,70.01647
0.09093179,72.453865
0.13374658,73.45861
0.043791663,73.84321
0.05967686,76.82392
0.030695645,71.32276
0.08955308,74.02015
-0.0041678725,71.24538
0.15940778,77.1302
0.12948208,76.20129
0.14631926,73.3988
0.335796,78.40139
0.3299589,75.12137
0.38104448,78.585846
0.4652571,80.33019
0.5831247,82.02744
0.7873505,83.759926
0.85183346,80.54707
0.9651052,80.16374
0.9953881,82.53913
1.0498627,87.73658
1.1919937,87.611206
1.2832154,90.981926
1.3207517,90.38347
1.3818123,85.18947
1.450288,85.34135
1.5379292,88.9417
1.4294343,94.03249
1.4938,95.32112
1.5396202,93.11102
1.5874585,91.6677
1.6288029,93.608986
1.4651983,94.39344
1.4855245,92.20448
1.5798866,91.07402
1.4801086,91.49752
1.4352579,92.9937
1.4620229,91.68697
1.4245038,94.03647
1.4281069,91.105225
1.3581264,95.815475
1.3668298,93.32242
1.3090433,91.521576
1.3213857,90.11477
1.2909987,90.30155
1.1960553,92.41342
1.1909951,83.32157
1.1899046,89.76329
1.1992373,89.11819
1.1701514,91.93799
1.1925031,88.00722
1.2154295,83.64017
1.1595414,86.02065
1.1608577,87.603714
1.104061,85.71407
1.1203672,85.30201
1.1229005,86.31591
1.0658438,85.159904
1.0455878,81.81593
1.0322357,84.36544
1.0245751,82.88567
1.0414977,82.66036
0.90703356,85.08269
0.94896513,79.97757
0.8550634,80.95682
0.8483892,82.792534
0.7916536,82.46426
0.68957186,77.93656
0.782088,79.05774
0.7328884,82.201416
0.7050348,77.45961
0.64416987,78.30293
0.69216067,77.15068
0.73758703,78.158875
0.60428214,75.03304
0.62796664,74.82108
0.5916656,72.92589
0.6101734,73.69733
0.7080405,72.874695
0.68358785,72.228546
0.6653343,70.152824
0.5625966,69.9631
0.67951727,72.61272
0.5133096,73.13235
0.49919498,71.45319
0.44953042,73.4225
0.43368533,73.2301
0.4275687,67.67886
0.42529288,70.42947
0.3423601,72.24524
0.3287179,70.04955
0.34291518,72.78526
0.30983627,74.52303
0.39935207,74.01434
0.39228874,72.361084
0.37370792,76.07025
0.49814588,74.12678
0.5317215,75.92286
0.63245326,74.99256
0.732976,76.555214
0.8589069,78.56511
0.85811925,79.01854
0.9731873,78.3183
1.1849134,83.37052
1.2789803,84.565544
1.3375045,83.357346
1.5278896,84.9849
1.6105051,86.573875
1.470678,90.38318
1.628806,87.36968
1.7240665,92.323326
1.754898,88.2673
1.7595315,86.87505
1.8378476,90.07261
1.7414088,93.24175
1.838697,89.55603
1.8715762,94.84409
1.852074,91.244125
1.911752,89.461784
1.860152,89.81111
1.8860238,95.93935
1.8056746,92.30064
1.788928,94.58643
1.7442745,91.334
1.8250375,90.45265
1.664563,93.3177
1.7138292,94.83302
1.7477363,92.52371
1.6043382,87.68099
1.5831444,91.9447
1.6510366,89.74766
1.5762492,91.22966
1.4756801,93.230774
1.5784272,86.83295
1.5041977,87.72292
1.581032,88.79081
1.3768606,85.60732
1.5191565,84.45088
1.4676263,87.81727
1.4314048,89.49558
1.4998515,84.8616
1.423607,86.05606
1.462111,86.13296
1.34902,84.22731
1.3855578,80.62426
1.3683861,82.62184
1.3200886,85.70521
1.3224474,85.16751
1.3486297,81.2006
1.2347947,80.843575
1.1808074,81.44485
1.0635409,82.67767
1.0742565,80.42546
1.0443686,78.28718
1.0681933,76.214134
0.9565967,75.235634
0.9960836,76.07809
0.9456301,79.13383
0.9097047,76.2165
0.8762613,75.53733
0.89867234,77.44133
0.8047668,73.9106
0.7988306,73.64853
0.9016203,73.57588
0.81326735,75.01639
0.92868066,72.02986
0.8598451,72.00449
0.8095985,72.43811
0.7935743,74.84293
0.83750194,71.48451
0.7941935,69.93896
0.72912663,71.41589
0.6923834,69.76125
0.6347428,70.7746
0.6557265,71.15994
0.5605354,72.376366
0.58515394,72.93576
0.619807,74.603455
0.47813246,73.08307
0.57348204,78.61565
0.5557121,78.478386
0.5984292,77.16853
0.67993754,75.148636
0.76060313,77.12712
0.84412783,78.3112
0.87307614,77.892876
0.9418746,81.62381
1.0955845,79.58726
1.2444738,83.94111
1.3167195,77.57488
1.470429,82.65679
1.5370556,86.81702
1.5596074,84.94469
1.7163944,88.91605
1.6840862,82.765945
1.6923536,86.67145
1.837812,89.60344
1.851165,85.733765
1.9236169,87.03322
1.8919326,92.655914
1.8922763,88.98155
1.8989544,92.89046
2.0039356,88.24319
2.0479531,93.28106
1.8801786,96.291855
2.0004084,92.89066
1.8886489,92.54106
1.9489158,90.72027
1.9052856,94.01693
1.8191451,96.50019
1.999646,97.08171
1.9921879,91.35734
1.8168111,89.75517
1.8118174,91.27251
1.7117436,89.071594
1.6755095,93.314674
1.6582032,87.94324
1.6149527,85.95944
1.5929637,86.621185
1.5553193,89.722305
1.5679692,92.183876
1.5947382,89.07664
1.6097577,89.2493
1.5004361,86.53743
1.4555427,88.15678
1.5553083,87.60979
1.5441786,90.52897
1.4668509,87.21298
1.4492692,86.04883
1.4447643,85.92123
1.4014393,84.27777
1.4592657,81.96432
1.371444,80.697266
1.2857996,81.67014
1.2265328,82.86181
1.2347113,83.58962
1.1666172,82.87269
1.1475164,77.83076
1.1429112,77.93952
0.90576327,80.01576
0.95342433,83.29314
1.0855885,80.08436
0.8833549,78.155205
1.0062466,78.22875
0.85609597,76.37179
0.81956536,74.009476
0.9001871,77.970535
0.88773525,77.58419
0.80171865,75.71442
0.8547061,71.97701
0.76860523,72.358665
0.9442357,73.53858
0.81737006,74.93418
0.85529375,76.85709
0.70850486,70.41185
0.6989776,70.93387
0.6853684,76.34301
0.6241438,73.401474
0.65090865,74.10228
0.56731653,68.97456
0.5610159,71.737045
0.5349628,71.4191
0.4267183,71.92671
0.45429215,71.69236
0.40020072,75.50746
0.3457482,74.53125
0.46409154,74.782166
0.4611322,77.80219
0.41806105,76.21727
0.65217376,75.9673
0.6523288,76.59418
0.7890025,80.303734
0.84056145,79.93552
0.9774964,80.61428
0.92978615,82.75228
1.151118,80.82354
1.1649798,81.8044
1.2485726,85.35105
1.3866678,84.72547
1.4924434,86.73646
1.6211407,87.20165
1.6188136,89.1283
1.6748989,88.67639
1.6080977,86.687
1.7478166,90.85075
1.7003493,87.5393
1.7387197,92.40476
1.7677724,89.06579
1.7686776,89.154335
1.7658725,91.79869
1.86758,90.56881
1.7613894,93.62973
1.677989,93.388885
1.7942203,90.77638
1.7519262,97.179344
1.7246425,96.28631
1.7464896,94.05186
1.6262163,90.01594
1.6227669,93.74465
1.5929817,88.62087
1.5525421,93.18
1.4620802,90.97482
1.4307965,89.713486
1.3287374,90.58842
1.3561876,89.629524
1.412203,88.39875
1.2875503,90.83072
1.3548585,87.62764
1.2068561,86.20508
1.2799137,87.97801
1.3354758,84.86386
1.3042371,84.03178
1.2362595,88.76384
1.2390673,85.471054
1.2112365,87.11854
1.1652746,85.02549
1.1098641,84.22331
1.1275469,85.85536
1.0152,82.54442
1.0779655,83.91055
0.9795146,81.68903
0.93714994,80.81594
0.95192003,86.06671
0.8640569,79.28683
0.78372425,80.918625
0.72957015,83.38583
0.7078629,77.767456
0.6783944,82.91327
0.6068279,80.61318
0.636183,75.571396
0.55380213,75.72485
0.5793332,82.0098
0.5780862,74.41768
0.65467757,76.03306
0.5703263,75.04269
0.5622116,72.5122
0.544697,72.7792
0.54492056,76.20004
0.46695855,72.37364
0.5748593,72.63758
0.5209703,73.89862
0.34502432,73.13774
0.4104836,75.49788
0.39028797,71.50618
0.31762755,69.84624
0.33864298,70.03949
0.33403954,72.00952
0.14110872,73.10545
0.28815824,68.32886
0.12849462,73.14496
0.15353072,72.958824
0.122262605,72.81257
0.16719837,77.123634
0.21487874,78.32708
0.19403654,78.578026
0.25268275,77.65021
0.39121732,78.43401
0.37906873,78.066414
0.45780563,75.66298
0.6005573,79.078735
0.76249653,78.23429
0.8290943,81.35008
0.85121477,78.8364
0.94941133,84.73799
1.0838604,86.81583
1.2329348,83.45505
1.0804973,84.14873
1.2579573,83.990234
1.3483081,86.78957
1.4655643,91.35386
1.4052547,89.99892
1.5002984,89.31797
1.363018,91.20741
1.4023056,88.86157
1.4856846,86.73556
1.509001,90.426506
1.4690566,91.93553
1.6347858,92.992516
1.5091131,89.26248
1.4216307,94.03184
1.4323807,93.45132
1.4089208,93.7777
1.4666167,93.314095
1.3496784,95.46835
1.2248344,90.733215
1.2095045,91.39672
1.2838461,97.79637
1.1885284,92.210556
1.224569,93.41774
1.1048483,92.6243
1.0811563,89.27974
1.1433952,89.75639
1.0326663,87.02826
0.9927081,85.67979
1.0531366,89.87767
1.0378343,89.21657
0.94629,88.131546
0.96007854,87.03983
0.98251534,86.971855
0.98241454,83.93162
1.038549,86.24369
0.93372345,80.09825
0.8552115,85.510155
0.78815705,83.00847
0.7989889,80.152824
0.71692705,81.314735
0.8269939,81.51986
0.75312513,82.01341
0.6338859,81.495155
0.68077624,83.224594
0.67629725,80.61604
0.45106936,80.52503
0.49781463,76.18517
0.49217343,77.01394
0.43642217,78.34551
0.43613532,80.76331
0.3873912,76.64315
0.24513572,76.112625
0.3053489,72.318474
0.323971,74.59252
0.29778174,74.34914
0.3418364,71.93845
0.31791103,72.51056
0.26768145,76.806816
0.29616117,74.61463
0.28250772,75.34439
0.23781392,72.692085
0.34503826,70.56903
0.17286444,72.774574
0.17964248,71.853775
0.2729592,72.80942
0.21098165,70.113525
0.06306437,70.96209
0.06151633,71.92659
-0.015789533,70.018654
0.05473256,73.613
-0.00813735,73.64687
0.02550858,72.873924
-0.051755246,74.483696
-0.004670096,74.881546
0.014121603,72.67822
0.056486905,77.658485
0.21433504,79.22528
0.26079378,80.64155
0.37484577,76.786125
0.42644656,82.86185
0.469067,78.573425
0.6455603,81.15754
0.674442,82.77686
0.7046205,80.057274
0.90978515,82.3315
0.946553,81.81726
1.0536833,87.68943
1.0421023,84.44256
1.1539578,90.21974
1.2350146,88.70651
1.2499028,87.41964
1.246652,88.71494
1.3496367,93.510345
1.3082894,93.83314
1.3544695,92.379715
1.3221009,87.85291
1.3973463,90.83585
1.4017376,94.08231
1.4670153,91.75092
1.4084439,93.42489
1.3782208,94.69644
1.3466929,91.93912
1.2733735,90.13442
1.2926837,90.34944
1.2396767,94.642426
1.198906,89.722725
1.2053423,90.0514
1.1909618,94.27379
1.0982488,91.26147
1.0761658,88.444725
1.0573479,90.535324
1.1124291,89.84694
1.0048939,91.77883
1.0920099,87.37154
0.89618814,86.70244
0.9340189,90.0151
0.94577634,88.27207
0.889334,89.48434
0.9598692,87.56492
0.9259314,84.17078
0.8986206,86.83972
1.008803,85.07745
0.9473726,85.82566
0.83154964,84.52963
0.8527196,85.539055
0.8829362,81.6476
0.8060496,79.78132
0.80838037,80.7202
0.68757594,79.03343
0.71778166,80.81561
0.6639212,78.78688
0.55835164,82.145256
0.524536,81.03864
0.5516094,79.20838
0.5080119,77.31101
0.45333463,78.594574
0.50926995,76.31791
0.41459593,79.29766
0.32693586,73.32825
0.4629582,73.74887
0.36926097,75.81097
0.43005762,76.33024
0.31663626,74.29959
0.44144443,74.27965
0.3328267,69.15073
0.3676573,75.39268
0.27785343,75.3922
0.30367392,71.905045
0.22553274,72.24769
0.25221092,70.86862
0.21016116,73.138
0.26366404,75.233086
0.16275705,73.40955
0.22415389,74.75802
0.11064623,72.73987
0.041258417,73.029755
0.08653594,75.52521
0.07938006,75.4607
0.04404772,74.28465
0.22943272,76.87444
0.15014648,74.454384
0.20876712,75.74749
0.34907487,76.05493
0.42388433,77.839134
0.5304622,78.08831
0.5801301,77.16765
0.65107024,78.83345
0.80671513,82.46761
0.8075163,81.23396
0.9368212,84.40093
1.045676,79.26739
1.0922748,87.06349
1.2722555,87.167175
1.3332379,84.70564
1.365132,87.7934
1.413383,88.799706
1.3269509,89.293434
1.5588688,91.20958
1.5397787,90.55123
1.4316174,90.983055
1.6033412,89.72613
1.5363606,92.8962
1.602947,93.41507
1.5861018,89.75371
1.6718118,90.26093
1.6044457,91.89079
1.659937,94.10547
1.5251558,93.38046
1.5211369,92.94343
1.5604223,93.86054
1.454369,92.14492
1.3759568,93.822426
1.471973,93.0655
1.4087255,90.928825
1.2945849,92.29196
1.439801,87.99626
1.282244,92.26236
1.2026922,87.71437
1.3590083,87.09537
1.3422328,85.394
1.250865,90.31729
1.2514669,87.92993
1.2495264,85.249115
1.231171,86.93368
1.1846088,85.48857
1.2105607,89.8565
1.3147564,85.050606
1.1910232,85.94618
1.1456975,85.693115
1.084878,84.67785
1.1875446,80.26113
1.0756029,77.702484
1.0705166,84.118
1.0558999,80.74303
0.97203535,82.54216
0.962199,83.4382
0.822367,81.88058
0.86161774,81.41878
0.8628692,83.12242
0.811813,76.88916
0.735725,80.72889
0.77173334,78.57348
0.77705216,75.035675
0.70710385,75.36015
0.7872968,80.379486
0.6604874,75.62257
0.6851816,76.36472
0.74420244,70.74795
0.74753445,77.47463
0.7394086,75.557335
0.7938447,74.08359
0.7054137,71.73702
0.68153876,74.63555
0.6303541,70.76344
0.6924065,71.10151
0.66539186,73.55897
0.49205008,69.17905
0.49840403,72.061554
0.49759343,72.41878
0.4820288,73.36662
0.51039326,74.85488
0.34928846,74.91843
0.33660474,72.651306
0.3100306,74.140366
0.45907938,72.68157
0.5031976,73.702484
0.47229978,78.78401
0.43998945,77.17605
0.4615604,76.511375
0.6364801,79.34633
0.74431545,77.88021
0.9181511,80.32802
0.9083835,80.03768
0.98096174,84.01416
1.1814376,77.977554
1.2474334,83.03897
1.3725555,85.09538
1.4479566,84.69038
1.5036964,85.47939
1.5866019,87.61597
1.6900154,87.76449
1.7830905,90.321686
1.6921837,90.973946
1.7983117,90.40979
1.7521292,92.21955
1.8356508,91.76505
1.870877,90.25562
1.9212749,94.927956
1.8959839,95.65752
1.8210717,93.58451
1.9484096,90.30141
1.8896921,93.58464
1.9118339,95.26471
1.873069,91.97397
1.844354,94.70882
1.8512237,92.591
1.7891419,93.96068
1.8106887,92.57793
1.75845,87.10394
1.7625642,92.2655
1.6171358,90.294235
1.6754627,90.00667
1.6026789,89.907364
1.5648429,88.25386
1.5629323,87.66547
1.4454087,91.1838
1.440008,88.82656
1.4437724,89.48378
1.4632019,87.62944
1.5893425,88.50106
1.5282097,85.66564
1.3319749,85.97916
1.4822392,87.6989
1.4211428,85.225845
1.4731545,81.358086
1.3440994,84.52026
1.4059155,83.86971
1.3459828,83.65113
1.3799789,81.0096
1.3376611,77.290375
1.174215,85.64492
1.2084283,78.50719
1.0972128,76.21358
1.1860074,77.33812
1.1106663,81.49158
1.0876848,76.381355
0.9762454,75.777626
0.9543145,80.081505
0.95597184,77.146774
1.0201734,78.60644
0.93907547,75.83393
0.919073,74.035774
0.9847724,72.421394
0.92407453,75.81105
0.91388845,73.427635
0.93412787,74.0763
0.9463061,76.259
1.0298053,72.57819
0.88691044,70.440994
0.8086956,74.222336
0.7790129,70.8458
0.84285086,72.929825
0.7608081,73.00705
0.7001328,69.77384
0.6485259,70.46544
0.57360566,72.335945
0.4911138,70.45714
0.52299887,71.400475
0.64193106,73.86994
0.5221834,72.20728
0.5691972,75.151085
0.6194424,75.418335
0.63800734,71.03205
0.52622175,73.57682
0.732769,80.64009
0.69607776,78.93774
0.90863127,75.53461
0.99760073,82.85859
0.9877918,77.890656
1.1829671,82.811905
1.2523131,84.77043
1.3612338,85.540085
1.475582,83.772354
1.4620522,83.988945
1.6124811,85.33289
1.6508204,86.608025
1.6588823,87.17233
1.7163807,89.5481
1.8653078,87.062126
1.8460009,90.04961
1.9132041,87.00009
1.9795011,90.63905
1.9511333,92.67229
1.9389987,90.88447
1.9650176,87.761
1.9375356,95.16746
1.8973333,90.90067
1.8847727,92.47927
1.9166846,91.603455
1.9296424,92.304726
1.8425834,93.59852
1.8623524,92.288925
1.7667533,91.952774
1.8074164,92.80606
1.6160089,94.01534
1.6742494,92.17779
1.7692672,91.60522
1.7091061,94.29195
1.7194524,90.49241
1.6904237,88.668686
1.5436528,89.055756
1.5594703,88.89447
1.5799056,86.8371
1.5486323,89.380455
1.4787647,88.683914
1.5558826,84.92081
1.5063275,87.98752
1.363686,85.92368
1.537908,86.13378
1.5698011,84.09431
1.4237674,84.69119
1.3774194,81.64644
1.3564548,85.15363
1.3771944,81.03879
1.2744104,80.769775
1.2242022,83.085266
1.224158,80.88257
1.2069559,82.415695
1.0551947,85.54478
0.96069014,81.9828
1.070853,81.70962
0.9711984,81.82153
0.9414717,79.06392
0.91342,77.22119
0.9977036,74.74336
0.79321265,73.7059
0.8497123,76.81099
0.76355886,75.073
0.8265912,77.98638
0.8074287,76.09581
0.898,75.481026
0.763985,75.24743
0.8818606,70.45745
0.7789995,75.44553
0.6302175,73.15618
0.8321415,74.8897
0.5965051,76.33405
0.6528508,71.910576
0.6279011,73.99858
0.60686076,73.67367
0.5764297,73.21071
0.4590303,72.04601
0.5303436,70.33539
0.44663092,70.24319
0.40662313,73.2582
0.32210863,74.30919
0.3928674,75.74829
0.31880483,78.26661
0.38431066,77.64458
0.42855245,74.66039
0.53234684,78.37998
0.58165854,75.9732
0.7669083,78.45766
0.74507785,81.71775
0.93875253,77.95087
0.9236747,79.52213
1.0025349,77.802376
1.136324,83.509254
1.0864351,84.007164
1.30869,84.60792
1.3640885,86.05946
1.4780385,85.75427
1.6089388,90.36987
1.5226442,90.58385
1.6291393,89.660706
1.6795374,87.439835
1.7436546,88.10284
1.5753474,92.41548
1.7554946,91.11399
1.7021435,94.148926
1.7217422,93.50042
1.7832975,94.682495
1.661497,95.117836
1.6574978,89.93009
1.7404377,92.78329
1.6740603,92.1649
1.5724924,92.25309
1.6293584,92.8251
1.7049222,91.95077
1.5751088,92.33812
1.5631142,92.921616
1.4882256,93.28485
1.4276648,90.3182
1.4116096,91.487206
1.3539332,87.10165
1.3539132,92.139854
1.2828273,90.99829
1.3328664,88.60142
1.2039915,90.97703
1.1447896,85.51035
1.1420414,88.69992
1.2509259,86.0497
1.190294,88.50804
1.1894251,88.48912
1.1668499,86.739494
1.2007,86.24788
1.150093,82.84851
1.1543181,85.55708
1.0542562,83.62015
1.0544357,86.05214
1.0296807,84.58406
0.9539098,82.694885
0.91447,83.07791
0.8313983,79.79041
0.8410427,82.34256
0.78895754,81.26278
0.7281347,79.47118
0.6525982,78.645454
0.5662647,74.436775
0.6892242,78.919556
0.64368397,76.452385
0.58778703,80.727615
0.53368527,77.64241
0.54381925,75.66975
0.4415247,71.908615
0.39586386,75.943474
0.54800004,72.70202
0.46742052,71.61677
0.46136704,73.26334
0.4416544,73.26423
0.4111181,71.43149
0.5059736,75.65871
0.3355791,71.32178
0.3919585,73.77752
0.24027443,72.713295
0.28505152,71.03542
0.26486403,70.16396
0.12015485,74.82189
0.3104795,70.93659
0.10768904,74.889915
0.06699254,72.942345
0.1497558,75.95259
0.09792123,73.230865
0.12617461,73.23283
0.087989315,71.61256
0.17993468,75.22917
0.29364616,75.98629
0.33978406,77.33004
0.3406325,77.23917
0.4112194,81.697014
0.5566659,80.51342
0.6171749,78.83741
0.7287582,81.285126
0.845972,80.99466
0.9080837,86.66783
0.94195044,84.840965
1.1117122,84.8537
1.1131834,83.940216
1.1652573,86.86602
1.2159737,86.634476
1.1858298,86.52011
1.2560794,87.619995
1.2992505,87.457504
1.3630517,90.563545
1.4494362,92.84752
1.389888,90.12597
1.4540131,97.415436
1.3829464,90.768326
1.4151198,90.49323
1.3581933,90.400696
1.419969,91.30342
1.4372604,90.89341
1.4287021,93.635735
1.4105282,92.35981
1.3062383,91.81861
1.324341,92.976295
1.3925917,87.40903
1.2418518,91.531624
1.1686002,90.04783
1.1410536,92.36387
1.198295,90.880936
1.1435131,91.27947
1.0399545,89.733604
1.1213452,89.276566
0.9277428,89.3883
1.0619859,89.63491
0.858536,87.48231
0.8614036,91.08414
0.9471926,87.80667
0.9538331,88.573296
0.9316085,85.07047
0.8827765,82.85717
0.98143655,88.05701
0.8632075,84.248886
0.92482555,82.907166
0.8560083,83.230576
0.6620055,82.618095
0.68467134,84.466705
0.6321867,83.92621
0.6848055,83.43083
0.6410779,81.69466
0.63709044,82.236244
0.5169706,78.329575
0.4942413,77.73398
0.418874,77.55042
0.4098505,78.30918
0.31224084,74.69617
0.5123221,77.42091
0.21913844,76.83818
0.4162581,75.45021
0.32636783,75.2785
0.26926848,75.21172
0.29447135,71.38646
0.21618222,74.98221
0.34140158,74.707855
0.22427946,74.73934
0.18646608,73.429344
0.24425255,76.43354
0.25956646,73.40555
0.16196837,74.37447
0.1393509,73.08018
0.0016271853,72.51889
0.048082262,74.01426
0.07029571,76.533394
-0.07537114,71.86837
-0.06805314,73.92024
0.031707928,71.748726
0.03279946,69.81305
-0.047912136,70.13111
-0.070192516,74.05204
-0.04271862,76.28982
0.028681856,76.11985
0.112738356,76.000656
0.15897818,78.0023
0.30001,80.03326
0.26008362,77.208084
0.50511336,77.51132
0.427998,78.940155
0.5177109,80.89836
0.7753992,80.611145
0.8650741,81.83059
0.87286144,83.89864
1.0199686,88.02577
1.1575092,84.29189
1.1080049,87.77412
1.2083644,85.5277
1.1492251,86.524254
1.2386566,90.50572
1.3107935,94.09257
1.3061725,89.70984
1.3225329,92.00272
1.365261,90.050964
1.4275703,92.14787
1.3124905,90.24407
1.4629031,93.81523
1.3666404,96.531136
1.4495666,93.944786
1.3762982,93.52145
1.400041,95.27354
1.3465054,92.559166
1.2606562,92.28847
1.3326925,96.46279
1.2914213,92.900635
1.1850891,91.308914
1.173941,90.72485
1.2429606,91.834595
1.057168,91.38221
1.1070836,91.3352
1.1494871,90.51985
1.1373655,91.07026
0.9895122,87.393654
1.0900205,91.79329
1.0097786,90.22283
1.090376,87.98007
0.9731848,86.51925
1.030618,86.44404
0.9586985,84.92929
0.98500425,85.39765
0.9989475,87.695984
1.0149767,85.27313
0.92841417,83.22425
0.8881981,85.94183
0.81924826,81.99294
0.918234,81.25707
0.82073283,82.941795
0.78136295,83.578514
0.6532307,82.95493
0.7379921,78.250885
0.5971588,77.796196
0.5578902,78.5548
0.50646853,78.30953
0.64654547,75.88721
0.6184313,78.73539
0.61216915,76.91372
0.55761683,75.94729
0.47546765,76.28909
0.4814839,73.547844
0.51037663,74.42037
0.43521923,75.42268
0.5306681,71.235886
0.45991972,74.27772
0.4386298,76.73646
0.45169574,71.18672
0.42987838,75.92421
0.5068876,72.34607
0.41191483,67.556076
0.29635504,71.58352
0.37959206,72.92385
0.24349305,70.30152
0.28902334,73.60604
0.30407885,76.430405
0.21596688,71.22717
0.015759528,73.10164
0.17049927,70.838875
0.14622071,71.351685
0.191647,74.03224
0.21233079,75.062096
0.25345588,73.84725
0.25400388,75.43115
0.2908478,80.458855
0.34900865,79.18398
0.5062156,79.34681
0.5282865,80.15405
0.7251321,81.00824
0.76909065,79.29753
0.8957325,85.629326
0.9864631,79.43344
1.1243418,83.568016
1.2143067,84.54038
1.2719522,85.391655
1.3234121,85.68361
1.4742284,88.328674
1.4828936,86.26812
1.5563775,90.52397
1.5260669,90.19634
1.579419,93.24324
1.4996432,88.033905
1.5689895,90.055984
1.7098128,89.79079
1.7191914,93.22114
1.671236,92.86604
1.6749834,90.78731
1.6762886,94.77616
1.60373,92.8996
1.6213337,95.81089
1.6684391,91.31072
1.460977,91.96887
1.5276473,93.987915
1.4987147,93.31528
1.4347609,90.0361
1.4692099,89.6682
1.4541243,89.83125
1.3481495,91.86716
1.3516964,90.549255
1.3673363,90.972664
1.3871267,92.052895
1.3705052,87.996
1.3718594,86.28545
1.4489739,86.923294
1.3036153,87.019615
1.2939837,86.11411
1.1866546,86.40628
1.3015133,87.487465
1.2316642,84.92862
1.2858894,87.056145
1.2719022,85.27048
1.1979111,84.132385
1.0636805,80.5322
1.1662083,81.21539
1.1965517,84.55572
1.2022415,80.38322
1.0548962,79.19767
1.0076135,79.11416
1.0676981,77.487175
0.9261095,79.291405
0.91988665,78.54557
0.7603592,78.693565
0.84041375,78.259605
0.846782,78.85266
0.74146706,76.14277
0.7553417,74.48132
0.7836509,74.49991
0.79343534,71.8025
0.8182052,75.84142
0.8574799,74.48517
0.6948958,74.850945
0.743233,73.94762
0.72555864,71.63632
0.80924064,76.068306
0.6880562,73.6483
0.76485,70.4334
0.72814953,72.245155
0.6091102,74.88039
0.56495017,75.42481
0.6182239,70.77939
0.56524414,75.6325
0.56659037,69.940926
0.52940637,71.35025
0.52245307,71.59657
0.38451827,71.9223
0.42621788,75.49373
0.43393424,72.5816
0.45276663,72.60212
0.47478536,73.60408
0.47983113,75.63359
0.6211626,73.81076
0.6438754,75.218124
0.78596723,78.845406
0.79335254,77.43181
0.92565864,82.364334
1.1189798,80.18908
1.1755334,82.92233
1.1711886,83.392624
1.4191434,81.79334
1.5219927,89.17068
1.5586331,82.608444
1.6500134,87.67346
1.6523045,85.23287
1.6712147,84.088295
1.7958938,87.65665
1.9267253,89.90003
1.8847592,90.133865
1.8482807,90.87648
1.9407758,91.333084
1.8526651,91.062065
1.8704315,93.72409
1.9579724,89.0921
1.9293457,93.717514
1.796668,88.74032
2.0100863,92.099396
1.8848568,94.38172
1.9097581,94.15546
1.8468618,95.21822
1.7208674,93.31183
1.8276756,95.75554
1.7671294,90.535995
1.7455422,93.52337
1.7066946,91.80937
1.7285824,90.85173
1.7180083,93.05064
1.6367615,89.11549
1.6238698,88.03032
1.5861549,90.19759
1.5542693,90.638954
1.4327791,85.08342
1.549495,87.79469
1.5256684,88.185005
1.3619894,88.10749
1.3723112,85.62769
1.4882668,83.53781
1.4913759,87.41794
1.4643342,84.39922
1.4195162,85.40204
1.4454155,85.59367
1.4146464,83.64054
1.3033657,82.22563
1.2898117,83.23238
1.2993422,83.65105
1.2396121,80.01869
1.2210916,81.2698
1.1732975,81.78689
1.0830559,79.023926
1.105871,78.75597
1.0342246,76.06117
1.1319637,76.25551
0.85989225,75.59976
0.94706875,76.32512
0.93689716,76.440254
0.934872,72.89725
0.9351085,74.25532
0.98974335,75.15873
0.92895895,76.559845
1.0209742,73.01455
0.8475474,71.8612
0.8354795,70.79353
0.88886076,71.3957
0.9265272,76.01039
0.8214831,73.16827
0.73393506,70.16164
0.65908897,71.87809
0.7521958,71.45452
0.7282882,72.45466
0.6537791,71.595985
0.6298866,72.41151
0.5668323,76.23584
0.46940583,71.22171
0.566797,71.311264
0.5148001,77.44831
0.5165513,77.87975
0.5400588,75.71463
0.641243,74.01629
0.58514756,75.93714
0.7159421,77.70151
0.8474153,76.35083
0.9808131,78.80231
1.0548983,84.10596
1.133972,81.25486
1.1765597,82.34446
1.3283191,80.9907
1.41484,82.226906
1.531601,81.98459
1.5943658,86.81411
1.53082,87.22017
1.5851703,87.21302
1.7501632,90.76152
1.803405,90.41594
1.9162056,89.95896
1.9203762,90.39046
1.8226092,90.3714
1.9436972,91.95525
1.928203,94.926796
1.8796558,91.41665
1.901392,91.95711
1.8546203,92.79607
1.8672396,95.46186
1.9386804,92.21249
1.9078043,95.06345
1.8575337,92.08232
1.8484613,93.05034
1.7886654,94.26611
1.6607555,95.34445
1.7380733,90.850235
1.6996529,90.15466
1.6292402,93.37504
1.6481367,87.9519
1.5893404,89.01638
1.6381665,90.73453
1.5645611,90.73507
1.6274462,91.64852
1.4507998,90.56838
1.5367974,88.589264
1.4991833,89.554375
1.4485624,88.64236
1.4483154,89.814964
1.4827921,83.132545
1.4986274,85.971664
1.3404762,82.32701
1.2967807,82.65751
1.47488,84.33337
1.2461978,77.504166
1.4122792,82.40558
1.3008801,85.080124
1.1590818,84.90124
1.1668679,84.05325
1.0979999,80.984
1.0862393,80.18086
0.9894585,81.31142
0.9429592,79.37105
0.9116044,80.531395
0.88284767,79.02351
0.8477027,74.93728
0.87368464,74.96921
0.7952519,75.652916
0.7534774,77.327835
0.81253135,77.349396
0.8116375,72.40372
0.7461083,74.17956
0.71307373,68.867645
0.7099807,77.21178
0.7723488,73.50595
0.75711375,74.35083
0.73413646,73.892365
0.69231915,70.639915
0.7037662,70.530785
0.6452713,72.07286
0.6030467,72.255005
0.4459854,72.32751
0.563197,71.64438
0.39785588,76.30482
0.43792173,72.170654
0.31644028,72.8121
0.4269284,74.081474
0.31831294,73.634125
0.32821319,76.54084
0.32556614,74.903786
0.37546116,77.3623
0.35632163,75.047905
0.47206149,72.957306
0.41730434,74.75949
0.5646091,78.71822
0.654802,81.03534
0.8696531,85.19449
0.92375004,80.13149
0.9873144,80.46473
0.94707066,81.98406
0.98980826,84.25378
1.1423153,84.4837
1.326852,85.62003
1.3258283,87.59325
1.4018173,86.29512
1.6521504,89.76745
1.497744,89.601715
1.5657839,88.142586
1.6257545,89.43111
1.6455162,89.38853
1.5622326,93.72931
1.7151442,92.749695
1.6642878,95.043205
1.6225717,93.36735
1.6923708,93.35733
1.6185881,95.49849
1.6040102,90.0571
1.7007452,90.04899
1.5585426,90.824036
1.5207752,92.99614
1.5606203,91.27014
1.5643295,90.702446
1.4459411,88.95518
1.3342761,94.00888
1.2855936,93.19929
1.2466514,92.7262
1.372251,92.534
1.3088807,92.609726
1.1885351,91.334305
1.2341211,91.61939
1.1715604,84.683304
1.1316147,89.00814
1.1675203,88.116905
1.0967075,85.95852
1.0927835,84.17979
1.1314962,85.51819
1.1829249,88.19811
0.99121577,85.76267
1.0718521,87.5524
1.1521053,85.39647
1.0161582,85.86846
0.99932694,84.201996
0.98993456,85.280945
0.9439098,82.58183
0.7895161,81.42748
0.84155256,79.02617
0.73757666,82.946
0.7364225,80.9638
0.65968645,79.40937
0.57410115,77.588776
0.5787903,80.37043
0.437691,78.69061
0.5696278,76.78829
0.58718485,71.839035
0.52927923,79.6067
0.45429736,77.90105
0.42485055,74.15937
0.44785422,77.43062
0.3973415,75.91083
0.44115335,75.107216
0.4687369,71.856094
0.47158027,75.07152
0.3579481,74.66892
0.44016677,70.86286
0.48690927,73.489685
0.34125084,75.15717
0.2817328,72.202805
0.21376269,73.94206
0.18569067,71.48564
0.13776802,72.09031
0.099254765,71.74091
0.104098015,75.1751
0.09264915,69.48507
0.08492562,76.093895
-0.01767965,74.59383
0.026992915,75.2503
0.04733876,75.4843
0.10810808,75.87802
0.18239853,76.80611
0.23638417,78.94978
0.27410126,76.83009
0.29593724,79.68265
0.4326724,82.94684
0.5535143,82.922516
0.59944725,80.47934
0.64059573,81.19223
0.7863224,80.18507
0.96423703,89.4014
0.93214524,82.86068
1.1136446,88.455635
1.1697899,86.850235
1.3485904,84.68122
1.1794784,86.80066
1.2559614,90.89352
1.2792455,91.822784
1.3408365,89.28102
1.4388775,86.86726
1.2768555,89.43512
1.406073,90.74022
1.4285728,91.12448
1.4678693,93.2932
1.508566,94.56878
1.4261982,95.87417
1.5033078,96.91788
1.3493311,93.71214
1.3236989,92.74735
1.2440695,90.95013
1.2983264,95.800186
1.2165879,88.797806
1.2533419,88.54229
1.1733154,89.78828
1.1134793,93.67806
1.1020362,93.69399
1.1023811,91.02553
1.0052365,90.62342
1.0306143,88.61857
0.8911066,87.49356
1.0172101,88.10723
0.90852964,86.84614
0.91311014,86.23213
0.93167216,88.19202
0.9520574,85.51343
0.9372699,85.37364
0.90114415,86.515915
0.8928202,87.40388
0.9064647,86.568924
0.96000713,81.44887
0.75855553,86.302795
0.6720373,85.11757
0.6728827,81.55194
0.6752137,79.247574
0.700065,81.44578
0.6334202,77.58327
0.56074035,79.58232
0.47529122,78.515976
0.48465553,80.58159
0.3850696,77.45256
0.5077564,77.69578
0.41222674,76.76348
0.2621181,77.71712
0.36308673,75.64065
0.31128523,73.43041
0.2850232,76.20405
0.33850047,75.33536
0.4140598,80.0146
0.29260746,75.97095
0.3201903,73.4963
0.3463167,71.71986
0.355384,74.69654
0.3445478,75.16206
0.13761362,73.044685
0.2284773,73.31234
0.27738434,73.22641
0.1304914,70.04155
0.08941596,71.49743
0.03484784,71.26899
0.1572465,73.36024
0.06914295,72.05288
-0.1400975,75.30286
-0.029211814,70.172745
-0.023923919,74.15926
-0.06344765,73.99088
0.03466621,77.41783
0.063692,73.71859
0.05723101,79.13311
0.21340434,76.79282
0.27168235,79.6998
0.2570214,80.41474
0.4796303,77.05508
0.49184486,78.40061
0.5407105,79.772255
0.6636374,83.772
0.81777793,84.88109
0.743719,81.93098
0.99129575,83.029564
1.0496022,85.45043
1.1554261,86.738365
1.2469649,87.68255
1.2090071,86.82594
1.2234981,86.987076
1.3692459,86.39612
1.2833291,88.08829
1.3005695,91.61384
1.3791276,90.83947
1.4003675,93.42528
1.415186,93.70734
1.4430462,89.75478
1.5349829,93.059135
1.4187411,91.11957
1.3986322,95.84457
1.3767717,92.20029
1.4098591,93.156265
1.3466259,91.61273
1.3839258,90.370384
1.215397,92.031265
1.2488304,93.315796
1.2576501,93.53685
1.269222,88.44457
1.1455964,90.81127
1.1436616,91.48726
1.1374791,87.73966
1.1821721,85.47622
1.1059922,87.2654
1.1435808,87.71612
1.0115901,85.84376
1.1546372,85.46266
0.9562697,86.4285
0.99510443,87.0508
1.0519859,87.57749
1.007449,86.00547
0.9793694,81.617096
0.8811418,85.32692
1.0280092,85.97369
0.9978257,85.016716
1.0183331,79.30567
0.8426382,81.962944
0.86030775,83.10214
0.84799445,81.82656
0.80795294,81.110176
0.73710614,80.218575
0.6897932,81.31353
0.6747583,78.090706
0.60986024,80.231575
0.6375927,78.326866
0.5744041,75.69269
0.5498178,76.94325
0.5565001,78.14826
0.51742864,79.98072
0.5959774,78.24576
0.4068123,75.95947
0.51227224,74.79031
0.51478404,74.590546
0.5446016,74.04184
0.52422917,72.96484
0.57164526,71.65738
0.5538863,71.429276
0.4697983,72.69535
0.46615863,71.15107
0.40357324,70.83163
0.37534738,69.917786
0.34388816,69.79186
0.26560548,73.12559
0.25710264,73.25736
0.25285742,71.95072
0.18696292,72.48149
0.16648929,68.90018
0.12972699,68.87359
0.20289274,70.89256
0.21513876,74.70416
0.4084264,74.921776
0.4061223,81.94695
0.35902637,76.81708
0.40442806,77.09152
0.5840767,77.92474
0.7009455,79.67041
0.74935776,78.43899
0.9252943,83.77219
0.8922515,80.36817
0.970001,84.615654
1.1939536,83.900276
1.2369406,85.50354
1.2796801,85.46646
1.4403994,82.33905
1.4311317,86.94847
1.6053175,89.40706
1.5193225,88.60788
1.591401,88.581505
1.6702833,87.017365
1.6760395,88.76173
1.7056608,86.901
1.7109747,90.8047
1.7276057,90.29456
1.7284145,93.16431
1.8073128,93.15447
1.728324,92.17549
1.6667174,91.25682
1.784354,93.56868
1.645717,91.02651
1.6372701,90.79492
1.6098349,93.00852
1.5696633,92.18529
1.5147474,92.541046
1.5610276,91.43933
1.552896,93.73554
1.436576,90.44349
1.5289845,92.50111
1.4496928,92.71108
1.4942299,92.405464
1.4212729,85.87497
1.3609607,88.75856
1.3370123,88.828285
1.3667992,89.62686
1.368396,87.586685
1.3839451,84.20497
1.4022963,84.752426
1.4604397,87.85572
1.3468338,83.68275
1.2381895,83.6126
1.276636,83.366684
1.3234246,86.7792
1.1680899,80.640076
1.1946692,82.00625
1.1402925,81.13053
1.108596,80.44896
1.050712,82.29478
1.1070843,79.86072
0.9966576,77.761856
0.99512845,79.56025
0.8940158,76.12645
0.92806005,77.39553
0.9529017,76.95682
0.8335167,77.99752
0.8740674,76.06886
0.7861012,73.70112
0.8692823,75.36839
0.8529285,72.77804
0.8378016,75.76552
0.8526135,77.65783
0.8379684,72.84228
0.880684,72.36274
0.8099211,74.00889
0.90967095,78.88245
0.74847734,71.11814
0.80466723,75.28537
0.7791887,77.13028
0.6772836,73.52946
0.6211469,74.01093
0.5875853,70.57937
0.62655723,71.81839
0.5295728,73.73494
0.5126038,72.725586
0.56645423,72.08248
0.46657154,70.70809
0.5971962,74.34721
0.46769947,73.52943
0.47989145,73.69452
0.64829195,76.43196
0.5661429,78.39006
0.75123173,77.82876
0.8414389,79.091194
0.96561706,74.23332
0.85152155,78.100655
1.0581069,82.6572
1.0945404,82.639725
1.2697221,82.39892
1.4636381,83.91515
1.3609359,83.93458
1.5838608,83.71418
1.5665299,83.970146
1.7259759,82.70544
1.7430807,87.90374
1.9307988,88.5806
1.8229462,89.75098
1.843112,90.54662
1.8858848,88.94656
1.9439147,94.49127
1.8523254,88.17675
2.0154588,92.897285
2.0337703,91.07834
1.9806764,94.56795
1.9298902,92.77334
2.008817,90.255295
1.9473493,94.330666
1.9316436,92.85626
1.9220815,96.769806
1.9082007,94.629135
1.8926407,89.494896
1.8142524,92.23774
1.8627503,93.424706
1.6861401,89.626526
1.7230663,92.0948
1.6674559,93.22442
1.6700947,94.86161
1.6608474,90.69651
1.5260018,86.945335
1.572195,89.048996
1.5979729,87.704735
1.4604708,89.07245
1.4825995,85.497086
1.5516477,87.9207
1.512925,84.68838
1.5025308,84.16398
1.483091,85.2872
1.4787043,85.864395
1.4353719,83.6478
1.4349587,81.38422
1.3645097,83.814125
1.3685249,85.02387
1.3692763,83.54536
1.2811618,84.185486
1.1151756,81.571335
1.0917957,78.929474
1.1340371,79.49052
1.0316992,77.29237
1.0772644,80.69229
0.96770656,80.45673
1.0011579,78.47603
1.1289743,75.10761
1.04205,76.69898
0.8217511,75.593185
0.9232745,78.58677
0.9082078,76.386604
0.89977145,77.20982
0.88463956,75.65984
0.91794586,75.75994
0.9539735,76.26617
0.75577146,76.17896
0.7879591,76.95739
0.9188668,70.88124
0.89492977,69.04271
0.79591095,71.79322
0.712207,70.748604
0.689561,72.001915
0.7300819,70.66306
0.6024337,71.05647
0.6569073,70.876
0.5373485,69.53434
0.49107143,72.675354
0.489983,73.76745
0.48164928,75.5331
0.46336225,76.12822
0.61639446,75.44532
0.60555017,74.48717
0.7094439,73.02627
0.7404696,76.08475
0.8369681,76.47885
0.8218681,79.52005
1.021916,80.26611
1.0807294,78.168594
1.175311,80.1923
1.2654687,80.31905
1.4331136,84.21928
1.4400977,85.95556
1.53854,86.20638
1.5612832,86.57422
1.557357,86.760605
1.7169054,85.321526
1.8075562,89.99018
1.8455081,88.66817
1.8921115,91.283104
1.8660188,90.50341
1.9078751,88.77759
1.9338238,92.37939
1.8269697,95.33969
1.9415978,94.37819
1.9589632,91.80652
1.9249928,90.535416
1.801036,92.74645
1.8435937,92.62025
1.8578717,96.05372
1.8930213,95.30015
1.7972482,92.327156
1.7562484,91.20756
1.7224092,93.06604
1.6742957,93.503525
1.6770254,89.75681
1.6063538,92.63143
1.6175605,90.5258
1.5831141,88.041756
1.4908562,89.93029
1.480668,90.87864
1.4552606,90.15823
1.4187806,88.20686
1.2912604,89.00935
1.3841102,87.14959
1.3706564,89.59524
1.3013202,86.15044
1.2791878,85.092384
1.2594731,84.38817
1.3318499,84.17
1.2547264,84.405754
1.303959,83.45048
1.2653794,82.115974
1.3159896,82.93646
1.1492108,82.416595
1.1921769,82.74009
1.0546403,82.57014
0.9991836,79.32359
1.0520374,78.31202
0.77788085,79.25796
0.9185049,76.385025
0.7614389,79.39158
0.74520236,77.00635
0.77300304,77.18718
0.6876561,76.70084
0.7657491,75.61924
0.8253546,77.23145
0.69786876,74.60579
0.6638776,74.74963
0.71410334,76.097336
0.6400908,76.57412
0.6173406,72.78472
0.69049376,79.0165
0.6186991,74.574554
0.6548819,75.47267
0.6593786,73.13679
0.55029166,73.3122
0.522045,73.3055
0.4714921,69.34671
0.4595408,68.3684
0.39501557,71.77985
0.3464233,72.300934
0.23391192,75.20091
0.2702101,73.05637
0.39698595,71.690735
0.26033548,72.90168
0.22213326,73.58655
0.314127,72.15657
0.38293558,75.42547
0.41118857,79.8468
0.49685413,73.73349
0.4125695,73.993286
0.62095815,77.46652
0.72756284,79.723694
0.7024558,81.091034
0.8764605,80.790215
1.0373579,82.88175
1.1036236,82.37975
1.1192638,83.071175
1.2686719,83.9468
1.3940816,83.05432
1.3062743,89.33968
1.4824265,87.174324
1.3805546,86.95153
1.4124124,90.864365
1.5551616,89.76931
1.5369692,90.92959
1.5222557,96.16296
1.5765736,92.58247
1.4997449,90.12962
1.5212815,93.07372
1.6496155,90.973694
1.6369882,93.00967
1.487004,91.86038
1.5751601,93.04753
1.5736789,93.63931
1.5033114,93.54131
1.4595336,92.19526
1.42907,92.79587
1.471298,90.242775
1.4225887,94.931625
1.371426,93.3416
1.347803,90.92709
1.4342179,88.36063
1.1877407,88.73749
1.2238618,92.199554
1.0801629,90.108696
1.1467795,91.23389
1.2286597,88.234184
1.204738,85.443695
1.0722709,90.58984
1.0873743,86.84677
1.0754067,83.35818
1.1534415,85.712746
1.083443,87.46855
0.9128487,82.257095
0.9332387,81.81613
0.9925103,87.78441
0.94747555,82.38917
0.90913445,81.91064
0.9295269,82.44336
0.81315464,80.35918
0.7862988,80.20496
0.66983527,80.21606
0.6359211,82.57864
0.7145908,79.51893
0.57376015,79.9051
0.4383553,78.546875
0.48308262,80.01439
0.43137142,74.496704
0.453108,80.338264
0.4638162,76.3141
0.33449116,77.11784
0.49199638,75.530876
0.4613505,75.01653
0.4978971,70.86192
0.5493665,75.88916
0.4594664,77.56221
0.3265052,74.12281
0.395907,73.50582
0.4068692,73.34135
0.33166587,71.512215
0.26750636,73.18738
0.32569563,71.88163
0.13352603,72.194016
0.10087218,72.37409
0.06329336,73.2899
-0.0067024454,72.8015
0.0043906798,71.62544
-0.0021426694,74.78986
-0.1072972,72.4506
-0.053272154,72.09696
-0.08625681,70.797455
0.0018793915,73.6355
0.014739219,75.08829
0.06783138,77.77915
0.16772276,75.88287
0.32373565,73.82453
0.33485734,80.82563
0.42279813,80.64263
0.48989505,79.93668
0.5891365,81.71978
0.64810526,80.39799
0.7840842,83.93752
0.9730188,87.3403
0.97309285,88.23034
0.9950255,84.977455
1.1284101,86.26391
1.2303113,85.37705
1.0935061,87.91644
1.3050243,84.80948
1.27839,89.78546
1.3976926,91.94052
1.3297864,92.10696
1.340007,90.58671
1.371371,92.443214
1.3331566,92.83689
1.3976872,92.92883
1.3214865,93.80086
1.408165,91.82178
1.3073198,92.092896
1.2888275,93.706604
1.3491322,91.538765
1.2821971,94.33733
1.3121848,91.48433
1.2730784,92.0391
1.2286458,95.94543
1.152316,92.10107
1.1118207,89.560585
1.09424,92.65429
0.9909495,87.528534
1.0448056,90.774216
1.0668283,90.045425
1.0006117,88.59771
0.94374245,88.916855
1.0004135,87.0805
0.99851525,87.21043
0.8682244,87.50735
0.88945764,82.8106
0.7794529,82.34847
0.8709268,83.680435
0.85465735,82.6828
0.8129959,87.479614
0.81769735,83.516174
0.7757634,81.048096
0.84237325,82.406296
0.7349781,79.65803
0.7314031,84.77789
0.6182307,82.32742
0.56573176,78.92367
0.55406153,81.22211
0.5406593,80.90095
0.4807857,76.02549
0.49740207,77.29885
0.3616642,78.37858
0.38845992,77.38267
0.4345304,73.7361
0.26916403,76.274574
0.30641827,77.92499
0.37351316,77.410995
0.35690445,75.61977
0.33243605,78.42748
0.3494388,74.184715
0.35789093,71.27992
0.45977864,75.22717
0.3113721,71.14878
0.29116768,74.56578
0.16329499,71.79829
0.18625209,75.0407
0.28436008,68.84434
0.26278713,71.560394
0.17807204,75.611984
0.10783644,71.38879
0.091322415,75.023544
0.0008915904,72.74134
0.08617327,74.392784
0.0022197713,75.885765
-0.0625608,72.84897
0.1061124,69.96246
0.06396836,73.32046
0.06860967,77.42006
0.015999636,77.2996
0.0947691,75.500824
0.30175692,76.119415
0.3789952,78.58199
0.39850295,80.539276
0.48870867,81.300064
0.66070664,77.26241
0.6824461,79.96194
0.78716,81.28324
0.86321676,85.81421
1.0053284,85.058304
1.1759324,86.764305
1.1893673,86.1752
1.2220563,84.74956
1.2563479,89.14894
1.3017683,87.814545
1.3755794,86.62195
1.4470681,90.33303
1.4312986,87.50646
1.4572381,93.58614
1.4687456,92.71475
1.4810616,93.200386
1.5249263,91.789665
1.5254723,91.04887
1.514864,94.805466
1.4645164,94.82915
1.4992323,91.45541
1.4339964,93.046455
1.4240892,90.99662
1.3951238,90.41522
1.3874077,89.76819
1.4621934,92.59272
1.4054278,89.1941
1.3340615,90.91964
1.2691861,88.44427
1.2955841,94.142265
1.1923947,89.2879
1.2213402,90.854454
1.21166,90.18765
1.1674048,86.78236
1.1306411,85.26163
1.0553654,89.27914
1.0910591,86.85824
0.96869636,86.28572
1.0933286,86.61571
1.0743086,86.14846
1.0871607,84.325775
1.0154023,84.12448
1.089523,85.59646
0.9892629,84.76804
0.96035826,84.079704
0.9233002,82.39858
0.8365901,84.47849
0.83780193,80.96871
0.83804107,80.28783
0.83600545,83.08823
0.8470191,82.13069
0.7506556,78.86185
0.7661811,79.575066
0.6246503,77.65974
0.58557254,76.48509
0.64176863,78.2796
0.6328508,72.70484
0.6154636,77.898285
0.5353514,78.80143
0.6205228,76.34717
0.5868848,76.43933
0.5825134,75.56614
0.4858785,75.34013
0.5510859,74.38942
0.47650418,72.55801
0.56783617,72.4616
0.53128123,73.67727
0.47289112,71.00581
0.5111109,68.98121
0.33297676,71.04669
0.4184145,69.7053
0.3729313,69.37129
0.33466417,69.67647
0.35366675,75.335365
0.2871588,74.431694
0.24005572,70.97735
0.29918894,75.641304
0.31781557,75.184
0.25020212,73.99702
0.4350374,76.65694
0.40191162,73.33674
0.49663675,75.27177
0.56607604,78.238174
0.5640139,79.39856
0.70557684,76.88737
0.8107619,81.9685
0.9038205,80.116806
1.0199238,81.26026
1.0598862,85.57424
1.0780367,81.758255
1.2217073,79.8827
1.2874215,83.74494
1.4892333,84.20575
1.5643007,88.765434
1.4966186,87.36466
1.5890998,87.42496
1.5685879,87.58888
1.6673203,90.186874
1.7986248,94.07156
1.7687707,94.926
1.7303666,91.73948
1.6852858,96.543236
1.8330678,91.95925
1.7508212,93.5896
1.8040546,94.144516
1.8050792,93.72094
1.6756663,95.15135
1.7493706,91.10254
1.8342954,91.77844
1.8060048,94.225784
1.6958616,92.952805
1.641809,93.84655
1.639597,89.17244
1.5081644,89.46339
1.5209084,90.103065
1.4842829,89.37184
1.5218278,89.129654
1.4701934,93.13717
1.4703963,87.90921
1.479765,86.700066
1.3466859,86.83458
1.3745975,87.276726
1.529026,85.06038
1.3513288,85.87364
1.3932066,87.98507
1.4209166,83.9287
1.3345077,84.544174
1.2836988,83.09786
1.4214865,85.18303
1.3017974,85.639786
1.2908609,85.40736
1.2507408,83.27207
1.1726286,80.85048
1.0843945,79.41841
1.2798318,83.252594
1.0556984,80.09306
1.0883238,79.514854
1.1379929,77.31937
1.0335957,77.82021
0.9636168,75.23412
0.9183864,77.61196
0.8601867,78.10227
0.9454301,76.52424
0.89204323,79.37198
0.7561143,75.711136
0.8161574,75.79742
0.8397608,78.510635
0.86187106,73.28825
0.84469295,71.57407
0.8205623,73.52056
0.9194793,75.552414
0.89683163,72.09991
0.9108813,67.066124
0.83293664,70.27671
0.7555171,72.387436
0.79432446,69.92517
0.8074931,74.35436
0.6584551,74.03365
0.59431684,72.28512
0.5697782,70.46843
0.639827,71.07448
0.46935683,74.86502
0.4747078,70.81812
0.51805264,70.71395
0.54673976,75.18817
0.5669876,72.66933
0.681704,75.167946
0.6420947,78.05402
0.83010745,76.985146
0.8624519,78.55028
0.94357675,77.48239
0.92114353,82.32273
1.0710698,79.06449
1.2123957,81.96718
1.3094176,82.627754
1.3504019,81.19499
1.5803137,86.42415
1.5499729,83.69919
1.6383246,85.384415
1.8255508,86.84483
1.8488004,89.918915
1.8824145,87.1714
1.8679897,91.01724
1.8814577,91.6078
1.9147103,90.14431
1.9529408,93.203156
1.9751066,88.672
1.9065008,93.43998
1.8829099,90.471725
1.9167377,91.03363
1.9363508,89.45204
1.8683467,93.22155
1.8934622,92.2247
1.9618367,89.59016
1.7989414,92.515205
1.9707599,93.03187
1.7939689,96.630806
1.8064324,88.98943
1.7423406,93.34037
1.7818247,91.76254
1.7103807,94.83232
1.7391036,90.88727
1.7403619,92.56491
1.5356311,89.27579
1.6180654,91.49613
1.6076523,89.44795
1.5676962,86.48537
1.557497,89.78839
1.4237424,86.80131
1.5051656,85.784546
1.4650995,87.79125
1.5465385,84.38057
1.4506693,89.15165
1.4452739,86.342995
1.476298,81.26858
1.4370655,89.552795
1.3078754,83.60239
1.4690584,84.13033
1.2992712,80.670944
1.3026785,79.27613
1.2292589,80.91288
1.2241513,75.584595
1.1078888,80.30056
1.0583348,79.74337
1.0076729,76.78976
0.97627544,76.158394
1.039703,78.72065
1.0390334,81.11597
0.97952455,78.68272
0.9096318,79.36078
0.9371948,76.362236
0.90084785,76.90847
0.92182934,77.35621
0.950867,73.82644
0.8504402,75.19956
0.8184667,76.607414
0.8551457,76.02376
0.8550721,75.11471
0.7401462,72.89713
0.73910034,75.09571
0.7610134,72.81272
0.7379937,72.91432
0.7897293,70.31884
0.6297047,71.31519
0.5828206,72.141
0.5038591,72.544014
0.47115222,70.905
0.4824376,74.1955
0.4062819,73.83409
0.5187068,76.43384
0.5017963,75.35093
0.46762878,76.707855
0.53303814,74.89856
0.6610264,74.23392
0.6827322,79.69176
0.7372805,76.3909
0.7846262,79.6569
0.89282256,84.159546
0.97583383,83.28743
0.9842679,81.395256
1.1478453,83.84044
1.292853,82.52259
1.4155791,85.084625
1.4261252,82.727165
1.516425,86.732086
1.65826,86.35014
1.633306,87.78618
1.6544274,84.51215
1.8352386,85.79989
1.7902145,86.99179
1.7827853,90.79222
1.7896051,91.38391
1.8621366,91.13012
1.8548882,90.91976
1.8133539,91.60625
1.7919663,91.93549
1.7376614,91.56489
1.8452475,95.89146
1.7293344,92.97927
1.7855341,94.553764
1.7094451,93.50081
1.7999268,94.12832
1.7840865,95.3774
1.623304,90.16116
1.6058182,90.92342
1.6272215,92.897896
1.608159,91.772804
1.598833,94.629265
1.4912074,90.91278
1.4088621,91.836945
1.3767217,87.64099
1.416444,89.40344
1.4148792,87.035805
1.3136871,85.289246
1.3205968,88.9126
1.340628,91.71636
1.2405765,83.97444
1.2322563,81.45389
1.2382175,85.95006
1.2383884,85.158745
1.1588585,82.37809
1.2818989,82.49297
1.1488562,81.41653
1.1033285,86.851166
1.0477829,81.13256
1.0291297,85.279625
1.0456316,82.97607
0.85421115,81.186905
0.8521857,79.14079
0.77872604,79.85766
0.8890104,80.66966
0.88756686,77.51236
0.69731766,82.8533
0.7079137,78.97485
0.69670653,74.39959
0.69994366,79.51765
0.5905032,73.817116
0.658639,74.64186
0.56511307,76.4156
0.69060427,74.91312
0.78417647,73.96
0.5098454,71.73632
0.5192481,74.007164
0.56001204,72.82799
0.6367176,75.09212
0.58667386,74.128174
0.4421296,71.02946
0.48784205,77.87027
0.41210836,70.92958
0.35164607,72.76078
0.27910483,70.481926
0.30235168,76.37434
0.37963715,72.546616
0.12088081,75.13782
0.26255217,75.47682
0.24528056,75.26885
0.19932897,72.72254
0.21804237,73.42686
0.23981899,73.40205
0.36615044,73.47944
0.41456497,76.669754
0.48434985,76.9218
0.43738708,75.58825
0.5876546,80.643456
0.70529705,80.35594
0.8598358,80.06619
0.8358028,81.331924
0.8809839,82.155815
1.0583827,85.27889
1.175604,86.083725
1.2510581,86.3774
1.1900322,84.681694
1.3694351,84.690765
1.4311396,88.93541
1.3556087,88.99753
1.3886086,89.09724
1.4608443,89.43591
1.5115596,91.25014
1.4638866,93.17663
1.5529072,91.124306
1.5087851,93.72307
1.4439801,91.020256
1.54167,94.40207
1.5454154,89.733
1.5159998,94.58089
1.4986215,94.857346
1.3415816,94.71983
1.4597063,91.62894
1.4568816,96.0231
1.3242553,90.5246
1.3631073,90.80776
1.3292158,91.12572
1.2583538,92.92844
1.2266474,92.62786
1.2283901,88.79573
1.1679618,95.03015
1.2084336,86.47224
1.1100179,89.28933
0.99913836,86.92436
1.1808201,85.36527
1.0186692,87.93986
0.99552566,85.85103
0.9617023,87.28168
1.1291176,86.60143
0.9778102,87.80968
1.0894221,86.87739
0.91748863,81.26743
0.8764656,86.080414
0.9594004,83.248634
0.856231,83.09097
0.8034863,79.93072
0.8155382,81.54646
0.7025418,82.153275
0.6163947,83.38614
0.58977705,83.57099
0.57601655,78.38615
0.51369745,78.10997
0.5198134,79.98597
0.4370429,80.138336
0.42414072,75.75559
0.45649448,74.69261
0.41946414,77.655174
0.45329523,72.12049
0.3764673,76.67918
0.5025597,76.78875
0.39404353,76.41703
0.3463595,74.664185
0.2290649,70.08596
0.35022166,77.71382
0.3205325,72.70134
0.30419293,73.97296
0.22294769,74.119354
0.2662814,72.21186
0.24942245,73.40502
0.1389435,75.02418
0.20044105,71.36551
0.09841987,68.180626
0.0719302,74.13216
-0.09037524,79.152054
-0.044862792,70.31488
0.02250525,72.14452
0.016108911,71.67227
0.03519507,73.9782
-0.087898664,72.269066
-0.0017623358,74.734726
0.15642376,77.29542
0.16883443,73.90452
0.23297048,77.40951
0.2301423,77.91079
0.32324874,80.154236
0.45543516,76.915596
0.53140265,79.55119
0.6890398,82.62864
0.74052763,81.70521
0.86759084,83.835655
0.98005474,84.14449
1.0324697,84.12023
1.0412549,86.65913
1.2523514,88.185036
1.2643328,87.97058
1.2122725,89.265495
1.2116352,87.98204
1.3007841,91.445305
1.2715116,90.92712
1.3562198,93.225746
1.4066484,89.559906
1.4343024,92.174934
1.3391061,93.176315
1.3934523,95.0138
1.4213294,93.22971
1.3606385,90.621735
1.2675592,94.288414
1.3509202,92.06264
1.2122089,93.18297
1.20495,89.696236
1.1954751,93.32995
1.2412107,91.36595
1.280747,90.0455
1.1375262,92.52471
1.1353152,90.91921
1.030567,93.5501
1.1436936,91.06551
1.0645307,92.29233
0.93612945,90.67002
1.0627055,84.804184
0.89117146,91.294426
0.8427447,85.59044
0.88461256,87.33895
1.0093971,87.899414
0.9506666,86.83583
0.9317273,89.34275
0.762444,88.473
0.9052863,84.613945
0.8867515,81.43412
0.78404737,82.504234
0.85316247,84.43201
0.68830293,82.57546
0.8569852,79.47059
0.7175001,81.708046
0.69039947,79.78562
0.7404772,81.25797
0.5692192,78.61699
0.55849016,80.666336
0.4925579,81.05319
0.51036984,78.91736
0.45730618,78.44613
0.4172741,79.711845
0.35993564,79.36299
0.33513257,74.71566
0.44241723,76.72306
0.3043329,72.63065
0.39226666,75.64265
0.3322986,73.86604
0.3022159,76.300674
0.37225407,74.31723
0.42907166,73.05367
0.42780504,74.51527
0.3001632,75.72116
0.26048756,74.865746
0.31026223,70.937515
0.1752681,72.54372
0.13991912,73.424355
0.17751913,72.4528
0.13730416,75.1973
0.046428274,70.779686
0.12110139,72.46878
-0.008536754,70.554146
-0.04917835,70.95742
0.08529171,76.2503
0.044799026,71.61817
0.103979535,74.33382
0.15284322,76.39345
0.2699014,74.77789
0.2833829,76.62455
0.42904946,77.20822
0.47227892,83.51546
0.490924,79.39644
0.608518,79.570145
0.675395,82.607925
0.830848,83.52558
0.95649034,82.6253
1.0002718,82.30233
1.1203995,85.50011
1.1672096,87.17044
1.1996356,86.70805
1.3044585,92.70666
1.3633251,89.635826
1.3483603,91.92404
1.3909608,90.23492
1.4397804,94.319664
1.4876661,92.046974
1.4676719,90.68117
1.5137072,91.658936
1.5720628,91.620605
1.5920249,94.1898
1.6098362,92.19922
1.5112033,95.96038
1.4472079,89.83831
1.4799925,92.467865
1.4490391,93.60114
1.5385461,92.96239
1.5027528,91.67725
1.4618092,92.64447
1.4198983,90.12321
1.3334599,94.73798
1.3601806,91.69481
1.3145696,92.1396
1.2632546,91.286446
1.2092775,89.96781
1.2451397,88.87104
1.2413515,87.66895
1.1555363,91.861725
1.1634068,88.18223
1.2478538,84.79971
1.1926562,85.61482
1.1467483,88.902435
1.192819,84.11086
1.0985007,88.394005
1.1327704,85.00512
1.0543875,85.24075
0.9486168,83.575615
1.0622402,82.96913
1.0298619,82.4481
1.1082155,79.39104
0.9430612,79.074936
0.8197993,81.007835
0.86872524,82.95599
0.834468,77.60504
0.75967395,77.647865
0.8281147,79.718994
0.7218365,85.1445
0.76442283,76.783615
0.6055853,78.45648
0.6442956,76.996185
0.6831784,73.45375
0.74659216,76.189865
0.5578229,78.28211
0.5673747,76.945595
0.6215795,73.18091
0.6189341,75.07797
0.5647708,77.93866
0.61856675,72.39114
0.60318685,74.15873
0.5324745,71.00451
0.6752557,75.110855
0.5946424,72.14244
0.49573246,74.22525
0.5156044,70.51076
0.42836857,72.25357
0.52161,74.61192
0.4176202,70.078415
0.35627207,71.3322
0.32980275,73.06677
0.3657241,70.729294
0.44627538,74.82272
0.31519154,73.660614
0.2623652,74.23029
0.40438178,77.26614
0.50255924,74.5744
0.5452558,80.382355
0.66328526,78.146805
0.70208097,75.680595
0.86675453,76.92922
0.93681914,80.560905
1.0114759,80.6553
1.0350875,80.591835
1.2277024,84.32893
1.2523409,83.416985
1.4356039,86.6845
1.5441312,82.89385
1.5741063,83.74946
1.6292968,90.54466
1.7145565,89.69897
1.6519294,87.92817
1.7661163,88.93018
1.7497678,90.51361
1.7738439,86.8429
1.8244708,89.89731
1.8867711,91.13465
1.8410378,92.165794
1.850224,92.82949
1.7689506,95.21729
1.8921338,92.21371
1.7993361,94.49196
1.8232647,91.28585
1.8505703,92.63831
1.7375396,95.38178
1.7049664,88.3597
1.7252516,94.830284
1.747098,91.49448
1.688932,91.69401
1.6964988,88.90938
1.5854855,90.93842
1.6111836,89.77587
1.4970747,93.83985
1.5333341,91.39237
1.437412,88.36531
1.590258,89.489815
1.4663241,87.86933
1.3337411,85.52554
1.4033586,90.68441
1.5593168,87.25283
1.4399214,89.21779
1.5211744,87.32689
1.4116446,85.61706
1.4110161,84.29474
1.4415684,83.42732
1.3355703,85.14469
1.2769601,82.43513
1.259954,81.13966
1.2429895,83.30316
1.2635797,76.47519
1.1302931,82.44992
1.0929129,79.66559
1.1834984,79.72916
1.085041,80.54728
0.9745642,76.6958
1.0367663,78.685005
0.8870288,79.95978
0.9884166,79.2807
0.88311505,76.532715
0.9838652,78.132
0.90775347,77.90059
0.8562815,71.37275
0.9149977,73.3957
0.8847219,72.076
0.8733371,72.57016
0.8766199,74.50437
0.86199373,74.3071
0.8674783,72.0923
0.82379043,74.44276
0.783479,73.039505
0.6749056,73.6506
0.75381505,70.95455
0.75324625,69.3692
0.7120785,70.4029
0.62913567,71.29271
0.55510944,73.83764
0.5668039,71.10543
0.6189282,74.08199
0.540347,73.59976
0.5860413,73.22953
0.5595257,73.55014
0.6897462,71.7314
0.7547195,76.69448
0.7632071,77.83539
0.8389112,78.52305
0.8819929,75.70538
1.0032996,81.551056
1.02561,80.98341
1.0812908,78.71471
1.2114047,81.874016
1.3830101,83.12833
1.4500905,84.584305
1.557919,83.56146
1.6174741,84.83071
1.6459494,85.18644
1.7869582,87.4485
1.7729104,90.388374
1.8322916,88.04553
1.9516883,90.41484
1.9813808,89.65858
1.8693427,92.0054
1.9717572,87.39475
1.9640572,92.97983
1.9676517,94.77115
1.9293795,93.28596
1.9715345,97.22256
1.9317919,97.32558
1.9196723,92.92584
1.900838,91.69081
1.8799189,91.37855
1.8947824,91.77321
1.8406538,91.285034
1.8196632,92.578865
1.7546225,92.21203
1.770306,91.71205
1.8262457,92.146
1.6204163,92.80184
1.6832341,92.55227
1.5002362,89.49604
1.6043444,88.65132
1.5932637,88.91865
1.5152191,89.285355
1.5341007,86.35054
1.4376475,87.33643
1.5616568,86.75385
1.4719583,85.71446
1.4214336,84.405266
1.4195001,85.33118
1.4688426,85.26715
1.4875879,81.65476
1.4757088,83.971375
1.3670893,84.14028
1.410899,81.816055
1.2800008,82.01273
1.312477,84.936104
1.2153385,83.71424
1.119975,79.84329
1.167765,78.207634
1.1122396,77.71821
1.0454335,77.236855
1.0260097,77.06499
0.9782003,80.48409
0.9538645,72.01614
0.87262934,77.39119
1.04868,77.33964
0.8525724,77.23901
0.9099603,75.603
0.90277076,76.44339
0.784849,76.41849
0.9077982,74.97822
0.83355385,74.82899
0.78066784,73.36906
0.7564463,77.06629
0.78313583,73.85871
0.7083339,73.05851
0.71777374,73.949745
0.6941867,70.26659
0.6901792,75.94101
0.65875196,73.7464
0.54954857,75.00082
0.4895715,69.797775
0.5420472,70.03569
0.49590555,72.4012
0.5067326,71.272415
0.4878366,71.86134
0.56887496,70.74301
0.3660168,76.973145
0.52624094,77.51742
0.5166614,76.091354
0.5990426,80.369576
0.70692235,78.21963
0.74716747,79.94989
0.8430883,77.626625
0.9035036,78.686455
1.0701519,78.58508
1.13592,82.00847
1.2284696,82.67181
1.2842848,83.02837
1.4147735,86.430336
1.465238,83.7008
1.595051,87.24163
1.5439321,85.496895
1.6111602,92.572205
1.6514,90.98378
1.6992995,88.12177
1.757819,92.212975
1.8098812,88.32667
1.7195138,94.40381
1.6932132,92.6917
1.8868861,92.9106
1.767473,93.42096
1.7242213,92.03957
1.810437,93.07903
1.7037354,91.32594
1.7292973,93.26049
1.7367705,91.57489
1.7314948,88.6166
1.6756634,91.20482
1.5449586,92.13778
1.63954,93.38855
1.634144,90.29006
1.477142,88.54552
1.4699796,91.07474
1.4262232,91.28844
1.3825332,88.60737
1.4651343,91.21051
1.3695534,90.332405
1.3074852,88.09119
1.3594242,88.3576
1.2589954,88.43368
1.2980713,91.76202
1.187747,89.671265
1.1845031,89.112915
1.2546862,87.02208
1.3064312,82.60149
1.0917242,86.0636
1.0913994,81.97902
1.0939387,83.17242
1.1052564,87.33765
1.1145712,81.68047
0.9667809,86.25024
0.9590153,82.66468
0.98000634,80.33912
0.83418846,77.5176
0.79342705,81.3655
0.78216857,82.384254
0.69494903,79.36321
0.7414995,75.798584
0.73262,75.15467
0.62205654,78.089905
0.6007918,72.69857
0.56904787,77.17391
0.5660437,77.24344
0.60228646,77.7945
0.6088103,74.648026
0.53768706,75.47695
0.6237122,74.5283
0.64629453,73.70874
0.5781895,76.07363
0.5596752,73.09691
0.545759,72.63271
0.48634824,71.54508
0.4428881,72.34943
0.43843937,71.64746
0.33090413,71.46172
0.3100429,69.49703
0.18420582,73.55774
0.1597055,68.20236
-0.0024617556,74.55625
0.2237118,70.05421
0.12302242,73.99207
0.12496587,73.30282
0.104125544,78.32616
0.19726786,74.56214
0.28237554,77.233536
0.3020802,80.30063
0.2994561,77.54554
0.39649197,78.63237
0.5101202,79.36289
0.57788455,76.41781
0.73001516,85.43572
0.84861696,82.519035
0.853721,81.24922
1.0521435,81.70009
0.97213906,87.93646
1.1383616,85.097755
1.2098612,86.517845
1.1982744,87.15951
1.4047241,90.97523
1.2785144,89.332855
1.348163,92.41904
1.385669,90.78117
1.3969489,90.278885
1.4803925,93.50623
1.5199472,92.19125
1.3930671,89.57334
1.5407288,94.78599
1.4819024,91.19072
1.3961834,89.88988
1.410941,96.75094
1.4139808,92.94147
1.3881533,93.21719
1.3693936,92.827545
1.2709303,93.246056
1.390039,93.10438
1.2407542,92.930336
1.3433609,91.129944
1.1789,89.80486
1.1756896,92.28132
1.1513687,93.95063
1.0631413,91.49626
1.1103104,89.80637
1.0172942,89.81584
0.98829275,91.232765
0.9006053,90.28853
0.9476697,89.86663
0.95886046,88.82433
1.0086515,86.80725
1.0195838,88.14141
0.8933805,86.830025
0.835621,84.68942
0.8868197,83.956184
0.82552236,83.92567
0.917991,86.29236
0.8501631,83.946945
0.85337716,82.55999
0.76114,85.75683
0.65161294,81.565834
0.6005989,79.801285
0.6815662,81.174446
0.60164446,81.212425
0.536826,79.14299
0.51216084,80.10729
0.39656416,78.87226
0.47643661,77.42814
0.34165207,77.81526
0.36726946,75.20788
0.41258508,74.78653
0.3499523,76.24481
0.31352967,75.59768
0.3157756,72.4085
0.4157177,75.21288
0.3830242,74.72952
0.34556454,72.994194
0.34992614,73.14304
0.36232758,76.29265
0.30048126,72.77674
0.20536448,72.88281
0.160896,76.060524
0.1747855,71.93969
0.09740767,73.445145
0.06972736,72.159615
-0.026234508,74.17289
-0.027312422,72.20116
0.04718289,72.93814
-0.061689932,70.18755
-0.05991812,71.92678
-0.003984076,75.73716
-0.027372086,73.539986
0.0019174473,75.638054
0.0593512,72.61063
0.092130914,77.02592
0.23949759,78.652985
0.2003992,80.71574
0.35785887,81.83478
0.4346531,78.764595
0.5557871,78.10524
0.69322157,81.00485
0.6486862,82.766235
0.8754614,87.017586
0.9228891,84.563866
1.0098655,86.61971
1.0367593,87.07651
1.1015906,88.36338
1.1761601,86.518555
1.2167786,85.00516
1.3128116,90.204956
1.2268355,89.92718
1.3269455,91.65999
1.3505062,91.53655
1.4058043,90.19557
1.3451793,90.33828
1.2655966,94.08393
1.4142544,93.52577
1.3242689,87.961716
1.3269508,96.932045
1.2886834,92.7638
1.2522674,91.512856
1.2853534,92.977974
1.2555491,95.25711
1.1856397,91.5277
1.12756,89.50104
1.2010559,88.4355
1.1202737,92.80449
1.1417382,93.4068
1.0967327,90.881805
1.0415028,91.8238
1.0736371,89.43346
1.0824715,90.56998
1.0006248,89.79491
0.9962706,89.56853
0.9381823,86.668236
1.0710976,89.03798
0.89382344,88.59623
0.9094524,84.22441
0.89882165,82.389885
1.0010657,83.240585
0.9056062,87.854355
0.9055009,86.611115
0.7801295,81.55181
0.80921614,81.558365
0.8061135,83.89745
0.70127004,82.7841
0.61453754,82.95247
0.6958328,81.718185
0.69931084,79.68471
0.6243808,82.239075
0.5900017,76.03389
0.505313,77.867584
0.5770649,78.11096
0.5166397,78.18656
0.42479783,77.505585
0.46828616,78.5589
0.4545718,78.32394
0.46210173,75.49983
0.4248617,73.413155
0.5180217,75.450516
0.52949315,73.35017
0.3278857,77.265175
0.48885876,73.61686
0.38759044,76.52207
0.38819236,74.38893
0.3252798,71.600685
0.40511703,73.27925
0.33677822,72.503685
0.22211073,74.564476
0.22422056,69.985794
0.24186192,72.57491
0.21578027,71.04997
0.18932688,70.3605
0.11607396,68.4285
0.16670845,75.613144
0.020362854,70.36452
0.09068338,74.16945
0.08073146,73.82655
0.16926087,74.42391
0.23400198,72.953125
0.18526465,74.841255
0.38338372,76.457664
0.374305,78.68234
0.4875147,78.260315
0.5116723,79.18304
0.70577586,76.21441
0.73963225,80.809784
0.9068175,84.32196
1.0543454,81.01155
1.0263902,85.66978
1.1202348,89.1251
1.2598274,86.87503
1.2915398,89.724205
1.4413944,84.483284
1.3931012,88.57518
1.4719658,89.42839
1.6010842,87.7264
1.5549599,91.19267
1.6587089,93.3485
1.5998516,89.44618
1.7411838,92.678665
1.5688524,92.399284
1.617236,92.44358
1.577415,92.733246
1.5707179,93.19106
1.5507649,91.253334
1.5385898,93.764046
1.5457792,94.626656
1.526233,94.96209
1.580439,93.831085
1.413341,92.552986
1.3810505,88.48135
1.3952135,93.75687
1.36524,85.6631
1.4000435,90.52788
1.4004344,89.89572
1.1857324,86.89241
1.2360296,89.37786
1.3794929,88.45005
1.2652938,87.79319
1.2429922,87.28008
1.2719835,87.36775
1.1087928,86.06861
1.1962061,86.266495
1.2592418,85.52759
1.2275697,87.67685
1.1289989,84.92706
1.1445472,84.955025
1.1320962,84.99073
1.090512,84.28554
1.244582,83.24957
1.1023952,83.14194
1.1631474,84.580284
1.0362886,83.25254
0.93936056,79.11506
0.9931528,78.81995
0.84323937,83.08013
0.799767,80.10906
0.8225128,82.13049
0.8001335,80.9617
0.7577184,74.33523
0.73418736,76.535286
0.8240402,74.19004
0.7126942,79.218216
0.7247148,74.8346
0.7487718,74.38291
0.7017471,73.69567
0.7738148,73.501274
0.72570515,73.10223
0.7040562,75.60146
0.7249367,75.32061
0.64450055,73.01633
0.67662376,74.09917
0.7097146,74.162865
0.50463885,68.48905
0.632182,71.47779
0.4747704,69.67231
0.48961973,70.93926
0.45393917,73.41718
0.4862598,73.5024
0.40367872,74.49898
0.43980524,70.77189
0.36826003,70.25138
0.33542845,70.228516
0.5117129,73.16639
0.43202797,75.96652
0.5968151,72.71092
0.53602976,74.36945
0.5850309,76.50294
0.74602056,75.11181
0.89012724,82.571594
0.9770513,82.61049
1.0854131,77.98554
1.225326,81.13608
1.2037594,82.382385
1.347261,83.535545
1.5240834,86.25089
1.3961631,84.74489
1.6665069,83.764626
1.71556,89.665886
1.765965,90.121605
1.7961001,88.51108
1.7744164,88.94799
1.8417695,91.83131
1.8987819,90.74108
1.8978146,91.908714
1.8744549,90.20006
1.9661155,93.03928
1.8224682,93.85388
1.846314,90.92404
1.933447,91.35704
1.8351797,94.917175
1.9084157,92.405716
1.8622291,94.84097
1.8368565,89.4784
1.8277857,92.92899
1.7963756,91.96077
1.6451772,89.69989
1.7129937,89.259
1.7103635,95.53324
1.6832396,91.64073
1.5619166,93.532745
1.6080891,87.16027
1.5093535,90.52606
1.4897336,89.57275
1.483226,90.35557
1.5535007,86.260765
1.4492003,89.39603
1.430846,87.575165
1.5846113,85.892944
1.471483,86.123085
1.5227157,89.34386
1.4391658,82.74693
1.4340087,83.1191
1.4982294,83.57205
1.3850466,86.353195
1.3598037,82.92852
1.2990346,84.254234
1.2876824,82.34662
1.1834829,81.4594
1.2429152,81.64061
1.1101432,80.89998
1.0549684,79.26647
1.030148,79.596344
1.0098306,80.206085
1.0579779,76.2012
0.898054,81.09718
0.9305186,78.31623
0.99369884,78.62493
0.95403033,74.90405
0.89793813,76.99212
0.8610137,74.745575
0.8827881,77.33562
0.94552106,74.093735
0.9818452,74.20765
0.7932719,75.44335
0.89574915,71.09425
0.90677375,71.53188
0.865076,73.37075
0.81245583,70.43011
0.8708194,76.69967
0.73042977,73.34494
0.6883606,70.10841
0.6643814,73.81339
0.63913083,73.63491
0.56036925,70.02234
0.60318154,73.978645
0.5432654,73.89352
0.6499156,72.443886
0.6309838,73.10591
0.5368165,71.15872
0.5912721,77.12947
0.82022655,77.12965
0.71506304,78.84742
0.70656836,76.74534
0.9585373,73.83171
0.93887985,76.94349
1.0775735,84.12127
1.1721158,82.10186
1.1339227,83.771194
1.3924403,80.43382
1.4415082,84.27593
1.4390969,84.70439
1.59954,87.37919
1.7676624,88.022545
1.6505209,87.802605
1.7888652,89.63118
1.7513514,90.61257
1.8163059,90.22183
1.8129686,90.24432
1.9451597,88.72209
1.8445497,92.83451
1.9074223,88.84207
1.9757607,92.78403
1.8558248,97.27249
1.8970336,93.429825
1.9740187,93.09582
1.9235454,93.39833
1.8719494,90.36641
1.8801261,92.97807
1.9078202,91.69804
1.8833128,93.02853
1.8025279,92.36258
1.8913776,94.2133
1.819761,91.26332
1.6410515,93.83208
1.677534,94.281425
1.6400567,90.62644
1.6420106,91.08881
1.5807548,87.3685
1.5912225,92.23682
1.5456017,86.190865
1.5178565,92.694046
1.5126994,86.04982
1.4912531,87.88938
1.4344649,83.400856
1.4022198,84.82345
1.4431907,84.224144
1.4301804,87.82751
1.4928881,83.77831
1.4278239,86.687706
1.3959857,83.70205
1.3489164,86.08696
1.3535373,82.46694
1.1756755,83.91711
1.242141,82.77016
1.124431,79.0269
1.0778103,77.93341
1.0388209,80.1149
0.94068074,80.98462
0.90505695,77.42446
0.8660981,77.58641
0.9303034,79.17791
0.82072306,80.08699
0.8487278,78.38833
0.8559662,72.518005
0.7838351,77.53388
0.78818434,75.28321
0.7712451,74.3629
0.7729549,74.978455
0.8131721,72.82229
0.74949,73.86553
0.770938,73.81683
0.756508,71.698715
0.62943715,74.29982
0.76958305,71.93461
0.7042305,69.95965
0.5571576,73.14481
0.6143482,71.46649
0.5721383,73.61377
0.49995932,73.30583
0.406434,71.50856
0.4403616,74.50095
0.3236161,73.27659
0.43848437,72.18771
0.4115034,72.337425
0.37979516,79.408356
0.51319706,72.68823
0.5196049,74.49698
0.49509212,77.11641
0.5247039,76.107735
0.6137559,78.536606
0.7063726,77.25567
0.78808457,77.65282
0.94432163,76.68449
1.0625387,82.172966
1.0437922,84.46735
1.2416784,83.42635
1.1519569,86.58423
1.4379317,85.21782
1.4790742,89.0273
1.5305502,85.537674
1.5886469,89.783424
1.6207603,91.4826
1.6094693,92.738106
1.6893084,88.837074
1.7203543,88.37228
1.6301602,88.296585
1.7438803,91.56837
1.6315229,91.78571
1.7113729,94.52907
1.8085687,96.764275
1.7022445,94.62047
1.7337584,90.37639
1.7033294,93.63382
1.6703439,92.07198
1.5691866,94.33521
1.5416397,92.80495
1.5071628,93.178604
1.3810706,91.84358
1.4515896,93.43059
1.4105829,90.31663
1.4040283,89.89244
1.4141588,88.80489
1.3866825,87.791756
1.3566169,87.089165
1.290328,86.99973
1.3142574,91.35753
1.3312639,89.13802
1.1824027,85.64486
1.1375517,89.15496
1.1113436,88.89369
1.2218112,89.4576
1.1624901,86.32836
1.1087444,86.68528
1.1211448,84.02921
1.0931408,88.36224
1.1184815,87.89205
1.0413855,84.92995
1.0257608,82.32364
1.0034499,79.24304
0.8899325,83.11852
0.83112925,80.233246
0.8117416,78.451935
0.8025733,77.4827
0.63130003,77.628876
0.7510926,78.72801
0.63398486,79.79212
0.632657,75.62827
0.66748077,80.240654
0.57127815,76.50874
0.5608849,74.38242
0.53250587,81.41651
0.6378193,77.9631
0.51742345,75.904106
0.4615507,72.20147
0.47775126,76.31829
0.4944312,75.77052
0.46888986,74.31222
0.399961,69.31969
0.44577056,73.29779
0.27562192,74.48422
0.4525448,74.25233
0.29199278,73.25292
0.2864172,75.43574
0.14280729,70.92981
0.19660836,74.1703
0.16276337,70.9055
0.13506183,76.362206
0.078191176,69.12609
0.10732155,75.32623
0.039182648,71.841125
0.018439483,75.13198
0.10059379,72.42815
0.12983769,79.05778
0.2161792,77.077675
0.28626335,78.01393
0.25068638,78.07018
0.4961944,77.8921
0.54760313,81.785515
0.5306179,80.53309
0.7606798,79.692215
0.8227576,86.31837
0.8875354,81.11031
1.0756674,86.57306
1.051093,84.24772
1.1603161,85.88917
1.2300862,86.32717
1.3039933,86.77249
1.2864637,85.08714
1.3363192,89.89746
1.3881135,88.986176
1.3047398,89.38959
1.4413897,91.126396
1.4928222,91.52496
1.423518,91.020546
1.3953898,89.8605
1.3900315,91.1152
1.362201,95.29918
1.409952,94.55688
1.4091718,94.61119
1.4201325,93.79996
1.3471214,88.92401
1.2321514,89.317184
1.3663939,91.98662
1.2564044,96.82415
1.1358207,95.71633
1.1054271,88.43556
1.2076733,93.34976
1.0644219,88.31876
1.133482,86.92534
1.070481,87.15537
1.014976,89.25694
0.96499825,89.41956
0.98150146,86.515785
0.97163236,87.44361
0.8998321,90.67868
0.9615984,89.7303
0.8729021,87.00732
0.9036894,84.20929
0.8657585,85.68708
0.7953149,84.503105
0.82429975,84.97806
0.80620086,82.02802
0.78616667,83.50409
0.85345596,85.31351
0.7566433,82.51951
0.73425794,79.77991
0.6820715,80.85438
0.5757083,79.42741
0.5103137,78.51015
0.52325755,78.737305
0.5148013,79.20617
0.47428152,80.699844
0.46667385,78.885185
0.41573858,78.02247
0.4261503,77.50412
0.36156374,79.21108
0.28753662,71.05172
0.29567754,76.67723
0.28626457,74.41585
0.37741253,75.65302
0.3451828,74.33652
0.33872446,75.964516
0.37836385,72.43548
0.2806709,74.62197
0.22866222,74.94794
0.24183534,70.7784
0.14629973,73.94511
0.3096264,71.1287
0.08215323,73.06596
0.106525026,71.73018
0.14043671,69.0594
0.07733268,71.61776
-0.083713,69.99485
0.03519196,71.49002
-0.13331893,72.381966
-0.106458426,74.03493
-0.025826927,73.28234
0.01487531,78.44034
0.03329141,71.973434
-0.04391373,78.92667
0.17625415,75.13438
0.24341474,76.219826
0.30530956,74.01384
0.39318204,81.468506
0.48610657,80.36563
0.59448165,79.790016
0.68540597,79.62609
0.80261624,84.59694
0.9235661,84.34744
1.0224348,84.4494
1.0320765,83.46533
0.96269256,85.89331
1.2135701,87.01487
1.2466828,90.17391
1.1694056,90.954445
1.310323,87.56833
1.3324786,88.20123
1.3612067,88.60797
1.3649672,91.742355
1.4360766,91.21801
1.3690718,92.563126
1.3152443,94.41431
1.3700942,92.9293
1.3961197,93.64131
1.3692745,93.72939
1.4151902,94.11987
1.3195566,96.53553
1.341928,92.71251
1.3749564,96.01299
1.2576524,91.51337
1.219783,89.7706
1.1348883,88.839195
1.2576866,93.85534
1.1082764,94.01327
1.1101915,90.55409
1.1773428,87.28223
1.012684,89.03651
0.9765532,89.05484
1.064949,89.59267
0.9732001,90.66837
1.0856453,88.17475
0.9596408,85.41662
1.028658,85.08877
1.0827628,85.16044
0.92159134,87.28527
0.9098218,86.43785
0.9084406,85.09177
0.86962056,81.88579
0.9195645,82.662254
0.85097915,84.61809
0.7223898,85.8987
0.8185969,85.36713
0.8086336,80.16279
0.7228183,84.80714
0.6312049,81.65254
0.63455564,82.23827
0.59607834,79.25839
0.6661494,82.73689
0.51730263,77.15056
0.4249321,76.13781
0.5322398,76.1129
0.46509594,74.659615
0.42137316,75.56241
0.4214312,77.61656
0.53164953,75.75275
0.4726372,76.46275
0.4499746,73.90689
0.511255,73.54495
0.4324587,74.00029
0.5194136,74.13766
0.4779596,73.70174
0.46354377,74.2411
0.33281526,72.87321
0.42437118,70.90191
0.33604255,74.77826
0.21489987,71.51449
0.15814944,72.321815
0.2852355,70.32901
0.14411719,72.40563
0.15531383,70.589836
0.18786806,75.3192
0.16910568,73.25305
0.15079659,73.285126
0.2103265,74.932274
0.092035554,78.77231
0.31873903,80.429634
0.4100025,75.75168
0.41089964,78.073135
0.5775284,78.66238
0.5683857,76.41852
0.77673507,80.633766
0.8091428,77.90723
0.94518,81.51657
0.9662799,84.82681
1.0792475,84.438805
1.1165564,85.73482
1.2490739,87.146355
1.3258878,87.17738
1.4081144,85.611534
1.4407152,87.00925
1.510592,91.101135
1.5812246,91.12606
1.5265915,89.228264
1.6536556,88.22575
1.6332561,91.271095
1.643954,89.74901
1.6153584,94.4717
1.6884749,93.67951
1.5700529,92.92758
1.6791817,97.06947
1.6302317,92.99709
1.622434,91.36161
1.5028386,95.585915
1.5898788,94.66319
1.5738727,95.19567
1.6245648,92.13939
1.4681691,93.971634
1.5134891,90.422295
1.5545472,93.85841
1.4920108,90.37459
1.4634556,87.30652
1.4556177,89.36628
1.2665403,90.42737
1.3214067,89.8937
1.2427768,90.85727
1.3248751,87.47047
1.2728273,87.16564
1.2833352,88.96531
1.2603017,83.63116
1.3231729,85.27904
1.3088465,86.52652
1.3011228,82.12111
1.3149165,88.64194
1.2877322,80.89751
1.259675,84.76577
1.20114,83.25248
1.0767376,81.17047
1.0957636,79.2471
1.0427754,83.60249
1.027314,81.38771
1.0099174,82.806946
0.89466244,78.799446
0.87213814,78.915565
0.80182064,76.29162
0.85046476,79.154816
0.80810696,76.342026
0.77834564,77.93058
0.85000306,78.751495
0.80417573,82.74306
0.77028185,72.03711
0.75757265,70.95225
0.77120936,73.43981
0.7301618,76.481415
0.8013722,73.976616
0.7368931,73.60074
0.7842206,73.21797
0.7748533,75.661224
0.6781722,73.863716
0.7489209,72.64545
0.6200439,74.23807
0.6278606,69.83457
0.48927015,71.002266
0.6241456,73.90242
0.4564963,74.679955
0.55472684,73.58161
0.56872344,75.378746
0.31235316,71.409904
0.37968633,75.20478
0.47672993,77.21713
0.56932765,73.90428
0.4453782,76.897896
0.56435734,76.47307
0.6536819,76.45306
0.6930701,74.613434
0.76140136,81.04898
0.9000151,82.048676
0.9538105,79.52082
1.0256836,83.72894
1.0829902,79.57551
1.2494099,81.31442
1.392451,80.54533
1.547148,84.00272
1.4949006,86.18423
1.6889932,86.54047
1.6945379,86.61766
1.71846,90.541626
1.7987145,90.74798
1.8955818,91.21155
1.8934616,91.67161
1.940736,88.47574
1.8757957,91.458984
1.8753369,97.52234
1.8866726,96.35011
1.8825886,92.496574
1.9656707,96.277626
1.8088931,93.26219
1.9789892,89.63655
1.9975882,92.08062
1.8073337,95.09359
1.8838303,94.410515
1.8477613,89.99294
1.8168544,95.434685
1.7958657,97.12133
1.65983,92.635345
1.8267742,90.442894
1.7247845,92.664536
1.6444881,92.69104
1.7006884,93.56668
1.755057,86.46046
1.5793023,91.399734
1.5595222,85.4858
1.4700953,86.0008
1.6111819,88.58626
1.6157873,90.911575
1.4738373,84.42221
1.5620606,88.37881
1.4701777,85.09295
1.4424717,84.3866
1.432124,84.95315
1.3923405,84.53905
1.3487506,81.804115
1.394506,83.297226
1.2876003,84.164314
1.2907685,80.31176
1.393086,83.49217
1.2395104,81.5055
1.1151532,81.03631
1.1132413,82.134605
0.9839658,77.99543
1.044985,79.36454
1.0609254,78.93563
0.9755802,76.89508
1.0779456,76.070595
0.83478004,79.55791
0.862439,76.16744
1.0074863,79.02514
0.89534456,73.43893
0.8828291,75.10967
0.9939434,73.98438
0.95887625,71.57583
0.8636823,73.78546
0.9432249,76.11929
0.74674654,73.50372
0.8065256,75.14989
0.8451333,71.23554
0.80136704,74.63129
0.70424837,73.92369
0.70020944,74.650764
0.74590945,69.73106
0.6665867,73.140274
0.53359276,70.04005
0.6201692,74.43127
0.5336697,74.210556
0.46683356,76.666405
0.5181844,76.46056
0.5298423,76.61463
0.63316005,74.94405
0.48408735,75.49152
0.77504003,77.16235
0.794772,75.366356
0.84569454,74.308205
0.9945309,78.28262
0.98149,81.823875
1.1231897,81.33452
1.1534244,80.829346
1.3586435,88.42897
1.4043427,88.6039
1.520678,84.43528
1.6071786,82.94013
1.6642894,88.27106
1.6008593,87.30993
1.7634673,90.235504
1.8163571,87.8054
1.8129092,93.286896
1.8834757,91.60166
1.876872,88.577194
2.043363,90.773056
1.903701,90.05816
1.9621406,92.61738
1.8797666,90.30574
1.8593993,92.26301
1.955412,91.624794
1.9591318,92.44811
1.8729132,94.62252
1.8945361,93.424484
1.8154839,91.750786
1.83365,94.0408
1.8073975,91.40562
1.6647788,91.254166
1.726745,93.980865
1.641022,91.27486
1.591617,93.23654
1.5931693,90.039085
1.5116453,88.600235
1.6030905,90.57761
1.6074996,91.30707
1.6052691,85.60391
1.4880055,89.56746
1.4740821,87.81871
1.4261204,86.074745
1.3849249,82.009705
1.3828051,86.8405
1.4431329,84.10827
1.4228166,88.84048
1.2882756,86.14477
1.3016951,86.37649
1.2966676,82.78705
1.2752333,85.02187
1.2876709,84.99933
1.2498027,79.9866
1.1217849,81.67426
1.1582935,83.6045
1.0810152,84.897644
1.0134336,76.79159
0.96685755,79.465385
0.9887859,80.38149
0.9219845,80.20578
0.82868797,77.544075
0.8490327,80.01464
0.7627222,77.55061
0.69130915,76.12287
0.7682092,76.794655
0.7672272,75.28036
0.71709794,77.06173
0.7073449,73.11737
0.74613404,74.47412
0.6728436,73.5681
0.75253236,68.1741
0.7030258,73.854744
0.7417889,72.18905
0.6816678,75.78426
0.6748828,67.537315
0.57020056,71.712975
0.46628135,74.107376
0.5338313,72.21644
0.39156055,70.84376
0.33674625,72.56833
0.4180472,74.41381
0.35927784,73.39549
0.34605926,75.729805
0.32209483,73.66901
0.37535286,75.43182
0.28027877,72.75843
0.40544933,73.16014
0.51890075,73.91015
0.6332873,78.188545
0.5574363,75.758575
0.60538733,83.073265
0.775068,81.06055
0.8620351,79.11393
0.97630155,84.31098
1.1017815,82.27707
1.0913024,82.7957
1.2119111,87.28304
1.3056204,86.976875
1.3719573,86.133995
1.4409777,84.83465
1.3850623,86.79237
1.5867952,87.27147
1.5135281,86.8841
1.6410695,89.19641
1.5971819,92.53356
1.6248274,93.35664
1.6496662,91.48364
1.6284721,89.62961
1.6289018,91.40445
1.5927192,92.469154
1.5723503,94.955635
1.5613424,96.448204
1.5960444,93.95603
1.5767342,93.42094
1.5799338,91.73018
1.5321275,92.755646
1.4814112,89.15521
1.4479625,92.68933
1.513133,94.65658
1.3671424,92.84258
1.3696961,90.01241
1.3432357,90.704414
1.3394113,90.6944
1.305766,88.84573
1.2477531,84.900604
1.2133365,89.004974
1.1849158,88.66448
1.0489117,86.276115
1.1701313,87.513084
1.073,84.91057
1.1393471,87.91544
0.9982681,84.98628
1.0266863,82.57764
1.0546238,85.275024
1.0578021,82.64895
0.9964372,84.48494
0.99820834,80.460335
1.0329845,79.864204
0.89632696,80.22653
0.87930804,83.18244
0.8366298,84.66067
0.7503408,78.481445
0.71348417,80.28947
0.7851582,82.94327
0.59227777,77.216095
0.5158165,76.29342
0.5432984,79.21814
0.57875806,78.27038
0.40934283,77.59647
0.5297135,76.34902
0.48338804,75.7802
0.3510132,76.53116
0.48100594,73.21595
0.42615488,74.46292
0.42147112,75.29951
0.41341427,76.29313
0.41194493,73.340706
0.3505381,72.961296
0.45815632,72.84091
0.38711134,73.35193
0.3954119,70.57033
0.23014557,71.40471
0.26465896,72.18629
0.21265696,73.59851
0.09977928,73.84773
0.009029095,69.80786
0.12919056,69.64753
0.03980454,68.91695
0.02092891,75.27572
0.017411154,68.74719
-0.017341731,76.06368
0.1066399,74.97993
0.12767024,75.22532
0.22368178,77.77106
0.20494935,77.97994
0.2032032,76.812485
0.4182415,80.792336
0.44141954,80.23098
0.5604589,79.25667
0.63932365,79.2709
0.8002676,81.82503
0.8570923,83.51101
0.9263683,80.03916
1.1021935,82.00872
1.0669284,83.41249
1.1270152,85.36949
1.1640918,88.12038
1.245771,92.3448
1.2963852,92.51336
1.2792794,90.42022
1.3850468,94.446945
1.443592,92.26897
1.3504099,92.941864
1.3540529,90.29367
1.3319217,93.99411
1.3890173,91.45319
1.4529641,90.63062
1.4192957,91.654564
1.3901339,89.21843
1.4272804,95.79076
1.2710482,92.778755
1.3881539,93.72263
1.2472178,95.01451
1.2836176,95.03579
1.0969176,89.10641
1.099452,95.25382
1.1683345,90.92558
1.1078562,91.7449
1.0275202,91.59809
1.0360802,89.812096
1.0002202,90.713295
0.98354113,90.03894
0.9568893,88.5993
0.9714572,85.9949
0.94779736,90.399895
0.93221736,85.66305
0.94221956,90.39966
0.8240877,88.34692
0.887426,84.58399
0.8968558,83.50747
0.8479927,81.74018
0.8741799,83.716484
0.82025915,83.55135
0.8629684,86.10757
0.6682506,82.598595
0.6815421,80.99611
0.7582661,77.865456
0.57458556,80.57921
0.59638965,82.98638
0.5539012,79.34712
0.5923733,78.77318
0.4823192,76.47402
0.458911,78.564095
0.44977403,78.55135
0.37122005,77.350494
0.2814365,77.63062
0.26128778,77.96953
0.40088594,74.7858
0.27915162,74.88186
0.3639572,74.42788
0.34734595,75.01756
0.3416656,70.28784
0.17014271,72.85403
0.2990115,69.98567
0.24226516,70.48907
0.2708861,72.558754
0.23399083,70.310394
0.19480935,69.918365
0.14657834,74.054245
0.053785723,72.61218
0.0018274637,73.854935
-0.02488082,76.006966
0.039123382,68.996254
0.019901138,73.03913
-0.040562768,73.15672
-0.0055389055,72.4691
-0.09016333,73.22224
0.013035333,77.20855
-0.071305,70.517815
0.00887317,75.30106
0.11578364,78.087074
0.29979473,76.592865
0.3063604,80.473495
0.42972797,80.43905
0.518754,80.098976
0.59512424,82.53454
0.70291746,82.91552
0.7526701,83.2372
0.92448384,84.877335
0.9834969,86.161705
1.1165365,88.64967
1.0852932,87.87371
1.2314398,86.30384
1.2889069,85.143814
1.28029,89.10364
1.3779583,89.39471
1.4811503,89.45619
1.3182161,92.31391
1.5150055,95.15843
1.4377071,92.14694
1.3569523,93.04944
1.4022197,90.4162
1.549972,94.423035
1.3561406,92.76717
1.4545844,92.932526
1.321333,90.779564
1.357759,91.51876
1.333009,94.09219
1.3051745,94.3227
1.2311311,93.33153
1.3363259,91.01902
1.2447176,91.04426
1.2618874,92.44354
1.1233842,87.64984
1.109778,92.189705
1.1656692,90.63503
1.165334,90.529686
1.0867136,89.23504
1.0912672,85.0983
1.0352987,86.47076
1.107657,88.82476
1.0764357,85.68963
1.1046231,86.53836
0.9585626,88.662865
0.94188404,87.182205
1.0256938,84.12331
1.1018151,84.069496
0.9369306,84.239655
0.9643886,85.1596
0.85709083,82.7796
0.9186737,81.01379
0.88190687,83.769844
0.7567505,82.442375
0.7505846,82.002396
0.71516335,80.838806
0.6593943,82.883446
0.6789253,81.27334
0.65406454,79.19343
0.5407437,75.31643
0.63158125,77.95529
0.6012726,77.11725
0.58197933,77.31404
0.4058956,74.4087
0.5010711,70.30529
0.52457196,74.99718
0.5160907,74.72676
0.54120207,71.19463
0.508806,70.1317
0.49763227,71.737854
0.5517225,75.2397
0.57039136,72.88083
0.51824784,72.900154
0.5136154,72.425804
0.42415243,75.40926
0.518708,74.579384
0.34194538,70.65161
0.26210642,71.19479
0.33232743,72.510315
0.26422468,72.85888
0.27861494,70.72428
0.1685955,76.494865
0.15485819,74.17543
0.13982485,74.08282
0.23708978,70.47201
0.28868967,75.41036
0.28504807,73.81161
0.40966848,76.38306
0.47047535,76.712166
0.5243352,76.13764
0.5669435,79.552
0.7278213,82.05694
0.94306254,78.06332
1.0180721,84.048386
1.0036557,84.446655
1.1761478,81.81332
1.2402434,82.62755
1.3708982,89.10366
1.3731483,89.14411
1.4371634,89.905716
1.5092016,87.978065
1.6987894,88.38633
1.5868,91.36031
1.5872173,93.542915
1.6593494,92.39743
1.672751,94.16597
1.6859145,93.07048
1.8162754,92.83886
1.7548236,92.80462
1.686049,92.77437
1.7534505,89.67316
1.7192717,93.798195
1.6694192,94.39983
1.7882284,90.762856
1.6511142,90.869995
1.6359774,92.641624
1.6563603,95.18831
1.5975798,90.949936
1.4938947,92.98745
1.5741405,93.19831
1.5572393,86.932594
1.3905954,89.37593
1.4168041,87.87998
1.3577893,90.07718
1.3896731,88.16567
1.401665,86.6356
1.4385045,90.09784
1.3477541,84.42382
1.317834,86.491905
1.2749374,86.58393
1.2752298,87.33365
1.28642,83.49629
1.2759615,87.38941
1.250051,84.28223
1.3168322,84.02847
1.1947616,82.19962
1.253959,85.12022
1.1020204,83.29112
1.1786683,87.075516
1.1695702,81.80081
1.1289004,84.06864
1.0479939,83.00991
1.0500524,80.14339
0.8714472,80.4745
1.1108544,77.53048
0.98630863,80.72573
0.88526314,79.87099
0.91877717,78.323074
0.82673705,76.33448
0.8050887,77.42125
0.8503035,76.896576
0.8358126,76.62263
0.8132241,74.179245
0.84611773,74.30589
0.78541857,71.30459
0.749779,76.43671
0.8704588,74.00139
0.8058218,68.49171
0.74724823,71.81401
0.8595639,73.134186
0.70059454,73.88549
0.72653663,70.20191
0.7692449,68.558304
0.5371993,71.73363
0.43538684,74.07466
0.6371994,72.49923
0.5154007,71.59598
0.48530415,72.49056
0.4117972,75.18098
0.44989252,73.98699
0.4672685,74.57222
0.6158377,74.34854
0.5502116,75.759026
0.6621078,80.44291
0.6680662,76.643326
0.76582444,77.73758
0.902854,80.509766
0.9733322,79.69055
1.0987481,81.76976
1.1541915,77.954384
1.2786194,82.074356
1.3307697,85.961006
1.4414732,85.44053
1.5140661,84.58797
1.6974356,85.123955
1.6503661,86.14664
1.7695706,87.892235
1.7059095,91.38762
1.8123058,89.58695
1.8340682,93.57233
1.8546909,89.50394
1.9685779,88.2578
1.9066128,91.09849
1.9017116,91.67966
1.9217031,95.38366
1.9372455,94.28173
1.8768597,92.3959
1.9251881,92.06547
2.052665,93.805565
1.9675326,89.81385
1.8789241,94.01064
1.8580208,93.43366
1.7992308,94.29622
1.8200463,89.84672
1.8204259,90.796455
1.7596446,89.94594
1.7807986,90.89175
1.6950804,88.80443
1.6650778,91.69575
1.6601877,93.57856
1.5435166,89.3169
1.6023866,88.800354
1.6295863,88.565834
1.5016394,84.36524
1.4311448,88.94678
1.4727037,87.0297
1.439138,83.220215
1.4437338,87.12365
1.479507,81.56257
1.4540057,82.26401
1.4376711,86.925415
1.4066916,83.6064
1.4415406,79.40902
1.3329979,82.798
1.2964283,85.78162
1.1918705,79.7379
1.3014897,81.36567
1.222886,75.17518
1.191798,78.96672
1.1541086,80.87966
1.0354481,78.769
1.1258197,77.85045
1.0750824,74.776764
0.9566599,79.520134
0.9814902,78.23778
1.0344609,76.6901
0.8765754,76.777145
0.927905,76.89153
0.9107111,75.49688
0.94196445,73.092606
0.828337,75.48234
0.9505421,72.65768
1.011746,74.22399
0.93653435,73.66406
0.83182585,76.25077
0.9021675,75.32975
0.73501825,75.95056
0.8163271,75.54592
0.74374175,70.75777
0.5209362,72.12362
0.5991141,72.26017
0.5814081,72.28934
0.62072027,73.73294
0.4503714,72.9004
0.47523743,72.79426
0.52750343,73.962234
0.45710576,76.74415
0.5543884,74.67519
0.62128645,74.090454
0.6926663,72.65955
0.76911604,76.28188
0.69423753,79.35388
0.90002275,76.59122
0.97040355,82.33529
1.0247908,79.24535
1.124039,81.31092
1.2756671,85.5162
1.3011932,85.93167
1.4475179,82.38143
1.5203315,84.8726
1.5615453,81.71844
1.682684,90.32151
1.7515596,90.44235
1.6794611,88.009315
1.6707983,90.85426
1.8398271,92.34551
1.9077789,89.39711
1.7719241,90.28289
1.789389,93.86267
1.8824522,92.68498
1.9286207,92.249695
1.8375672,92.29978
1.8863552,94.42385
1.8704875,93.22332
1.8535575,94.59767
1.8662212,94.78536
1.7678925,94.17053
1.7670323,95.59033
1.7435955,93.95021
1.6712177,92.69586
1.6797566,93.27448
1.5896388,91.80165
1.6457733,90.14549
1.6110187,89.019455
1.5642353,84.47691
1.5184563,89.27358
1.5076454,94.81984
1.4830711,86.828316
1.4753394,88.07842
1.3658634,90.78999
1.3046057,86.18487
1.4200023,83.983986
1.4052783,84.973114
1.3311579,84.453
1.2969713,86.41179
1.3589776,89.143265
1.2878358,84.684616
1.1735795,84.27667
1.1861982,83.22621
1.1429393,81.80946
1.1975302,80.34788
1.066841,82.302765
1.0903289,84.79662
0.9739359,80.888084
0.9710138,78.82378
0.89066494,80.35975
0.9076583,78.10064
0.8168545,80.28625
0.82546943,78.41756
0.8074365,74.41128
0.722627,76.91981
0.8199177,75.055855
0.61420876,78.014725
0.71157104,74.52287
0.6947716,76.40169
0.75976634,76.959526
0.7447332,72.83471
0.71372193,76.076385
0.6511839,73.78034
0.6117128,72.728584
0.6562694,72.03077
0.6388619,74.42204
0.61992335,69.75275
0.5644403,73.124626
0.4206725,74.09175
0.4414957,69.412346
0.41009146,72.861145
0.3027816,70.76041
0.22868328,73.41109
0.2632403,75.89365
0.31952828,73.5962
0.2523746,73.57052
0.35072777,72.45289
0.34612212,72.56442
0.314084,71.50264
0.40059474,78.639885
0.55414605,75.886345
0.46885318,79.79586
0.59074545,76.87439
0.7143511,78.12093
0.7816646,79.225395
0.86368096,82.87833
0.954493,84.70056
1.0744226,84.04918
1.159952,83.13384
1.2176439,85.82907
1.2345334,87.16223
1.3220041,87.33863
1.3146896,85.077705
1.4247075,91.12406
1.6110284,88.78079
1.5175029,89.31771
1.5477957,91.97579
1.6383377,91.21877
1.6928055,88.36276
1.6169112,91.72305
1.5781595,90.175865
1.5811937,87.75356
1.658727,92.53755
1.608744,95.992485
1.4844221,94.00693
1.566818,91.94553
1.4831681,93.41976
1.4010092,95.7443
1.3760643,91.14634
1.3802081,89.672295
1.4145415,93.25395
1.3727654,92.07256
1.3432705,92.231476
1.2554723,89.02809
1.2585888,90.07777
1.1563087,90.386284
1.192074,86.88861
1.1624122,92.476875
1.0452235,87.72886
1.0942923,85.964
1.0822535,85.38354
1.1839907,90.077194
1.0701765,87.59016
1.0414927,83.73301
1.131088,86.28306
0.86969244,81.37144
1.0220242,80.201996
0.9213007,87.86639
0.8594658,83.85444
0.8865,79.55795
0.87174255,85.74653
0.7467787,82.965385
0.80603933,77.57372
0.6213408,81.47922
0.6156787,75.56043
0.72800595,79.81147
0.54270506,77.052246
0.52710533,77.352844
0.52046126,78.92984
0.4603152,76.30921
0.3627158,78.65759
0.40085968,76.6983
0.3359329,74.39117
0.2512118,73.052795
0.38212287,78.087
0.36341608,75.68716
0.39724547,73.41702
0.46760067,71.86569
0.3590641,71.95776
0.42867753,74.666466
0.37651142,72.1998
0.41005164,72.423355
0.30548394,73.97514
0.2955377,72.8889
0.14667132,75.606895
0.18823208,72.62578
0.038640913,74.006
0.042025328,70.65578
-0.008432438,69.273605
0.024066728,72.476494
-0.028322434,75.54701
-0.023951955,72.50557
0.08435856,72.51842
0.043616895,74.342926
0.16160928,75.951904
0.026761007,77.47493
0.2108249,78.76888
0.2058814,79.356316
0.27492997,77.23807
0.47909763,81.44335
0.4286702,81.70236
0.60684067,81.60315
0.73852503,82.28688
0.82536095,81.80828
0.8888352,84.46134
0.9910029,83.74978
0.93903613,83.25951
1.1471627,86.58921
1.1578857,86.79351
1.1936514,88.56336
1.2158841,91.51204
1.4005203,88.33996
1.2843324,89.63305
1.352838,87.7809
1.2967541,91.77774
1.4260162,93.65628
1.4260967,91.49537
1.4123434,91.81986
1.4800886,93.40123
1.4072068,89.13949
1.3757805,92.56617
1.365702,94.78769
1.3323513,94.91783
1.2534287,95.04663
1.3209574,92.66233
1.2237676,93.84899
1.1098433,91.18113
1.2531862,93.66426
1.0141762,94.64219
1.0463011,93.62416
1.1690935,91.45405
1.0845053,91.03799
0.95702237,90.73637
0.9546613,86.23666
0.933079,90.7968
0.89745384,90.26513
1.0398959,88.63879
0.90410614,90.018684
0.8819058,87.134315
0.811047,85.0973
0.9285125,85.375015
0.7873254,84.81769
0.9837084,85.66162
0.8435999,82.11353
0.8320236,84.33046
0.7477545,80.148224
0.7851015,81.96313
0.73591703,83.34179
0.7014392,77.33152
0.6899117,83.4321
0.7317584,79.9752
0.5017503,81.39954
0.48786622,80.309296
0.3964271,75.715485
0.41111988,74.7788
0.4240225,80.40614
0.36948973,74.64018
0.349497,76.54676
0.42781597,73.91905
0.25054502,72.15725
0.3810784,74.20123
0.33545914,74.232414
0.3865822,71.09576
0.29743713,73.347404
0.31186414,74.57755
0.38525483,75.902885
0.40978417,69.70552
0.33361587,71.09095
0.23578992,72.00373
0.26507694,72.89689
0.21609764,74.535065
0.102389485,70.79205
0.23615126,74.83918
0.05857256,71.253136
0.02435054,70.41781
0.022232817,75.42713
0.11897058,75.313736
0.008225367,72.3197
0.036692824,75.75348
0.018709544,74.02931
0.08232688,74.16417
0.1100497,77.560646
0.18305114,73.1974
0.14659488,78.99669
0.3323077,79.15552
0.44664332,76.96766
0.565935,77.61252
0.5376562,78.34849
0.6336169,81.90481
0.8490277,84.90598
0.9535956,83.84219
0.9890604,86.85262
1.1168379,84.19811
1.1553043,90.21638
1.3387884,86.65682
1.2320468,89.696846
1.4494969,88.72502
1.3944132,84.696
1.4081191,92.412384
1.4415462,93.88464
1.4008251,93.794395
1.5108746,94.74243
1.4128103,89.72339
1.4607621,92.66939
1.4738404,93.295074
1.5614536,93.999016
1.5437374,94.82572
1.5127528,91.26073
1.4869119,89.51373
1.4485835,96.10288
1.2817746,89.36856
1.3579296,94.2879
1.3590868,91.836914
1.297507,91.47412
1.3047153,92.37266
1.2705997,90.61908
1.1596591,91.877594
1.2382541,93.17373
1.1310632,91.82443
1.2662299,87.060684
1.0435005,88.783745
1.1984371,89.8187
1.09085,88.91599
1.1828771,87.05401
1.0708082,84.31663
1.0445827,90.50584
1.1218947,86.44792
1.0172828,85.70604
1.0722742,86.27508
1.0912957,84.63686
1.1378652,84.34795
1.0633655,84.18629
0.9419465,81.17183
0.8784598,81.938675
0.90680194,83.15002
0.86689365,84.48341
0.79949546,82.56417
0.76076543,78.27249
0.7446419,82.574165
0.6974113,80.504486
0.64127284,78.024994
0.6543567,81.68936
0.606034,75.82122
0.6232788,79.13885
0.6522809,78.76918
0.6443691,71.83401
0.6032219,74.905075
0.53729624,71.784744
0.5458492,75.09283
0.61638004,75.00621
0.5553823,71.79656
0.6185223,73.93798
0.48248866,67.62424
0.5360969,70.01222
0.48531428,70.98227
0.5356072,73.594505
0.42435348,71.587234
0.4611688,74.4721
0.33149204,73.360565
0.38822505,74.136444
0.28951338,71.24108
0.22876506,74.50949
0.27579245,74.615814
0.27141654,76.39411
0.35088104,76.54909
0.28980404,78.28593
0.3700936,75.56173
0.42563426,77.47858
0.4853926,74.32061
0.48525286,77.295334
0.50969654,78.85711
0.7038328,80.051674
0.7450986,80.35534
0.8793705,77.90618
0.99125034,80.26796
1.1786306,83.59712
1.1451354,81.66021
1.3513461,83.186134
1.3973334,84.06745
1.4684815,85.83909
1.4724921,86.9163
1.57674,85.750755
1.6265833,86.25931
1.6636784,91.290344
1.656236,88.89979
1.77295,92.959625
1.8299379,87.84481
1.7863659,92.28302
1.8217272,90.88556
1.7739927,89.36227
1.7951725,93.456215
1.78782,93.83586
1.8048669,92.41014
1.7705923,94.35989
1.7043189,91.43149
1.7724276,93.29909
1.767543,91.77691
1.6760027,93.1201
1.6981386,89.35425
1.5995414,96.50354
1.6768246,94.809845
1.5299684,89.96415
1.513335,94.40427
1.3506241,91.49488
1.552825,89.2629
1.4608814,87.73263
1.5273817,84.486404
1.364317,86.7329
1.3558493,85.42623
1.4383129,85.11501
1.4058093,86.35598
1.3218848,85.91848
1.528036,85.37717
1.3436313,84.17848
1.3166128,81.62772
1.3741869,82.94779
1.3973739,85.978004
1.3525153,82.456436
1.354498,86.62292
1.2260045,82.08496
1.1528213,81.730354
1.145743,81.33392
1.0438604,83.60389
1.0214306,81.51219
1.0518667,82.451996
0.9764662,77.40952
0.9426817,80.90626
0.9343707,76.65286
0.8907502,78.29976
0.8244545,78.02755
0.91648585,76.417725
0.9607358,77.162315
0.84907275,74.1476
0.8211897,73.908134
0.83295584,72.573746
0.9066838,76.4049
0.9112717,75.42642
0.83192545,73.58343
0.7763756,73.92338
0.7772365,72.2745
0.81690973,71.12875
0.76534903,74.99626
0.7601952,72.93906
0.68124294,75.26766
0.6041897,71.70545
0.6958548,73.44308
0.59839666,73.10871
0.6195707,73.746864
0.4828577,72.96973
0.4872702,68.67745
0.5447583,73.536736
0.5828715,73.084465
0.6083197,76.53011
0.6064867,81.93739
0.6841851,74.49096
0.7300625,76.97551
0.87215686,79.269905
0.91139585,76.937614
0.9947328,82.74462
1.0831928,79.70278
1.2012563,81.70588
1.3297923,85.738846
1.275928,83.41084
1.523614,85.4369
1.4030495,83.270386
1.7663659,85.21147
1.7223407,89.98701
1.7180953,86.46259
1.7717696,88.82392
1.8597124,88.56733
1.8815266,88.905495
1.9557533,93.9942
1.9481019,91.128845
1.9668385,90.83147
1.853224,91.866875
2.0039942,93.16192
1.9439696,93.01049
1.8455014,92.43576
2.0927608,97.17689
1.894902,95.50412
1.8961887,90.47975
1.889659,94.90309
1.9319375,93.23791
1.7969468,95.08008
1.7390568,90.20283
1.7650244,93.32495
1.7987268,89.67121
1.6618131,88.906876
1.6282895,87.8443
1.6237534,88.26019
1.694593,89.25265
1.5543177,88.78233
1.5893602,89.517784
1.5899475,88.91757
1.5300294,88.80699
1.4641114,89.93966
1.518659,88.01359
1.4942889,84.26336
1.4361519,86.71673
1.4309305,84.68859
1.5396763,86.81066
1.3754622,86.63593
1.4383181,83.16612
1.4227768,82.39598
1.3433867,82.65399
1.2235212,85.36636
1.3797207,81.470276
1.2162724,78.07638
1.2386128,81.50373
1.1311814,76.327034
1.0804034,84.085205
1.1417843,78.71865
0.982821,75.33147
1.01547,79.215614
0.96475405,79.86843
0.9849298,78.80291
0.99585265,77.15902
0.90390354,78.73958
0.8549012,75.89914
0.9752046,73.45011
0.91491,76.904755
0.83289045,75.18866
1.0825273,71.96905
0.66230303,73.75506
0.95314693,72.49594
0.8332207,73.31992
0.8397605,70.79983
0.77649194,73.30979
0.71582747,73.16472
0.63365614,76.04524
0.67878383,73.01453
0.5439673,74.463036
0.51657957,73.50295
0.58307964,70.53645
0.4940455,75.46621
0.61060166,74.331566
0.4580353,76.20723
0.38342848,70.10401
0.49085736,78.882
0.4887951,74.0173
0.5440544,76.92976
0.5584737,77.7649
0.7330774,77.624695
0.82821476,78.63367
0.85807186,81.72392
0.98002213,80.30019
1.1364118,82.95426
1.1953999,81.995514
1.3040465,83.27733
1.3493452,85.3981
1.4827905,87.13671
1.5349238,87.285576
1.5102513,86.94783
1.6724176,80.71782
1.6780907,88.103935
1.8082155,93.37667
1.8095765,90.32846
1.7770847,89.91048
1.819292,92.457054
1.8822167,92.575005
1.7842278,95.02832
1.8069197,95.00857
1.7926202,90.79569
1.9513305,94.75046
1.8166043,89.32179
1.7382283,90.58326
1.7295437,95.03066
1.7533512,94.61669
1.7594222,95.81593
1.6869078,92.20031
1.6794715,93.171906
1.6824164,93.16459
1.6222429,88.78603
1.567437,93.72546
1.549448,89.75289
1.5603201,91.473915
1.3943632,89.695526
1.4197417,93.02793
1.3539213,90.59871
1.4327805,87.558914
1.328769,86.76687
1.3826828,83.79944
1.2656785,89.96612
1.2686094,83.41476
1.2383676,84.25354
1.2362278,82.360886
1.3302809,85.46559
1.1992012,86.67269
1.2748848,83.27448
1.1637261,84.616516
1.053268,80.80581
1.1090157,82.815315
1.0677677,83.40721
1.0275681,80.50212
0.85651463,82.929665
0.89231616,77.018875
0.9353504,76.29
0.9320989,76.99523
0.8259164,78.54847
0.728337,80.962944
0.6392371,77.64084
0.7576172,77.04732
0.69051766,78.15819
0.55741054,75.905594
0.67306644,73.358765
0.60339576,78.615
0.75147766,76.64843
0.69896466,78.73663
0.60091347,76.167656
0.576759,75.07253
0.62765354,71.52463
0.47777683,72.035904
0.553395,72.71895
0.5013273,73.154655
0.5204105,71.42491
0.56514835,70.1804
0.48249456,73.86828
0.32701838,70.09785
0.2751684,71.43671
0.2966922,69.5563
0.23210362,73.39346
0.2690468,74.20034
0.11699086,73.99939
0.2069995,76.03817
0.2262947,76.63512
0.30813795,76.43194
0.27484098,75.889694
0.40538293,78.24512
0.4458119,79.18551
0.609398,75.84758
0.5326617,72.86631
0.68238705,78.12826
0.75856656,85.31263
0.91321445,84.7144
1.0302744,83.076096
1.0300735,86.25365
1.1501163,87.31156
1.137785,85.14262
1.3053565,86.1314
1.2955066,87.588326
1.3700052,87.73069
1.4050708,87.178116
1.4484318,92.12831
1.4483981,88.44673
1.5562,88.90709
1.4516532,92.87416
1.5316349,93.7889
1.5019739,91.47156
1.611479,93.17369
1.4990399,92.00478
1.5256891,92.82961
1.448133,92.97662
1.4991257,93.77655
1.446589,95.90232
1.3108655,93.01156
1.3098006,94.27424
1.2961713,92.73701
1.3157839,93.96748
1.3076016,89.78235
1.3040882,95.76518
1.2783355,90.2671
1.2700509,89.6931
1.1153302,90.649734
1.141401,91.013435
1.1709062,89.49186
1.0342939,84.66494
1.0011264,89.86678
1.0542891,86.51823
0.9698302,86.10444
0.9700425,88.10622
0.9604724,87.44231
0.9199789,85.90278
0.96297747,84.31997
0.9328992,88.8892
0.8770185,79.84357
0.89246523,84.1175
0.8717,84.517
0.83451843,80.49993
0.7733213,82.56319
0.84941995,83.40424
0.69211733,82.865974
0.6477749,80.0527
0.543966,80.40037
0.48416945,80.45376
0.6207158,82.109375
0.46799615,81.52033
0.38429332,83.29586
0.43009695,77.41614
0.3914523,76.35532
0.29120228,77.172966
0.34378177,77.41025
0.3785998,75.99321
0.3439109,72.62412
0.27667436,77.29752
0.28952697,74.81806
0.30360836,70.46109
0.29662198,75.92099
0.37718675,72.31824
0.2806715,71.27529
0.19022575,74.78697
0.16386323,72.06662
0.23958404,74.73712
0.13211977,72.14906
0.08206167,71.568054
0.110353604,75.19849
0.007992386,73.270226
-0.02988417,72.671326
-0.051585253,73.62321
0.028300978,71.7476
-0.050778188,72.62886
-0.030085776,75.2254
0.08099043,77.555725
0.07701382,76.16951
0.11457953,73.567726
0.26920477,76.347275
0.26773703,75.67655
0.40130848,79.65568
0.50813556,79.79983
0.6004858,83.545944
0.76372564,79.6081
0.7060914,77.51227
0.833105,84.858536
0.9529531,84.24172
1.0309244,84.18595
1.0597293,87.78955
1.1032431,88.03661
1.2290932,88.1542
1.1945859,89.71758
1.2286665,88.17433
1.3130453,88.576096
1.2699808,91.71304
1.2412353,92.73786
1.3555833,92.59738
1.4048731,90.49891
1.3586365,96.49859
1.3052963,94.742744
1.3155658,95.60415
1.3235068,90.33394
1.4051055,96.65172
1.3552926,93.45033
1.265063,93.96142
1.2330726,91.28852
1.2575047,86.93238
1.1322805,91.227104
1.1642743,91.327805
1.196624,92.16601
1.0236388,92.334465
1.1201934,88.35714
1.0937713,88.63548
1.0566636,90.28403
1.0835308,87.56338
1.0598692,85.54875
0.84920996,88.44713
1.0189127,87.39158
1.0468308,84.96248
0.9534073,87.60647
0.8279155,85.57117
0.8924978,89.10089
0.8315061,84.55333
0.8986882,83.44191
0.9341365,87.55763
0.92464656,83.82708
0.7465875,84.25763
0.8152338,81.15491
0.7821222,82.67852
0.6607087,84.13821
0.5945681,81.549545
0.5754974,79.27738
0.51723206,79.90609
0.50702256,79.23727
0.4862685,77.802185
0.45674255,77.82208
0.4586029,80.61655
0.34666255,78.35112
0.37668875,74.37405
0.28118065,73.25713
0.4609177,79.3031
0.40559682,75.59395
0.42585444,76.70695
0.52455354,75.648766
0.30993035,75.278114
0.45671064,74.95036
0.35522133,72.59939
0.39657894,75.27184
0.34825736,72.79458
0.343173,72.75496
0.26035088,72.50572
0.2953743,70.860016
0.24990547,69.23262
0.14195846,72.032
0.108877085,70.267715
0.08301286,71.458916
0.16312885,75.089676
0.08676084,76.10726
0.07342479,71.521545
0.0031104828,76.368805
0.06531472,78.254196
-0.037533052,79.28349
0.13531457,73.91435
0.16558671,76.489456
0.30012336,76.4898
0.29801747,77.540215
0.43968466,77.88941
0.55976915,77.227905
0.6525546,80.512054
0.7581365,81.78605
0.8462361,82.9341
0.9013326,82.68723
1.0708241,82.959206
1.1899564,83.59368
1.0949771,85.28006
1.2506752,85.52228
1.2896596,85.03993
1.3804867,89.12382
1.4105471,90.371086
1.4397957,90.43787
1.4411683,87.91765
1.5583247,88.62919
1.5291848,91.72347
1.4602654,91.559494
1.691421,93.37194
1.5704963,92.97173
1.4777849,93.46342
1.5401762,93.02696
1.525947,92.295494
1.613201,93.50557
1.5446045,96.22785
1.4862552,88.81847
1.4599607,92.70631
1.4438977,95.37022
1.361918,90.28586
1.286978,93.0645
1.3366983,90.82873
1.3258711,88.079544
1.2663972,94.5909
1.2553697,92.87316
1.2900668,85.41551
1.2195278,88.58683
1.1056337,89.308014
1.211788,92.141594
1.1770215,93.27447
1.1317699,86.022026
1.151989,84.09785
1.0610617,87.08632
1.1458509,86.199974
1.0940536,86.4992
1.1309714,85.78168
1.1343626,84.67719
1.0174556,86.40134
0.88896346,84.10576
1.0546092,81.29523
1.0023359,83.98026
0.93069446,80.41277
0.84509313,83.62515
0.9272738,81.36564
0.8173377,78.78012
0.79048455,76.5212
0.70595026,76.07319
0.70524484,77.11493
0.6722901,76.075935
0.72727257,78.00008
0.6632149,79.48654
0.6353902,75.075935
0.56264687,75.73581
0.6460658,77.550865
0.73969674,74.70284
0.5921269,75.76592
0.51917696,74.01767
0.59493005,75.356735
0.6222069,74.59278
0.5686965,74.5006
0.5427675,71.96658
0.598665,72.929054
0.45574784,71.29547
0.47445446,72.789474
0.5773672,75.359436
0.4931399,75.44666
0.32212713,72.582306
0.43701273,72.92097
0.45156294,72.85769
0.43593067,74.20972
0.32887986,73.344734
0.32167697,72.11769
0.37774652,72.76921
0.43128768,78.246895
0.5279935,75.20585
0.5221895,74.11089
0.5670181,75.57807
0.5471536,80.56578
0.83973247,77.16485
0.8915124,82.41103
1.0597471,82.42826
1.1093345,85.94849
1.2761271,84.05724
1.2662841,88.095695
1.4276904,85.03895
1.4284161,88.14944
1.5048034,87.43275
1.5860987,90.04523
1.7051193,87.88966
1.645127,90.88995
1.8395308,87.65779
1.7474304,93.24
1.7793459,91.30586
1.8074387,88.596466
1.792004,90.513725
1.8633246,90.59366
1.8996031,92.74416
1.7691865,94.15602
1.9005506,90.470726
1.7736502,93.468666
1.7360365,88.158104
1.9026266,95.38033
1.7521765,92.11378
1.7677155,91.53005
1.7350712,94.44625
1.6974608,88.79745
1.685495,92.38673
1.6704029,91.08065
1.6340234,90.31868
1.4880303,90.53912
1.498702,93.41644
1.5529206,88.765114
1.5045798,90.51166
1.4032106,87.236336
1.5654511,86.226036
1.4147096,87.112335
1.411712,87.69271
1.459752,85.106865
1.4890318,86.58184
1.411308,87.23598
1.393118,84.54243
1.3774942,86.44589
1.441505,82.96474
1.374691,80.07592
1.3208494,81.520744
1.2393717,82.36703
1.2659342,84.96028
1.183013,80.43598
1.2593558,81.70634
1.0492815,78.084946
1.0730858,82.06049
1.1582096,80.40632
1.0884131,82.317635
0.9501957,75.023224
0.9112407,76.70721
0.95781684,78.95186
0.8321126,75.58484
0.9635845,77.07756
0.8041767,72.70338
1.0053554,79.89428
0.8764531,73.196365
0.9121907,76.768654
0.8941496,74.85254
0.87445486,74.21981
0.8337037,70.87109
0.8485301,71.95215
0.8103692,73.89626
0.79419535,74.92376
0.85315,71.29418
0.77730626,72.09119
0.6985477,73.533295
0.7404569,75.163086
0.57324517,71.668594
0.5878551,72.41624
0.44606903,72.1081
0.47976118,76.348045
0.4997582,76.63469
0.555998,72.75966
0.5447155,74.61034
0.60587656,74.4889
0.6230029,76.93313
0.7654464,75.39759
0.79490095,76.26896
0.8842276,78.31407
0.9501076,78.63288
1.0197784,81.52798
1.2399536,80.00195
1.2103766,80.8016
1.3420575,80.908936
1.4305733,82.69595
1.4005929,81.46452
1.5802492,89.743576
1.6958653,84.18138
1.8105793,89.67592
1.7487146,85.012245
1.8882185,88.4504
1.9199573,85.489784
1.9632633,90.143036
1.9453777,91.59339
1.9105663,92.747185
1.9962757,90.8249
1.9918517,92.976204
1.9318461,97.03502
1.9128587,87.62802
1.9850667,91.84337
1.9633479,92.05844
1.8477091,94.73652
1.9829245,93.44489
1.8825763,91.28317
1.9060268,93.35045
1.8951337,92.20105
1.7440324,92.689865
1.786699,90.45954
1.7808561,90.35369
1.7318099,90.351746
1.6489388,92.90168
1.6490558,87.95158
1.663385,92.159676
1.5962986,91.92936
1.4465679,89.875305
1.5528425,86.25688
1.5682709,91.405174
1.4246066,88.6236
1.365847,81.83924
1.5336635,88.26337
1.518212,85.46924
1.3529392,84.03783
1.5088173,85.07952
1.4507939,87.38683
1.4293857,83.848206
1.4132714,85.59213
1.3103408,84.7725
1.2335844,80.99072
1.1952274,82.61083
1.1353451,83.160934
1.135698,81.51759
1.1018159,83.22999
1.0434194,80.37243
1.0188152,82.21733
0.99539196,77.690575
0.9416632,76.15939
0.8654601,79.57116
0.8784308,78.7788
0.84139884,76.04803
0.9678637,73.98042
0.8479014,72.353294
0.92008513,75.97128
0.7687618,75.07449
0.75454646,74.0001
0.8646863,73.53913
0.70182043,71.81764
0.8008332,69.6429
0.839741,71.88355
0.77871126,74.0951
0.8046634,74.40359
0.7267275,70.91977
0.65281254,70.17802
0.4822533,75.50789
0.62156236,74.872086
0.49619874,75.47282
0.47416297,73.044556
0.40113798,71.93963
0.36903536,73.631775
0.49548087,72.31248
0.43518087,78.171745
0.43628943,73.62222
0.60810864,73.63875
0.6661154,76.93369
