ppg,abp
1.0574923,81.62536
1.1267091,83.942276
1.2807692,87.78803
1.2795266,87.75979
1.3370326,86.514626
1.3894844,89.2448
1.5019348,92.40695
1.5476631,93.63133
1.6235913,92.90669
1.6470438,93.47687
1.7097684,99.88574
1.6866428,98.856316
1.7506604,97.861626
1.6292168,99.72006
1.761464,98.69731
1.7463477,101.27216
1.6679949,102.010284
1.7019724,105.13619
1.7336906,101.96782
1.7326889,101.19167
1.6879753,100.75863
1.7341858,102.993744
1.7436768,101.73765
1.6170632,100.33835
1.6614934,101.66528
1.6516663,100.23581
1.4863552,102.90066
1.6459372,100.17919
1.5266948,98.55462
1.504384,100.90793
1.4960157,98.764046
1.4510702,99.30159
1.4625103,99.18408
1.4073697,94.69216
1.3681924,92.41561
1.4393021,93.31232
1.3521228,90.162415
1.4437358,95.4359
1.3830223,92.703186
1.3210033,93.03583
1.3060249,90.93807
1.4474581,86.27377
1.2583337,89.608086
1.3471615,87.4025
1.3303506,85.68102
1.3170583,84.95766
1.2921612,87.37289
1.2654358,84.52314
1.2112381,84.47924
1.1502737,85.32615
1.1115228,81.25967
1.0808905,82.97434
1.1253779,84.02667
1.0691675,80.118385
1.0769665,80.60234
0.93731993,79.42983
0.9624814,81.03185
0.8770216,77.348305
0.9241845,77.60638
0.95463747,76.50376
0.8904256,76.044266
0.82699615,76.42078
0.7683726,70.80115
0.9013378,74.40161
0.91138804,73.22329
0.80463606,70.66511
0.8943824,72.4389
0.83630514,68.26647
0.89332825,68.09783
0.82177174,68.62268
0.8114852,68.63962
0.8188103,68.02392
0.8249454,67.03975
0.6661227,66.01032
0.7043849,70.563576
0.66348636,67.81333
0.73879457,65.36016
0.5918974,65.90373
0.6677702,65.24427
0.57656634,67.29535
0.58663625,67.10414
0.53821546,66.54551
0.39440113,66.37842
0.5280487,69.85076
0.44778112,69.535576
0.6039668,71.12825
0.5615905,69.07361
0.527609,73.50069
0.60414183,72.142044
0.71686965,73.440895
0.64396244,75.81379
0.78398114,73.66438
0.8733159,78.5462
0.94248873,80.732056
1.0136874,79.6986
1.1553974,78.450615
1.263443,79.95962
1.252047,84.95174
1.4614452,82.95688
1.4329728,84.42152
1.5386128,88.49845
1.5487908,91.7096
1.6901538,91.04058
1.7012115,92.52927
1.7919446,95.1307
1.8015798,93.1503
1.7976726,94.01569
1.898542,98.31491
1.9421127,98.85564
1.9911411,99.11687
1.8949944,100.78727
2.010142,98.98121
1.9198862,98.185715
1.9628905,102.993484
1.9683398,103.296196
1.9989148,102.25695
1.8563827,98.478226
1.8741931,104.21685
1.981743,100.14962
1.9295856,100.79703
1.9442707,100.41055
1.8971668,102.56848
1.796793,102.35173
1.7233528,101.13838
1.833395,98.90612
1.7441089,101.31006
1.7039181,101.586075
1.746455,98.2194
1.7510635,98.95978
1.6394261,97.83561
1.589144,96.793304
1.6753043,99.14503
1.6164267,93.20023
1.5423133,96.731926
1.5424756,93.58254
1.519958,93.6822
1.5375556,93.34274
1.4490801,93.18516
1.4666263,91.52949
1.4740567,88.44626
1.4515271,86.35523
1.508111,85.02912
1.3849064,87.665565
1.4718298,86.99371
1.3264909,87.787575
1.4036891,84.599754
1.3715585,85.38292
1.2954404,83.27372
1.3539238,82.65269
1.1527814,80.20892
1.1205071,81.66691
1.1537197,81.50081
1.1071839,79.900635
1.1000416,79.10995
1.0798234,78.658295
1.0069802,76.67346
0.9823403,76.52714
0.9156178,74.138824
0.9236129,74.19783
0.9017074,73.077866
0.9380141,75.77184
0.96353626,72.05432
0.87946224,74.86494
0.8592459,72.92312
0.859074,68.69243
0.9149439,70.362366
0.8323542,68.66817
0.84651196,68.719574
0.81658953,70.037544
0.81891197,66.82167
0.8212808,63.608994
0.7754525,67.951996
0.8509923,68.6535
0.7399019,66.18149
0.7109866,68.43543
0.6869948,68.78416
0.68703663,66.674164
0.46392637,67.397766
0.5648628,66.076836
0.53249156,68.60241
0.47388947,69.40441
0.5411059,69.91885
0.46915555,71.33054
0.48542973,71.70658
0.51679623,71.07697
0.57872665,72.42397
0.55321836,71.48412
0.63476837,73.94074
0.67798305,76.302315
0.707349,74.456375
0.87031364,77.06846
0.97939956,77.30232
1.0004287,78.16503
1.1722184,81.56926
1.1808709,82.0411
1.2364339,84.60001
1.3645324,84.972176
1.4533466,89.090096
1.5027297,90.22401
1.5816422,88.18828
1.5845912,93.111206
1.568434,93.81773
1.6371558,94.65467
1.7556317,96.45163
1.7391684,99.62569
1.7670747,96.28677
1.7883295,98.87099
1.7266476,96.38402
1.8395286,99.62152
1.8369116,98.63417
1.7558153,102.46584
1.7909373,101.02617
1.7353455,99.900665
1.7900537,100.78439
1.7062095,101.42691
1.8437383,102.323105
1.6728154,100.4443
1.7419149,99.31904
1.8072866,101.4976
1.6051879,100.816414
1.5922108,101.40095
1.6099348,100.98564
1.5472944,101.02661
1.4931556,97.84475
1.4814146,101.8066
1.4608172,95.63381
1.4620144,97.62883
1.4022793,97.844246
1.4080759,94.65293
1.3665433,95.96064
1.4101734,92.50805
1.2245507,94.779274
1.2526549,95.937225
1.3310852,91.79057
1.214658,90.5796
1.3256975,93.91841
1.3630131,88.960304
1.2059935,89.87792
1.2439145,89.56152
1.1844771,90.11848
1.1263754,87.61735
1.1792847,87.939285
1.2766536,83.58033
1.0891792,80.158646
1.044057,82.57793
1.042179,85.53683
1.0264899,80.53999
0.94374406,81.03347
0.9578999,82.78451
0.8210075,78.95937
0.73026675,79.77772
0.7843931,81.59905
0.7334181,76.551834
0.6818164,74.7957
0.669339,74.97591
0.67745626,75.23317
0.5708655,72.41188
0.6536946,75.34361
0.5677585,73.515785
0.6235481,70.612335
0.6278355,68.871155
0.55985767,72.19806
0.5929506,69.39125
0.528007,67.433044
0.5718268,68.8152
0.5424045,67.188835
0.51867527,67.91292
0.47311243,69.703766
0.56242156,66.15364
0.4869581,66.01664
0.41820943,66.198
0.37961116,68.8094
0.3922987,66.79588
0.30902696,67.703354
0.23960969,68.30867
0.13604346,66.71554
0.16591161,69.58424
0.24347897,67.3237
0.12477945,65.65621
0.19775447,69.68074
0.15666087,71.418
0.08467861,69.626175
0.14267632,69.645294
0.2768182,73.68379
0.25787735,73.47284
0.2609403,76.4482
0.36943546,77.99867
0.49454644,78.68185
0.5325375,77.89547
0.5016144,81.06119
0.64756304,79.43851
0.83249253,82.75408
0.9090158,84.73577
1.0050515,87.47481
1.0765609,85.932915
1.1289835,89.809814
1.1376456,88.64209
1.2271519,88.74073
1.3236154,95.55166
1.3010641,93.89232
1.3458394,94.54385
1.396071,97.92966
1.4802061,99.28535
1.3808017,99.34021
1.4352436,100.582634
1.5990231,97.69492
1.3870988,99.94774
1.4685029,100.77336
1.3953782,100.31079
1.4391049,101.73421
1.4943696,103.26995
1.503814,102.15913
1.418709,100.97105
1.3465723,100.33401
1.3033762,100.576256
1.424608,101.04609
1.3374784,103.45472
1.4182644,101.98
1.341284,102.75698
1.3144783,98.471756
1.2736912,98.22509
1.1524075,98.09915
1.1410295,99.61099
1.2380692,97.14543
1.137514,100.127464
1.0702446,98.56455
1.0223733,95.66484
1.0401202,93.99878
0.96988076,95.22873
0.9669604,91.918335
0.9866643,94.44215
0.9989497,91.63748
0.93667877,89.3021
0.92808384,92.254875
0.9387592,92.075195
0.8851882,90.03257
0.9133176,88.54966
0.9157721,84.59618
0.8765678,85.591965
0.7528449,85.081985
0.767025,83.07726
0.8074744,81.617714
0.7243203,83.77301
0.8078085,84.587494
0.58899945,82.62466
0.5622477,80.709885
0.5881469,81.085144
0.5363121,80.152916
0.45001587,78.28115
0.46147835,77.28158
0.386382,77.03608
0.41571707,76.802315
0.431225,72.642136
0.33357808,76.80662
0.33394092,73.03125
0.38148057,73.22712
0.29286665,73.18914
0.35508284,71.89352
0.33733907,70.65604
0.26997688,68.17014
0.30176374,70.15613
0.3453077,69.144005
0.31845367,67.80937
0.2574466,67.171265
0.25533435,69.416885
0.20535779,66.67885
0.31221542,69.73743
0.2447465,68.26919
0.11606821,65.1388
0.15227097,67.47807
0.037661813,66.25286
0.09476301,65.37171
0.029600646,68.59502
-0.065760046,68.04469
-0.06754714,70.21209
-0.084436804,68.825905
0.019668989,70.21839
-0.02913709,70.57776
-0.078515016,70.85458
0.05316896,69.50784
0.04755514,71.27021
0.04004763,71.439384
0.10731484,72.37046
0.21061848,76.30243
0.24208061,74.72604
0.3812039,76.43404
0.42031613,77.64911
0.5257362,80.14015
0.59969836,80.9765
0.6610325,86.24456
0.781731,85.09712
0.90542877,84.23471
0.9188402,88.51941
1.0327346,89.6195
1.1200321,91.63702
1.0947144,93.30803
1.2443017,95.772736
1.2441403,95.68858
1.3362796,98.29378
1.3191652,98.41172
1.288349,96.91704
1.3472123,98.962456
1.4509995,101.01535
1.3956261,98.825584
1.403645,96.31331
1.4423655,101.51451
1.4617292,102.81294
1.3929193,104.50525
1.4204154,103.26344
1.3377904,101.37623
1.3580498,103.50132
1.2816064,99.42655
1.2431709,100.65091
1.2887269,105.12011
1.2458936,102.46967
1.1964867,100.90205
1.2400805,99.18292
1.2021598,101.21964
1.2598454,102.81378
1.1269974,97.46616
1.1214153,95.79072
1.1278175,98.29056
1.0640435,96.17262
1.0968688,93.26759
0.9414918,94.54774
1.0861365,96.02765
1.0867689,93.78875
1.0272404,92.51803
0.9488395,91.61317
1.0247371,92.86911
0.9802965,90.28615
0.9711232,88.5069
0.9790109,90.09107
0.9771954,89.07084
0.9337652,89.436165
0.9577831,86.19893
0.9330531,88.24095
0.8151714,85.85992
0.81157196,85.38111
0.83826905,85.44545
0.83213633,83.27517
0.7262821,84.101204
0.67176944,82.32251
0.6618602,81.39644
0.6667682,81.59639
0.57953864,79.09084
0.63443476,76.81014
0.4938575,79.22438
0.5583273,77.59651
0.49383527,76.20525
0.52373993,76.07281
0.4486648,75.125374
0.4668222,74.18037
0.47313052,72.48451
0.4752111,72.65495
0.51943976,68.99047
0.42858097,73.99071
0.4036692,72.483795
0.52077436,70.59534
0.48923233,71.01433
0.43100643,68.9559
0.4175611,68.32631
0.40271574,67.86078
0.42097533,66.60654
0.33159626,66.14813
0.28343996,64.658356
0.34297353,66.15095
0.22548951,64.50697
0.21852584,68.24881
0.19146119,69.71148
0.16202551,66.25246
0.1643563,64.07091
0.19002533,67.90035
0.1725383,68.97097
0.10593375,65.436035
0.15097702,70.67439
0.14532785,69.76307
0.20417036,73.27624
0.3379097,75.002945
0.30320898,70.338875
0.40850404,74.79282
0.38915023,76.163956
0.59954506,76.64169
0.6226416,77.98656
0.71549076,80.138916
0.8634317,82.15185
0.82160527,83.63467
0.90557647,84.32885
1.0156705,86.202095
1.1879807,89.47834
1.1733453,87.91139
1.3543664,90.72082
1.3130131,93.584984
1.3717715,91.52584
1.4433106,93.2997
1.4844141,94.17402
1.5474132,91.90401
1.5159743,95.69376
1.6545998,98.874855
1.6388721,99.75488
1.6525046,99.0729
1.6462961,101.12708
1.630725,101.24098
1.6640011,100.01175
1.6985576,102.09613
1.5883296,102.306244
1.649912,105.31595
1.6347632,103.37494
1.6595125,100.94614
1.6217269,100.6683
1.6256953,101.37435
1.6168125,104.309814
1.5902146,102.60097
1.588167,101.333244
1.5695146,101.37637
1.4526381,100.840614
1.4649218,101.138054
1.4567668,96.29662
1.4830705,98.509155
1.4351474,96.96164
1.3331559,97.99803
1.3471328,94.95018
1.3808745,94.91973
1.3995844,93.40363
1.3765454,95.8965
1.2402229,94.709656
1.2243454,89.016655
1.3924279,90.42047
1.3427898,92.70276
1.2860632,91.73201
1.221419,88.9982
1.2747313,87.73247
1.2506282,84.475716
1.1639292,87.79758
1.2292198,86.94655
1.2213477,84.1246
1.202176,85.96562
1.1722094,82.221794
1.152575,83.50201
1.0444876,82.71577
1.0161136,82.836136
1.0715747,80.630615
1.0167323,81.988976
0.8974561,77.4019
0.88382226,81.52208
0.78208715,78.19859
0.9236726,76.16978
0.8917215,76.51767
0.84243274,75.22856
0.71308166,74.50549
0.8170519,73.14668
0.8821821,72.527855
0.81374764,71.87629
0.77645,70.12774
0.82664627,69.84237
0.8072941,71.68291
0.8841534,68.341064
0.74788654,70.22355
0.8408767,67.98016
0.6960025,65.713684
0.7118674,65.971985
0.65623474,69.03319
0.6353145,64.47705
0.699983,67.68838
0.59706163,67.972855
0.6059763,66.68696
0.591372,66.59887
0.47004408,63.75554
0.4882421,68.62265
0.584903,68.02136
0.43916556,67.685814
0.57414657,72.21759
0.37537318,68.43717
0.47896984,68.68263
0.54443187,71.119835
0.54570127,73.27777
0.62695503,71.10168
0.67977184,71.62147
0.7474156,73.37468
0.75475407,74.027504
0.962671,79.59916
1.0535758,80.1187
1.1185492,82.09848
1.1018786,81.36847
1.2640691,84.75791
1.2956141,84.974464
1.4539589,88.60548
1.514393,87.50776
1.6387715,91.53982
1.5821251,91.93799
1.6530758,92.356544
1.792004,92.97621
1.8412455,87.83834
1.7931345,96.095764
1.8080027,96.05788
1.9349481,96.9962
1.85928,97.65122
1.9258469,98.550385
2.064566,98.05308
1.9247079,101.33062
1.9301314,99.91962
1.8832729,100.64401
1.9521492,99.419815
1.8943584,101.76582
1.9155766,101.351654
1.8135805,104.9355
1.7945784,102.794205
1.797746,100.48412
1.8720202,101.201035
1.9256305,101.19022
1.7519281,102.56861
1.8057116,101.142006
1.6678857,99.37606
1.7105128,98.542885
1.6922828,97.80684
1.7135055,99.79701
1.5897113,95.321075
1.6009693,96.899536
1.5699857,96.79671
1.6263983,95.64094
1.5305326,95.485245
1.5351744,92.807785
1.483505,91.80034
1.4985766,90.32961
1.5019565,93.43302
1.4862738,89.65995
1.5344661,89.655975
1.4811934,88.29794
1.4668952,87.648415
1.4031454,85.20819
1.460324,89.1317
1.3913773,87.78705
1.3264344,86.709915
1.4059622,85.050415
1.3098707,88.287895
1.2544032,84.99881
1.2933561,81.03407
1.2037646,79.63308
1.207366,81.423515
1.118652,79.25576
1.0690559,79.65424
1.0046145,79.5456
1.176716,77.85831
0.9570313,76.96021
0.99427265,75.45023
0.9486166,79.2613
1.0072187,73.26552
0.9749164,72.01336
0.84842646,69.02118
0.8748961,71.385086
0.9205568,69.651596
0.8998931,72.91621
0.9591432,73.81531
0.90629727,67.15265
0.90100396,69.00533
0.9009172,67.34029
0.8471342,69.98925
0.8510357,66.10143
0.80072737,66.73839
0.8119003,66.30832
0.7271673,69.27497
0.7045649,66.847404
0.6565836,67.83138
0.6488802,64.45582
0.5114573,68.19364
0.557498,63.51898
0.61501724,69.14359
0.5657394,68.75091
0.465337,67.71321
0.5491138,68.9972
0.5923643,71.298355
0.43910906,72.00403
0.5954058,74.32068
0.6070356,73.78981
0.6437035,75.68785
0.72736424,75.81687
0.83567137,76.425545
0.9021873,75.45882
0.9354024,77.42498
1.069784,78.26314
1.0548446,82.08609
1.1774148,81.5767
1.2301612,84.1584
1.3460518,85.294235
1.498378,86.702576
1.4738427,88.695335
1.514486,92.44159
1.5659108,90.30793
1.6860175,93.2976
1.7326477,93.58895
1.7634512,97.95292
1.7770219,99.520935
1.7847941,94.98617
1.8486605,95.665596
1.8360038,96.68451
1.8130598,98.72112
1.817275,101.52502
1.8396682,102.26061
1.8571117,101.75313
1.8481369,101.79153
1.8017002,103.556274
1.8268108,99.58426
1.740982,103.38732
1.7473236,103.676544
1.7837188,102.326775
1.8121693,99.999466
1.7101389,101.24785
1.7433066,100.89308
1.7457995,97.74747
1.5849168,97.16601
1.581532,99.75598
1.5844375,97.8099
1.5704628,99.74463
1.4892405,93.91343
1.4896014,99.04808
1.4983536,96.25273
1.4648129,97.39466
1.2388535,94.800865
1.3816377,92.55603
1.3377964,92.242256
1.3031696,93.523224
1.3311653,93.72596
1.3142992,89.96052
1.3097869,90.59686
1.30957,88.93846
1.2751262,91.35824
1.2717496,86.072014
1.2166681,83.69358
1.1978611,86.824455
1.0838143,83.905754
1.0598795,86.79742
1.0058551,81.61759
1.1005499,83.27912
1.0530142,82.11975
0.9614452,81.992
0.90780425,81.03829
0.85144544,81.834526
0.8606422,80.176254
0.7896232,77.52915
0.7897145,75.07112
0.8173618,77.493805
0.71893126,75.89241
0.7002977,76.74583
0.6897896,75.05303
0.64273506,75.65389
0.68825597,70.325516
0.6006736,71.07691
0.76516265,72.670555
0.6107193,70.36279
0.6646824,68.23509
0.6224943,71.28503
0.604041,71.85038
0.6525314,69.08823
0.59762454,69.49771
0.635497,68.267944
0.5161654,67.03797
0.54563767,70.34343
0.48471928,68.59057
0.44181886,68.324036
0.39987427,67.15216
0.34568322,69.01176
0.2853892,67.70454
0.18770754,66.17846
0.17609264,67.60948
0.20807889,66.17042
0.1971658,68.53305
0.29901546,71.77412
0.19262074,70.654945
0.25189075,69.76075
0.28202203,68.5411
0.28577587,70.618454
0.22374055,74.56301
0.35048616,75.76099
0.4500078,76.62045
0.57793677,76.83395
0.5553386,76.16472
0.7151386,81.02592
0.6893412,81.56007
0.8736329,83.793495
0.9565379,84.6091
1.0655578,84.68162
1.0689443,89.87951
1.0971075,87.3369
1.2035874,88.38261
1.2534139,92.635635
1.3714824,92.39535
1.3034179,92.691414
1.3536441,95.2289
1.4125878,95.05468
1.3846138,94.24423
1.4653889,96.48224
1.4478819,98.9686
1.5113683,99.69167
1.4680936,100.85888
1.5296463,100.57927
1.4644616,99.16204
1.490062,101.448586
1.5308306,100.51637
1.4702684,102.520454
1.3858649,104.47535
1.3984243,99.90282
1.4478625,103.83379
1.4514731,100.152916
1.3352946,100.19922
1.3591943,101.00797
1.3034824,101.67712
1.2973201,97.20696
1.1711605,100.600555
1.175146,100.541275
1.1228349,100.811295
1.1323872,94.70572
1.1388792,99.304985
1.0567746,93.53958
1.0056653,94.372955
1.1095393,100.64976
1.0712116,93.56576
1.0205376,91.90606
0.9697023,90.485115
0.98572814,92.45548
1.0226045,90.41482
0.96408504,91.479836
0.99047405,87.539444
0.9287378,88.34095
0.9178936,89.24459
0.9335591,86.32433
0.8570699,85.15141
0.8607281,86.112015
0.8406572,85.243645
0.7445351,83.81933
0.7528038,81.2807
0.8275052,82.8924
0.67791146,83.96799
0.69037896,80.00298
0.58245045,82.80421
0.450384,81.409996
0.4655152,80.402306
0.39267835,79.39119
0.46242908,78.06811
0.4597417,77.23826
0.40404734,73.72111
0.4609593,74.85981
0.38116187,72.5311
0.28756094,73.97047
0.2770707,72.51648
0.31544527,72.09103
0.33460033,69.78813
0.25734693,70.76001
0.36797908,69.28705
0.35378784,68.04897
0.2791612,67.3208
0.34570774,70.00054
0.34368652,67.792946
0.25389954,65.763695
0.2631501,65.63759
0.25294468,67.801216
0.14996344,69.34297
0.17749444,67.86525
0.17678648,67.849846
0.042775147,62.029945
0.007430716,66.763565
-0.008592465,69.527626
-0.053130336,67.54417
-0.05231151,69.43203
0.0110872965,67.33039
-0.012908705,67.010254
-0.05818681,71.79748
0.011268786,70.76878
0.022070007,72.53359
0.0978727,71.95348
0.04909845,75.773834
0.23029274,72.86528
0.2597075,77.12804
0.3383733,78.484955
0.47216603,77.70969
0.542004,82.11443
0.5701913,82.647
0.7742017,84.86361
0.76551336,81.00354
0.90829223,85.894646
0.98744506,88.33504
1.031472,88.71567
1.0198061,91.61169
1.1601512,89.657326
1.0926024,91.39572
1.2482233,92.338165
1.3857974,93.484116
1.273025,94.55215
1.3789468,97.7753
1.3163724,99.08096
1.357226,97.17458
1.2656863,98.44329
1.3791875,102.78132
1.3979021,102.54739
1.3236088,98.96465
1.4054384,101.01857
1.3308494,101.24551
1.3650347,102.48661
1.2301555,103.84398
1.2926072,100.17007
1.3334059,104.05832
1.3366654,100.04198
1.2771086,103.69256
1.2831426,100.38286
1.27471,99.26982
1.1856682,100.0156
1.2377211,100.36666
1.1251892,97.56166
1.0578396,97.16625
1.1297067,95.85219
1.0536263,98.55191
1.0126808,94.45943
1.0469154,95.18491
0.9697062,94.1738
0.978313,94.47746
0.9441917,94.19078
0.95651656,90.604164
1.0638387,90.54243
0.9551418,90.348656
0.9467013,86.655235
0.89461166,88.89351
0.91941196,90.69688
0.8884043,89.424416
0.8928674,85.25046
0.8848661,86.73551
0.88722277,85.07497
0.830257,82.95217
0.8382046,81.99676
0.81407017,84.47674
0.7510314,82.02968
0.73642457,80.05806
0.5806291,82.07651
0.5708701,81.74256
0.5602114,80.374886
0.5658541,77.46995
0.5775416,77.22189
0.4886864,77.371666
0.49138293,75.693016
0.46652797,76.744835
0.4533336,75.06516
0.46436343,72.47746
0.3687027,72.98918
0.54178536,74.47642
0.4013814,71.20239
0.45234108,70.40848
0.48236227,70.99466
0.4787959,70.33265
0.44847876,68.024826
0.48516008,66.78335
0.33726272,69.3066
0.42721233,65.07137
0.33003375,65.59007
0.34873265,63.95581
0.32810584,66.24291
0.32799068,67.14681
0.1747722,67.39396
0.14500651,66.641685
0.19533913,65.34925
0.04914876,67.142
0.077476054,68.27929
0.107920595,70.58992
0.054691415,70.522705
0.14800349,68.89061
0.12207303,69.54706
0.18540683,69.879364
0.1843585,70.60134
0.16361529,71.73542
0.30492327,76.52791
0.3027202,74.37772
0.4621328,76.90842
0.45772803,78.73948
0.6341029,77.68836
0.5787593,83.25642
0.7910586,80.519005
0.8589438,82.198456
0.9195124,83.52648
1.0672718,85.90522
1.1546332,83.9727
1.16718,89.934784
1.1845924,88.87084
1.3889292,89.83612
1.3086249,94.76611
1.4568163,90.590294
1.5242115,94.88747
1.551828,100.340034
1.5686071,95.321
1.5696912,97.499466
1.6187935,97.07472
1.6077204,98.65486
1.6480137,100.68109
1.6187046,104.70133
1.6185473,100.063995
1.6024936,100.597275
1.6397166,100.00797
1.6024706,102.268234
1.5935735,102.90175
1.6291742,101.70138
1.5976093,103.478874
1.5994841,98.905075
1.535129,100.45587
1.4942445,101.2263
1.4820244,100.38935
1.4282689,99.55037
1.4149683,100.71961
1.3892543,93.81291
1.4383242,101.295105
1.3522242,96.44086
1.4350369,96.37604
1.3171337,96.25497
1.3826438,96.046814
1.4034796,94.717606
1.2872136,95.155205
1.3077395,93.640854
1.198241,90.91226
1.2493,92.47116
1.2677642,90.76178
1.201905,93.061035
1.1711612,87.034645
1.2917551,89.03597
1.1954795,86.08832
1.2086504,87.93023
1.1924083,87.17294
1.2672635,85.343506
1.1624486,84.669624
1.0853587,83.083275
1.1204524,82.51703
1.0077982,84.475624
0.99990296,81.45975
0.96671516,79.99915
0.9699953,78.18351
0.9643055,78.79067
0.8956328,77.6318
0.86957353,79.49465
0.7264355,76.152336
0.7405072,75.75
0.7579913,76.229
0.7912956,75.62585
0.7530103,70.70804
0.71183574,76.94598
0.73966354,74.5377
0.75667447,72.64036
0.7468261,73.16041
0.79163754,70.95743
0.7440833,72.08475
0.7311263,70.16807
0.6604022,69.40194
0.74526095,65.330956
0.70330286,67.39474
0.68957186,67.27509
0.6465416,68.246956
0.66431797,67.96648
0.5816248,67.82839
0.55775434,66.52181
0.54035383,65.446175
0.55042523,67.08812
0.52659386,65.999596
0.54495454,66.841125
0.45502406,69.66705
0.5558267,68.10388
0.47887927,68.62578
0.3895905,69.026405
0.52930194,70.16451
0.48241326,71.06173
0.56084275,72.77567
0.5201229,73.719345
0.62385076,73.97821
0.768398,76.78046
0.77975047,77.24082
0.8494053,76.04635
1.0032024,79.85911
1.0460254,81.98291
1.2155312,86.15379
1.264299,83.9821
1.2778409,84.5036
1.3703454,82.948845
1.550089,88.48149
1.5743706,90.489075
1.7322133,90.3889
1.6634012,91.21423
1.7350127,92.4548
1.847574,93.29207
1.9031684,97.48848
1.881728,95.10048
1.8783318,95.93659
1.9236499,98.38431
1.9428403,100.56952
2.0629292,101.36486
1.9770967,102.36949
1.8744105,100.1342
1.9783529,100.73741
1.9605176,101.90646
1.9303505,100.46064
1.8881793,100.49833
1.9457947,103.45261
1.9641024,101.37705
1.852169,102.34845
1.8841859,99.67024
1.810864,100.02223
1.8124294,99.98587
1.7556579,99.320526
1.8035136,100.37764
1.7278459,99.4451
1.7242951,99.10803
1.6015971,98.26526
1.5548339,99.93284
1.6146358,97.72124
1.6164272,97.60533
1.619756,94.92931
1.5580014,97.27142
1.577042,92.28076
1.5390941,94.467705
1.4960029,93.11192
1.4832585,92.41428
1.5974678,91.410385
1.5668311,88.391975
1.4802107,88.11769
1.4339738,87.56265
1.4373795,89.32273
1.4405291,84.61102
1.3493912,87.638855
1.448101,85.86836
1.3889772,85.961136
1.2295419,82.7764
1.29978,80.76313
1.2156547,81.356895
1.1270957,80.55504
1.1362633,82.572556
1.0795107,80.90131
1.0569246,78.776405
1.0114143,77.28534
1.0218961,77.68902
0.9407028,73.90802
1.0141416,76.22212
0.94575185,76.96125
0.9909114,75.86316
0.8873022,73.137
0.9775774,73.99249
0.9219833,72.361755
0.9499553,74.837204
0.9130011,69.90884
0.9158053,72.348564
0.9428164,70.00245
0.8885736,69.28656
0.81389695,67.05552
0.86053103,67.894424
0.903603,68.80782
0.7732028,67.669106
0.832108,67.28373
0.7351437,68.4301
0.68232626,66.64209
0.7514474,66.23328
0.63550174,68.132805
0.65669304,66.587616
0.5594661,64.562546
0.5580701,67.64236
0.5200126,70.351746
0.5152487,68.90414
0.53348655,70.84476
0.54117256,73.034195
0.64004326,71.33957
0.5416035,74.9735
0.6023618,72.22181
0.71234304,75.03769
0.7644139,74.71776
0.7585126,72.89703
0.88107204,75.49367
0.9120317,78.09419
1.045516,80.68739
1.0982968,80.11625
1.2118133,85.33226
1.3055856,85.09205
1.324706,86.464676
1.5143764,86.34904
1.5510434,89.38336
1.6045862,89.53521
1.5903561,94.04655
1.6736287,91.440765
1.7417881,92.354324
1.7533499,97.99315
1.7929726,93.89089
1.8705779,98.40305
1.8699383,96.764114
1.8268733,98.65371
1.845547,99.75411
1.8912902,99.743126
1.8715192,101.48665
1.9360015,100.466515
1.8776822,105.31743
1.8462344,101.54849
1.9229965,101.61351
1.82385,100.62991
1.8180743,103.53186
1.8416979,103.47882
1.8004375,102.77474
1.7584337,99.55894
1.7074829,97.509094
1.7172859,101.676926
1.6592878,101.99765
1.573413,102.53016
1.5709451,99.94314
1.5954051,101.00437
1.6026354,96.56139
1.4768515,97.68065
1.4360489,96.84191
1.4727771,98.60099
1.4298743,94.185005
1.4474242,94.57465
1.3721588,93.536285
1.4293265,93.62111
1.3650117,92.56641
1.3579868,91.96598
1.3290936,90.8238
1.3624982,88.36832
1.3354493,88.50513
1.2432355,86.98727
1.3363341,85.75915
1.2567029,86.99444
1.2372596,84.74564
1.0475832,84.425476
1.1189153,81.94595
1.1206874,83.806145
1.0884322,84.028824
1.0348943,81.74524
0.9410107,82.6219
0.9346777,80.412834
0.8986219,80.8744
0.80201346,74.74476
0.8022454,76.95298
0.72224337,78.07587
0.7565489,75.07856
0.70221096,79.226166
0.6985165,75.77625
0.672908,73.16236
0.72599494,74.56164
0.66810155,72.06824
0.7200552,74.47605
0.6552543,70.58263
0.7439166,70.63777
0.6869888,68.306244
0.6396194,68.04092
0.7955811,64.87839
0.68098384,68.12469
0.6392448,64.93995
0.6879591,65.285645
0.48796418,65.35364
0.4985958,63.332554
0.47123057,64.600204
0.44148195,66.77002
0.33122975,66.40281
0.38980982,71.249176
0.255423,65.86906
0.27695635,67.635704
0.18293284,68.17298
0.17251106,70.487206
0.30503184,68.30482
0.26091856,69.97175
0.22280332,71.767586
0.25870502,72.358864
0.31806296,72.909035
0.36143273,75.795
0.40590084,72.84422
0.5136743,71.92455
0.48791477,73.32098
0.69413334,80.534676
0.7688738,80.713
0.7229686,82.38973
0.88921064,84.80363
0.98581564,83.92731
1.1500254,84.64394
1.1079452,89.56685
1.2130897,91.771286
1.261159,86.53899
1.2871047,94.72049
1.3335435,93.3948
1.439393,94.465744
1.4391806,92.38832
1.5002668,94.67272
1.4653113,99.468925
1.5875506,96.70274
1.5350274,98.78744
1.546151,98.40543
1.510287,96.928055
1.6033382,101.356125
1.4598839,100.43972
1.5252221,101.47327
1.5759428,100.29794
1.4545697,99.50471
1.5395935,101.34972
1.4573829,102.75597
1.4288814,99.860794
1.449374,100.19338
1.4157267,100.33649
1.4374713,100.98908
1.4211946,102.07367
1.4357938,98.17153
1.358187,99.97253
1.2604797,98.20522
1.1834137,97.916115
1.2362963,98.873695
1.2150582,95.37647
1.1409322,99.10909
1.1114604,100.21285
1.086628,95.33505
1.1500316,93.94589
1.0358696,94.11611
0.977133,92.649475
1.049416,89.847855
0.98521423,89.41848
1.0084292,88.97385
0.9451492,90.30773
0.9757628,89.30362
0.932538,88.023415
0.89445776,87.144936
0.9539215,83.464485
0.84839165,85.52032
0.89739394,82.27862
0.81834525,86.54376
0.80543184,84.66053
0.7860862,82.55054
0.69570535,82.41587
0.6402217,80.85102
0.60719746,80.205986
0.4861528,81.776955
0.57949454,78.39982
0.47495347,78.88951
0.5125107,77.32538
0.5229727,78.06382
0.46745232,73.94486
0.45128292,74.75808
0.43608332,72.95713
0.34937197,75.01693
0.37315208,72.23937
0.42522055,71.7961
0.36881143,73.23666
0.37120226,71.02372
0.3239254,70.58842
0.315659,70.61084
0.37123582,65.9964
0.3582331,69.66482
0.330829,66.18155
0.30806848,68.421555
0.28213573,66.36424
0.16520078,63.620953
0.19454882,67.93366
0.1409655,68.11521
0.03250215,67.47971
0.0655575,67.35623
0.05257185,67.58029
0.03175418,66.8799
-0.07341627,68.7026
-0.08058261,67.10878
-0.05497167,66.05198
-0.01518237,69.755165
-0.0010526138,71.59361
-0.018868038,73.08486
0.051528636,70.76982
0.07156898,74.32462
0.13876432,71.657684
0.16654384,74.47248
0.37359557,75.22906
0.3856396,77.47893
0.4439188,81.66916
0.46732113,79.24326
0.5552,83.35904
0.6584515,84.4255
0.778134,83.47873
0.8752773,87.11603
0.96989906,87.69638
1.015543,85.448845
1.1742734,91.92217
1.1417898,93.31537
1.1541028,91.87228
1.2749941,94.0364
1.2181287,94.08941
1.233938,96.67078
1.3279973,95.99904
1.3679274,98.975105
1.3378675,98.15044
1.3356589,98.8922
1.4056135,99.069016
1.3654733,102.57833
1.398755,100.97312
1.3995551,99.29044
1.4296626,104.390366
1.3609864,102.03418
1.3184315,101.526566
1.2498468,100.51427
1.2375826,99.42853
1.2563703,101.75755
1.2376211,100.909645
1.2052919,101.00288
1.2021394,100.73818
1.276089,101.64427
1.2439581,100.88289
1.1145397,98.95577
1.1146466,98.19567
0.9810408,97.659546
1.0923347,93.26402
1.045127,94.854004
0.9761718,95.71861
1.0512531,93.36551
0.95230305,93.64816
0.90652514,95.13958
0.96327764,90.55833
0.9272947,91.64264
0.8929818,91.01192
0.8954029,90.22801
0.9184755,89.29113
0.9289066,84.278595
0.8363007,83.68787
0.91757375,87.608154
0.83967936,86.40174
0.84692365,83.64055
0.7929903,83.80044
0.7456109,86.71262
0.7062835,86.39042
0.77255744,81.97407
0.59122205,79.95774
0.633434,80.95664
0.56513023,82.439285
0.5049592,78.73234
0.57431746,78.509865
0.48099622,76.62091
0.5419008,73.96105
0.3690821,73.628105
0.40145552,74.6012
0.36380395,73.89089
0.4567579,77.99996
0.36644447,72.06967
0.3503179,73.11284
0.35262564,73.86411
0.36923376,70.24617
0.3608455,70.6224
0.32273802,70.028984
0.34120953,71.23714
0.35226998,67.92288
0.4360685,69.20507
0.3221513,69.25851
0.291333,64.48809
0.3138131,68.75073
0.25246662,63.62418
0.23121963,65.33509
0.1771793,66.96036
0.17907451,63.55972
0.099640466,66.383026
0.15606467,66.61286
0.0130479,65.5442
0.057266146,67.71124
0.017700149,67.0159
0.15721224,66.71188
0.08836625,70.862274
0.13361995,71.39594
0.11246404,69.61069
0.24690704,70.55793
0.28144863,74.71223
0.2641792,75.666954
0.3974983,77.45151
0.4468472,78.20694
0.5517364,80.345116
0.6588306,79.06418
0.6862783,81.24534
0.81338304,81.79973
0.9190159,86.62215
0.99475574,84.74905
1.0389498,86.90068
1.1153375,90.32371
1.1457188,87.53672
1.2539155,90.11967
1.3103489,93.062004
1.4443479,93.785576
1.3995706,96.24611
1.5034814,95.44266
1.46304,96.505424
1.4946707,96.692345
1.4490668,101.54009
1.6369205,96.618385
1.5379115,100.81861
1.6003782,101.96677
1.5361111,101.82356
1.6319665,102.646255
1.5593985,102.70948
1.5147251,100.947975
1.5452648,104.52676
1.5935092,104.73397
1.5822064,104.38146
1.5976111,105.73498
1.5070702,102.56125
1.4066339,104.41667
1.4416342,102.283134
1.4617475,100.85896
1.4067827,97.392975
1.3905252,99.36494
1.442508,98.8093
1.3101052,98.76135
1.2544787,97.676926
1.2233053,98.68676
1.239949,96.24922
1.2396747,99.90635
1.2294887,95.275185
1.2137921,93.34518
1.2419482,90.763756
1.2231236,92.41518
1.2540447,90.596306
1.1912292,91.82975
1.2798942,90.0861
1.2248368,85.29151
1.1955471,87.92287
1.180341,85.27751
1.0825689,86.923355
1.1229378,85.84735
1.1227728,86.7553
1.063009,82.00534
1.0206871,83.12682
0.98938245,82.48812
1.0170686,81.8567
0.9787312,79.533905
0.9268331,82.55001
0.95811087,79.853935
0.84345573,78.79468
0.7655718,79.743935
0.8042618,79.01526
0.7480416,78.33345
0.74603033,75.10621
0.6590311,76.24081
0.7917197,74.900185
0.7073942,74.06251
0.71954143,72.93999
0.70549744,71.76371
0.6683709,72.36824
0.7307371,71.08884
0.72621727,68.317696
0.73839396,66.97516
0.6600057,69.18579
0.7265491,69.954025
0.6700242,67.025055
0.59754056,67.111755
0.72872865,65.47026
0.5089776,69.72892
0.5497848,67.831184
0.5759919,65.866104
0.5519989,67.29493
0.50090647,66.831635
0.50421154,68.33454
0.45182493,67.106125
0.45178288,68.79831
0.4098854,68.850136
0.4503198,65.40544
0.39127207,72.178375
0.42148784,67.39932
0.47234425,72.42116
0.4632535,72.773705
0.50950927,73.35256
0.7067524,75.8699
0.6000459,76.74183
0.6743359,75.324036
0.80955976,78.069595
0.91008294,78.15773
1.0982167,80.544426
1.1125005,80.65409
1.2122748,82.94516
1.2956898,83.11077
1.421134,89.11012
1.3793948,87.58911
1.6079038,92.070366
1.6458914,89.54019
1.7376676,92.937004
1.765891,92.65796
1.8485126,94.269035
1.8175604,95.23141
1.8048136,97.478355
1.7934515,94.81106
1.8064562,98.77226
1.9091622,96.7879
1.957467,100.84385
1.8830051,99.486275
1.8799498,100.70282
1.9121205,101.14015
1.8984311,100.21555
1.8808686,100.344215
1.8963183,103.12801
1.7669256,103.46538
1.8725591,100.1567
1.873089,100.13744
1.7850233,99.93756
1.7877246,100.63334
1.7642595,103.775406
1.7628827,100.90799
1.6101229,99.832855
1.6629177,102.0336
1.6706818,100.409744
1.5971117,99.09851
1.6147311,100.443184
1.5907038,96.79553
1.627666,96.02577
1.6327142,96.78157
1.6830363,96.04526
1.4846443,90.230125
1.4706832,95.99404
1.5139251,91.40015
1.4170945,93.37481
1.4479723,89.392136
1.3992629,89.40655
1.4807336,89.66498
1.4198718,90.14291
1.3456746,87.719025
1.4367791,86.25804
1.3940053,85.907364
1.3591981,82.70316
1.3081965,84.47443
1.2670596,83.20313
1.3020173,81.713455
1.1908499,79.79487
1.1435888,78.84288
1.2191446,80.956474
1.1688268,82.90431
1.0831664,79.27379
0.98461264,81.56391
1.0332123,78.19523
1.051519,76.049675
0.9115012,73.29135
1.0172081,74.63428
0.93851227,75.8684
0.8819353,74.38914
0.9514289,74.61763
0.93067735,70.82773
0.99506634,69.72803
0.9588461,72.27173
0.95138013,69.86888
0.9484113,70.63995
0.9316273,69.2658
0.88308376,71.24723
0.9064719,67.80807
0.8740052,67.376305
0.86586034,66.78667
0.816111,66.91922
0.72064656,67.531006
0.7208379,68.65229
0.6982057,64.53574
0.6516118,66.33956
0.69376206,67.80796
0.626705,66.653015
0.57625455,66.62093
0.4644044,68.48379
0.5178301,69.689926
0.6317525,66.127655
0.56534994,69.87343
0.58978486,71.95801
0.58964986,67.75672
0.5652892,72.43197
0.68326056,76.345055
0.8091057,77.077
0.83173794,74.85338
0.93578273,76.47441
1.0026511,80.43066
0.9876258,78.69541
1.1248538,84.33144
1.1822963,86.010796
1.3752772,82.36839
1.3681203,87.24491
1.4945102,89.39897
1.5369569,87.42845
1.6289558,90.46457
1.7317677,91.07607
1.7192142,95.0819
1.8200783,92.76434
1.9014875,93.709404
1.8064342,98.190575
1.8966646,97.351234
1.8721396,97.030266
1.8773744,97.05248
1.8788865,100.05257
1.8808036,98.7672
1.8636459,100.83002
1.8737575,102.20486
1.9216945,100.38667
1.8856146,102.04594
1.91942,100.00811
1.858456,103.13494
1.8009611,103.787796
1.8944337,102.61937
1.7943726,101.185005
1.8062632,102.91303
1.7223519,101.60263
1.7545011,101.56546
1.6742299,99.981804
1.6493646,102.63331
1.6477951,100.33958
1.6615129,95.9575
1.5632995,98.97121
1.4365138,96.36624
1.5175947,96.50414
1.5238136,93.014854
1.3893507,95.68772
1.4262587,95.65164
1.4753631,92.21131
1.427092,92.19866
1.3722832,91.62921
1.392478,91.139336
1.3681226,90.57316
1.3939639,90.0914
1.3841412,88.2772
1.3716058,86.017494
1.3336493,88.8473
1.3201222,88.82559
1.1956942,87.013
1.2834318,84.03565
1.1492561,83.71594
1.1923525,83.40543
1.1381037,80.83967
1.104629,78.390724
1.0348148,80.08796
0.9584957,79.4251
0.94774383,80.969696
0.8630633,79.32403
0.86972535,80.47946
0.8266468,78.11048
0.8541896,76.02633
0.8010624,78.974014
0.81406784,71.81283
0.75612783,74.47674
0.71197176,74.27015
0.6426504,72.11237
0.68289113,72.98077
0.66391355,71.57431
0.7421667,68.752335
0.6843344,70.13395
0.64825255,70.12799
0.73825294,70.48202
0.62413317,67.09831
0.6186,66.204056
0.6432292,67.25247
0.5511093,66.10065
0.5328255,66.19021
0.49260458,66.6013
0.44924682,63.75696
0.42322242,67.53844
0.4316559,64.14874
0.32964167,68.36465
0.30245116,68.31168
0.3030867,65.31473
0.31661952,69.034935
0.3159888,73.36365
0.2785835,69.41341
0.3133976,74.170715
0.34610122,69.33076
0.32696736,70.59359
0.43455493,72.40666
0.46220386,76.2659
0.50015974,76.38522
0.5654685,76.140594
0.6611172,79.2569
0.68122673,77.83852
0.78265494,79.62759
0.8742335,84.54452
1.0529497,84.18799
1.128924,85.86491
1.2918091,88.528465
1.2057931,88.87807
1.3563919,87.81503
1.3781866,90.060486
1.415875,93.92789
1.403441,94.96122
1.4953356,93.663826
1.5253628,95.63606
1.5048149,96.0533
1.6185689,99.01699
1.5499362,97.715324
1.5746626,98.79021
1.6355739,99.63105
1.6065345,101.99152
1.6434817,100.20337
1.6652364,99.59707
1.5351815,100.084404
1.6548576,100.77062
1.5105996,103.75404
1.552423,99.49181
1.5299121,100.2581
1.5911798,102.64005
1.4033308,104.01122
1.4428891,104.093994
1.365524,101.67033
1.3639005,103.15394
1.4264205,99.24403
1.2972503,102.1175
1.2210428,98.56206
1.195139,98.27377
1.2467431,100.004166
1.1715422,97.2485
1.2024442,96.94872
1.1293373,94.35673
1.1399165,95.99716
1.0829388,92.30757
1.1504935,95.582
1.0920976,92.54724
1.0510974,91.39789
1.0036001,90.787224
1.0921191,92.15615
1.0369381,86.02682
1.0151168,89.93987
0.9716738,89.97545
0.94547164,86.09333
0.9764173,84.380165
0.91489154,84.00508
0.91247284,80.709145
0.97441715,83.02302
0.7933447,82.60955
0.7110703,80.4173
0.68375516,81.763794
0.69224256,81.76051
0.6441068,78.69172
0.5349777,79.190445
0.5934142,79.59041
0.5243127,75.32246
0.4738985,75.4614
0.40946358,75.43086
0.5010971,72.608574
0.43795773,72.64627
0.35108796,76.366135
0.46988758,70.57919
0.4202376,70.21018
0.37090814,70.52846
0.3858736,68.98908
0.41646278,70.06982
0.35333955,70.35809
0.319659,66.38873
0.3305792,69.55753
0.33138648,66.61509
0.37236702,69.54826
0.22313681,67.87972
0.23446435,66.68152
0.19096527,66.03174
0.10523134,66.847984
0.10666034,65.03599
0.10720932,66.32919
0.07360168,64.994705
-0.002898208,66.54006
0.06827045,68.27579
-0.12201956,72.19639
-0.013490835,68.580696
0.004860043,68.14811
-0.010863821,69.608284
-0.017046923,70.72402
0.13125001,75.97278
0.037368763,74.30452
0.1638997,75.72524
0.27004212,74.73152
0.4135441,76.959854
0.34875745,73.91737
0.43247223,81.4002
0.48646417,78.712715
0.6804345,82.61747
0.72634536,85.99055
0.6642744,84.62605
0.7962632,86.20154
0.96978223,85.842995
0.9718725,88.197
1.114308,91.697655
1.199296,90.434715
1.1616421,94.453384
1.2850186,94.138695
1.283519,95.126335
1.2686027,97.398254
1.2363231,97.73878
1.3341391,100.9206
1.2623352,97.779335
1.3211203,102.57718
1.26679,101.80572
1.356152,101.333145
1.4149148,101.72068
1.3890274,102.97184
1.406745,104.50827
1.3246408,102.70006
1.3546845,102.4671
1.3746299,102.324585
1.335956,99.571915
1.3080275,101.045654
1.2948465,99.70348
1.2573923,101.5286
1.1407518,98.77601
1.2247239,102.30405
1.1553166,99.583954
1.0790942,99.12292
1.0944291,95.15902
1.0416044,95.31728
1.0492991,94.34094
0.95401675,97.804306
1.0615163,93.59558
1.0197189,95.14396
0.9814237,92.01102
0.94161683,92.85596
0.9783857,92.535545
0.8163179,91.68736
0.8622706,89.58621
0.95158595,88.99084
0.83670783,86.22583
0.90935135,88.19423
0.886012,88.07777
0.8225202,85.319214
0.7414662,86.99012
0.84671605,84.889984
0.7765901,86.364044
0.68120897,83.90822
0.74323475,81.032974
0.59216714,82.07612
0.60543305,81.85689
0.6221152,79.99249
0.61387163,78.94108
0.53364956,77.41615
0.54583913,77.9518
0.53594184,78.347786
0.47758865,76.5235
0.3798145,76.68873
0.37857753,77.62249
0.3926963,72.49413
0.37251827,74.642105
0.41741332,73.005356
0.35805863,71.06403
0.39411655,68.02016
0.33171692,71.943825
0.30799034,69.985695
0.41901276,69.82373
0.3676503,69.93351
0.35518703,70.892654
0.29390272,67.31001
0.36909083,68.04532
0.27904615,67.23324
0.21668622,66.9801
0.20440364,67.65521
0.2521364,67.0559
0.12859543,67.412796
0.104856096,67.43085
0.072537534,66.41131
0.08994445,65.39252
0.018896546,67.48042
0.016849816,65.76353
-0.01918261,68.74413
-0.012564835,72.07883
0.03428812,70.91223
0.072477,73.541695
0.1195895,74.64905
0.119898245,73.47956
0.20147249,71.74861
0.20990743,73.33174
0.3739482,73.71315
0.42924628,76.54521
0.5579112,77.053925
0.5629965,79.37425
0.76652896,81.97818
0.76654404,81.7327
0.9348294,82.73076
0.9315601,85.01844
0.98234695,85.93092
1.0402874,88.255486
1.0758263,92.60687
1.2876533,88.6261
1.3307909,93.21012
1.3192204,92.46795
1.3332756,95.31409
1.4784999,98.67002
1.5168444,97.3139
1.5313762,98.59326
1.5382235,98.004974
1.457045,100.94511
1.4966658,98.513374
1.5998993,101.869064
1.5873536,102.83315
1.4866042,102.84321
1.6136276,98.842255
1.4790883,103.804504
1.5398104,102.37593
1.5149286,100.609215
1.5183681,104.10503
1.5587484,102.019325
1.5062852,100.65676
1.457268,102.029854
1.4603168,99.71867
1.375183,100.76825
1.3451841,101.181984
1.3200872,98.69919
1.3198512,100.385864
1.2749828,96.191185
1.2205397,96.51125
1.2823576,94.482155
1.2472734,96.66655
1.1470752,94.0621
1.2010033,93.547134
1.2211181,93.337524
1.1627349,94.266045
1.1904322,91.66238
1.17666,93.03282
1.2352887,90.59107
1.0924213,90.57167
1.0891825,87.14729
1.1524626,89.40094
1.2040706,85.36052
1.099318,86.80828
1.037837,83.16949
1.0745217,83.30594
0.91432446,85.58498
0.9790672,81.16893
0.9881329,85.4159
0.9211512,81.22323
0.9246384,80.89941
0.77735335,77.51356
0.8964704,80.99903
0.74114573,78.9705
0.770022,79.00621
0.733204,77.40356
0.7774592,77.10278
0.654192,77.70616
0.7800743,74.614235
0.703555,73.83625
0.7020889,73.71298
0.7353483,72.92454
0.6781408,70.83254
0.6631552,71.25883
0.710508,72.71322
0.58174956,70.26171
0.65680504,71.45177
0.67383206,70.09678
0.69944525,70.56969
0.6916332,66.75921
0.66518307,66.86683
0.6103835,67.68872
0.69219106,68.9563
0.57733583,67.634964
0.45199096,64.72865
0.45850715,67.88583
0.44983667,67.11622
0.40922484,67.78158
0.41153327,67.91986
0.43949154,68.0666
0.32966286,69.60598
0.33492535,70.99671
0.39389807,69.55598
0.36976412,73.40217
0.42554042,71.50529
0.40506297,73.08204
0.55392456,77.53586
0.57081705,75.581345
0.6687656,72.33028
0.72067827,79.082
0.8051974,81.63339
0.8926629,77.88711
0.9526925,81.27259
1.1176783,82.99703
1.1606095,85.82999
1.2319094,85.42539
1.3912833,86.75937
1.401215,86.62286
1.4809555,92.72798
1.4895601,90.38657
1.6284505,88.991615
1.678254,94.88358
1.7826889,93.45081
1.7635777,91.47651
1.7266827,98.33894
1.828661,98.24631
1.7691327,94.66695
1.8732599,103.23467
1.8866029,99.601295
1.9453934,100.7894
1.9064375,102.07814
1.8579271,99.98367
1.9164691,103.55377
1.8738339,101.034775
1.8806988,99.64666
1.8441274,102.494446
1.9070892,103.7266
1.79643,101.757904
1.7901124,102.189705
1.7181928,100.19704
1.7916511,104.13542
1.7551527,100.65954
1.659759,100.290665
1.6909144,100.70117
1.6808765,99.77748
1.6531068,97.79765
1.613232,97.62564
1.590182,98.1046
1.4828154,96.533585
1.5213672,95.456764
1.5286586,95.470024
1.5475786,93.34472
1.413151,92.94827
1.4620051,91.55546
1.5674618,89.638916
1.4524181,90.51718
1.4647927,87.820694
1.4655273,87.90488
1.4662054,89.0806
1.4669796,84.36537
1.3973069,87.33643
1.3081326,83.406395
1.4475079,84.660255
1.3195002,85.44325
1.3584639,81.86519
1.2940458,80.77311
1.2694172,82.27604
1.1226999,81.30465
1.125709,82.815
1.1723047,82.98903
1.0600218,77.36861
0.96397567,78.26439
1.007933,75.660095
0.9578422,77.02913
0.9754937,74.866
0.93819165,76.4804
0.94497746,73.804756
0.9458107,73.195175
0.95249575,73.03512
1.0217222,75.06027
0.9360693,72.69445
0.9191082,69.21293
0.903558,71.98612
0.9029792,69.88381
0.8913967,69.17067
0.8886957,66.46042
0.8596272,65.77566
0.9059153,67.07969
0.880954,69.55732
0.7774752,67.711464
0.731677,66.90989
0.7778072,67.498405
0.6667322,66.24981
0.6506404,66.51173
0.6188762,66.734314
0.53421515,65.6082
0.5624578,66.64962
0.51446176,67.62359
0.56140614,67.239525
0.5693245,70.61403
0.4813518,68.55219
0.61317927,69.6565
0.6377272,71.744316
0.7173414,73.17488
0.74236923,73.298706
0.7679218,75.880196
0.8725645,77.69072
0.93240255,79.08758
0.9791004,79.46234
1.0095811,81.47183
1.2215736,79.34857
1.2798264,83.03603
1.4133302,84.28233
1.425894,85.03886
1.5979197,83.39865
1.5325147,87.29436
1.717791,89.66754
1.6196467,89.262955
1.7175381,92.69535
1.7878773,91.72552
1.8780979,94.059784
1.8678672,96.55349
1.9224541,97.18329
1.9293895,98.361786
1.9565368,96.57158
1.9264234,100.16603
2.011541,99.68072
1.9893104,99.95211
2.0741808,102.735695
1.9401642,100.74351
1.9698601,101.43687
1.9242058,100.63758
1.8862734,102.34181
1.8621184,103.68597
1.7962046,99.13515
1.865347,100.23285
1.8743056,102.56628
1.8290099,98.334885
1.7298857,101.6187
1.6956425,100.58801
1.6726834,99.60134
1.6283966,97.71067
1.5905838,99.57021
1.53597,96.63752
1.6238382,97.903854
1.4960599,95.06205
1.523838,97.045586
1.4903272,96.59649
1.4742886,93.70429
1.425095,95.07863
1.5007446,90.395935
1.4141738,91.78438
1.4359179,91.99918
1.4336805,90.998764
1.4243982,86.73703
1.4218078,91.664314
1.4032876,88.556015
1.3152614,90.97452
1.3155229,88.05476
1.2464821,84.59142
1.342066,85.02486
1.1781315,83.59912
1.1703836,82.67763
1.1989797,85.42177
1.0954626,80.04353
1.0939678,80.00494
1.074809,78.44898
0.9653949,81.578094
1.0104538,80.23807
0.87830544,79.27416
0.8650091,75.07488
0.9125949,74.184296
0.8015904,79.10636
0.67141753,74.0025
0.7712733,72.59983
0.86052483,73.22197
0.7385122,73.32548
0.7673655,66.76494
0.79204065,69.74212
0.7887303,68.32757
0.8287458,69.29934
0.7301978,67.04739
0.6907269,70.05087
0.8084656,67.47609
0.6810425,67.715904
0.6416698,68.8321
0.6630098,66.73111
0.64041555,66.383865
0.5593477,62.792553
0.46053115,67.930214
0.4936118,64.92649
0.39302313,67.79651
0.38389814,66.66462
0.38338286,66.33164
0.39912057,65.964035
0.31047708,68.32125
0.2803312,68.53001
0.3578343,69.98951
0.35852015,71.41941
0.3295605,70.72175
0.49948215,72.77737
0.49079582,73.28085
0.526027,75.86762
0.50384027,76.01736
0.7086231,80.04314
0.7796533,76.20222
0.7847636,80.1347
0.97067475,80.76933
0.9520756,85.1082
1.0318203,84.720116
1.2108214,87.254715
1.2383674,84.9108
1.2759345,90.1838
1.2948028,90.824
1.3817548,88.66009
1.5511601,92.71858
1.4541146,95.92581
1.5883709,96.18619
1.4786831,96.40852
1.6130724,96.43423
1.5662404,97.037575
1.6530954,100.46082
1.6441447,99.56633
1.6330268,99.59065
1.6835086,100.475334
1.6775445,101.20895
1.6403737,102.135
1.6236669,103.127884
1.5902269,103.811066
1.6198049,101.668144
1.6171478,100.26918
1.55216,100.68988
1.5927593,103.58091
1.5993211,101.964
1.4592304,101.53198
1.4230211,101.730576
1.354514,100.332436
1.3296268,98.88728
1.3697673,101.13783
1.3450845,98.32805
1.3219188,97.98678
1.234514,98.57035
1.2446082,97.97518
1.1243072,95.95906
1.1022301,97.65496
1.1612703,94.95852
1.1490749,93.65661
1.178021,94.13016
1.1422067,89.191025
1.1732095,91.66593
1.0343841,87.816864
1.1001517,88.31157
1.0547664,91.12561
1.020662,87.53702
1.0249112,86.09295
0.97956276,86.91619
1.0075098,86.91217
1.0129296,86.17698
0.85724676,84.12323
0.7803315,85.422035
0.8581211,81.6863
0.7844554,84.3452
0.7686122,81.78361
0.7291288,79.8789
0.62076724,80.34853
0.6311017,78.429214
0.5421914,78.76059
0.5600408,75.74176
0.5799145,76.75282
0.56140065,77.83195
0.4981033,75.793335
0.42417383,74.72324
0.44552794,73.15275
0.46440735,73.62169
0.45048335,70.475464
0.36903805,71.03406
0.36491755,68.52117
0.3858616,72.1332
0.46366158,72.19211
0.41268167,67.346245
0.41274422,68.39471
0.33306104,68.738106
0.30057126,68.681816
0.2554376,67.950325
0.2313745,66.865814
0.23708321,64.766106
0.18214689,67.69751
0.14674382,69.5381
0.18550962,64.9766
0.083101876,67.48767
0.046222497,69.64893
0.08105791,65.7656
-0.04833996,68.29738
0.021628482,69.79345
0.056891736,71.07436
0.07216043,69.93621
0.018538097,70.434074
0.14846988,69.948395
0.08363064,74.12258
0.1290849,74.49753
0.27131304,76.93231
0.34858495,75.03714
0.33581507,76.549736
0.45117098,79.955124
0.54124177,80.6212
0.63824904,82.51523
0.7189654,82.742744
0.79275405,82.84952
0.8564426,86.88807
1.0379692,85.4204
1.07092,90.36606
1.0345957,89.571526
1.1084017,90.91426
1.1584685,95.14352
1.2614758,95.29529
1.3203201,94.39966
1.2483504,96.94783
1.2966162,97.62313
1.3608565,94.98809
1.406537,96.94255
1.4515408,100.52161
1.4560858,100.06498
1.3634269,101.300476
1.300495,101.47305
1.3893402,100.780754
1.3995087,100.46234
1.3498684,102.9361
1.3271004,101.864944
1.2894729,100.220314
1.360637,103.78119
1.298786,102.992294
1.2428973,103.065796
1.2729892,100.49866
1.226128,100.43881
1.2671705,100.45142
1.0826526,100.62043
1.1307418,102.21906
1.1129993,98.99509
0.9821874,100.947845
1.060244,95.603355
0.97916925,97.37005
1.0406022,96.10465
0.9291302,93.21145
0.87056494,93.32887
0.90116966,94.34998
0.95513904,93.35428
0.8890514,90.841805
0.86498994,91.23491
0.9424149,91.383484
0.858252,89.303604
0.85976464,88.66953
0.9306466,90.48318
0.859783,86.32417
0.80089223,86.430855
0.7273434,84.17116
0.72010845,84.10169
0.68786144,83.00229
0.7071312,79.040886
0.6727066,83.03094
0.6325817,83.04043
0.64500624,79.88926
0.5804206,82.34344
0.56601596,78.88308
0.44652343,76.89077
0.5097856,76.345474
0.45846608,78.08403
0.4395261,78.44109
0.323346,75.10967
0.22166564,74.883514
0.41410032,72.94415
0.35615733,72.74027
0.3129003,74.964584
0.295431,70.39797
0.38161424,71.65495
0.3767891,71.82907
0.3623937,71.37684
0.29679585,70.12172
0.39514607,70.59397
0.30387378,67.82579
0.2961862,68.25448
0.26681727,66.9093
0.23576209,66.745514
0.1759897,67.564766
0.16001338,68.27431
0.20316425,66.54849
0.10967989,66.16992
0.082754456,69.08438
0.084964305,65.48942
0.11739226,67.89892
-0.058449525,69.53044
0.03604239,68.55342
-0.0478855,71.02096
-0.056951735,70.30424
-0.03132978,67.69232
0.0015279609,71.93794
0.07556429,70.85798
0.27158374,75.020645
0.17874494,76.136284
0.30993432,73.47636
0.40402648,76.22716
0.44946295,77.96556
0.5913465,82.445915
0.6251819,82.90209
0.72836286,82.67658
0.8296646,84.12261
0.8771798,83.03607
0.97941244,87.71845
1.0635825,87.23968
1.0577319,88.87639
1.1953235,90.69453
1.2125138,91.180405
1.2897687,93.6059
1.3028309,97.586784
1.3860084,95.1992
1.3272418,98.52844
1.450138,96.20982
1.5788827,99.68724
1.4646956,100.30999
1.5114366,101.13185
1.4394783,102.17744
1.4733444,100.00457
1.3953496,101.21715
1.4638542,103.16726
1.4577785,103.018654
1.472401,101.45477
1.4794625,103.7741
1.3872582,101.57695
1.4314228,100.66617
1.4026974,98.61892
1.4340781,102.886375
1.4097736,102.48573
1.3337052,98.63494
1.3220204,101.29142
1.2851123,99.76156
1.2798374,97.12302
1.2648259,98.31166
1.2204542,97.04634
1.2054415,96.49637
1.1244327,92.03586
1.2174063,97.05576
1.2091396,93.49906
1.0675297,94.79346
1.1059164,90.7143
1.0977739,91.04694
1.0679108,90.25496
1.1102651,90.544525
1.0797901,88.39001
1.0173473,89.67173
1.1183159,86.53297
1.1619375,84.32633
1.0620716,84.63673
1.0524613,86.71189
1.0741633,82.2046
1.0121529,85.86851
0.8101965,84.9336
0.93941355,82.133026
0.83859617,79.76191
0.87115747,80.79399
0.8037181,80.47748
0.84179145,78.75604
0.6895176,82.332726
0.71204406,77.796196
0.6936052,76.79687
0.66087586,78.47093
0.6503344,75.47784
0.6442849,72.74781
0.6356855,75.48397
0.6674017,75.63168
0.7051707,73.00964
0.6392829,74.44077
0.62133414,68.739746
0.5401173,72.00879
0.7588685,68.048035
0.6440367,70.04234
0.66988707,67.7326
0.6634412,66.809166
0.6455028,66.03563
0.5569836,66.2108
0.5512316,64.74284
0.4945082,69.500534
0.5286215,67.189186
0.48326078,67.12273
0.50431406,66.46254
0.43810195,66.4608
0.42147538,65.791954
0.34323868,64.53642
0.3424424,69.11067
0.31900862,69.97131
0.35256943,69.025444
0.29738194,72.428604
0.32512817,72.64699
0.3886249,71.22519
0.48837334,68.45003
0.456419,74.797264
0.5462652,75.15395
0.6656083,74.74456
0.67297196,75.148
0.7812796,75.323
0.8306956,78.606064
0.913635,83.83409
1.0933225,82.579895
1.074598,82.870895
1.2002075,83.98543
1.3179905,84.60246
1.4150765,85.57237
1.4859548,90.1202
1.5489652,91.17223
1.5702182,91.967316
1.5160311,92.47112
1.6030626,97.5056
1.6920348,95.396416
1.8574202,96.44105
1.7968574,94.17693
1.8080775,100.19248
1.7811235,103.22759
1.9206308,99.400665
1.7404034,103.215004
1.8083527,104.497856
1.818071,103.36468
1.7994441,104.33824
1.8575007,100.397255
1.8368218,100.507095
1.7421882,101.38094
1.8427783,104.62173
1.7672464,100.21232
1.8110858,102.46033
1.705308,103.706055
1.7377498,102.25447
1.7017523,100.861305
1.6960739,100.53359
1.7000751,98.242546
1.671951,100.189644
1.6373683,98.88461
1.4608681,95.10613
1.4229484,95.85136
1.5318384,95.501366
1.5466429,94.482254
1.4578259,97.65603
1.5136983,95.067696
1.473226,91.93334
1.4375967,92.084435
1.3879008,88.36765
1.4184204,89.928505
1.4296052,90.291275
1.3515062,89.934326
1.4090024,90.61401
1.419206,86.89537
1.3291802,90.10572
1.3123686,82.941246
1.3403231,85.832794
1.2766356,85.307915
1.2867428,82.72302
1.2200805,78.06612
1.2261368,80.06899
1.0913305,81.52999
1.1000197,81.746254
1.0510176,79.68353
1.0055838,78.67347
1.0168942,75.30935
0.9414942,78.77739
1.0017924,77.21725
1.0022908,76.48397
0.9264972,74.83605
0.88758093,74.89665
0.9293529,74.871
0.85616034,73.419586
0.8873129,71.123825
0.88753223,71.83187
1.0004858,72.092804
0.97823715,68.66318
0.950559,68.13798
0.936178,69.14667
0.8748251,70.339874
0.828705,69.88924
0.83445364,68.45362
0.7991581,66.02897
0.73601604,65.52804
0.80673,65.715515
0.65907097,67.1443
0.6523604,66.64199
0.6552499,68.29653
0.6302687,66.35297
0.5755711,65.96103
0.54619586,65.48744
0.50813496,70.945724
0.5264195,68.776184
0.57100767,69.12738
0.49891573,68.41578
0.5886004,71.83676
0.62922865,72.720894
0.68674874,74.23099
0.7528863,75.80826
0.83975565,76.70136
0.9417143,75.59276
0.8780533,78.83802
1.010739,77.49938
1.1010311,79.719444
1.1568552,81.722534
1.3215134,80.017975
1.3928292,84.20856
1.390582,86.82656
1.5478543,85.22985
1.6116813,89.6329
1.6342713,89.78093
1.7762686,91.56588
1.7510068,96.282036
1.7406316,91.6036
1.8135756,93.267715
1.9236314,95.13181
1.9503872,99.923294
1.9177622,95.74472
1.8836697,98.68123
1.9946042,100.072334
1.955054,101.63767
1.9299052,101.28081
1.9220761,102.353355
1.9713402,100.49661
1.982267,101.35647
1.8673631,99.29662
1.9670091,101.03541
1.9086914,104.321304
1.8635745,100.65298
1.7267686,101.69811
1.8584855,101.308815
1.8028569,101.12799
1.8110822,101.393936
1.7373172,98.01991
1.6592861,99.39562
1.660971,98.171524
1.580534,99.264694
1.7201409,98.12604
1.5992447,98.05322
1.6119355,96.53096
1.6117407,94.77836
1.5498718,96.2928
1.535436,95.85988
1.5749371,91.44176
1.4854703,92.784645
1.528318,90.48237
1.4416437,92.42786
1.4672061,92.47109
1.524678,88.241486
1.3940325,88.184326
1.4438192,87.4563
1.3310245,86.59641
1.3508174,85.04598
1.3642154,86.197334
1.332528,86.730606
1.3290507,85.34618
1.1764263,82.231285
1.1257583,83.00569
1.165088,80.64192
1.1540153,79.00375
1.0985032,80.248245
1.05308,79.30768
1.0915197,78.24891
1.0201848,79.577286
0.9347295,76.874435
0.89022243,73.78904
0.87851846,76.016
0.8299389,74.69169
0.8548046,75.01562
0.83504575,74.20836
0.7379036,71.93917
0.8315111,70.85356
0.7784542,69.24853
0.8998978,69.16819
0.84482145,70.351585
0.80930483,69.80331
0.75050896,68.77957
0.7865639,68.91399
0.8475263,66.96799
0.6309393,67.1179
0.76379454,66.09982
0.61229175,66.029175
0.53202385,64.15876
0.5804696,64.255394
0.5997962,66.81437
0.45330197,67.54102
0.5263091,67.88631
0.4057459,65.20789
0.3219573,66.176315
0.42202035,68.41146
0.39134133,69.94517
0.4098946,69.91131
0.38188052,69.42415
0.49422318,71.95911
0.42992553,70.64546
0.4666781,76.14364
0.48265415,72.931946
0.59610105,77.38293
0.6801107,76.0375
0.80222905,79.64862
0.81138885,78.96266
0.94742763,81.32667
1.0143592,85.14601
1.0535234,82.68657
1.1654695,84.20555
1.2916265,85.90555
1.343899,89.66638
1.3885856,91.19526
1.4697692,92.37106
1.5237741,92.21761
1.4785799,93.8924
1.4971724,91.1612
1.5735507,95.54969
1.6692165,98.49281
1.6614115,99.67482
1.6554563,99.60701
1.6843404,98.3051
1.766486,100.03057
1.6890076,102.31952
1.7447761,100.87491
1.5998138,102.67098
1.7096184,102.243484
1.7415048,102.95218
1.6536359,101.28331
1.6697648,101.378075
1.6240542,102.23748
1.6028117,101.04208
1.4815339,101.58441
1.5080123,101.91378
1.5110433,102.58573
1.4430645,102.19052
1.4877704,99.64575
1.4113511,99.051575
1.3367391,96.47561
1.3371418,94.91216
1.4250603,93.8778
1.2913995,96.35076
1.2616265,94.69197
1.2493654,93.5381
1.2291609,97.39749
1.0908289,93.644844
1.1697863,93.60206
1.1065679,93.45706
1.1804371,90.6115
1.1176857,88.752556
1.0842679,87.55077
1.1669213,89.47687
0.9960549,89.34904
1.045696,88.93448
1.0052549,89.121635
1.0806623,85.96324
0.9255306,83.57585
0.98882693,84.407715
1.0043073,80.38195
0.88798004,80.77987
0.8946872,80.392334
0.75632757,80.68033
0.74011624,79.780754
0.7641345,78.42089
0.6353956,75.23496
0.5783361,77.20537
0.5341901,75.03158
0.6058189,75.57852
0.6117751,72.876884
0.5773074,74.11111
0.52883637,72.67952
0.4919565,75.59654
0.5734926,73.21415
0.578816,73.50077
0.46477357,69.67973
0.39588013,68.74965
0.46024144,70.915924
0.47115386,67.97893
0.42846218,67.73284
0.4057899,70.277245
0.34008908,66.95972
0.38590932,66.611275
0.35321873,67.20982
0.3442337,66.327194
0.41488236,66.870605
0.22069584,64.63869
0.23751743,66.220375
0.25249043,67.017876
0.12482167,68.19332
0.16491628,67.694756
0.030184641,66.63023
0.044492085,67.66898
0.024432678,67.9564
0.061944023,69.56096
0.051242743,70.53344
0.08122181,68.59795
0.04684153,75.41493
0.1659283,73.08535
0.21328618,74.56205
0.22222371,75.09926
0.3071291,77.252686
0.4160574,79.35703
0.49559504,80.28898
0.57896525,79.55753
0.5775169,83.817085
0.72595996,84.52293
0.8648501,85.06425
0.9071457,88.62799
0.944752,84.82873
1.0839772,90.22998
1.1527563,91.35214
1.1753602,90.21306
1.1562341,91.1798
1.2894735,95.12188
1.2960309,94.97107
1.3721799,98.65398
1.398421,98.60695
1.3654708,100.33902
1.4519942,98.26023
1.3940004,103.107315
1.3210242,101.579216
1.3937361,99.65844
1.3544054,99.72313
1.3398608,102.31327
1.3516926,101.065956
1.4289893,103.55229
1.3010324,105.75491
1.3215535,104.6285
1.257119,103.50297
1.3481123,102.20545
1.2398465,101.51628
1.2475724,100.195435
1.2412099,100.70332
1.1787959,99.18875
1.2227933,100.035286
1.1271493,97.73596
1.1054909,97.41266
1.0501926,99.0452
1.1060107,94.017654
0.98718566,99.708336
0.96931237,94.05189
0.98955035,95.62565
1.0066332,93.377335
0.9103835,94.12684
0.9117507,93.63271
0.9546127,91.83661
0.85707474,89.912964
0.98075545,90.86177
0.87064147,91.06647
0.8526266,87.07142
0.86292475,86.23251
0.9120139,87.73801
0.7562114,83.36724
0.7811787,82.89613
0.7377284,85.17825
0.65365905,84.490875
0.7734827,83.88536
0.5526499,80.576515
0.5894903,79.635735
0.5739949,78.95255
0.5423657,78.96433
0.56399506,79.8028
0.40715936,77.02335
0.4197007,75.613556
0.45253843,76.68216
0.43469006,75.72691
0.36955833,73.272964
0.2961378,78.07313
0.33858842,75.50786
0.4015269,69.9285
0.30838493,70.99501
0.39500543,71.11169
0.32812184,68.85016
0.36938334,70.224556
0.36153805,68.20969
0.2973928,70.3719
0.29851368,69.85672
0.26285416,63.717854
0.2568773,69.36006
0.27315438,64.72594
0.22790761,69.329735
0.15941869,67.46057
0.16078731,63.661797
0.053722795,67.19894
0.14395659,67.850266
0.05625436,63.9668
-0.042031687,65.14411
-0.022332117,65.86229
-0.03786672,68.670296
0.00081752316,66.420235
-0.035762288,68.92469
-0.037513603,68.5426
0.0047617587,67.46331
0.009405662,69.53123
0.12401693,72.627716
0.07935845,71.84666
0.20620918,72.83742
0.40489042,77.22297
0.4124083,77.362434
0.44659853,76.67001
0.5205207,79.07021
0.69630104,79.40507
0.8123012,81.06969
0.89645433,82.275185
0.8722775,89.19521
0.9966645,86.58504
1.0100117,87.51567
1.1075214,88.019745
1.2213115,91.78453
1.1180711,90.56829
1.226168,93.219406
1.3023702,94.895065
1.3524452,96.94736
1.3348064,96.13648
1.3758825,98.61898
1.4051816,99.8563
1.4655312,96.92281
1.4666804,100.963486
1.4339914,99.92178
1.5134503,98.81338
1.4566083,103.056595
1.510647,100.04
1.512667,102.05915
1.4817538,102.34786
1.4378319,102.61199
1.489871,102.60061
1.3886229,100.800316
1.3362095,99.21782
1.4413633,99.8871
1.3675497,100.32106
1.3636204,100.40612
1.2747043,95.71422
1.2469659,99.81714
1.236394,99.1597
1.2182796,97.244064
1.0902213,98.670746
1.166331,94.96401
1.1212316,96.42847
1.1238781,93.19933
1.053217,91.77574
1.1062686,93.1672
1.1283361,93.73657
1.0619448,92.092896
1.0592744,93.9168
1.0749083,89.375336
1.0672373,91.64846
1.0480736,89.273254
1.0216051,89.00172
1.147526,85.591324
1.1045935,85.473976
0.9170949,84.638664
0.99975,84.663025
0.9003751,85.18299
0.8752924,85.61786
0.851728,83.632126
0.8727904,82.168365
0.8034935,81.54102
0.79654783,79.86326
0.75067097,78.72197
0.679354,80.578316
0.5851896,78.242226
0.7086749,75.52481
0.53277755,76.98539
0.601867,73.40843
0.62014556,74.449814
0.6230246,72.78338
0.5248373,72.42181
0.5471991,69.69865
0.49985406,73.408875
0.5777634,69.801025
0.6058354,71.13957
0.5558441,68.51591
0.50056386,68.261734
0.55635154,65.90135
0.5412505,68.46191
0.5294945,65.82095
0.49858317,66.29521
0.55825996,65.73472
0.42696658,66.83849
0.44740582,68.165146
0.528966,68.326546
0.34514135,66.86506
0.29221573,69.545746
0.3004614,67.627655
0.29995465,67.68315
0.2140783,69.77776
0.31081352,69.14185
0.261174,69.01692
0.31397018,67.726555
0.22173883,68.44553
0.40289685,70.31354
0.36567178,72.54001
0.4563178,72.972015
0.47045386,74.20633
0.53425,76.53667
0.6063118,75.6819
0.7572229,77.928535
0.82341635,78.46926
0.9622963,80.62883
0.9926933,82.61012
1.0403662,85.390816
1.1414795,84.69368
1.2691095,87.193344
1.3318348,88.103874
1.4197857,88.5856
1.499328,92.67551
1.5349047,95.39086
1.5803094,95.53994
1.6170902,94.76522
1.7470868,96.43974
1.6599442,93.58366
1.6605284,97.17629
1.7578424,96.320625
1.7571157,98.86993
1.7481124,101.808495
1.8027731,97.61986
1.7967294,101.935036
1.8314116,101.6635
1.7778262,102.83482
1.7954605,101.35273
1.7666148,105.09146
1.7833264,100.3045
1.7527769,101.52077
1.7238806,102.95978
1.7873013,99.35743
1.7627095,99.2885
1.6887026,103.4054
1.666482,99.57942
1.6980579,99.76653
1.616709,98.94619
1.6030949,97.21881
1.4299057,95.75076
1.5085462,100.03754
1.4179122,99.449394
1.528151,95.20318
1.4837955,93.444595
1.4089257,93.13896
1.4865626,94.86894
1.4411867,91.3162
1.387469,92.57584
1.4609824,90.91781
1.4420551,90.958755
1.3502107,89.95176
1.4001538,90.10073
1.3801867,88.958496
1.4350841,88.20777
1.3880986,86.407875
1.2825289,84.129944
1.3432181,84.625984
1.2570432,80.83123
1.2188822,84.808846
1.2232583,79.52053
1.188134,83.3906
1.2158993,81.64157
1.1016994,80.20166
1.014663,82.39992
0.99820143,82.50187
0.94828373,82.131004
0.98209727,76.842766
0.92797405,77.205086
0.9313061,79.40933
0.9500265,74.74408
0.9235345,71.24479
0.8965792,73.87983
0.89483136,72.46447
0.8966035,69.12703
0.8786817,69.05736
0.8595729,69.11318
0.8424838,67.39663
0.92549545,69.86116
0.85204166,68.77988
0.89705724,70.4256
0.8860079,68.393814
0.87053055,67.08736
0.83240104,67.8261
0.823703,65.39403
0.7651162,68.10774
0.6930095,67.89955
0.7126456,67.14665
0.6457625,68.163445
0.568576,66.05595
0.5234879,67.08772
0.51226836,67.637024
0.5333258,69.70736
0.5523453,67.87604
0.4928108,68.98642
0.49510935,72.21587
0.57946,69.48224
0.577296,72.1838
0.58058417,74.54437
0.7020929,76.597176
0.83950144,77.3071
0.85119945,74.849655
0.91632426,77.340324
1.0895277,79.500435
1.0922576,81.24905
1.2608461,80.3302
1.3323348,85.1441
1.3039631,82.71869
1.4977387,88.481415
1.4785186,89.30016
1.6000395,88.96042
1.6345522,92.06895
1.6803563,90.30367
1.7691113,93.48198
1.8704821,95.38473
1.8401248,96.417595
1.8786235,91.52897
1.8432046,97.49734
1.9756336,100.646576
1.9316069,99.43537
1.9043978,99.279335
2.0369956,98.386856
1.9925804,99.407234
1.9501857,103.4708
1.9242265,103.17664
1.9527951,97.94842
1.8875556,103.190544
1.9390736,103.6681
1.8595792,100.65146
1.9127047,101.73177
1.8895301,100.234055
1.8861955,101.59268
1.8665843,101.97601
1.845423,100.57206
1.7347974,101.73084
1.7206699,99.91764
1.7698313,99.41887
1.7753814,99.16994
1.6271929,97.55461
1.5014615,97.053116
1.5762556,96.98661
1.5971142,94.91156
1.4744198,97.44341
1.5617449,94.48331
1.4990139,91.53838
1.5802912,94.97628
1.4766679,89.334946
1.480813,90.9431
1.5453966,90.359436
1.477747,87.109
1.4422165,87.99368
1.4146099,89.75558
1.3536866,86.89141
1.4237952,84.563835
1.3516791,85.47203
1.380606,84.96757
1.3335613,84.20291
1.2615724,83.532074
1.1734717,83.69641
1.1065149,82.96667
1.1374967,78.67004
1.1458097,79.7557
1.0637074,79.58122
0.9992138,79.80574
1.0212173,78.24725
0.91081715,77.539536
0.9630254,75.39395
0.9291213,75.0972
0.9565476,71.045586
0.85318947,71.741196
0.90890133,70.9677
0.9417059,72.17568
0.87209845,70.033455
0.8963234,72.10904
0.8473681,67.9374
0.8191515,69.264854
0.7958014,70.934135
0.79197204,67.273895
0.796884,67.57732
0.79233783,69.82873
0.72377205,66.96377
0.6878371,63.702724
0.6508469,66.77126
0.65054804,63.009205
0.60303926,66.03813
0.5586918,65.42664
0.48724538,64.74619
0.5205391,65.108116
0.40993267,66.0608
0.48907462,69.68487
0.44059575,66.83526
0.45049572,71.48523
0.44616252,68.8613
0.42262188,72.08262
0.37791786,71.670784
0.59586406,73.184204
0.5629394,70.85112
0.60545063,74.65299
0.6892848,75.33919
0.7267245,78.771416
0.80221486,76.75536
0.957581,79.30635
1.0494126,79.97026
1.1225538,81.599106
1.062819,82.36789
1.2674911,85.23939
1.2291172,88.2097
1.3927894,88.23836
1.3692265,89.65029
1.462877,89.2109
1.5921386,91.05186
1.5902761,93.387276
1.6233054,93.38072
1.6973647,94.39455
1.6944227,97.15754
1.7308402,99.59871
1.7894033,98.22649
1.6886332,99.21461
1.7684374,100.36193
1.7432793,100.75319
1.7214817,100.83063
1.6519116,100.565346
1.7439339,100.08333
1.7167493,104.4156
1.726184,101.25979
1.7436194,102.75696
1.6637096,101.99776
1.5753975,102.52375
1.5803003,99.592606
1.4957412,102.56116
1.5518309,99.2882
1.4068547,102.711395
1.5078111,98.56503
1.5190208,100.60478
1.380594,95.99628
1.4045216,99.00136
1.3348463,95.6662
1.2839522,97.74218
1.2616324,98.117584
1.3158764,94.26608
1.2369288,94.13316
1.2383002,93.84406
1.2334781,95.46424
1.1843193,94.5598
1.2631549,90.349754
1.1465187,91.10604
1.1387907,88.72072
1.1234366,90.920296
1.2009532,87.85029
1.1058315,89.87399
1.0896188,88.619446
1.0917614,81.85396
1.0252179,86.400276
1.0294033,83.160286
1.0076915,81.753555
0.92598546,83.30521
0.83487177,84.083145
0.7725607,81.23853
0.77031493,81.39866
0.77582216,80.07538
0.7254976,77.419495
0.6428783,79.61851
0.71289396,74.68411
0.64250463,76.58914
0.57738435,75.98613
0.58389634,74.73013
0.5464918,75.10524
0.4738148,74.0955
0.52932864,70.92415
0.56464344,69.661995
0.4825398,71.599205
0.574869,71.56369
0.4795875,70.376976
0.44488952,67.01448
0.4672284,66.44135
0.48926485,67.52972
0.47095397,67.8226
0.47103375,67.64682
0.40186653,67.81396
0.34348565,66.54774
0.2712356,66.78811
0.32576355,62.945164
0.22176477,68.10653
0.23425306,67.76169
0.20310257,65.31247
0.074042805,69.95199
0.15446037,68.19549
0.056637853,68.0743
0.04757352,69.28607
0.061499894,67.807236
0.039666504,66.45201
0.07386068,71.15473
0.09062793,68.925674
0.13742362,74.512474
0.18904866,72.19732
0.3323493,77.898674
0.3941614,79.35908
0.43668908,80.21078
0.539419,79.96461
0.5187699,81.35071
0.6174882,81.364136
0.74862987,83.32994
0.8515816,81.75391
0.84619284,85.99445
1.0215942,85.714195
1.1728557,89.39811
1.1165938,88.80812
1.1567742,93.71554
1.2733654,94.24743
1.3244807,92.511604
1.2724721,94.978546
1.4212899,96.97799
1.3567771,96.65271
1.3633478,99.10502
1.4819359,97.89112
1.3592734,98.576004
1.377318,100.839554
1.4518298,99.76454
1.4099556,104.315605
1.4478202,103.8622
1.3088068,99.55332
1.47411,102.60691
1.357189,100.325516
1.3788824,103.10576
1.3382283,103.90119
1.2451627,99.36406
1.2135326,101.096954
1.3305442,102.72092
1.2703538,104.53255
1.2081988,100.695335
1.1598752,98.4426
1.0768005,98.737656
1.1353983,97.34963
1.0369297,99.13804
0.9520349,97.55937
0.95499873,97.48796
0.97579265,98.53436
1.067545,96.78096
1.0105406,92.52182
0.889817,95.168724
0.9724693,93.05055
0.8897205,92.77317
0.9302748,91.99086
0.9415401,89.34948
0.881446,89.44244
0.82163525,86.88795
0.9159889,88.02284
0.79256016,86.80237
0.8045646,82.10823
0.8153342,85.684296
0.7751266,87.077126
0.7454015,84.38356
0.787152,84.53097
0.67579997,81.18724
0.6183748,83.41561
0.5720429,83.46531
0.5245759,79.31425
0.47653362,76.79076
0.41430098,78.73126
0.3912631,79.723595
0.43387118,78.94382
0.4080599,76.67054
0.40262118,73.707695
0.3548017,74.66376
0.34029245,75.10868
0.31117836,71.95296
0.40388027,71.76585
0.26133636,72.08771
0.37781885,70.95453
0.28620547,70.32752
0.32825744,72.36926
0.2890792,69.64131
0.3635629,67.68418
0.3215463,66.32202
0.18075676,64.81863
0.21303469,63.989254
0.23006164,69.83943
0.16974853,67.65489
0.20502749,68.69533
0.020768594,64.27032
0.04758733,66.62089
0.086621545,68.585175
0.013308728,66.560074
-0.048943084,66.43771
0.059490472,70.716324
-0.03739569,67.837746
-0.05793163,68.65915
-0.070792414,68.78332
-0.0032474583,68.28845
0.02279251,73.35618
0.1452753,71.59202
0.188837,74.05971
0.13401741,73.49446
0.31039944,72.11381
0.3389517,76.02848
0.4265686,79.92017
0.535716,79.947845
0.61388427,82.01485
0.69567364,81.48535
0.6672557,84.04176
0.80684775,84.70063
1.0030465,89.41393
0.9657754,90.07837
1.0625392,89.452
1.2418667,91.301765
1.2238245,92.88235
1.2990152,92.32889
1.3108057,95.75936
1.2995782,96.32251
1.474303,96.79682
1.438684,95.83642
1.504846,99.4973
1.3982881,98.723625
1.4144479,96.922134
1.4292914,101.313286
1.3544399,100.007416
1.4769018,99.79146
1.3256372,99.72279
1.4457232,101.55592
1.4002864,101.93551
1.4111454,97.47078
1.3625963,100.30836
1.339797,99.0376
1.281853,98.799324
1.3856055,100.9863
1.36839,100.05196
1.2266071,100.04925
1.2606896,101.83374
1.2400242,98.441666
1.2373612,98.766975
1.1928848,100.437584
1.1874318,97.664444
1.0908327,96.67579
1.0688952,98.18135
1.0699962,94.48254
1.0856206,95.07702
1.0500827,95.33223
1.0294334,95.64021
1.0532676,91.622444
1.0941293,88.018295
0.9780607,91.69027
0.95407706,91.35503
0.98402935,87.248665
0.9586942,88.71166
1.0001713,90.25731
1.0045546,87.055725
0.89957905,88.707085
0.9389121,87.67122
0.89736575,83.22829
0.8650915,82.01314
0.83744544,83.92109
0.76424384,78.79064
0.7365293,80.31548
0.6882746,81.695526
0.7721326,81.55464
0.60294515,76.02912
0.55075145,79.18339
0.5321131,77.24744
0.5303846,75.32665
0.5020199,73.57685
0.522355,74.04335
0.56562334,74.53435
0.5731106,74.772125
0.49494419,74.27682
0.53125477,73.01546
0.4591085,71.55382
0.52878183,72.50159
0.4612616,70.93121
0.5542263,69.772255
0.53913534,67.88183
0.5165465,71.60821
0.5123276,67.68335
0.49003989,67.843445
0.45804572,66.40173
0.48113614,64.54117
0.42955267,69.77059
0.45319057,65.102646
0.2139873,66.12102
0.35818192,68.49622
0.30858114,65.75384
0.21884462,69.006836
0.20909055,68.95569
0.26172656,68.08722
0.19036472,67.06155
0.23651919,69.382805
0.28489912,67.56869
0.2833154,71.9873
0.34935272,73.43942
0.4293321,72.22588
0.5075434,73.652435
0.39057606,75.760414
0.53759164,74.97047
0.62856394,78.89003
0.7750459,80.86967
0.8222797,82.84454
0.9488287,83.97574
1.1094065,83.62579
1.0914217,86.9418
1.2849005,82.85876
1.3454939,90.306656
1.4334583,89.428
1.4560729,91.03788
1.5220034,90.138756
1.5444489,93.44344
1.6506951,96.01952
1.5580745,94.42159
1.6626679,96.30386
1.6657858,97.15871
1.6748643,97.27741
1.6555823,97.20345
1.6699144,98.77753
1.7152829,100.83922
1.6758691,98.94837
1.7011893,102.14193
1.8690311,104.192085
1.788768,102.43381
1.7884367,100.60323
1.7030975,103.28881
1.6669989,101.13476
1.6134953,100.287315
1.7478166,105.2496
1.6475095,98.9425
1.652278,102.70075
1.5686802,98.60959
1.5995928,100.34568
1.6203878,97.07463
1.5142097,95.471634
1.4249908,96.2816
1.4738144,96.80042
1.3463823,96.292305
1.422781,97.62058
1.426981,92.29682
1.4418187,93.28641
1.4867234,94.61125
1.3924611,95.377205
1.4065658,90.97895
1.3911661,90.0915
1.4335498,89.88121
1.3655473,91.17756
1.3557038,89.77607
1.3283633,92.23799
1.3698413,85.90339
1.3189031,86.870674
1.2929096,86.35673
1.2739911,84.229004
1.2821422,84.88655
1.2200959,85.1702
1.2109952,82.2007
1.1410822,82.24205
1.0155803,82.65722
0.96693236,81.46172
0.9919332,78.6638
1.0210057,80.9745
1.0511273,77.737816
0.9423616,76.96364
0.8888091,76.26614
0.9114219,75.61621
0.8406286,74.88248
0.8508097,73.55588
0.8776827,74.214
0.86830026,69.314835
0.8543489,74.554695
0.8252932,70.96587
0.86228514,71.92418
0.81517994,70.83272
0.81260556,69.636024
0.82715344,70.5013
0.86662245,70.52104
0.80322707,68.10753
0.8437244,66.06671
0.7291065,68.535675
0.7778551,65.62682
0.7133169,69.59021
0.70523334,68.98433
0.648924,64.75334
0.56873095,68.31624
0.5653601,66.2833
0.47948956,70.43554
0.54164755,67.79254
0.5461764,66.576485
0.52996236,67.87106
0.6036695,67.21765
0.59442997,71.781456
0.4701151,71.56924
0.55374944,74.01672
0.6629763,73.82901
0.66894746,73.79072
0.8400317,76.110535
0.7744402,75.03491
0.82209224,76.15223
0.9440488,79.75056
1.0412953,78.3316
1.1734366,82.556656
1.234016,82.90493
1.4086882,83.34223
1.3691317,84.1993
1.500161,85.50555
1.5619081,88.462425
1.6429334,91.97277
1.6632379,91.74067
1.6865529,91.13056
1.8007419,90.95553
1.8410966,94.338036
1.9297291,95.66117
1.8599665,97.24807
1.8816774,99.82001
1.95387,96.89247
1.9195665,100.07961
1.9849339,100.45019
1.9605755,100.06839
2.0216215,101.18562
2.0309408,102.86561
1.9614267,99.565674
1.8753048,101.99693
1.9678191,103.9659
1.9506584,100.53137
1.903111,101.958534
1.8697723,99.5769
1.7775592,102.34566
1.8240391,99.290764
1.796995,99.6632
1.7065866,100.41453
1.688109,97.78143
1.6738833,97.618126
1.6778579,98.18157
1.7431015,99.15412
1.5636873,96.87009
1.5566998,93.87743
1.6456963,95.47983
1.536709,94.77036
1.5202775,97.11224
1.5609117,92.99441
1.4843123,93.233086
1.5271887,93.55077
1.5064344,91.43919
1.5350447,92.80148
1.4761622,89.65718
1.4282922,87.24548
1.4570655,88.77395
1.4675372,86.06906
1.3748865,86.95327
1.374399,85.364525
1.4106865,88.19582
1.3538357,85.5023
1.3621315,83.93753
1.2903476,78.40555
1.2316761,80.58007
1.1600112,84.28402
1.1979314,83.50941
1.0376397,79.606415
1.0342065,78.254745
1.025149,80.37369
1.0180248,78.261444
1.034287,79.81217
0.9183861,77.30507
0.8828673,74.276726
0.86829746,74.122116
0.9197185,72.22976
0.9119481,73.853516
0.955254,70.46644
0.88354504,72.18402
0.89003825,69.263756
0.8593233,68.20252
0.84559196,69.30655
0.7902696,69.88076
0.88480633,66.214935
0.8465207,68.44664
0.70817155,66.2623
0.7487499,70.43934
0.74035823,65.486046
0.7270141,68.02249
0.66332996,68.67488
0.60127,66.6356
0.5257241,67.653
0.49218538,66.762856
0.49275044,67.16746
0.44569206,65.39
0.46509126,69.45361
0.4655866,66.38956
0.43148458,69.44415
0.4769994,71.17647
0.47019744,71.209465
0.508713,72.863365
0.5810329,73.90266
0.63184416,77.369576
0.72377175,76.750084
0.8564386,75.58801
0.8998739,79.344185
0.911537,77.587906
1.127135,80.5287
1.0920311,84.56155
1.2876209,84.88146
1.2089758,86.27278
1.3077844,88.64425
1.4718149,85.86559
1.5015458,91.8525
1.5703053,93.16962
1.6004865,92.017494
1.599199,92.2081
1.7493274,93.38721
1.6452183,94.25648
1.6998748,99.03645
1.7828028,95.09527
1.7698611,95.790504
1.6857624,100.65858
1.7886816,99.28001
1.8735058,100.38681
1.7875867,100.43255
1.7960291,101.65545
1.7444241,100.6542
1.6882453,99.682594
1.719363,102.383026
1.7178115,102.837555
1.7232952,105.479614
1.709735,101.86735
1.721285,101.36739
1.5781451,101.73905
1.6212529,100.35395
1.5745796,102.595436
1.5289996,100.281555
1.554076,97.257225
1.47891,98.39735
1.3548491,97.58125
1.4188907,96.21921
1.3694814,95.65985
1.392222,93.9754
1.3064697,96.92202
1.3001177,94.15437
1.3151702,93.582306
1.2528505,92.50836
1.3017073,90.78441
1.2386031,92.271835
1.2135729,89.91242
1.2241848,89.87959
1.2379985,88.4159
1.1481997,86.040924
1.1445653,90.937584
1.1345828,88.15431
1.1625879,85.34006
1.0582246,87.17925
1.0538201,82.63217
1.1053311,84.08664
0.9504619,85.48273
0.9432805,82.248055
0.9263745,83.9369
0.8263938,83.0292
0.7504141,79.11796
0.7483741,78.594154
0.68090355,74.7551
0.6678416,74.79555
0.67429745,74.67759
0.65784836,73.11611
0.6262794,75.51955
0.5621575,74.40034
0.5646399,74.59581
0.6047047,74.16484
0.5807615,74.725494
0.57011014,71.37467
0.55542123,69.16521
0.54578036,67.8742
0.57054585,68.47375
0.6034789,69.18189
0.498512,68.01004
0.48785973,63.76868
0.46080235,68.65652
0.49588335,67.87181
0.42287183,66.52525
0.39564943,69.70729
0.32213822,67.31167
0.25786865,65.7428
0.2651853,69.25778
0.20859782,65.81879
0.2073927,69.19871
0.17042318,67.416466
0.14551291,66.17995
0.17163967,69.268036
0.14091498,71.0119
0.08699982,70.830505
0.10525217,71.820045
0.1373201,71.33702
0.17767937,71.63199
0.2961268,75.09494
0.2636514,75.41069
0.35963705,74.92008
0.44942224,77.50296
0.5338431,80.1946
0.58983946,79.40857
0.70364493,81.7621
0.8128685,86.34019
0.8778345,84.416084
1.0003927,84.77022
1.0499616,87.31434
1.0907412,87.34465
1.226549,89.81483
1.2733229,90.558716
1.2524147,90.37955
1.2813147,93.57339
1.3374641,94.09652
1.4248517,94.35863
1.3606857,98.92371
1.407434,97.89191
1.4257091,102.59598
1.3932208,101.85887
1.4418035,102.46386
1.4160857,100.79063
1.4655453,103.76691
1.4566965,102.270645
1.4722704,103.05012
1.3780283,101.973976
1.3972659,101.762115
1.3684918,104.36318
1.3890764,101.10611
1.3121431,101.58449
1.2573507,102.447235
1.2308098,103.86561
1.2533481,103.09807
1.1906201,95.48692
1.1685299,100.06359
1.1536679,102.0398
1.1187459,97.10321
1.0567925,97.69944
1.0805904,99.01741
1.0408217,93.46622
1.0559613,93.111755
1.0186796,96.19764
0.97295964,95.850365
1.0602844,93.23636
1.0065501,93.88714
0.95857567,92.93916
0.9455593,86.29285
0.89476496,91.77648
0.99829704,87.5531
0.92788005,87.283844
0.8618827,89.02497
0.77317524,88.49621
0.778694,88.39557
0.8945545,84.50146
0.81355727,84.91192
0.6837686,81.936325
0.66851205,82.08722
0.664585,80.44971
0.6031799,81.689316
0.54993194,82.20727
0.5677205,81.59885
0.5124397,80.324425
0.46817324,79.08349
0.42898154,80.145645
0.40481168,78.183464
0.46398154,74.84342
0.4020568,75.05031
0.34025717,76.1694
0.37006518,74.07171
0.4236914,72.70711
0.3933792,72.357025
0.24657701,72.67537
0.32308096,71.87494
0.36244246,66.47227
0.30473903,70.4941
0.22995791,71.75904
0.30245847,65.813324
0.30213356,70.34312
0.3448876,68.35611
0.1667461,71.530235
0.17586994,66.18684
0.18460536,65.31761
0.20564544,69.149536
0.0968867,66.19493
0.0029238665,69.211334
0.05239315,66.29589
-0.0052674236,66.916954
0.0023764167,71.50363
-0.07531243,64.96964
-0.1022016,70.75015
-0.092028454,69.41227
-0.085776776,68.910805
-0.031999078,73.19905
0.03744914,69.08983
0.07528994,72.04367
0.1401779,74.73102
0.14654389,78.10231
0.32143503,73.33596
0.31849134,79.71106
0.43743846,80.595436
0.44627607,77.159355
0.5906132,84.08809
0.7508256,84.47559
0.7535719,85.865326
0.8760064,86.81824
0.98979026,85.98551
0.95274824,89.220345
1.092993,89.205894
1.112309,88.89607
1.1994216,94.41066
1.229616,91.46009
1.327836,96.31388
1.2457446,94.401146
1.3047596,97.226654
1.4053866,96.48265
1.4225712,98.604225
1.4255649,99.47919
1.3833534,100.41079
1.4150488,99.82767
1.3495234,101.94198
1.5020052,99.72726
1.4112626,100.95379
1.372761,100.87114
1.3189031,102.56086
1.4133271,101.91287
1.3785197,100.97058
1.3485198,101.825455
1.3395317,97.34909
1.2908962,103.01317
1.2815937,98.31231
1.1950971,100.21063
1.1334038,100.799515
1.123968,100.84327
1.1657218,98.61665
1.1751249,98.77906
1.0899146,99.36796
0.9744696,96.46625
1.0937185,96.016846
1.0170207,92.88898
1.088245,96.29776
1.0223149,95.896935
0.9351858,91.74902
0.9840824,91.51305
1.0036175,92.08894
0.9406022,92.74183
1.0430095,86.55572
0.94447994,88.928894
0.9544749,87.30801
0.875242,87.29099
0.8935875,85.85042
0.90939474,86.95172
0.8369572,85.239944
0.8796655,83.03874
0.8199095,83.3012
0.7772399,82.41088
0.7522468,81.2451
0.69117886,81.55677
0.64464015,80.18622
0.6926945,81.27834
0.63881975,78.156334
0.5670355,74.806465
0.5020953,76.12867
0.5062068,78.00405
0.503654,76.964386
0.50450295,74.32832
0.504347,76.8103
0.49505192,73.42482
0.5012461,72.94826
0.50583714,73.76969
0.43509653,71.59643
0.4668665,71.49806
0.48558214,68.96413
0.51119524,68.83514
0.52494013,68.562675
0.43675017,71.418884
0.44532776,66.43964
0.5036613,68.02934
0.44012487,66.22561
0.36436278,65.12344
0.40458903,66.61949
0.37459782,67.77024
0.33467165,68.672485
0.21854088,66.33777
0.22583546,64.482956
0.18811092,68.73079
0.13091469,67.37764
0.14922917,69.57282
0.14794886,64.53672
0.23398313,69.37021
0.15447882,70.3982
0.1937967,68.421585
0.37051243,71.15708
0.41072765,73.65504
0.4184331,74.81597
0.4668906,73.850555
0.550404,75.286125
0.6020531,77.476654
0.8654617,79.21191
0.8433179,80.28403
0.8675307,84.080315
0.91969115,84.10799
1.0483391,84.92813
1.1793251,85.910645
1.2791543,88.944595
1.3095151,89.815765
1.4272046,92.73036
1.4926912,90.16862
1.4714463,92.42262
1.5793971,91.537315
1.56027,97.90364
1.527096,96.70593
1.6296265,97.20189
1.7134163,99.56589
1.6812766,97.799644
1.708555,98.91718
1.7008507,99.80607
1.6813667,103.35986
1.701174,98.09784
1.7121267,102.39282
1.65373,103.22195
1.6973877,103.17285
1.7367405,100.26581
1.7361072,103.27532
1.7525496,102.27617
1.5612684,102.35006
1.5991101,98.66901
1.617984,99.41709
1.4119588,98.03287
1.5553738,99.458496
1.6026486,103.568306
1.6263301,98.81914
1.4152006,98.4495
1.4239163,96.84923
1.3001373,97.53303
1.3928778,95.236664
1.4122198,96.3061
1.3929745,93.21368
1.3460329,94.363205
1.3724023,92.278175
1.3830472,91.01757
1.3828105,90.07616
1.339196,92.67038
1.3121052,87.73629
1.2814369,87.82174
1.3023533,88.32493
1.3104302,89.27841
1.2915584,87.80108
1.1912456,84.745316
1.2308925,85.55833
1.2098783,86.30944
1.1083239,83.1077
1.074072,83.23239
1.116964,83.63567
1.0072473,82.84498
1.0432185,79.59169
1.0016769,77.92501
0.8764789,77.9106
0.94737756,78.606346
0.93239987,77.59446
0.8579165,76.3339
0.85176516,75.46184
0.81505966,74.08818
0.84321964,74.4712
0.8484487,74.739525
0.84183806,73.94883
0.81896263,73.94693
0.7810286,72.12084
0.8308223,72.8732
0.89193493,69.57516
0.90201104,70.95007
0.8226403,69.35905
0.83251786,65.245895
0.85402536,70.55163
0.8342087,68.0582
0.8174969,66.633
0.7197253,67.03178
0.73021334,66.42537
0.67842984,65.554306
0.6074429,68.30433
0.624612,65.111595
0.5579762,66.192
0.56614053,67.207535
0.5442629,66.84604
0.52261466,68.01253
0.511742,68.90456
0.51457113,65.50222
0.44473553,69.92525
0.53927165,68.775566
0.5606804,73.473
0.5392831,70.62864
0.67923605,76.97103
0.6966466,73.35158
0.76640296,77.47438
0.94627684,78.55981
0.9693564,80.34453
1.0147588,80.4937
1.2085088,85.30521
1.254906,83.96413
1.3303213,85.53521
1.4480836,83.977936
1.5010768,86.69562
1.5491574,87.73273
1.5832795,90.70359
1.6434836,95.639824
1.7012621,92.33891
1.7771822,94.09848
1.8584906,94.53647
1.847098,96.229576
1.8813381,98.41634
1.9165336,94.96559
2.0006568,98.71894
2.0489366,100.292114
1.94861,98.87162
1.9475973,103.430664
2.0482025,100.96833
1.9970971,99.8544
1.9446669,101.78647
2.039682,104.283554
1.945217,102.47213
1.8806193,102.16907
1.8417958,102.16838
1.9294502,99.324684
1.7575127,99.419914
1.7944466,102.71785
1.8087691,99.36669
1.6966673,100.82481
1.7669346,99.673615
1.6825434,99.12977
1.7416841,100.05662
1.6050704,97.36102
1.5868741,93.00495
1.6365453,96.81296
1.6202245,96.37452
1.5981823,96.62757
1.5375834,94.59281
1.5045882,93.42435
1.5149186,91.0683
1.509593,92.49421
1.5695386,92.58134
1.5456082,90.76387
1.5492238,87.95583
1.546105,88.676834
1.5620549,87.436325
1.388183,86.784515
1.46881,85.659256
1.3275565,85.79785
1.3495142,84.97798
1.3889548,85.18088
1.2721248,86.25403
1.2944434,80.47732
1.2029626,81.865486
1.2313843,80.07978
1.0723566,81.09687
1.1311972,76.40827
1.1258376,77.99773
1.017536,76.241264
1.1389123,73.708
0.98829395,75.689835
0.93685687,76.93218
0.9509019,73.58039
0.9284292,75.53127
0.84856683,77.93825
0.910922,72.698425
0.9441655,72.49869
0.959605,71.39907
0.8398539,71.00968
0.8711167,69.225174
0.8297301,70.672195
0.8675225,67.3167
0.9184856,67.5899
0.81113124,70.126305
0.81828135,67.16719
0.7270156,69.86368
0.73078835,64.00621
0.73943883,66.82539
0.71690565,67.29305
0.7184129,67.51235
0.58138764,64.65827
0.5386912,67.39471
0.4511873,67.71959
0.5011234,67.52473
0.5673425,69.57339
0.50717646,69.869606
0.48720384,67.64442
0.47739422,69.63295
0.54048127,70.388466
0.57237893,71.83372
0.5797005,74.05788
0.6779235,75.14312
0.6919016,74.354866
0.78986806,77.061874
0.9551237,77.208336
1.022744,80.235565
1.0953208,82.067154
1.0958366,84.29207
1.1977406,83.0219
1.3340031,86.417175
1.439139,86.91867
1.5759337,84.85733
1.5457375,87.89123
1.5720339,91.384056
1.6733171,92.1178
1.5925263,92.37778
1.7037404,95.84653
1.7235116,95.338936
1.7177442,98.0476
1.8318596,97.88116
1.8565592,98.57132
1.8137403,100.163666
1.8701082,98.02958
1.7686642,101.69928
1.8243196,100.75508
1.8622862,100.08876
1.824134,102.653694
1.8558062,103.25386
1.8306332,104.00925
1.7984743,101.6326
1.7002529,103.7236
1.75163,102.949356
1.7252188,99.37315
1.7346716,103.56204
1.6390822,100.66254
1.5853003,101.71806
1.5515349,100.255844
1.5599964,97.93798
1.5559615,97.41044
1.5105926,101.64874
1.4801313,95.98236
1.4613438,97.966064
1.3000878,96.72177
1.3700992,91.89276
1.3622782,93.714584
1.235523,94.531235
1.3339825,97.427086
1.2391596,94.606544
1.263177,94.21647
1.2638274,89.57621
1.290564,88.653
1.2310205,88.491875
1.1863645,91.54059
1.1611345,86.71195
1.2458072,85.6687
1.1423999,85.71669
1.109831,87.30002
1.095125,81.538185
1.0836197,87.344185
0.96181875,81.089645
1.0670656,84.16383
0.95697796,77.7569
0.85869646,78.67851
0.95516676,79.07956
0.85025406,78.41546
0.8223209,78.827576
0.6637165,78.12275
0.670835,81.7588
0.68272793,78.557915
0.66532767,76.51919
0.6275416,75.57754
0.64412963,71.63279
0.60140234,71.84248
0.65196186,73.79775
0.60903263,69.11269
0.5521505,71.509895
0.5691452,68.53836
0.64987195,71.932106
0.5234965,66.67695
0.5693509,68.95649
0.58148503,65.91414
0.4791315,67.15143
0.5207519,68.07726
0.38210675,67.79915
0.44507343,65.01125
0.40373194,64.455765
0.32512322,66.44228
0.3179426,67.42375
0.3001158,67.196205
0.29594916,67.06889
0.23352382,66.491776
0.15121758,67.482346
0.26848534,70.31369
0.15970129,69.39709
0.14982872,67.995316
0.14465074,69.49476
0.25667936,73.72946
0.31411064,70.95669
0.2698967,71.31816
0.3684642,74.65431
0.44647205,77.10863
0.49607214,79.460464
0.6074028,77.19552
0.7757934,80.81783
0.81197035,80.89075
0.88950783,83.25899
0.9195393,84.08406
0.9714409,85.390976
1.0242804,88.28745
1.1677934,90.98224
1.1586939,90.65334
1.2278038,90.85631
1.4208145,93.40642
1.3117329,93.95364
1.377821,93.81333
1.4857804,97.51849
1.4159596,94.160255
1.4344528,94.03257
1.49157,98.2023
1.4757569,97.43286
1.5346226,101.360344
1.5495381,101.082054
1.4598548,101.143974
1.4859861,102.100624
1.5152627,101.13824
1.3786027,103.40844
1.4037958,104.388336
1.4505037,102.59043
1.4169236,101.90675
1.4174247,100.0032
1.4222823,99.758194
1.3129328,104.99971
1.2944984,101.13051
1.3182267,101.340675
1.2054889,97.664085
1.280018,97.75102
1.1349365,97.606026
1.0164596,97.95622
1.159413,99.21966
1.0727324,96.74366
1.0533625,92.998856
0.9713444,93.963196
1.0988064,96.99973
1.009489,93.759865
0.95503104,92.38554
0.9291486,91.9605
1.0133536,89.82844
0.9482902,89.80507
0.8861684,92.445526
0.9375062,88.48307
0.9614517,90.03828
0.90506727,87.52736
0.8804418,85.40462
0.8203826,83.873726
0.7828471,86.64703
0.7316242,83.96184
0.7334189,84.177444
0.6637184,81.149
0.697447,85.28194
0.6645848,79.51325
0.61978024,80.780426
0.4954534,81.79057
0.45418078,78.099724
0.40568644,78.83448
0.40451875,75.90599
0.32884198,78.06348
0.3931854,74.70638
0.38072804,73.457985
0.38362095,74.96065
0.41015986,74.972595
0.3359703,71.90042
0.35733768,73.00812
0.3797733,70.594215
0.35723892,72.092514
0.29160008,70.064285
0.3835071,71.75611
0.35316288,68.37793
0.34159294,67.84288
0.287033,69.13606
0.23514526,65.10245
0.13902515,65.75966
0.15939432,67.76629
0.12558213,68.61583
0.12995023,71.065445
-0.05072937,65.23445
-0.040757056,66.24427
-0.14008823,66.141335
0.021492174,67.31673
0.07396891,67.101326
-0.045943566,66.745224
-0.05745318,73.7324
0.018004071,71.02326
0.08554373,71.43636
0.08959905,70.30904
0.03540961,74.26471
0.039897934,72.08462
0.13093667,73.81753
0.21464647,78.16267
0.30936655,75.57248
0.4458827,79.587524
0.46529663,80.14721
0.56168896,81.59523
0.668052,80.36855
0.74568796,84.29905
0.73122495,87.76013
0.9744838,85.42741
0.9684951,87.59884
1.0471716,90.4559
1.0346369,91.238625
1.1318301,91.18811
1.233846,93.12392
1.1947035,94.43282
1.2352637,95.59763
1.3921473,98.44161
1.3678277,97.322975
1.3691623,99.75483
1.3498422,98.37573
1.3783423,101.54651
1.3311875,103.39805
1.403906,99.8392
1.408639,101.68618
1.359643,102.35423
1.3269366,101.59062
1.3567607,102.10154
1.2954721,97.73735
1.2652948,102.11836
1.3635474,100.546326
1.344098,103.25086
1.3257424,102.65095
1.2781059,100.4118
1.2872268,97.91302
1.3082608,101.159676
1.2718284,98.38199
1.1261979,98.12704
1.0799799,97.64053
1.0972184,95.61151
0.9973618,94.95421
0.9534859,95.880745
0.9794788,94.4107
0.9138421,94.766495
0.98605794,94.124985
0.9639187,92.40226
0.986567,90.15685
0.95187396,89.94488
1.0798838,91.44869
0.8770718,92.605385
0.9088941,90.124435
0.90584326,88.127266
0.90989476,86.71856
0.88871974,85.11631
0.83824754,83.554
0.86066645,85.71622
0.7313182,86.60847
0.76159227,83.007614
0.7694498,81.9658
0.6953277,81.79841
0.6505623,80.712395
0.71596,82.62575
0.61589766,80.26114
0.49412575,77.22177
0.4417355,76.486595
0.5024308,78.64322
0.4747562,76.578354
0.47797248,73.23667
0.45734105,76.00726
0.52285963,72.70303
0.47001487,74.407486
0.46445435,72.286514
0.49110094,70.42335
0.4536343,72.569984
0.44599125,71.14519
0.44972187,66.5084
0.43484512,68.869484
0.39985433,68.23321
0.39892185,68.755554
0.42247552,67.559395
0.39478686,66.344955
0.36872685,69.959145
0.3098908,68.45539
0.3240344,67.24866
0.31346765,68.178345
0.26561424,67.40887
0.15087652,67.7588
0.16877937,67.689
0.16556889,66.92962
0.113787435,68.83482
0.093499534,66.48036
0.05342979,68.75066
0.11506197,72.66706
0.15938677,67.85018
0.07552295,70.039734
0.23465799,72.44757
0.3547127,71.065125
0.37048224,75.322296
0.425729,77.997055
0.4537618,75.96007
0.538359,75.43806
0.75153613,79.35838
0.83756834,82.91555
0.8381237,84.81303
0.940468,81.60655
1.0304918,87.9151
1.1557719,88.620415
1.1734884,86.520096
1.2064306,91.21366
1.3107055,88.092964
1.3949664,92.32312
1.4710476,94.3332
1.4279722,94.82964
1.4899513,96.99267
1.6005839,98.19577
1.7024292,98.80057
1.5326009,98.66978
1.627338,99.43646
1.7314261,100.02616
1.5188498,97.826195
1.6614128,100.58423
1.7139355,102.43558
1.6461902,104.90073
1.5863496,102.536674
1.6418796,100.45107
1.597213,99.5767
1.7367233,103.78505
1.5553725,102.17134
1.6001239,102.88723
1.5484544,102.038376
1.469559,100.815994
1.5409012,102.172005
1.4121271,99.92732
1.4205345,99.93018
1.4364883,97.29725
1.4402207,97.10122
1.3235971,98.37535
1.4304222,96.313126
1.435681,92.63293
1.3433269,95.63198
1.3393923,94.21357
1.3575008,92.96282
1.3553313,93.754555
1.2706964,93.51493
1.22016,91.39876
1.3007032,91.55574
1.372974,89.49042
1.2412797,90.40078
1.2222028,90.32238
1.3160307,87.51442
1.1950626,86.03992
1.2531054,87.17638
1.1976311,81.57792
1.1955729,82.463936
1.1169322,82.86398
1.1592728,83.8528
1.0698137,81.36861
1.034429,80.44515
1.0329343,77.568954
0.8937235,79.0139
0.8715745,80.282074
0.9347728,78.16739
0.9062598,77.494095
0.8600333,77.447075
0.85681313,75.929276
0.7649837,75.30991
0.8832308,76.22865
0.7333847,73.21727
0.7884233,72.097725
0.8386215,71.953125
0.68124264,72.47009
0.7340017,67.75597
0.7145308,69.59471
0.7571484,68.05201
0.8438067,67.47258
0.83000696,68.637314
0.70475745,67.51499
0.8025743,68.21202
0.7600681,67.56089
0.681982,65.427795
0.6548831,68.426254
0.660277,66.669495
0.6251491,67.17969
0.6028521,67.43114
0.5652408,65.97296
0.5008999,67.39552
0.46752003,68.77387
0.462469,68.53796
0.4536709,65.2601
0.48020685,69.6538
0.49006668,70.212036
0.50819945,71.11269
0.6170154,71.95746
0.5759736,73.90224
0.61139804,74.28958
0.73981476,74.581665
0.6952285,73.582306
0.9111123,78.04445
0.8676303,80.57361
1.0783684,80.767006
1.1072073,81.91513
1.1620693,82.36608
1.3899364,84.973404
1.4178836,86.05028
1.4108232,87.70914
1.5245401,86.720985
1.6009682,88.4551
1.6685579,91.15993
1.7028875,91.89115
1.7559832,93.02496
1.7853465,92.761665
1.8325788,93.93983
1.9444553,96.260445
1.899732,98.28753
1.9359103,97.73893
1.983724,100.9487
1.9003334,101.506744
2.017108,105.24823
2.003725,101.16148
1.9521295,99.64278
1.966392,100.17319
1.9015787,104.857864
1.83298,101.635704
1.9235727,101.88283
1.9381616,98.948135
1.8567456,101.92568
1.824571,101.86774
1.8752805,103.05819
1.8744164,102.92978
1.750804,97.738144
1.7012146,101.153336
1.673791,100.7678
1.6544263,99.95834
1.6182164,98.33211
1.5494808,97.979256
1.6707113,95.09066
1.6112138,95.35865
1.5045626,95.6819
1.5534041,93.983734
1.4509869,92.434944
1.5637959,90.482544
1.5515252,92.61552
1.5087862,89.54023
1.5094805,90.536156
1.4642106,91.98312
1.4924649,88.97889
1.446833,86.515465
1.4570545,86.24112
1.412443,85.82608
1.3931795,87.51102
1.3668532,86.771
1.3507955,85.179375
1.3423446,82.40917
1.3010675,82.10643
1.3283085,81.612206
1.2264662,81.880775
1.0964698,80.09656
1.1232647,77.05426
1.077747,78.79725
1.097428,74.465385
1.0312723,77.80974
1.0278136,78.22566
0.9994558,75.45515
1.0556719,74.81043
0.9378752,72.30538
1.0174391,72.61565
0.9604361,70.54482
1.0480824,70.95471
0.89700055,70.888275
0.92785865,69.96438
0.8212295,70.09119
0.9651793,67.504585
0.8856761,68.328674
0.8205106,67.92198
0.8075859,67.68415
0.7860407,65.08497
0.9008273,66.10724
0.77480793,65.2256
0.6953881,68.72586
0.8092759,67.33746
0.6532684,68.90516
0.64167655,64.70925
0.5399588,68.14993
0.632675,68.88658
0.54046124,68.350716
0.5079781,68.68304
0.4486197,71.34278
0.48902795,70.37498
0.51238453,69.528015
0.45697075,71.96697
0.48356918,73.66449
0.7585337,71.829254
0.58917767,72.626816
0.66607267,75.369705
0.8504905,78.020966
0.9101588,78.26431
0.99102044,79.31889
1.0124328,80.76036
1.1965425,80.3468
1.2649008,84.73476
1.2632283,86.313484
1.4885528,88.0076
1.5209866,87.812645
1.6502512,89.99387
1.5922018,93.04543
1.5636666,92.44612
1.7929305,91.93048
1.7742195,94.513374
1.8535775,94.45491
1.744073,96.73698
1.8438319,96.84152
1.8046509,100.150276
1.9270616,100.221565
1.8544724,99.84368
1.8956504,99.66537
1.8572131,97.72883
1.8470291,102.43025
1.8936958,103.60769
1.8799025,101.83773
1.8584738,101.58192
1.876292,101.93473
1.7477429,103.05938
1.784374,103.460464
1.7989731,104.313126
1.7006712,103.015434
1.6245078,100.658615
1.6198952,99.547485
1.6741453,98.397224
1.5455112,95.98156
1.5962735,100.16928
1.5038186,96.88402
1.4725583,97.95291
1.3693752,95.92531
1.4334804,94.25249
1.4470738,93.94923
1.4165694,90.88112
1.3684033,93.80991
1.2967188,95.70651
1.3416722,89.371666
1.4123847,92.96596
1.3323834,90.10675
1.3105273,88.45684
1.2693664,89.46984
1.2117126,88.838936
1.2357334,88.983154
1.2149713,85.76531
1.2121392,87.4692
1.229328,85.37487
1.1784667,89.05503
1.2026515,83.37551
1.0976675,83.860176
1.016679,82.892815
0.9856256,83.84451
0.91235924,81.76561
0.9231581,78.70912
0.87935454,77.427605
0.77346504,77.93115
0.75376433,77.05804
0.7343258,77.124664
0.8674372,77.04878
0.6570318,73.43125
0.7524342,75.57085
0.67429453,73.60189
0.6628776,72.715225
0.6853795,72.6801
0.65477824,72.86901
0.6405049,70.1249
0.6854048,73.047066
0.6002108,70.492096
0.66363275,66.77237
0.53086525,69.25334
0.5246823,67.4623
0.46868995,69.672264
0.47534394,67.135056
0.51357585,66.0439
0.38555428,65.27389
0.40671247,69.663345
0.38745844,67.9513
0.37531045,67.14935
0.2461966,64.99009
0.19898462,67.98861
0.22633438,67.07211
0.23500578,67.32036
0.27957064,68.43653
0.12796845,66.54827
0.3076995,68.770615
0.17493545,72.45388
0.22024927,72.92744
0.3334688,74.12608
0.38028577,76.28815
0.46440694,74.00744
0.54762244,77.81778
0.52592224,76.67592
0.63089174,78.10532
0.7182744,80.61777
0.7903165,84.54156
0.9740787,83.262985
0.9362149,84.39954
1.0607053,85.495995
1.1673309,88.8926
1.1244909,88.835365
1.2438715,93.38249
1.3001713,92.61001
1.4625388,91.76479
1.4053341,93.72869
1.4333763,95.006996
1.417674,97.75084
1.4895805,98.56451
1.47581,98.048065
1.4784653,101.90672
1.5126991,102.7165
1.5297878,96.8121
1.5508018,101.80965
1.5847286,103.89556
1.5705353,99.25227
1.4670526,101.40593
1.4651177,102.106766
1.4167924,100.92237
1.4995724,103.48859
1.3865706,104.687294
1.4556501,103.773476
1.3193194,101.86649
1.2569771,101.26636
1.3043752,100.814
1.2644749,101.00293
1.2140847,98.187035
1.2937973,101.29695
1.237182,97.03764
1.2481377,95.34102
1.0290724,96.12392
1.2126992,100.68971
1.219107,93.80761
1.0064348,93.245804
1.0886828,93.30348
1.0246791,95.28998
0.99947524,90.50876
0.9582387,90.14156
0.99434716,90.0117
1.0532857,92.693115
0.9472328,91.01642
0.9417885,89.55763
0.9622868,89.64441
0.9284537,86.64201
0.908018,86.47894
0.8550714,84.59637
0.78124267,85.89315
0.8287343,82.1427
0.7695944,83.75624
0.6811095,83.150406
0.65470684,80.010544
0.72025186,81.43002
0.6330185,82.06191
0.5124119,78.36545
0.5009216,81.01572
0.49527794,78.29603
0.40519932,77.10979
0.4252664,76.09477
0.34083635,76.318504
0.41040304,74.13335
0.49033228,74.20982
0.358211,69.17302
0.35653836,70.95776
0.38384548,71.559326
0.41450852,72.01656
0.29966632,70.16963
0.38743296,70.60266
0.28855038,69.240875
0.3337541,70.130974
0.34277955,67.81928
0.25573888,69.96728
0.30109075,70.348434
0.14744288,67.24299
0.27316946,67.87503
0.19375394,65.98869
0.11263666,64.39759
0.06475202,67.72452
0.062394038,67.26925
-0.04388361,66.0905
0.057020288,69.068886
-0.053580664,67.39865
-0.036391523,67.95363
-0.0650148,69.50319
-0.04955563,70.56015
-0.040100437,72.187706
0.047210798,71.88542
0.072159134,73.713394
0.048978303,73.876495
0.15864941,73.72982
0.22726162,75.862495
0.33170515,77.704506
0.40794393,78.93465
0.489216,76.88016
0.5083257,80.08566
0.63755596,81.54477
0.7285388,82.241066
0.80616856,87.88742
0.8237996,87.57716
0.95293593,88.16323
1.0196418,89.72291
1.10992,89.48845
1.1540614,91.118904
1.1912531,94.404465
1.2683562,95.586464
1.284755,94.87292
1.3441706,97.824295
1.2898424,99.564384
1.4104891,95.32154
1.3953062,99.123
1.3001771,100.06974
1.3816504,101.755486
1.3296704,101.55271
1.4005013,101.43894
1.3757311,101.36375
1.3614899,100.031876
1.3401272,99.86586
1.3174239,99.37288
1.2075545,104.92234
1.2292775,100.93364
1.2903537,102.47674
1.2679385,105.25822
1.3172715,106.226395
1.2501802,99.78551
1.1422378,102.06051
1.0923865,97.898834
1.0949097,97.86104
1.0905654,98.053535
1.066476,97.82662
1.0038091,95.32433
1.0556571,93.53928
1.0602986,95.93006
0.9636897,95.93088
0.9638842,95.23503
0.95724,95.27748
0.9420107,89.24088
0.9819948,91.55588
0.9860701,91.23646
0.9542494,88.21732
0.94591355,90.25182
0.79607916,89.36958
0.97538817,87.78597
0.90461284,88.060036
0.81260484,85.08885
0.80619407,83.9023
0.76951104,81.61718
0.7148669,85.46069
0.71856,84.39375
0.6864886,81.92214
0.6396856,80.28635
0.64389974,82.749214
0.5372705,78.957596
0.50967115,81.32325
0.6145188,82.501976
0.37954324,79.969444
0.510333,77.18772
0.4032466,75.54617
0.4106731,72.54368
0.3884386,72.799545
0.40605253,74.595276
0.3560585,70.28941
0.3064002,72.735374
0.4739092,69.73535
0.3474206,71.92402
0.4102606,70.60263
0.3861579,70.03573
0.37781525,69.964645
0.46745554,68.26941
0.40030506,66.60708
0.36953375,69.85616
0.37173894,67.58077
0.2767059,65.97611
0.24211188,67.3266
0.2898602,66.86097
0.24073821,67.185005
0.14698005,66.76819
0.21336873,64.75441
0.18512134,66.882675
0.117615394,66.90533
0.12371919,67.131775
0.0460481,66.01495
0.09144105,71.46899
0.2201622,69.87885
0.105749995,69.9808
0.28671986,71.685555
0.16593088,72.4139
0.20359656,73.287186
0.35207596,77.65114
0.39785084,77.117546
0.51077366,77.2696
0.6230107,79.03093
0.6478152,80.579895
0.80652094,80.983765
0.85092324,84.53952
0.9904426,82.923035
1.0479606,86.81686
1.0598577,86.043785
1.2127082,91.15462
1.231763,90.51381
1.2890848,92.47326
1.394243,93.71412
1.4367666,95.421936
1.3874557,96.339745
1.5174849,95.07789
1.4717575,95.517265
1.518539,95.190926
1.6314981,97.942024
1.5704708,101.00312
1.6090723,100.869026
1.6208287,104.826996
1.6169609,98.87671
1.5695013,100.537445
1.6319046,100.775
1.5918756,99.783134
1.577427,102.657166
1.5462072,101.20258
1.523821,100.81032
1.5464827,101.52534
1.4903296,100.28957
1.4873226,100.53309
1.502948,101.98021
1.495756,99.62105
1.4195201,100.911
1.4043683,98.73054
1.3609438,99.777054
1.3091468,98.58804
1.2877249,97.66367
1.2698541,95.31555
1.2873319,95.37497
1.2649281,94.8185
1.2911679,92.106155
1.2569505,93.109764
1.2397474,88.86771
1.1852298,91.38276
1.2306929,87.601105
1.2153734,93.020775
1.1706089,88.17312
1.1465759,88.42281
1.1177981,83.908325
1.217422,84.24978
1.1353949,85.97021
1.1644086,81.34647
1.1067348,84.30181
1.1114622,82.22947
1.0438101,81.36845
0.97204876,79.86837
0.89596194,82.995186
0.8585442,79.85467
0.911445,78.2857
0.88729864,79.62098
0.89125836,77.7059
0.8076828,76.47954
0.8042848,76.36997
0.78789496,76.00258
0.7835234,70.84354
0.69636613,73.383705
0.71789813,72.81053
0.813491,72.73185
0.7815026,71.080246
0.7629243,70.877846
0.81831336,72.37898
0.77136743,71.697685
0.7588395,69.97534
0.80362076,68.797104
0.7372759,67.786285
0.6656864,70.47944
0.727262,70.60468
0.7256312,66.72541
0.69035995,68.06674
0.6185065,64.29659
0.5883517,61.83679
0.56990534,64.436356
0.57481503,64.71318
0.40239856,66.05349
0.47010186,66.45741
0.37829596,64.28143
0.44006684,68.04154
0.5191792,67.24825
0.46158937,68.90833
0.43402043,70.58246
0.43609387,69.63503
0.5367939,73.0115
0.60332954,71.64818
0.599208,73.17942
0.76825273,76.289825
0.7691695,78.152916
0.8618211,76.54613
1.0565329,76.764336
0.9887596,82.1345
1.1386974,80.63918
1.1761061,83.81209
1.2731314,86.494865
1.4048156,83.22697
1.4672979,84.19503
1.5013653,88.29805
1.6410352,90.14015
1.5790207,89.97641
1.7376336,92.06437
1.6804866,93.94333
1.737156,94.08407
1.7534086,96.67918
1.8151608,97.38924
1.8930173,95.57978
1.863246,97.872345
1.9518521,97.757645
1.8888806,101.68911
1.9723384,102.066284
1.8711019,101.39993
2.021353,104.94396
1.9965317,101.573364
1.9122045,101.69657
1.9878342,100.8961
1.8718773,102.671844
1.8538125,102.51473
1.8143921,100.16167
1.805634,100.639366
1.7763418,100.489784
1.779894,101.237526
1.7053365,100.215
1.7170984,99.48504
1.6689259,99.31935
1.6886607,98.5817
1.5591213,96.59042
1.6782622,95.74741
1.5768445,97.68179
1.52322,93.912895
1.5346986,94.30942
1.5564162,93.536255
1.5448987,92.33234
1.5601468,93.68546
1.4019502,93.03461
1.4901764,91.46794
1.4902893,93.013466
1.4261432,89.742424
1.3834413,88.377426
1.3967118,87.07301
1.4805692,87.03591
1.505289,86.282845
1.400479,88.293785
1.4388283,87.478546
1.3969564,84.47595
1.313366,84.41488
1.2878752,82.664314
1.2918048,84.44818
1.1607058,79.01231
1.1077672,80.87584
1.1088716,78.52889
0.94529474,78.472084
1.1000528,78.70421
0.92139155,76.72443
0.8982761,77.99402
0.9666032,73.669205
0.9446033,72.97976
0.9828318,73.65405
0.9130769,77.09216
0.9147889,73.518845
0.9040272,71.82696
0.8734664,70.37696
0.86025023,69.487206
0.97773576,68.62069
0.89125645,68.87655
0.8591253,70.05127
0.9497374,68.89907
0.8622679,68.16394
0.843553,67.9947
0.8157264,67.94256
0.7297118,66.10234
0.7628621,64.054085
0.7251205,66.673164
0.67467374,66.29618
0.6062855,66.297066
0.62579715,68.60511
0.5649707,68.12856
0.53846943,64.509056
0.513245,71.07486
0.6054503,69.21285
0.52099293,67.67873
0.5716932,74.49343
0.57864165,71.81707
0.6622364,71.017784
0.7085878,73.56629
0.75515544,78.032814
0.7567696,74.30699
0.90255874,76.36003
0.93109417,77.75203
1.0482788,81.5374
1.1514761,81.88499
1.1919873,81.881935
1.2985334,83.416435
1.2989588,83.73863
1.4568737,88.92841
1.5294852,88.8326
1.6448193,91.00662
1.612489,91.67906
1.7310952,93.51463
1.7288963,94.13008
1.7908925,94.30277
1.75673,94.38781
1.8425081,97.24833
1.9139761,93.508224
1.9386709,97.37071
1.820804,100.40157
1.8487061,98.28441
1.8765395,99.929756
1.8522358,101.504135
1.8708154,100.64406
1.9033017,101.206635
1.8790991,105.0231
1.8536751,105.4825
1.8607147,101.70305
1.8110685,103.57242
1.7708179,102.330635
1.7140898,101.356865
1.7686937,103.322334
1.7176107,102.15819
1.7189108,101.53826
1.6830297,99.226974
1.6552358,99.50162
1.5254685,99.41015
1.4888092,98.381485
1.5373316,97.89127
1.4655416,95.72388
1.4267422,96.89212
1.445034,94.437096
1.4349364,93.70866
1.4386288,96.18217
1.4188282,92.15816
1.2911606,91.6829
1.3637925,91.06123
1.3591595,88.070854
1.3244756,89.5177
1.3212985,86.977234
1.3450022,88.78068
1.3040973,84.72107
1.3080981,88.65294
1.2704512,88.235374
1.2666516,87.36553
1.2102579,82.09889
1.2042028,83.51035
1.1538815,83.268555
1.0292077,83.672
1.0455468,79.05786
0.9733903,80.88317
0.97515893,78.98649
0.88152164,76.531334
0.89238954,78.10357
0.93395853,79.72694
0.76011014,74.05139
0.7808706,76.048035
0.81065786,75.49107
0.72919357,73.07428
0.7279733,73.538414
0.6967229,75.06692
0.7527079,72.64193
0.79451007,71.478195
0.67291856,70.555244
0.70168775,70.2161
0.6787513,68.229576
0.6938346,67.90581
0.6138044,68.5335
0.70059097,70.33973
0.56224245,67.87911
0.66991746,69.140076
0.5059338,65.39924
0.56376505,67.104866
0.42474347,65.12988
0.34399787,68.631676
0.34595063,68.376656
0.4026574,66.510796
0.32815778,69.18871
0.30542678,69.85089
0.23700826,67.29951
0.32462427,69.50612
0.30466393,67.8564
0.31593183,69.59991
0.30294746,70.80403
0.37998232,71.5027
0.41781905,72.06745
0.46250075,75.530464
0.55878055,74.86318
0.58599275,73.28806
0.58490133,80.82402
0.7601553,78.06594
0.8594799,80.70234
0.8141469,83.97136
0.9509962,81.14281
0.93807757,84.991035
1.082055,86.866295
1.2301644,87.1842
1.1839262,86.03451
1.3540651,89.83279
1.4018708,89.30137
1.4289283,93.545715
1.4694219,94.84143
1.440018,94.476364
1.5456197,99.764915
1.6291131,96.506676
1.5236554,99.12075
1.5414904,100.48204
1.657118,101.5862
1.645929,99.42803
1.5659816,99.95792
1.5868906,98.12316
1.5081596,102.55431
1.5823514,102.040146
1.4680943,102.73828
1.5115534,102.70243
1.4619658,101.83688
1.4527452,100.69375
1.455524,102.349014
1.4994296,100.64768
1.39571,98.945145
1.3383076,101.343506
1.3590696,102.229836
1.2556473,99.62524
1.2087085,100.827614
1.2385772,97.13514
1.1701248,96.46201
1.1822264,97.55645
1.1380626,98.623024
1.1734321,94.64728
1.1093445,95.99711
1.1665175,93.236244
1.091679,93.43117
1.0488493,92.694435
1.1506438,92.00421
1.0142813,91.9205
1.0211874,91.189995
1.0078821,88.746506
0.99369067,85.85329
0.93221676,87.51149
0.967536,87.76446
0.91069275,88.02135
0.93612725,84.61974
0.7748008,84.69438
0.82674676,83.02012
0.90901804,83.173256
0.7301531,83.21291
0.6627826,77.430756
0.66294897,81.37545
0.5981563,80.02817
0.5948998,79.571175
0.5791031,77.87324
0.4655928,74.231705
0.42564505,79.06232
0.42280394,74.53956
0.3487577,76.70122
0.431764,71.59037
0.4794521,73.55762
0.40292767,74.97973
0.34546933,68.99405
0.36281863,70.195206
0.35226125,69.88441
0.36797106,71.56781
0.31152466,69.04259
0.40234223,70.22067
0.32459056,69.08385
0.30120727,67.21134
0.3528161,66.179535
0.31448373,66.76104
0.26424,66.013985
0.2545496,64.86626
0.2885573,69.27767
0.1554219,65.593506
0.049267285,66.95032
0.08445599,66.0915
0.06171057,69.89133
0.011662702,66.31107
-0.03538535,68.203674
0.032961573,69.87729
-0.054514803,68.828835
-0.0633503,71.32694
0.015070671,71.1079
-0.0038392805,72.88297
0.07095921,72.29022
0.07878612,71.610634
0.19905874,74.24097
0.28015715,75.01469
0.35347453,75.32603
0.30490288,80.06834
0.5717182,79.42091
0.47173685,83.54124
0.63589835,81.65391
0.78610003,83.39292
0.8525985,85.79196
0.96652204,86.301445
1.0145355,88.18143
0.90412176,90.266815
1.1293168,91.16487
1.1513051,90.69096
1.2526277,91.2056
1.2133409,91.88867
1.3165667,96.585434
1.2758934,96.716446
1.3696247,101.38457
1.3339826,98.40236
1.3859746,98.636925
1.3523595,98.96367
1.4056091,100.29477
1.2734545,103.849464
1.2751685,102.71129
1.374181,99.88779
1.2841083,105.36546
1.3437406,103.07205
1.3645068,100.41798
1.2720327,103.78247
1.3064433,102.22804
1.2053875,101.245544
1.2747037,100.20498
1.2638578,98.44581
1.1657759,97.5474
1.1714295,99.83263
1.1869811,97.13871
1.0981811,99.389824
1.1065887,98.37604
1.060155,94.456955
1.0838327,100.967094
0.89711356,94.03708
0.96701443,96.55686
0.9373114,93.83774
0.8827589,93.05402
0.8732468,90.46113
0.9686022,88.777664
0.9484015,91.32044
0.9314145,93.21003
0.8281174,89.84833
0.93332106,90.28389
0.8760804,87.145905
0.8711139,87.22272
0.8377628,88.11594
0.8272224,84.65223
0.838101,85.395485
0.77582484,84.04908
0.7127295,82.90128
0.6988952,82.89842
0.7524282,85.44773
0.5990862,82.29363
0.55004793,77.75408
0.47899863,79.58487
0.5389788,79.977234
0.45489198,78.3488
0.5555423,77.75358
0.47967646,75.90012
0.40030277,77.27697
0.36567977,75.98958
0.37647328,75.086716
0.41431004,73.92867
0.3496821,75.904976
0.3898228,69.70763
0.36132455,69.553375
0.36815983,72.170364
0.44462845,71.98327
0.40922096,69.288124
0.33208773,70.13994
0.38059074,65.44073
0.30488852,71.041214
0.34661853,68.22575
0.2650166,67.18596
0.25240877,70.00019
0.24522007,69.22369
0.1526763,66.0826
0.22482331,64.778496
0.17239082,66.47503
0.19080375,66.52722
0.06477275,69.55091
0.15053797,68.10616
0.08257177,68.85085
0.09520466,69.213905
-0.026597481,70.12733
0.06839445,69.71456
0.0030273169,70.88617
0.16175565,71.633804
0.2890589,73.51056
0.33039388,74.437836
0.3776665,71.615364
0.32987276,76.562614
0.44753432,78.11465
0.62423134,81.467834
0.62022394,82.01275
0.74120605,83.381294
0.9009602,84.75973
0.89589465,84.35516
1.0478216,88.5611
1.0705581,86.91707
1.230311,87.964355
1.203446,90.657135
1.2746677,94.06336
1.3792709,93.432976
1.4296747,94.69953
1.4682965,95.009415
1.5297983,95.971695
1.535771,96.31702
1.4927751,102.71542
1.4891655,100.20617
1.5406585,97.83207
1.5587933,101.76368
1.4949586,101.066124
1.6080389,100.99534
1.5629934,102.51151
1.5462002,103.240944
1.5200245,104.57616
1.5372005,101.96484
1.5738528,105.48305
1.5253068,100.90966
1.4656348,100.16768
1.4652811,101.483795
1.4189341,100.49919
1.4639027,100.30369
1.5524243,101.27943
1.400657,98.260056
1.3162763,97.630516
1.3750576,97.33788
1.2587489,95.59698
1.2068506,96.47087
1.2156678,95.50072
1.2196734,96.564995
1.2291063,94.571106
1.2396822,92.65888
1.1767472,94.318375
1.2156662,91.430954
1.1397021,92.69587
1.1895175,91.33685
1.1850355,92.61647
1.2457998,89.00921
1.0911428,86.096344
1.0308497,89.65679
1.138153,87.066345
1.1370221,88.86317
1.1635847,85.12496
1.0875077,84.294395
1.020602,82.94557
0.9434563,82.46284
1.0823987,82.43777
0.9869273,82.356415
0.96331656,81.25146
0.82421726,79.33778
0.66601974,81.06754
0.7790585,78.328636
0.745824,76.527885
0.8251402,78.29836
0.79232365,72.11652
0.75093997,73.49118
0.7860347,74.39173
0.77788657,70.91951
0.6532931,74.96893
0.6899661,72.37121
0.7628166,73.46197
0.67730147,72.28623
0.60306287,71.38144
0.65471166,70.43943
0.65266526,69.978935
0.6853104,68.617
0.6653853,69.5446
0.67725146,68.90844
0.48844826,66.83229
0.66102767,66.559364
0.5411392,65.06486
0.5265693,66.35511
0.4448725,68.24034
0.5020171,67.6114
0.42276743,67.26713
0.38598603,67.67688
0.3992876,67.555336
0.29416886,67.27069
0.27860528,71.99511
0.4210629,68.84132
0.36364436,68.160904
0.37214452,69.05724
0.42788494,74.68092
0.4825079,70.81124
0.53855395,74.29318
0.65344745,77.52394
0.6844213,77.07384
0.8259852,77.391304
0.82888377,78.87264
0.97167975,81.52348
1.0309675,81.8738
1.0973918,82.38066
1.2428705,85.709854
1.3322463,82.58257
1.3987623,87.46036
1.4036943,90.54187
1.4788823,88.82074
1.6202211,93.236275
1.5652409,92.704895
1.7125984,92.66066
1.719611,94.07544
1.7588629,94.75933
1.7802647,94.8737
1.7965595,99.136826
1.9661697,98.817116
1.8445297,97.27576
1.8639071,102.24369
1.9500941,101.57677
1.8794067,98.57612
1.8968225,102.43082
1.9041715,100.82403
1.9382218,102.0803
1.8355455,101.81546
1.8443292,102.96543
1.8308711,104.41808
1.8021032,100.734825
1.7506294,100.57646
1.7884899,104.02897
1.7604471,99.72866
1.7429806,101.13357
1.7086788,100.03811
1.6638857,99.01843
1.6011481,99.84023
1.652985,98.66093
1.5255253,95.53008
1.6270331,95.91617
1.5304935,95.00356
1.5078042,92.18354
1.4475378,93.51191
1.5696281,90.667755
1.5176287,92.30549
1.4737517,92.00226
1.5250453,93.108864
1.5304168,89.51459
1.4140452,88.81536
1.3829204,89.7816
1.4205124,89.65781
1.4722408,86.31881
1.3336346,85.015915
1.4067822,86.39968
1.3566298,90.34981
1.3107938,85.23577
1.2220573,82.46131
1.2387019,82.79461
1.1284044,83.66074
1.1893911,78.8519
1.1648562,77.43905
1.0095206,80.27662
1.0220681,78.25774
1.0547138,75.98454
0.9971112,75.963066
0.96545756,78.39192
1.0274476,76.600105
0.98953635,71.651764
0.90183985,74.45318
0.9325497,72.14147
0.9132399,71.603546
0.9842937,74.638466
0.95180357,72.1947
0.9190561,70.248344
0.9803787,68.98522
0.91161567,67.48524
0.94398546,68.410385
0.881428,67.72574
0.8635047,64.71723
0.73556846,66.50093
0.83720315,66.41454
0.7682822,67.763504
0.7779556,63.63048
0.66934925,65.54761
0.77618957,64.32345
0.5913355,68.07637
0.5774588,64.40551
0.5111676,67.561615
0.60067576,66.5633
0.5241554,67.583305
0.54142475,69.380264
0.5698297,69.126114
0.7123367,71.1392
0.68475056,72.954124
0.6911107,72.48994
0.6779117,72.44883
0.6577477,75.70976
0.85278475,76.1791
0.90709287,75.41244
0.9896803,77.15178
1.1113983,78.04799
1.1618915,80.54252
1.1925057,82.64749
1.3068771,82.97379
1.4320856,82.63777
1.4174837,85.00205
1.542284,87.70238
1.5915755,90.025696
1.7092944,91.62534
1.8647835,90.416435
1.7608902,96.31618
1.811694,93.56627
1.8883305,95.320435
1.7768947,93.761
1.86357,95.96011
1.8163142,99.098114
1.9348168,97.554
1.8885611,103.851654
1.8813946,100.17641
1.8395745,98.727974
1.9303795,102.58975
1.9521194,102.29392
1.9170132,101.96594
1.8870286,102.32625
1.8685477,104.67674
1.8756684,104.45801
1.8120347,99.85688
1.8221273,101.8755
1.8100551,99.58536
1.7694434,98.931564
1.7694314,101.491234
1.6944206,98.90888
1.6276032,101.01295
1.6777332,100.098335
1.6307786,99.59843
1.6459599,98.81306
1.5084549,98.55648
1.5441892,94.612625
1.5378398,92.89873
1.4826998,97.36174
1.4492084,92.38167
1.5244533,94.36465
1.4132931,92.37316
1.4896077,89.24823
1.4820546,91.03121
1.3489418,88.7864
1.4118865,88.64284
1.2795285,87.40835
1.3257952,86.86679
1.3242712,84.97599
1.2813574,87.36644
1.2053732,85.4722
1.2739555,85.29509
1.2716297,83.13247
1.1261973,84.44056
1.2258842,81.152695
1.057691,80.162575
1.0089625,81.13881
0.9397374,77.30537
0.9710305,81.11168
0.83288246,76.34431
0.8738325,76.346275
0.8332105,77.63386
0.7355828,74.98656
0.822553,72.43254
0.8402316,74.632935
0.7296049,75.62781
0.68405354,72.30948
0.7382986,70.74582
0.76348156,71.77567
0.6397735,69.32729
0.72959834,69.835
0.77219576,70.28344
0.66455275,69.35165
0.7134981,69.26811
0.6884275,66.784164
0.6757771,68.59558
0.67613304,65.538536
0.67199665,65.68226
0.56734973,65.5672
0.66892445,64.72263
0.54292935,68.25778
0.4354791,65.97652
0.45055458,65.85601
0.3982257,65.79739
0.38807845,67.62866
0.32393026,69.37368
0.28748426,66.98517
0.22672953,69.440384
0.30800155,69.30057
0.4209398,69.53928
0.35139152,71.26591
0.32362416,72.16762
0.46527553,73.718506
0.5711385,73.93889
0.5821553,74.819305
0.6147064,77.206474
0.7413611,77.7307
0.81879777,78.97385
0.94093937,82.8741
0.9440935,82.38014
1.0585524,87.130135
1.1561131,85.24437
1.22632,88.143166
1.3379076,89.29619
1.40269,90.28381
1.4278826,90.97986
1.4564213,93.85148
1.4669255,95.0649
1.5621797,94.393265
1.4808985,92.97606
1.7036288,94.96412
1.6464837,97.97139
1.6511412,98.97734
1.6247039,98.92797
1.6697465,98.242966
1.6252699,100.40484
1.667722,97.56347
1.7259204,101.02965
1.6192968,98.97543
1.6170042,100.39571
1.541332,102.21807
1.5269934,103.322556
1.5194438,103.16687
1.5331831,101.28924
1.4437865,102.2686
1.358505,101.24198
1.447624,96.43982
1.3574411,102.7177
1.3274251,97.298004
1.3041056,97.477905
1.3243936,98.20667
1.2424847,97.10541
1.1878935,94.622734
1.1869781,96.03578
1.1240373,95.61682
1.1791052,95.167984
1.1341164,92.02348
1.0707022,94.90625
1.1364076,92.19981
1.0713367,91.948875
1.0379274,91.30889
1.0350736,89.68381
0.99821705,89.59673
0.9831244,87.34403
1.0467881,90.10518
0.9809916,86.83185
0.9831028,86.09115
0.93947524,84.3253
0.9363464,84.840126
0.88951564,85.044655
0.8686108,81.02574
0.7797217,82.23583
0.79037833,82.35446
0.7226062,78.409645
0.7156247,79.64995
0.7416197,80.11782
0.5781657,78.28481
0.5628795,76.59749
0.5995628,76.33944
0.49271688,75.79624
0.5825144,74.240616
0.42554614,73.53485
0.31382713,74.33695
0.41452545,72.35515
0.43603805,71.96164
0.45655125,72.21917
0.38397413,69.56271
0.36356193,71.10189
0.33314908,66.631035
0.45724398,68.11105
0.3370683,65.72417
0.41239804,69.93604
0.3273227,68.558815
0.3439567,67.06097
0.18579821,66.53915
0.28563792,69.08405
0.20759675,67.92853
0.14109176,66.07965
0.12914309,70.654
0.13358271,68.602615
0.10164469,66.59677
0.0713491,67.448975
-0.08018015,68.483215
0.0026137235,70.42636
0.054569963,68.72743
-0.043318067,68.58964
-0.017317565,68.48091
0.025879623,72.497025
0.086955875,70.886536
0.07750218,72.805305
0.23370874,74.623024
0.26283032,75.88995
0.34678876,76.67485
0.3727367,77.57261
0.42530414,81.30441
0.65103155,81.09692
0.61424375,83.48152
0.7945716,84.9424
0.8452259,85.093636
0.9595751,87.6215
0.9398465,85.66955
1.081762,88.46896
1.0738654,92.33822
1.2066512,90.45003
1.270891,95.14082
1.2501402,95.50678
1.270869,96.665405
1.3475107,97.90988
1.4290007,97.36545
1.4003153,96.46849
1.3880966,99.33643
1.3269088,100.84584
1.401582,100.42342
1.3335804,99.18534
1.3051417,103.82006
1.3515831,100.43186
1.2988169,102.15016
1.3481945,103.7112
1.3429047,100.91933
1.2517344,100.24749
1.2370977,100.4273
1.2619114,101.88363
1.2632532,97.59562
1.1949104,102.67258
1.1801833,98.43433
1.18937,103.39502
1.0159115,99.11536
1.0866627,99.91282
1.0064393,95.38352
1.0088998,96.601135
0.96130216,95.081314
1.017151,91.80221
0.9768365,94.937675
0.924107,93.77095
0.8499276,91.47372
0.91704166,91.99281
0.9789921,88.20052
0.9319218,93.56254
0.90054786,87.56767
0.8247787,89.99858
0.919186,89.1997
0.8542686,89.62921
0.797349,87.19657
0.7888154,86.66574
0.78728247,85.884315
0.73669124,83.53127
0.7053743,80.198555
0.76273364,82.44195
0.6940886,84.35249
0.61666065,79.44951
0.65421927,79.74913
0.67972344,78.60211
0.5620263,77.68973
0.4779172,77.84575
0.41571152,75.45717
0.42745695,75.22864
0.33868843,76.32572
0.34267524,75.32706
0.3582437,75.21791
0.4038642,73.71852
0.26232526,72.988205
0.36983517,71.080734
0.4307848,72.80414
0.36744413,70.633415
0.40925327,71.03895
0.2900569,72.29329
0.36073765,68.312904
0.37021166,68.23446
0.3147628,71.744896
0.31817022,70.12536
0.37633705,64.93443
0.20617053,66.64638
0.28066257,68.05043
0.13564692,67.60087
0.16184936,66.18657
0.060661037,66.99082
0.11728087,69.644424
0.037215345,66.88009
0.059355218,67.12369
-0.026463725,65.758354
0.0246802,69.466354
0.008770217,67.50916
0.046532586,69.98453
0.017369956,68.30038
0.08569904,70.295204
0.15150766,69.07244
0.09188297,74.24371
0.25644755,76.52531
0.38551372,78.557594
0.4931522,76.28954
0.48378956,78.96936
0.5102252,79.29361
0.6443786,80.61834
0.6766693,83.80917
0.77462006,83.01708
0.93257165,82.060616
0.90454215,86.021
0.98430055,89.108284
1.1408339,88.94043
1.1056858,91.04006
1.2035019,90.922966
1.385092,88.898926
1.3524529,93.28346
1.3277261,94.846245
1.3447913,94.312
1.4565512,98.46154
1.490413,94.183495
1.5491827,98.73837
1.52694,100.55631
1.4868553,97.807335
1.4806151,99.75756
1.4775367,102.552216
1.5164232,105.25396
1.5257176,103.9612
1.5075247,99.315
1.4664614,100.421005
1.5039599,101.76029
1.4393891,102.61171
1.4262806,104.698235
1.4482459,97.721664
1.3491405,100.65023
1.358015,99.81716
1.3906822,98.04831
1.2949666,99.717545
1.2343287,99.805916
1.2434857,98.45114
1.2375648,99.555984
1.2706081,97.40973
1.2599711,98.07298
1.2195133,96.76869
1.1738174,92.53318
1.1215967,94.48132
1.1624928,93.52032
1.1444377,93.3548
1.0997888,90.704254
1.1447226,91.71581
1.1498483,90.86971
1.0585142,87.22217
1.114489,86.95745
1.0599917,88.54172
1.0815132,89.21675
1.0329493,86.82118
1.00371,84.340355
0.9748574,83.214485
1.0208086,82.26748
0.9015189,79.92343
0.96569824,84.636116
0.85639256,83.261955
0.8627197,79.1206
0.7999882,79.462296
0.75848126,79.12303
0.7960732,77.9474
0.7022792,74.71824
0.71561545,78.05101
0.6057641,73.670975
0.652135,74.90459
0.57220274,73.11173
0.603191,73.97372
0.7036622,72.288956
0.70287013,73.270004
0.58335465,72.12964
0.71064335,71.14784
0.697843,70.79692
0.606907,68.67053
0.6747412,70.24162
0.64577866,68.355125
0.56074286,70.452354
0.62335354,67.91319
0.61716783,65.22405
0.6635275,68.52235
0.44009796,67.3376
0.50358593,64.578285
0.49962562,65.108376
0.4432957,62.72952
0.39467213,63.782322
0.35092807,68.38335
0.36708966,66.51262
0.37992904,65.444244
0.37520534,70.416695
0.31816828,70.313034
0.34160897,72.105194
0.41367468,70.80299
0.38004217,73.38753
0.38059422,73.63011
0.47969145,72.50645
0.6390103,77.437836
0.76363736,77.59215
0.81317973,78.06186
0.7771923,79.382645
0.9115811,79.97396
1.077669,82.02822
1.1049004,84.359566
1.2608097,85.97052
1.2679279,83.64559
1.3032718,87.97891
1.4366952,86.09735
1.4761113,92.0993
1.5348494,92.57041
1.6178914,93.44299
1.6857142,93.91216
1.7476971,96.67868
1.7776979,96.89283
1.7067894,97.61658
1.8119385,96.32674
1.8686091,100.33985
1.7986394,96.736534
1.8858331,100.98112
1.9011067,101.89049
1.8954163,102.15304
1.7890859,100.37974
1.835799,101.98526
1.8360732,101.66717
1.8103759,103.31753
1.7529926,101.54675
1.8036958,105.41205
1.7935454,102.19355
1.8430467,102.490585
1.7790792,99.83297
1.7136567,103.32432
1.7557145,104.72447
1.6245252,96.8556
1.6570582,99.13305
1.6178675,98.575714
1.6074624,98.65986
1.5373569,96.65193
1.48672,95.83639
1.5384735,97.57955
1.4927729,97.37387
1.4483299,94.76086
1.3666011,92.8871
1.5303149,90.99576
1.4919499,92.53829
1.4792855,91.42427
1.4747057,92.38884
1.4696634,88.688034
1.3754503,87.4797
1.3891656,88.311424
1.3911127,87.76034
1.3745534,85.23851
1.3827859,87.67811
1.3450705,87.25762
1.2790731,83.31873
1.2806506,84.71866
1.3011856,83.57016
1.1943582,83.2428
1.1708269,82.14591
1.1765348,80.825195
1.099886,81.304634
0.984197,78.478806
1.1064755,76.26199
1.0356357,76.81586
0.9874439,75.63637
1.0169683,72.21871
0.8894725,73.76346
0.949332,73.25226
0.893246,73.21757
0.88197494,70.748886
0.93747896,73.3365
0.9626904,71.84844
0.9840488,70.69789
0.9152137,68.93288
0.97966665,69.921425
0.8926697,68.943054
0.95832694,68.92695
0.8859768,66.859764
0.8078727,67.15445
0.8276709,68.66432
0.7357742,65.99588
0.74333733,67.43621
0.70318055,68.621414
0.74325186,66.92423
0.6420162,70.24075
0.6277353,67.887955
0.4602754,68.31091
0.5288838,66.71191
0.54045403,66.47776
0.5287294,70.719635
0.56013894,69.464745
0.5476608,71.91694
0.59805554,71.21939
0.6169012,72.46975
0.63748616,77.34038
0.7615124,73.66518
0.78778964,77.106285
0.88411504,75.117905
0.9034248,80.385635
0.9916072,80.101204
1.1773858,82.535805
1.2079617,83.51729
1.2768157,81.42399
1.3506213,83.233025
1.5367932,87.44419
1.5793674,88.555405
1.5685245,89.04731
1.7068261,89.40161
1.7723205,90.93993
1.7527963,90.88898
1.7823318,96.12348
1.883557,98.02393
1.8686644,92.93596
1.9309973,97.083954
1.9832379,97.51315
2.0001366,101.31373
1.9606152,100.95592
1.9789782,100.07836
