ppg,abp
1.0211657,89.41818
1.1353064,92.26844
1.2171339,90.91062
1.2655647,88.64724
1.351737,92.80351
1.3865881,95.68889
1.5090777,97.72334
1.5752478,97.234406
1.6217765,98.97174
1.5938398,95.60578
1.5993303,95.88187
1.5593653,101.504166
1.6781228,102.84261
1.683643,100.07355
1.6829077,99.40302
1.7085105,104.30073
1.6877857,102.35377
1.8048396,101.85155
1.7216115,100.15369
1.6955867,99.319336
1.7908247,105.1207
1.7065483,105.98166
1.7968723,102.53077
1.7000585,103.310425
1.6648681,102.21962
1.7004082,100.485146
1.6762995,105.773315
1.6214477,101.783455
1.5845175,102.13254
1.6492149,101.63812
1.5643263,99.25744
1.5488316,100.73713
1.4592862,99.070015
1.5174903,101.3306
1.4522535,98.067795
1.4489413,97.48059
1.431068,100.38334
1.3819574,96.59101
1.2716017,97.92993
1.391768,95.036194
1.3427161,96.94289
1.3522207,94.142525
1.3615193,94.35051
1.3790689,91.35389
1.2649833,93.63882
1.3758171,90.55476
1.273498,91.06742
1.2682177,92.112465
1.2607738,89.75969
1.3612554,88.47427
1.2991198,89.71302
1.3090882,87.03151
1.278848,90.94729
1.2142124,86.12481
1.2467573,88.47937
1.0977275,84.725624
1.1066796,84.35989
1.1095124,87.22316
0.98255664,83.13934
0.92416507,82.46546
0.9353197,83.912605
1.0072353,83.145676
0.86190027,78.59261
1.047219,78.10977
0.83405817,81.33607
0.882471,81.27326
0.88350224,79.64353
0.88304204,77.16597
0.95184654,79.5243
0.8552341,76.55581
0.9024853,78.24786
0.9466785,74.42695
0.8209248,76.54882
0.85368276,76.79865
0.8658415,72.0961
0.8486436,77.15146
0.8516053,77.21686
0.8586582,76.95358
0.80854774,75.50692
0.76268846,76.11569
0.71598595,74.92338
0.73661906,72.94771
0.6481192,75.304184
0.5872131,75.37299
0.594412,71.54186
0.5778965,72.4217
0.648422,74.15173
0.523762,75.63593
0.48536316,71.5853
0.51595277,77.28118
0.5256248,79.036385
0.49475572,78.12494
0.5787423,76.91831
0.6590803,79.37338
0.64932865,78.02306
0.7312426,81.65428
0.7973224,80.26304
0.8891839,83.932365
0.8876114,84.50558
1.0082432,83.92871
1.1124395,82.2942
1.2233157,85.81393
1.2322589,91.51704
1.3913424,90.88421
1.3886137,91.54566
1.4917563,90.61234
1.5306574,91.791595
1.6260197,95.35266
1.6585977,95.97948
1.673839,95.591
1.7825577,95.7739
1.8319203,99.06417
1.7885462,100.93852
1.8976736,101.35951
1.8837123,102.95574
1.952675,103.39089
1.9643823,104.42097
1.9624648,100.05337
1.9722309,105.62622
1.9281693,103.16485
1.9456503,104.372284
1.9208225,100.636566
1.9385815,102.333694
1.9405018,99.530815
2.037806,102.39212
1.8972081,104.048515
1.9250538,101.852455
1.8675348,103.90453
1.8224758,101.61196
1.8293399,102.121956
1.8238991,103.910194
1.7382791,104.70934
1.716527,102.04436
1.7248302,101.808304
1.6667625,100.13547
1.764659,101.83515
1.6672752,100.72758
1.6623663,97.000275
1.5657891,98.94557
1.5230914,94.471756
1.4917448,97.18691
1.644721,96.719
1.5616301,97.25903
1.4993719,92.14213
1.5180504,93.501976
1.4910203,93.10252
1.4462565,94.965454
1.5226403,91.69457
1.5071028,92.31991
1.412768,94.98879
1.3947543,90.34631
1.4471563,89.762856
1.3445,88.65377
1.3303556,90.0089
1.3920118,90.77884
1.3126266,88.296875
1.293816,88.34021
1.2019819,85.15294
1.1658341,84.35671
1.1345884,87.437454
1.1363776,85.82912
1.0439868,84.37334
1.0257533,80.54484
1.0212264,81.210236
0.973453,83.19861
0.9684868,82.064
0.8879277,82.36145
0.98135483,77.703476
0.9398823,77.82899
0.8707666,80.03806
0.8984318,77.784386
0.91373235,78.98743
0.86649364,77.512985
0.86328167,73.745125
0.8749524,77.14351
0.9210955,77.08346
0.8889269,74.44305
0.8958642,74.31579
0.7956314,78.87233
0.7822312,78.081436
0.7789238,72.40534
0.7619216,75.862206
0.7607099,72.59567
0.64130855,73.56222
0.69601905,72.794815
0.59464836,73.33379
0.5778457,70.09377
0.5498232,73.747734
0.5377486,75.77743
0.41155615,74.39652
0.40475914,76.441864
0.46731427,72.314186
0.39402503,74.5196
0.46104595,76.6642
0.39887655,74.20743
0.45407033,77.76555
0.47138754,77.29706
0.6079165,80.0335
0.67267454,80.664604
0.6580993,83.08047
0.80648947,85.73099
0.83874387,83.504616
0.9314095,88.17293
1.0140321,84.83415
1.0812894,87.399155
1.23679,88.00799
1.2066237,90.97978
1.3612127,93.511986
1.3248504,91.29551
1.3918389,93.80465
1.4865651,94.5012
1.5389327,96.10805
1.6268184,99.43925
1.6272042,95.497444
1.6819168,96.64421
1.7444788,98.62926
1.676616,100.81609
1.7996551,100.44933
1.7944523,101.91271
1.7711222,103.52963
1.7418243,100.404465
1.8381131,103.13253
1.7691433,102.13914
1.8228192,100.5489
1.7754266,104.813934
1.7091359,101.7587
1.7261665,104.55705
1.7150111,103.11608
1.7096579,101.073944
1.6653026,100.38449
1.6251194,106.73608
1.6311067,103.09457
1.5461879,105.192406
1.489188,104.174324
1.5181727,105.20273
1.5013121,101.59935
1.4865162,96.89504
1.501549,97.220055
1.4313282,101.27284
1.4493536,100.767494
1.3044167,100.09177
1.3240881,97.5804
1.2860234,96.47723
1.257953,94.91196
1.2037975,96.69034
1.3265156,97.21178
1.1952509,96.6201
1.1859579,92.71523
1.2269565,97.0101
1.1290926,95.03081
1.1549082,91.72078
1.1600624,94.01028
1.136326,91.92818
1.1530378,90.81584
1.118676,89.67483
1.0797479,89.42117
0.99463177,87.75137
1.0450246,87.6993
0.9717741,86.59888
0.8672495,86.082825
0.90395105,88.93434
0.8255117,85.24781
0.80010605,83.85052
0.76046485,84.445274
0.75005955,83.33192
0.6921851,83.55579
0.7255052,83.41656
0.6097022,81.45403
0.5668378,79.63363
0.57893234,80.749115
0.56365305,78.50171
0.5887558,80.22814
0.5742245,78.97653
0.5900969,77.055855
0.50991017,74.816864
0.5214974,74.13123
0.5083136,77.789894
0.53638524,79.07231
0.49481624,73.10876
0.46655062,76.477684
0.56589395,72.11859
0.45745277,75.003975
0.488316,73.32092
0.39530653,73.69599
0.3812381,74.533295
0.30493963,73.425385
0.30360267,73.702736
0.34997863,71.425446
0.23715009,73.733315
0.14691263,75.011375
0.1821717,72.684525
0.18973745,76.02546
0.1001156,75.7906
0.10816162,73.70563
0.012240369,73.61072
0.11124208,77.407555
0.1327194,75.44241
0.14340246,77.03301
0.20229256,77.72298
0.12834151,77.036125
0.20956872,78.81028
0.34292743,82.38399
0.36455977,80.51833
0.38062596,85.353836
0.46309793,85.91175
0.5884511,88.029915
0.6137299,84.41304
0.67403674,89.27754
0.8525782,86.12718
0.9018131,85.58542
0.8684144,88.7501
1.0570369,92.240974
1.2283713,94.81925
1.211625,92.453285
1.1866564,94.81262
1.3619477,93.529594
1.3090454,96.27318
1.3290466,95.25742
1.3507954,98.764275
1.3531746,99.945305
1.4791805,101.229866
1.5240518,101.205086
1.4663894,103.0785
1.3917092,101.8404
1.4419235,101.77008
1.5088216,101.05858
1.3988307,103.30684
1.3657331,101.87334
1.4732845,103.80655
1.3760756,102.03209
1.3958118,101.69359
1.3144983,101.41268
1.3312885,100.65743
1.3267038,100.84106
1.2659212,102.82223
1.2546699,105.32043
1.2208405,106.56188
1.2185191,103.51228
1.1114285,104.280945
1.1313274,99.845116
1.1083561,103.86455
1.0237944,99.20967
0.9867769,97.55314
0.95854455,99.21527
1.0578173,97.054115
0.997823,95.44216
0.9661682,96.62077
0.9156991,96.98169
0.99033517,93.48978
0.94061524,94.78062
0.84081346,96.36012
0.9718846,94.58881
0.8884254,93.28129
0.9569254,93.15792
0.86516935,91.26851
0.8772199,92.20383
0.85217077,93.2157
0.85184896,90.87632
0.7947623,86.5771
0.7814467,90.90869
0.7334713,88.96492
0.7477451,87.73487
0.6184638,85.09286
0.5723739,87.953865
0.6351682,88.913475
0.6245995,86.334435
0.5657037,85.81192
0.43393293,83.949936
0.39000136,83.16497
0.53250045,82.894
0.3474566,81.34504
0.30884692,81.880264
0.26769271,83.025185
0.32131335,79.059326
0.35755855,80.07317
0.2762573,78.07236
0.33703962,80.65293
0.31918123,76.276375
0.2919743,76.401985
0.32403943,75.54256
0.29627115,75.54073
0.31542078,77.55701
0.229376,76.663155
0.20275182,73.60066
0.2748762,72.804474
0.22077276,73.63645
0.21862783,73.5678
0.24321613,73.25898
0.21471925,73.24096
0.16479667,72.61543
0.128391,75.616
0.05567361,72.44456
0.06493509,72.16488
-0.013091246,75.68554
-0.076596685,74.780464
0.0198145,74.40527
-0.05216865,74.90764
-0.03722645,74.814186
-0.098907694,76.60241
-0.020886896,78.067696
0.033989854,77.15794
-0.0057198335,80.48738
0.09941718,78.0265
0.16392134,79.62491
0.23950887,82.213104
0.2738686,84.755394
0.4356576,83.30069
0.4762218,85.41036
0.5586859,83.74194
0.63452864,84.42102
0.6612309,84.52559
0.7945667,86.96935
0.836102,88.8953
0.85378176,89.94726
1.0099719,94.18872
1.0798539,93.975746
1.1325647,95.537735
1.1909602,96.81533
1.2680981,94.57508
1.2860832,96.15384
1.2879682,99.23908
1.287022,98.83185
1.4037443,100.0262
1.3718779,102.521126
1.4268286,101.717354
1.436901,100.358055
1.4127525,102.74658
1.3662341,104.06759
1.391484,102.073845
1.4182833,104.998024
1.4165765,104.095985
1.4946343,103.86558
1.4398272,103.27935
1.3141943,105.181694
1.3840045,101.81951
1.4068764,102.334404
1.3327129,106.956314
1.286763,100.65332
1.3748803,104.22681
1.2399285,100.66466
1.236108,104.133156
1.2896101,102.90713
1.2399693,101.126366
1.0802743,99.396645
1.173002,100.77622
1.0895913,99.00813
1.0768591,101.127525
1.1220379,100.694145
1.1106408,99.652176
1.0269834,96.079254
1.1320922,95.732574
0.92618614,97.74807
0.9665003,95.18245
1.0756347,96.17266
1.0489507,92.215195
1.0242162,92.37723
1.0894928,93.07658
1.0540582,92.12504
0.9082683,93.86754
0.90722084,88.79805
0.975996,89.510925
1.058443,87.649506
0.8991872,88.73657
0.87489384,86.8397
0.8950059,88.20479
0.8379056,86.83734
0.7941334,85.57193
0.7370631,86.2963
0.6906099,83.332825
0.6947983,84.66111
0.6042574,84.24168
0.56107366,82.014915
0.54283464,81.99744
0.6694852,82.72356
0.59090555,80.94166
0.6405857,81.12521
0.52236134,75.65603
0.5572711,79.789024
0.52878225,79.13345
0.59076923,80.167854
0.5487894,78.53147
0.46535838,77.96266
0.59080964,75.43132
0.5739346,75.92216
0.61777824,76.29454
0.6020554,74.28725
0.5996449,75.262665
0.5116791,75.1717
0.47775424,75.74819
0.51423013,73.846725
0.38665327,73.097404
0.40107077,71.865486
0.3524904,72.72736
0.40785894,76.197624
0.2723846,73.38276
0.26698762,73.764854
0.23762168,76.17953
0.17566583,76.42096
0.24388872,74.26944
0.23488736,74.238144
0.2928599,75.36342
0.2748935,77.55249
0.27879047,74.789345
0.29625005,79.03191
0.2931255,80.86181
0.43192106,76.404305
0.45932436,80.81607
0.49989894,81.03695
0.62963283,82.9608
0.73499495,81.62569
0.8417115,85.301025
0.8656997,83.46197
0.9622999,86.93491
1.0635102,88.52216
1.1989976,87.121765
1.1870993,88.737335
1.2409239,93.42734
1.3766153,91.53946
1.4333972,90.88329
1.4399374,94.06017
1.5226648,92.881065
1.5346756,94.589905
1.5947585,98.50922
1.6155537,100.03273
1.6665382,99.54151
1.7931345,101.11637
1.6988558,101.32991
1.7202561,99.66493
1.6821187,101.66052
1.7893744,105.30596
1.7286564,104.50605
1.7664925,105.20001
1.7614493,105.06441
1.8085355,104.54632
1.7451142,103.913086
1.8192996,103.99749
1.7506784,107.67384
1.7734646,103.2827
1.6807443,106.076294
1.7072037,103.417274
1.7405657,105.17188
1.6372055,103.87579
1.6226085,102.66525
1.6457816,100.46197
1.6197534,100.4541
1.5197809,100.82813
1.505735,101.62457
1.4577298,101.86628
1.45941,97.99058
1.4806055,98.98954
1.4845575,94.67651
1.4560885,96.886696
1.4907176,98.32866
1.3486388,94.21324
1.351782,95.74928
1.4002327,92.350075
1.4094038,95.21631
1.4251328,89.80884
1.449123,94.27471
1.3111013,92.78639
1.3110572,90.86552
1.3494375,95.10788
1.3253018,89.70979
1.2802382,89.499084
1.202047,87.53303
1.3128921,88.885475
1.3015989,87.54822
1.1689517,88.60834
1.1810803,88.36598
1.1700951,86.77752
1.1744852,86.18195
1.0766822,81.85273
1.1544282,84.3591
1.0140934,83.508484
1.0192146,83.755615
0.97574574,82.30719
0.95541936,81.47729
0.8582697,83.83877
0.9499444,80.80356
0.95138526,80.99926
0.8451803,81.18848
0.8085248,80.365906
0.9266813,79.25409
0.85449445,77.1151
0.8586505,78.23018
0.8931942,76.13775
0.8662835,77.42469
0.8734289,79.24675
0.82328355,76.30984
0.89410067,74.987404
0.86875325,71.75749
0.7879007,75.8287
0.7543625,74.64636
0.84475535,71.60587
0.7450693,74.534485
0.76131594,75.26724
0.6499279,76.516335
0.6711255,73.76281
0.6289461,71.21427
0.6009023,72.807594
0.5408168,77.53917
0.610427,76.129036
0.52201504,74.11793
0.52473843,74.68524
0.5375835,77.26182
0.55248165,76.22863
0.58564746,77.889404
0.5570546,80.76782
0.7937232,78.727104
0.76680446,78.52641
0.8457471,79.86607
0.9125409,84.128296
1.0644845,83.75497
1.1021707,88.119446
1.1732517,84.297874
1.1557734,86.09331
1.2808443,89.62107
1.4274515,89.65983
1.4573114,89.331085
1.4807485,90.40044
1.6312877,91.10983
1.7008322,92.838684
1.7318003,93.82369
1.7302239,94.75657
1.9079686,97.07039
1.8522853,96.69208
1.8756496,100.27202
1.8751596,101.68519
1.9586316,99.195526
1.9013382,101.767075
1.9743943,100.63779
1.9923601,103.53136
2.0063906,102.39605
1.9796864,101.6886
2.0165553,102.15143
1.9276675,101.86696
1.9237254,106.70194
1.9616073,103.78102
1.9424549,105.96613
1.8404944,104.86074
1.822242,105.41758
1.8654449,105.148186
1.8120652,102.77983
1.8094885,104.764046
1.8188218,102.13686
1.6727926,100.33976
1.7798507,101.875404
1.7706609,97.42752
1.6596025,104.17372
1.6305003,100.41237
1.6559147,100.649635
1.5274912,98.172386
1.5764639,97.61762
1.5303776,95.955215
1.5302683,98.53699
1.4943662,98.46144
1.428066,93.26855
1.5232412,98.758415
1.4785178,96.85071
1.5126405,93.16689
1.4989711,93.566025
1.3909345,92.29875
1.4314616,93.05202
1.3972532,91.22336
1.477453,88.976425
1.3652337,89.84271
1.2793998,93.07138
1.3334861,90.05433
1.2919856,88.34587
1.2710142,89.67514
1.2159575,88.40418
1.1069695,87.39999
1.1095023,85.23703
1.1232839,86.09379
1.1352655,85.3734
0.94185203,82.523735
0.93724096,81.6419
0.99343157,84.000145
0.90883744,81.06645
0.9011478,81.59331
0.9347452,80.60969
0.87205863,79.34787
0.79902744,81.95234
0.8191002,78.02865
0.8419054,77.4071
0.79903656,78.154755
0.7787679,80.91046
0.89912146,76.3728
0.82936674,76.93254
0.85602164,73.534645
0.78521883,74.008354
0.7749708,75.678635
0.71045566,74.18368
0.7491193,73.99187
0.7476449,73.658966
0.74778575,73.67915
0.67578685,72.7052
0.6314345,72.11984
0.6272285,72.71065
0.5207088,71.98693
0.5587585,71.9543
0.50780016,72.80867
0.44822595,73.004524
0.5219333,76.90829
0.3871955,74.850075
0.36130416,77.070114
0.39279795,76.76332
0.4177926,77.62556
0.47209775,77.56538
0.4438297,76.7927
0.5368513,77.97186
0.48625186,78.72006
0.61660904,81.249855
0.63749,82.188995
0.7539434,83.77195
0.85888416,85.572296
0.9249638,84.29275
1.0446862,86.39624
1.1220846,89.21031
1.1825533,89.84987
1.2347097,86.79238
1.3369999,90.41243
1.4156127,91.66547
1.4134076,92.20882
1.4867723,93.322044
1.4974239,95.58758
1.6197377,93.96414
1.635095,96.63093
1.6482608,96.34696
1.7182666,97.54567
1.6432415,95.998985
1.711869,100.67461
1.6222167,102.80932
1.7116455,101.77854
1.6933923,103.10156
1.7388827,101.22491
1.7663822,103.658806
1.7021624,103.596146
1.7651494,103.50052
1.7634802,103.39571
1.6769745,101.72743
1.6101099,103.347206
1.6279002,102.337845
1.6826146,103.39643
1.6335884,103.204384
1.5710135,101.72605
1.4892454,102.53616
1.4759141,101.564186
1.4475061,100.53159
1.4087088,104.469315
1.3543289,102.184074
1.3289224,97.68427
1.297407,100.211945
1.326763,98.40402
1.2422929,98.30929
1.2710682,97.86903
1.2209992,97.23571
1.1519892,98.3146
1.3131772,95.602
1.2056555,96.56642
1.1750107,94.31502
1.1544782,95.57982
1.2171243,93.21747
1.2281848,94.37624
1.2495676,91.74199
1.0232931,90.92824
1.1593673,91.5182
1.014711,88.61703
0.96888196,89.934105
0.95035714,92.56847
0.957563,89.07815
0.8782204,88.29509
0.88974845,85.965355
0.87948656,88.63512
0.7666337,86.65073
0.87706923,88.05194
0.8762541,85.23897
0.74329776,81.91349
0.64663327,84.11504
0.56721324,87.92651
0.5988927,81.943565
0.50824064,81.93241
0.4531996,81.79885
0.5074493,82.809975
0.5085603,81.59795
0.49815452,77.79725
0.42718926,77.16159
0.50602835,77.44559
0.54841655,77.51412
0.50298196,73.816246
0.45041624,76.29183
0.4068269,72.5709
0.47630936,76.36003
0.5561406,76.07267
0.4987722,74.33691
0.40629712,73.63667
0.38042375,74.49859
0.432843,76.04614
0.26615217,69.83262
0.25387,72.9702
0.24151318,73.50007
0.19079113,75.24615
0.12926538,72.14484
0.09980017,76.82084
0.0803496,75.16335
0.043639053,74.06917
0.0059850765,78.333046
0.032817245,73.40067
0.066207424,75.94773
0.060142692,74.689545
0.047477715,80.01343
0.07917585,76.393875
0.057394702,78.587105
0.18796505,82.25792
0.2272001,82.60195
0.32614648,79.65936
0.38846093,81.24722
0.41694385,81.80733
0.48673376,84.16855
0.66202945,82.38395
0.54090047,85.96276
0.7865025,90.02521
0.8628138,88.66006
0.89709806,87.1525
0.97044355,93.146614
1.0508032,93.88263
1.0143126,90.90483
1.0403523,94.07452
1.1736602,95.76852
1.2647455,98.651306
1.3495549,97.87492
1.3067291,97.882225
1.2925284,99.007645
1.3533728,97.571075
1.4203986,98.11822
1.3450382,100.64277
1.3049433,102.725204
1.3974504,104.159744
1.4171773,101.76524
1.416585,103.30845
1.4381267,105.00931
1.3974612,105.6658
1.3384702,100.819305
1.3334315,104.83803
1.4019272,103.9472
1.3598591,104.4747
1.3199614,102.70278
1.3444072,103.688545
1.1442378,104.869644
1.3967947,103.13092
1.1086543,103.37194
1.1338176,99.376015
1.161284,101.023254
1.141401,99.66057
1.0863165,99.42372
1.082317,98.249214
1.0353982,99.79643
0.9999082,100.278366
0.9830996,97.48911
0.9784289,97.58661
1.0660319,97.399635
0.911387,97.74411
0.97392905,96.32631
0.88260657,95.34636
0.86048,94.770065
0.89197904,92.662285
0.9340547,95.98768
0.85781825,95.91002
0.9233534,90.681206
0.79014474,92.683136
0.8444871,89.42418
0.7895653,88.69319
0.7850106,87.97873
0.7957849,87.750374
0.6984748,87.88526
0.65870196,85.76239
0.67708284,85.67499
0.64742756,85.932014
0.5671987,84.02071
0.47647136,87.5807
0.48348904,83.241745
0.5294761,84.9076
0.43785903,83.825775
0.32791182,82.8462
0.40837073,83.10214
0.30898628,79.88431
0.3696724,82.53112
0.37908804,82.2515
0.33437783,77.487946
0.30718023,79.95296
0.3166687,78.04833
0.3657657,77.82545
0.2810335,75.355736
0.35789084,75.19895
0.34547615,77.506546
0.27113932,74.95764
0.30746296,74.12932
0.3363726,76.74227
0.29195312,73.97485
0.21925975,73.24319
0.24125437,74.81583
0.33343557,75.30514
0.15897037,74.95622
0.21960077,72.09898
0.07181906,72.65588
0.07405797,72.90263
0.0032040614,76.476295
0.0073455083,75.733215
0.03546734,72.428825
0.013704823,74.02183
-0.102921925,73.14829
-0.07733693,73.12206
-0.11521316,76.078026
-0.004401756,76.545586
0.11556179,75.906235
0.08912134,78.94732
0.17026049,77.51931
0.25386456,78.93776
0.22372176,82.76236
0.30488554,81.6947
0.4247808,85.68039
0.49656737,83.19441
0.49909124,85.45034
0.74198294,86.095375
0.73935485,89.39761
0.85497856,90.09358
1.0435464,89.970085
0.9607645,88.66997
1.0498618,93.56624
1.0870377,92.362335
1.1354026,97.85061
1.2299582,96.369
1.3822851,96.38041
1.2650974,96.137245
1.4367433,96.79152
1.3581518,98.98017
1.4684179,100.754654
1.4011047,101.80976
1.50275,103.60995
1.4364601,101.56004
1.404878,101.73267
1.4181236,100.63959
1.410711,102.71865
1.3927273,103.85847
1.4575317,101.03797
1.4943194,103.07764
1.4280759,101.45921
1.3551244,102.20429
1.4748675,102.56804
1.3680156,102.74795
1.3619131,103.51532
1.3483751,101.61353
1.3609853,102.64698
1.3265232,104.1997
1.3502028,104.26405
1.1716244,99.05512
1.2085276,96.907005
1.1678073,96.35408
1.1127851,100.34333
1.2602388,99.60466
1.1408491,98.318
1.0706246,99.8627
1.125497,97.15088
1.0856693,96.22404
1.2016315,95.256294
1.1244489,93.66437
1.0872052,96.47524
1.0728104,94.67614
1.0828704,95.165764
1.062181,94.69275
1.0866396,93.21239
1.0236458,90.757744
0.9311038,88.76184
1.0071931,88.71713
1.0598587,87.67927
0.9784921,89.53817
1.0464164,90.142975
0.9346331,87.322556
0.8857003,85.44691
0.8738735,88.49161
0.8456614,84.34807
0.7347661,84.11134
0.72897494,86.07129
0.70268387,84.41056
0.64791393,81.89515
0.58698636,81.84607
0.7535672,81.93466
0.6745474,82.34066
0.59689075,81.72896
0.6288579,84.197266
0.6460574,82.5064
0.5878758,80.22032
0.503758,78.56018
0.5160021,78.02268
0.6013494,78.38389
0.59582937,76.78886
0.5856842,76.89288
0.6007703,75.63542
0.65260166,73.02948
0.52669275,71.371
0.58020145,75.80359
0.5559332,74.59945
0.49648947,76.91585
0.55972093,78.30825
0.3770683,72.38245
0.44509545,72.15931
0.47580206,72.6803
0.33859304,73.970245
0.4488245,73.42183
0.3685455,71.89019
0.2889995,74.60034
0.25892246,73.67032
0.30115166,74.821045
0.2794174,75.268196
0.249481,79.14859
0.3580742,71.27282
0.32390943,75.045975
0.4252949,78.214005
0.4473089,79.24979
0.4830372,80.520615
0.5687542,80.29497
0.62358075,82.19688
0.72460705,83.85286
0.8846041,84.19706
0.8299415,82.86224
1.0147362,88.4488
1.0144196,87.32371
1.0978686,87.8585
1.1691219,89.795395
1.2832625,89.01216
1.3520352,92.80153
1.409695,92.64815
1.4763551,93.74388
1.5401567,93.1113
1.5962205,98.49953
1.6830664,96.19373
1.6932157,98.12934
1.7459644,99.467285
1.741364,99.51044
1.7199247,103.493965
1.7395266,102.84706
1.8070365,101.89714
1.7775059,101.524445
1.780652,102.68893
1.8162836,102.736664
1.8039229,102.06291
1.8365405,103.16431
1.7919844,103.40309
1.7988468,104.165726
1.8405957,103.11434
1.8414118,102.51899
1.7521791,102.86773
1.7696676,106.739105
1.7325486,102.177345
1.8090538,100.278145
1.6012248,103.395164
1.6549798,103.64299
1.6371933,102.66074
1.7061768,101.24643
1.6402732,102.232506
1.6079928,99.281105
1.5845171,102.353134
1.5280237,98.36771
1.527026,98.12628
1.4985495,100.95705
1.455534,99.918
1.4110836,98.44994
1.3601444,98.33261
1.4234921,96.58237
1.4897765,95.1724
1.4451244,93.544525
1.3927121,93.55742
1.4048904,93.96994
1.4795467,94.283516
1.4110214,90.94534
1.4562399,89.292145
1.3705937,91.86671
1.3017035,86.37764
1.3118607,89.313156
1.1725509,90.203415
1.3151857,85.14337
1.2284417,86.67189
1.1778312,82.22747
1.1466886,84.30376
1.1068491,86.50347
1.116448,84.78969
1.0614108,82.88438
1.0269054,83.86165
0.93568534,83.34917
0.99685824,83.62345
0.85607475,84.12584
0.8918547,80.307365
0.8702543,79.29745
0.9263602,78.00012
0.9191447,79.48473
0.8891159,76.050095
0.840775,77.900185
0.9359538,76.48969
0.9203767,72.80974
0.8984732,74.22098
0.93856823,79.75688
0.8637833,79.31697
0.94707423,76.34088
0.82727677,74.514114
0.85210824,74.273415
0.88077945,76.33894
0.7881178,74.70617
0.8254418,70.24377
0.8278875,71.75509
0.6953921,71.39141
0.70168984,72.66278
0.6372189,71.276695
0.6272676,75.14113
0.627508,73.76398
0.5303629,72.93835
0.5430358,72.829414
0.57214576,77.233376
0.5321123,74.234276
0.55529255,76.55685
0.629623,79.80916
0.59285206,77.965645
0.685419,80.58567
0.675906,80.36365
0.888153,79.67894
0.8764739,81.53422
0.8945584,81.32987
1.1087041,87.56568
1.0148304,85.5388
1.1567518,87.74234
1.2491004,86.74238
1.3241919,89.05945
1.400865,86.05984
1.4826491,89.651665
1.6513933,91.953026
1.5897646,94.49542
1.7402604,94.98931
1.7505637,96.21891
1.7167164,95.299545
1.7935386,94.599915
1.9173889,99.48386
1.8489121,99.3581
1.8740883,101.49894
1.9990876,103.074265
1.9736937,101.19838
1.8335714,104.03267
1.9899497,102.178734
1.911858,103.8124
1.9627883,104.81399
1.9551384,104.4878
1.894735,104.01894
1.9393361,104.93627
1.9674814,105.608505
1.931949,104.85363
1.9543442,103.91963
1.833367,103.72211
1.8678951,101.3608
1.8412292,103.155624
1.8135722,100.2968
1.7299176,102.65427
1.8136476,102.58708
1.7699277,101.718636
1.6287341,100.36985
1.7056144,99.847855
1.5982418,99.78723
1.6164654,100.398056
1.5893933,99.51433
1.5031039,99.2309
1.5481247,98.700615
1.488072,95.62218
1.5235661,96.254234
1.5376738,97.01595
1.4768232,94.89285
1.4638203,95.69621
1.362567,97.90034
1.3182113,94.69982
1.4884642,90.71252
1.5131943,89.668945
1.3463533,91.175186
1.3385777,90.40835
1.3758976,90.86053
1.3931952,90.5663
1.2649791,87.80073
1.3373884,88.39623
1.2955052,86.66444
1.2016474,84.46185
1.1319166,85.85557
1.1127743,85.720055
1.1301312,83.655014
1.0830497,87.236626
1.1176846,83.41606
0.936864,83.92851
0.8684434,83.21273
0.89873487,84.70841
0.920308,79.88001
0.8683286,81.80708
0.850706,82.77611
0.780339,81.00435
0.8777073,75.45323
0.8448168,77.37672
0.8764943,75.837494
0.81978184,78.71862
0.8787752,77.411606
0.7809031,73.870476
0.740212,75.29454
0.76965034,70.62801
0.74324065,77.009224
0.68672144,72.28197
0.73954535,74.34229
0.68629134,74.38922
0.62777054,77.9529
0.59769547,73.00263
0.5392876,73.04515
0.5477207,73.74711
0.45959243,76.1079
0.42227793,73.16572
0.34318495,75.00284
0.37082872,74.045654
0.44924968,73.758156
0.32904997,74.86249
0.40675572,76.34097
0.3508724,78.433846
0.3667301,78.29322
0.43353516,78.369125
0.48289683,76.64637
0.58654886,78.53912
0.5588233,76.38314
0.66449964,80.54243
0.57892114,80.57251
0.7465368,82.16144
0.7058561,84.23138
0.89588845,86.305466
0.9329667,83.12282
1.0403076,87.720604
1.1185575,86.575874
1.1525148,88.37201
1.3095617,90.54894
1.3678578,91.83242
1.3935635,93.89755
1.4279729,93.7559
1.5506374,94.783424
1.560852,97.78277
1.515696,96.975296
1.6068811,97.99636
1.6008865,101.779915
1.6969068,101.0019
1.6824595,99.191574
1.640232,104.933395
1.6637431,103.033066
1.6518968,103.53368
1.6426224,103.02593
1.7574911,104.59595
1.6164485,101.41515
1.662082,101.95937
1.673053,106.22025
1.7288553,104.12368
1.6259444,104.83605
1.5742078,105.461334
1.5930983,103.31152
1.5172973,102.55395
1.6323282,101.479195
1.4347464,103.66504
1.3534219,101.82444
1.3840406,101.5572
1.4293954,105.034775
1.4014806,102.742195
1.3693792,97.67621
1.2229136,99.26165
1.2208825,97.80154
1.2459021,97.8439
1.2375562,97.16528
1.1980312,94.909294
1.2387247,96.613785
1.1051564,97.03331
1.1674602,94.729546
1.1076845,95.80224
1.0841992,94.69848
1.1392703,94.89974
1.0934935,92.95663
1.0869367,90.821945
0.9894755,86.87677
1.0201643,92.68303
0.9501718,88.1545
0.9592174,91.56219
0.92718005,90.240685
0.9349085,87.605675
0.8963018,87.299774
0.9065736,88.18784
0.84998274,89.78272
0.71714467,85.23196
0.7823653,86.48898
0.6860559,86.859856
0.6591931,84.85455
0.6818445,82.243835
0.6452623,86.55532
0.6094386,85.22959
0.48009294,84.56359
0.56314135,78.535515
0.48322222,79.865234
0.4738099,76.63696
0.51499206,80.09687
0.42540056,77.96391
0.42217946,78.97763
0.49120513,75.90006
0.38821495,76.2966
0.40828514,75.33223
0.47040534,77.471115
0.45960656,75.00021
0.4213884,76.35494
0.31741592,74.1488
0.38248315,74.21257
0.39975432,74.626236
0.22848822,72.062164
0.21234493,73.55527
0.20139408,74.28899
0.18872002,75.24815
0.18417802,75.351
0.13732094,75.99676
0.18245712,74.65738
0.048790626,74.55652
0.09430803,70.704834
0.020744443,76.68778
-0.014529476,75.15973
0.042244088,76.26509
-0.043424167,75.35888
0.038714223,75.126
0.07166814,73.947525
0.13172545,76.60727
0.18332364,78.77045
0.21348067,79.96891
0.24903952,82.72392
0.36826083,84.8846
0.43027538,81.26495
0.4398616,87.55625
0.4672574,85.791435
0.60358053,87.41792
0.76633394,85.559074
0.84624547,91.613525
0.9502183,88.941345
1.0246536,89.295364
0.96095824,90.99876
1.0519859,94.11007
1.1148444,94.57474
1.1761236,94.337105
1.2305596,97.45954
1.2659423,94.31003
1.2492502,95.920555
1.3849998,101.11278
1.3359299,101.30118
1.4077468,97.847626
1.3811617,100.08064
1.321361,106.80128
1.3639219,103.33836
1.4025983,104.06461
1.363006,103.84809
1.3454201,103.98535
1.3317829,106.031425
1.3814067,102.79641
1.4006271,104.73
1.4051391,104.81414
1.3310523,103.668755
1.3094095,102.503525
1.2379026,101.490555
1.2149541,105.899925
1.2201601,103.95839
1.1181738,100.89687
1.112042,100.62639
1.1871114,100.985634
1.0529462,102.1464
1.0350006,101.87189
0.99986184,99.00089
0.8915997,100.6614
1.0200578,103.88379
0.9007071,98.38165
0.9544711,97.45001
0.93200386,96.35015
0.94389796,98.73919
0.9530075,93.71334
0.9137508,95.35439
0.89320046,91.15242
0.900205,94.86623
0.9021842,92.75087
0.9682794,91.21229
0.8881472,90.70052
0.81342036,89.47172
0.7914973,90.663414
0.90774643,91.47806
0.8383235,90.04068
0.75841737,90.91265
0.7011499,87.426
0.7176353,87.75371
0.6637694,85.34874
0.5709061,83.19261
0.59080553,84.150826
0.5171415,86.79591
0.54038554,84.08275
0.47110638,83.41763
0.43448833,83.22205
0.45146814,83.508575
0.3700637,81.54483
0.37075156,80.59194
0.36050743,81.675644
0.38585702,81.86938
0.45305118,77.85154
0.3119263,80.195
0.270019,78.22438
0.26341665,77.358826
0.3799428,75.249626
0.36050913,72.804115
0.44072217,77.251144
0.3675605,73.053925
0.37710172,77.57944
0.33696562,71.18587
0.2883325,74.01883
0.25733516,72.46226
0.22096246,73.833374
0.273288,75.15507
0.14227274,75.453285
0.19590066,69.97289
0.12206105,74.15764
0.054707766,75.309654
0.052004475,75.584305
0.00011814981,70.56857
-0.037703846,75.2761
0.0805051,73.40673
-0.018675052,73.54198
-0.059993125,76.04489
0.059044123,75.02387
-0.028291252,78.79625
0.016397184,75.211494
0.16432558,76.92648
0.09473188,76.58255
0.20263417,78.9452
0.32202297,80.758415
0.33354443,82.6313
0.5326736,84.15967
0.64424306,83.72133
0.6176284,83.12585
0.68610036,89.136986
0.808122,90.91397
0.86583793,90.34437
0.9025432,89.8207
0.99202275,92.13158
1.1920685,91.993546
1.162636,91.71608
1.1651005,94.4157
1.2515544,95.21729
1.310731,97.94487
1.4974571,101.354355
1.3873523,99.89133
1.4028311,100.817566
1.5196924,98.14916
1.390856,98.14396
1.4404982,102.33603
1.5633056,98.78881
1.4624013,103.04614
1.5167346,100.05908
1.5680006,102.34799
1.5009332,102.982124
1.5044379,105.23759
1.5428656,104.78945
1.4883313,101.83696
1.438415,104.37146
1.4465204,101.06223
1.3934554,104.75944
1.485454,101.981834
1.3927941,106.572685
1.3113492,101.57548
1.2866317,101.52002
1.3305784,105.08106
1.3686644,102.36829
1.2792617,103.43267
1.3316431,100.50471
1.2516004,98.11192
1.1725161,95.20307
1.1558312,99.27478
1.1438636,101.29351
1.2856547,95.95503
1.1298292,98.88872
1.1492382,97.26764
1.1428682,95.78624
1.1178368,91.456825
1.0415959,94.35188
1.0797368,96.098076
1.1019287,94.9281
1.090364,91.691444
1.1174406,89.002205
1.1505203,93.489044
1.0858829,89.2287
1.1163906,87.42107
1.039553,88.92592
1.0850456,88.85549
1.0022173,87.76171
0.9934709,89.43951
0.84903336,85.28155
0.91335464,83.45317
0.80705655,84.984634
0.7950764,84.73973
0.6709926,83.58256
0.77718884,83.44193
0.75584537,82.09
0.71816915,85.33728
0.67159086,80.0889
0.6232779,83.8106
0.5861582,79.25598
0.66905034,80.63037
0.6567568,82.45218
0.68971884,80.00917
0.7308108,78.58866
0.5733032,77.52257
0.684395,79.102005
0.7020965,74.87622
0.6623043,75.54335
0.7049128,76.75791
0.64027053,72.74815
0.61927944,74.66898
0.640621,73.89166
0.60609144,75.088875
0.5614004,73.939095
0.5525323,74.667404
0.47091588,76.18021
0.47856057,70.641205
0.421104,71.21958
0.4324169,73.42519
0.3275195,74.04814
0.41024786,74.64313
0.38641164,74.74627
0.3174749,74.98784
0.3297947,74.13799
0.3917637,77.24038
0.41373166,78.390144
0.46802813,78.12903
0.3538321,78.60025
0.53271896,78.719444
0.5630674,79.44445
0.57019925,79.53941
0.71673393,83.75107
0.73876935,82.871895
0.84244365,83.019936
0.9569347,85.38237
1.0012691,86.441185
1.1256286,85.06462
1.2337127,89.24657
1.3213596,89.08535
1.3564727,90.950676
1.3637935,92.59743
1.5240526,93.57448
1.5671388,95.455475
1.6746762,94.79343
1.6782093,97.15694
1.7098972,98.688965
1.719891,97.386795
1.834269,98.19176
1.7708371,97.98833
1.8495711,100.68634
1.9348737,101.16408
1.9668494,100.039215
1.873687,103.27886
1.7539821,102.929245
1.8062229,104.35734
1.8943762,102.788635
1.8854966,104.513794
1.8677515,105.61643
1.941868,102.30973
1.8392394,104.92831
1.8116808,101.8335
1.7923748,101.60256
1.7848936,102.68928
1.7456862,101.18778
1.6663815,101.86361
1.7480645,98.56133
1.730263,99.45909
1.7426554,102.357735
1.6422147,104.44143
1.6247132,99.442055
1.6566815,104.412865
1.6056778,99.45303
1.6162369,102.176216
1.4877734,97.944115
1.548694,97.17644
1.6094191,97.677574
1.4976681,94.141525
1.5587718,96.41908
1.5349623,95.739006
1.5367552,94.14506
1.4414526,94.400795
1.423943,96.90351
1.4969016,91.369606
1.4343258,93.53054
1.4677967,91.361084
1.484297,91.195
1.4254329,93.55532
1.345301,87.77054
1.2195665,89.33724
1.3942475,88.21266
1.251015,87.52204
1.2119864,87.86307
1.188974,86.47753
1.116548,89.25714
1.0900428,84.32801
1.2372695,84.93935
0.9927191,82.47937
1.0109065,83.43676
1.0499103,83.88708
0.9525442,79.86153
1.0079451,82.731155
0.9207724,80.263
0.9150474,81.66864
0.95804477,80.11831
0.9466346,80.78281
0.8587223,74.10111
0.9510279,76.921524
0.90634066,78.57578
1.0378472,79.361824
0.8738376,74.33969
0.92514473,72.877884
0.9119089,78.07266
0.97802275,73.20657
0.9400981,74.15215
0.83683056,73.211655
0.7806454,74.01874
0.81281024,72.71695
0.7479288,71.92876
0.7263211,72.65884
0.7297275,73.67315
0.6769946,76.62716
0.62871706,76.2246
0.58920336,69.53292
0.6214614,71.41224
0.4778877,76.536896
0.53893465,75.203606
0.5741631,75.381905
0.541157,76.672775
0.46649352,78.213135
0.5754482,79.36223
0.66582644,79.10766
0.6798049,76.492195
0.73862016,80.91745
0.8878535,80.54452
0.934969,83.59795
0.9467487,81.16552
1.0498968,84.65763
1.0200423,85.30992
1.2092544,83.90152
1.2448568,86.44229
1.3971928,87.49601
1.3368531,89.05522
1.5143505,90.37743
1.5980424,93.026184
1.6345717,95.12381
1.6857971,92.7577
1.7200677,95.929344
1.7589782,93.77562
1.8507648,97.28802
1.8221036,99.181206
1.8806973,99.20151
1.9065812,99.2466
1.9965509,99.65274
1.9640853,103.472084
1.9173692,100.87723
1.9117385,101.8979
1.8816642,102.17917
1.9273887,107.10044
1.8741952,102.33926
1.8923286,105.4956
1.9118968,105.24687
1.8673072,103.16985
1.9389093,103.189156
1.8519932,101.56226
1.8158585,101.29241
1.7744893,102.4635
1.8407562,103.05015
1.7619663,104.10716
1.7535058,98.90495
1.7417859,102.66694
1.6945555,103.124794
1.6723046,100.27774
1.6271982,100.23312
1.5417955,99.23776
1.5932002,98.7511
1.5547944,99.01416
1.437739,99.92564
1.5120592,96.63798
1.4444895,98.67307
1.5110486,96.2127
1.5125557,97.59316
1.4577607,93.92876
1.3779458,95.665436
1.5040914,92.745735
1.4069009,91.62451
1.2424158,95.34054
1.384676,89.95725
1.3181528,90.93637
1.247531,90.60057
1.352519,92.193924
1.3204011,88.8009
1.2952721,91.74103
1.2163353,89.51424
1.1536597,89.405365
1.1276933,90.423805
1.078169,88.232376
1.111513,84.62687
0.9751203,83.758965
0.95166075,85.20514
0.9436637,87.542206
0.8417517,84.03841
0.9191356,80.90823
0.7914703,82.67675
0.83827794,78.735146
0.7692229,83.11541
0.7749595,80.4168
0.78772295,81.246735
0.7464542,79.46311
0.753855,76.818924
0.7695734,77.86103
0.6847569,79.58733
0.77765626,78.156715
0.7386565,74.972725
0.7082807,75.089645
0.6851644,75.59945
0.6658682,74.39771
0.627999,76.005295
0.6732764,73.97108
0.5713055,72.78909
0.6800772,75.25548
0.5545488,73.75311
0.42272097,72.305626
0.3830571,73.60922
0.43305966,73.998276
0.38040093,74.74708
0.41856477,74.01462
0.40990955,76.19123
0.32253996,74.95305
0.30677667,74.89102
0.31123403,74.84126
0.314713,77.80871
0.34315735,76.267365
0.36242393,79.45743
0.37715304,78.97212
0.4200449,78.97927
0.54946464,79.822365
0.52506316,82.44733
0.6838071,82.641136
0.72027737,84.602196
0.86345035,86.02994
0.80641985,83.53311
0.87914336,86.58302
0.9756782,91.15502
1.0740265,89.15868
1.2085714,89.99351
1.1250311,92.79516
1.3357053,92.261505
1.3382037,92.97628
1.4588335,96.37913
1.3477938,94.979935
1.59021,95.37153
1.568813,98.75776
1.4691942,100.48721
1.615615,101.39619
1.5587023,98.74215
1.6320884,103.14405
1.5485644,101.0474
1.5267434,101.64671
1.6638865,102.29563
1.5559719,103.84642
1.5343698,103.45806
1.58467,105.588264
1.5998732,105.222015
1.5901643,102.299484
1.6286811,104.40428
1.5671096,103.181564
1.5667353,106.29111
1.537061,104.810684
1.4210712,102.846504
1.4275541,100.84355
1.4108372,103.394424
1.3538808,100.94679
1.3211854,99.689926
1.2393224,99.58917
1.2103499,100.50143
1.2874559,101.53079
1.2968878,100.69957
1.1486593,99.209015
1.1562003,96.917725
1.1697186,101.724365
1.1499383,96.16002
1.1750515,96.77047
1.0794278,95.751335
1.0658653,95.53111
0.97361934,93.88927
1.070982,97.328094
0.9839749,95.610275
1.0348643,94.55875
1.0569319,90.76694
1.0427061,91.07001
0.9206473,91.94993
0.90141207,91.04918
0.9751418,90.58007
0.9106058,87.37234
0.92797357,86.73925
0.79473364,87.07692
0.75098616,85.31084
0.76401913,85.30003
0.75628906,86.37347
0.69571006,86.09615
0.6237001,86.9506
0.7005547,83.08035
0.5878318,84.43109
0.4800997,83.007195
0.47603217,84.24037
0.5184783,82.48413
0.44685856,81.29795
0.40047786,82.01658
0.43803042,80.34668
0.3714404,77.32213
0.45958716,78.32447
0.31309572,77.70468
0.3825558,74.519325
0.4562613,76.218475
0.3839893,77.94412
0.40386516,75.386986
0.41170502,76.742226
0.37661466,73.3569
0.3853647,74.84422
0.29169422,76.0965
0.23951915,76.2412
0.26003826,73.629776
0.18435244,75.36449
0.20415641,72.76912
0.1282025,75.55864
-0.0050948644,74.40644
0.09104577,73.35161
-0.017058732,73.931625
0.076324195,72.840576
-0.024488613,73.67121
-0.007674766,76.57214
-0.017586632,78.13895
-0.076697454,74.972565
-0.06265982,78.597595
0.02961196,78.66967
0.062931634,80.98252
0.1313511,77.52715
0.15585853,80.884895
0.19149368,79.29522
0.3418537,83.73279
0.32918718,83.34852
0.4067813,82.18976
0.45239466,86.61182
0.5218341,85.98881
0.7288563,87.34361
0.79100984,89.33523
0.7858912,88.16088
0.90784216,92.14549
0.9833204,88.44448
1.0700545,90.24026
1.0205101,93.31412
1.1118108,95.42803
1.2535564,93.85346
1.3235021,96.964195
1.2747453,94.95059
1.3041849,99.40299
1.3048654,98.566025
1.3421565,99.54041
1.3449719,102.288414
1.425486,99.96133
1.3812577,102.46695
1.364733,102.90524
1.4030507,102.84927
1.3143533,104.487404
1.3857571,104.65338
1.3419571,105.67391
1.2605628,103.4117
1.3615184,103.79862
1.2519002,104.16844
1.2297516,106.18597
1.2378807,104.45527
1.2586373,101.95787
1.1410589,102.79756
1.1770331,100.1467
1.1915154,102.80923
1.1081371,100.92784
1.1721826,99.39537
1.1169357,100.87995
1.0949655,100.23846
1.0698795,99.001015
1.0552431,99.491516
1.02418,97.19874
1.0124737,97.67919
0.9578593,98.71283
0.9056559,96.366554
0.92912436,96.194084
0.93753994,95.94991
1.0036067,94.65606
0.85141766,95.661674
0.9730314,94.31639
0.9348603,92.75204
0.9207871,91.110374
0.8749251,93.21228
0.8916176,93.1931
0.7883241,90.390274
0.80221164,88.83341
0.7202164,92.45228
0.82711095,87.31143
0.75267893,87.71631
0.72973615,87.081116
0.6730589,89.112915
0.66727394,84.92048
0.62550944,85.54255
0.55613494,81.33292
0.49509332,85.60167
0.39685097,82.88408
0.46206045,83.06153
0.42298517,81.31242
0.4078309,81.565865
0.3673267,81.340225
0.3943425,83.96282
0.35013613,78.600174
0.37519065,78.85241
0.3205189,79.22062
0.40927088,79.065414
0.3975518,78.50803
0.34691793,77.1407
0.36575794,74.90348
0.36843336,77.36697
0.3466835,73.43644
0.30075306,75.57198
0.43945006,75.468575
0.282565,72.97428
0.24044928,71.93141
0.23825511,73.33263
0.21790184,74.52765
0.23705655,72.235146
0.2192984,71.116615
0.16110137,72.20584
0.14543368,75.54402
0.13488363,73.237755
-0.029420791,73.2822
0.013863755,75.22834
0.0055728257,77.15763
0.04552874,73.5546
-0.016746007,76.89261
0.03845586,75.63973
0.070578925,76.05694
0.12336041,78.78719
0.22859776,79.15525
0.18916412,85.11783
0.3135003,80.469055
0.30584446,82.114006
0.45901936,84.912796
0.5096477,85.8986
0.561588,84.1627
0.6587657,86.822296
0.7196654,86.518005
0.87849337,87.92399
0.9894309,91.06459
1.1128289,90.964485
1.0589362,91.03222
1.181222,94.57856
1.2177233,93.28829
1.335573,95.33955
1.383319,97.95999
1.4326261,94.12448
1.4719635,96.61127
1.525849,96.80415
1.5139726,99.01304
1.3963282,99.429276
1.498048,97.92981
1.6155509,102.11527
1.5503311,102.93663
1.5457813,101.55727
1.5870277,100.61804
1.5279806,104.826385
1.5761517,103.424034
1.4693961,100.916534
1.5804307,101.83325
1.527262,103.6691
1.5996348,102.079475
1.4237527,102.436874
1.4757413,102.98542
1.4616492,103.91142
1.4619262,102.673485
1.4157902,101.46873
1.480645,101.36996
1.4829756,101.65518
1.4488096,102.05929
1.3151855,102.36314
1.2497079,99.35921
1.2725106,97.817986
1.3175074,99.41029
1.2310841,98.34987
1.2224551,97.05278
1.200413,97.28704
1.2794062,96.897095
1.2130194,98.072174
1.0986834,95.6862
1.295806,93.12938
1.1494706,93.38321
1.185778,93.93666
1.2043576,90.94846
1.2237673,93.83163
1.1027799,92.18113
1.1355294,85.47251
1.1067289,90.94981
1.0629445,90.23323
1.1142156,90.45557
1.0472121,84.68419
1.004834,85.52424
1.004241,86.28634
0.98550504,83.94678
0.8341251,84.52165
0.8022222,86.63967
0.8771069,82.75556
0.8721845,84.94391
0.7653887,80.27968
0.6917493,80.53308
0.72135586,85.0383
0.68950003,82.4352
0.6286737,81.08365
0.7299749,80.764915
0.7371235,81.878746
0.7146502,79.99412
0.7280038,74.8469
0.7716848,78.86126
0.71847224,76.11062
0.73177284,75.092415
0.6841833,77.08617
0.6857945,76.91288
0.6774006,74.07294
0.67719746,75.72422
0.68005204,74.88003
0.69697326,72.41304
0.5874734,73.90654
0.6052425,73.93406
0.6156171,73.27495
0.5111243,74.51439
0.44117016,75.72777
0.51784664,71.19257
0.4088774,74.66393
0.38034806,76.18998
0.4006704,74.46194
0.41057938,75.282845
0.39874467,77.53022
0.42489344,77.924545
0.44619605,75.34379
0.39110556,79.93416
0.4123417,77.999794
0.5145577,78.62176
0.59955364,79.361145
0.55990106,80.815155
0.6058201,79.21204
0.78499323,79.3502
0.8425357,86.59061
0.9568977,82.76535
0.9872546,84.63324
1.1057801,83.17463
1.1713675,89.054436
1.1972775,86.32856
1.3300093,90.237206
1.3486696,87.6722
1.4095259,92.351166
1.5701038,96.63897
1.5519471,95.62042
1.7663342,96.07808
1.6891792,94.17151
1.7484244,101.7272
1.768992,95.777954
1.9016544,101.16999
1.8727307,99.40936
1.8065108,100.06319
1.8434141,101.36963
1.7740605,98.72394
1.9134209,102.54221
1.9308426,106.44977
1.9351683,100.40473
1.87348,102.05527
1.9282535,101.88725
1.8920021,103.81905
1.9221554,105.5302
1.8714646,103.663994
1.8219278,105.04519
1.8914248,102.324
1.8447733,102.35161
1.7886341,103.17663
1.8272911,101.51079
1.7847104,101.19939
1.7538035,102.50948
1.6348691,100.72807
1.7719986,98.15649
1.7212806,100.65791
1.715698,102.217445
1.5938861,99.68653
1.5393267,94.97412
1.5569847,94.85261
1.5636153,100.16551
1.6112064,95.37798
1.4942005,97.44247
1.5602804,94.44818
1.5093272,96.31015
1.5267205,94.99847
1.414189,91.701256
1.5206234,92.94424
1.487921,92.65698
1.4804674,91.91797
1.5782471,91.4876
1.4291458,90.34494
1.3164201,88.806076
1.4068983,88.55575
1.3693727,86.858406
1.2574382,87.27411
1.2398577,87.075356
1.2264025,84.30976
1.2071508,86.88971
1.2195371,87.68212
1.1313974,85.16144
1.0284251,83.625786
1.1358237,85.01418
1.0149045,83.44663
1.001415,81.39089
1.0021237,81.32003
0.97145236,81.21351
0.8893411,81.49199
1.0061454,77.659386
0.8806897,79.00552
0.9693433,81.0901
0.94231665,79.108
0.9237574,76.27913
0.87407225,77.17757
0.9759955,78.194176
0.8363989,76.7649
0.91762495,75.72979
0.89227265,74.66595
0.90381414,74.900795
0.8294679,72.19545
0.78203094,73.70106
0.76325303,74.55939
0.7911622,70.001045
0.6780418,73.028534
0.7368352,74.37936
0.6780764,75.05538
0.597599,74.762085
0.5480191,71.343445
0.522433,75.59726
0.4762507,73.59563
0.5687553,72.58393
0.50927734,75.30927
0.5389281,74.606155
0.5824948,74.60526
0.5706572,76.72279
0.5243485,79.66802
0.72024906,79.1956
0.7306703,78.15932
0.7641903,82.63424
0.8127965,82.82723
0.8420463,83.55452
0.9232153,85.38382
1.0337365,83.60348
1.1290854,83.440636
1.2707629,87.72036
1.3120718,88.47007
1.3527324,87.58014
1.4075292,88.57385
1.5262882,89.03643
1.5603361,90.83264
1.6324418,95.174675
1.7261496,96.24831
1.692253,97.21667
1.7468874,94.03691
1.8495855,94.321175
1.9234961,99.323616
1.7936027,99.15471
1.8533517,106.05297
1.8710957,103.105705
1.8667957,100.56606
1.9183453,102.82036
1.9707637,102.047035
1.9468886,103.352325
1.9778694,102.07432
1.9299848,102.9903
1.8716507,101.57248
1.8987646,105.116264
1.9519062,107.19528
1.8668743,104.446526
1.8047367,102.348755
1.8366556,103.42022
1.8765718,103.35092
1.7925332,103.2659
1.6942189,102.900055
1.734072,104.55504
1.6097512,101.00625
1.592159,100.817856
1.5524231,102.059044
1.5465064,103.07474
1.5590752,102.1584
1.5808383,97.471664
1.5020834,96.50038
1.5149779,96.82589
1.3793097,95.08411
1.4500545,96.27372
1.3599992,95.80198
1.3551459,93.78522
1.4027154,96.08013
1.3809016,94.47074
1.3673356,93.47033
1.3850788,92.82
1.4087147,91.91747
1.3465844,91.35811
1.3142685,89.21886
1.3092762,89.31734
1.2903825,92.04279
1.2950473,88.449684
1.2226131,89.44167
1.1518149,87.672775
1.1398516,88.62109
1.0405477,85.848564
1.0913819,85.17204
0.9899647,82.226814
0.8804822,85.22067
0.84895205,86.40145
0.80179214,83.445854
0.8178621,84.09017
0.7813764,82.846085
0.79441607,80.29828
0.7610528,81.081116
0.742781,78.636696
0.8426155,77.664536
0.78805053,81.41583
0.7407056,78.71101
0.688675,80.42127
0.6743136,77.0407
0.7041641,74.32417
0.71157783,77.35278
0.71504724,75.83413
0.72623533,76.93607
0.6853899,76.98277
0.617796,75.039856
0.59987456,73.3793
0.5315868,71.88105
0.5332212,74.01036
0.5017545,75.28567
0.48971108,76.20642
0.47502396,75.14918
0.39932394,73.30114
0.41294324,75.699455
0.34936163,73.45472
0.28575745,73.34406
0.31317312,73.88368
0.26450083,74.07326
0.28523636,76.161446
0.22446038,74.93802
0.3472472,74.39978
0.33647367,80.53973
0.28482246,80.746666
0.34183764,78.592155
0.4289331,79.98837
0.53312117,80.089035
0.554866,80.51642
0.6477566,84.244354
0.6270446,82.65888
0.81117016,82.57094
0.82994163,85.40195
0.87217295,87.63136
0.9761473,89.825
1.010253,91.49235
1.1371658,89.77247
1.2462456,94.33537
1.2540796,93.278694
1.3284099,94.863594
1.3319228,95.177284
1.3955212,94.20118
1.470432,95.46642
1.5013206,98.162476
1.4906799,98.090866
1.5235099,98.06107
1.5691227,97.3415
1.5506603,100.841965
1.5450937,101.621445
1.5745056,102.062515
1.5596174,103.58652
1.6603326,101.91043
1.4897177,105.41987
1.5522702,102.22781
1.5085179,98.88089
1.550254,102.560005
1.5484935,103.44941
1.50102,103.40563
1.4097176,103.71641
1.5365307,104.05264
1.3770866,104.441444
1.4381598,101.91059
1.4423242,102.39527
1.388765,101.53814
1.2185965,101.43252
1.2874554,98.494804
1.1801907,101.379295
1.2648902,100.792946
1.1736287,101.972176
1.1100388,100.93048
1.0723388,101.45218
1.0795916,97.36354
1.168648,94.46219
1.0483044,95.52888
1.1169554,94.11445
1.082135,92.82908
1.0438396,93.9367
1.0199409,93.46731
1.0250375,93.12063
1.0254188,93.43159
0.91917217,92.550186
1.0134306,90.90617
1.0007288,92.326744
0.88025963,91.06314
0.8188261,90.30402
0.9309749,87.80296
0.86753815,91.18013
0.7692249,89.67308
0.740638,89.460045
0.66643524,85.5221
0.59386086,86.21427
0.6546771,87.22778
0.57815474,83.326805
0.5581862,84.884155
0.5794578,82.46664
0.46318635,83.70809
0.46301237,82.98961
0.39347002,77.31473
0.42568314,82.789894
0.4993076,82.41468
0.322425,80.227646
0.37821183,81.82579
0.3500789,80.84015
0.36226523,76.522964
0.39289466,80.089554
0.43651816,76.7843
0.44293067,79.11802
0.2623842,77.63684
0.36030954,78.23652
0.28955764,73.126144
0.3119763,76.84148
0.2993526,71.77234
0.24892801,74.450356
0.31751075,76.45375
0.12885784,72.83632
0.10339216,71.34457
0.124439284,76.94083
0.12656584,74.87322
0.056969274,73.23359
0.07851472,74.449875
-0.046695065,75.42953
-0.09994463,74.500336
-0.0102304425,77.45856
-0.033758476,74.02785
-0.027962223,75.74929
-0.027695414,76.669914
0.0053136945,78.54158
0.11251428,74.83096
0.124197334,80.376076
0.15065636,77.55466
0.17523427,80.34316
0.2453725,79.93986
0.2837073,83.72199
0.43125784,83.21833
0.49393484,87.42728
0.5367928,86.56926
0.676321,88.32963
0.7103748,88.08637
0.85909706,89.04575
0.9661387,93.970604
1.038391,92.33312
0.9951885,94.58162
1.0581325,98.55785
1.1348096,93.83539
1.1694583,96.36318
1.2360816,99.1619
1.2879131,98.65315
1.2619487,100.318054
1.3103697,97.27845
1.2702533,100.9031
1.3357116,106.26121
1.3706445,100.29649
1.3832872,100.656456
1.3885262,101.10161
1.3613853,101.98381
1.343845,102.00367
1.4159429,102.48313
1.4281026,102.48531
1.4196625,103.00783
1.3235025,105.9196
1.2923741,106.71733
1.4134873,101.13603
1.301421,103.20837
1.2884644,103.46491
1.2244499,99.47163
1.141205,103.1414
1.0985203,99.29087
1.0396955,99.803055
1.0846467,100.87074
1.0985372,101.079834
0.99443793,100.75064
1.0098057,101.914856
1.0291511,97.57504
1.0377408,98.491646
0.93805397,96.59222
0.94066185,99.70308
1.0188311,91.98669
0.9686582,94.45938
0.93366456,93.36596
0.91825175,95.786095
0.9117943,91.55495
0.9379124,92.59191
0.84939605,93.647705
0.8433669,87.521904
0.79096764,93.69158
0.8557934,90.1541
0.8652966,90.68432
0.85375565,87.97486
0.80111194,88.61073
0.7857699,88.75645
0.7810799,84.79789
0.7157636,87.25904
0.6461883,88.47248
0.6937853,84.87937
0.56553435,81.640144
0.5740425,86.3772
0.5088787,85.681145
0.5728319,83.49458
0.49481863,80.95523
0.36335626,80.66114
0.388839,82.41213
0.45766395,81.2046
0.39531332,78.8699
0.39826503,77.07441
0.39418763,78.88549
0.33976784,79.719765
0.38747692,74.221596
0.33290482,75.71416
0.4824718,78.37554
0.41027367,75.52085
0.45274577,74.02996
0.4032377,75.31963
0.33932808,76.46736
0.39372665,73.01081
0.30923498,71.35268
0.33393463,73.54999
0.2583798,73.24981
0.22786903,72.16492
0.20580879,75.3948
0.23914926,73.98449
0.19714971,73.82607
0.09807914,74.462395
0.14835292,73.60992
0.1690238,72.55436
0.018564848,74.43265
-0.021358233,76.55625
0.008870998,78.40132
0.09750694,76.71183
0.14160118,78.9146
0.11204263,77.048485
0.20935664,78.49529
0.25266373,80.40917
0.29392785,81.493706
0.38676453,85.554756
0.46802533,81.62977
0.5053862,84.52824
0.56124103,84.67241
0.6148265,83.06835
0.7398423,86.42742
0.92778504,88.66655
0.92422616,88.70357
0.97052765,92.5042
1.0361587,90.29191
1.1262357,94.25812
1.1974399,90.167244
1.3074249,93.7622
1.2444113,96.25875
1.4536698,97.673256
1.4051324,99.88323
1.4697653,97.29946
1.4671772,98.92142
1.6109421,100.635254
1.5559459,99.501854
1.650385,101.689064
1.5841511,102.10812
1.6162062,106.32496
1.6251019,102.470604
1.6290982,100.82939
1.5975801,104.072815
1.565601,101.55065
1.6371807,104.057106
1.5623623,105.13543
1.6092925,101.34276
1.5774854,101.6775
1.5861752,105.70447
1.4867266,101.89634
1.4789565,101.43382
1.457959,97.607056
1.4847084,103.64511
1.4933563,100.99785
1.385678,99.490395
1.447567,100.978004
1.3976934,99.80798
1.3106115,99.46681
1.2916129,101.09374
1.3528218,98.02178
1.3030148,97.05554
1.2600608,96.45962
1.2953316,96.88567
1.2640575,99.226295
1.2829381,97.88717
1.2928572,97.047035
1.180784,95.99415
1.2064474,92.86509
1.2525084,93.72451
1.2202133,91.51374
1.2267836,90.87084
1.1343545,91.46064
1.2598522,89.524055
1.1123856,92.90193
1.1111829,90.311615
1.047973,87.42466
1.0893546,87.57441
1.1102202,86.24091
1.0578659,84.320656
1.0127532,84.86514
0.93066543,88.72768
0.91899383,87.806816
0.93850636,85.546524
0.85455,82.38256
0.8250028,85.52258
0.8325193,83.30784
0.8094667,84.71627
0.78663456,82.53004
0.7843371,81.65124
0.7472379,81.28743
0.7819291,77.82392
0.8195998,79.175674
0.7993435,78.160736
0.7721982,76.31142
0.7144497,76.21815
0.7164811,76.33514
0.7300137,78.36027
0.7849274,79.00392
0.7275438,73.65303
0.6475992,76.14137
0.6918915,74.17697
0.74372494,74.28631
0.6528278,73.337135
0.66097695,72.956635
0.6879391,75.16587
0.5365381,74.83271
0.55908394,70.60928
0.54376596,72.97577
0.46500504,69.793755
0.4468974,72.45543
0.43424436,74.50041
0.43805608,75.17013
0.5052333,73.35833
0.49744242,75.496445
0.46216604,73.670456
0.4712703,78.79136
0.43613133,79.84047
0.55665225,77.71803
0.63812757,81.32844
0.704043,81.04646
0.65939766,80.03937
0.8106788,83.131096
0.92527324,85.23879
1.0361195,83.97072
1.0003343,87.2937
1.1909084,87.203476
1.266899,84.0524
1.2987643,89.41049
1.3548992,92.680084
1.3934427,89.970406
1.4889756,91.73613
1.6308908,95.75365
1.7019513,91.16116
1.7081583,95.186005
1.746924,95.18811
1.8128707,97.98434
1.7996753,98.40882
1.8751384,99.318855
1.7659091,98.15576
1.86531,102.44699
1.9310929,98.67554
1.8881918,100.56123
1.927395,104.32627
1.863306,102.82322
1.9548932,102.784164
1.8777646,102.74479
1.9268732,102.62463
1.9037535,100.42618
1.916214,104.19762
1.8493025,102.4823
1.919126,100.148
1.8381577,101.44237
1.835968,106.18306
1.7901969,105.249176
1.81419,101.69597
1.6461389,101.48202
1.7732277,101.1681
1.8166093,103.18261
1.6509426,101.80533
1.6140308,100.859436
1.6609571,101.62914
1.6188933,101.21862
1.592878,99.15536
1.5037452,97.802666
1.5080972,96.78482
1.5509758,96.07393
1.5020355,97.43931
1.5497204,95.205635
1.5839182,95.79223
1.5650895,96.40768
1.4984789,95.852615
1.4934382,93.61096
1.4798248,93.46829
1.5250005,89.67299
1.4447843,93.59377
1.5130475,90.564445
1.3604189,89.84207
1.3758594,88.39186
1.2720706,89.681076
1.2285062,89.17604
1.2207375,84.81389
1.3245937,85.92194
1.1200573,85.17991
1.1024253,83.18353
1.1406201,86.036476
1.053087,84.12065
1.1540062,80.30244
1.0138776,84.5344
1.0541731,79.62737
1.0155075,81.02736
0.9329692,80.28315
0.99016106,78.27635
0.93376845,79.94595
0.9361891,80.843185
0.8970432,78.2098
0.9549766,78.7355
0.8855648,76.94977
0.96382457,76.47981
0.8315234,75.14881
0.91400313,79.443855
0.97774255,75.94217
0.8110853,72.32042
0.8300079,74.26402
0.7711754,76.012215
0.80577224,75.335556
0.7919035,74.64396
0.7682305,72.44603
0.7420099,72.05506
0.7724263,71.80418
0.63257575,72.45424
0.6572052,72.95305
0.5549824,73.57851
0.59015375,73.767075
0.6700055,74.09708
0.47807324,72.70644
0.44471312,75.82441
0.5287439,73.784775
0.56697756,75.452614
0.6345998,78.43633
0.5923211,80.24578
0.67478234,77.35579
0.7204258,78.35146
0.7566909,80.651146
0.8719452,82.94701
0.89794254,81.94032
1.0404211,85.73499
0.98675185,86.03482
1.1075585,84.89487
1.2059613,87.25361
1.3004032,90.06614
1.4297812,88.21289
1.4867445,92.345146
1.5242661,92.78173
1.5499921,93.78014
1.5598804,94.04045
1.6224742,94.94978
1.7122163,96.57443
1.7988954,97.97142
1.7333953,98.65716
1.7946638,99.82587
1.7274112,102.87647
1.9005399,98.23957
1.9722162,102.109856
1.7864482,103.18718
1.8749989,105.35833
1.9047539,104.04042
1.867731,99.37955
1.8523357,105.08877
1.9155425,104.119965
1.8869948,106.32247
1.8130686,101.2409
1.7755667,104.56431
1.7811573,102.86854
1.6871016,103.50288
1.7780024,103.19856
1.7883257,101.4437
1.6965895,103.835884
1.6621366,102.122505
1.6340486,102.22726
1.5823355,100.41869
1.5921687,101.58418
1.5704656,103.38952
1.5037075,100.92316
1.4717858,100.375755
1.4926085,101.78803
1.4276937,98.0169
1.4382439,98.07837
1.4377089,96.21289
1.366872,96.66926
1.3816413,94.886475
1.3268937,96.72473
1.2774144,94.558464
1.2747426,95.10588
1.356183,91.190834
1.2980571,91.16109
1.2880073,91.617256
1.2713171,91.59716
1.2229072,91.46388
1.2701609,91.55669
1.2130923,89.55689
1.1740255,90.59025
1.0824841,87.8845
1.181073,88.20154
1.0619261,85.62127
1.109651,85.93425
0.9871581,85.629295
0.98583406,89.10336
0.8941515,87.08588
0.9080445,84.86372
0.7583272,83.41838
0.8071932,83.90662
0.81472534,84.058945
0.69384956,79.44083
0.77781034,79.852585
0.65233696,82.6526
0.69135326,80.69555
0.71091086,76.902504
0.6386774,79.44322
0.6655681,77.740425
0.7457812,74.16928
0.7069786,77.80797
0.652573,79.69113
0.5936828,78.5105
0.6512726,77.39763
0.58549154,74.87859
0.60381746,78.16557
0.5190717,73.52768
0.4898575,69.72071
0.41750303,75.507195
0.5226097,75.613045
0.48892975,73.084816
0.38496247,73.20279
0.27406767,71.42702
0.326113,72.101585
0.20623817,74.76015
0.19749857,70.70813
0.22570278,76.31687
0.21256827,78.77908
0.15583341,75.02282
0.17089848,76.71005
0.23698775,75.25834
0.31729674,77.41731
0.29247794,79.47043
0.355578,78.309616
0.3203875,79.730316
0.4253287,80.769325
0.47134125,82.284935
0.5523179,81.821304
0.6162853,85.13152
0.731597,88.10581
0.81263334,88.24918
0.9121282,85.75649
0.99017745,88.44227
1.0582994,86.924225
1.0874006,92.49713
1.2330368,92.262665
1.2590109,93.3908
1.2392046,91.83639
1.3914183,98.7684
1.282022,95.91647
1.4155395,97.48117
1.49731,98.10881
1.4276755,100.01516
1.5138602,101.22364
1.5182226,100.61903
1.5295042,99.15864
1.5028731,102.2451
1.5139923,101.23847
1.5374717,105.493355
1.5285851,99.31334
1.451672,103.45668
1.4839246,101.86465
1.4595723,99.46846
1.4384488,103.408676
1.4409622,104.595665
1.492585,105.65356
1.3805327,103.31687
1.4092225,103.64518
1.3325387,102.049774
1.3870063,101.780495
1.2876357,104.816864
1.1804702,101.974045
1.3168085,102.14162
1.3260493,102.63101
1.2053572,100.90206
1.1501253,101.56986
1.1093158,101.90189
1.1574624,98.05945
1.1277592,98.36611
1.0489428,96.593704
1.0062644,95.17534
0.9973917,91.822296
0.9986762,98.48264
1.0795497,94.295105
0.98862785,93.24075
0.97723544,93.11737
0.9088105,93.608025
0.97817355,95.08487
0.9333334,93.51562
0.86418825,89.91696
0.9186203,91.21659
0.85599464,91.43734
0.86476225,88.10104
0.8010461,88.204544
0.8182381,86.71842
0.7723054,89.58305
0.7209198,84.584694
0.6616472,88.10203
0.5821677,86.085594
0.5574057,84.04441
0.55000836,85.66583
0.53192914,85.16064
0.4831355,83.35164
0.4046597,80.09797
0.5382478,81.86781
0.4043248,81.36507
0.35899764,82.68943
0.40886605,80.94742
0.33584014,85.227455
0.4197833,76.6336
0.35546288,79.66334
0.20280096,77.04626
0.36327773,76.68101
0.41186103,75.249504
0.34203005,75.9608
0.44168845,78.01803
0.31217727,73.137245
0.36674365,73.164894
0.34569705,73.6652
0.24534442,77.74383
0.26433036,77.45686
0.2522556,72.96437
0.16953938,75.0066
0.16707705,74.64972
-0.008540147,75.46785
0.010964832,73.1157
0.07781118,74.258286
-0.03626701,75.31311
-0.048394263,75.98751
-0.046807736,74.66878
-0.02058649,76.091385
-0.12684849,75.29915
-0.038359527,77.58666
-0.009418977,77.57361
-0.015116645,77.415
0.020645807,78.82731
0.11522559,78.92475
0.16509712,79.16019
0.19036856,82.50525
0.2113278,83.21156
0.35373062,84.7513
0.5097556,82.55418
0.48879007,88.3067
0.5973333,87.51143
0.724249,87.51693
0.7155803,90.766594
0.9069154,88.990425
0.8875792,91.75725
0.9515997,93.01847
1.0558887,94.856766
1.0603586,93.61218
1.1757872,95.19349
1.2035778,95.72721
1.2692958,99.73705
1.256134,98.79049
1.3271159,99.09219
1.3244432,100.812935
1.3322637,102.18461
1.3548645,103.385826
1.420688,103.16588
1.3468525,100.905464
1.4034874,101.17885
1.3074166,104.22596
1.484129,106.249054
1.3742874,101.01364
1.4072595,102.16429
1.4038892,103.51938
1.3947167,103.48932
1.3347378,103.60578
1.2052984,107.59533
1.2169129,102.66931
1.1782609,104.06122
1.2432535,104.159096
1.2347951,101.11611
1.1956576,101.99903
1.106976,103.62162
1.0931808,99.92193
1.2045261,102.31058
1.0305184,100.235855
1.0259956,100.90202
1.0463866,97.68892
1.11702,97.85032
1.0358324,98.16375
1.020268,97.60452
0.97411066,95.03127
0.99653167,95.37357
0.9316286,95.91607
1.006807,95.416756
0.93750626,92.57397
0.91568536,91.86401
0.90081674,93.26941
0.98431164,90.18433
0.8974693,89.97362
0.8572743,89.83843
0.900861,90.40882
0.92867154,87.440125
0.79330903,87.04755
0.8250769,88.27736
0.8116263,87.7751
0.7256621,87.54633
0.5906106,89.455315
0.65679854,85.513145
0.5888963,83.55805
0.56727695,83.58531
0.515657,83.949776
0.47487348,83.537735
0.4035772,82.85601
0.4842878,83.52111
0.46202213,81.60687
0.49585098,78.314026
0.46861804,79.9486
0.4467367,80.27828
0.4415582,75.90451
0.39146477,79.09269
0.41589504,75.88944
0.41399044,77.54911
0.43901005,76.733
0.41221434,74.61985
0.48572856,75.23224
0.48825735,76.01619
0.44867975,75.02524
0.44265148,76.31088
0.40670815,76.176346
0.29138193,75.31275
0.30963382,76.298004
0.40172267,74.244484
0.23934825,74.09309
0.25155097,73.708725
0.19745669,72.63851
0.18068758,75.65341
0.1267409,71.531906
0.10880914,77.76642
0.15060057,75.880035
0.04257499,74.106674
0.14630525,77.180466
0.1314498,78.911804
0.1315044,77.057526
0.15672205,80.9535
0.27941152,75.687706
0.35032833,77.560455
0.4247146,80.393265
0.3823632,80.49799
0.5307621,82.15047
0.55414945,85.25844
0.68546927,84.5356
0.8320015,87.94861
0.8398765,89.79116
0.8833479,90.937225
0.9838447,90.15578
1.0451516,94.513336
1.0751281,94.24139
1.2921156,93.87938
1.2725264,92.87773
1.4454913,98.13184
1.3487602,96.3401
1.5371958,98.237144
1.4839903,96.34991
1.5482141,98.2978
1.5510273,98.61608
1.5797585,101.501144
1.5715641,99.9513
1.617215,99.22045
1.6286056,103.380455
1.6112436,105.251396
1.6659148,102.54674
1.6407328,104.7782
1.673698,102.4463
1.6843803,103.60302
1.6106346,102.66013
1.6287937,102.66131
1.5871599,102.96415
1.6239878,105.78056
1.5774626,102.09527
1.584628,103.211334
1.5759144,101.89278
1.5034556,102.6661
1.4848866,102.14377
1.5350113,100.799866
1.477997,98.62745
1.4270545,103.21194
1.4037843,99.71638
1.3202778,102.08806
1.4230638,99.08387
1.4058704,99.46743
1.3290931,97.31172
1.3414733,98.358154
1.2500701,97.09546
1.2725517,92.59429
1.2578801,96.13893
1.325451,96.62625
1.2496345,93.26603
1.2881317,94.54622
1.2776055,94.33623
1.2905596,93.568985
1.1915983,90.35235
1.1146692,92.49978
1.2441033,91.22506
1.1988696,88.89492
1.2142452,91.15358
1.0463754,88.219376
1.1627333,89.43088
1.0706451,88.32203
1.0195558,87.51556
0.9979258,86.40174
0.995361,85.07952
0.9796571,85.2621
0.9120481,90.147865
0.92679596,84.873695
0.9502719,83.10585
0.78770417,84.05679
0.8272277,81.46548
0.83099085,81.38932
0.8004186,80.09086
0.74235034,78.958885
0.7909359,77.68213
0.79482615,77.51749
0.8233422,76.10472
0.8258377,75.94528
0.8300399,75.99606
0.7399441,79.99103
0.7983395,76.33667
0.71868265,75.211044
0.9045544,75.9207
0.8551612,76.28152
0.7711146,73.84913
0.73791826,72.348274
0.6465488,72.42366
0.6988035,73.06928
0.6069791,70.38741
0.5677142,76.71021
0.5914496,71.398
0.6114458,73.451294
0.5467917,75.05012
0.45179257,76.95684
0.43382126,72.8954
0.46819714,76.04421
0.52304184,74.68975
0.49246863,74.57656
0.50085443,75.485085
0.41247478,74.46567
0.51744884,77.88844
0.63961613,80.91435
0.6838747,79.46373
0.6834387,83.107025
0.7138837,82.18732
0.90635437,84.15301
0.9600374,85.83513
1.0278093,83.41686
1.1077707,87.70728
1.20069,87.01517
1.2455117,89.30991
1.3773766,87.96117
1.4699305,89.9309
1.5297133,90.92998
1.629999,93.78698
1.5514488,95.06913
1.6863284,95.78563
1.7642982,96.86053
1.7916952,99.734924
1.8202174,96.2959
1.7992038,97.29193
1.8752725,99.808945
1.8912579,103.812164
1.932713,102.66878
1.9061112,99.84247
1.8718778,102.21885
1.8997519,104.47544
1.9005166,104.39099
1.865323,102.634415
1.9633687,101.37999
1.9619356,104.928856
1.9906306,101.51563
1.9608878,104.178925
1.9564298,101.02314
1.9362401,103.068115
1.8666418,102.73895
1.9131917,105.52921
1.8303889,105.43785
1.8406421,104.38433
1.7699887,100.70566
1.7993611,101.2156
1.7834402,100.94442
1.701688,100.50678
1.6494526,100.28801
1.6895044,98.62397
1.5736458,99.75559
1.6119163,100.02692
1.597573,100.55131
1.5545263,100.14682
1.5748684,99.01649
1.5574979,97.374725
1.4998056,94.6938
1.6428663,93.12264
1.4763083,93.86991
1.5240763,91.588524
1.5019866,91.10011
1.3679218,92.20435
1.4746727,92.34199
1.5014892,91.30103
1.4263717,92.434135
1.3887073,88.10477
1.2948453,88.77707
1.3542124,86.53762
1.3093413,88.49355
1.2486016,84.92665
1.304025,87.685005
1.1239498,88.525276
1.1325879,85.44163
1.1418566,88.03293
1.0373966,85.18933
1.0469826,84.605225
0.99915475,82.86681
1.0552887,80.64149
0.9174254,81.08651
0.8835566,83.13132
0.9123479,76.950775
1.0345824,79.639565
0.87322396,78.61498
0.9505634,79.06188
0.86854887,74.13988
0.92889214,76.11533
0.88994527,74.78894
0.84421134,75.05133
0.88594615,77.42466
0.9505063,75.12417
0.8959048,74.05813
0.8691234,74.072334
0.8768203,75.52834
0.81088793,72.80153
0.7439848,71.52216
0.7126461,75.524635
0.6793892,71.7992
0.6927099,74.55634
0.6413505,74.40459
0.6090302,74.99602
0.5815653,76.63479
0.5260829,74.98896
0.50209945,72.17856
0.44959503,75.16018
0.4343521,74.00732
0.5308649,76.41555
0.44389543,76.23608
0.5347749,78.583145
0.61828256,78.701805
0.75252813,78.19329
0.69302267,78.90183
0.7243579,84.057625
0.7812955,83.738495
0.89798254,82.92644
0.9814897,82.18284
1.004454,84.95652
1.1032524,85.097565
1.2148087,83.337265
1.2595882,89.70268
1.3134661,88.91935
1.3633958,89.43542
1.4119647,90.3457
1.5628936,90.38511
1.6208006,96.018456
1.6236798,93.76872
1.6957488,96.37957
1.6884638,98.36717
1.7571247,98.84758
1.7497317,95.97217
1.7941777,99.436165
1.866608,99.62018
1.7846723,98.84977
1.8197062,100.60005
1.8348335,103.55302
1.8062673,103.65687
1.8834635,103.0381
1.8444363,102.71154
1.849761,106.11769
1.780191,106.379684
1.7695963,102.847855
1.7610683,104.79198
1.6981444,102.0596
1.6989868,102.97669
1.6919842,103.90073
1.6675359,104.78218
1.6925985,101.083244
1.6015532,100.45387
1.550811,104.17193
1.5262212,101.37977
1.4792503,101.57335
1.5114214,100.13648
1.5182043,100.146675
1.5231782,99.1332
1.3494403,99.42195
1.4387047,98.613205
1.4396732,95.197174
1.3019005,97.512245
1.1954616,95.92953
1.2456613,97.39985
1.3332515,93.25054
1.2311481,92.83948
1.2784259,94.36437
1.2907646,92.72667
1.2708385,92.36298
1.2729884,92.32869
1.2441635,91.30085
1.2150766,86.50417
1.2139083,86.454384
1.1194072,89.94758
1.1770927,88.31257
1.1340214,86.77973
1.0256233,87.40074
1.0391668,88.31153
0.97006965,86.157936
0.9599668,84.560265
0.83587736,86.89387
0.8654606,84.45709
0.75932884,85.7772
0.828188,84.7884
0.78388834,86.041664
0.6640143,83.30395
0.645563,83.72323
0.6235099,83.86307
0.6014473,80.02534
0.5305475,77.61918
0.6217467,78.72975
0.61506647,78.22405
0.67299557,78.43048
0.6805371,75.209366
0.6485494,78.78974
0.6451989,77.16386
0.6825659,77.099045
0.5535524,73.615685
0.59623116,74.862946
0.55370665,73.59347
0.534689,75.44874
0.4830466,73.729515
0.4713321,73.320435
0.3324802,72.61564
0.33239013,75.04609
0.29199144,74.35429
0.2070794,75.372665
0.26052827,74.41581
0.24963568,73.23006
0.26228562,73.544266
0.10032709,75.39183
0.15247455,71.00316
0.15980242,76.0031
0.22580272,74.10265
0.22484913,76.19736
0.20258226,78.415886
0.31965524,81.43813
0.3695822,81.084175
0.37601003,81.96228
0.4143278,80.41692
0.4335481,82.85028
0.4992783,82.284195
0.66846144,83.53525
0.6871374,83.169754
0.77940977,85.12498
0.91792995,89.0196
0.8830252,89.09584
0.9399308,92.54175
1.0295235,94.24852
1.1102017,91.3859
1.1980702,96.63281
1.1999034,95.114365
1.2827847,95.27525
1.2922542,96.83348
1.3836589,94.32042
1.4210341,100.12483
1.4532694,98.08443
1.4142414,99.35719
1.4765468,101.980934
1.450382,102.12036
1.538327,102.161934
1.5057228,103.48132
1.4558735,104.071175
1.485968,99.75737
1.4439571,103.820564
1.438796,102.85099
1.4804378,105.01143
1.5612957,104.591324
1.4373616,102.982666
1.4369286,103.59591
1.3459622,105.366745
1.3792553,103.085075
1.3651211,102.68868
1.311774,100.437225
1.1559477,100.714165
1.2497215,102.42325
1.2970835,101.23613
1.2581125,100.00966
1.1616191,98.894135
1.0473887,101.662346
1.1221377,98.09196
1.0551765,98.211975
1.0646021,98.73045
1.0284432,96.32932
1.0551112,94.07236
1.0173783,97.939095
0.95134467,95.16965
0.93917114,93.11179
0.99177545,95.10207
0.9190926,91.57305
0.979666,92.35498
0.8703041,87.222916
0.89781797,94.50328
1.0028957,89.6534
0.8694497,91.872955
0.9286495,92.60333
0.85459304,90.93177
0.7546749,87.32949
0.7657971,89.39747
0.7274045,86.84208
0.6755341,89.233604
0.71005136,87.59435
0.66554624,86.2492
0.4492222,84.722084
0.4402744,84.57247
0.42601892,85.29428
0.5706747,84.51392
0.3497402,83.6751
0.43636584,86.47668
0.39351964,83.1993
0.34259358,84.344505
0.2889401,77.993416
0.3430041,78.9021
0.35229215,78.53648
0.2300268,78.19149
0.33949608,77.21996
0.32669932,78.551544
0.33870298,75.506836
0.33579007,74.12456
0.2659105,73.42501
0.26796708,77.42002
0.32163054,73.06594
0.25181344,73.73265
0.16978,74.30643
0.23321272,74.97493
0.20068622,75.04382
0.22322808,72.569405
0.1066248,74.687584
0.07634229,73.26047
-0.05573555,76.14282
0.027291728,77.32449
-0.041357253,73.392456
-0.034827832,76.321945
0.0049393466,78.16451
-0.02672532,76.99534
-0.050219953,75.36525
-0.082970716,77.2618
0.019426975,77.402855
-0.050629046,77.045364
0.03979303,80.55269
0.041781284,80.68737
0.1304114,78.20926
0.29514125,78.65838
0.35741735,85.071655
0.44223672,84.34313
0.45838398,83.89325
0.5857623,87.50919
0.6524313,86.322464
0.7369008,86.42927
0.74699926,90.154854
0.9168507,90.76576
0.95428777,93.57075
1.0692015,91.570244
1.0772972,92.037285
1.0604737,93.74599
1.2468525,96.63855
1.1957563,97.9059
1.2649274,94.27062
1.3118324,98.406204
1.4071424,96.59202
1.4005629,100.91633
1.2972797,98.508224
1.2981158,99.9867
1.3907281,101.71235
1.4718633,101.34555
1.3472824,103.47784
1.3672656,101.07755
1.33449,101.97126
1.3268356,104.05112
1.3359216,104.27257
1.3384666,104.98744
1.3297298,105.6957
1.3522537,102.8076
1.2864077,101.82296
1.3188136,104.819115
1.2488307,99.873726
1.2008976,101.738716
1.2582148,102.01682
1.229963,101.69491
1.2042058,101.713356
1.1129459,102.80627
1.0977426,97.76034
1.0550454,100.668045
1.0675625,100.05916
1.0095062,102.673706
1.0448962,94.87888
0.99684995,95.706665
1.0358298,95.61859
0.99705744,94.045746
1.0085181,95.902176
0.99104196,95.787735
0.9036225,94.600266
0.9969177,93.06476
0.92618746,93.63813
0.90542936,96.66055
0.8499193,91.28623
0.9675149,92.2209
0.892607,90.13256
0.90703577,89.812126
0.8914429,90.29349
0.876035,83.772316
0.8379143,87.84891
0.68260556,83.80564
0.72472507,87.23369
0.7321213,85.20672
0.77515596,84.888565
0.67776877,85.44894
0.5908765,86.518776
0.6515736,85.178734
0.564311,81.10262
0.60114706,80.06869
0.556425,82.554344
0.54819953,78.74054
0.47404414,79.6391
0.5580067,77.741684
0.5766042,80.80835
0.50654143,79.43569
0.47450095,76.64024
0.44025528,76.59353
0.5259244,75.54834
0.48922297,76.58228
0.55891246,73.493065
0.3928098,72.805244
0.47832847,73.25663
0.50565946,71.803024
0.40012157,72.9493
0.42654374,72.748665
0.39916864,72.90881
0.44196215,74.72078
0.37578994,73.69751
0.39440778,75.11566
0.23962735,74.13751
0.23208909,76.2139
0.18252087,75.680626
0.22193368,72.08974
0.20890608,71.16964
0.14179575,71.969955
0.2171587,75.320114
0.1057912,76.071556
0.10179171,75.885254
0.22586595,77.947815
0.30686384,78.967
0.32098913,77.05783
0.3326585,80.40473
0.40322775,81.35055
0.50574285,82.22347
0.6267393,81.46829
0.6215415,86.948425
0.8155218,86.51634
0.86866385,83.51301
0.8898561,87.332855
0.9898277,88.37138
1.1722372,91.29433
1.1317991,89.53772
1.277435,91.81067
1.2962055,92.72309
1.4304867,91.78103
1.3753159,94.0508
1.4766573,95.08889
1.5005876,95.69358
1.5339328,95.28073
1.6630951,98.42967
1.6260346,99.95176
1.6959532,97.863075
1.736324,105.3511
1.731327,103.247986
1.7738816,103.6237
1.728205,104.41566
1.7937666,103.100365
1.6957002,107.7878
1.7286688,105.538864
1.7244754,102.71041
1.619027,103.934364
1.6277468,101.97501
1.6721271,104.232574
1.6767881,101.792885
1.6312375,103.403175
1.5356232,101.70447
1.6289144,99.51086
1.5931115,104.8583
1.4840138,102.40819
1.5475953,101.234955
1.502127,100.25567
1.5040123,100.213524
1.4578592,100.754684
1.4489639,98.42532
1.4079204,98.12232
1.4137031,96.85692
1.4033601,100.253586
1.3320155,99.03787
1.393813,99.58532
1.4107145,96.24616
1.3851109,94.42076
1.3291157,95.57221
1.3091387,91.03096
1.3363429,94.233315
1.3742032,92.77001
1.276092,92.20614
1.2976885,93.62987
1.2737544,93.894455
1.4066026,85.663185
1.2549056,92.03439
1.253629,91.679985
1.1327277,90.3634
1.1034664,86.37993
1.1583816,89.40822
1.1162379,88.2935
1.0124161,86.04359
0.98377436,88.13622
0.96218246,85.421104
0.9400065,84.38026
0.95933545,83.631454
0.86980665,85.32628
0.9121804,83.29416
0.8920829,81.19166
0.95597583,81.84996
0.84372836,80.13563
0.8070676,77.52705
0.81724274,77.508255
0.8467629,77.98671
0.8463253,77.07303
0.8070835,78.2341
0.87192005,74.17948
0.8830056,79.04049
0.7864811,74.30765
0.7363984,75.5374
0.7974895,78.81852
0.82114166,75.31399
0.75788224,75.844604
0.82035077,74.66008
0.64456433,73.05172
0.6609982,75.13105
0.6914085,72.47743
0.5565604,74.78853
0.6314171,70.90391
0.5819421,75.08459
0.55169326,72.970955
0.5398855,76.51209
0.44650495,75.08402
0.5061965,75.096924
0.5025748,76.08271
0.4913779,77.27599
0.47215292,75.82925
0.5491258,75.01127
0.6164921,79.13889
0.55356514,79.24886
0.6884139,83.232315
0.81601024,81.4802
0.8069436,80.40671
0.98814887,82.58404
0.9881597,82.74732
1.1312535,85.917625
1.2206906,87.43213
1.2413875,87.17531
1.2310451,92.17394
1.4157772,91.02155
1.3123841,93.21948
1.5814619,92.747444
1.6285836,91.24766
1.7518291,92.53324
1.8187749,95.36162
1.8467342,95.66485
1.796257,95.49352
1.8598258,98.68063
1.8802885,97.394356
1.8963693,99.25631
1.9053358,101.44653
1.9757816,101.800385
1.9612931,99.7515
1.9325694,102.86196
2.0193985,100.60387
1.9517908,100.32361
1.9134916,102.56631
1.9173659,103.549774
1.9674462,103.67181
1.8623182,103.68439
1.9744115,102.578964
1.9353806,104.38734
1.9433246,105.97927
1.8662573,105.27882
1.8182738,104.87605
1.7307103,103.960915
1.7306713,100.10897
1.7435825,100.32235
1.7418658,100.80624
1.6783925,101.96261
1.6149178,99.17157
1.7159534,98.36408
1.6624515,99.60086
1.5255424,97.93243
1.5632702,98.61178
1.5424572,97.22735
1.6368357,99.75534
1.5250684,96.085335
1.5337335,96.0609
1.5497893,97.910904
1.5270004,94.45064
1.5331687,93.6962
1.4560591,91.2033
1.4781004,94.374146
1.4096814,92.463844
1.5415901,94.14359
1.4053435,90.15857
1.3852948,89.26674
1.3458841,90.00916
1.3633523,87.80804
1.2535638,88.46108
1.2798967,87.77021
1.2563374,87.74927
1.2560248,84.313576
1.1023775,84.94153
1.1292367,85.58043
1.1000444,81.926926
1.061888,83.872154
0.9590044,82.349365
0.9769271,81.82385
0.99311477,81.99583
0.8931227,83.24628
0.8800587,82.207855
0.8676069,79.93188
0.8749952,81.47786
0.8826785,79.864815
0.90513086,79.56881
0.9227371,76.98683
0.870876,74.77622
0.9352462,78.06197
0.89173603,72.95572
0.8998181,75.3029
0.902542,77.0625
0.77551436,75.72742
0.82374746,71.252174
0.9205496,74.84577
0.76797307,73.47744
0.72282904,74.13664
0.6910698,72.83103
0.6391244,67.69375
0.6342372,74.04421
0.5543517,73.26743
0.51755315,74.62069
0.5630055,73.77975
0.40044886,73.11702
0.53120875,75.729095
0.4387406,74.57103
0.47526625,75.99573
0.46880484,75.4954
0.531462,77.535706
0.53866714,78.75493
0.6321333,79.06346
0.557285,80.249626
0.6203465,80.48931
0.6847155,82.01252
0.8484937,80.3157
0.8794881,81.10256
1.0031375,85.84123
1.0025177,86.290985
1.1138605,86.14606
1.1150639,87.744385
1.2188401,94.01564
1.2413228,91.86039
1.3865399,91.235176
1.4806756,90.60541
1.510152,94.27348
1.5174519,93.1108
1.5512514,96.08904
1.6491492,99.04482
1.7299577,98.56261
1.7237622,95.95493
1.7107079,96.456245
1.7991761,101.137215
1.8409115,101.286896
1.7465498,100.43453
1.8439279,97.33456
1.8248041,104.30327
1.848498,102.40441
1.7995868,101.27398
1.7232586,104.93871
1.7647339,102.08586
1.7120646,103.99662
1.7150242,101.253624
1.7494352,101.1598
1.6467488,102.80744
1.6242565,105.01581
1.6406914,104.98893
1.6852728,102.40762
1.6552933,104.03287
1.5702398,100.87955
1.507647,99.24088
1.4960846,97.3109
1.4835943,100.40887
1.4222884,96.98344
1.362896,101.1989
1.3463619,98.89886
1.2880971,98.15574
1.3073673,96.57096
1.2777131,96.34037
1.3472297,97.0029
1.2601031,94.29995
1.1925765,97.59639
1.1738287,95.86409
1.2528487,93.78416
1.2726091,97.092545
1.2104912,93.45399
1.152925,92.33283
1.1664833,90.12947
1.1582018,92.55083
1.0708978,91.57165
1.0831625,87.76886
1.1125317,89.336044
1.0989377,87.452126
1.007455,88.3689
1.0087575,86.18783
0.9994112,88.863846
0.92305714,83.06386
0.8944093,88.946266
0.781465,84.37708
0.7720674,83.76085
0.7052197,83.29115
0.70753735,87.0675
0.66282856,83.9181
0.5370828,81.05987
0.69021696,81.34344
0.5633445,77.218254
0.6055035,82.49646
0.6361445,80.037056
0.601497,75.048454
0.57886255,80.98914
0.5746519,78.73917
0.5811303,77.60473
0.534476,75.92949
0.610713,74.76096
0.5116087,75.86614
0.46010676,77.25331
0.46347854,72.128075
0.54889685,75.14522
0.35967568,71.55
0.3367744,72.57845
0.32865137,71.78218
0.32861218,71.704094
0.29726064,75.926315
0.30296153,71.841965
0.26053393,73.334045
0.19171274,73.216354
0.10192551,72.14633
0.19259246,74.93148
0.12170479,73.11393
0.07948588,74.437454
0.18977684,77.29878
0.12643674,77.746864
0.11355741,74.2441
0.10630224,78.103035
0.18497673,78.41881
0.20140721,83.00405
0.40430188,81.797905
0.36732876,79.37402
0.51628536,84.00378
0.50558704,83.851364
0.5825609,83.62578
0.72764313,85.435394
0.8373847,86.203445
0.93699807,89.829735
0.8682433,90.36867
0.9931622,91.10218
1.0029435,92.78472
1.0911776,93.88512
1.1719623,93.4758
1.1953473,92.76584
1.2613466,96.96303
1.3041384,97.78174
1.4004025,97.87871
1.432062,97.28367
1.311791,101.4764
1.4276037,101.27353
1.5334452,101.45887
1.4591929,102.70085
1.4844462,103.393166
1.3879126,99.973145
1.4435972,102.4604
1.4626175,103.40974
1.4545474,102.413925
1.3278422,102.47723
1.3637744,103.01789
1.3194386,103.68657
1.3410124,105.45732
1.2821125,105.31006
1.3133531,102.23922
1.2743765,103.19829
1.2869774,102.73235
1.2959036,102.88443
1.3484645,104.200485
1.1490492,101.94747
1.1593462,102.98222
1.147841,101.80774
1.1355193,99.91781
1.1713991,100.74555
1.076105,100.66979
1.0743288,96.4966
1.0247552,99.800964
0.8494982,98.47669
0.9536949,93.70414
0.99669874,95.57828
0.91347796,93.26221
0.92183495,97.020515
0.8707616,96.84304
0.8102465,93.70982
0.97015905,92.19872
0.91962993,89.67408
0.94267285,90.23014
0.84563905,91.68756
0.8155919,88.33288
0.7353769,91.42965
0.68833536,87.94782
0.8368459,88.52021
0.6789868,90.77733
0.6178208,84.20468
0.736428,89.48276
0.6085757,85.669334
0.49528748,84.288994
0.55435294,85.05538
0.44019094,84.61695
0.49258974,84.73023
0.47704247,83.86965
0.34936625,82.13934
0.3671612,82.710495
0.3386907,80.42149
0.35969514,83.3026
0.37040406,80.88651
0.31633222,79.78473
0.40476403,77.99358
0.27616984,81.40487
0.3367087,79.08493
0.33316907,78.38431
0.39400357,77.367966
0.28774896,76.75517
0.25740632,75.556404
0.33332458,72.643616
0.25237733,72.40574
0.21500432,73.837326
0.24808784,73.381676
0.20427853,72.19663
0.22114687,72.85761
0.1816135,70.97088
0.14107972,72.94911
0.026134953,72.46581
-0.044953153,73.96445
0.08625567,73.24887
-0.018949233,73.30049
-0.014376793,73.07804
-0.099929176,72.164955
-0.065441035,71.14116
0.0012073317,73.57749
-0.10082792,75.32397
0.020968236,75.94193
-0.0020702428,73.773384
0.13783109,78.63361
0.102548204,79.687996
0.2239186,81.867584
0.20034154,81.634796
0.38773736,80.66341
0.38935864,83.16035
0.49288198,86.20101
0.5471346,85.36838
0.76087576,88.66655
0.79080176,89.739655
0.84046894,89.05179
0.9549807,90.6904
0.9745642,89.5425
1.0621258,92.102585
1.1642411,94.06227
1.0557303,96.74834
1.1497223,96.42746
1.2019175,98.89469
1.2913615,98.62229
1.3159448,98.149925
1.3575544,98.39504
1.4093689,98.38073
1.3425516,102.11312
1.4637585,101.38499
1.3999131,101.62371
1.4766097,101.86493
1.4332643,103.74393
1.4739717,106.51721
1.3581471,106.48182
1.4153802,104.55749
1.4423957,103.75465
1.3207316,105.26085
1.3438203,106.45291
1.3677624,103.885704
1.3338612,102.22108
1.2648213,102.22997
1.2822726,103.06956
1.2081006,102.19908
1.2109292,101.50339
1.1993198,102.33614
1.1549078,102.6812
1.1585622,99.861595
1.0893948,98.632256
1.0856531,99.015465
1.1723237,98.823685
1.1162039,97.372536
1.0200548,99.9135
1.13478,95.6333
1.0580075,96.13576
0.96246487,93.6636
1.0637686,94.93356
0.96629554,94.031364
1.0037109,89.95175
0.9988248,94.8574
0.93100154,94.08747
1.0022774,91.28213
1.097379,92.054756
0.94253904,90.46973
0.9362968,91.450356
1.012367,87.806694
0.9018169,90.65742
0.92655635,93.1465
0.8837801,89.30019
0.8107098,86.25967
0.7478899,88.90494
0.78592664,84.37849
0.8500106,84.03355
0.6928916,84.2622
0.72839713,85.49434
0.62492996,84.76336
0.626895,79.7826
0.6560203,81.41671
0.6427729,79.41903
0.5468137,80.18271
0.5020953,78.87213
0.49677396,81.67455
0.59669363,78.97752
0.58505213,78.22556
0.5956784,76.15066
0.48022062,77.67856
0.50662655,72.76366
0.4467362,76.46835
0.60109407,75.54551
0.57281524,74.00058
0.4077382,75.48034
0.4965781,75.338
0.4476695,74.112564
0.44323635,78.31828
0.42342153,76.519684
0.42687404,75.27271
0.35152158,73.01236
0.29175887,73.18383
0.29495677,73.20599
0.25534353,73.53754
0.28141755,75.90074
0.17792189,77.031006
0.18465158,75.153625
0.26756233,75.79287
0.2611137,73.8592
0.27013564,76.7182
0.32496774,77.727104
0.24776241,77.56663
0.39204946,79.86782
0.3880451,76.282555
0.4294107,81.37937
0.6275545,80.17159
0.5574901,81.125824
0.66267073,84.59514
0.70553213,88.18372
0.86236256,84.73457
0.9664567,87.33928
1.0549148,90.71146
1.0160803,89.271545
1.1012634,89.03466
1.2800018,89.94057
1.3361617,92.77242
1.3949054,93.72642
1.4732416,95.60932
1.4915938,94.43413
1.5564166,95.2138
1.6606474,98.486176
1.5602803,98.72265
1.5728279,99.66199
1.6434094,96.791046
1.7674503,99.1434
1.7054628,101.44814
1.7220567,102.091446
1.8099383,100.965
1.7390826,102.08566
1.699328,102.14732
1.7482104,105.43372
1.8191887,103.7864
1.7290616,99.73233
1.7047844,103.31564
1.7446562,103.032814
1.7450948,103.27121
1.7246668,102.80142
1.692073,103.44266
1.6663145,100.2804
1.6779041,102.10701
1.6830592,102.774254
1.6608074,103.07973
1.5850583,97.71851
1.5724636,102.02324
1.5359044,100.689026
1.5846806,99.61285
1.4859793,98.459915
1.4525265,97.73202
1.4734294,97.56923
1.4667451,98.66914
1.3458796,99.80741
1.3956277,94.782684
1.3887769,97.19994
1.389102,92.220795
1.3731662,92.89759
1.3989041,93.55344
1.3514286,96.63244
1.2463105,93.631996
1.3257526,91.569595
1.3292581,89.10104
1.3755776,88.911316
1.2556077,89.17386
1.284273,88.07128
1.2692988,89.01469
1.2448494,88.86468
1.2142093,88.55932
1.1736808,87.21091
1.1464738,88.34686
1.006991,85.91599
1.0607646,81.6924
1.0395101,83.63299
1.0111645,85.65802
0.93359256,81.37999
0.8986491,83.64295
0.9117414,81.166214
0.91124874,80.282036
0.94746214,79.87075
0.91442484,79.11137
0.88187027,78.35383
0.907875,79.611534
0.90452814,78.453384
0.8282774,76.383415
0.8572821,76.96686
0.94272536,75.92801
0.87770706,77.462204
0.90660703,75.49086
0.905043,74.111046
0.8507747,74.79153
0.8437715,74.99259
0.8452052,76.10691
0.8892106,75.17989
0.77268416,76.62367
0.7274136,72.16254
0.62879735,72.25171
0.7453261,73.1734
0.6889719,75.48329
0.616477,76.27474
0.63792205,75.03375
0.5878508,74.52129
0.5602136,71.27255
0.4964226,78.16098
0.45358285,74.111275
0.57764333,76.56098
0.6047738,77.85002
0.6103174,80.34448
0.6804626,79.385826
0.73952454,79.80159
0.77487963,81.14733
0.83045214,80.1953
0.8981638,82.87928
0.9600525,86.62437
1.0598731,82.527565
1.1157979,84.6037
1.1229993,88.02406
1.2819921,87.40549
1.3904837,90.24596
1.3959494,89.22195
1.5715309,90.59092
1.6268227,95.115906
1.6417964,97.505135
1.788248,96.21012
1.780228,97.33563
1.8010273,98.331825
1.7583766,97.87703
1.9092058,99.31763
1.8880848,102.339386
1.8608084,101.95139
1.9612476,102.904434
1.832898,100.95178
1.958214,105.22593
1.9804703,97.23618
1.965523,104.09176
2.0081253,101.45587
1.9695458,104.859566
1.9589746,106.03131
1.9322953,102.180504
1.9688191,101.33948
1.9193527,103.70709
1.8846766,105.223564
1.8673187,105.77087
1.900551,101.8958
1.8284931,105.83616
1.8122426,102.40552
1.6492538,102.7705
1.712222,100.95284
1.6937867,100.07039
1.702258,103.201866
1.6509638,100.84806
1.5919688,97.6506
1.6103468,99.07651
1.6007392,100.23634
1.5477793,98.026596
1.5512278,97.36265
1.4978577,95.56823
1.5142137,92.6768
1.4682152,95.08821
1.4672824,95.33704
1.4530843,93.59781
1.3867046,93.401344
1.4211773,94.2987
1.5116563,92.780045
1.5833386,92.46495
1.4354767,90.35664
1.4305044,91.96992
1.4196172,87.54702
1.4234524,91.02874
1.2303861,86.267746
1.2298591,87.553825
1.2217052,86.746315
1.2378532,87.218895
1.1082218,87.16721
1.0619828,84.73935
1.0215979,85.61082
1.0124294,86.64047
1.0766743,84.876595
0.9659988,80.25996
0.9445247,82.53813
0.9627059,80.967415
0.9968842,81.05307
0.90483236,82.10552
0.9142586,81.126625
0.8022736,79.66755
0.9236294,81.756935
0.82685935,74.73052
0.7774925,76.15332
0.89557165,75.34489
0.8971586,77.38882
0.83727354,72.50799
0.81723297,77.27511
0.8692245,74.42757
0.77542925,74.92639
0.7902629,74.83761
0.75995624,76.79674
0.78970844,72.083565
0.6924507,74.127335
0.65704834,72.365456
0.67797357,73.819115
0.51568943,72.72174
0.49828973,76.4799
0.5078812,76.70385
0.45456615,74.3796
0.4901827,73.400826
0.47379717,77.52031
0.3687045,74.473755
0.39610857,77.38914
0.44843507,77.192215
0.45040137,75.43381
0.49417418,81.906624
0.49044248,79.86247
0.5716329,80.78107
0.6477672,82.23332
0.7438544,79.05352
0.80717117,83.8596
0.8444294,84.174706
0.9503473,83.28083
0.9302851,85.688995
1.0539907,88.30588
1.1495554,89.71812
1.2320511,88.162125
1.1804637,93.962875
1.3913494,90.16405
1.4227844,96.396385
1.5193633,94.39284
1.557532,94.75771
1.632259,92.17311
1.6264278,95.71939
1.6639142,99.290665
1.6939126,99.28495
1.7313889,103.30613
1.7589512,98.73254
1.7975277,103.588646
1.7458212,102.35977
1.796398,102.631546
1.7291517,104.92545
1.6829373,101.558586
1.7799958,105.1745
1.7148777,103.6239
1.7796946,106.58661
1.6276197,101.10133
1.7203434,102.53579
1.6958997,106.28932
1.6886529,107.12304
1.6581553,102.451866
1.6353333,102.64795
1.533838,100.56822
1.4998925,102.17877
1.4668936,102.208145
1.4584743,103.03776
1.5198244,103.08892
1.4569291,101.457146
1.3595037,101.03821
1.2913283,98.44847
1.2578622,96.30044
1.3409381,101.20202
1.290946,97.42565
1.1656009,93.48951
1.2064874,96.737755
1.2028412,93.074844
1.1815345,97.49179
1.1856408,95.19494
1.1480992,94.47124
1.2026174,93.480606
1.1684777,94.95104
1.1947827,89.24188
1.2156937,90.26842
1.0899022,94.01698
1.0341171,90.37085
1.0147249,88.96007
0.9495435,88.37751
0.9795246,91.89111
0.9782058,84.49856
0.9080418,85.37871
0.935007,86.0889
0.8722818,84.88058
0.7463238,84.16882
0.77465653,86.38822
0.7247802,85.751015
0.69294494,84.85871
0.6609138,80.7876
0.54042685,81.08268
0.5429139,81.732475
0.53074175,78.85691
0.58346444,83.94164
0.54477966,81.605736
0.4770924,78.617355
0.57141674,81.840485
0.46703398,78.12358
0.53826815,80.2828
0.5166601,78.1749
0.48683694,77.07709
0.48850092,76.199394
0.48525026,71.86231
0.40125528,75.914894
0.33617467,74.723335
0.39473775,75.30326
0.42926663,77.47891
0.33189446,72.19535
0.26214078,71.97664
0.20962267,71.75804
0.2149265,73.999535
0.27834848,72.47826
0.1625181,75.11141
0.072535634,73.8141
0.12765405,73.2655
0.078388855,75.77398
-0.004756678,76.95715
0.13640992,76.87912
0.122886084,75.777374
0.049426924,76.80159
0.16177712,75.34146
0.10252311,79.29705
0.21696317,74.827614
0.24916993,81.47996
0.24612336,82.915375
0.29006594,81.842995
0.3859284,82.83528
0.5271997,82.41399
0.60219604,81.95294
0.6180391,87.718056
0.7251792,87.21425
0.81175256,87.34601
0.91009444,92.07503
0.9982635,91.537895
1.090719,92.613594
1.1164287,92.9005
1.1559224,94.16807
1.161014,96.786575
1.2200718,96.47913
1.2813144,97.80107
1.2731602,98.32829
1.3836373,99.1385
1.4281164,99.57061
1.4145185,99.76834
1.4251126,98.32399
1.3775157,102.777504
1.3516729,104.97394
1.3940988,103.82374
1.444573,103.61255
1.4553516,102.32586
1.310019,104.7887
1.3737116,106.83277
1.3923695,106.11505
1.3307567,102.2158
1.3023059,103.097145
1.357268,104.57892
1.2982961,105.841995
1.3258793,102.98255
1.3180445,101.32987
1.1733046,103.25038
1.2026595,103.26538
1.1932026,104.36668
1.1028391,100.554146
1.1445302,98.27207
1.1149424,98.313255
1.0106047,98.580505
1.049688,98.03156
0.9208643,97.19568
0.9725885,96.15831
0.9810645,95.73756
0.9400646,97.04959
0.9800425,100.357346
0.9650515,95.12719
0.96700674,92.5587
0.9752441,91.74516
0.8565704,93.10095
0.8529289,90.753876
0.88101953,93.78429
0.82967746,96.33917
0.97535205,89.85833
0.80358565,89.82607
0.839522,89.90712
0.8090091,87.32956
0.594199,91.41938
0.6594469,85.27247
0.7469575,86.96884
0.58840746,88.643974
0.56627655,84.62742
0.5410472,85.39261
0.5358433,84.45329
0.5530998,86.16281
0.46525893,83.141556
0.4052328,82.34072
0.3404281,82.50815
0.3691187,81.523895
0.37884498,77.97284
0.34118742,80.96327
0.37749234,77.44189
0.37548655,78.64784
0.27339575,75.28268
0.3483114,79.18967
0.33972907,76.52904
0.41384736,77.59513
0.34809583,74.63935
0.25092542,76.07744
0.34597722,78.15272
0.33347628,73.93962
0.19865668,74.72424
0.23813802,75.99662
0.19186907,72.477486
0.16544488,72.1738
0.12803431,72.952484
0.24524456,72.8139
0.18056585,76.12197
0.10344611,74.82867
0.059858926,71.92242
0.017750926,74.60024
-0.06105787,73.36732
-0.03917154,72.23549
0.059103936,76.24244
-0.03231955,71.9689
-0.038595337,79.172966
0.040199656,76.2255
0.023151109,78.78961
0.089541234,74.40334
0.09634378,80.37293
0.1852225,77.311806
0.24925974,79.86275
0.223407,84.92518
0.34853813,81.57741
0.4841337,84.74402
0.53585494,86.99958
0.6025635,87.593346
0.7923126,86.830376
0.87443066,91.355316
0.90022886,88.80272
0.9372215,89.74374
0.9861584,95.46991
1.0964973,93.653824
1.1837358,94.34068
1.2909948,94.7365
1.285033,97.59068
1.3302379,98.794754
1.3335121,96.12869
1.3574558,99.23783
1.3428528,100.84485
1.46466,101.883
1.3400356,101.51452
1.4542947,103.97574
1.4495558,103.2221
1.4351815,103.08177
1.4222382,100.34754
1.4988021,102.72677
1.391595,103.074165
1.4799483,103.75458
1.4701535,100.10555
1.3656002,106.274445
1.3679152,103.23252
1.3853527,101.44304
1.440932,103.09444
1.2843211,103.96218
1.3992298,103.42507
1.3121842,103.04291
1.2281505,103.27907
1.2574288,103.45196
1.1815833,102.442955
1.2351813,99.97072
1.1830949,98.94589
1.1045278,95.83462
1.1084155,95.33541
1.1120535,97.36594
1.1021777,95.96595
1.1335478,94.926125
1.1652673,95.00435
1.1124417,96.77083
1.0778252,93.333664
1.1100353,93.854515
1.0814022,93.72527
1.0509905,94.86402
0.9907068,92.67262
1.0295408,90.98487
1.0881864,91.386986
1.1375571,92.84784
1.0653882,90.50563
0.93599284,88.78976
1.0014414,91.05379
0.976142,87.47338
0.8897463,88.84874
0.7934446,86.441956
0.75476617,87.66035
0.7893952,85.36397
0.7588053,88.86572
0.7141798,82.31382
0.65969086,84.28399
0.7384717,84.68695
0.68711984,79.94073
0.6414394,81.198326
0.5672055,83.019516
0.5291879,78.49393
0.5666836,82.69954
0.62538093,78.19586
0.5661773,77.212845
0.5038211,76.62989
0.4724804,79.053406
0.6122248,77.186455
0.59547323,74.266014
0.6474138,75.37926
0.69883955,73.50911
0.545951,73.81573
0.59249693,75.96219
0.54074323,74.86423
0.5863143,75.57052
0.4823407,75.28242
0.5006989,70.0263
0.48670647,69.43981
0.4450802,72.94957
0.35319158,74.19961
0.30825835,69.07836
0.29101366,73.36367
0.27089682,74.05614
0.24745281,75.017815
0.29256952,73.03019
0.26547477,76.38166
0.25116694,75.49453
0.30266258,78.210434
0.33528584,76.74087
0.39073795,78.8297
0.38138926,74.90349
0.48481366,79.778046
0.51166546,81.9029
0.5960655,79.658165
0.570682,82.95852
0.7778,85.26544
0.71162456,83.73167
0.9880635,83.172066
1.019064,87.76617
1.0454061,85.791
1.1023805,90.14913
1.2621174,89.345894
1.2858874,92.80724
1.4540687,92.684265
1.395451,96.032524
1.4780314,93.91989
1.5933224,96.321625
1.5967962,97.561874
1.6524063,99.59943
1.5936581,100.15065
1.6735104,97.495735
1.764837,101.90738
1.736892,100.068146
1.8542851,99.59215
1.7911066,102.933136
1.739114,102.91483
1.8038487,101.49785
1.7731202,103.50017
1.8284851,105.30164
1.8668365,103.902466
1.8923753,107.0955
1.7823192,102.548996
1.8120031,104.110916
1.7768949,105.970184
1.6472627,105.27944
1.6935314,106.57303
1.6686175,101.60231
1.6992134,98.8528
1.6724904,102.05722
1.5404136,100.73625
1.5930525,101.343376
1.5453609,101.77194
1.5460604,97.21363
1.4968169,102.03493
1.5215144,99.43656
1.4927522,98.114044
1.430681,99.776985
1.4691952,99.4983
1.4111502,97.24977
1.4185898,94.93177
1.4140098,94.93456
1.4382045,95.404106
1.455783,94.663284
1.4727072,92.13036
1.3823564,95.36081
1.3545274,93.36271
1.4001443,90.529434
1.3882474,88.70212
1.3597336,91.6819
1.3411794,90.1257
1.2772541,86.30489
1.3229564,85.6679
1.2288234,89.50662
1.3168683,88.054504
1.1782365,87.68516
1.2325847,86.17165
1.0961413,85.40764
1.0809523,85.14349
1.0094564,83.97724
1.0032988,84.22775
1.0148317,81.98185
0.9494913,82.83038
0.96953285,82.12238
0.98097575,83.22978
0.90115327,82.678116
0.928321,77.18276
0.93615764,78.96912
0.925459,79.451355
0.94049114,76.968666
0.90306944,75.06102
0.9137446,74.300575
0.85642225,75.75142
0.8939596,72.64983
0.83424026,73.46821
0.7881175,74.27508
0.83626616,75.65636
0.8643016,74.23762
0.71631503,74.03091
0.87734795,74.594795
0.7707533,68.95913
0.6671377,73.44267
0.6638124,71.409966
0.6395076,71.56949
0.65131694,75.32952
0.5412347,71.061134
0.50414634,74.31594
0.59028965,76.93409
0.56297606,75.99778
0.48362243,76.32649
0.583396,74.69714
0.5420729,76.66936
0.58136624,74.425095
0.6121314,76.93689
0.6690726,78.25013
0.64187163,77.87094
0.81802833,78.99546
0.824041,84.38559
0.9301508,85.064255
0.92895544,85.03504
1.0639629,86.662476
1.2371408,86.461655
1.1963081,87.11291
1.415471,89.204346
1.4221283,88.65203
1.4997566,90.4979
1.6152449,90.28613
1.6204627,92.48198
1.6826165,92.06672
1.7098906,93.27197
1.8299383,94.55836
1.7846597,97.9241
1.8365638,100.9448
1.838478,97.90682
1.979465,97.96564
1.972352,101.2465
1.9935242,101.06347
1.907007,99.1918
1.9674699,102.86444
1.9632611,100.80096
1.9645591,101.60228
1.9415767,101.87144
1.9474753,101.44923
2.0037346,104.746605
1.9594716,102.859375
1.8647712,105.201065
1.9138597,101.6318
1.8436812,99.117355
1.8116239,103.48939
1.8488629,102.91079
1.8171829,102.577576
1.7327219,104.06473
1.8349272,100.51367
1.73972,102.66547
1.7073444,99.88009
1.6570822,100.228905
1.6689065,100.56216
1.5690655,100.10753
1.6050727,101.30079
1.5855047,101.592
1.4813548,95.58512
1.5657456,94.478905
1.5314906,95.86881
1.5640785,95.890274
1.3931527,96.81238
1.4023068,95.25011
1.4024229,95.21774
1.438048,93.03131
1.5353854,91.73809
1.4046768,91.17903
1.4330691,89.5448
1.3310946,93.181526
1.3633516,90.72225
1.3753319,91.14096
1.3703133,88.8413
1.2555724,89.34436
1.3793368,85.6414
1.1947317,83.92075
1.1323812,85.9658
1.1663185,88.96548
1.128606,81.97602
0.9826827,84.76651
1.0366197,83.54705
0.9521936,86.53441
0.9032432,82.23989
0.8850936,81.44001
0.9711563,81.94063
0.90704125,78.967415
0.80734324,77.824455
0.88932335,78.34254
0.8340831,81.93734
0.8095961,81.46486
0.8748103,79.08968
0.7766634,76.21069
0.80422837,73.30597
0.8388012,75.346504
0.82147264,73.66112
0.7615772,75.09011
0.86748856,75.02399
0.7305406,70.97905
0.6845888,71.406784
0.7054478,75.40351
0.6442744,73.74232
0.6152209,74.961174
0.5439058,73.249855
0.56257814,73.66227
0.5311313,72.80008
0.47174993,71.03069
0.39152262,74.63426
0.44451442,72.58464
0.35107967,76.35468
0.38251522,74.91103
0.41343343,75.43087
0.40030348,77.21235
0.35218725,73.89413
0.45307568,75.26503
0.46571043,74.918724
0.56677675,77.79279
0.5360872,81.56604
0.56627864,79.62731
0.67288357,82.07429
0.751414,80.88173
0.88409775,85.08683
0.97019124,87.19816
1.0704294,86.07417
1.1472481,86.02542
1.1403662,87.61143
1.1518875,87.95297
1.3268635,87.020996
1.3633076,92.617165
1.4462594,90.63832
1.389299,92.941345
1.4868189,95.38623
1.5961506,95.37008
1.6039126,96.95673
1.6614232,98.54206
1.6068534,99.26387
1.6746397,101.181725
1.6865073,100.994125
1.6238269,102.510155
1.6563517,102.09542
1.7419488,100.961395
1.7222527,103.646835
1.7219137,102.77375
1.7148681,102.43094
1.686618,101.898415
1.6827238,103.52494
1.6489868,103.25834
1.6012,104.31392
1.5757911,100.94382
1.576929,103.67094
1.6000261,100.93221
1.5711297,100.84686
1.4467331,100.40373
1.4825158,100.087585
1.3868039,104.52598
1.4309739,101.831276
1.3613633,101.03037
1.3014807,100.90676
1.2261395,103.365265
1.2865963,101.98358
1.3093244,94.732445
1.24496,99.33049
1.2383868,97.58837
1.2584034,96.176674
1.1643138,97.36463
1.1721917,92.45322
1.213019,95.2187
1.1812266,94.22889
1.0464166,92.95571
1.1241539,91.375656
1.1001134,91.24477
1.0164982,91.44127
1.1245862,91.08527
1.0291072,90.482544
0.9974739,90.56684
1.0144207,89.34167
0.91040987,90.51699
0.9669926,86.97835
0.8583532,89.87983
0.86822563,85.37815
0.7916946,86.288765
0.77169657,88.933304
0.71250755,86.51678
0.72956544,83.88407
0.6513099,82.90189
0.561174,84.411606
0.5286091,82.8328
0.6200666,78.84842
0.5507825,82.14112
0.5227533,78.02653
0.5111755,78.15383
0.45918682,75.402565
0.4971127,76.740585
0.5336741,77.284424
0.4190794,78.21753
0.4663584,81.03861
0.3533896,79.09559
0.5304864,75.45464
0.4234785,76.374916
0.45203108,75.036316
0.44713187,71.72316
0.39839435,74.594696
0.4187045,72.41487
0.30079946,72.09455
0.36699444,73.476036
0.21177883,72.22515
0.2092945,75.47604
0.23113668,72.18393
0.20218225,72.9204
0.18682039,75.18605
0.12024481,75.03422
0.04332073,72.45016
-0.024962403,73.18978
-0.061638433,72.28385
0.00060631137,75.7023
0.04317915,77.41778
0.07680142,78.75418
0.19074094,78.6408
0.13821448,79.03404
0.23409174,78.59172
0.15349112,79.16967
0.23295231,82.910675
0.40768817,81.648705
0.39540845,80.93372
0.39514217,86.40023
0.53816545,85.4922
0.67895454,83.95788
0.7602641,89.784744
0.67175305,89.63702
0.9033178,89.75809
0.9931461,91.56969
1.0689144,91.705444
1.0805044,94.68985
1.1405206,95.55222
1.1343106,95.88895
1.2315389,97.99784
1.2986953,95.74606
1.290007,99.23193
1.4348054,101.99885
1.4572709,99.754814
1.3275216,102.12758
1.4021324,99.22404
1.3561629,103.110916
1.3941867,101.43499
1.4192734,102.56676
1.3495268,99.78879
1.3792994,104.212524
1.4116021,105.1889
1.3482411,102.820076
1.3526107,101.61222
1.3349046,100.73802
1.3001914,104.14518
1.3163558,105.51084
1.3197407,101.09593
1.1986775,105.28286
1.1762755,103.8279
1.2373842,102.81398
1.211243,99.578835
1.1835884,102.082275
1.0751959,99.50483
1.1225615,100.57279
1.0412802,103.237236
0.97936887,99.47691
1.0139488,97.60064
0.97251993,98.287796
0.93680316,97.78556
0.9398256,97.04086
0.9381063,96.63105
0.93941045,93.50108
0.9576402,95.906906
0.89275163,93.63467
0.8976398,91.82478
0.85749066,95.436386
0.8696697,91.87674
0.9277714,90.39513
0.8592443,87.74199
0.78698003,92.134026
0.79686916,90.29157
0.8209584,86.485535
0.79884386,87.00533
0.6301148,87.15298
0.68556684,87.95371
0.68832,84.85808
0.5893222,86.07851
0.54566264,85.4708
0.54315007,85.534935
0.5166625,83.28048
0.4873968,81.79692
0.4546141,82.542145
0.45345414,84.675514
0.42526102,82.04858
0.3697036,81.87872
0.43057474,78.56283
0.31953913,82.55801
0.28834608,76.49516
0.40061134,78.1407
0.32983622,77.36532
0.35191262,80.47676
0.36424175,77.79481
0.2848434,76.218346
0.28432631,77.0206
0.31454128,76.96956
0.2654122,74.25726
0.3105421,74.75564
0.20882986,73.1844
0.26290646,74.03718
0.23209977,73.8131
0.2357006,71.94187
0.18273115,74.43126
0.034883548,73.740845
0.0637383,73.66793
0.05566506,74.79748
0.080525324,73.19544
-0.059397906,75.27839
0.05170093,73.43432
0.037861332,73.47634
-0.05508318,74.683975
-0.008217514,76.332115
0.027188893,75.918
0.036352027,76.58556
0.063400395,80.22685
0.033466175,76.87641
0.19619666,81.27906
0.15251514,79.696106
0.2575819,83.66046
0.41111097,81.97233
0.44467646,83.04688
0.52128434,86.097916
0.5785536,87.057175
0.7262042,84.33618
0.7443058,89.33616
0.8722634,86.47493
0.891525,91.564865
1.1131635,94.71359
1.0769062,88.80041
1.1515689,94.6821
1.1604625,94.40284
1.1618363,94.23404
1.3219587,98.14803
1.256169,96.217125
1.3598977,99.490005
1.3300546,95.123924
1.4749769,96.27886
1.4737523,100.99744
1.4978664,100.61109
1.5249771,104.14232
1.4676538,101.673035
1.4855654,104.487206
1.5158224,100.78462
1.4485973,104.580414
1.4500057,104.1834
1.5066521,102.84877
1.5050874,103.72031
1.5038699,104.82367
1.4463706,102.97336
1.3855189,101.584946
1.3586026,102.78309
1.4128786,101.597565
1.3186412,105.04516
1.3260504,100.055504
1.2703966,100.919205
1.2825043,100.34655
1.20508,105.04002
1.1616118,101.74556
1.198567,98.57321
1.0964382,102.4899
1.1461905,97.61914
1.1071095,98.38784
1.1589121,98.13334
1.1206009,97.06752
1.107516,97.20432
1.1686702,93.62714
1.1129225,95.789986
1.1426349,98.3597
1.0800284,93.523994
1.1395475,93.514046
1.1674392,92.05516
1.0558404,90.822754
1.1542602,92.4212
1.0970782,87.930855
1.0372715,89.90634
1.0675325,86.47545
1.0572201,91.920654
0.90827525,86.790474
0.8881761,88.03831
0.848588,84.39446
0.8939625,84.97776
0.80956334,86.095894
0.79020673,85.70876
0.7061454,85.49666
0.74115807,82.195724
0.6101398,83.87564
0.62136996,82.11474
0.6327894,78.619225
0.60059273,78.63418
0.6360497,80.20198
0.57948637,81.38046
0.5673576,81.51967
0.71269387,77.92068
0.54614836,78.683945
0.620544,77.89494
0.6578084,76.832886
0.63864785,74.31468
0.585568,73.97555
0.5664796,78.51022
0.57437354,74.96534
0.58677936,74.75247
0.6620148,74.39569
0.58268535,71.04931
0.5499072,71.76825
0.5709127,74.131294
0.42885137,74.12254
0.48822638,71.88516
0.48060858,73.439575
0.4760408,72.56832
0.328057,74.191185
0.46039185,71.95339
0.3693194,73.91381
0.35570353,75.16391
0.3465599,73.578926
0.39795664,74.04408
0.29634407,74.79277
0.37085038,80.12335
0.32835707,77.96238
0.49555707,78.61481
0.42727992,80.21184
0.5344274,81.676605
0.5781097,80.82358
0.75386834,81.42301
0.8959594,83.864525
0.918706,87.180214
0.97511375,86.11283
1.0567633,86.06501
1.253557,87.35748
1.2142048,90.18039
1.2696433,90.59091
1.3934667,91.205055
1.490028,92.43649
1.5506623,95.04319
1.5522177,95.630005
1.6256441,95.88227
1.6326708,96.07066
1.6596676,96.81243
1.7200879,101.69866
1.677901,98.34405
1.7881292,100.63738
1.7691274,100.637596
1.8274171,100.46559
1.8474871,102.93252
1.8537177,101.86588
1.8131453,100.91521
1.8289146,105.55567
1.8197443,103.433075
1.8935682,103.51133
1.8473723,104.32248
1.786371,106.15719
1.7898779,103.48516
1.8603835,98.59186
1.7421842,99.7854
1.8153205,104.4814
1.73673,102.95014
1.778721,101.312164
1.6279646,98.852776
1.5720867,100.93405
1.5769895,100.76537
1.5975868,100.33293
1.5853738,101.396255
1.5509151,98.06012
1.5695392,97.906166
1.5539232,96.63296
1.4279418,97.13101
1.4993765,96.72897
1.4991276,97.552635
1.4541297,93.533936
1.5232728,98.56665
1.4835404,98.40804
1.3932034,93.687294
1.3919957,92.02582
1.5113258,93.6345
1.4047664,94.50045
1.3970157,91.471794
1.3262671,91.90243
1.2685742,92.053696
1.359008,86.59871
1.3685389,89.27913
1.2762179,88.829994
1.3431783,88.08577
1.2025797,87.81946
1.2301083,87.37694
1.185819,88.67628
1.1342497,85.644264
1.0796316,85.31216
0.9967384,81.97311
0.9425712,82.00696
0.98101604,81.89802
0.9862766,80.46918
0.986628,81.37974
1.0167441,81.65876
0.9046717,79.54853
0.8910449,79.78558
0.9045666,79.19831
0.9833305,80.03087
0.9570684,78.55688
0.94351643,74.02775
0.91496164,74.25206
0.9413791,77.72061
0.85683954,79.93846
0.9090294,78.99203
0.94895995,75.26438
0.8431175,73.78845
0.87440217,77.467606
0.92672503,71.610886
0.7951877,73.10107
0.72822434,71.57993
0.7705985,71.120995
0.7123755,75.019165
0.6547885,73.945946
0.60662186,72.94988
0.54505867,77.154144
0.58322585,72.36871
0.57491946,75.30404
0.6254863,77.45147
0.50087833,78.55064
0.50756675,76.24196
0.5852157,76.70823
0.5560464,77.887436
0.5589872,77.95136
0.6175856,79.16204
0.66055757,80.19011
0.65298265,79.27356
0.77034914,82.39838
0.9007618,82.32949
1.1090789,84.14609
1.1248332,85.875946
1.1331846,84.65424
1.2863805,88.07063
1.3836141,88.989624
1.5219811,86.24049
1.409586,91.763596
1.6253976,91.06501
1.6135755,92.00098
1.6673485,93.67543
1.817147,93.1222
1.8672587,98.46277
1.7723402,99.95463
1.8174007,99.915146
1.8513777,99.39767
1.838546,103.06832
1.9430966,103.42249
1.9619633,102.06571
1.914287,100.84598
1.9581612,102.62514
2.034524,106.36343
1.9550008,105.6829
1.9692692,102.04106
1.9010079,99.71177
1.9571775,103.31088
1.9082395,104.70659
1.8178015,103.263596
1.9054338,104.66493
1.8234088,102.40876
1.8406696,100.94856
1.8606491,103.675995
1.7974371,104.03277
1.7781113,100.942055
1.7267494,102.58438
1.7274758,102.99579
1.7001661,101.98217
1.6756862,99.8198
1.5469395,100.796974
1.4786675,98.93823
1.521787,98.433716
1.5199662,98.37203
1.4332279,95.37576
1.4675725,97.370125
1.4918941,96.835175
1.4382616,95.128456
1.3993526,95.84459
1.518324,94.136246
1.4558678,93.24417
1.3799452,93.753395
1.410574,92.14848
1.4098788,95.22923
1.3965074,90.574875
1.3357091,91.48205
1.3162307,91.89466
1.2882606,88.0758
1.2471832,89.34936
1.2848889,86.24983
1.2727331,89.76879
1.2219408,89.00961
1.1207206,88.4692
1.0443705,85.25642
1.051916,83.946556
0.94016874,86.02661
1.0117053,81.99265
0.8872215,81.439285
0.937102,83.28515
0.7969783,81.5134
0.9535741,81.16241
0.8102559,78.890434
0.7539145,80.61411
0.8944834,79.85277
0.85051984,79.12942
0.7959117,79.271324
0.82631916,75.97522
0.76131153,79.22824
0.74803334,80.495155
0.7237139,75.05736
0.749682,78.45834
0.6778806,73.02412
0.7661041,73.51145
0.693595,73.18693
0.6820732,73.27316
0.7018495,73.81391
0.65144914,74.406296
0.5574249,73.84108
0.62344897,74.687065
0.57492983,72.32136
0.40009356,75.30308
0.39390624,74.15249
0.37252343,74.95826
0.41606408,74.276054
0.32941625,74.97655
0.38848102,77.20778
0.34012568,77.02786
0.30903488,73.08394
0.38312435,77.08083
0.34935468,79.17621
0.40192205,77.36567
0.51945853,82.70321
0.5449649,81.85906
0.57848674,82.66908
0.5924386,84.25711
0.68540174,82.11081
0.76053363,83.473656
0.86483735,85.045685
0.99160016,88.39601
1.0043304,87.67499
1.1612673,87.11925
1.1620559,90.27621
1.380109,91.97183
1.2759222,91.70588
1.386188,89.788895
1.4650005,98.55924
1.4871843,96.86409
1.5939729,96.56211
1.5215579,98.37708
1.5521122,100.17374
1.529819,99.077995
1.6232619,100.31551
1.6705319,99.95912
1.6230832,100.80964
1.648281,102.13647
1.533846,103.11199
1.7356405,104.85855
1.6506839,106.79231
1.6261685,105.79844
1.6541244,107.22587
1.6677138,102.80605
1.5257678,106.09728
1.617747,104.77403
1.6164093,104.656265
1.4837129,106.49971
1.4483368,102.04224
1.5121938,101.73707
1.429534,99.29008
1.493247,100.9296
1.3126233,101.54407
1.4403516,100.282616
1.2911129,101.65486
1.3374594,100.66588
1.2188824,100.285645
1.3036673,99.69134
1.1801865,101.01655
1.1859852,98.53575
1.1598777,99.054184
1.0427092,98.09235
1.0492055,99.34568
1.0421988,92.43241
1.0183519,96.79459
1.0202644,95.284546
1.111212,93.82424
1.1572762,93.86414
1.0591924,92.70863
1.072834,93.54422
1.0306393,92.86516
0.95109373,89.434326
1.0425748,91.27878
0.9208122,88.88167
0.9035858,87.60455
0.92920995,88.44054
0.826946,87.82212
0.8062649,86.55338
0.8162289,84.06379
0.74489,84.703674
0.62511396,83.02818
0.5706738,82.8356
0.6380388,82.765205
0.45420033,82.759026
0.4566344,82.64886
0.53268987,83.030106
0.50593245,78.8644
0.44586492,84.80112
0.4043592,81.13335
0.40854967,78.22022
0.45335782,81.09971
0.41924572,76.671234
0.38343412,77.97602
0.39118716,75.69198
0.41665807,75.50591
0.36275432,80.24991
0.38389915,74.044716
0.36004856,74.658356
0.36889857,75.303246
0.3390088,76.30298
0.31032825,75.17491
0.3059799,75.50852
0.25339517,74.92488
0.26244697,72.97701
0.2102585,73.624344
0.15335034,71.30117
0.03998336,76.07503
0.06265409,75.69825
-0.028802343,72.50848
-0.03025767,73.34691
-0.022187756,71.637436
-0.007192596,74.91023
0.007634374,72.51472
-0.03709769,78.824974
-0.03554853,79.67686
0.11029202,79.913536
0.119929515,76.62365
0.12328443,81.45148
0.17540017,82.484344
0.17566496,78.18268
0.23654245,82.07869
0.4478514,83.349655
0.48035747,83.13023
0.5194884,84.84476
0.64094865,86.18247
0.7087735,88.390884
0.86793685,92.320854
0.8984306,87.98639
1.0158206,90.30158
1.0553112,96.65909
1.1138034,94.19687
1.1756729,93.4131
1.1245941,95.816956
1.3083377,95.81711
1.3319823,96.20063
1.3432665,97.30546
1.2378286,99.550995
1.3346198,100.09545
1.3472627,101.284996
1.3223095,100.041084
1.4822805,102.191154
1.3665285,100.44431
1.4022775,99.12811
1.3616431,101.68589
1.293711,100.9129
1.3823149,103.94731
1.380369,104.85241
1.3027793,103.75851
1.2732952,102.82241
1.3012962,107.77947
1.239947,102.90206
1.3308675,106.428734
1.2358717,102.003746
1.2169254,102.25164
1.2412463,103.117836
1.1233515,104.5134
1.0949785,100.14231
1.2008146,102.60501
1.0409194,99.381096
0.98541695,98.04256
0.9680323,95.8823
0.97155213,100.628876
0.9347641,97.58288
0.9601312,96.77772
0.9642163,95.47632
0.97020304,94.78084
0.8893693,95.35435
0.9739084,95.597084
0.92131025,96.84502
0.8824858,94.016174
0.89103174,93.056854
0.84692603,91.86364
0.8734125,91.08369
0.76569784,90.112656
0.8578682,90.26947
0.6747588,89.355095
0.69400656,95.00139
0.7911047,87.89217
0.7392644,88.00462
0.6183195,87.2915
0.6994944,88.57099
0.6664443,84.893005
0.578335,83.59029
0.55525804,84.95046
0.45772496,84.43754
0.48478752,83.44508
0.41424796,83.19616
0.43794358,84.82518
0.37235242,81.01631
0.37088698,79.09522
0.39795965,80.86478
0.37420937,79.00513
0.3256922,76.891815
0.3692985,75.4498
0.47380638,75.852936
0.37186676,75.71927
0.36092523,78.975784
0.3098975,77.75598
0.35992065,73.837166
0.29872224,73.558975
0.44898877,75.46412
0.38519195,76.855896
0.30883065,77.5366
0.307979,74.71549
0.2579474,73.8424
0.23253843,72.483025
0.14414753,73.92257
0.10802659,70.07158
0.12048377,73.27101
0.03794462,72.66221
0.096749395,73.00852
0.0145922,73.31109
-0.117854215,76.75417
0.024567246,74.17806
0.05836625,75.587944
-0.023459047,75.36274
0.110558,75.96033
0.07651646,78.35104
0.08377417,76.42942
0.18498677,76.42012
0.18963172,77.52872
0.20783713,82.46014
0.33420816,84.05262
0.47555488,83.71154
0.46658057,83.5015
0.5525755,84.14288
0.6318857,86.76481
0.7968516,87.06492
0.9077699,87.01518
0.91037816,88.61165
0.937889,91.664734
1.0605485,91.708176
1.194521,91.55853
1.1930352,94.27867
1.2956685,97.547104
1.2934799,94.47971
1.3783046,99.714165
1.3807741,96.250336
1.3738155,99.72586
1.4661621,102.42592
1.4399157,98.95291
1.521233,99.71359
1.4941463,102.88997
1.5006962,100.29925
1.6120691,103.13052
1.5461949,102.935455
1.5190732,105.77566
1.483032,105.731964
1.4659606,103.3913
1.5287266,104.76197
1.4536576,102.20243
1.5148784,103.62169
1.42295,102.108444
1.4723063,102.87932
1.4321262,104.04208
1.4619153,100.09478
1.4215181,103.5975
1.348307,102.023834
1.3237681,98.08276
1.4188378,99.52939
1.3819399,100.26741
1.2859817,101.044716
1.1843549,99.429184
1.188748,100.25692
1.2581061,98.47184
1.1835831,97.89598
1.1629727,95.3578
1.1458062,97.45393
1.1036186,98.0553
1.1474925,95.48581
1.1198175,94.20473
1.1132238,93.93546
1.1908091,94.69447
1.1529619,91.97249
1.1107888,92.20967
1.226932,88.93622
1.0643425,92.64833
1.0111492,93.52005
1.1595219,86.012856
1.0884885,87.67054
1.1024349,90.00416
0.9326168,88.97573
0.9958504,86.10043
0.94323766,86.980644
0.88861686,86.74267
0.8596135,86.84496
0.8383305,81.59306
0.7447743,82.076164
0.89132607,83.97104
0.73905987,83.800545
0.8299985,84.887085
0.6905822,83.12509
0.74033976,79.93031
0.6806747,80.78083
0.61981,80.2918
0.6354561,77.9455
0.7305555,75.77726
0.67767996,79.355286
0.7141852,75.35453
0.66460496,76.23566
0.6615372,75.72694
0.6282816,76.6186
0.66261125,75.23161
0.6193353,78.19419
0.70852137,73.31635
0.6239426,71.17182
0.6096754,73.80807
0.6829198,73.20537
0.5958603,72.20198
0.58902794,70.63305
0.4032061,72.91862
0.43735027,74.20133
0.42394292,71.67923
0.46397853,74.38219
0.42613524,75.93933
0.29252166,72.7896
0.39062026,75.788284
0.42124107,75.02946
0.30182093,74.83299
0.38540906,76.72549
0.336382,74.309204
0.4877297,78.72139
0.60481507,80.34639
0.4912605,78.429695
0.6095022,83.57497
0.66977215,84.009125
0.8024277,84.79211
0.91544205,85.82788
1.0084116,85.67089
1.0324469,87.41437
1.1748816,86.75131
1.2239456,87.95399
1.3179145,91.75277
1.3707156,90.341934
1.4180162,94.88542
1.491641,91.46366
1.5866389,91.67708
1.649561,96.5234
1.7386991,100.22443
1.7247266,98.96304
1.8037906,97.15079
1.8298079,100.63771
1.8575631,100.58266
1.8693861,99.12101
1.8761021,100.5502
1.8419783,102.045494
1.8340144,102.29266
1.8785819,102.096115
1.8821533,102.75964
1.8612493,105.35461
1.8443297,103.07571
1.9662663,103.062225
1.8183599,101.62278
1.8873757,102.73764
1.8464637,104.32963
1.7555163,102.16578
1.7848643,102.73695
1.7235346,103.23325
1.7087337,103.681946
1.6905851,103.579285
1.7072334,103.81772
1.711513,104.127014
1.6103673,103.16061
1.7167166,100.5813
1.5832545,97.38522
1.5403099,100.4742
1.5763237,96.98394
1.4955443,98.81928
1.4487356,99.39409
1.4626552,94.574036
1.5299817,97.20562
1.4506239,97.55938
1.5717834,94.83178
1.4637489,93.38295
1.461699,94.00665
1.516481,93.19993
1.5252228,94.71859
1.4449944,89.94622
1.3750685,89.88149
1.4459126,90.588
1.4025114,89.58117
1.3729721,88.19426
1.3103576,89.932106
1.3430848,88.37339
1.2962136,86.92682
1.1843604,87.20233
1.1661202,84.829834
1.1773189,88.05476
1.1122746,86.638275
1.043036,84.858475
1.1001259,81.943405
0.9674605,85.25397
1.0266048,81.36028
0.93344486,84.03218
0.86886644,80.58364
0.89965016,79.299576
1.0148314,78.75755
0.90923035,81.09545
0.9038238,82.179565
0.90010816,77.26214
0.973246,78.28658
0.91279006,76.37811
0.8967011,73.54434
0.8510704,75.40897
0.9456151,77.69501
0.8966471,78.58838
0.8643313,73.645676
0.9116794,72.65278
0.8922156,76.26671
0.8513584,77.00639
0.7929087,75.256165
0.8451728,76.04381
0.58816737,73.51505
0.70993686,71.634315
0.5933845,72.97262
0.5988377,74.147285
0.6000679,72.22696
0.5669938,73.83096
0.62446517,73.72218
0.44295752,73.21317
0.59741503,73.86794
0.61168504,75.12134
0.61498183,75.25945
0.5575528,80.64244
0.66586345,79.25838
0.79599917,81.86381
0.6961564,80.55896
0.795039,80.041405
0.87297904,78.274574
0.9814598,85.5543
1.0372869,85.782684
1.0887383,84.57044
1.0974103,86.7714
1.2867439,87.79784
1.3437784,88.96345
1.4694558,87.30292
1.5388402,91.33202
1.505384,91.90367
1.6275325,91.12197
1.62741,95.41725
1.691603,92.086685
1.6926789,96.1019
1.8175135,98.36637
1.8173566,97.82694
1.8018358,100.804474
1.9369429,100.20726
1.9023136,101.35915
1.9647561,102.032196
1.9559397,101.11645
1.8392538,104.78454
1.8341893,104.93465
1.9879196,103.13888
1.9428495,102.48955
1.9041364,105.05101
1.8746073,105.41197
1.8717335,103.44265
1.8541472,103.860596
1.8506603,103.51974
1.8786802,103.01878
1.7915791,106.52019
1.7711598,102.12995
1.6751398,102.34813
1.6628538,102.0757
1.6475372,102.210884
1.6587895,100.24333
1.6333075,98.74941
1.5953095,98.49778
1.6147907,105.45195
1.4772923,98.93913
1.5083637,99.90692
1.4544101,96.695206
1.4910313,97.30294
1.4445032,98.12102
1.4405138,97.64959
1.3920251,95.6286
1.4819349,94.77537
1.3849154,94.709045
1.4067154,94.26901
1.3378054,90.77262
1.2832749,91.43325
1.3741366,91.76781
1.3598632,91.785774
1.3026788,91.7331
1.2953562,88.27834
1.1906651,87.89829
1.2674801,89.61445
1.2702445,87.451965
1.10785,88.821556
1.1166335,87.13764
1.066008,85.10948
1.0352266,87.18964
0.9930492,89.68973
0.9378131,85.13365
0.9497883,83.1932
0.8786255,84.45995
0.84946823,85.19832
0.7930949,80.185104
0.8445428,82.27863
0.7319591,83.8574
0.7628204,81.82421
0.7749571,75.51168
0.89453495,80.057106
0.7618925,77.085396
0.78118247,74.8832
0.66510487,75.19389
0.8303287,74.953186
0.66287583,76.4595
0.6908528,73.435135
0.5411994,76.39459
0.6711019,73.08441
0.6494547,75.517265
0.6725546,75.531906
0.60725826,75.895065
0.62156457,73.88925
0.6332408,71.66899
0.46705088,71.55661
0.42772382,73.3917
0.3677948,72.362724
0.46229607,71.09065
0.36799246,72.56607
0.30113462,75.22735
0.2921487,78.24228
0.23473145,74.49845
0.25974655,76.754974
0.26782405,77.402916
0.31660786,76.50953
0.4030859,80.12651
0.40128052,81.22396
0.46890524,76.50158
0.46467,84.332405
0.52710134,84.51698
0.6067292,78.32146
0.672645,83.76888
0.8076253,84.80709
0.8849514,86.76934
0.91169065,89.589325
0.94431263,91.05324
1.0996037,88.73685
1.1648158,90.69409
1.27593,90.4359
1.2732564,90.24798
1.3286103,92.07166
1.377839,97.34875
1.435457,91.13456
1.494689,95.560135
1.5650136,97.94536
1.4706964,99.423325
1.571256,98.41642
1.5275414,99.52216
1.560148,99.604195
1.6307226,101.96619
1.6119953,101.16971
1.5361587,101.94073
1.6198859,99.663994
1.6098132,103.78382
1.6799878,100.20805
1.6240169,104.82488
1.5779508,102.48414
1.5794729,104.60585
1.4365342,106.70889
1.5508385,105.240234
1.4731168,105.042015
1.4255346,101.29732
1.4440328,102.290085
1.288057,101.94912
1.3530965,105.16084
1.2662742,102.46722
1.2257042,100.31729
1.277028,102.49395
1.1986727,100.43199
1.2394059,100.935005
1.2043191,98.06265
1.1461009,97.52707
1.1165357,98.56767
1.1821378,96.30988
1.1007279,96.02391
1.1058066,94.92961
1.02167,91.69628
1.018687,94.03492
1.0160267,93.45433
0.9003148,95.148445
1.0617918,93.88017
0.9353664,94.11579
0.9105703,93.987076
0.91144794,91.537125
0.90053,89.04273
0.8920335,93.38173
0.7926436,86.88501
0.92564595,88.22902
0.94337624,83.82116
0.7674738,89.315796
0.70215064,81.28198
0.7450641,88.884315
0.699708,85.86844
0.7062212,82.61675
0.6385268,83.53745
0.6174377,85.34866
0.45960763,85.62929
0.44607556,81.264084
0.42110726,81.4874
0.45850405,81.888565
0.35725522,79.092606
0.4566782,80.09817
0.47913098,76.77804
0.35541725,79.573364
0.37804767,77.586586
0.38288906,74.99822
0.4319893,76.31235
0.44049373,77.791664
0.3139793,74.94954
0.27820703,76.500374
0.28151974,73.94494
0.30336797,72.15227
0.38686937,72.95543
0.25793338,72.241844
0.32041052,74.376816
0.2326994,75.142334
0.22274652,73.61661
0.18891585,73.339676
0.07431281,73.78746
0.10706832,74.05606
0.04796322,75.52216
-0.07654707,75.69079
-0.01648422,72.37223
-0.06257718,75.00748
-0.06633338,75.29888
-0.0077204704,75.63606
-0.004146433,76.158005
0.0004923137,76.89325
0.09119151,77.36113
0.14918369,80.22911
0.22204044,78.88919
0.20621262,79.828186
0.26629138,83.60997
0.34428057,85.01692
0.45899397,83.67995
0.51350343,83.29437
0.7078675,86.43282
0.612659,84.94752
0.73990166,89.22328
0.86887205,87.04792
0.91129154,91.704254
0.96416503,90.2898
0.98067707,90.39523
1.1038784,92.57841
1.1708709,93.58257
1.1674676,96.395805
1.1524159,98.50302
1.2492217,96.346016
1.3339539,97.79988
1.248596,96.84655
1.3087392,103.95076
1.2780464,98.32632
1.3434882,101.03015
1.3533987,102.537834
1.4018748,103.26891
1.3889314,102.22267
1.2602053,105.546776
1.3559446,103.405014
1.336439,101.90442
1.3191682,102.79315
1.319849,104.26682
1.3250707,103.9426
1.2930081,102.21956
1.3252314,105.25663
1.2741036,104.70672
1.1969374,104.2545
1.164278,103.85366
1.2758185,104.177895
1.1973941,103.54302
1.0275692,99.948906
1.1486956,98.30272
1.0812198,101.91795
1.0979223,100.23437
1.060736,100.85997
0.93665886,98.738945
1.0029744,99.5957
0.94737595,96.398964
0.9268679,97.55361
0.93965,94.531685
0.8851996,91.87686
0.9927845,90.88443
0.83371764,92.33014
0.83416337,94.0491
0.8330652,92.52392
0.85566074,92.1451
0.833265,93.18525
0.8703296,90.17075
0.81632185,89.678696
0.81854224,89.68377
0.8623337,92.632904
0.78276616,87.325806
0.7098908,85.511
0.7385846,86.41085
0.71310085,85.336044
0.57306844,87.71855
0.5316103,87.88804
0.5641278,82.14328
0.5493281,82.86475
0.49078143,84.80658
0.46842614,82.65649
0.46524146,82.38997
0.44950035,82.39278
0.49655992,81.31436
0.4779733,81.81274
0.4483405,78.08889
0.32751447,80.25944
0.40418473,75.9714
0.4231094,81.28757
0.38100046,77.79026
0.4079976,74.546196
0.39026123,75.81386
0.4320652,76.912575
0.33365348,77.681725
0.4605633,74.731064
0.37785465,73.87527
0.35232943,73.41952
0.24681407,74.81468
0.22780013,72.224884
0.21507834,74.63616
0.25686315,76.411575
0.22125019,78.15897
0.07338466,75.86579
0.1664071,74.577194
0.1974719,75.381744
0.13251989,75.186
0.07444476,71.438995
0.07113112,76.07706
0.08241067,74.77753
0.059728168,75.16236
0.042512204,76.37717
0.09188872,76.869705
0.07879011,76.830605
0.25435686,78.44658
0.2876736,79.307335
0.42703208,81.891556
0.4318906,80.365616
0.41245142,84.07741
0.57588303,84.977455
0.6293014,88.365944
0.6582355,86.910645
0.86228174,87.19885
0.92979467,94.22637
1.0275185,88.08668
1.1138523,90.06901
1.1475301,91.5668
1.282456,91.986084
1.2456907,92.095436
1.3292755,98.38289
1.3650879,99.31351
1.3717953,93.92431
1.3987632,98.77381
1.4824988,99.453094
1.4239837,100.978195
1.538913,101.85251
1.4630725,102.34124
1.5367721,101.8829
1.6274151,103.30808
1.5499524,100.93493
1.5895779,105.849686
1.6116409,101.73816
1.6040065,103.61026
1.564939,105.32599
1.5705506,104.500496
1.4971571,104.09175
1.5447416,101.82263
1.5102512,104.08088
1.4823338,102.7664
1.4995813,101.915215
1.4832208,106.15472
1.4613672,103.58081
1.3428142,105.889626
1.3766268,106.26195
1.320629,101.16177
1.3227688,102.43355
1.3158743,99.66778
1.303404,100.297424
1.233325,98.2802
1.2878926,95.86524
1.1214156,96.60246
1.2072163,98.647644
1.1983728,99.07998
1.3005437,96.485954
1.2888798,98.06908
1.1923048,94.20522
1.1781862,94.291695
1.2028618,94.2983
1.0827557,94.25829
1.1306411,92.51866
1.124327,92.49535
1.1334382,90.23293
1.0988474,88.399864
1.1860454,91.44335
1.107032,89.783226
1.1036887,88.03643
1.0083767,86.308655
0.9934082,87.46194
0.8982035,86.65514
0.85530883,89.92976
0.8427586,84.21626
0.84824556,83.75909
0.79847974,82.99255
0.84840643,82.3859
0.8304839,79.80716
0.7814473,82.67663
0.81294805,80.14781
0.7248627,79.88088
0.64801306,77.3019
0.7492955,77.73592
0.6816308,78.04991
0.6126159,78.76847
0.7183158,77.761475
0.6760741,79.04584
0.7025708,78.97643
0.72433275,78.44696
0.7572004,73.81285
0.7397027,76.359406
0.7075655,74.64145
0.6415224,75.89679
0.6324129,75.110794
0.7154201,73.988365
0.6388136,74.6295
0.6975346,72.90817
0.5149997,72.8995
0.49874923,72.129684
0.55559266,73.41325
0.49702942,74.676834
0.43385428,72.0441
0.48186025,74.46258
0.34811932,75.65549
0.44370732,72.9848
0.468757,75.49199
0.37831005,76.40448
0.4995211,77.57862
0.52200526,76.22801
0.4799086,77.68374
0.595804,78.963715
0.67912227,78.9616
0.70541286,83.96988
0.77796715,84.08798
0.8475273,83.05129
0.96228415,88.39843
1.0206368,84.31782
1.1635758,86.06226
1.078415,89.832756
1.2270621,89.256065
1.2750669,90.56583
1.4719275,91.4217
1.471192,94.78283
1.5574914,92.723915
1.5553045,94.13473
1.6821601,96.31643
1.7217097,97.01756
1.8016241,99.51872
1.7851175,100.93604
1.90776,99.84666
1.9081721,99.02815
1.893578,99.872635
1.9122978,101.287315
1.9120015,103.686295
1.9550941,102.65138
1.8530823,103.349205
1.9158081,105.298454
1.9230704,104.36166
1.9134475,104.876434
1.9946178,104.05247
1.9579206,102.73673
1.915051,104.84442
1.8018423,102.9327
1.8732506,102.55845
1.8016244,104.21744
1.794522,103.62109
1.7943088,106.43598
1.7269887,106.05049
1.672716,100.18237
1.7156969,104.46696
1.6924363,100.51425
1.6586999,102.610245
1.5796309,102.66294
1.5383161,101.33122
1.533918,98.216255
1.4769251,97.55004
1.5669693,96.85294
1.5516499,97.1857
1.4730858,96.64197
1.567756,93.104515
1.4748414,93.14552
1.5013819,95.77714
1.5338554,92.66015
1.4657521,87.98485
1.4771615,90.195915
1.4015749,90.002
1.454593,94.595184
1.4388443,90.83961
1.4167999,90.06626
1.3427837,89.100296
1.2389451,87.64807
1.3286855,90.828865
1.368851,85.855934
1.3084506,86.3424
1.3218415,87.66079
1.1447653,87.38158
1.1164412,86.97618
1.1734071,87.13392
1.0760021,84.43402
1.048955,82.35988
