ppg,abp
1.0829034,86.70934
1.1180856,86.75862
1.1886065,91.21105
1.2466352,89.15836
1.2932338,89.14067
1.2952987,91.91395
1.4053552,92.281425
1.4556495,92.94694
1.5200033,94.32314
1.5298864,94.72717
1.5062928,97.471436
1.5823197,98.874435
1.61542,92.80397
1.7485809,94.58543
1.6452783,98.11303
1.723386,97.120705
1.7092681,98.31075
1.672165,97.79131
1.6852666,99.79085
1.8077613,101.10986
1.7625657,98.53996
1.7480466,98.88525
1.7800648,101.10106
1.7411176,97.73289
1.7463164,103.829254
1.6415396,102.815865
1.6954181,101.39508
1.7357558,101.245964
1.7105951,99.19717
1.6681298,99.89446
1.7201061,101.54338
1.6783348,101.72254
1.6066461,100.957954
1.6026473,96.60219
1.5888164,103.083244
1.5988681,98.72876
1.5524832,96.75711
1.5588812,100.19975
1.5589416,103.163376
1.5229392,97.528564
1.5012965,93.390976
1.4508816,98.599174
1.4235897,91.034134
1.4459238,98.715195
1.4812508,96.81638
1.3798648,94.65325
1.4297439,94.90887
1.3917571,93.92289
1.4259326,93.161545
1.4477296,90.69379
1.4055346,93.71614
1.4464782,93.31135
1.4448196,88.85546
1.4965041,89.920235
1.4217219,92.35808
1.3393073,87.53175
1.4002913,93.96643
1.3054137,89.45558
1.2751515,88.20652
1.3115848,88.54287
1.3367066,86.9988
1.2789836,86.359184
1.2879725,88.4827
1.2557786,83.51453
1.1992074,83.31683
1.2018212,85.49774
1.1645708,82.39391
1.140613,82.56957
1.1111972,83.41137
1.1371636,85.77386
0.98259944,81.051544
1.0961764,82.94007
1.0104158,83.43466
1.0061587,81.10573
1.0773354,76.757614
0.9501424,79.98387
0.9794357,78.47853
0.892775,76.40166
0.90578896,80.11889
0.91683954,76.407265
0.9338107,79.676056
0.9073147,76.69154
0.8203525,71.28042
0.9203223,75.0576
0.8962618,71.97926
0.88628227,75.21193
0.88600236,73.260765
0.90718514,72.983444
0.8469327,75.475136
0.91122216,77.76368
0.84488195,74.19805
0.86449087,72.05421
0.87193614,70.968605
0.87624156,71.06374
0.8018135,68.45817
0.72157043,70.704544
0.76767606,70.23894
0.6865235,70.74877
0.6926289,70.40527
0.74712616,70.87323
0.5915759,70.40987
0.595969,68.17407
0.66389304,71.635345
0.53935075,72.99566
0.65007114,69.21227
0.5070632,74.60852
0.4929028,71.83434
0.510142,75.527176
0.6305483,75.10708
0.5439014,75.537384
0.5563586,73.45049
0.5671901,76.51456
0.62676,75.143196
0.6432892,80.6639
0.6280134,76.93856
0.7242971,76.37281
0.77033764,78.831696
0.83119214,76.690384
0.83980775,75.5783
0.92655087,78.891525
0.97741973,81.76405
1.033087,79.77239
1.2198358,87.11113
1.2176315,84.51844
1.210803,83.12159
1.288582,86.70483
1.4109135,82.03959
1.4725018,86.27144
1.5001036,90.256874
1.5344943,88.52593
1.6435511,87.43549
1.6899099,92.69467
1.7563887,93.231514
1.7995684,95.16333
1.8607323,95.78121
1.8432081,97.77543
1.8065552,98.101204
1.8850453,92.77495
1.9224217,96.90214
1.9304827,95.740616
1.8764836,98.61585
1.9420879,99.37217
1.9045372,99.70756
1.9683142,97.61258
1.9642752,101.173676
1.9678884,100.51099
1.9251359,101.57673
2.0006318,100.9721
1.9320768,101.81663
1.8866862,101.60472
1.9336274,104.12803
2.006775,103.469086
1.8949679,99.50323
1.9452679,103.02482
1.8814757,103.314
1.8738873,98.599785
1.7865857,102.84008
1.7673117,98.477776
1.832017,101.87042
1.796987,98.75489
1.691737,101.48116
1.6596724,101.10308
1.6267993,98.58849
1.6759918,98.07958
1.6313206,98.971344
1.6500156,94.4366
1.6169662,96.33899
1.6478701,94.36112
1.4965553,95.981544
1.571409,94.187294
1.5432223,102.551025
1.5263752,96.73318
1.4060357,93.52444
1.4247926,96.74852
1.4611276,92.53536
1.468089,88.0777
1.4689939,88.92742
1.4462379,92.17766
1.4423739,89.29196
1.3799316,86.87221
1.4564852,87.5247
1.302182,88.141075
1.3557943,92.72569
1.3395915,88.76319
1.3546764,86.85355
1.3140984,90.82597
1.2745817,90.06946
1.2864448,87.41178
1.1942385,81.35728
1.2912053,85.5645
1.2098942,80.54649
1.1696601,87.16347
1.0245531,82.97201
1.0868726,82.90415
1.0628064,83.61998
0.9849718,81.10609
0.9821609,81.018845
0.94869983,80.96051
0.9806988,79.6125
0.92201465,80.10303
0.8155775,77.265686
0.83952785,81.70309
0.85771036,79.45011
0.9042768,79.94674
0.89416736,75.23096
0.81056887,74.95738
0.7717102,77.53253
0.83073556,75.86817
0.76681757,77.64988
0.80335,74.68985
0.78975147,74.179085
0.7592917,70.44397
0.7300417,74.14446
0.8563041,73.34919
0.71493953,70.48573
0.70032173,69.45804
0.6913779,69.87408
0.74416375,70.11549
0.5942134,72.561714
0.61620903,72.66511
0.6412868,70.64885
0.62627375,72.51452
0.62036294,69.7069
0.5283291,71.19605
0.47530878,71.7284
0.5295911,69.35716
0.48171058,72.90364
0.40202758,74.878914
0.4450847,68.758705
0.42167497,68.5903
0.38681924,67.39106
0.25696936,71.984886
0.2694844,71.68861
0.35888705,71.938736
0.3040122,73.71348
0.27590695,72.5558
0.33130896,77.52624
0.22118711,72.80095
0.4039216,73.956764
0.43576568,76.06381
0.45016697,75.3628
0.52275294,79.09226
0.52000374,77.8408
0.6394145,81.35319
0.6370012,79.877304
0.6404334,81.877426
0.74180937,82.23292
0.738021,80.854675
0.93716973,87.25888
1.0288167,85.19933
1.1051382,87.41774
1.2002441,87.812614
1.238655,88.196495
1.2694471,85.92418
1.2461332,89.86859
1.4225582,89.03744
1.3190433,91.02079
1.4530041,93.17347
1.4441042,91.54586
1.5321931,94.88338
1.452239,94.12039
1.4660352,94.42315
1.4779716,93.9282
1.5736468,97.87017
1.5746726,101.890526
1.6061227,98.42269
1.6199795,101.12004
1.6547474,100.96881
1.5478547,96.349686
1.5555816,98.553185
1.5992767,104.29795
1.655354,99.52247
1.5732726,106.2015
1.6073878,103.20943
1.5378157,104.149216
1.5626891,99.11673
1.5681382,98.588104
1.5492448,100.09706
1.5306789,101.39172
1.4268225,99.07224
1.482577,100.815605
1.5372268,96.90732
1.4157714,101.23134
1.4472405,102.088776
1.4310417,102.76684
1.334356,98.9429
1.3501439,95.74607
1.2801765,99.66473
1.2611642,96.60289
1.1984749,98.99853
1.1713867,99.70509
1.1511859,96.835106
1.2026987,94.67235
1.1347368,93.77335
1.0969801,95.169
1.1359851,99.80063
1.1098542,95.66222
1.0599983,95.87917
0.9828179,92.60455
0.99172854,93.97216
1.058129,94.616905
1.1493957,91.621704
1.0792309,91.95915
0.9079534,90.71863
0.92134625,91.14458
0.90787774,91.24012
0.99151516,88.20833
0.96300006,93.870605
1.013711,88.64992
0.8586026,88.92303
1.0138364,86.591255
0.9291575,93.1594
0.8450365,88.092026
0.88993204,86.81301
0.72672343,86.44877
0.7922189,84.72401
0.7060995,81.9064
0.6396262,82.94543
0.6354866,79.312904
0.57990396,82.391685
0.59588534,81.19052
0.6154219,78.8636
0.6192018,84.55345
0.5114237,81.12736
0.46929252,80.215454
0.4853679,81.40141
0.42078212,80.76009
0.46634534,80.08469
0.41831717,76.77437
0.409695,77.05547
0.40687424,73.016106
0.4409427,77.017845
0.34875923,77.59033
0.3446782,75.27566
0.41765016,78.1516
0.3456221,73.111374
0.46442488,72.81875
0.4197405,77.066956
0.34671855,76.42706
0.3401883,72.25762
0.3728528,72.7132
0.371024,70.1848
0.2957675,70.855835
0.2380822,71.71641
0.26139858,72.83764
0.29960093,73.39864
0.19220084,66.78106
0.12536435,68.64937
0.2423571,69.96871
0.113422364,68.22204
0.12816879,68.30838
0.11125345,69.915
0.044564173,68.11864
-0.11517127,69.802574
-0.08664755,72.190475
0.015583061,71.17135
0.006544751,70.908394
-0.13589773,72.78916
0.007142066,70.75575
0.0006341836,71.39012
0.011911341,75.19098
-0.057530694,72.7966
-0.036027238,76.088844
0.050925925,77.12099
0.13107777,78.8387
0.13894083,74.97398
0.13941108,79.87296
0.11185978,80.32637
0.2548507,77.039474
0.303451,81.10617
0.35910115,80.00171
0.5558763,79.412315
0.47061467,82.462166
0.5747237,81.587265
0.6282851,85.197464
0.6489121,89.64686
0.78440154,86.80758
0.9723087,83.599464
0.8893971,89.728874
0.9977215,85.49217
1.0832688,92.836006
0.9885983,92.14492
1.2196288,90.57571
1.1473336,95.68304
1.1679511,95.407555
1.2078172,94.564865
1.2968525,96.31151
1.3499482,95.571724
1.385219,98.79951
1.2118206,97.46187
1.4119262,98.90645
1.3160954,100.78138
1.3392208,98.99842
1.4394124,97.06679
1.4470366,102.98613
1.379743,98.99725
1.345842,97.52268
1.3548093,101.53953
1.3692236,104.52667
1.3473506,101.80165
1.3983979,99.520256
1.3229092,100.595535
1.3033506,103.77231
1.324732,101.97328
1.3785771,99.13146
1.2938668,103.0441
1.2118876,103.61483
1.2650862,97.5657
1.2709419,96.70697
1.2161305,102.06351
1.1165967,100.27445
1.2138842,97.056854
1.0817363,97.35204
1.0965806,95.93518
1.1004549,98.9673
1.0572164,98.55029
1.0232686,96.61874
1.1016294,99.65686
1.0472201,98.31897
1.0220082,97.677086
0.9859369,93.90885
1.0470703,96.12871
0.93229514,94.71428
1.016217,98.300865
1.0035791,93.51096
0.9051947,92.72333
1.0092942,94.23993
0.97974503,88.989365
0.9012388,91.59061
0.9943054,92.16829
0.96940064,88.64465
0.9069461,88.60572
0.9362008,89.6267
0.951774,88.61004
0.89102006,89.794556
0.911035,87.38708
0.85182667,89.54598
0.9010168,87.80026
0.86390626,86.58375
0.76045024,82.37639
0.70248,87.368324
0.715576,81.62873
0.65099406,80.88154
0.72718215,85.024086
0.6824752,84.61903
0.60480535,80.311325
0.61705697,81.92236
0.57756585,84.67853
0.5911709,78.77971
0.5436864,78.19228
0.4395993,77.94119
0.48095885,78.09278
0.50029624,80.04077
0.48064598,76.427704
0.5123255,78.79804
0.545583,75.811226
0.45951283,75.587135
0.50348186,74.46252
0.51579386,75.57971
0.5528158,70.47647
0.4358052,77.67483
0.5267649,74.89871
0.47502607,73.171906
0.457664,72.52719
0.50596964,77.21268
0.49270576,77.473976
0.48024243,73.13921
0.37688643,69.43117
0.3809308,75.15646
0.4583099,72.321144
0.36389667,72.25525
0.45652443,70.4862
0.39081684,68.40143
0.34959698,73.28129
0.31447443,70.72288
0.33352807,69.92968
0.33733463,68.891785
0.27583808,72.136154
0.22917844,71.43348
0.23403528,70.87779
0.21368556,72.057365
0.20079575,73.348236
0.16425994,71.17187
0.13774252,71.62112
0.1731789,70.82518
0.2163836,71.716995
0.27693918,75.10009
0.17716983,76.75999
0.27693304,75.921974
0.2582018,76.97132
0.3668683,75.88796
0.41716015,77.85172
0.55567485,78.656136
0.47425032,80.914566
0.6751685,80.218796
0.7607684,80.4205
0.74796486,84.742645
0.78400606,86.85975
0.8292584,83.78456
0.98783386,83.8771
1.0503448,85.55772
1.1534637,90.74604
1.1753902,89.67179
1.188454,88.0385
1.2267745,90.17257
1.3569845,93.969124
1.3668861,90.14784
1.503137,95.12739
1.5094804,89.90306
1.5598034,96.05567
1.5593705,94.365105
1.5990881,93.66274
1.632546,94.73771
1.6682676,99.21082
1.6855049,99.93968
1.6061429,97.379295
1.7240803,104.420204
1.7146178,100.23896
1.6897025,101.47765
1.7753936,99.32262
1.745923,97.804756
1.7143602,99.233795
1.7207273,99.0836
1.7717127,100.40268
1.6861358,100.115234
1.7794164,101.0493
1.685421,106.96233
1.7472569,99.89267
1.6317937,101.5213
1.6841308,103.42207
1.6684165,103.57923
1.618824,98.68652
1.6058009,101.8002
1.5778372,96.94303
1.5926924,102.42689
1.510338,97.31536
1.6297413,98.58239
1.5389993,101.43251
1.5256224,98.79822
1.539455,99.99911
1.5455514,101.54506
1.5228301,94.8419
1.4572924,98.21556
1.4667667,98.015625
1.4678346,96.55587
1.4757909,97.08156
1.4005086,93.789566
1.3869996,92.74132
1.4099225,94.85432
1.4114798,94.25044
1.4524059,89.685875
1.4236994,94.12066
1.3647096,91.03734
1.4311414,92.75744
1.3483291,89.73767
1.3062598,92.85537
1.341839,91.495255
1.3516872,84.166916
1.3128396,90.04839
1.3933433,87.90764
1.3991382,88.001205
1.3141831,86.25406
1.2776495,82.99661
1.2309966,84.64741
1.2177238,83.41413
1.2140639,84.34251
1.1722633,85.47171
1.2039865,86.103195
1.0618619,84.53429
1.0765637,86.01254
1.0335763,84.87456
1.0463217,83.5992
1.0358083,82.71332
0.99841124,79.89502
0.91091514,80.735565
1.0218757,81.47227
0.9078562,77.02477
0.89154756,78.55138
0.9975212,77.324936
0.8696188,74.974144
0.8831397,77.82618
0.9367143,77.83461
0.90597975,76.33136
0.9128273,72.237144
0.9381295,73.97519
0.8867711,73.255905
0.8454827,69.32095
0.90528184,73.07902
0.88652986,71.9995
0.91659534,69.24824
0.85992223,70.59014
0.85939395,72.061676
0.86618006,73.42712
0.8425064,70.82216
0.7711447,69.12196
0.8797283,71.88649
0.82341194,71.57834
0.78798676,72.07695
0.7029698,72.02605
0.7321094,66.78271
0.7243452,71.11762
0.68698287,70.15763
0.6499498,72.24475
0.54776525,70.48835
0.6017492,69.4638
0.61263466,73.183426
0.57295626,68.86267
0.5956083,75.26143
0.5047023,70.59704
0.58547086,76.51587
0.43524146,71.82328
0.5484688,74.6589
0.64225644,74.35158
0.6365784,72.515564
0.6598523,76.320274
0.6771084,77.142876
0.81620353,79.786194
0.8083239,80.97432
0.7528224,77.8839
0.9254798,76.58342
0.98217744,81.7531
1.036433,82.43018
1.1100302,82.11898
1.193751,87.70956
1.2682064,85.93148
1.3772289,89.11893
1.4844671,87.080345
1.4956666,86.87036
1.5850651,92.607956
1.593795,89.37649
1.5953636,89.95194
1.7286739,92.596794
1.7571317,90.1274
1.7419811,92.621185
1.8183838,94.43234
1.7105745,93.66835
1.8879764,97.06736
1.9337217,97.574974
1.9124209,94.33322
1.8899456,96.322556
2.0204868,99.999176
1.9523464,99.350105
1.9525952,102.6693
1.9556447,99.4736
1.9549632,101.96319
1.9472198,102.343925
1.9309963,99.39851
1.9194692,101.13847
1.9501427,100.429794
1.9965938,102.652275
1.8806026,100.5042
1.922239,104.86013
1.90211,99.41858
1.907801,98.27319
1.9268055,102.319435
1.8441498,97.80473
1.7529693,103.63854
1.8347745,103.43865
1.7843515,100.20931
1.7258904,100.829124
1.78319,100.22541
1.6497055,99.2966
1.7060945,98.02672
1.6138741,95.74774
1.6299254,95.16594
1.6097794,96.325676
1.6248645,98.24177
1.5930816,91.338585
1.579876,96.493416
1.4809308,96.69234
1.5685681,93.9548
1.5411603,91.75979
1.5104486,99.11727
1.5026963,96.1783
1.5124813,91.17999
1.4587651,93.254654
1.4311999,95.05714
1.4479325,89.542694
1.4035971,88.27379
1.50184,90.742065
1.4093512,88.927155
1.412399,87.59231
1.3441372,88.35386
1.3640754,89.12234
1.3580142,87.1409
1.3114831,86.2474
1.2912006,81.82506
1.2334342,84.05774
1.2621188,86.436935
1.1939876,86.45466
1.2191857,82.86956
1.1167511,81.52555
1.1064546,85.625175
1.1092181,79.0593
1.0954496,83.689026
0.9963338,82.556465
0.99764746,80.14119
0.9459285,76.214195
0.8782402,79.73171
0.90673107,78.18252
0.9712287,78.16036
0.88028413,80.57403
0.94224256,81.70753
0.83632547,80.279076
0.8570092,77.10781
0.8191721,75.36052
0.7607462,76.01744
0.8262653,76.590294
0.7727532,74.65305
0.78376997,74.13933
0.7299297,73.17575
0.80451685,75.385086
0.74910074,73.68257
0.707667,70.73305
0.78637534,68.92248
0.69972557,74.2036
0.7279805,73.63355
0.679853,72.88589
0.68325305,76.21151
0.6681657,71.58228
0.56506056,71.783646
0.54884535,67.83483
0.63253254,72.01704
0.592137,74.331345
0.49413753,70.322105
0.4917116,69.46357
0.45066622,69.6673
0.4388648,70.724365
0.39143693,72.39169
0.40889737,71.407265
0.31683657,70.45789
0.38874742,74.058304
0.38441166,69.57053
0.35240704,70.43275
0.3167808,71.10154
0.34738997,74.596596
0.26289096,74.695045
0.35633978,73.03996
0.40950269,72.82488
0.35505843,80.22251
0.499314,78.228134
0.4596374,75.62123
0.66826713,73.49282
0.6467563,78.5946
0.6867239,80.93997
0.69009733,81.572136
0.834121,85.89872
0.8969879,82.81702
0.8909227,84.793594
0.9565133,86.12315
0.9920148,91.95784
1.1395296,85.941315
1.2347629,89.33164
1.1031446,87.78916
1.2848332,91.75297
1.2836753,91.2474
1.3722643,89.02198
1.3989118,92.2875
1.3942204,95.42539
1.4849979,96.17798
1.4342579,95.39684
1.4912083,96.47527
1.5560673,95.47722
1.4579543,96.66446
1.6456419,98.043724
1.6075196,100.60563
1.5704569,98.7356
1.60543,98.94261
1.6308097,99.12766
1.604779,99.47502
1.5936601,97.39978
1.6109232,103.3288
1.5584124,100.8844
1.5432935,100.16941
1.5761057,100.94241
1.5470023,101.08822
1.4907635,99.65077
1.5068773,103.09912
1.5170438,105.318375
1.523921,102.07598
1.4587284,102.57263
1.397429,102.39332
1.3826677,101.6196
1.4784074,97.96258
1.3435405,103.14969
1.2161065,95.42808
1.3216902,101.29828
1.2682718,100.35398
1.2696742,99.23859
1.1909608,95.78525
1.2535739,93.38366
1.1766582,93.90881
1.2123396,99.432945
1.1202883,95.694145
1.1081915,96.54722
1.1058289,96.26012
1.0809444,94.20211
1.1538831,97.16064
0.9761111,97.194534
1.0952895,93.09544
0.97734386,90.74108
1.0030268,95.010704
0.98697084,90.69692
0.9849588,92.78938
0.95928615,91.43145
0.98479223,88.41679
0.9057609,93.8602
0.98700315,89.596886
0.98437893,88.75703
0.8806069,87.25092
0.87381005,86.91862
0.8745146,91.47935
0.85162306,90.22378
0.8255361,88.407265
0.78570896,85.082016
0.8653734,82.386185
0.6627845,84.40803
0.6776025,87.605606
0.64903384,83.2315
0.59086233,84.83563
0.5088556,85.30412
0.6087617,82.4231
0.5879393,83.686676
0.4379922,78.17084
0.44697043,79.73396
0.49222824,78.69431
0.4337748,74.58389
0.44358507,80.22106
0.47347978,76.74324
0.43252346,77.13992
0.32085648,74.757126
0.41898787,74.43928
0.37736025,78.45701
0.44942504,73.59599
0.37179518,72.72921
0.33643728,71.12699
0.41630223,69.97498
0.39868575,73.70456
0.33351874,72.12581
0.3622018,67.90229
0.3258266,72.76289
0.3959917,75.39021
0.3050297,71.96299
0.32143164,72.706985
0.1850114,70.318306
0.25843397,70.32319
0.11639211,69.65924
0.22370164,70.595535
0.21353649,71.99882
0.121694155,70.75725
0.12875186,67.24502
0.06058947,68.76809
0.11111659,70.791885
0.08965587,72.750946
0.013960742,70.81551
-0.088159785,70.412224
-0.08491142,71.53814
-0.036361042,68.7787
-0.084867515,73.05733
0.011686061,71.3414
-0.009104417,75.111496
-0.098633416,77.67894
0.0755457,77.01354
0.033965815,77.4137
0.058180716,76.08729
0.15902305,80.80957
0.102195315,77.8739
0.24938954,78.93128
0.26555127,78.399704
0.38788417,84.36806
0.50467074,84.2849
0.4242226,79.05176
0.5541201,84.09456
0.6224893,83.30176
0.6098111,86.76025
0.69867367,85.36435
0.8243034,86.31112
0.81554586,90.13254
0.9059338,90.039955
0.90765715,85.61233
1.1279525,90.62943
1.0355705,93.952644
1.1230625,94.753555
1.1640561,92.915
1.2419486,91.973465
1.2921702,92.921265
1.2264698,96.47618
1.3336049,98.5093
1.3496996,97.08233
1.273944,100.81668
1.3695534,100.09978
1.3410475,99.51209
1.2950515,100.399345
1.2567898,99.325485
1.2283161,102.05166
1.4076401,101.538536
1.3884332,100.642395
1.3827357,102.105064
1.4492378,97.66676
1.2893647,103.82771
1.381049,102.319984
1.3937185,101.5987
1.3747015,101.74906
1.348418,102.82547
1.334413,100.61938
1.3535407,100.226585
1.2636003,97.75618
1.1709692,100.034164
1.2386534,103.21099
1.2956725,100.50844
1.2105973,96.99544
1.1426873,99.318596
1.1438632,99.21706
1.1326622,97.54912
1.1010957,99.98908
1.0685984,102.21916
1.0401846,97.63654
1.0502713,98.90108
1.0548552,98.00189
1.0000067,94.55601
1.003057,93.57797
1.1032274,92.85251
1.0126886,95.96556
1.0080795,92.81302
0.9548498,95.922264
0.940933,93.6353
0.9856211,91.93411
0.9604662,94.62078
0.95878416,86.40755
0.8926392,91.585365
0.8598778,91.673904
1.0160276,89.599144
0.8888571,89.618904
0.9476412,89.53927
0.890892,89.600075
0.8140564,84.25323
0.8898748,84.96413
0.71929,84.78678
0.8388299,85.52995
0.8664711,81.45988
0.8640749,84.153305
0.7489257,85.310684
0.6990158,85.44909
0.6379421,80.468414
0.7725124,83.210464
0.5744079,81.57701
0.62163216,84.008766
0.58797926,82.04215
0.59573704,82.14265
0.53051543,78.790504
0.47681823,78.311035
0.52833074,78.03595
0.5357979,74.96466
0.42099518,84.19968
0.4577127,77.79468
0.5142785,75.43527
0.50300753,78.060455
0.42486092,76.39926
0.4241708,74.131676
0.43851823,73.05549
0.45826733,76.77252
0.52081716,72.98466
0.44367567,76.87094
0.4424964,72.13147
0.48305255,74.13733
0.530064,66.97921
0.43642548,72.83327
0.45348817,72.568756
0.40710622,72.54978
0.4221296,72.74766
0.3458912,66.96286
0.39733604,72.68793
0.35599732,71.125496
0.39812168,69.24607
0.29452386,69.04392
0.21582747,70.29453
0.2434536,71.04368
0.19573423,72.09586
0.19773169,69.28545
0.18734385,72.70724
0.2003632,69.262955
0.1961209,73.92253
0.21340592,69.44138
0.13528001,72.10282
0.1827161,74.305695
0.19723594,73.514565
0.18615529,73.748
0.25772366,74.14124
0.3103196,76.66022
0.41428122,71.4353
0.31034324,73.841995
0.40036064,77.911766
0.5229986,79.75966
0.5980844,79.85807
0.7080683,83.87231
0.7828985,80.060715
0.7251349,83.51694
0.93873686,84.227974
0.9720852,87.28826
0.91045016,81.02859
1.0000284,86.13868
0.99421024,88.01389
1.2689154,88.267975
1.1909622,88.48027
1.4149556,93.08202
1.3402759,89.552795
1.4330221,90.00013
1.4986385,88.32747
1.4934422,93.299866
1.5993152,94.97798
1.5475612,97.44259
1.5675565,93.11821
1.6654764,92.83833
1.6296066,95.76252
1.6733265,96.43474
1.6717507,98.42517
1.6822753,102.82657
1.8192488,100.45095
1.7073404,98.415504
1.7742413,101.20825
1.7172838,97.35573
1.7197635,99.698654
1.7822617,103.822624
1.6813006,96.88575
1.7202976,101.34442
1.7773644,101.862274
1.6206328,97.169
1.6624907,103.68407
1.8265258,99.6572
1.64781,100.60592
1.6857822,102.50615
1.656163,101.217995
1.6798549,101.65001
1.7021163,99.43103
1.5732881,94.98079
1.5733253,96.83652
1.5636845,97.17912
1.4754916,98.27966
1.553621,98.93948
1.5535798,98.44829
1.4791406,95.93103
1.4041755,98.830086
1.5249498,96.531006
1.4439276,97.9693
1.4165893,96.93624
1.4739832,100.10146
1.405231,92.11666
1.4759256,93.9719
1.3621219,93.849556
1.3959653,92.90807
1.3977888,94.26684
1.3922534,93.09442
1.3078506,89.89135
1.3873016,92.64833
1.3500383,89.56423
1.3901248,84.929184
1.4120575,91.1803
1.3612915,90.33568
1.3614101,88.07542
1.316214,87.13205
1.3063791,89.314766
1.2159729,85.55313
1.26114,87.432655
1.1753111,83.98104
1.1827121,84.66942
1.1481593,82.51795
1.1777986,81.60372
1.1457999,82.26025
1.1088736,85.65169
1.1241517,83.33721
1.1872351,81.85761
1.0587823,83.16659
1.0633082,77.41741
1.0199782,75.8226
0.8679508,81.92945
0.97123,81.883575
0.9217316,80.46319
0.9061179,76.260345
0.9493777,76.212944
0.8743508,78.16653
0.8639075,75.53484
0.85736567,78.05979
0.89577293,78.70503
0.8448418,76.3022
0.8587961,75.070335
0.82161945,76.65105
0.8781059,72.240036
0.9911921,74.08051
0.8713486,70.65773
0.9159488,73.427765
0.91357845,68.54891
0.92071676,73.94482
0.92435944,73.3688
0.7961119,73.39001
0.78345543,73.20774
0.82335055,69.1069
0.77796125,72.65534
0.68667763,71.82644
0.6192362,71.235214
0.6965638,70.85998
0.62159866,67.5972
0.5124304,69.45846
0.6561596,72.23102
0.55256873,71.255844
0.54525656,70.859215
0.56026465,72.74555
0.5051113,72.97588
0.49230358,72.166595
0.5006318,73.545975
0.61508137,72.30693
0.5743911,70.26719
0.5018286,70.857445
0.5907635,73.56893
0.65817827,76.10486
0.6885424,80.496895
0.7363345,76.96264
0.7871167,74.77186
0.7919907,78.1974
0.8682105,80.65047
1.0375891,80.786354
1.0125729,81.42389
1.0550259,82.20739
1.171926,84.016914
1.1694424,82.18997
1.2628832,87.237595
1.367672,86.99013
1.3354428,91.56892
1.4516443,87.62101
1.5228517,84.71692
1.5671132,89.73654
1.669373,91.45015
1.716513,93.443825
1.7275172,94.15114
1.81092,94.19843
1.7859901,95.88362
1.8080376,95.31478
1.8626026,92.281334
1.9519858,97.251465
1.9995465,98.66126
1.9188563,98.050285
2.0133235,99.16518
1.9179862,97.94765
2.0201902,101.925224
1.9418303,100.6485
1.9814863,95.8859
1.8653266,100.88975
2.0007105,99.993515
1.9599843,99.44173
2.0223346,100.98959
1.9650475,100.240585
1.9513135,102.02757
1.9688413,103.21175
1.8990023,99.44178
1.944882,100.36918
1.8741077,100.95388
1.8540301,100.95014
1.8353574,101.21276
1.7858548,102.5574
1.7516752,101.90919
1.6637053,96.72389
1.6761568,100.916214
1.7396665,100.66932
1.6885284,100.42629
1.6120346,95.3995
1.7130789,97.41881
1.6130254,99.71629
1.6015748,99.492805
1.5929968,96.57711
1.5317361,96.275055
1.5277169,95.734695
1.4526721,94.354515
1.4551506,93.15471
1.4530611,94.406166
1.4687829,95.12988
1.4843777,92.383484
1.4804239,93.39604
1.4540491,88.70176
1.447345,91.60203
1.5232587,89.28477
1.386246,87.36634
1.392232,91.210266
1.3334297,88.56411
1.4240924,89.66782
1.4084182,84.31702
1.3663244,88.68582
1.3111106,87.62277
1.3932987,85.52285
1.2701926,87.04961
1.1636996,87.95237
1.2213935,85.10588
1.212925,83.892136
1.1954829,86.37632
1.1940898,83.04587
1.0066541,84.033264
1.0815762,84.311295
1.0043925,78.94892
0.988501,79.89331
0.9756826,77.40481
0.9381065,79.68932
0.95094174,73.39307
0.7538789,81.45478
0.85123354,77.709404
0.87389505,77.93818
0.81774515,76.9055
0.83826125,78.654396
0.7995146,76.571556
0.7850255,76.978935
0.79520905,77.436104
0.7443855,73.75388
0.7512419,76.629166
0.6964003,72.78804
0.84548366,74.8865
0.74365324,76.34651
0.7133858,72.83499
0.80420166,75.00819
0.75217444,71.39535
0.6871323,69.54739
0.6885971,73.43336
0.7059168,69.32229
0.6916753,72.423935
0.6759753,71.85187
0.6233627,69.89303
0.5673181,70.323364
0.49613795,68.3147
0.5200592,70.59797
0.4054623,72.6195
0.47548595,73.19376
0.472333,67.65118
0.34207383,71.10924
0.32182086,70.941956
0.3051657,70.70202
0.30059016,70.20646
0.3233736,67.367485
0.30145523,70.69296
0.36252832,75.262405
0.31141576,76.42882
0.36744505,76.881454
0.41826448,72.73225
0.45251685,73.85545
0.4167643,77.97578
0.36436775,78.68055
0.5085281,79.325035
0.5652729,80.50494
0.6232475,77.88166
0.651779,76.729
0.7828292,80.3021
0.7632414,82.63428
0.9133774,86.38904
0.9596149,83.264946
0.9162383,85.42006
1.0758617,82.576256
1.0682766,88.213005
1.1340104,90.44209
1.2674302,90.75865
1.3126029,89.63206
1.2714967,92.13206
1.4169645,94.34629
1.2802936,97.666824
1.4001597,92.35971
1.5477376,95.53005
1.499773,96.803696
1.5949172,99.62382
1.6070703,94.45785
1.5585437,98.81332
1.5931767,94.19518
1.5628381,100.05826
1.6266724,99.417305
1.5524541,101.71589
1.583201,97.68534
1.6388426,103.62254
1.6386682,101.69148
1.5965648,102.144424
1.5075359,100.060104
1.563156,97.75651
1.5950447,105.5554
1.5350599,104.41556
1.5219945,102.305626
1.536482,102.77094
1.425271,104.37093
1.5065929,102.15002
1.4658018,101.11526
1.5206748,102.95424
1.3770899,100.29251
1.4261534,99.81771
1.3939114,99.26476
1.296445,102.219734
1.3528173,99.64133
1.3138934,99.307915
1.2337092,97.174805
1.2463049,97.75991
1.2494024,98.36906
1.2080725,92.53847
1.2222607,96.88454
1.1869731,91.838196
1.1596162,92.83197
1.108007,99.53278
1.1525015,94.157265
1.0183307,96.72219
1.0786799,88.09486
0.98631865,93.83115
0.9855855,91.50773
1.0492654,91.30838
0.94110173,91.11073
1.061639,91.01924
0.90938205,92.130196
0.99364704,92.454926
0.9475548,88.32538
0.8844219,90.096016
0.97429115,85.38626
0.89933133,89.06993
0.939247,87.36325
0.79835695,88.64408
0.9147887,85.45205
0.790194,86.38353
0.7808852,83.788414
0.7880471,84.1579
0.71582127,88.4155
0.68116015,89.61544
0.6896647,83.00841
0.71255887,82.82718
0.60577685,79.48037
0.53440535,80.96833
0.5364819,80.38132
0.55222714,82.8537
0.41001183,81.01046
0.46272996,77.352165
0.47285375,77.80557
0.45256782,77.1412
0.4372064,75.74324
0.33988056,80.98981
0.41328335,76.874084
0.3236865,76.081055
0.43639192,71.89404
0.40941232,79.06135
0.35357416,72.95113
0.30445078,74.23521
0.3424678,72.057365
0.3634471,75.42726
0.28431144,71.62379
0.29137826,73.30638
0.23287416,74.56407
0.3330701,70.521355
0.3095072,74.3356
0.32543096,72.22259
0.3336585,71.5727
0.32132426,70.97384
0.20303166,70.77034
0.11923153,68.82012
0.17915961,70.50328
0.15450773,69.26999
0.12513752,71.74521
0.0815178,67.21109
-0.067766204,69.1519
0.04283436,69.73032
-0.13353123,71.94068
0.03375704,71.624756
-0.025746025,72.336105
0.00835259,74.43588
-0.09989833,70.924545
0.03395975,74.70534
-0.07838866,74.57877
0.014997979,76.7039
-0.026715934,72.24725
0.07553632,76.21325
0.06787791,79.06094
0.13877332,79.37939
0.24084236,77.873985
0.258289,76.93262
0.3110797,79.71762
0.37155098,82.61213
0.3571065,78.82791
0.48477456,80.49231
0.55166537,86.37145
0.5938408,81.70969
0.7099676,83.551254
0.8313809,88.87652
0.8407179,87.82662
0.94637597,87.99414
0.9588652,85.54292
1.00537,88.2329
1.0102022,93.328606
1.0582001,96.51902
1.1405925,93.55747
1.145673,90.64003
1.1737908,96.683075
1.1799983,92.38858
1.3050977,96.542694
1.2778599,96.08096
1.3440832,93.014206
1.3423316,97.85423
1.3361832,97.10928
1.3158544,98.49612
1.3133641,98.37982
1.3971461,105.250626
1.442614,99.03416
1.3878924,100.11974
1.3571999,100.234
1.3630154,98.006226
1.368038,102.7285
1.4163376,98.294304
1.3895832,101.028885
1.3080883,104.10018
1.4439839,100.28507
1.4014422,99.92213
1.3013511,96.93626
1.3550365,100.454
1.3021855,99.09989
1.2879355,98.6727
1.278169,96.381645
1.3195678,98.17532
1.2208812,96.960075
1.1695504,101.002914
1.107418,100.56778
1.1536506,100.4432
1.1191022,98.057755
1.0693954,99.94174
1.0601985,96.23877
1.0597522,98.34425
0.97264296,98.18302
1.011013,96.54208
1.0343066,94.92339
1.0044677,93.16575
1.0186607,92.38641
1.0229049,95.47214
1.0833881,95.64257
1.0417154,90.74615
0.9966613,93.873055
0.98315334,87.3731
0.8883963,90.61874
1.0014262,88.02513
0.93997157,90.001656
0.91382754,88.051704
0.96529776,87.23189
1.0150257,85.49933
0.91630775,86.99008
0.9001628,89.46394
0.8457182,85.30782
0.8351772,86.39593
0.8288479,85.33219
0.8110371,83.783485
0.78963983,85.05808
0.7483402,84.089195
0.7229204,86.06247
0.7428414,79.95695
0.6799173,83.94686
0.6450026,81.852516
0.5914152,83.95736
0.5704525,77.85358
0.56880623,80.5257
0.4737393,79.22806
0.49188718,76.37236
0.5432226,82.257706
0.53813004,81.27789
0.44497958,76.719864
0.54103655,76.18342
0.4940238,79.93448
0.49656782,76.64989
0.45503983,76.38905
0.5152971,74.47638
0.55033875,73.22434
0.44879553,75.5722
0.4905757,75.48617
0.4543618,72.51335
0.4730781,73.43248
0.4993053,70.1483
0.47839454,73.1898
0.46771252,71.032555
0.56412816,68.23944
0.4362244,73.31172
0.42277378,69.76128
0.41639832,69.5601
0.44418955,74.48428
0.36888975,72.44897
0.31093368,67.51618
0.24758577,70.49631
0.20601153,69.12563
0.2928357,72.91911
0.23076804,71.28532
0.24226044,72.48848
0.21043532,70.80841
0.14174375,70.67425
0.14758539,71.07907
0.26021576,71.908264
0.2318157,67.602394
0.25054955,73.0311
0.20595117,74.20109
0.28498578,73.654305
0.20509157,75.63856
0.35476685,74.81429
0.39293283,75.43397
0.41542152,77.81156
0.32404086,79.9153
0.52869606,77.03259
0.5031386,79.25114
0.55954736,75.726906
0.6468115,81.849625
0.8377725,82.32844
0.851515,83.57711
0.8919979,84.4004
1.0082226,86.35372
1.0948123,84.50321
1.0197563,86.65292
1.1290092,87.92366
1.3037891,91.21356
1.2639959,89.30232
1.3831637,91.693596
1.4150469,90.330666
1.4708343,92.092094
1.4960924,91.1296
1.5369358,96.1227
1.5182831,94.20928
1.588618,96.93119
1.5679907,97.23432
1.624381,98.48256
1.6462022,96.99483
1.7171453,97.18885
1.7419924,98.986885
1.7779734,101.24941
1.6895428,97.775856
1.7808098,99.66996
1.7675178,99.23494
1.7581984,101.469864
1.8173465,100.75306
1.7167184,100.510254
1.783945,105.24435
1.8106532,96.12896
1.7472621,101.59798
1.7238761,102.745926
1.7720348,102.78096
1.721878,100.14299
1.5690407,101.09812
1.6158203,101.5816
1.6809555,101.24281
1.5977278,101.510155
1.6552012,100.88161
1.6740656,97.37572
1.5620021,99.74377
1.4871829,95.586426
1.5524021,97.130104
1.5564471,99.24772
1.5452559,99.67034
1.523008,96.81652
1.4438316,99.85791
1.4671,98.65028
1.3740278,96.21077
1.3767745,94.17372
1.4117182,93.91841
1.3808353,92.1721
1.366218,91.69189
1.4392414,93.17981
1.3590035,93.30361
1.4278761,95.363396
1.3673116,94.229256
1.3669487,95.173874
1.3459077,87.99388
1.377397,93.91424
1.3544271,88.268616
1.3413931,93.58048
1.4159678,85.861534
1.3871826,86.42022
1.3136357,88.65343
1.2778537,83.695816
1.2975662,84.89465
1.2197456,86.45834
1.1709083,84.819565
1.1920981,88.52873
1.1187636,81.84069
1.0725436,84.95474
1.079473,87.14602
1.0279428,80.54289
0.99368984,80.34514
1.021023,80.34966
0.99216944,85.2192
0.9901002,79.443565
1.0001831,79.591774
0.9514004,76.590355
0.8742828,80.06049
0.9668744,78.915565
0.9227416,78.3097
0.9321729,79.357056
0.88750726,76.01705
0.90696335,79.03683
0.8202434,74.22744
0.9262132,73.757454
0.8996857,76.11057
0.86636055,78.33491
0.9279693,75.68123
0.8449035,74.80959
0.8387856,73.6861
0.8596362,72.53555
0.947141,74.3858
0.8435242,75.76868
0.8649124,75.83265
0.82165885,72.81792
0.8217914,72.32414
0.73395836,74.96642
0.7389334,70.26278
0.76617706,67.314064
0.77436686,75.78781
0.660401,69.38331
0.6435675,69.77936
0.59097946,73.05886
0.5611794,68.24913
0.52349347,73.6284
0.6206705,68.52811
0.5655665,73.46121
0.5259369,73.61729
0.46542516,69.03466
0.52313584,70.453354
0.52848303,74.892006
0.5544616,73.80634
0.5720222,73.38121
0.5678072,74.427574
0.67131233,72.39632
0.60627,75.68693
0.7754431,76.92517
0.8476077,76.64872
0.7525277,77.531845
0.90683836,77.335686
0.86765766,79.00456
0.9808653,79.149506
1.0083107,78.42021
1.1283319,84.942825
1.2288201,82.02883
1.2238191,83.393
1.3874677,87.99389
1.481822,87.23028
1.4116814,86.89999
1.5504595,86.75008
1.7025096,88.58634
1.6913501,92.95607
1.7068154,90.47882
1.7230281,95.30479
1.7175654,90.79145
1.7859155,94.62507
1.8678001,96.72715
1.8746259,95.430504
1.9027572,97.343834
1.8655849,94.741585
1.9547336,99.89826
1.9175025,99.33669
1.9498998,100.78313
1.936065,100.334465
1.9639757,99.28944
1.8635459,98.369934
2.016023,100.826385
1.9599057,101.631134
1.9672699,100.97031
1.942622,98.44712
1.9578348,102.65753
1.9364008,102.85881
2.0277886,103.41005
1.9207366,104.81443
1.9214593,103.21948
1.8973569,98.04377
1.7648464,103.17606
1.8160199,105.24637
1.7545173,100.71677
1.7672342,100.38615
1.7682303,100.29289
1.6559237,98.55414
1.7233757,99.99279
1.6920967,101.96917
1.7133243,96.5485
1.6172186,100.39509
1.5743216,94.98749
1.7001882,93.25207
1.5356126,96.161766
1.4721308,95.50622
1.4635531,97.26074
1.5278031,95.81336
1.5672905,95.734604
1.4794582,95.381294
1.5572922,93.64961
1.4780073,92.494865
1.461006,94.42643
1.419715,92.32954
1.4430133,90.16956
1.4223353,91.13982
1.4027314,88.38041
1.5033877,90.443634
1.2902699,88.94009
1.4607565,88.86277
1.3762283,82.64011
1.3430556,90.34352
1.3177313,83.203476
1.2215482,88.31626
1.2351441,86.68696
1.2853875,84.4059
1.1398916,85.80325
1.2251242,82.44295
1.1458074,81.83023
1.0830686,84.28625
1.0414596,84.16875
1.098785,83.307846
1.0388917,84.66356
1.0028822,78.95063
0.9473475,82.75114
0.9653752,85.432106
0.9078161,79.70503
0.9128107,81.347496
0.90752393,78.06494
0.82268316,72.24726
0.8724623,77.052376
0.79600483,76.42502
0.8258682,77.865204
0.77299696,78.70605
0.8391127,76.262474
0.7772067,76.33786
0.8308878,77.97076
0.71825635,72.58423
0.7745203,73.975365
0.7886606,72.80106
0.796194,78.26016
0.8186925,71.21465
0.7322156,73.49442
0.66915244,70.71902
0.6926884,70.94236
0.7486947,71.05843
0.703027,71.14513
0.6533971,71.08125
0.6638815,68.099625
0.5871354,70.915474
0.55580014,68.69813
0.5009904,71.78769
0.48378733,69.17048
0.38379,68.93981
0.40283316,70.26824
0.31807822,68.673805
0.34633607,73.46021
0.30575332,70.8251
0.37826714,72.539215
0.36383533,70.00828
0.34336576,70.852066
0.2795201,73.615585
0.28610235,74.39815
0.289881,75.521164
0.32541296,76.18007
0.4174131,73.462776
0.48174477,75.91908
0.46058872,75.812065
0.545114,78.95573
0.5984874,79.9597
0.61842066,77.514244
0.7371434,78.2397
0.73016024,77.80097
0.8133701,85.5889
0.8823954,81.599205
0.9201201,84.66594
1.001115,84.61317
1.0309273,87.98487
1.1612304,85.33202
1.1046624,88.217476
1.2025568,86.44586
1.2749367,91.04044
1.2910615,89.752396
1.321776,91.6751
1.4106635,93.17862
1.4253665,93.44183
1.4683074,93.052475
1.4514626,96.70886
1.5452754,97.12551
1.5168004,95.53226
1.5434566,98.30493
1.5468613,99.9348
1.6379731,98.40345
1.5891517,97.4031
1.5389701,101.341286
1.5814404,99.645454
1.5776062,101.77384
1.6006317,100.49137
1.6539154,95.96474
1.5227472,98.567986
1.6135044,99.53204
1.584467,99.64552
1.5882617,106.97951
1.5564933,100.439095
1.5655676,100.61443
1.5328981,101.47391
1.5019946,103.73138
1.4915448,105.17509
1.3652424,103.26503
1.5004342,100.04156
1.409729,101.43203
1.2937369,100.69838
1.2930337,100.135414
1.3737818,99.451965
1.2270684,99.55008
1.2842401,97.60922
1.200462,99.137054
1.2370872,94.71582
1.1870034,92.925255
1.1425651,99.02288
1.0981426,96.97023
1.1454787,95.823875
1.1434946,96.63843
1.0832098,92.778435
1.1793548,93.03928
1.0765812,96.66782
1.095166,96.39638
1.0358484,93.5583
1.0217988,93.21576
1.0303178,91.47119
1.0869153,90.446434
1.0279365,90.381874
0.9529775,88.230965
0.96999025,90.76923
0.92011714,86.177574
0.9330263,89.33829
0.8747257,89.33671
0.9754767,89.49896
0.9152529,88.92991
0.8448111,84.44882
0.7634546,84.59184
0.77509314,83.005806
0.7956665,84.54089
0.6657929,88.06207
0.7560201,86.67776
0.6927693,83.9554
0.61845344,81.430374
0.59535116,80.1516
0.5426981,80.64295
0.52415,82.86823
0.48234272,80.760895
0.5041313,78.440704
0.5114184,80.36941
0.49269965,77.5067
0.47816584,77.98417
0.36915332,78.59412
0.3973277,79.74965
0.38758317,78.14959
0.35303313,78.80351
0.39152476,74.70591
0.34962696,71.50354
0.37987253,73.26243
0.38913542,72.88055
0.34946778,74.99679
0.35753015,74.975815
0.4215503,69.31436
0.3412652,73.00577
0.42441675,73.60245
0.23087865,70.539375
0.31282073,69.92009
0.25090772,72.605286
0.24259529,69.20708
0.2271871,68.86507
0.18761198,68.887596
0.13870235,72.94132
0.16210134,71.71987
0.097130544,71.688255
0.22351901,69.00267
0.14998806,70.67153
0.053779703,70.6966
-0.016774235,70.76515
-0.020357203,72.01619
0.0148402285,72.354675
-0.0696207,71.56725
-0.03857274,69.102875
-0.11037625,67.99409
0.02139656,74.58556
-0.059266202,74.025795
0.04366408,74.881386
0.002047655,72.417816
0.028643653,74.49784
0.058867965,74.43367
0.10005181,77.82605
0.16919187,80.28675
0.28074571,80.81586
0.29916808,76.731445
0.33987513,79.89258
0.44019222,81.27124
0.4669931,81.96581
0.54728454,84.88573
0.5896553,83.33945
0.64791334,83.57102
0.7018808,88.14604
0.87019944,84.03897
0.82251847,88.95054
0.8528258,86.415596
0.9756368,89.687614
0.95785457,89.84425
1.1032097,95.0974
1.1085627,92.38792
1.2088325,90.42481
1.2012378,95.477394
1.316369,94.322105
1.3503093,95.562645
1.3336216,95.78332
1.2709655,98.66097
1.3613809,96.15456
1.3703722,97.69439
1.3223147,99.152954
1.3100876,95.34469
1.3736169,98.139885
1.4021134,99.016396
1.4193583,107.32634
1.3999593,100.2723
1.4113108,101.44843
1.389245,100.33678
1.3654705,96.9928
1.3763919,99.488365
1.3777322,102.153404
1.3202916,99.454414
1.3524932,101.64239
1.332755,98.96814
1.318614,95.50831
1.2346464,100.12251
1.324333,101.32515
1.1712606,101.916855
1.1475338,100.64721
1.1742784,96.66456
1.1503567,100.05437
1.1618097,98.973465
1.2324806,97.9961
1.0585994,99.23719
1.045695,98.053825
1.0809066,97.4566
1.0221775,94.27349
1.007307,95.494896
1.0831709,94.52097
1.0702807,96.08631
1.0138584,96.0202
0.99875325,95.17686
0.93483675,96.51859
1.0092206,89.173584
0.99443674,92.335464
1.0196254,90.0349
0.909147,91.9329
1.0343536,90.0612
0.9632751,92.58851
0.9718142,88.74637
0.85615706,87.30516
0.95672905,86.826004
0.87212265,85.69382
0.8537824,90.86848
1.0017898,84.3942
0.9134393,87.29257
0.9523377,86.57786
0.7480458,81.371544
0.73276925,84.74186
0.79044,82.90639
0.6878396,86.65919
0.7329388,88.00107
0.67532164,84.62145
0.7424997,86.567444
0.6055119,80.94759
0.63734716,82.5443
0.5802051,81.052155
0.5654326,81.394066
0.56496555,84.33842
0.5232872,77.11484
0.61312956,76.47905
0.48669198,78.92849
0.47610655,73.76383
0.47657856,76.15656
0.42447108,75.73462
0.5164835,76.350075
0.5444,74.422005
0.4195666,79.538284
0.43276262,74.46272
0.42603904,75.84009
0.534934,72.78333
0.51298755,78.71103
0.52188647,71.42641
0.4793367,71.25387
0.5261243,69.14358
0.41030386,68.361534
0.4804285,71.0745
0.3796165,71.64747
0.46839425,71.44231
0.4362693,73.190475
0.35397798,71.90535
0.38687533,70.5043
0.37858033,70.51815
0.3048766,72.78925
0.35336518,69.51799
0.2891512,70.43624
0.21521807,69.55501
0.23700674,68.662315
0.20084213,74.94713
0.2738788,71.24223
0.15747029,67.73449
0.2820382,76.35858
0.21456362,68.22624
0.18417785,74.235306
0.20530029,73.934616
0.14327145,74.85033
0.23587917,78.2271
0.2713648,71.47557
0.3709019,76.43489
0.4478024,78.47452
0.4098222,77.5555
0.50070506,78.80032
0.6177071,76.839874
0.68145543,80.73316
0.732609,84.25922
0.71730465,84.34755
0.83401424,82.45344
0.9321404,82.21724
0.99623,85.76164
1.0815957,87.45844
1.0282016,86.28496
1.1946007,88.39666
1.2934443,87.79224
1.3310735,87.725555
1.3197169,90.8498
1.3619443,88.73414
1.43945,95.57405
1.4786011,94.35464
1.47226,95.87301
1.6584922,92.42609
1.6273919,96.84068
1.5677803,97.324295
1.5964307,98.4726
1.7011882,98.30453
1.6650268,102.259415
1.6964674,101.9999
1.7878952,99.402596
1.7328297,99.08806
1.7650793,96.68732
1.7834122,99.669815
1.7722803,101.00871
1.7641922,102.53766
1.7648802,98.277855
1.8385404,101.7843
1.7794743,100.39516
1.7090303,101.93787
1.7406526,100.85248
1.643402,100.88618
1.6809362,102.17658
1.6704739,99.531715
1.6516044,96.01762
1.6833239,96.94777
1.6034119,97.850525
1.5813849,97.21644
1.5614583,100.41063
1.5076047,95.250595
1.4815264,98.25977
1.5417418,97.70531
1.4919038,98.07808
1.5706772,99.14253
1.5056533,95.905685
1.5120565,96.07055
1.4236948,99.409996
1.5255244,93.85237
1.3796687,94.60481
1.4097127,96.810394
1.3754617,95.78444
1.4334725,91.84287
1.3679781,90.91943
1.3612432,90.68255
1.4123855,90.739525
1.3755647,91.47235
1.2970285,90.8041
1.3762809,89.18084
1.3542916,91.38211
1.3541733,89.322655
1.3737644,87.83859
1.3710134,85.89708
1.2541049,87.06631
1.2905573,85.76062
1.3319343,82.66516
1.3269955,81.89639
1.1494386,84.06596
1.2736586,84.827095
1.0904598,84.900024
1.1430389,81.83433
1.065938,83.743065
1.119087,84.22794
1.1157789,82.115906
1.0269688,80.80361
1.1083356,83.93147
0.98363864,79.64841
1.0045885,82.80269
1.0126433,82.81123
0.9147329,79.69828
0.85262764,81.02229
0.99061894,80.99238
0.9260627,79.488014
0.925852,79.14009
0.83884376,76.25902
0.8379729,77.01839
0.93183017,74.25484
0.9071467,74.14527
0.91094506,72.96034
0.8753848,75.43209
0.85287917,75.06567
0.923063,74.230774
0.9389799,73.25611
0.8676536,73.49102
0.81680596,69.93899
0.945494,68.26653
0.85311174,72.99327
0.79371333,69.77557
0.783788,72.69258
0.82707345,70.50564
0.7655763,71.65062
0.74972904,71.55878
0.68159884,66.08792
0.7519829,68.045166
0.7446242,68.64337
0.69202214,70.28882
0.60850877,69.13461
0.50666106,72.97916
0.51342684,66.496735
0.5208652,72.04859
0.51550823,72.25823
0.57586265,70.75658
0.51100546,72.928055
0.55733645,73.40491
0.53918964,72.202644
0.51776654,72.34455
0.6323983,78.87535
0.56481797,80.8031
0.6756999,80.19828
0.6853995,76.77039
0.72487634,81.89734
0.7873791,79.82401
0.83058655,77.3021
0.8981068,79.0796
1.0562985,79.87382
1.0643196,83.33774
1.0979406,79.90438
1.2354517,85.49564
1.264224,84.12922
1.3670167,81.654076
1.4148968,84.906624
1.5286007,86.24947
1.6186832,90.28083
1.6638516,90.79925
1.574639,87.00841
1.6932803,90.25649
1.7377691,96.58891
1.7257289,89.327126
1.9013935,89.587036
1.9326559,91.79486
1.8680509,98.867455
1.9419726,97.67617
1.8405539,97.57136
1.958715,95.46478
1.94765,99.72733
1.9626439,96.58687
1.9683225,101.454895
1.9754874,99.54931
1.9161136,102.100716
1.9761424,101.27692
1.9327521,101.46664
1.9787421,97.80021
1.9340999,98.48866
1.9637296,103.29961
1.8889989,100.7296
1.8676143,103.18837
1.9074886,99.37076
1.8961881,100.44037
1.913237,105.00338
1.8507695,98.75168
1.8312017,101.63405
1.820894,97.715004
1.8020518,99.76486
1.7612618,100.01158
1.677619,94.94119
1.6952113,100.253944
1.6880287,100.43217
1.645695,100.16923
1.6218655,97.859314
1.6021932,97.97729
1.5814366,97.31057
1.6169922,93.77232
1.5245602,98.4139
1.4800177,98.968544
1.5319366,97.24265
1.5086887,92.57696
1.4852215,94.505066
1.5331239,91.771
1.3833846,92.97918
1.4503181,90.94998
1.4312999,93.59378
1.5166402,93.38384
1.3955168,93.86657
1.4199927,91.44177
1.3377869,92.156784
1.492268,87.22519
1.4541608,88.78048
1.3704371,88.8252
1.3936398,86.5791
1.282972,86.457115
1.2815136,83.66787
1.3477407,85.55674
1.1927294,85.981766
1.211288,88.41968
1.1680943,84.79502
1.2005244,83.42228
1.1684176,85.74159
1.0936154,81.705345
1.1002154,82.105965
1.1118077,80.869675
0.88716114,83.59955
1.0270907,77.052086
0.938285,81.77143
0.90082014,77.15049
0.8730054,81.12054
0.80709064,77.348785
0.8412431,79.995514
0.8602119,79.16524
0.7881267,78.05373
0.7840438,80.563324
0.7789761,75.53137
0.6938936,74.40776
0.8108942,74.22414
0.75435615,74.5662
0.73927265,75.05678
0.7668397,75.27479
0.7533909,77.15363
0.7225567,71.974915
0.6840478,74.16737
0.76630646,71.255104
0.72540236,72.685875
0.6707608,74.412506
0.6972584,69.009605
0.67905915,71.72964
0.65155214,68.81473
0.5640139,69.20528
0.64253026,71.23482
0.5308571,71.51008
0.5511265,71.885956
0.46398345,72.802025
0.45220602,73.6993
0.41901833,67.154396
0.35313332,71.10631
0.37034452,71.50434
0.3133096,72.27255
0.32793587,70.635765
0.41796613,78.17228
0.36200768,74.394356
0.31530744,70.487854
0.3215606,74.44778
0.3331529,75.95467
0.26365933,73.94785
0.3755016,77.9628
0.47715414,75.321556
0.43978208,75.0026
0.5068161,75.646484
0.5606328,76.959
0.61258835,83.14068
0.6782035,80.82568
0.7227924,80.66842
0.73751587,84.30667
0.85849315,83.17671
0.9273216,82.91859
0.90156376,90.321915
1.004686,87.317856
1.0157827,83.5322
1.1486784,85.10751
1.2724075,91.8375
1.2908348,89.30451
1.4310609,91.582405
1.3041475,86.87428
1.3930589,94.53795
1.3617653,94.934494
1.448545,94.00718
1.4395033,97.48114
1.4530811,94.38666
1.5600867,99.5498
1.5194267,97.12138
1.5141435,98.446655
1.5312594,101.64122
1.6524886,98.33477
1.5678184,102.29575
1.6594543,98.26092
1.587971,104.513916
1.6357692,101.67924
1.5890944,102.13351
1.6355485,98.42364
1.5920985,99.50611
1.532503,99.96314
1.5851238,102.116745
1.6047384,100.93809
1.5098358,101.2729
1.4907898,102.44689
1.480287,101.81283
1.4562639,106.72293
1.3609432,103.71002
1.3472484,100.92637
1.3108033,100.850105
1.3736824,100.08527
1.3219464,100.60687
1.2848407,96.131805
1.3284672,99.333206
1.2985945,100.32737
1.2936786,99.278885
1.2437487,98.78483
1.1443758,96.09921
1.1517,94.389496
1.1495702,98.43229
1.1050704,95.72157
1.1404463,95.17056
1.114995,94.70593
1.1199546,92.786766
1.0963516,95.66015
1.0375665,91.915146
1.0698172,93.798416
0.96569365,89.61739
1.0076259,90.36898
1.0396799,89.89306
0.95653045,92.08952
1.0086976,89.764366
0.9918404,88.568855
0.9497416,86.01642
0.8773633,87.404686
0.97749335,88.23475
0.9309656,88.02325
0.8176645,88.84129
0.8123908,80.89741
0.86487246,86.822014
0.70475656,82.328
0.7133744,88.58259
0.7651266,78.99111
0.72672206,87.31403
0.7857557,82.95597
0.5704435,84.73763
0.5419931,84.35737
0.519669,82.722824
0.39063966,81.03546
0.5602438,78.35617
0.4880065,79.73757
0.38666254,82.629265
0.4441672,74.05429
0.39631945,80.05203
0.4368113,76.936874
0.43528688,79.44371
0.2647351,71.422874
0.4019252,80.388374
0.38185343,77.2015
0.3606947,76.56394
0.41378185,74.44007
0.40757832,72.98053
0.27949858,73.33977
0.40869606,74.79354
0.31176034,70.94475
0.2317294,73.17846
0.40899026,71.9223
0.3445762,69.440384
0.29822582,70.23397
0.3843134,72.00751
0.23727752,68.31394
0.3055427,69.8223
0.21373087,69.50623
0.09138424,65.2993
0.08044674,66.606224
0.22089358,66.6262
0.13706905,70.53732
0.14397277,69.802345
0.042982932,70.33655
0.02108262,71.38417
0.011548877,72.86709
-0.042530313,67.2481
-0.05869785,72.062584
-0.024676075,72.86638
-0.020834466,72.150795
-0.018351555,77.40369
-0.15863606,72.81854
-0.026769761,71.298805
0.09101807,74.451904
0.044378474,74.8976
0.16427322,75.87263
0.18139082,73.29605
0.206203,78.192696
0.19057035,76.36218
0.26290846,79.28174
0.4059178,79.61968
0.5056967,82.221
0.50369817,84.10652
0.52146864,86.79772
0.645513,82.646355
0.68334335,84.36358
0.80673873,88.08977
0.75891656,86.209564
0.8007139,89.26124
1.0045495,89.30742
1.0141459,92.1977
1.027079,91.49042
0.9989615,93.41849
1.1358618,89.04353
1.1722047,89.92606
1.1638371,94.89288
1.2209111,93.80152
1.2390604,94.80003
1.3164608,97.51868
1.2986907,102.06751
1.3493131,100.02154
1.4162418,100.80653
1.2666622,100.32328
1.3569056,100.01178
1.3584651,98.32992
1.3716053,102.82971
1.4612602,103.113014
1.3330122,101.68874
1.3727335,98.267426
1.3846726,102.80642
1.3612912,99.03768
1.3353063,102.782234
1.4033011,102.210075
1.2506689,101.29077
1.3493444,99.47007
1.2650939,100.65753
1.3321439,102.68007
1.2028952,105.70571
1.2550135,100.94364
1.2207676,100.05296
1.1902469,97.81383
1.2414106,101.20362
1.1936332,97.01655
1.1339209,101.33075
1.1409632,97.24677
1.1551325,100.83433
1.037573,101.609314
1.0933108,95.56034
1.0150058,97.396454
1.0519557,97.38045
1.0639209,94.22225
0.9854983,97.22615
0.9980275,92.81503
0.9961624,92.74533
0.93297833,92.39565
0.9900861,93.2369
1.0445246,88.64407
0.895233,94.07327
0.91838425,95.80221
0.926799,91.931145
1.0056789,92.07158
0.9817751,88.57583
0.9019644,87.78694
0.9392455,85.58828
0.9115762,90.85065
0.88084406,88.95798
0.9128865,83.36602
0.8638988,85.88498
0.82226276,85.20118
0.77845067,84.3729
0.71068597,87.0081
0.7811393,82.10296
0.8170441,82.586494
0.73070735,82.22992
0.6841797,82.42366
0.6726409,82.824936
0.69404614,82.13133
0.6459351,77.29524
0.6182119,86.03424
0.5316348,77.438774
0.5625793,83.841125
0.53527087,83.613495
0.55502737,80.604004
0.5507014,75.072
0.53953344,77.40868
0.51132184,75.292015
0.3948035,77.51199
0.49105704,79.11518
0.5885265,78.505486
0.44462377,71.764915
0.45743382,74.751114
0.6089308,71.180374
0.48491773,71.82945
0.45750156,73.905785
0.51362985,74.050064
0.50298744,72.58454
0.46611726,72.75419
0.47918606,67.68263
0.46028367,69.85506
0.41108382,69.41349
0.5036179,72.81426
0.39387405,68.42669
0.34266633,68.08749
0.3211534,70.94107
0.30958605,68.422035
0.32978147,68.519905
0.24942058,68.40842
0.31759524,71.2383
0.22018573,71.06692
0.20978925,72.76163
0.15923157,70.20216
0.10915922,72.64501
0.19346018,67.3383
0.1435996,73.08925
0.13931577,73.667404
0.13460188,72.10142
0.17455178,73.97487
0.24694453,74.692986
0.21589209,74.03456
0.27920154,73.76436
0.33510974,76.70279
0.2071096,76.422066
0.45890707,74.69545
0.44440058,73.99636
0.50758964,78.15103
0.6194397,76.20933
0.66946477,81.91753
0.8240161,80.41244
0.8730923,84.07573
0.99159044,84.414566
1.0191418,86.33127
1.0293715,86.67051
1.1332269,85.588936
1.1981578,91.10154
1.307991,92.89962
1.3023028,88.66145
1.3245908,92.81546
1.4360952,91.37471
1.4565754,94.58647
1.4882431,96.802025
1.5297055,96.87959
1.5750561,93.14684
1.6551967,90.81062
1.6496156,98.73952
1.6167996,92.75788
1.7093207,99.05982
1.6670431,98.04574
1.699622,99.00376
1.764906,97.488045
1.7707707,97.13296
1.7593321,100.35397
1.8105136,102.01665
1.6802232,102.473785
1.7981607,105.44558
1.694994,100.77273
1.6684124,101.078964
1.8206432,100.715065
1.780425,99.67825
1.7729925,102.52868
1.7243911,97.02958
1.718202,99.161476
1.8050559,95.70069
1.687863,103.99014
1.6737453,97.60353
1.6308768,99.62699
1.6648775,102.89353
1.5587399,98.05453
1.566242,93.06195
1.5567466,97.89245
1.5235577,94.94588
1.4996899,97.69951
1.5028645,97.922554
1.4472512,95.33824
1.4964113,96.11023
1.4433111,93.141335
1.4579171,97.684845
1.4773976,92.70905
1.4692518,94.230995
1.471347,90.96481
1.472832,94.12121
1.4783026,90.991135
1.4446719,87.97726
1.4076293,94.3323
1.4071037,91.914925
1.4630533,89.53399
1.3470321,90.704094
1.3573382,92.0492
1.4524411,89.94552
1.3363628,90.170906
1.2812917,88.58685
1.3137795,86.734985
1.3219136,91.06566
1.2170959,84.94605
1.2864996,87.388855
1.3084476,84.39848
1.2653501,85.455444
1.1491996,83.83098
1.1891613,83.36274
1.1930045,88.49998
1.1306298,80.11396
1.0538205,81.14018
1.0861397,80.56717
1.0092798,77.38112
0.9541566,82.60871
0.9439944,80.461075
0.94184554,82.87979
0.99742824,82.240654
0.8691602,75.50376
0.94053465,75.23736
0.88288844,78.02668
0.9476611,76.548256
0.8004423,77.34011
0.9473918,73.636795
0.85216177,74.776855
0.89317566,74.10109
0.88197666,73.35699
0.8780376,77.74656
0.90966445,75.396324
0.9099747,74.59629
0.8298825,71.13084
0.84330136,74.39931
0.8474228,71.64555
0.88401324,72.37645
0.7676714,69.14706
0.8175028,69.85098
0.80510145,71.37299
0.81821066,71.702484
0.7386446,70.70786
0.8321547,68.0532
0.74164665,74.36719
0.7350662,72.00951
0.69458365,71.164215
0.6508707,69.82535
0.6523375,70.95206
0.69071835,68.897415
0.599862,70.224174
0.5610618,71.55393
0.4520086,70.14029
0.59731424,71.84746
0.4938061,70.02521
0.5731009,72.832275
0.50840724,75.271904
0.590208,76.010345
0.57240427,72.93354
0.73113894,71.8303
0.6588241,74.3726
0.71961385,75.26767
0.7549366,79.42827
0.8629794,76.221054
0.88881296,78.1831
0.90307385,78.24616
1.0029578,79.63235
1.014614,81.73202
1.1673632,84.41055
1.1830778,82.7947
1.2013822,87.02318
1.3231572,86.321815
1.4885751,84.8743
1.45913,87.45006
1.5295113,88.715965
1.6540514,90.42137
1.6880324,88.15504
1.7387094,94.27344
1.7098395,95.55665
1.7609293,92.41629
1.7575283,90.895096
1.8052721,97.42926
1.8951408,97.514534
1.8373748,98.964806
1.8769164,99.17087
1.8933277,96.35917
1.9220214,97.21966
1.9266036,102.20984
1.9342836,98.609
1.8509693,98.93079
1.9073509,101.55504
1.8853799,99.68903
1.9333549,101.18597
1.9553502,99.97765
1.8869721,99.74775
1.8917687,101.149345
1.892066,101.129074
1.8705181,98.75096
1.9683306,103.13324
1.8516843,98.92801
1.8335869,103.32302
1.8332069,101.332306
1.889128,98.882256
1.7772975,98.217026
1.8266103,97.6754
1.7836347,98.315735
1.668242,99.021286
1.6928313,98.474464
1.698655,100.10667
1.5816392,103.63598
1.6752207,99.2171
1.6381052,98.69566
1.6001725,97.72868
1.5557086,95.836586
1.5514816,93.884125
1.4234239,94.83539
1.5309417,93.70224
1.5249412,91.76958
1.4965409,90.42755
1.4466801,93.279076
1.5159221,93.608765
1.4553208,97.89371
1.4073998,95.65788
1.3723614,91.94267
1.4416809,89.56798
1.4377505,88.052055
1.4853618,86.88019
1.3260056,86.8733
1.3940879,85.74594
1.3602186,88.4565
1.3194735,87.36653
1.3579242,91.30273
1.4062611,88.195946
1.3305628,86.44955
1.2361412,83.214615
1.2073863,87.22795
1.2633479,87.577866
1.127718,82.02651
1.102175,81.41377
0.99867415,82.21339
1.0728798,82.69628
0.9855278,82.359535
0.96681976,85.535324
0.96148133,78.98481
0.969436,83.305305
0.9755302,82.77221
0.8565289,83.97661
0.76207924,79.71757
0.8899469,76.111404
0.88594127,72.72154
0.8068782,77.006
0.8243669,77.95691
0.6850772,75.397804
0.78955144,74.10885
0.84977406,77.8985
0.72297096,72.81813
0.7776887,76.6105
0.82253134,70.935425
0.73411494,73.96368
0.78576446,73.481384
0.7667499,75.748344
0.88317597,73.24161
0.7205731,69.815506
0.7098605,70.94272
0.6964383,70.90649
0.723377,70.50214
0.6534402,67.618004
0.605069,72.00323
0.5287651,69.82032
0.58536327,68.96424
0.55182713,69.737465
0.4590349,70.34928
0.44600394,68.65181
0.3780278,74.44637
0.31125125,68.91062
0.44932267,69.70968
0.4402405,69.08922
0.31051615,72.22527
0.3346867,73.066605
0.27762443,73.03683
0.30104268,75.559525
0.41774845,71.70964
0.36304045,73.41425
0.35900712,72.80593
0.45027873,72.33149
0.38918743,73.059555
0.3790376,75.41559
0.45325384,75.95021
0.5192492,79.28603
0.53374773,75.8942
0.62229395,79.2884
0.7908733,79.56636
0.75076944,83.24674
0.9168953,81.86342
0.95996654,83.53248
1.0153288,81.433
0.9988148,91.11656
1.2048588,86.735275
1.1606759,87.929
1.2745852,92.48971
1.1886936,90.21396
1.4025606,91.68913
1.4035195,94.059746
1.4168261,91.38312
1.4889994,95.44347
1.4349256,95.537254
1.5448321,92.03019
1.5959035,94.26283
1.6062596,91.67488
1.5780629,97.035545
1.5327685,102.82414
1.5702658,100.03156
1.5955107,99.30926
1.5741107,101.49682
1.548334,94.485
1.5799896,101.342636
1.5637714,99.982285
1.5631273,101.16999
1.5868071,101.84471
1.4227728,104.37405
1.5185025,102.15256
1.4897075,102.292816
1.56327,100.87746
1.5775323,101.796104
1.4504721,102.34648
1.4017568,103.21627
1.4731227,101.08845
1.4175918,103.09404
1.3629497,101.17955
1.3332962,101.61187
1.4232142,98.61278
1.2250386,97.38771
1.2939543,102.684166
1.3273286,98.31446
1.2470641,101.361084
1.1616472,98.59273
1.1832343,98.90569
1.2767715,97.44142
1.2343396,92.37281
1.1695706,98.80437
1.136207,95.48655
1.0542799,95.63365
1.205001,96.78204
1.0520638,93.21455
1.096502,93.5979
1.0795479,94.27253
1.0278044,89.732895
0.9799767,89.84114
1.025911,93.45952
1.0268936,88.39307
1.0249177,91.42023
0.94559497,91.56166
1.0336607,89.552284
0.89560556,88.39722
0.99626684,87.913765
1.019486,88.83666
0.9159393,88.209984
0.89686286,85.92663
0.77070266,87.3058
0.83606195,86.11216
0.7517374,87.4119
0.6931573,86.82229
0.63224405,82.759384
0.7051418,80.02075
0.6121098,81.01263
0.5995387,81.512985
0.62048995,79.33351
0.62895566,82.09581
0.4929289,80.82672
0.4446211,79.24466
0.50360394,78.04761
0.552177,76.80732
0.43472826,76.334404
0.34429482,76.91828
0.47510162,78.844894
0.4046533,75.575195
0.38688672,73.481575
0.36052415,76.612724
0.38109827,73.05043
0.29845345,75.584984
0.24864267,79.40047
0.36662006,71.29849
0.32497045,75.54775
0.36987862,72.18316
0.37266544,70.69037
0.3476339,76.78873
0.26239744,76.10051
0.30979037,70.704254
0.38775858,69.59274
0.17332128,74.50778
0.34675667,74.87754
0.2787049,70.761925
0.2225814,67.91196
0.14959162,73.11369
0.20862564,73.305275
0.1198422,70.76196
0.0321487,66.78282
0.02705423,73.27316
0.1179473,71.5196
0.009835468,70.2764
-0.014966182,68.23152
-0.07595169,69.00854
0.012699631,68.81413
-0.05435324,75.10688
-0.1365389,77.68808
-0.11406961,75.31417
-0.054735757,71.18684
-0.034088995,76.93155
0.13475466,72.961876
0.04854364,75.01668
0.06668001,74.91155
0.09792558,80.43428
0.2448302,78.95576
0.20796819,76.774414
0.3438949,76.375565
0.338427,80.028206
0.41916412,81.65333
0.48018977,78.73159
0.56947106,86.180664
0.5899181,82.830734
0.6610072,84.44954
0.7376103,84.88239
0.7751713,90.39791
0.8816711,85.44874
0.9356833,91.83755
1.012172,88.79094
1.025801,92.01796
1.0150965,93.64063
1.1373746,92.268036
1.1378915,96.69124
1.103068,93.017586
1.2052847,96.40229
1.2263521,95.324104
1.3262012,95.647964
1.3248185,98.35723
1.3649138,97.702126
1.409773,95.46215
1.3474783,99.39406
1.3651367,102.258865
1.3980001,99.14529
1.3104528,98.0669
1.4005477,102.47834
1.3520554,98.92929
1.3750781,99.86111
1.3765403,103.30793
1.3246777,101.68852
1.3159724,98.33415
1.3180381,101.13691
1.3043412,102.72729
1.3149766,104.24657
1.2151712,100.72532
1.3343189,105.694534
1.2484813,103.69766
1.2119651,103.98425
1.2339491,99.80191
1.1791216,98.22057
1.2234626,100.30829
1.2254109,98.39613
1.1603863,97.58485
1.0858808,99.7324
1.0597874,100.85425
1.0663149,92.32001
1.0358155,94.51426
1.0645628,99.002914
1.0440209,98.77626
1.0303254,100.15234
1.0308805,93.34864
0.8766581,94.49573
1.0428476,94.61514
1.008199,93.82936
0.9288454,92.433975
0.93364424,93.67073
1.0063523,92.67426
1.0244836,91.91834
0.8962565,89.37047
0.95593417,89.44629
1.0195781,89.89652
0.94337815,89.60655
0.9361301,90.799255
0.88549155,87.154465
0.88942736,85.62575
0.8887888,88.89641
0.8271583,85.25151
0.8793841,89.64673
0.8561345,88.16114
0.80151665,84.677734
0.77829945,78.87907
0.7535971,82.32913
0.8174676,86.03703
0.7341987,81.37996
0.7024706,80.38678
0.6656067,81.07358
0.6674288,81.51339
0.7332453,84.19008
0.58171004,80.6168
0.6247613,80.292015
0.46524417,78.51305
0.47355136,76.66303
0.49142396,75.24717
0.43925762,79.55479
0.43200755,76.44038
0.5203569,76.40115
0.4311334,76.09652
0.4682933,76.901924
0.5770546,74.396416
0.5031189,71.933334
0.44393748,75.930786
0.48196754,74.14815
0.49533582,74.70483
0.51312613,75.59256
0.5487198,73.81901
0.5586771,74.331245
0.47738618,71.23416
0.4590371,70.1754
0.52635896,69.41269
0.39866924,69.264084
0.33905002,72.214005
0.37527463,68.523224
0.32416055,73.508194
0.32937402,68.5882
0.38717592,69.37146
0.2887687,70.988235
0.2711608,69.68551
0.254823,66.52158
0.23069718,69.674706
0.29762357,70.89996
0.17210072,73.54539
0.117442496,71.338356
0.19991358,73.15805
0.24007347,73.21258
0.17257568,71.43679
0.15491055,71.35219
0.22534858,74.15715
0.38570836,70.19561
0.27681488,76.03457
0.3765819,73.588135
0.3773494,76.012184
0.40921092,70.78078
0.46500692,77.63293
0.514252,80.826935
0.5904707,81.2448
0.7031638,83.521645
0.748831,80.729546
0.8713144,84.21185
0.93774915,83.79407
1.0228322,84.273834
1.0575911,86.429535
1.0725963,86.87948
1.1685139,87.36911
1.2723521,90.58874
1.317412,89.10168
1.4129833,86.51045
1.4187964,94.06216
1.4206815,91.05409
1.4394395,92.972084
1.5837011,94.808334
1.5630761,97.62413
1.6048902,99.331215
1.5663415,101.60976
1.5970732,96.84156
1.6505803,97.126976
1.7188143,97.56568
1.7055776,99.74505
1.6431444,101.187294
1.7814482,99.45812
1.7357475,98.154335
1.7866511,101.22118
1.7503002,103.14104
1.7732638,98.52772
1.8034002,103.318245
1.7666663,106.475296
1.8610785,100.989265
1.6900465,100.9292
1.7088383,100.10929
1.6857213,99.84377
1.7836486,102.38093
1.7201704,102.79482
1.7325516,102.13662
1.6432402,100.032486
1.5736519,99.24876
1.6622525,101.0185
1.5347923,101.24987
1.6383889,100.919586
1.5925596,99.58579
1.6110067,97.48904
1.4568607,100.018684
1.4301769,95.77629
1.5267106,96.59397
1.514796,97.701454
1.4518075,95.48046
1.4269439,94.23166
1.5044523,96.455284
1.438003,96.971756
1.3368964,94.49414
1.4544829,93.65485
1.3523115,90.183754
1.2940193,96.37776
1.4152243,94.06852
1.3988305,91.38607
1.3254766,93.06587
1.2988358,87.80987
1.3875436,87.70289
1.3420807,88.889725
1.404216,89.60068
1.355617,91.34499
1.3655809,85.69373
1.3797022,90.57449
1.3049718,90.40767
1.3316671,90.498924
1.294849,85.49901
1.359167,82.017334
1.2051408,84.34778
1.2070353,83.9062
1.2514458,83.952034
1.0936233,81.19202
1.1921068,83.06987
1.1003653,86.52994
1.0120987,81.2123
1.0032179,79.823845
0.94039196,82.79959
1.0548347,79.07744
0.96130806,84.24021
0.98202664,77.51837
0.8915416,80.52643
0.9497109,78.29878
0.9165907,77.13894
0.86342883,79.41633
0.9106846,74.7421
0.9155881,76.94936
0.8551799,78.482666
0.8901167,78.2159
0.899491,74.283356
0.8684539,74.30248
0.87810606,75.93567
0.874622,70.99931
0.87161344,72.15865
0.9718324,71.621
0.8477287,69.63502
0.8447115,69.2196
0.85402197,71.92534
0.80445695,71.7973
0.82735205,69.844925
0.6847709,69.65149
0.7392995,71.32529
0.72978187,71.23913
0.6972498,71.49125
0.6365992,68.961235
0.60516226,69.433334
0.66910326,71.1626
0.5515073,74.32879
0.5014795,72.47556
0.5327902,71.8149
0.59325916,72.74745
0.574137,72.51404
0.6329912,70.95014
0.5768492,74.47326
0.58137524,72.33686
0.609603,73.622795
0.65788186,76.54416
0.60969514,77.40758
0.7239025,75.44861
0.68354565,73.157
0.78378534,77.529495
0.85324186,82.5924
0.81778777,78.420074
0.91511303,82.65002
0.9512537,82.72631
1.0236341,78.02208
1.245341,84.15744
1.1622114,84.22951
1.3126186,85.761314
1.3014617,87.74791
1.3845388,85.239944
1.5369029,86.71042
1.5610992,90.46071
1.5788499,89.495895
1.5897325,91.79592
1.6325617,89.594376
1.7506737,93.230804
1.7823224,92.864265
1.7683852,94.97147
1.8380833,91.60118
1.8025128,93.68815
1.8592134,102.15231
1.9309535,98.86763
1.9004693,97.76118
1.9945704,97.43342
1.9265627,97.99282
1.9700745,99.33667
1.9451723,99.42925
1.9718044,101.001495
2.0496387,101.23831
2.017518,102.75908
1.9189332,98.1978
1.8691884,101.89667
1.9843913,100.35627
1.8997,103.0779
1.81033,102.372505
1.9808316,101.11366
2.0223188,101.19605
1.830105,99.81777
1.8417629,100.42709
1.8489163,98.97117
1.7897819,99.65388
1.7893792,99.028404
1.7728707,101.5108
1.7558132,97.06652
1.7205397,99.62795
1.6736859,99.46963
1.6898315,101.49978
1.6053736,92.86496
1.5526525,98.451035
1.5591526,95.279
1.5469521,98.674034
1.6062338,95.96782
1.5100837,92.17204
1.5022032,92.86812
1.5160103,95.7554
1.5509579,92.596
1.437983,94.522896
1.4283439,92.072876
1.4796937,88.480896
1.518142,86.69692
1.4621408,93.53819
1.4929665,89.30212
1.4211532,93.55556
1.4507301,90.99756
1.4662143,91.320366
1.4432312,88.38761
1.3001741,86.26597
1.3824818,88.245316
1.3214171,81.576805
1.3418865,84.89698
1.2695959,87.16709
1.3239974,85.96625
1.2420713,87.12171
1.2286074,83.57547
1.1511195,82.36568
1.134656,84.900986
1.0887433,81.83631
1.0755002,83.06763
1.0141882,83.61533
0.9963178,82.98607
0.9021912,79.50105
0.89841366,81.1131
0.92029965,79.72984
0.85911286,77.112206
0.87337005,82.247025
0.85230154,79.548195
0.7361815,80.26326
0.75124973,79.217606
0.7785821,75.02649
0.81999254,77.57451
0.90711284,75.190544
0.83585346,79.174866
0.6844638,74.691696
0.8192937,74.956474
0.7825761,74.72117
0.7554305,74.200195
0.76993287,72.66462
0.80410504,72.67248
0.8273017,74.050186
0.7614062,69.03479
0.7945955,70.80311
0.70492846,70.97337
0.7154645,68.4777
0.65599984,73.199745
0.66699976,70.663376
0.61684763,70.09961
0.584146,71.180115
0.50036335,69.868996
0.5401031,71.544586
0.39039278,77.75912
0.4168879,69.78998
0.36156937,69.88066
0.34672314,69.84481
0.31329188,73.90492
0.3583085,73.3055
0.25311586,69.97283
0.3461293,72.18305
0.3282244,68.56667
0.34333977,73.97928
0.33747566,77.80785
0.30488527,78.42921
0.36250424,72.714836
0.4794266,78.486534
0.44413176,80.21829
0.55078036,78.64336
0.598672,80.02256
0.63114065,81.98928
0.7006114,80.11109
0.70658165,78.98218
0.81409276,82.38365
0.9441446,81.04805
0.89507556,84.86593
0.9413215,90.605194
1.080187,89.3503
1.1316715,84.94399
1.1963433,87.27375
1.1915011,90.91061
1.229315,90.33785
1.3803061,90.08935
1.3493042,92.47498
1.3227992,91.25072
1.4360214,93.4644
1.4336503,93.220604
1.5952945,95.113335
1.5733764,96.85464
1.5300262,96.994545
1.5288004,100.23625
1.5366398,96.63248
1.596499,96.84063
1.5992737,99.30998
1.5605373,99.99935
1.5729938,92.56717
1.5791364,97.39855
1.5617546,99.46209
1.595269,101.51671
1.5501907,101.600044
1.5314317,101.443954
1.5035919,101.95863
1.5624195,102.24738
1.4915704,102.082756
1.5272313,101.33211
1.5692871,102.09966
1.4488882,102.45306
1.5681642,102.0601
1.4215515,103.29751
1.3894292,99.87113
1.3354292,95.89437
1.3298416,98.26836
1.2827661,100.215164
1.2985681,104.2444
1.3234519,96.91307
1.189527,99.728676
1.2106501,95.193504
1.2380627,96.191055
1.1835575,99.402115
1.0901839,98.838196
1.1350834,99.27257
1.0358188,98.91273
1.0912133,95.327934
1.1754743,93.57964
0.9288359,93.863434
1.0372167,95.083115
1.1382222,93.4804
1.071297,89.1831
1.0004756,90.17411
1.0524898,91.5614
1.0120347,91.04469
0.98208994,89.28014
0.94441444,87.28878
0.98821014,91.670456
0.98558855,92.631775
0.8903088,87.57238
0.969401,88.38327
0.887535,84.35863
0.8028781,87.458336
0.86891955,87.715965
0.8295006,87.47767
0.82337725,86.39519
0.7627528,84.03876
0.75156766,84.02527
0.63879794,84.8213
0.6524136,85.78492
0.65064764,84.06289
0.5786415,84.51082
0.622371,80.224205
0.5318056,78.932816
0.54694086,80.50249
0.52143145,81.142685
0.49465135,77.36381
0.39196426,79.023056
0.41704232,77.70912
0.4106484,76.72796
0.46403375,78.7216
0.33775622,78.8947
0.41709593,73.74147
0.4085773,78.16952
0.3906132,79.23676
0.39363006,74.03945
0.35060614,72.24546
0.37243626,71.320274
0.37845004,73.640816
0.30874434,71.14757
0.38533816,72.04453
0.3294616,73.476944
0.24918088,72.83473
0.28447717,71.147125
0.22231103,71.68959
0.28365758,71.82759
0.2708122,69.063126
0.20625687,72.67048
0.17643295,73.613144
0.1441917,66.92342
0.19188045,69.8007
0.017801959,69.11779
0.10466563,68.35412
0.11252168,73.0185
-0.034999184,69.43627
0.03170405,69.247604
-0.011049247,70.09687
-0.028143518,71.209114
-0.038691312,72.277695
-0.0043867095,71.29382
-0.12244526,71.42147
-0.009810743,73.71192
-0.061966915,73.49837
-0.03731166,73.858025
-0.067124955,74.320465
0.15342623,78.27806
0.15092462,77.424416
0.15372649,79.26924
0.24553195,80.22015
0.17932773,76.33953
0.38841024,80.44586
0.49092227,81.47363
0.4847436,83.96341
0.5981699,81.741646
0.64973545,83.351204
0.65105414,82.46066
0.73431426,84.241615
0.8334489,87.98839
0.92292374,88.378006
0.8976727,90.452614
1.0158786,90.27421
0.94261515,86.660286
1.1349044,90.57183
1.1328787,92.585464
1.128266,91.762054
1.2152367,95.0226
1.189417,96.39037
1.3051147,91.93936
1.3925223,96.4664
1.2406694,95.06517
1.3632553,95.44686
1.3454417,97.59564
1.3593414,99.33506
1.39332,102.004845
1.3269852,97.439445
1.4103986,103.3184
1.4499153,100.815025
1.4002279,101.12337
1.3904607,101.950165
1.3705887,104.45869
1.3659344,102.37909
1.3257215,100.7597
1.3568568,101.97261
1.3934009,104.05688
1.3725816,100.11505
1.3440464,101.17888
1.2709119,101.29688
1.3121403,101.31589
1.283289,104.99523
1.2639779,104.27395
1.2692053,101.15015
1.1608807,97.45948
1.092507,98.21692
1.1401036,100.58883
1.2217056,100.95891
1.1184939,98.652565
1.0765952,97.890076
1.1014009,97.59335
1.1497958,95.49103
1.0065746,93.33044
1.0305287,92.78813
1.0186048,94.80512
1.0070012,94.23132
1.0564772,96.967415
0.92771703,97.35973
1.0264769,94.20322
0.9624648,94.564606
0.9494196,90.336464
0.9236907,92.57147
0.944887,91.00028
0.98321044,86.48243
0.9779497,92.190765
1.0111378,91.563805
0.9524316,87.353905
0.87485445,86.445305
0.9243129,88.952484
0.914292,86.62869
0.8481597,79.502304
0.79736185,88.40365
0.7831691,85.5255
0.77324283,85.747345
0.7817005,82.88512
0.8284748,84.398254
0.6671039,84.9651
0.6625767,82.160675
0.68225473,80.41244
0.51108956,81.12272
0.59075564,83.49135
0.65617347,82.83608
0.4890044,82.863495
0.46102694,78.016624
0.5099458,80.02765
0.50252825,77.036865
0.5147138,78.37476
0.4255817,77.5264
0.5582652,77.47706
0.44855303,79.66602
0.47824535,75.85941
0.43566,74.769745
0.4273116,75.059395
0.5988455,73.93918
0.5184649,73.31678
0.5068466,73.22505
0.50423855,75.22684
0.46846515,70.041954
0.49904472,73.63415
0.49493286,71.76212
0.50062764,73.17193
0.38466367,72.29266
0.46423542,70.82447
0.4381453,72.8347
0.37752575,72.0956
0.47434196,71.51572
0.37126595,72.00217
0.33268797,72.07556
0.30396038,70.681274
0.2640811,69.169395
0.2130887,68.43035
0.3048937,74.34201
0.26516262,69.36971
0.22718272,73.82139
0.21328199,72.23548
0.14372961,68.26738
0.17955308,70.531815
0.22130257,73.17326
0.20643525,67.56869
0.18481956,70.369736
0.14216174,73.15285
0.27785668,75.435005
0.2728851,75.63456
0.332497,76.72417
0.4106941,75.38649
0.46494046,76.11152
0.43700397,83.651825
0.5691556,78.61544
0.66023964,80.160866
0.6576948,79.291664
0.7894679,83.871376
0.82773894,82.61826
0.9630962,82.88786
0.98434025,84.825424
0.9685752,84.36337
1.1918961,86.21182
1.2077405,85.98642
1.2638404,91.81516
1.260117,92.404
1.3535485,93.35447
1.418106,92.979225
1.4076198,94.09222
1.4443035,94.580345
1.5519478,97.12315
1.5670376,93.30784
1.6838281,91.8495
1.6055979,95.64273
1.7056614,98.90817
1.7077532,93.0206
1.7024032,94.526566
1.7979453,98.545975
1.7535117,98.08821
1.715339,100.39371
1.6937342,103.05076
1.7642323,101.64941
1.7223845,103.92383
1.7388685,104.36201
1.7152213,101.2968
1.7860848,100.42392
1.7874609,102.17381
1.8371845,101.111244
1.7144109,108.14609
1.7283136,100.52307
1.8141407,99.56635
1.6565998,102.2445
1.6433829,101.51373
1.6773878,101.114914
1.6498244,99.5488
1.5748495,97.8
1.5316942,100.03514
1.5776252,100.91926
1.56816,102.25342
1.5010363,98.91073
1.5875225,97.5714
1.5649049,99.27002
1.4578416,96.23802
1.4009341,98.616844
1.4655812,96.45772
1.3982538,97.67035
1.529984,96.76299
1.4713515,94.17096
1.5189577,95.530624
1.424509,95.337456
1.3869008,92.957596
1.4027356,91.692345
1.3727243,92.02672
1.4514477,91.32132
1.4148523,92.265686
1.3999673,89.645775
1.364545,94.71448
1.4154656,90.213684
1.3682774,85.85823
1.3405242,90.46496
1.4032551,86.2617
1.2517706,87.988464
1.2667081,91.45166
1.2293361,88.00721
1.2591848,84.06481
1.2246209,85.26308
1.1583863,89.543434
1.2032093,86.16078
1.1737775,82.25997
1.0995392,82.60609
1.0463151,81.06727
0.9967591,81.56692
1.0455309,84.553474
1.0163603,78.77906
0.9038978,78.137955
1.0046016,78.012184
0.9646278,76.75042
0.9109921,80.58118
0.9680719,79.18795
0.9187337,77.19233
0.8306669,72.31911
0.9219262,74.50632
0.94406784,77.69828
0.9114682,74.71421
0.93456393,76.84712
0.8688133,73.45918
0.8744709,77.44154
0.95288694,75.65697
0.89881694,76.07712
0.9169378,72.83925
0.8516038,71.63082
0.77125245,70.10346
0.87979674,69.880844
0.860951,72.87436
0.86473656,68.37344
0.775857,68.0164
0.81089705,72.09397
0.7904199,68.157875
0.7605484,70.92411
0.7313155,70.4597
0.70301765,67.35609
0.6451553,68.63225
0.6437029,74.499
0.63938046,67.840225
0.59540987,72.32259
0.67534876,71.89029
0.4798715,68.80649
0.51787204,73.05489
0.5541613,74.73147
0.5530051,72.07675
0.59209824,73.611046
0.48653975,75.6446
0.51542646,74.83923
0.5127555,75.90385
0.6145964,73.484116
0.5851857,74.84049
0.7652815,78.02429
0.75088894,78.21812
0.90092486,79.887146
0.8416245,81.2337
0.8647526,78.92328
1.0781548,86.11872
1.0415776,78.76802
1.1874635,84.80311
1.2108343,83.258484
1.2109829,86.63326
1.3658931,81.570816
1.4221407,88.56754
1.5185653,87.30209
1.5208532,92.42981
1.553096,89.513504
1.5657461,90.615776
1.6128368,92.75442
1.7803292,93.9892
1.6889913,96.32649
1.8162851,91.29604
1.825196,93.02378
1.9523727,102.05528
1.9020586,97.24726
1.9515122,96.757805
1.9219108,101.809
2.0136688,104.32095
2.0050306,98.92912
1.9347793,99.34319
1.9722586,99.06683
1.9982611,98.24047
1.9446286,101.23757
1.9131539,101.91523
1.9839629,100.213394
1.8708805,98.84342
1.9406931,102.29243
1.883416,99.74976
1.9468778,99.31655
1.9290599,103.27374
1.8551575,101.833336
1.9260416,103.80445
1.8410755,104.231026
1.8785459,101.04257
1.8339281,99.57949
1.8454444,101.77292
1.7745969,102.41392
1.7655171,100.69523
1.7434727,96.15633
1.6657283,99.166885
1.6961123,98.23434
1.6308316,99.212105
1.6952871,101.28269
1.564268,97.817276
1.5992004,100.06768
1.5406384,95.89351
1.5298861,94.17347
1.5007735,97.03485
1.439348,96.860405
1.4811381,95.527115
1.4395728,92.951645
1.5069518,86.60959
1.4747102,93.673805
1.4025363,94.08566
1.3970193,91.363144
1.4670714,92.16169
1.3984913,92.787315
1.3722987,89.643394
1.3819565,90.2925
1.4510318,89.7142
1.3958887,89.47421
1.3339499,89.14899
1.3623856,85.94211
1.2656156,83.02564
1.2040877,86.53009
1.2784916,85.665054
1.222097,83.969215
1.1310644,84.72866
1.1946188,84.25038
1.1320397,83.74983
1.0918473,83.238914
1.1047972,81.36227
1.0351312,83.27883
1.0251936,84.91572
0.93369746,80.3249
0.98354983,79.49924
0.9592848,79.82546
0.9036894,77.27245
0.83856064,79.8405
0.8298969,79.917274
0.8504807,78.15919
0.8519723,76.24685
0.8215612,74.13597
0.7723853,78.05968
0.8213252,74.292244
0.8456095,75.80069
0.788392,71.74982
0.7425128,74.5316
0.79726195,73.120926
0.73476714,76.58008
0.7814579,74.46471
0.7890707,76.467995
0.7642543,71.198296
0.79786867,70.45058
0.6264522,70.001144
0.6837568,67.09362
0.7430904,70.24973
0.6278745,70.76643
0.540295,70.04122
0.59130096,69.79678
0.5427725,72.27726
0.5822899,68.37476
0.40362588,70.16573
0.4500673,72.45096
0.45889556,73.42036
0.4127825,71.172646
0.35928327,70.2438
0.43200245,67.61583
0.2594479,73.45433
0.3004475,71.039116
0.28761694,69.93468
0.274469,72.49199
0.31612498,71.32137
0.30916244,76.27249
0.39130345,74.10765
0.40259403,73.54561
0.3761105,72.70397
0.4818943,75.61386
0.48508388,76.43179
0.49664846,78.209595
0.5747202,77.85838
0.7202915,80.651344
0.7001862,79.74343
0.7672315,82.33481
0.85686296,81.66567
0.95428586,81.1061
0.97609496,85.54537
1.0108137,84.25671
1.0803134,88.67521
1.1438069,89.26404
1.159557,88.50756
1.273685,88.06326
1.3456167,91.29806
1.3547137,90.84456
1.3901925,91.86167
1.5117093,91.92023
1.4858643,91.894424
1.5095416,95.39784
1.5141728,93.85686
1.5336714,97.66918
1.5166466,97.31655
1.6105155,97.312256
1.5578443,100.108734
1.6244159,95.10484
1.5642669,99.52333
1.5891962,96.401306
1.6191176,102.04257
1.5861638,103.0775
1.6164325,103.57554
1.5862266,102.25798
1.5763052,98.19042
1.6259342,103.15783
1.6103842,105.36667
1.5392926,98.750275
1.4967583,100.28347
1.4323673,103.4805
1.479624,100.68876
1.4569435,100.71674
1.3600882,102.44175
1.516223,97.83171
1.4544544,98.04016
1.2673641,100.05636
1.285369,101.33203
1.3636361,94.9731
1.2477317,102.10333
1.2341557,98.12614
1.2372794,97.51735
1.1762308,95.21372
1.1645654,99.383766
1.2317271,96.322365
1.1296525,95.62821
1.078044,95.490005
0.99789304,96.84809
1.1004095,95.1332
1.0316556,96.04453
1.1306114,92.77416
1.0210994,92.83971
1.0758355,94.71684
0.9819889,90.84125
1.0081176,94.00895
0.9576953,92.35199
0.9748851,91.22837
1.036739,90.3808
0.9612478,90.13534
1.0030104,86.964806
0.8481357,86.83356
1.006165,89.02872
0.92090577,88.61014
0.8967987,87.03487
0.8821445,84.956566
0.84814876,87.20878
0.809809,83.52325
0.7555095,85.56093
0.7301745,84.18333
0.75463825,84.508224
0.7411916,89.279465
0.7296352,83.501816
0.61110616,79.86704
0.54368955,84.258965
0.49433544,80.2045
0.41462544,81.61659
0.43330672,82.03047
0.5261909,79.50513
0.3755552,80.43325
0.43878633,76.48185
0.38092273,77.620445
0.39677715,75.5212
0.43615296,75.64168
0.34123942,77.83152
0.32843763,75.57438
0.30972308,77.64039
0.36155748,74.277565
0.37422186,76.0596
0.4777934,72.578636
0.37117425,73.20312
0.37005407,71.28734
0.38176122,73.10244
0.34038106,69.40747
0.37960985,74.2967
0.4046516,73.193245
0.24130826,71.22696
0.31142247,69.32156
0.22407387,72.65835
0.31945962,73.14351
0.1814192,71.97981
0.1262703,67.68339
0.10096949,70.80803
0.10335506,70.98721
0.10951214,74.84409
0.09511834,69.96357
0.037859447,72.50269
0.025367282,71.12912
0.07013907,73.474
0.017232101,71.86454
-0.04458178,74.88973
-0.11841002,74.462456
-0.14585233,72.382515
-0.016676823,74.139114
-0.062193584,71.88461
0.043819185,74.476494
-0.03980197,74.17046
0.100500934,77.81429
0.050950434,78.738266
0.16564354,76.368065
0.20303732,76.54679
0.16603869,79.09972
0.4071277,83.02202
0.4484219,84.90759
0.43393508,81.62138
0.5303844,81.23178
0.5891151,83.79762
0.7084392,87.05336
0.6986961,84.442184
0.7388758,88.708694
0.8723263,87.16342
1.0412482,92.97433
1.038451,92.1218
1.0517111,91.9884
1.1857808,94.40054
1.0928463,92.223366
1.1238841,98.56511
1.2057567,93.559044
1.200065,92.19921
1.2413436,95.64484
1.2480047,95.7182
1.2251682,93.642296
1.3639082,98.363785
1.2900581,97.393456
1.3203374,99.06049
1.3304296,97.67835
1.3810711,100.041565
1.400022,99.954704
1.3765451,98.441605
1.3592716,102.83405
1.3950733,100.14355
1.4103281,102.535355
1.3753561,101.59255
1.3853836,103.07043
1.3103349,104.11858
1.3787827,99.97532
1.3596286,103.22677
1.3231679,101.41332
1.287557,99.58722
1.2938182,101.04354
1.2641237,98.94381
1.3188848,103.32977
1.2800473,100.34959
1.2828015,100.99324
1.1475663,101.325165
1.1306239,101.106926
1.1437912,100.616554
1.1323487,101.388985
1.1497314,98.179756
1.0670528,95.18264
1.0593046,98.1443
0.99504405,93.91459
1.0954666,93.37362
1.0004175,94.835495
0.98560137,94.1525
0.9882818,97.2144
0.97684026,93.66042
1.044308,91.505806
0.9796998,94.49069
1.0441906,90.25063
0.9924265,90.53786
0.9423625,90.531555
1.0425432,92.17184
0.89985013,87.19186
0.9501261,89.00715
0.9403871,91.896
0.91966224,84.34406
0.8492678,88.83878
0.9227768,85.459435
0.8227291,87.93601
0.79727215,86.40515
0.8379159,85.93462
0.750276,83.498116
0.71235096,82.223366
0.79184085,86.24406
0.66743845,81.36865
0.83412564,83.444534
0.6594916,82.66734
0.60361373,87.21471
0.6283357,84.202415
0.61340046,80.07748
0.5169676,77.98856
0.4978678,78.26018
0.54924166,77.728035
0.5441119,80.05508
0.5001513,76.22861
0.58876723,76.56602
0.49981192,76.56043
0.49731195,77.17046
0.4625041,77.86639
0.49283242,72.85379
0.45426387,75.73907
0.3710417,78.230865
0.4124549,72.46868
0.49984998,77.17324
0.5373063,74.05563
0.4710916,71.68962
0.4897057,71.271904
0.47187567,70.96493
0.392739,73.03825
0.3947778,70.590324
0.38910148,69.55672
0.4560189,73.19664
0.44281435,69.92831
0.3669633,69.61489
0.48997602,70.93681
0.33113152,71.83569
0.24802488,70.901764
0.36503196,72.919685
0.27302235,70.66376
0.19364078,70.312225
0.27767044,71.038124
0.2607871,71.30343
0.15374297,67.70563
0.18543002,73.810844
0.16273554,76.376015
0.1783937,71.96513
0.2472483,69.83452
0.22436126,70.09597
0.18088439,74.42048
0.30347934,73.53808
0.32621604,73.91097
0.29658383,75.81439
0.29874724,75.11274
0.49183363,72.63173
0.52391887,75.52706
0.5635335,80.45854
0.61244553,79.00894
0.67852235,79.94699
0.74481463,82.3323
0.84460324,84.29191
0.9674472,83.32281
0.96130246,82.19519
1.0520567,82.26445
1.0189574,87.07078
1.1441607,85.87889
1.2263759,91.04036
1.3098848,92.98957
1.2996157,87.54366
1.4242383,91.62094
1.5014371,90.33024
1.5222343,90.93715
1.5738902,95.1021
1.5338478,92.82109
1.6508039,94.37508
1.6048617,95.29919
1.6389477,100.73953
1.6375959,100.32875
1.7312962,97.371346
1.7188804,101.75904
1.63899,97.71458
1.7681882,101.00832
1.762775,99.008934
1.8463455,100.65697
1.7696553,100.25206
1.8628373,97.08947
1.7878655,99.0377
1.6672064,105.481224
1.6753829,105.29763
1.693164,96.135864
1.6760342,101.09312
1.5710695,102.27693
1.6778315,100.61059
1.6091678,100.9497
1.6967163,101.813385
1.623246,103.35052
1.6601988,96.43641
1.6233226,100.41466
1.6233027,98.69093
1.5726877,98.949295
1.5444221,100.39878
1.5582633,96.68998
1.5321368,98.797005
1.4755332,98.17507
1.5751151,96.56765
1.5038296,95.14457
1.3897277,96.13032
1.4270676,95.756454
1.428754,95.11216
1.3629802,95.80235
1.3824478,92.38714
1.3877717,96.428085
1.3868717,96.2553
1.3811784,93.7427
1.3969368,92.99025
1.3407813,92.19434
1.3190441,90.915306
1.3390046,90.5361
1.3731208,83.47724
1.3367715,85.320885
1.351317,90.253586
1.2080071,88.09296
1.2928071,86.75628
1.2982653,87.290985
1.2960211,89.01365
1.2238898,88.87561
1.1782253,84.46716
1.1319215,85.68689
1.2103372,86.41465
1.1664504,85.12408
1.1552652,80.6591
1.1269865,80.06046
1.0895549,83.79308
1.0355843,84.90589
1.0998019,78.88428
1.0233645,79.67386
1.0592567,80.27251
1.0027784,81.1313
0.8931166,79.83095
0.8863588,80.71651
0.8728849,74.598854
0.9899358,78.79648
0.9024618,75.36443
0.8549092,77.252655
0.87047243,79.88911
0.82263553,76.990005
0.8896625,73.048515
0.872941,73.79478
0.8912688,76.511795
0.8542026,76.30677
0.86678654,72.15104
0.8710984,71.73017
0.86688876,69.12834
0.89438456,69.158485
0.7768639,68.83391
0.848096,72.19443
0.8536796,70.7672
0.796608,71.708336
0.8552136,66.419586
0.7821541,74.16179
0.7443089,72.150375
0.6591015,69.17816
0.7335791,69.12968
0.7198594,72.50501
0.6617138,70.3039
0.67024934,72.959274
0.627644,71.28357
0.5195885,68.16707
0.5951029,75.37477
0.5336087,73.0421
0.519701,74.066574
0.5494632,71.615585
0.5365385,74.113884
0.56252015,74.560196
0.6125945,73.488594
0.63108146,74.71117
0.6388791,74.954834
0.6768067,76.05933
0.67713064,76.03471
0.80438894,75.60666
0.83902156,74.563614
0.88640946,81.57088
0.9017426,81.698204
0.97472495,81.54077
1.1379638,80.67984
1.1451323,84.76248
1.077487,82.73574
1.3345257,85.298035
1.4047394,85.12218
1.4499376,85.3276
1.524258,85.471054
1.5736305,87.724815
1.6058235,88.411674
1.6858338,94.53009
1.6704895,94.09564
1.7065992,93.63097
1.854339,92.16513
1.8336103,97.34897
1.7851913,96.138916
1.9247004,92.73193
1.8292284,95.034424
1.9743421,99.15757
1.9646295,99.648094
1.9403747,96.8831
1.8432223,100.69147
1.9415687,100.72591
2.0318835,100.15165
1.9745743,101.47935
2.0215352,101.601974
1.9716251,105.29512
1.9385183,96.71954
1.9141862,102.77368
1.954204,102.096565
1.8288276,102.42732
1.9798356,97.40934
1.9195192,100.65387
1.9020267,101.37108
1.8676822,101.88822
1.8700256,101.542274
1.866281,101.47963
1.746651,97.69965
1.7691852,102.02348
1.7917441,97.42204
1.7189006,102.67383
1.8143615,99.02011
1.7083212,102.884834
1.6995077,97.300804
1.6495588,99.55945
1.7061423,101.062004
1.5728552,97.287254
1.5638541,98.51276
1.5689899,97.55629
1.5430237,95.26884
1.5435202,97.87946
1.5473508,97.14664
1.5121428,94.698166
1.4038672,94.38452
1.4664305,93.85064
1.4747778,95.779366
1.4289945,90.11464
1.4683703,93.31665
1.4389572,91.76451
1.3992807,86.720604
1.3854501,88.09362
1.4422805,90.03309
1.3415277,85.9693
1.2919014,86.973045
1.3397735,86.97865
1.377721,85.92752
1.390142,90.53935
1.3345814,86.15374
1.2110124,87.46358
1.2105432,82.2563
1.2098801,85.83974
1.276274,84.36228
1.1556306,84.809296
1.0932422,84.21334
1.0691993,83.71701
1.0145901,84.49415
1.0438957,82.7168
1.0357596,78.03018
0.9486222,78.11903
0.9114849,79.14014
0.87888896,83.14916
0.81932867,78.4985
0.8868907,78.076675
0.89273524,77.87934
0.8598523,75.99504
0.81285936,76.93663
0.8309059,74.24879
0.7965014,75.86507
0.77238786,76.432976
0.7137857,76.323555
0.72855383,71.149536
0.7731574,73.042625
0.8135238,71.77491
0.7764419,75.858345
0.7941943,71.14223
0.7677488,72.67053
0.71957207,72.26635
0.72635615,71.632385
0.6959231,73.82629
0.5615143,73.07099
0.5856279,67.85212
0.6796026,68.831406
0.59505945,69.83131
0.55631083,69.3739
0.53894913,68.31942
0.5050391,72.84438
0.42106014,71.01118
0.39118296,72.25676
0.40114096,70.89656
0.34357324,68.29098
0.380027,70.91444
0.3110049,71.63513
0.28354028,68.489334
0.3215829,74.29026
0.26465622,72.92014
0.32965338,77.84344
0.33266413,75.19726
0.31828016,71.826775
0.45710337,77.69961
0.35237554,74.20185
0.39633423,76.971214
0.4841223,74.576485
0.5287337,80.04601
0.7089662,79.31058
0.7195673,81.23113
0.6539781,78.38487
0.76001984,85.12451
0.89581984,79.35236
0.94045234,84.992874
0.9808826,87.311386
1.1103448,86.721695
1.137339,87.69446
1.2337087,83.80918
1.0989994,87.602
1.288781,91.66563
1.3020498,90.97852
1.4148104,90.57114
1.4454203,94.49506
1.5081193,92.437126
1.4564824,93.178696
1.4887985,92.4349
1.3763939,97.4359
1.4774063,101.298035
1.5249332,98.2881
1.5386622,99.539764
1.6110417,97.59494
1.554469,100.68258
1.6347313,102.93324
1.5351579,99.73304
1.5778879,100.90016
1.6352143,100.05113
1.5853151,103.030594
1.5716116,101.81781
1.591576,100.591064
1.5426466,96.795906
1.6397674,107.424385
1.5229477,103.3826
1.4960959,102.78848
1.5284464,104.77973
1.4399524,101.33699
1.4521585,101.89404
1.3744004,98.10479
1.4430516,102.64791
1.3810883,102.15978
1.349539,104.27191
1.3069862,97.61755
1.3820038,98.39402
1.2253999,97.39948
1.3015348,96.91978
1.1938341,96.30517
1.1958573,96.98269
1.1604458,98.46965
1.1306567,95.44542
1.1666375,94.913635
1.126929,90.81169
1.1293931,96.59424
1.0489771,91.98081
1.1506281,96.04814
1.0667293,92.449974
1.0413245,92.93035
1.0787408,91.029045
0.92481154,94.26596
1.0476468,91.784546
1.0698184,88.51402
1.064614,89.08766
0.98515004,89.58193
0.9795383,87.88277
0.9793544,89.19487
0.91984737,86.03389
0.9448624,87.90005
0.8954988,89.13603
0.83253825,84.45406
0.85612965,90.98655
0.76165575,85.04078
0.82676893,83.989655
0.8427599,84.20029
0.6861574,84.795525
0.780417,84.5506
0.60107046,78.836716
0.6947667,79.744415
0.5933812,81.86308
0.56094193,78.22036
0.56270784,79.8317
0.50200915,80.33019
0.46974513,83.95051
0.43738243,80.59297
0.44201687,80.551094
0.37337175,74.22427
0.3871945,79.378784
0.35655507,77.11598
0.31217992,75.52536
0.30952364,75.78321
0.39235067,73.07844
0.4263067,74.71805
0.4273686,74.66901
0.33877575,76.457146
0.3469447,74.554535
0.32614368,71.48921
0.34424022,70.368095
0.30679658,73.3944
0.3500957,68.601524
0.35990813,71.63777
0.32158598,71.13153
0.30670848,69.71899
0.2429854,69.861946
0.25550026,69.66065
0.18744513,71.12062
0.20386553,68.86133
0.22764653,70.03597
0.104356356,68.329926
0.13244118,68.69606
0.06452941,70.20032
0.0841963,71.81903
0.04394816,71.14271
-0.0110225575,72.72779
-0.095082626,75.805176
-0.05173869,67.90517
-0.058017172,74.12297
-0.08512011,73.39129
-0.012565938,74.69943
0.013345306,71.32862
-0.042218193,76.0721
0.007067913,76.78662
-0.021796418,75.20002
-0.0023131475,76.25031
0.22555514,75.665146
0.16698305,78.26847
0.25497702,75.35895
0.28942305,79.19787
0.29616028,78.02196
0.4476522,80.05473
0.510577,81.35938
0.5145281,85.452675
0.6690795,81.72287
0.63999575,87.07871
0.77307194,83.55812
0.8733042,90.16882
0.81723434,84.32849
0.89851785,88.36592
1.04654,89.62982
1.0403683,94.893295
1.0437434,91.34005
1.1185967,94.9718
1.1801983,94.02926
1.189592,95.205925
1.2321981,99.52807
1.2222748,95.98398
1.2923212,99.84396
1.3316716,97.38634
1.2706399,97.41686
1.3245769,97.54319
1.3277527,97.81203
1.3803922,99.44605
1.3514435,98.296326
1.318963,98.65696
1.4107987,100.4281
1.3645381,98.572365
1.393935,100.16284
1.3310596,95.80248
1.3276887,101.773026
1.4153649,105.03929
1.3886915,101.436874
1.2979634,100.322845
1.3302895,100.00189
1.2994835,101.39884
1.2687296,99.87373
1.2457603,101.15319
1.2321955,102.911354
1.1599216,98.96592
1.2684306,96.75029
1.2997117,100.62196
1.2611489,98.493645
1.1019953,102.2924
1.2144234,101.930405
1.091907,97.44107
1.1129003,99.56255
1.110952,98.79435
1.0305711,94.85682
1.0139809,92.38459
1.0224643,98.32747
0.988751,100.442184
0.9591805,93.85893
0.9986374,96.38429
0.97287047,95.283455
1.0359354,92.01846
1.08025,95.94998
0.9735555,91.94343
0.98303163,92.208084
0.9380561,93.55644
0.9187393,95.55904
0.9429659,93.444214
0.931018,86.16157
0.91803616,89.067635
0.9166326,92.92485
0.92437905,84.1041
0.8759567,84.90986
0.8503841,86.69053
0.88221425,84.47019
0.84020853,87.36665
0.8098791,89.12624
0.77066106,83.52803
0.75752836,85.61056
0.64763397,89.168175
0.7270424,79.39263
0.64609754,82.096825
0.61570495,84.70815
0.53064275,81.98853
0.6019733,81.464806
0.5748845,82.30397
0.5321138,78.34356
0.5095708,79.2738
0.57415074,76.73327
0.49757156,76.68793
0.45513904,78.63486
0.49500856,76.270546
0.47516933,74.251625
0.41281593,76.516525
0.5031312,76.42837
0.5167374,78.23264
0.42188814,76.004364
0.5155805,74.41734
0.51242596,76.103096
0.46025482,74.174904
0.5162739,72.41045
0.582644,70.46011
0.46092415,72.905945
0.4346772,73.87018
0.5224923,70.50583
0.43632975,74.18429
0.4882981,73.712494
0.4012114,72.07054
0.40232733,69.88587
0.34492135,72.979065
0.32422617,73.55035
0.24700774,69.766
0.364453,69.260864
0.35745305,67.48534
0.23996025,67.55476
0.20796904,73.01664
0.19000791,73.14806
0.19395725,75.665634
0.20647383,71.46195
0.1390909,71.757744
0.18648024,70.45174
0.24914704,73.43683
0.19900939,72.239876
0.14913265,74.1817
0.26215732,76.876015
0.3308798,79.12089
0.24901147,74.7195
0.4255311,76.81291
0.44209087,75.2555
0.49727014,79.71458
0.61763704,83.683784
0.5630331,81.05409
0.7232874,84.84214
0.6901725,82.10765
0.8381747,80.68753
0.88705903,81.52162
1.0165122,84.36622
1.0393091,85.69075
1.1704519,85.68125
1.16643,87.98463
1.2172427,90.2346
1.2461832,88.90894
1.3059057,92.58223
1.4791493,91.04104
1.4119998,90.695015
1.5206732,96.982666
1.4880097,96.74329
1.4967926,92.68934
1.5064417,95.630196
1.61191,93.98468
1.6147097,95.9172
1.7056952,100.68234
1.733935,99.18264
1.7420529,100.24767
1.6749517,104.51535
1.7916617,97.991684
1.6983387,103.80102
1.7114764,99.17283
1.7535564,102.78726
1.7820678,99.28352
1.7049307,102.587875
1.7497399,97.70588
1.7452173,97.590454
1.7403073,100.14571
1.6930146,102.18265
1.7223669,98.33141
1.8025875,106.92099
1.643103,99.409874
1.6935666,101.042595
1.7226071,97.615395
1.576123,98.77139
1.58115,99.802956
1.6541581,102.98221
1.5989796,103.36434
1.5877693,99.60795
1.4772937,100.27203
1.4512169,100.35442
1.5016145,99.15697
1.5794325,94.90185
1.4219354,95.33014
1.4328762,96.45497
1.3281468,99.10378
1.3955709,92.91497
1.4562666,98.01978
1.3714229,92.26924
1.4062225,92.70438
1.4275247,97.87092
1.4105083,93.792854
1.3563412,91.120186
1.416859,95.55226
1.454775,90.598404
1.4039836,90.67493
1.4771153,87.45939
1.4356265,91.935104
1.3404405,88.694466
1.3461622,89.58789
1.2771794,89.54496
1.3592865,84.08148
1.2606918,87.9179
1.2380449,86.63384
1.2250633,86.48354
1.2310351,85.17813
1.1723813,84.34468
1.1495831,84.777916
1.1570394,85.19418
1.1084125,80.23962
1.1025921,78.74628
1.0389692,81.621544
0.9929462,84.84477
1.0142103,78.634
1.0273762,80.42741
0.9849773,84.51146
0.89502394,82.06128
0.9537213,77.86745
0.9293562,77.079544
0.98170966,79.337524
0.9678553,76.20278
0.9942054,72.96837
0.87820375,76.92638
0.9335191,72.63628
0.9081475,74.9456
0.8782717,72.47648
0.97578925,75.82581
0.89117986,72.55524
0.8860709,71.96396
0.8757097,69.9015
0.9203894,71.43216
0.9004685,72.26364
0.89513475,72.70078
0.84438103,71.21179
0.864607,70.87524
0.85433143,72.025734
0.7927628,67.89941
0.7917896,67.50478
0.7490808,69.14213
0.7313098,70.848625
0.70589834,72.14467
0.61796176,70.35695
0.5878612,73.00319
0.6279308,73.162315
0.6103229,68.64203
0.5074307,70.807655
0.5375381,69.683426
0.63934624,69.45847
0.5306161,70.754944
0.57447225,73.23315
0.5447201,74.178986
0.56855506,75.40744
0.53454447,76.86598
0.553015,76.00511
0.64107114,77.535065
0.6528139,76.75617
0.8310409,78.278786
0.74092495,78.97144
0.75982875,76.43674
0.88582903,80.685616
0.9366313,81.377304
1.0568254,79.769035
1.0911233,79.28042
1.10379,82.38841
1.2839049,86.27625
1.2642243,83.9203
1.3684795,87.46337
1.3834742,89.57708
1.4859135,86.864944
1.6128262,91.48762
1.5622398,88.59584
1.6701181,95.87202
1.6225293,91.837456
1.7239197,89.02382
1.8027295,92.71944
1.8251816,92.7084
1.8242756,95.800385
1.8695294,96.27803
1.9277997,89.75781
1.8118695,99.70402
1.9675653,96.92844
1.8438934,96.510185
1.895816,99.48164
1.9991664,99.03712
1.9589164,100.2597
2.0056834,97.3162
1.9793873,101.751305
1.9634467,102.96824
1.9088112,99.500496
1.8638546,100.2859
1.9582567,100.161545
1.9817669,101.00683
1.8873353,105.06016
1.8571572,101.96252
1.9234582,101.195175
1.8766887,100.79355
1.7882316,99.404816
1.7560095,100.19312
1.7588977,99.165016
1.7957028,101.70875
1.7264485,102.20675
1.7259539,100.46953
1.6467493,97.24699
1.6158874,99.93346
1.6762662,96.64094
1.6465245,100.205536
1.5732545,94.46774
1.5356829,97.216484
1.554736,98.999596
1.5256106,98.22517
1.4879894,97.99663
1.5200346,97.800354
1.5637808,96.69764
1.4498798,94.47984
1.4731579,96.61086
1.4064475,95.25287
1.4862076,88.593506
1.5062753,91.39927
1.3996451,89.65134
1.4842396,92.52448
1.3344544,86.31869
1.4067814,91.265625
1.4721154,89.08805
1.393836,87.54313
1.3423043,91.82775
1.3974634,88.84547
1.3199667,89.51183
1.2786843,85.96557
1.2199647,82.98263
1.3136593,87.48447
1.2232274,82.83653
1.1663386,82.48643
1.1615177,82.10601
1.0528929,82.83712
1.0017363,77.05902
1.0019437,83.81295
1.0950006,80.34423
0.9195141,80.32326
1.0416281,84.20769
1.0088146,79.303085
0.8378104,79.816376
0.8496792,76.18526
0.9396663,77.37598
0.7977601,75.583015
0.75187176,77.38041
0.75473726,80.65009
0.7778665,76.515564
0.84870493,76.65438
0.81545734,76.05422
0.82878554,76.134026
0.8182065,76.439415
0.7822273,74.40195
0.7144382,73.44302
0.8207691,73.0001
0.7880525,73.29553
0.733713,72.52562
0.69270617,69.37631
0.7257616,70.903244
0.72729003,70.86529
0.7661158,69.18134
0.5934598,73.431305
0.59997004,70.27336
0.54942,73.09589
0.5650465,70.29679
0.58683467,70.99563
0.50892454,72.38463
0.4293587,70.74057
0.34993893,68.37273
0.44266847,73.34684
0.4120771,69.68697
0.41780242,73.023796
0.3162228,71.66077
0.3519985,73.02909
0.35472772,69.32728
0.3844341,70.86596
0.2640803,73.34235
0.2851532,72.94275
0.2749718,75.04809
0.41054276,75.34521
0.37645128,75.00537
0.30600792,79.4087
0.47811827,80.31117
0.52934855,80.22453
0.5462787,79.11111
0.58818704,79.55131
0.75120306,78.69509
0.7016302,82.92999
0.67916316,82.18956
0.87587994,85.58919
0.91194,86.06806
1.0442735,85.34957
1.0880924,82.15416
1.0715821,85.6064
1.1536359,85.81119
1.2193938,89.76586
1.334749,90.26304
1.3223482,90.14731
1.3064197,93.34725
1.4564558,93.547585
1.4351209,91.867355
1.4363973,94.901825
1.5131991,94.45224
1.556012,100.11517
1.5086468,98.88166
1.575277,98.70118
1.5767612,93.97765
1.5265003,98.00211
1.5954397,102.30533
1.6150658,96.05115
1.592917,99.612045
1.5866812,98.208885
1.5617881,100.12585
1.560464,103.822205
1.5291452,99.69445
1.5244687,102.08342
1.5442446,100.32298
1.5671037,102.38434
1.4688818,103.49691
1.4991941,102.036896
1.4801282,102.44206
1.4787014,99.809906
1.4052491,100.53541
1.4339116,104.5966
1.4472162,97.35028
1.3661078,101.928635
1.2766066,99.361015
1.2413448,97.79699
1.2647047,95.45701
1.1789206,92.510284
1.231075,96.3279
1.246705,95.384476
1.2788591,101.2022
1.1416502,94.6811
1.0517086,96.076515
1.1026353,94.116394
1.108063,92.01728
1.1247034,89.323494
1.0842525,92.41613
1.1076516,96.68819
1.0878175,91.478264
1.0353317,92.64068
0.9759039,93.40092
1.0391856,91.65347
0.98913515,93.04442
1.0850664,93.87455
1.0226147,86.57541
0.9088306,90.1985
0.9653533,88.07724
1.0239611,86.79734
1.032431,87.35974
0.9633731,90.62905
0.96029717,89.61462
0.8045848,87.69941
0.88551,85.16369
0.8184349,87.25035
0.72939944,85.728386
0.7120261,83.926155
0.73520017,84.22241
0.7233985,84.52007
0.6302881,80.88052
0.6802812,82.42154
0.59724975,80.91329
0.5764928,81.829956
0.59539384,82.28057
0.5372618,83.24626
0.5263643,81.89774
0.4653086,77.54636
0.3944341,79.45498
0.37126508,78.562225
0.3605198,74.886955
0.34619728,78.724396
0.40852314,77.61879
0.3585592,78.356735
0.3864742,77.05247
0.31573284,76.55362
0.33106923,78.390755
0.44622773,77.77638
0.44209263,69.944435
0.41901463,73.31314
0.3419112,70.33498
0.3099761,69.86003
0.32379597,69.09564
0.3245332,73.17487
0.28015274,68.914246
0.2508659,71.48468
0.24657798,67.371605
0.21490002,69.77439
0.2899875,69.29129
0.20083056,68.59467
0.1456638,70.64567
0.033646684,72.00027
0.11946636,70.87466
0.085922636,71.45422
0.0833239,68.73526
0.009505634,74.181046
0.042726286,69.60757
-0.1448119,73.72791
0.008501893,74.74491
-0.060085177,70.37592
-0.068035774,72.28798
-0.009810792,77.56799
-0.023569945,71.47144
0.07499226,69.93592
-0.018388577,72.26596
-0.001950191,73.83253
0.009073536,73.754395
0.065142855,74.55839
0.18703665,74.13266
0.2041466,78.06358
0.2829993,76.60183
0.3441469,79.14523
0.40018928,81.48062
0.47897306,81.64219
0.4842418,81.30817
0.6422825,81.46116
0.6711626,86.2621
0.73907065,86.891136
0.8039879,87.47706
0.9173285,87.00894
0.9298114,92.26495
0.9181587,88.62867
1.0075017,88.98715
1.1106256,94.207214
1.1041858,95.38978
1.2228047,88.78253
1.1915175,95.13991
1.2795564,93.98495
1.2974895,96.9137
1.2791729,97.32002
1.2899563,94.1315
1.2839912,98.30318
1.3987957,101.042274
1.4991537,99.44875
1.3950753,100.71109
1.3480775,104.282585
1.3717375,99.72072
1.3767685,105.61647
1.3565066,97.36909
1.3993149,102.49096
1.3587852,101.226944
1.3916266,98.43801
1.3791074,97.9303
1.3884689,101.21107
1.3895632,102.21154
1.2173504,101.02516
1.3348581,99.25
1.2891803,102.18788
1.2178193,104.155396
1.3401875,101.11648
1.1859004,103.274704
1.2652978,98.80991
1.2164903,99.279396
1.2259029,101.66138
1.1611571,98.35949
1.0934371,98.2214
1.1540722,101.84672
1.1922802,99.55408
1.1325873,98.30084
0.97884876,96.667435
1.1254795,96.21704
1.086704,95.78643
1.0438696,95.94708
0.9620932,93.459526
1.0514733,96.62536
0.92154384,90.099
1.050037,90.25196
0.9647955,92.84634
0.9413982,90.410774
0.9809946,87.58346
0.89525783,93.09446
0.91815794,88.42964
0.9563731,91.69452
0.9384463,88.71998
0.89667046,88.848
0.9639022,88.35476
0.961534,86.78591
0.76493233,88.15419
0.9069959,85.866035
0.9139899,84.95814
0.84817225,84.22843
0.795602,85.24282
0.69540995,86.948875
0.7593889,84.947815
0.75647837,83.169556
0.6820463,83.12368
0.7118646,83.99285
0.6838519,79.601265
0.55894494,81.59135
0.6886783,81.494576
0.55581576,79.57967
0.6354149,80.27088
0.62239444,80.38169
0.5611471,79.29965
0.54321754,74.547676
0.47086102,81.48853
0.46951607,78.16102
0.4988021,81.707214
0.4106023,75.88733
0.522767,74.47616
0.54022515,75.52535
0.49974412,72.684814
0.4812556,72.939156
0.46048757,75.732635
0.4934941,74.45663
0.444016,74.76049
0.46473575,74.50961
0.47546592,70.270424
0.374468,74.88206
0.477397,71.229454
0.4309554,71.1294
0.4199504,70.02512
0.33853078,73.05685
0.39832127,71.259254
0.3523016,72.26303
0.33319667,68.724106
0.36779597,70.582115
0.4007333,71.22205
0.35814166,69.132385
0.20931081,69.864426
0.22648618,68.473915
0.20430589,71.87271
0.14223537,71.09171
0.1891302,71.303635
0.21496445,70.71001
0.14235915,72.18156
0.24576087,72.9004
0.23982538,73.86284
0.191119,75.891785
0.24503437,74.06257
0.32749096,76.48268
0.34962082,76.62585
0.47502604,79.92242
0.38845712,78.14975
0.4785187,81.49846
0.5139794,79.45569
0.7050205,80.010704
0.7668408,81.982285
0.76918936,86.14044
0.79842097,84.01808
0.9298024,83.36139
0.9927649,84.70958
1.1132962,87.944466
1.0937774,88.8506
1.1134793,88.40692
1.2840589,89.57125
1.2082456,92.14085
1.3923726,91.329384
1.4072906,90.48749
1.4416821,93.36017
1.4169018,92.3848
1.5729958,92.08737
1.6014824,97.62857
1.6021267,95.0097
1.684795,96.058655
1.6258806,98.24185
1.7008963,95.20598
1.680652,100.734825
1.7352021,100.5994
1.7534306,97.03675
1.751319,100.8499
1.8460287,97.57879
1.7154043,99.7619
1.7297114,99.68259
1.76562,98.6708
1.7367543,103.179375
1.7474905,101.99958
1.6895576,102.47164
1.7459697,103.9483
1.6579776,106.99117
1.6659539,101.56811
1.6918097,101.752014
1.636477,104.018845
1.6413376,102.781136
1.6215221,102.68325
1.647257,100.12583
1.5875874,97.77486
1.6248325,100.88973
1.5087888,100.59352
1.5996313,96.10184
1.5723798,99.9535
1.3885583,99.32987
1.3896787,100.609276
1.4626735,96.53064
1.4641919,95.22843
1.4374874,93.912125
1.4260551,95.91092
1.4020386,96.767395
1.4272635,93.36216
1.3791215,93.680374
1.4181447,92.87718
1.425519,90.70983
1.4317689,93.355034
1.3484685,95.68822
1.4164016,93.734886
1.3032709,95.209755
1.3117225,90.59608
1.4097247,92.16302
1.3413068,89.111946
1.4027889,85.681595
1.344088,90.253746
1.350268,86.502716
1.2625319,86.77347
1.2964026,83.44958
1.2942452,84.60514
1.2554288,86.17542
1.1888041,84.63537
1.1699994,82.683365
1.2329773,85.029686
1.1715649,86.23735
1.1150918,80.87787
1.130501,79.73308
1.0493374,83.54345
1.0768355,82.30075
1.0798,79.627556
0.9500432,82.66772
0.91819406,80.02642
0.88611656,77.653076
0.9423934,78.32347
0.9630906,77.70591
0.88902956,81.766594
0.8210774,79.21291
0.8332419,74.39792
0.8661583,77.637764
0.8596817,75.82514
0.92371726,78.64887
0.8779526,74.19756
0.8808677,76.09534
0.8565949,69.62145
0.9707393,72.93783
0.93251795,69.12793
0.90074235,70.72592
0.8443003,72.0567
0.87383586,72.852425
0.8897048,70.536575
0.88289315,69.541664
0.79995185,70.98013
0.77987313,73.49009
0.7916117,70.27367
0.8277123,66.44506
0.76796263,71.07164
0.7363926,68.20114
0.610801,71.32458
0.6601974,71.154594
0.63900477,69.11749
0.67198193,71.95264
0.58273005,68.31773
0.59454787,74.28445
0.58227605,73.82833
0.60572934,70.47684
0.48891494,69.45844
0.54394156,74.5681
0.51147425,75.49786
0.58705956,74.37068
0.6348227,77.80236
0.5826632,75.220276
0.6316764,75.45446
0.705247,76.1163
0.7007757,77.20391
0.8531374,79.81321
0.85813564,75.94138
0.95934576,83.55246
0.9727497,83.41691
1.0510474,82.61529
1.1965667,83.83395
1.2701926,84.67936
1.2599864,86.133385
1.3476983,89.03349
1.4733365,86.927666
1.4380116,85.9039
1.5166239,85.5449
1.6202691,91.651474
1.5895262,90.33966
1.6438513,91.53302
1.68597,90.81155
1.6933731,93.77651
1.8382397,93.93704
1.9016471,95.39556
1.8889489,97.33331
1.8349905,97.41105
1.9133874,96.89642
1.9482645,99.892876
1.9861574,98.469986
1.8521255,100.61964
1.9426426,100.70256
1.9493134,105.31325
1.9284438,98.89606
1.9271092,104.08476
1.8698542,101.31373
1.9355594,98.95853
1.9464529,102.26308
1.8722413,99.48606
1.9041772,99.773575
1.994608,99.57013
1.8926412,101.98366
1.8069444,101.09471
1.9420027,98.52959
1.8211432,99.17852
1.8687773,102.52107
1.7405428,98.80708
1.8256285,98.231995
1.7433726,103.65847
1.7856084,99.73815
1.708381,98.73164
1.7185149,98.9528
1.7174965,99.021774
1.6327617,99.45808
1.7204714,98.69193
1.6083819,100.35009
1.5755848,97.58329
1.5927761,98.8346
1.5394616,97.70974
1.4838232,96.21503
1.4527438,93.51365
1.4889041,96.369064
1.4905636,96.35969
1.4919732,93.41232
1.4733387,91.530075
1.4477453,95.724945
1.4856472,90.53633
1.4414182,93.09215
1.467126,94.65339
1.3557855,85.01232
1.3968327,90.59128
1.4616402,89.539116
1.3737987,91.57229
1.338225,87.215515
1.3598038,85.05764
1.3029041,85.8318
1.2689625,88.65767
1.2927916,86.13641
1.2022501,85.307076
1.1910317,84.90746
1.1509346,85.886894
1.0886017,82.10728
1.0459585,86.87103
0.9843882,82.48585
0.93833137,82.67517
1.0003132,81.31459
0.9351314,80.16623
0.9455704,83.02914
0.89945966,78.797035
0.9405892,79.39556
0.9321228,78.51159
0.9035145,76.84107
0.74773854,72.77303
0.7941905,76.94021
0.7718929,78.57502
0.7627129,78.46438
0.7258748,76.35714
0.79832,74.206856
0.807086,74.77708
0.7952926,73.97463
0.75266457,75.25315
0.71753716,71.84532
0.8266131,73.21779
0.7649632,73.390366
0.66985655,72.21747
0.7661851,71.92401
0.68867236,69.40982
0.6723154,74.2354
0.64282024,72.03105
0.66046476,68.15443
0.5757343,72.90348
0.5911406,71.71567
0.47279665,70.44471
0.5268865,71.39945
0.4960465,72.43989
0.43741485,67.114296
0.48083058,69.7324
0.40431476,68.50311
0.39053294,71.230835
0.3704887,73.441284
0.31976557,68.50462
0.394348,71.45987
0.36520216,69.93753
0.3507488,71.58826
0.29882568,73.19454
0.2650329,71.4716
0.36677986,71.97883
0.40938383,78.20628
0.47071144,74.50069
0.4963235,77.90579
0.46243066,75.71546
0.4899769,77.65522
0.53899455,79.19225
0.71493345,85.666046
0.6723665,81.56714
0.769865,79.08757
0.8859929,82.9597
0.9999726,89.67332
0.9418556,82.236664
1.0793484,87.737434
1.1376879,85.09644
1.2046537,87.74004
1.2201791,84.45236
1.217389,90.25442
1.3479205,87.32475
1.408071,89.573425
1.496991,91.63539
1.3831035,92.514404
1.4756342,93.661354
1.4780526,98.63885
1.5249677,94.34982
1.564522,95.25777
1.5215207,97.17092
1.5724133,100.42531
1.4729073,97.84055
1.5744412,97.69061
1.6181107,99.22075
1.6796985,95.53775
1.5600164,102.67142
1.5209246,101.30596
1.5951873,101.36633
1.5876851,103.69182
1.515884,99.72638
1.5373105,102.89638
1.5031877,101.297485
1.543176,103.63329
1.533226,100.8528
1.5253505,104.219986
1.4737314,99.27421
1.4578186,101.632484
1.4109825,98.95077
1.4466267,99.68808
1.3760192,99.890236
1.3716905,100.578735
1.3126311,101.35629
1.3146791,101.45469
1.2664071,99.34832
1.22095,97.37233
1.3238101,95.901276
1.159725,97.374374
1.1987749,98.62777
1.1069071,96.10576
1.1367348,95.94109
1.1562271,96.2446
1.1262501,93.29065
1.0617542,93.83016
1.052299,94.04895
1.0509955,91.97874
1.030347,95.688354
1.0266099,97.035225
1.0321589,92.477554
1.0299947,92.08658
1.0168653,93.1844
1.0169058,90.29171
1.0799981,89.720856
0.94297063,89.60542
1.0066108,85.07483
0.94183534,85.01515
0.9690124,83.204346
0.95592946,88.37616
0.826174,89.96758
0.8520644,85.39602
0.7636998,82.37116
0.86541736,83.225075
0.74826664,81.08759
0.6618235,84.13305
0.6340798,81.11685
0.6465642,83.246155
0.57211006,85.48585
0.6007979,81.60381
0.61478156,80.30146
0.55547863,79.93991
0.48777208,80.96539
0.44207546,77.23963
0.39051384,79.141975
0.4245114,81.46061
0.46670884,78.557045
0.47721192,78.11711
0.3550141,78.60878
0.38131106,76.82673
0.41351688,73.644066
0.36322257,72.280846
0.35888064,74.25286
0.32897285,73.69148
0.34116584,74.912994
0.42844063,70.680275
0.3982229,74.07726
0.3006704,71.61239
0.29410946,73.76623
0.2707983,72.43809
0.3628658,70.97895
0.2883403,75.35847
0.32998574,66.612495
0.27496442,73.23426
0.26373935,69.52598
0.2261364,68.11378
0.25233218,70.379616
0.084594116,73.649284
0.20832002,69.97584
0.09170204,71.467255
0.05624913,71.756195
0.04942095,70.247475
0.04090066,68.99936
0.03507583,67.9102
-0.058404833,71.78018
0.03698756,70.13564
0.03514829,74.04728
-0.00892188,72.33956
-0.041350074,79.16931
0.033626653,72.30804
-0.060907647,76.91202
0.0499883,73.26292
0.09207173,74.651436
0.018036878,77.7393
0.09839966,74.87113
0.1900238,80.67107
0.11059562,77.76129
0.23877893,78.124306
0.24925421,81.50434
0.35342506,81.34754
0.5877633,81.296
0.6220849,82.66545
0.6420561,84.55985
0.7217004,86.11518
0.73763466,87.940155
0.7503479,84.18715
0.88396657,89.66853
0.8938035,91.0474
1.0005087,89.059975
0.9761107,89.80703
1.1058435,89.32776
1.1554047,94.66212
1.1997586,94.71469
1.1498132,90.16613
1.2909034,97.43509
1.384895,97.386765
1.3250846,96.438354
1.2730947,97.85447
1.3525261,94.81245
1.298924,98.71657
1.366762,98.870636
1.4043663,95.64317
1.3611488,99.12354
1.3705878,98.73328
1.3742572,96.93465
1.3698192,98.96149
1.4089081,100.00476
1.407188,102.30928
1.3530264,101.73373
1.3666294,102.70305
1.3444332,103.66608
1.3138099,100.723946
1.2892561,100.7266
1.2834914,103.01324
1.2291176,102.52928
1.3420792,98.69337
1.2804264,101.44927
1.2572061,99.9956
1.2740502,100.74914
1.2126876,102.82473
1.1458914,100.067825
1.2791579,99.693794
1.0831571,98.34514
1.0734487,100.24541
1.040246,98.97451
0.9912831,98.41999
1.0318943,97.40783
1.0285445,98.013145
1.0487098,95.088196
0.96916187,95.531715
1.0365164,94.63498
0.96308357,93.43387
1.0681839,91.35056
0.93555087,92.7854
0.9927482,93.24787
1.0267255,94.661674
1.0176098,88.02761
1.0366572,90.00755
1.0306946,90.99233
0.88365346,90.04569
0.93393636,87.96893
0.93720967,89.50875
0.98121387,88.56883
0.9406186,86.021675
0.8910322,89.26987
0.9315231,84.75999
0.81293607,88.64167
0.7700641,83.52504
0.7446193,85.69425
0.7278347,85.4458
0.86209494,84.8989
0.8069117,86.02724
0.6895418,83.14343
0.6517006,80.17095
0.58747375,83.95303
0.600052,80.22707
0.5242419,77.98909
0.5270859,80.96745
0.51152533,75.36591
0.50167763,76.27781
0.5451396,78.03268
0.49286786,82.00294
0.5361822,82.42592
0.44843432,76.49341
0.4453201,77.202286
0.44372076,79.09973
0.43555722,76.52051
0.47889924,71.59521
0.44629627,74.16828
0.52226645,76.721115
0.41692916,76.289925
0.4978695,75.31585
0.52105826,68.20118
0.48623124,68.3515
0.48538014,69.70785
0.43818215,71.585144
0.42805907,71.04139
0.44528052,71.16423
0.47605917,69.54407
0.45787713,70.71827
0.44917393,67.30385
0.3580257,72.405945
0.29793537,72.264046
0.35531098,69.755135
0.3463734,70.13942
0.22401874,66.65544
0.255515,71.774254
0.23935173,72.04444
0.21391012,71.39335
0.18174048,67.17836
0.16131707,71.93674
0.109499134,70.38299
0.17659944,73.4581
0.2540443,74.687294
0.2540778,70.5474
0.2403674,72.12173
0.2863188,74.14506
0.3108699,77.5263
0.31321532,73.70419
0.35516366,77.823814
0.45811656,81.7162
0.5529907,76.47141
0.515356,80.58572
0.6328003,76.46688
0.7549885,79.5417
0.7680664,84.029076
0.7787727,82.440605
0.8709605,84.4325
0.9708733,84.94319
1.0830892,86.60704
1.0696787,94.83893
1.1841191,88.43292
1.2858565,90.638245
1.3455507,91.198814
1.3235536,88.87858
1.508917,93.085464
1.4411709,95.38291
1.6138903,93.08035
1.5392499,95.57863
1.5144149,95.41556
1.6778898,96.00814
1.6346108,97.47357
1.7055005,98.04259
1.716495,96.04185
1.7161516,100.48458
1.728091,99.517235
1.7187185,99.79023
1.6828387,102.88862
1.8159688,103.161476
1.7546749,99.751434
1.6737194,97.812805
1.7751906,103.35656
1.6869127,98.196045
1.6801921,100.29324
1.7637225,100.48239
1.6630756,102.53723
1.7234001,103.29584
1.7416279,100.33856
1.666938,98.98184
1.7224278,102.45871
1.664705,101.75011
1.5537105,98.99076
1.5689869,100.43457
1.5631485,101.54058
1.5780351,100.31298
1.628286,94.782745
1.585093,100.791595
1.5141869,97.31328
1.5479648,97.902466
1.4144394,98.75221
1.4850757,100.83875
1.4897622,98.54568
1.4083261,96.38473
1.5408591,97.83349
1.3628572,96.00262
1.4097861,92.443954
1.4263816,93.27609
1.4102423,92.25077
1.392411,94.2222
1.3590838,92.63097
1.4377311,91.26889
1.3296622,88.61126
1.3841084,92.74772
1.4188098,91.174484
1.2603376,89.29927
1.4115087,88.59036
1.3641146,93.229004
1.3397323,88.05669
1.3303138,90.11882
1.2829043,86.41686
1.2362483,86.058395
1.3523506,85.464005
1.2846308,85.971855
1.2010288,82.20448
1.1854187,82.833786
1.1406573,82.010284
1.0927671,83.9615
1.102885,80.28313
1.0926225,79.96931
1.0633596,82.327324
1.019649,78.36717
1.006436,77.9163
0.9333148,81.72359
1.0859112,83.75796
0.93560433,77.76862
0.8625021,79.556206
0.8992483,79.08354
0.9426084,79.21636
0.905527,75.92278
0.8419973,78.46929
0.9795628,77.59301
0.91955453,74.15762
0.9197721,74.74876
0.90992314,71.85295
0.8985339,73.41374
0.84979725,75.16941
0.920888,71.902214
0.79899955,75.02732
0.8709417,72.61768
0.8212108,74.737946
0.8503837,70.216034
0.8586309,71.19057
0.89678687,72.11321
0.8064402,70.03762
0.79735774,67.37236
0.7273893,70.898926
0.80027384,70.21968
0.6969806,68.95422
0.65458167,69.56417
0.67832696,71.34652
0.6340211,70.18084
0.5731095,70.93352
0.65369105,69.56092
0.5801306,70.97547
0.55156654,69.710205
0.53771526,69.386826
0.5067394,75.53715
0.45787874,74.564255
0.56699544,70.82994
0.5877552,74.6797
0.52907264,73.10882
0.6180522,75.144264
0.58811754,78.813896
0.6747683,75.372345
0.71574694,73.96757
0.7913126,82.46001
0.8496182,80.52793
0.8559272,78.32969
0.88437307,79.573715
1.0363731,82.80264
1.0752736,81.65788
1.1038845,83.94247
1.3092574,84.716866
1.2618201,86.41239
1.3058277,86.027855
1.4148922,88.901566
1.5007327,84.1276
1.5742882,93.73682
1.617324,91.74798
1.5875587,89.65106
1.7624935,94.69402
1.713324,93.81255
1.8014753,91.47494
1.8064215,93.30601
1.7981383,94.01005
1.7784847,93.61112
1.8145871,95.566246
1.8976896,99.72313
1.8514314,94.7639
1.8649395,101.29877
1.8598104,100.3001
1.8819873,99.321014
1.9919252,101.16946
2.0194707,98.77373
1.9763651,106.45663
1.9337933,103.18211
1.9643955,98.975815
2.0249217,98.27254
1.9584566,97.200645
1.9704359,97.58798
2.009701,101.04086
1.9562157,99.40833
1.9483224,102.069824
1.8994993,102.78769
1.8665564,98.50818
1.8665015,104.70353
1.8480626,99.135635
1.7992339,102.59743
1.7080193,99.66776
1.7162224,96.80294
1.7098901,100.59315
1.7388499,102.78344
1.7090226,100.5571
1.6504679,99.1201
1.5893834,97.470695
1.6378853,98.8199
1.5587639,99.38982
1.6278149,94.70327
1.5529356,94.98119
1.4368713,94.22232
1.4923825,91.89253
1.4567335,94.60786
1.5200338,95.032135
1.5664784,96.41003
1.471589,88.6839
1.3903661,96.255394
1.3613319,91.491554
1.4982371,90.38116
1.4961785,86.7949
1.3305615,91.94458
1.3853612,87.12263
1.3977618,92.63334
1.2952473,88.49706
1.3567959,89.95998
1.38459,90.40724
1.261312,87.647064
1.2542664,86.76435
1.2608963,87.59773
1.3354893,88.07951
1.1229997,84.63191
1.1780831,83.23238
1.1187109,84.75538
1.144252,88.77115
1.0113709,86.979996
1.0156895,82.40796
0.9857953,81.3253
0.92923963,81.80869
0.9554795,78.15844
0.914985,82.81283
0.9329171,75.03038
0.793294,81.64464
0.86723346,77.77526
0.8612403,73.28371
0.82227576,72.60134
0.81687915,77.290405
0.77049166,76.78566
0.7193265,77.93955
0.70396304,75.81961
0.7693779,73.4436
0.7816855,73.213356
0.75843775,72.360886
0.740161,73.72427
0.7748137,72.875885
0.72681487,70.94404
0.6834511,74.36237
0.7332124,71.25672
0.66826195,70.20065
0.6404553,71.960815
0.60162055,71.8581
0.64846724,68.15781
0.61068237,71.0016
0.5235368,71.38986
0.48238337,66.47708
0.49338076,70.397415
0.47057682,69.84983
0.38922957,72.57313
0.42235807,68.98728
0.29892325,72.96911
0.34312925,72.09208
0.36714002,68.29877
0.39081186,74.44669
0.31541723,71.09824
0.36942473,69.385925
0.28665045,71.03362
0.30711943,74.26347
0.37588876,73.1895
0.41019958,77.456535
0.3758134,75.71095
0.38853088,73.517944
0.4488693,77.47962
0.44478342,76.776184
0.5675707,78.65961
0.63241184,80.49921
0.59871346,80.045395
0.73765093,81.93068
0.7443031,84.19964
0.8815273,81.30223
0.9630336,82.83215
0.93964624,87.43825
1.0949159,83.78803
1.1864002,85.957634
1.206694,90.115746
1.2862283,92.9722
1.3271303,89.2513
1.3188298,89.60565
1.3989389,93.36557
1.3896587,93.327095
1.4258797,96.14447
1.5436213,92.7971
1.5144846,94.87999
1.4968451,93.76442
1.5395787,91.44768
1.6305937,96.55028
1.6180694,99.54705
1.6145608,95.958496
1.6074059,99.59807
1.6539004,100.8094
1.5680283,97.80222
1.601104,99.6996
1.633718,100.860756
1.6104981,103.2725
1.6288342,104.09851
1.5988194,101.37732
1.5873069,97.89167
1.4901302,101.50935
1.5505686,99.42109
1.6080238,103.98269
1.5242455,100.89523
1.4755963,103.444214
1.497483,99.320305
1.507442,103.98553
1.4688182,104.44228
1.4335184,103.43226
1.4383842,99.05725
1.3079722,99.89918
1.4078743,100.954346
1.2573555,99.63297
1.3041805,97.50542
1.1818963,98.25862
1.2435578,94.19501
1.1622846,96.24024
1.1788543,96.75286
1.197446,96.492455
1.0997019,93.84599
1.0914412,98.016594
1.0558962,94.01722
1.0726782,96.95844
1.1032763,94.5746
1.0828433,94.2891
1.1012937,92.75974
0.98983663,92.04829
0.9962095,90.779366
1.096068,92.13587
1.0414964,89.08199
0.98039883,95.83252
1.013105,86.08316
1.0083321,89.570404
1.0231603,90.43032
0.9560355,87.86702
0.94046444,84.663185
0.8550939,86.94936
0.8576705,83.72798
0.7012077,88.145164
0.8309029,83.79443
0.8062871,84.2744
0.691669,84.01902
0.64909023,84.47989
0.6690511,85.74408
0.54336476,82.419136
0.6257174,81.36469
0.5485015,81.71748
0.49485004,79.05821
0.58257294,78.0237
0.35178998,80.23801
0.40230504,81.124435
0.4064392,80.78373
0.40340504,74.81452
0.3741293,80.190056
0.413182,80.31086
0.34655762,79.25752
0.40626356,78.8369
0.3839623,72.37319
0.42564625,72.95606
0.35432118,71.04059
0.2936381,73.01122
0.4558117,73.95893
0.3082382,75.34284
0.47772002,74.515335
0.32483926,70.94146
0.35430372,71.51895
0.31902766,74.43983
0.3726815,70.63042
0.31966913,70.9205
0.3365189,66.28436
0.12903632,72.942726
0.22322668,70.615616
0.19513647,71.022446
0.1813556,70.05639
0.11885029,68.86886
0.009454963,67.57785
0.03471919,75.05746
0.0776859,69.83263
0.012614891,69.09559
0.0083463695,67.808014
-0.06016089,73.48461
0.03863489,72.78016
-0.048882924,69.12539
-0.04977468,78.40939
-0.038250685,74.72707
-0.023578534,73.37828
-0.03194843,73.58458
-0.024277406,77.58281
0.08900971,70.778725
0.07805056,72.570694
0.014202252,75.55991
0.09095964,78.22855
0.26056787,79.006546
0.28527963,79.46944
0.33777246,79.25543
0.42793983,82.90943
0.47355855,82.48934
0.5377892,80.33556
0.74377596,81.67484
0.66168845,84.13982
0.72419786,87.32971
0.83441,88.60139
0.8400597,86.32407
0.96253234,85.940155
0.9763602,90.4218
1.1220765,92.25
1.1310029,93.88443
1.1374781,94.14639
1.1734084,94.686806
1.2149245,93.348724
1.2426156,92.074844
1.2708143,95.461365
1.2821614,95.26757
1.3432956,97.6829
1.317655,97.22042
1.3038819,97.9037
1.3556081,96.958984
1.3147928,97.91925
1.3446003,97.620605
1.3581573,97.797165
1.3364714,101.77808
1.3410918,97.05846
1.3468666,101.38745
1.421609,104.63038
1.3513347,100.75954
1.3639759,99.79113
1.3588915,101.03368
1.2870798,103.40719
1.2856398,98.192
1.4038444,98.827354
1.2820429,97.819176
1.3347942,101.901794
1.243043,100.00109
1.171263,98.84174
1.2388183,100.09631
1.3117498,97.17897
1.2339568,97.121155
1.0519654,98.689766
1.1287344,99.53518
1.1300268,101.04087
1.1275779,98.92015
1.0442345,93.192154
1.074873,97.17242
1.1145707,98.001015
1.0047177,93.511635
0.96180373,96.48005
0.9655529,96.6551
1.0078645,96.48255
0.9462656,95.85646
1.0015185,93.446335
1.0130275,96.20104
0.9712433,92.950584
1.0141999,94.033165
0.9529521,90.615715
0.93657124,85.567825
0.92857146,93.74956
0.88767016,89.5754
0.9155706,85.49703
0.94098145,89.41685
0.89681524,88.55763
0.82583076,87.87984
0.9274537,86.50726
0.7995923,86.771866
0.82598704,84.91299
0.7628556,86.38377
0.7891698,83.55522
0.7847867,84.602196
0.6890918,83.30383
0.71496886,79.82939
0.60280687,84.57028
0.5897592,83.49483
0.55027914,81.753
0.5629938,85.95499
0.547352,77.24333
0.6384322,77.81239
0.4921417,81.52661
0.5480772,76.7061
0.57064855,78.95031
0.48046845,75.22619
0.5032119,74.70932
0.42818302,76.29602
0.50727624,71.13764
0.5758143,75.618744
0.5271344,73.32674
0.44185725,74.29877
0.4630101,74.148224
0.3910057,75.35359
0.50513136,75.7197
0.46067715,75.044914
0.48073718,69.28867
0.47185817,72.62836
0.47227928,70.97073
0.54931515,72.27412
0.47921148,73.24802
0.3965878,71.25446
0.3639271,72.627235
0.40653417,75.76034
0.38091388,69.53584
0.3359626,73.335335
0.27775815,71.50441
0.23341681,70.96937
0.28063998,70.404755
0.23739548,71.90206
0.203841,71.85554
0.2165285,68.697044
0.17444506,73.25409
0.20857385,71.69941
0.22376938,73.734375
0.16526148,70.04728
0.1361338,75.14955
0.22138919,73.870224
0.28687245,76.32305
0.3166216,75.37715
0.27402672,74.94647
0.3032583,77.49244
0.32458425,77.64049
0.42672414,76.17513
0.5795776,78.47357
0.48376137,78.75755
0.70052475,77.06074
0.7011491,84.37605
0.8104269,82.081985
0.7784429,81.75062
0.94737846,84.03837
1.053029,83.64795
1.0521333,85.38904
1.0903827,86.833046
1.2741274,82.587494
1.217631,86.574776
1.2723067,91.08796
1.3698953,87.486595
1.4257656,88.712204
1.5147581,91.219025
1.5550706,93.66824
1.577493,92.24306
1.5333704,95.72114
1.6591246,94.92598
1.61144,98.22929
1.6837507,98.02782
1.6763183,100.61115
1.7201699,96.74037
1.6794986,98.38317
1.711022,99.286835
1.7309551,99.93372
1.6256393,99.18797
1.6859077,100.56728
1.7520746,100.85026
1.77947,100.77355
1.710962,102.02033
1.7243289,101.86581
1.717166,100.35701
1.7230183,103.53223
1.649405,100.57755
1.7106237,98.97396
1.6782538,105.082214
1.7316842,98.23609
1.694354,103.57103
1.656334,101.27559
1.6832951,100.72711
1.6597329,101.62376
1.6365349,102.82193
1.6166542,98.28055
1.5227968,99.18238
1.5229372,94.566536
1.5205346,98.33372
1.5682673,100.533165
1.5019017,96.11671
1.4258312,97.38448
1.4303976,94.67086
1.3642073,95.3051
1.4094958,95.975075
1.4210243,95.07175
1.3393055,92.985435
1.3283083,92.45208
1.3333015,92.65817
1.3976854,93.57124
1.3941573,91.104004
1.4428781,94.01137
1.3679318,88.139534
1.3736951,91.12323
1.383814,91.232124
1.3488212,86.73574
1.3205647,92.403
1.3436136,90.11633
1.3994702,87.07648
1.3395569,86.91091
1.295162,86.823944
1.2333659,87.273766
1.2211101,82.09828
1.2516379,89.121994
1.1790111,84.18604
1.1471069,85.83541
1.1367964,86.335556
1.1257521,85.103096
1.1175078,81.71544
1.0707711,80.90919
1.0372821,82.13684
1.0351127,80.08271
0.9852678,78.965805
0.9446988,76.83296
0.9395687,81.73591
0.8810357,79.711754
0.92021185,78.26577
0.8832953,79.50732
0.859973,80.72369
0.76221496,76.58964
0.968429,78.43501
0.9133038,74.21772
0.8917957,74.68958
0.83371264,75.455414
0.8745539,73.543076
0.96403545,74.01766
0.97944194,71.64119
0.8387329,70.32566
0.996806,71.65717
0.93324226,72.89957
0.89953417,73.41685
0.8517061,73.201996
0.8581538,65.52407
0.89815253,68.70507
0.7697893,70.180626
0.76399463,71.839066
0.83247447,71.03401
0.7698792,67.730865
0.59749484,74.1373
0.67221004,69.81072
0.69154334,70.81358
0.6322341,69.540726
0.5493288,71.77529
0.54880345,73.331
0.5631299,68.83132
0.53298587,70.72117
0.60514665,76.110374
0.5283421,70.93233
0.5656864,70.152214
0.5414515,75.936676
0.5332842,74.115906
0.70188284,73.668976
0.64026225,72.34701
0.67427886,77.62329
0.74395174,77.36489
0.7819953,76.95293
0.8129669,78.59787
0.91145706,76.1302
0.92674524,81.63289
1.0245011,81.30146
1.0593657,85.17554
1.1828521,85.6517
1.2211745,87.79506
1.2730988,86.3331
1.3384883,82.42609
1.3815552,88.835915
1.4642887,88.63909
1.493706,88.43973
1.648124,90.680016
1.575418,90.33279
1.6561799,93.01574
1.8106703,93.06756
1.7093829,93.31371
1.8277131,91.64637
1.7593688,96.03916
1.8859724,94.70378
1.8141053,95.22405
1.9807279,97.97426
1.8711536,98.3776
1.978454,99.19569
1.8929014,102.49972
1.969524,99.35282
1.9649457,99.49171
1.9684438,99.287186
1.8585812,99.05994
1.9566357,99.74961
1.8423786,99.52981
1.9828197,100.86733
2.0226965,102.38247
1.9072009,103.922005
1.9540688,100.68841
1.9258928,102.28488
1.8618524,101.06995
1.897905,98.44342
1.8771584,104.18625
1.7925855,101.1839
