ppg,abp
1.0181944,84.48101
1.132295,80.69593
1.1878283,85.689476
1.2842866,87.291145
1.2897041,83.74168
1.442017,85.91911
1.4081393,92.952065
1.5101578,93.28784
1.4777284,98.83156
1.6044791,98.47147
1.5901825,98.40837
1.6618829,101.87768
1.640225,100.8823
1.7216676,100.94277
1.6075608,100.94053
1.6699141,101.49854
1.7252694,104.99359
1.742471,106.70316
1.7047373,109.22553
1.7890029,106.91534
1.7475717,102.43845
1.6929702,106.083405
1.8173797,107.2641
1.67117,111.60254
1.737338,105.499084
1.6776093,108.719444
1.7852522,107.92179
1.6861305,103.39859
1.6372365,107.2998
1.6426362,106.04477
1.542849,106.83962
1.5867969,105.28012
1.5384952,101.675995
1.5290803,101.938225
1.5009729,102.418015
1.6041726,100.5669
1.4413911,102.26782
1.4397931,105.17662
1.46703,98.06448
1.4269543,98.485405
1.3821167,99.21658
1.4387277,94.968544
1.409528,94.72759
1.401899,92.551216
1.3914323,93.26101
1.366994,91.16503
1.3820094,91.76401
1.361661,91.46426
1.3463515,88.72651
1.4225298,92.53666
1.3246527,91.94474
1.2974232,86.34962
1.3001066,83.01284
1.3546367,83.805565
1.3028996,83.85907
1.3652407,86.649605
1.3154913,81.00076
1.221884,83.16827
1.2241557,82.40384
1.152553,81.32432
1.216675,77.514305
1.0640179,80.773155
1.1400144,76.06961
1.0819035,69.32498
1.0394752,76.299706
0.93297756,75.045456
0.9640517,77.18994
0.93569726,73.090546
0.9230278,68.01351
0.97246087,65.97962
0.85762393,71.042114
0.91437787,67.40516
0.84541607,65.97405
0.8634422,67.00041
0.7893822,68.98709
0.96331465,65.275925
0.89740205,64.44109
0.8227956,63.605026
0.8304093,61.12552
0.9111442,61.982265
0.908448,56.5464
0.91700447,59.24421
0.87368554,59.946503
0.87786674,57.289196
0.93167984,62.380596
0.81718665,55.745937
0.83609426,57.345573
0.7324454,57.190002
0.80786705,55.37472
0.68555516,58.935246
0.6768412,60.569023
0.6059722,57.855747
0.6167681,60.690193
0.5665205,53.882378
0.56831026,59.873287
0.52722996,63.2913
0.54988045,61.180183
0.4725408,57.124557
0.51358336,57.22581
0.49247834,63.153416
0.47952178,64.07599
0.57788694,58.950054
0.62876415,66.691895
0.5879929,66.225
0.76101416,68.64497
0.70652926,72.09953
0.84202015,67.41758
0.78738004,69.23325
0.94114673,74.576935
1.0132529,72.8352
1.0800809,75.63027
1.166945,78.26233
1.2475339,81.54727
1.3309487,82.49447
1.4129138,81.13109
1.3996294,85.78391
1.4804289,88.40126
1.5936342,85.62294
1.739452,90.26781
1.7191458,89.48164
1.7462093,87.04613
1.8025862,92.77551
1.8748018,92.894966
1.8860114,99.5541
1.8232005,96.242386
1.8766248,99.620094
1.894967,98.42777
1.8885576,101.14292
1.9536122,104.19585
1.907958,106.71777
1.8934093,102.09596
1.9976135,109.734795
1.9126801,104.405304
1.9447935,106.79045
1.8604923,106.53789
1.9838475,107.23634
1.9167466,110.92852
1.8776252,102.900696
1.9651492,107.04585
1.9335593,105.53145
1.8865764,107.69651
1.8805146,103.97831
1.8269337,104.89029
1.8452042,106.810844
1.7850187,102.83969
1.7737602,106.537895
1.7520429,106.55132
1.8171232,105.816284
1.6672316,103.0868
1.6619129,101.36144
1.7034308,102.69291
1.5866575,102.49225
1.5380869,99.822525
1.5736587,98.13965
1.571578,98.531235
1.5019853,97.448135
1.5876656,99.360825
1.468524,91.71126
1.445564,97.90114
1.4619931,96.90292
1.3938612,91.20689
1.4279392,89.4224
1.4296875,87.84116
1.5459142,92.03908
1.4719734,91.142784
1.453055,87.6363
1.4680296,80.29911
1.354481,87.66575
1.4382215,85.43638
1.3937758,84.294624
1.339129,83.75611
1.2657418,80.42299
1.2983396,82.01648
1.1995902,80.51118
1.1114106,77.40979
1.1714691,79.08042
1.1104801,72.82222
1.0517387,73.47615
1.0542197,75.54298
1.0661646,73.584656
0.998235,76.860695
0.8651634,71.49429
0.9529266,66.22579
0.92372483,70.59533
0.8831276,70.89829
0.88511276,68.92652
0.8336724,70.342125
0.8637255,62.726665
0.8549732,63.998234
0.8372309,63.14892
0.81169707,63.848175
0.81938124,62.01029
0.72591114,62.1544
0.8490409,64.54327
0.80294496,60.32719
0.84629136,63.05276
0.8151603,59.74752
0.71098095,59.55424
0.7367655,56.81404
0.6382205,58.041252
0.76717657,59.705105
0.7232834,54.02068
0.57688814,57.893047
0.66371053,57.51509
0.53298116,57.651806
0.5568763,55.495094
0.46692052,56.153522
0.38412908,60.5146
0.3405689,58.66012
0.43884864,56.861534
0.4156351,60.275154
0.3726817,59.648117
0.37858814,59.581013
0.36608678,65.61841
0.36136207,63.16365
0.40021223,64.10039
0.46278882,61.386158
0.45098844,64.22163
0.55093163,66.44055
0.5553214,69.41958
0.674476,74.80132
0.6941937,72.4234
0.6879505,70.19412
0.8834955,77.255295
0.9064918,75.8496
0.99204665,82.57692
1.0561965,81.75779
1.1150416,83.250786
1.1244826,83.605415
1.324527,87.11908
1.3128141,89.61588
1.4054196,86.86429
1.3145123,91.54824
1.5019606,90.24953
1.5625069,94.712906
1.5041249,92.16643
1.5785705,98.47783
1.615365,98.989746
1.6180692,103.76685
1.6497627,99.836655
1.7042158,101.29538
1.6463469,102.557785
1.659019,104.58152
1.7038753,104.95888
1.6841717,103.794815
1.639165,102.29042
1.6855971,104.27508
1.6784151,103.79553
1.7132145,108.757126
1.6313944,102.65873
1.6027598,108.61089
1.6261333,109.433815
1.6429602,109.776535
1.6124263,105.28622
1.5206747,101.56616
1.5533847,106.74929
1.4482474,103.47654
1.5246365,104.30653
1.5333015,104.50708
1.3621705,103.888405
1.4183313,106.47115
1.3097854,103.4201
1.2816374,100.05655
1.2352755,99.6872
1.3117448,98.086464
1.2940706,101.46554
1.2214047,94.055855
1.2551718,99.370224
1.1913853,99.65568
1.2531565,96.87311
1.1759858,96.01562
1.1966729,99.245575
1.1194046,91.068695
1.0746298,91.9455
1.1514488,86.0299
1.1247194,92.59263
1.099348,88.65295
1.0791239,87.50671
1.071722,86.352066
1.0538727,85.200806
0.99943984,86.0995
1.0290276,84.46592
0.9494998,81.50496
0.955226,80.94947
0.8965714,83.31672
0.9106934,79.08088
0.9297094,81.10606
0.7935432,75.356804
0.7888116,80.09214
0.73237425,80.393875
0.75826377,74.277054
0.7281633,80.40714
0.6995806,76.14704
0.63026,75.998566
0.4988249,73.249504
0.6554698,74.54714
0.496735,72.272964
0.51129,72.782196
0.4998425,68.788284
0.50440735,68.50729
0.48497105,67.53995
0.48929,66.76802
0.43322414,70.83488
0.5008571,64.20065
0.52565277,63.748554
0.50374997,61.372585
0.42642066,63.301888
0.39809152,64.69342
0.41896293,59.507137
0.35990965,55.318165
0.43992153,58.661964
0.4327091,55.717716
0.32072023,56.375134
0.24328981,60.70696
0.31129622,56.864697
0.37447652,55.14307
0.2584482,57.815556
0.21552265,57.39174
0.16119094,54.908714
0.2484042,55.37937
0.08375966,56.341137
0.10699277,59.12725
0.064518064,57.132774
0.07182941,62.130573
0.06688529,56.885292
-0.09499551,55.171124
-0.0625309,59.969673
-0.007453089,63.42858
0.037751507,63.788483
0.024728764,62.210293
0.13607849,63.667908
0.088532835,71.30303
0.18003096,68.168495
0.26769537,68.63404
0.24416415,74.27368
0.3005793,71.44515
0.44677088,73.7949
0.5292638,70.72995
0.60222244,74.80677
0.69809216,76.48955
0.68519276,79.509315
0.84516263,80.25465
0.93200547,82.86689
0.85716283,87.42467
1.0440627,86.17478
0.98355216,87.486206
1.1447704,91.55245
1.1226577,94.36983
1.1547586,93.007324
1.2297549,95.00466
1.2700447,96.71295
1.2642157,99.99141
1.3511317,98.949814
1.3403878,100.2449
1.3344765,104.43231
1.4141363,102.232025
1.3397474,104.30955
1.3786563,104.25917
1.3602146,107.78379
1.4053609,104.70365
1.3375893,102.07179
1.3599975,104.973694
1.3827313,104.03413
1.2816676,110.27029
1.3837547,110.54483
1.2414677,103.95227
1.330329,108.2692
1.2924333,104.963875
1.2877938,104.092705
1.2727478,111.074104
1.2972984,100.180176
1.066978,104.76679
1.1368561,100.34993
1.2145045,101.55203
1.0988383,103.958305
1.1477934,101.969826
1.1929203,104.56079
1.0321714,100.20263
0.99206316,100.850136
1.03382,99.30052
1.0321544,96.75982
0.9947298,97.6109
0.89371276,99.189804
0.906655,98.138115
0.9684426,94.9575
0.99608624,99.03483
1.0040139,92.08492
0.9386862,88.89201
0.9261871,90.45159
0.8876807,89.91681
0.87921315,87.73067
0.90150553,89.41066
0.8481177,91.97017
0.8167092,88.08953
0.91113263,83.914566
0.8319767,80.78131
0.87334996,77.7265
0.64651704,84.44466
0.7152316,82.264114
0.82673085,81.28998
0.68360585,78.63431
0.68125165,78.61339
0.6714712,74.838554
0.572138,81.48445
0.59090227,77.053635
0.5448642,71.984
0.41699797,70.839516
0.6415018,72.26708
0.40688103,71.73918
0.40200642,74.73197
0.39560416,70.57165
0.40248653,67.57187
0.31797832,68.54652
0.43570176,66.31532
0.43457034,66.61596
0.3593726,67.329384
0.436163,60.80232
0.36418647,65.715645
0.37170956,63.268494
0.40087184,62.862915
0.38425606,65.07418
0.30262706,59.749527
0.4313893,59.619244
0.4506108,63.609715
0.33587024,53.89658
0.38749492,57.566944
0.28731942,56.909653
0.27636877,57.256756
0.22605026,56.265663
0.2246206,57.207794
0.12732129,55.65022
0.14573444,59.865532
0.13492371,57.129128
0.19156267,54.56889
0.1323571,55.66283
0.010865012,55.89242
0.08860999,60.504524
0.067882046,62.460567
0.03706292,60.50377
0.08173424,56.5221
0.06714228,57.693184
0.0865418,58.173325
0.041131057,61.84436
0.13487127,67.06434
0.21790302,69.91721
0.23731054,68.24719
0.2599395,67.5268
0.28715697,68.26193
0.38105014,67.85112
0.40397498,73.55771
0.6376681,77.71855
0.57921594,76.15572
0.6969622,74.943596
0.82554823,84.46899
0.76671034,81.33943
0.9676028,78.88996
0.97785556,85.409035
1.0060422,83.30346
1.1758072,89.095024
1.1743973,92.24598
1.1882931,94.29922
1.2792948,93.49304
1.3926542,92.65985
1.4034573,99.74336
1.3891276,97.16773
1.4884727,99.99088
1.5311947,99.70763
1.4769138,100.143555
1.5402678,104.233376
1.5449958,99.54684
1.6249914,106.87089
1.4488021,100.78053
1.5950912,103.43914
1.637057,102.50252
1.5966378,104.58297
1.6218867,107.08832
1.5304623,106.33702
1.5084496,107.6807
1.6458813,108.78837
1.6068858,105.981926
1.4409881,106.78569
1.626353,108.01887
1.4737705,106.58916
1.4880071,110.285576
1.5240918,110.04638
1.4307756,105.705734
1.4106159,104.37317
1.3992095,104.43075
1.4545352,104.6431
1.3376242,99.49387
1.3025649,98.30427
1.3627703,99.53218
1.2622615,95.94262
1.3571193,95.23135
1.3515356,95.843994
1.2508891,97.42245
1.2625351,95.731224
1.2183783,94.97082
1.1497917,92.29003
1.1691364,94.13496
1.1928483,92.688194
1.2124083,92.430435
1.2444195,90.12851
1.1951079,91.285576
1.2665529,91.020485
1.1580241,82.3179
1.1589286,90.696495
1.17038,85.34636
1.1378918,84.98425
1.1617773,83.93428
1.0768361,80.105286
1.102756,82.769
1.0590987,82.954315
1.1156654,82.44859
1.0544153,78.93202
1.031697,77.89357
0.9578773,78.281006
0.9073125,77.19142
0.9805473,74.25309
0.85342896,78.81342
0.93811154,72.62683
0.89829004,72.43118
0.7186798,68.97371
0.7278869,69.97774
0.79143745,71.2917
0.7475846,68.12224
0.7504218,66.5087
0.7214252,70.12413
0.7519676,62.09966
0.7303772,64.15627
0.7518015,63.17957
0.7893601,60.86194
0.80465966,64.552574
0.78572077,62.521175
0.7369053,64.20584
0.7457948,62.154896
0.70543694,59.56485
0.7314711,58.4102
0.7632749,58.443535
0.61448246,55.21877
0.73453754,61.10711
0.6241385,56.329212
0.66882807,56.44374
0.5985626,60.260067
0.56509566,55.28154
0.57039124,56.90319
0.52330494,55.18471
0.49609607,55.822964
0.54731673,62.37683
0.46308583,54.67816
0.404616,58.693226
0.39161307,64.48145
0.51987106,63.819244
0.41988537,60.34287
0.39164466,60.33823
0.42450088,64.790504
0.4536259,64.02216
0.48955652,65.05256
0.5495863,64.60131
0.7329429,65.46285
0.61556363,68.11251
0.7975302,71.93852
0.86708415,73.75279
0.868305,74.44404
0.96570885,72.56839
0.98314846,77.147095
1.1390607,75.3989
1.2587575,80.054504
1.2421043,83.24908
1.3609223,84.25853
1.4339926,86.93968
1.502144,87.77466
1.5810333,85.60503
1.5491287,89.17254
1.6769216,90.89597
1.6997715,95.745834
1.6787016,98.11107
1.6852249,98.394104
1.7907027,99.491875
1.8577456,99.35803
1.8854353,97.7987
1.8080447,99.279015
1.9892418,103.112305
1.8956587,94.03648
1.9276977,104.79357
1.8980122,103.878334
1.914292,104.721924
1.8802679,103.53774
1.920947,104.42206
1.9508792,104.85012
1.9631577,109.916794
1.8823763,108.30896
1.9400122,110.15611
1.8993567,105.47188
1.9096785,106.146614
1.8655825,104.551865
1.755936,103.479645
1.8265865,104.851906
1.8069109,103.36279
1.6823541,107.313835
1.763044,102.65722
1.7238837,105.04584
1.6406056,107.23649
1.6096944,101.727615
1.6742196,102.383934
1.5455776,97.80695
1.6612172,99.98534
1.5906731,94.057434
1.5846338,96.61184
1.5575134,95.876625
1.5908799,95.49911
1.5485942,95.40365
1.5486792,89.93789
1.5386298,93.11282
1.4808106,90.341934
1.545515,90.74717
1.5265185,88.633255
1.4982661,88.08286
1.4701173,90.92486
1.4640613,84.55302
1.4169466,82.74623
1.4570124,88.78622
1.4709902,82.99978
1.3884478,88.553375
1.3706492,84.40635
1.4048802,81.896095
1.3382834,80.7392
1.3421099,79.91568
1.2276888,80.196526
1.2390865,73.031334
1.1868736,76.354385
1.1410192,75.082184
1.0901303,79.99435
1.1803612,70.44428
0.98829424,73.829216
1.0543879,66.82013
0.9718974,73.04994
0.93612325,68.37152
0.96900266,73.379486
0.9651938,67.66689
0.97125465,67.83559
0.8903062,68.95661
0.9320649,66.698944
0.9111668,66.37323
0.9091657,66.55959
0.8943731,66.400955
0.88529193,64.21758
0.9536447,59.791832
0.9286831,60.750088
0.9377494,59.406906
0.94452465,60.499542
0.87212205,60.55824
0.86775494,55.07334
0.8685842,61.657696
0.7956576,61.675747
0.8314091,55.648994
0.77893347,59.10772
0.8023871,54.4016
0.67399573,56.60623
0.62975866,56.55974
0.61138004,58.20018
0.56494737,58.003174
0.5608627,59.266773
0.54124653,55.983105
0.44403055,54.505856
0.44846287,56.246716
0.42675605,60.21829
0.4650498,60.75958
0.5533491,61.67755
0.49635714,62.642876
0.53593475,61.225025
0.5610396,67.822044
0.65283,68.44027
0.7383148,65.71528
0.78664356,68.55405
0.7342607,74.07214
0.7938485,72.14253
0.9281839,70.72154
1.0842996,75.838005
1.003333,77.669495
1.1784192,77.37509
1.2412975,85.44401
1.277315,84.329315
1.3831407,84.23719
1.3752816,86.41803
1.5080893,84.785904
1.6263689,89.562515
1.5762396,86.115166
1.6834842,88.59673
1.6898302,93.679886
1.6876181,94.39587
1.7564381,93.050476
1.7566825,100.19288
1.7953937,97.102196
1.796336,98.716484
1.7318696,103.27545
1.7527853,102.395615
1.8109056,103.81186
1.7859915,105.91927
1.826808,104.90638
1.8773202,106.09627
1.7666514,105.350235
1.8171886,106.65707
1.7792544,108.4136
1.8592741,105.28802
1.7939867,106.841835
1.803352,108.92248
1.8122056,108.44411
1.7529129,104.78308
1.6909581,108.08529
1.7348447,107.39259
1.6802534,103.45549
1.6134105,107.28553
1.6717975,105.77776
1.6206949,103.69436
1.559554,104.62557
1.5905756,102.50997
1.3816735,101.22473
1.5243567,102.94429
1.4645573,99.479965
1.4460258,101.00418
1.4372729,99.97429
1.349104,99.07054
1.3468798,94.93848
1.3838803,99.38369
1.3453276,98.17278
1.3122993,99.66335
1.2846981,93.732796
1.3053616,92.095085
1.3943309,92.089005
1.3733135,87.82511
1.2800947,90.516594
1.2421155,82.70897
1.1694461,84.698654
1.1596807,88.40852
1.1762264,82.91762
1.1879442,81.79218
1.2172838,79.40769
1.0615005,84.003914
1.0878897,80.92993
1.0307715,81.34221
0.9832642,79.677475
1.0154843,80.41474
0.9198327,72.828156
0.83238566,75.77442
0.9183951,76.301384
0.83352673,75.97626
0.74819314,75.90956
0.68888754,72.24333
0.727922,73.773445
0.5856878,70.22995
0.64792144,71.76622
0.63422954,68.47797
0.65813494,70.681885
0.6209022,66.67352
0.64902925,69.29602
0.60678643,65.61969
0.62183017,63.43864
0.5699071,63.907185
0.6350564,64.55185
0.6201553,62.371628
0.57597977,57.69538
0.504213,59.27148
0.6224435,62.28221
0.5457247,60.079494
0.5933121,54.576187
0.4937542,56.68267
0.535536,58.83357
0.4930587,55.99619
0.3570433,54.26026
0.43785587,61.529537
0.40761423,58.596718
0.29393873,58.50156
0.31710237,53.587147
0.25993502,60.59217
0.15634745,61.63965
0.19175604,58.35839
0.22188759,57.251595
0.2370352,53.456905
0.19887127,61.96405
0.08613639,58.89616
0.17454775,62.599308
0.16178378,62.426704
0.22247443,65.211876
0.2665076,64.35186
0.28055686,63.401287
0.16037439,75.171486
0.23933347,69.354576
0.3661603,68.651054
0.44979197,70.30633
0.5168246,72.17521
0.5477078,72.468185
0.6726558,74.35695
0.7163837,77.639336
0.6984309,78.97173
0.9620239,77.759186
0.94770885,81.48534
0.9618264,88.556564
1.0765456,86.06108
1.0819355,89.10434
1.2489865,86.0737
1.240944,91.488846
1.2064735,95.13002
1.3307152,95.931
1.3059398,100.20975
1.3140502,101.09581
1.3869895,95.11344
1.448779,103.89727
1.3098423,101.67566
1.4031587,102.58161
1.3751867,103.5867
1.4384022,103.530174
1.4542172,106.884254
1.4814748,106.12289
1.4681765,107.117905
1.4749061,109.92042
1.465047,103.00952
1.4535686,109.754196
1.473349,107.74047
1.3888456,108.893196
1.3437405,110.60608
1.413051,107.68596
1.3029131,103.55275
1.2771107,103.82264
1.3439137,111.29701
1.3422116,102.367584
1.2633264,107.09534
1.2046963,108.56313
1.230936,106.53372
1.1651069,102.941414
1.1705492,104.17039
1.1325977,103.2854
1.0441453,98.68514
1.0392847,98.68285
1.085751,101.5942
0.9660292,95.824265
1.0311674,98.10691
0.9930244,94.21544
1.0696151,91.05951
0.98088706,90.86263
0.87432075,91.56903
0.9709346,93.491936
0.9661513,85.72555
0.88598144,87.89355
0.8703602,90.44003
0.90897447,85.03678
0.8539912,88.874176
0.86641335,85.82777
0.87599546,83.51043
0.73693085,83.95001
0.8246561,85.16106
0.75462925,85.34331
0.77195066,81.74018
0.78850526,81.679955
0.75536025,85.697075
0.74147516,81.22185
0.54867977,76.211006
0.6248315,79.199776
0.5476353,78.6864
0.44941685,76.3751
0.49954426,73.38042
0.5665821,70.05392
0.44250047,76.16615
0.36535844,70.86699
0.4244499,67.06884
0.41121548,69.14574
0.4304854,71.29479
0.39270577,68.88755
0.340561,67.974915
0.31842768,66.98317
0.28064904,66.90254
0.24155171,74.7255
0.45623788,64.820244
0.3020563,62.904854
0.2523924,56.16233
0.2920644,64.670975
0.2939127,60.66054
0.3526738,58.089684
0.26015136,62.833805
0.3234202,55.165287
0.2997919,60.99089
0.22428565,60.045227
0.18451753,54.98923
0.17139436,58.430237
0.16041231,59.59
0.18735938,56.81949
0.067643315,61.937214
0.11511502,57.203358
0.03340568,57.691437
-0.025509177,59.05227
0.013331143,55.248394
0.003650956,62.809605
-0.03378251,59.99704
-0.018664418,60.23405
-0.047067363,59.06988
-0.027754592,60.231647
0.0019645337,63.253933
-0.034955274,63.93489
0.055210218,62.18334
0.04269801,64.06403
0.1229599,67.501114
0.21792221,67.626785
0.21192583,71.421646
0.33793843,68.58903
0.4348918,74.98389
0.4386303,73.87837
0.4956875,74.6946
0.6725297,81.826355
0.69899416,85.66589
0.7462728,79.7548
0.88940907,85.637024
0.9425222,84.7113
1.0034387,86.05033
1.061607,92.337456
1.071855,93.36674
1.1465334,91.96538
1.2204491,95.36798
1.2680447,92.14789
1.3473448,94.69407
1.2650613,99.703835
1.268826,102.18848
1.3933506,101.108154
1.3636115,100.73319
1.3589387,101.80969
1.4658889,106.98632
1.4128996,108.393196
1.3807477,97.803474
1.4453359,105.762955
1.4043716,102.97665
1.3682522,104.857956
1.464994,103.166046
1.3938416,107.37453
1.4246132,105.819756
1.3781763,104.07632
1.356336,108.15096
1.3736358,110.53105
1.3278047,103.77627
1.4798727,107.41352
1.2942314,108.45812
1.2988149,103.4456
1.1515201,105.88815
1.3481759,106.295
1.2316948,104.59916
1.2240239,100.197105
1.1230496,103.59898
1.234712,97.98123
1.2580767,101.25438
1.107998,102.581985
1.0639364,97.74992
1.0862117,97.41937
1.0638939,96.876785
1.1004558,94.16924
1.031594,94.30539
1.0904343,98.03153
1.1220921,90.75157
1.0874983,90.86654
1.1101769,88.45838
0.949341,88.5613
1.0140268,89.42718
1.0007511,90.438286
1.0562212,86.914566
0.9727893,85.58902
1.01142,82.93226
0.9857602,88.47597
1.0168116,87.04704
1.0108413,85.81634
0.9661729,79.39968
0.8934021,85.90134
0.89144766,78.27201
0.7849704,80.95735
0.83004713,80.17526
0.7147783,77.663574
0.7051158,74.79822
0.6711708,75.16749
0.700763,76.19054
0.68704236,74.69903
0.6659789,71.97726
0.54088163,71.36276
0.6041631,65.39506
0.5869641,75.31597
0.63093543,66.763756
0.51431,66.79323
0.53866285,68.550385
0.5314642,65.708046
0.5463964,65.0551
0.6340367,63.05947
0.60508585,62.409264
0.58632475,62.475323
0.49844083,58.654167
0.5228373,61.364414
0.6198706,57.005135
0.62572426,60.36213
0.6076219,60.199894
0.60060745,62.731956
0.5225126,56.250168
0.5306317,60.763557
0.5511448,53.644302
0.39559627,58.21582
0.42235252,57.12784
0.34127125,55.425194
0.3746968,54.351524
0.31101888,56.850605
0.35826218,59.972977
0.32293746,60.81399
0.24199106,55.66815
0.37209842,61.068054
0.32851142,64.815254
0.23881221,61.811657
0.28604436,60.45444
0.32242805,60.059044
0.29826427,63.721832
0.3675255,64.42307
0.35633937,65.12646
0.45680246,68.69218
0.4776637,68.21681
0.58040315,69.75532
0.5768162,71.10711
0.71536344,72.906784
0.79649407,75.23358
0.76641756,77.321785
0.9517032,77.93213
0.96846277,73.9531
1.0527825,81.64708
1.1487582,81.38411
1.2380427,87.25099
1.242729,86.678406
1.4409674,91.3054
1.4498774,89.249886
1.4348594,90.625984
1.5754628,94.56863
1.6068836,92.30189
1.625727,96.18014
1.7184893,94.53645
1.7043943,102.0011
1.7074571,100.80334
1.8168734,98.77843
1.6792387,99.73528
1.7992892,105.38651
1.6938188,104.658066
1.7968421,104.16752
1.771743,105.59822
1.7734525,98.67795
1.7884196,108.762596
1.7389848,107.28746
1.7961293,104.825356
1.8987085,111.694046
1.8475039,108.37333
1.7934572,106.45795
1.7789514,107.52598
1.7857141,106.877304
1.7221425,106.062965
1.7074025,108.42589
1.7545484,103.37114
1.6982727,101.894585
1.6505249,101.51856
1.6499705,105.98292
1.618181,103.92956
1.7237699,101.31264
1.4947326,100.09672
1.4845631,100.68914
1.5697252,101.73321
1.48312,102.5761
1.5117353,97.384186
1.500991,100.44495
1.4878739,98.24766
1.4493304,97.871895
1.5173961,99.75205
1.4670159,98.492615
1.5043976,86.67975
1.420961,88.4622
1.4417757,88.36175
1.4546077,87.115814
1.4217515,83.31366
1.4318421,84.68409
1.3548279,86.58323
1.4182652,89.951775
1.3569118,88.66588
1.3813614,81.861206
1.395062,79.743454
1.2285248,83.99187
1.3883911,79.778915
1.2258564,81.519356
1.2177457,85.142685
1.2135469,81.654335
1.1597077,78.60076
1.0986874,76.143036
1.129491,72.84855
1.1491925,73.616066
1.077488,73.55488
0.99688405,70.59694
1.0110905,73.452126
0.99792475,74.24553
0.9991462,71.187515
0.9286282,71.62854
0.911499,68.044365
0.96515954,68.02114
0.88454044,69.36165
0.87434065,67.56265
0.9098324,65.500755
0.8969843,64.91003
0.77486646,61.57821
0.94996876,60.830414
0.8797037,62.727398
0.9003934,62.77743
0.8986922,56.382584
0.90087765,61.139786
0.8871648,61.78301
0.8183803,61.218002
0.8226806,63.95009
0.8403008,55.65072
0.7413585,59.92509
0.7342096,61.267704
0.75635487,56.459724
0.7297559,56.363796
0.6706233,57.434265
0.6061601,58.441696
0.50546914,63.20137
0.60463333,57.849354
0.6322098,57.78952
0.6248608,55.705143
0.5014899,55.660923
0.51599264,64.247986
0.5246473,58.69943
0.674575,62.643307
0.6357501,59.209587
0.6157044,62.543682
0.64341015,64.01037
0.6366811,66.14483
0.7368396,65.51555
0.8599188,66.1814
0.8576633,72.307495
1.0339608,74.84632
1.0671079,78.01332
1.0895842,73.73372
1.1648828,80.84449
1.188076,84.37807
1.3155721,80.21288
1.3732492,84.70137
1.4250957,80.98784
1.5333868,88.229515
1.5692099,85.27895
1.6575516,87.7554
1.7053872,90.17543
1.636733,91.74976
1.7965698,94.11602
1.7925953,94.81694
1.8632524,97.52945
1.8447994,97.609566
1.8359821,102.30247
1.9587536,99.1965
1.9002815,99.507645
1.9100107,102.56488
1.9797244,104.77688
1.8498836,106.14843
1.94749,104.18774
2.0303469,102.527954
1.994183,104.00831
1.9067632,107.38297
1.959256,107.43462
1.8754673,104.95812
1.9155501,107.63317
1.9123855,105.684746
1.8683395,104.87735
1.8332303,109.50866
1.7873064,103.89492
1.8405647,112.35442
1.8168157,109.303474
1.7762153,106.3787
1.8376395,102.96844
1.6743523,102.407104
1.6981063,104.83626
1.6435901,105.07379
1.6663322,101.063644
1.608579,97.83884
1.5141101,98.70466
1.556832,100.8938
1.5435569,101.87977
1.5444295,95.80346
1.4618212,92.85762
1.4991444,98.53825
1.5664711,96.42261
1.4613454,91.13191
1.4267919,92.121506
1.4042382,90.70208
1.3972812,88.8952
1.3507218,88.294235
1.3914443,89.722206
1.359202,85.306175
1.3645107,86.25981
1.3701173,82.86263
1.3096511,81.217
1.3540632,81.97353
1.2652129,83.4515
1.3004249,82.28272
1.2032849,81.03513
1.0870929,80.152435
1.1130764,81.67934
1.0748826,79.436134
1.0866251,76.401794
1.0186816,76.31811
1.070822,73.219604
1.0147352,76.63409
0.9481679,71.222496
0.89517206,73.930244
0.85369885,73.72494
0.8454968,75.00934
0.8291211,71.87455
0.8172017,70.11006
0.7884308,66.55886
0.76275814,61.8551
0.8177754,70.03012
0.81646323,64.588
0.704804,64.807076
0.757432,61.995087
0.7283239,63.6415
0.778353,61.122112
0.74633944,59.563965
0.70874476,61.170074
0.7310622,60.816322
0.6668217,57.47373
0.73224956,58.11986
0.6592081,56.11379
0.68607116,58.61999
0.6580016,58.315777
0.6139808,57.630264
0.57178974,63.18391
0.50382024,54.466354
0.43767,56.569763
0.4905122,58.1366
0.40214163,62.753693
0.38828868,55.73788
0.33219096,58.24485
0.37320533,57.395622
0.2959255,60.93549
0.32116672,59.822823
0.29079098,60.55919
0.2765305,62.960857
0.3038474,59.43611
0.31081793,63.859
0.2963402,63.217804
0.41258386,66.67707
0.43767962,71.07071
0.53862315,70.79385
0.5854302,73.2026
0.6708156,75.70609
0.63711953,81.59664
0.86001796,77.98147
0.82307816,77.7491
0.9413703,77.42526
0.908001,80.732796
1.0298909,85.35602
1.099047,84.299835
1.2100549,83.77105
1.1995516,87.523125
1.3393384,92.92712
1.3188448,89.30224
1.4233004,89.61298
1.4224582,97.364914
1.4413861,96.72764
1.5240569,95.051445
1.5690665,97.805565
1.4838296,97.488335
1.5672133,100.02874
1.5121565,95.933914
1.4832364,104.512856
1.6645825,102.4833
1.5966892,103.94995
1.6609638,105.56206
1.559541,102.403336
1.583101,107.347466
1.5098041,109.379196
1.5729158,108.23939
1.6627786,105.65264
1.5256716,107.03973
1.5440253,110.220924
1.5002745,107.71168
1.4894694,103.884575
1.4295205,108.9001
1.498071,106.98027
1.5086024,107.04595
1.4504455,100.060135
1.3671713,103.92382
1.2803814,104.79947
1.2530601,105.25907
1.3069409,103.796364
1.337151,103.76344
1.2356693,102.56227
1.1771096,102.38287
1.1290188,100.440285
1.1753218,99.68512
1.1848215,100.39629
1.0407063,96.82399
1.1562335,99.45689
1.0533262,88.36404
1.1576439,92.96524
1.0183823,92.96185
1.0510238,94.819046
0.8967976,93.074814
0.9896458,92.326164
1.0183198,85.60621
1.0417142,85.89006
0.9499758,86.387886
0.9850068,85.31292
0.98516697,86.38431
0.94599134,85.64566
0.87603706,81.25973
0.89082444,79.08391
0.85264283,82.86949
0.86749226,77.62858
0.765116,80.68536
0.7372485,81.21569
0.68516254,80.85877
0.58589417,76.29457
0.6493818,77.46705
0.59244573,77.20753
0.5244116,75.9553
0.5061715,72.79346
0.54472613,67.8424
0.49167752,75.96502
0.44259,73.15693
0.3927287,72.295395
0.39803952,67.95197
0.36088675,68.50702
0.4202776,69.10183
0.43266344,67.34279
0.34514916,62.49864
0.36928278,61.770527
0.4457246,61.926846
0.36437505,63.193535
0.35126555,59.770023
0.33084357,56.271553
0.39586174,59.79029
0.333169,60.038826
0.3515856,60.63612
0.27451757,60.613197
0.29300234,56.707325
0.30543283,54.97565
0.27115023,59.53918
0.2056626,56.307896
0.14569958,53.267056
0.13099465,57.701992
0.06240162,61.40756
0.024134345,56.44074
0.034214303,57.774864
0.034398705,58.373123
0.010336963,58.022865
-0.045288645,56.388638
-0.055156387,60.458755
-0.057514682,58.20841
-0.020788815,65.3466
-0.025693586,61.79822
0.013712172,62.670177
0.018018113,64.87036
0.16226111,64.82463
0.07477992,66.48895
0.17096734,70.09209
0.14132744,69.50693
0.24799162,73.252335
0.2808884,77.69935
0.3711227,76.57034
0.47584718,78.025955
0.5259958,80.37859
0.63454646,73.56388
0.7885863,79.6457
0.83505756,89.84406
0.8955377,88.58179
0.9393159,89.54839
0.9853882,89.03402
0.9977059,87.0337
1.0139576,92.38874
1.1573013,94.04412
1.1662649,99.84163
1.2062091,96.693474
1.3586497,96.00052
1.2558836,98.94008
1.3157338,98.96244
1.4221562,103.20587
1.2861768,106.95786
1.3472711,103.01525
1.3672317,102.57009
1.408401,104.11419
1.3251114,104.37858
1.3252028,106.42846
1.371862,108.39774
1.488034,109.75346
1.3291001,107.82275
1.4081922,104.779465
1.3495603,106.12297
1.3168746,102.40962
1.3811562,105.296074
1.3444492,105.545334
1.2952763,107.50195
1.1755269,110.82715
1.2599509,105.603905
1.2413505,108.271805
1.1915467,102.9461
1.1011819,101.78309
1.144241,103.13793
1.140756,102.84721
1.0919592,100.937706
0.97817093,100.33275
1.1054009,103.46759
1.1238744,97.857704
0.98946404,103.733025
1.0013269,100.171074
0.9424345,100.302
0.9218155,95.99274
0.9605826,95.48266
0.94554126,95.01084
0.88267976,91.6539
0.96889454,89.46233
1.0142902,94.204956
0.98304075,88.70939
1.0042644,85.321144
0.8931638,88.33762
0.8150602,87.31874
0.8797273,88.05407
0.80384535,91.40067
0.85216314,86.71568
0.8373324,83.86043
0.8416044,81.43432
0.77774864,76.211975
0.6904988,81.44013
0.7373001,80.791756
0.6599691,78.61172
0.72942615,76.21528
0.63270664,74.23244
0.65840656,77.34141
0.5525465,70.9743
0.58937585,75.81213
0.43216136,70.223915
0.54404205,70.51255
0.46803457,74.75878
0.36318266,68.554695
0.36472088,72.36653
0.49847555,71.3709
0.4052888,67.26308
0.41417,67.48987
0.37460965,68.83657
0.36953095,63.762184
0.51737773,62.419613
0.44795197,66.32051
0.4260074,62.63847
0.49301344,57.419353
0.43541452,62.78657
0.39015254,63.309223
0.42186984,61.34212
0.35581762,57.37722
0.4606179,54.52784
0.30142865,58.30521
0.34935346,58.332478
0.25966188,57.858994
0.2890864,57.320614
0.24318478,56.08409
0.22275232,59.455612
0.27658525,56.35499
0.2157245,57.55999
0.26915094,58.45319
0.09969609,55.878048
0.096692845,59.02123
0.15673484,59.23188
0.1294039,65.77293
0.08326886,63.272373
0.1805692,56.096733
0.15204632,65.40193
0.14631999,60.339188
0.22506599,63.67995
0.26859662,70.124794
0.23856965,67.74702
0.35920888,73.74739
0.41544175,68.63589
0.47727814,69.29884
0.54302925,74.29945
0.5815413,76.51257
0.58908105,73.85004
0.78822196,79.25573
0.83474964,80.27216
1.0268509,78.458374
1.0206265,85.79597
1.06876,82.0298
1.1397213,82.65621
1.1931077,89.37297
1.3209363,86.78261
1.3925586,91.91943
1.3931618,94.329666
1.4773732,98.29317
1.5480657,93.25735
1.5192955,104.21241
1.578823,96.73159
1.53468,98.88709
1.5656531,101.434906
1.6596799,98.139885
1.623316,105.24304
1.7104632,105.466156
1.6038381,106.09035
1.56973,101.83482
1.683112,102.482735
1.682137,104.53782
1.61043,105.166824
1.6288182,105.82312
1.6281353,103.15709
1.6267726,109.87072
1.661386,103.57245
1.527032,106.76892
1.5753616,106.04511
1.5724927,107.812355
1.598363,107.96192
1.574994,105.39011
1.5293555,102.84124
1.4470307,104.5902
1.470164,101.749344
1.4282897,100.46198
1.4318705,95.40573
1.4127249,96.79268
1.3782047,102.38712
1.4049028,99.49074
1.3263897,97.905334
1.3233913,98.45121
1.2002281,96.051544
1.3071204,100.61471
1.2718681,98.91812
1.3632926,93.26091
1.2357228,97.71358
1.3976709,90.880615
1.2665985,88.656204
1.291436,85.1804
1.3343467,90.123
1.2698634,87.894005
1.2398247,90.10604
1.272789,89.069176
1.2253551,89.35502
1.2096974,86.38258
1.1766394,85.53915
1.1820022,78.82972
1.1953783,82.78877
1.1849823,83.65467
1.1354842,78.19524
1.130141,77.137
1.0234938,78.50256
1.0399568,76.95188
1.0231415,78.31709
0.9646824,76.61784
0.9057255,75.73752
0.9324627,69.76943
0.83853906,70.9565
0.8053888,71.52162
0.9110954,71.56551
0.89671415,65.71614
0.7899497,70.99161
0.7359482,68.941444
0.84020275,65.89298
0.8004731,65.57754
0.7459103,65.855576
0.8461771,64.135994
0.82655245,65.00792
0.8408758,61.67265
0.80993515,65.85484
0.8971105,62.949936
0.82213014,58.721146
0.7912148,57.161587
0.75234276,56.518337
0.78629786,59.08305
0.82906556,57.400055
0.77302635,61.584606
0.7461159,56.287834
0.76873666,55.73465
0.6878116,60.634434
0.6047902,56.672413
0.61408454,55.23675
0.56352425,57.89065
0.5627283,56.291035
0.5262167,58.470005
0.5985977,59.500626
0.47904038,60.367287
0.49596107,52.69335
0.53517115,60.452248
0.5262782,60.52688
0.4700416,59.741344
0.5645298,66.623276
0.57325584,64.57942
0.5594629,65.40792
0.6363924,59.05034
0.6474004,67.79571
0.7660861,71.07187
0.8511494,72.50538
0.9292272,73.499435
0.9907055,70.64439
0.9418233,78.39701
1.1561012,73.545074
1.1291941,77.954285
1.2536889,78.85991
1.3056394,81.11311
1.4911224,82.691635
1.5394539,86.679985
1.5303057,87.22041
1.6021327,95.29113
1.65455,93.86541
1.6324337,87.95767
1.6873574,90.35599
1.7375191,96.0505
1.81465,95.50176
1.9433732,103.53922
1.911436,100.606705
1.9038993,98.45713
1.937622,97.91057
1.860073,99.72093
1.9909973,103.271996
2.0003746,106.17347
1.9939508,106.921425
1.9184278,101.86494
1.9722022,105.818886
1.9806358,106.81873
1.9684666,107.20693
2.0010653,105.31485
1.934383,104.010666
1.9834964,104.1268
1.8978198,106.63371
1.9196336,107.57714
1.9145744,106.39706
1.8796875,107.22211
1.7574035,102.87396
1.8396493,105.35887
1.7989134,104.022156
1.8248934,107.03036
1.7400877,101.368
1.6849657,103.85486
1.6892145,99.59564
1.6193016,100.58617
1.6616665,101.58382
1.638787,102.26648
1.5361432,100.38723
1.6103134,97.58121
1.6103331,98.03032
1.4937962,99.615
1.4962974,96.69952
1.5515996,95.02832
1.5470865,95.85083
1.566076,91.02786
1.5337473,91.71886
1.5117016,92.98251
1.511546,91.07398
1.4562701,90.65313
1.5194794,88.78865
1.3612235,88.49215
1.4268744,81.64951
1.4496256,87.29849
1.3082507,82.81149
1.3073292,86.11574
1.3140166,82.15701
1.2149595,80.81159
1.2748513,80.62091
1.2503976,74.32911
1.2972172,80.41984
1.2164397,78.95317
1.1795774,77.35616
1.08161,76.53164
1.0153904,69.90579
1.096136,71.07489
1.0137753,68.619316
0.96426857,72.32763
0.99144804,67.799545
0.8803287,67.72002
0.907507,69.88421
0.8686367,67.88465
0.9080592,68.25304
0.87136495,68.778015
0.8739337,65.6142
0.8697778,61.260895
0.98797184,61.205597
0.80573875,65.66606
0.8911848,64.541336
0.8164475,56.930298
0.87363327,63.705368
0.8180884,65.44784
0.8460479,58.453556
0.8229153,58.770542
0.8058512,57.752914
0.74845725,58.574265
0.7452307,58.92238
0.61261064,55.684677
0.6603917,60.685947
0.61967194,61.18438
0.6164971,53.133156
0.5674108,54.576584
0.6230983,57.331345
0.58994144,59.75017
0.48734298,59.333874
0.46092477,55.285717
0.5058527,59.476856
0.39194384,62.65179
0.48875996,61.698616
0.40863645,62.557545
0.44639745,61.706203
0.5553296,64.199005
0.5345125,64.123665
0.5057761,66.578354
0.55897915,69.56572
0.6978767,65.04735
0.8165677,74.08211
0.78336173,73.34971
0.9017515,76.31253
0.9670244,72.4315
1.0469584,83.20626
1.0666955,81.455475
1.2443553,81.37037
1.2638354,82.87292
1.3185588,84.817955
1.3289199,86.599976
1.4305946,87.80896
1.4891185,91.070145
1.4914665,88.81806
1.5500901,92.06257
1.6312,96.16561
1.610636,96.27168
1.7139052,96.08189
1.6900568,94.51536
1.6956441,100.22577
1.7014829,98.69645
1.8008724,100.83711
1.7738975,105.399216
1.796789,105.86092
1.7662814,103.222275
1.7904649,103.560265
1.6484054,104.74917
1.7042961,108.576515
1.7821554,105.87229
1.735947,103.575356
1.7225368,106.244484
1.6745547,106.28116
1.7581064,107.01462
1.6501862,107.67269
1.636228,104.91881
1.7355858,108.30905
1.5786878,102.67011
1.614789,102.984474
1.4889067,107.5196
1.5451506,107.871735
1.52202,101.16964
1.4430547,104.79859
1.4649442,103.80338
1.4438181,105.89483
1.3667213,103.37924
1.3997328,98.491165
1.3172954,98.46461
1.4440322,97.29813
1.290539,97.44143
1.3053877,93.61705
1.2366129,99.3501
1.1995938,95.5563
1.2481349,91.4219
1.2044779,97.92683
1.130088,90.49594
1.2131982,87.634346
1.2389196,87.710464
1.1349474,84.98532
1.2104077,85.80029
1.1063417,87.33627
1.071218,88.98542
1.0871298,86.25233
1.0828975,82.076614
1.0411042,82.77098
1.0310819,85.660484
0.9298482,82.89373
0.9608486,85.30971
0.91456604,74.659805
0.84560627,80.81158
0.84662837,75.31977
0.856719,75.071175
0.74903274,71.810646
0.7352759,73.24397
0.7098045,68.38444
0.60151553,75.39141
0.63502514,71.48173
0.56601125,78.43634
0.6243099,66.925835
0.6187578,70.10929
0.5132839,69.61097
0.53298146,66.33339
0.52135617,67.94745
0.46831697,61.23173
0.55878365,67.219055
0.5366102,62.88965
0.44901097,65.75637
0.5097632,61.15821
0.5520386,60.987087
0.57065755,57.15501
0.449236,57.783043
0.46743172,62.029102
0.5037344,60.904617
0.4200784,58.604424
0.37513477,63.71367
0.46699214,58.825424
0.35209024,51.248432
0.3557504,59.576355
0.2764449,52.16768
0.20841566,58.263016
0.24301025,56.656887
0.12914117,57.93402
0.13499591,58.911198
0.18001918,58.0567
0.15409754,55.579987
0.08188306,62.936092
0.08191451,56.601685
0.053400338,57.591732
-0.014033203,58.347263
0.1642595,58.619827
0.05176135,67.17082
0.11317157,62.72181
0.19168149,66.83516
0.28026298,67.4313
0.33640018,68.72482
0.3238653,75.18509
0.31384647,72.43089
0.37689367,68.71142
0.4592711,74.95652
0.55685675,72.32194
0.60556906,79.21058
0.7294006,83.47489
0.8236966,85.96198
0.8699683,82.20574
0.8889475,87.72741
0.954938,88.67922
1.1290176,84.488464
1.1259698,89.464226
1.1527354,92.54315
1.1043924,93.27509
1.23938,93.60891
1.1933739,94.906044
1.3096632,99.65379
1.3569901,97.15811
1.3407896,103.212585
1.3073443,101.81245
1.3115835,103.611435
1.4294511,101.14361
1.4575979,104.87027
1.391786,101.78072
1.4063293,104.969185
1.4157139,106.47906
1.4760453,103.65948
1.3625379,106.12565
1.4219518,112.7875
1.371406,104.592316
1.3393673,107.53556
1.2982073,102.11446
1.2942863,104.83567
1.3542907,105.33501
1.3452805,106.5849
1.1184071,103.699776
1.2659302,107.4838
1.2029786,103.65441
1.186582,105.51325
1.135801,104.24534
1.1755346,102.36534
1.1769418,104.16751
1.1419183,103.146545
1.0134227,99.097336
1.0206354,100.93512
0.9857976,104.815186
0.95294243,99.25018
1.025441,98.20956
0.96202105,95.51337
0.9602195,93.94708
0.948889,91.55467
0.8979655,90.22686
0.964054,94.12052
0.86490613,91.25875
0.89164275,89.06073
0.8905373,85.75724
0.9096731,87.89488
0.8161695,88.31722
0.81705916,83.5649
0.90588236,88.84544
0.8755066,83.36195
0.8203739,85.10469
0.709588,83.16697
0.7150336,81.078445
0.7440304,78.23982
0.67520994,76.82958
0.6616991,79.945
0.65419394,79.5513
0.6138799,79.47106
0.5206137,74.60555
0.5038424,75.164856
0.5173229,72.240776
0.37402055,72.49047
0.39313796,74.371796
0.33500883,68.095604
0.46721208,67.97117
0.37544912,70.55898
0.40787005,70.10658
0.41492766,69.5074
0.32016432,68.11641
0.37527493,66.1187
0.4099391,63.998577
0.32148084,66.52484
0.34172875,61.31274
0.36108088,63.107838
0.3039556,62.774815
0.34092492,62.81213
0.37169826,59.01112
0.36386186,57.5167
0.4107818,56.68691
0.3402313,61.704098
0.25601813,56.672478
0.27337655,61.98674
0.34190723,53.820618
0.25627813,59.14332
0.12787572,59.564007
0.2323306,58.502254
0.11355023,53.39494
0.15797281,59.187695
0.049480274,56.228725
0.05545226,58.241287
-0.019407881,61.193737
-0.027751964,55.06569
0.00036064986,57.589764
0.000600488,59.269108
0.033280894,56.542107
-0.024416737,62.090614
-0.02570605,60.94681
0.09654018,68.38417
0.0009895461,70.83338
0.07760152,67.47913
0.2176458,72.15363
0.18545893,66.84973
0.3607128,68.61975
0.3732341,71.42617
0.54347646,70.42488
0.5145837,76.87255
0.6554315,75.68286
0.5860213,76.61623
0.77496165,78.89683
0.7733947,82.17014
0.9815347,86.12518
1.0577916,86.7429
1.0871537,88.68804
1.1009954,88.030846
1.1540378,89.395775
1.2617513,93.11777
1.2535617,88.83595
1.2909507,95.930855
1.3657867,96.64687
1.356043,97.05493
1.4061321,101.66268
1.4473358,96.170494
1.3726362,104.65573
1.4327945,102.71615
1.4517139,100.618095
1.4248016,106.75859
1.4636502,107.625145
1.4806639,103.33587
1.5390493,105.44128
1.5036167,107.17734
1.4147853,106.56825
1.429166,107.76177
1.5505304,105.68805
1.3622385,105.87832
1.3959075,104.837685
1.4562241,105.59318
1.494487,106.89832
1.3697209,108.24966
1.4884286,104.92696
1.3887862,102.09622
1.3413789,104.91793
1.2731761,104.70028
1.3906682,103.24726
1.2102731,103.887886
1.2586861,103.596634
1.2613238,99.45227
1.1996899,100.88019
1.2096701,105.27179
1.2224385,100.81996
1.140975,90.68302
1.2079601,100.96618
1.2241812,92.99839
1.1159649,98.599304
1.0990993,97.42374
1.1016686,91.73227
1.1928977,91.42919
1.1710805,91.38744
1.1751845,85.435616
1.0970662,90.09691
1.1320074,90.693596
1.1367472,95.02862
1.0594531,88.22168
1.079842,80.16425
1.0496523,81.18826
1.0404974,80.84732
1.0454477,80.33566
0.9764379,79.42877
0.98966193,80.25854
0.8928318,80.30536
0.96988124,76.28943
0.87083566,74.21399
0.8783319,76.135475
0.7989984,79.75604
0.8324,76.508644
0.78952914,73.80393
0.7885588,72.506386
0.659071,72.397415
0.7443546,72.01632
0.7403638,70.13678
0.730497,67.50317
0.67858815,66.25523
0.6193502,67.31609
0.6681305,64.34891
0.67360514,61.294476
0.6166545,69.02145
0.60762894,63.62637
0.70938027,64.17727
0.6565142,64.42
0.6249472,65.47073
0.71883535,59.590954
0.722927,59.814686
0.59168214,57.98601
0.6656995,57.087708
0.70676935,57.236633
0.67875373,55.85
0.5527607,58.36149
0.5603425,56.857075
0.57456785,59.739223
0.5133226,59.664196
0.50912046,55.3326
0.5144088,57.501614
0.40741286,55.84941
0.34034538,59.33967
0.35663772,58.280766
0.34217358,61.335957
0.29376078,61.177193
0.3748828,58.41242
0.36149082,58.60205
0.36719754,63.785645
0.4061468,61.57467
0.4275429,60.342144
0.39528534,64.23729
0.47085646,67.00852
0.66245216,65.62265
0.6313132,69.48602
0.63823265,71.287476
0.8128601,69.99249
0.7560386,73.92504
0.9394239,74.42392
0.8789913,74.752045
1.0279557,76.24451
1.073121,73.509544
1.1741732,78.43052
1.2871836,84.74427
1.342357,84.72447
1.4026215,87.93426
1.4060429,89.3966
1.5500529,95.102615
1.5736126,90.29944
1.6694556,90.71587
1.6356808,93.33436
1.6114218,94.72383
1.7590501,92.232834
1.7355179,97.01999
1.7771825,98.23015
1.8283225,97.5188
1.842309,101.20767
1.8778833,105.39763
1.9491729,99.96302
1.9455154,106.3014
1.8390396,103.57021
1.8630157,107.09105
1.8821853,108.89388
1.8601522,107.91147
1.8822328,105.42666
1.9498177,108.28397
1.7526453,107.12638
1.8911927,106.855675
1.8394458,105.21457
1.8256042,103.13464
1.882856,104.2178
1.7537057,105.11238
1.7328614,105.97914
1.6995267,103.376396
1.7431746,102.58222
1.6476794,104.77635
1.7406038,102.653564
1.592223,103.94117
1.6578064,99.061676
1.5422741,101.30063
1.5471094,103.94894
1.5601041,95.312386
1.6024579,99.52641
1.5417109,101.36375
1.5166754,99.970406
1.4673564,96.36321
1.4794095,93.85228
1.5742017,95.39394
1.4837106,90.74301
1.5401386,92.63
1.4988292,92.02361
1.4719869,87.963974
1.4496232,90.24266
1.4551574,92.89788
1.4344856,84.354614
1.4341301,80.98529
1.4606897,85.41945
1.4390979,83.14383
1.3504103,81.06825
1.3567022,81.08903
1.3618644,79.36836
1.3157444,79.66929
1.2342178,80.023865
1.272001,78.31693
1.1356488,77.83167
1.1850111,76.32135
1.0710045,79.34177
1.1265693,76.49113
1.0551083,72.537125
0.9604268,70.68387
1.0644239,67.51048
0.9869271,71.832535
1.0148463,68.16464
0.89310926,68.412834
0.96208894,68.37979
0.96122783,71.33938
0.9035208,68.30822
0.9257695,64.64023
0.9524243,60.92291
1.0100163,65.6727
0.95373124,64.63504
0.89630413,61.8627
0.8794364,61.21265
1.0195036,54.498226
0.94593954,62.58131
0.8879837,58.36006
0.86809915,59.296974
0.8696135,58.647915
0.77725154,56.146004
0.82089347,53.077347
0.78316826,55.567757
0.7442094,63.12573
0.6857391,61.978115
0.59853643,52.74356
0.69860643,52.379505
0.59453577,60.09721
0.6281307,58.36767
0.59622866,54.192154
0.56861836,59.40425
0.5598546,58.63572
0.5517976,64.51922
0.53075516,66.605225
0.59027475,58.093533
0.49160606,64.65394
0.6086051,63.02615
0.62669003,59.123337
0.7065153,68.94183
0.7166152,69.17134
0.806915,68.31145
0.80280584,72.5345
0.9485251,72.25489
0.9921343,72.38626
1.0195415,76.53264
1.0944748,77.25971
1.21091,77.15816
1.2985033,80.078835
1.3581904,84.855804
1.4490153,86.29637
1.4520214,88.54512
1.4824371,86.49765
1.5222536,88.177155
1.6529593,91.57549
1.727458,92.64208
1.743926,95.815834
1.7283664,93.342804
1.7142774,94.48612
1.8805544,94.85672
1.9086032,98.78828
1.9017338,102.4178
1.9057243,105.224724
1.8791207,98.91629
1.9150337,101.81826
1.8438693,105.21824
1.9672977,103.79731
1.9330088,105.67045
1.9492569,106.36834
1.8407687,108.221016
1.8601779,110.78863
1.8747411,106.735405
1.9385772,106.93292
1.7520785,104.8167
1.9230689,109.16246
1.7974434,106.74387
1.7666682,102.97759
1.8138905,105.821335
1.7704726,104.45955
1.6541306,105.67755
1.7688713,100.78271
1.7237372,103.62888
1.6421751,100.54962
1.6905394,103.55162
1.6368953,102.195946
1.569509,104.09546
1.5702112,103.73695
1.5146829,99.16167
1.537698,100.54492
1.437121,95.64222
1.4602832,97.84365
1.3795363,97.13589
1.4010892,98.900536
1.4073784,94.52737
1.4171017,93.71664
1.4448131,91.92158
1.3695514,90.26293
1.3444883,89.32165
1.2774652,91.38551
1.2802247,91.65521
1.2399563,86.46949
1.2560306,86.01406
1.3411366,86.114944
1.2832794,86.245865
1.2376231,84.23682
1.2451184,80.908585
1.2114815,83.32364
1.0973352,85.79365
1.167906,76.638756
1.0746167,76.93253
1.0054637,78.9131
1.000739,79.37109
0.9114757,78.53153
0.9137809,76.690315
0.8621316,75.90016
0.8488828,74.32497
0.79811895,72.4351
0.7802541,74.27491
0.7783488,70.529396
0.7664897,69.34302
0.69283944,68.511116
0.7282345,65.39771
0.6649662,69.99455
0.8105986,64.85551
0.7690067,66.10048
0.74267095,68.46579
0.7323792,63.44522
0.7365409,64.2931
0.68957466,59.704422
0.64133465,60.865093
0.6493458,62.684868
0.6925662,60.178978
0.6806407,62.311966
0.570451,58.17455
0.6387963,59.556206
0.5384178,55.939342
0.5366343,57.84682
0.3995641,51.843864
0.42215315,60.90923
0.40128174,59.18887
0.36115646,58.888763
0.32618225,57.874912
0.4087424,57.312725
0.34168398,61.064953
0.2889959,59.858894
0.24299651,60.38955
0.21341668,61.8812
0.22890007,61.078175
0.20036504,59.341057
0.197426,62.434696
0.14732043,67.01117
0.19417669,62.09109
0.34666544,63.057926
0.28221458,67.78044
0.38361126,69.80735
0.46912083,68.24289
0.49570158,70.16288
0.6452551,75.7538
0.60297644,70.11389
0.6639471,72.05341
0.78566074,78.86625
0.86400527,79.484924
0.8898796,75.34375
1.0310751,79.32144
1.0155756,88.42268
1.114367,82.5619
1.2386215,89.95279
1.1668946,85.27524
1.2908814,91.502426
1.3137964,91.43372
1.3764817,92.234985
1.3856302,94.25492
1.4224167,100.70888
1.4339345,104.632065
1.4590961,102.77203
1.4455694,101.0639
1.5201627,97.77596
1.5908308,101.32765
1.5012037,107.10666
1.5692466,101.576485
1.5391427,102.29934
1.5940657,105.99959
1.5587926,105.216446
1.4764405,105.51279
1.4982706,103.26369
1.5362102,106.94494
1.3607037,110.423164
1.4057935,105.47349
1.4529332,104.515366
1.4897549,107.32632
1.4779133,108.33183
1.3323541,107.928406
1.4242448,105.847824
1.2953869,104.87336
1.3269687,103.2771
1.278803,106.977974
1.219383,105.50418
1.1688973,102.04305
1.0917829,99.83567
1.134989,98.1135
1.1210372,100.92671
1.0425842,98.21599
1.0913389,97.60964
1.083152,98.39061
1.0400238,97.6609
0.97640294,96.7774
0.9932469,97.42138
1.0674614,98.3835
0.98255384,90.71059
0.9209966,91.85735
0.96791047,90.955505
0.9211154,88.771706
0.8879769,86.76147
0.96935403,84.23342
0.90356886,90.29127
0.9165506,84.58727
0.8973269,82.05219
0.8580695,85.522606
0.79433936,80.54733
0.7750352,82.175545
0.7317633,81.87234
0.7504271,78.28569
0.7227629,79.58029
0.6326935,78.48265
0.6546676,79.60256
0.54061955,76.68885
0.5487261,83.952934
0.50403935,77.233925
0.5659235,72.05491
0.4315572,72.912796
0.48155868,74.11168
0.424397,71.35147
0.3656996,72.04072
0.3740704,65.51701
0.45238262,63.58229
0.34145117,63.666092
0.33861786,69.78864
0.37278342,65.792366
0.3212458,62.449608
0.30053598,64.460815
0.35370463,67.99655
0.34856227,63.633556
0.35478252,60.473408
0.31987154,62.33677
0.3805239,58.948345
0.41754425,59.09969
0.22746119,60.531345
0.26869377,60.088795
0.23257609,59.22788
0.18796496,56.67974
0.22519848,57.978535
0.2018215,57.47077
0.11301374,57.017815
0.15310791,54.44936
0.06763535,57.570225
0.06705709,56.11684
0.07043108,58.01538
-0.07183565,53.798668
-0.06627781,55.859783
-0.041247543,58.883965
-0.09218169,64.606125
-0.033528127,57.649982
-0.02968348,58.3657
0.0006661828,63.14618
0.018305074,67.49609
0.029638913,61.831726
0.030122135,62.444603
0.13462992,67.23784
0.12345656,66.68495
0.19966206,71.518074
0.38482833,75.42637
0.40558437,76.42554
0.4535635,73.35773
0.48190442,74.03419
0.63829243,76.21693
0.58834225,84.2332
0.78810465,83.66179
0.75720495,82.50348
0.905922,84.27037
0.94144344,83.156105
0.97307986,89.04441
1.0343851,86.12986
1.1248691,90.687515
1.1547202,87.359406
1.2704933,96.64875
1.2127987,93.88013
1.2949288,97.28107
1.2406791,100.34804
1.3578993,100.79572
1.3131193,102.746
1.3475475,100.329025
1.3627125,103.542305
1.405091,103.434235
1.3733529,104.78767
1.3510458,104.12971
1.4525812,102.75757
1.4101844,106.45654
1.3946303,106.23859
1.3116285,107.13302
1.3880284,110.32487
1.3911793,105.35827
1.3607247,107.22835
1.3245244,108.94422
1.2783488,104.55981
1.258991,106.04604
1.2171906,110.3791
1.3156852,103.91084
1.2190332,104.099266
1.2103521,99.01409
1.2941155,105.42955
1.184051,101.05
1.1840159,101.32786
1.0883758,100.787415
1.1765113,100.092125
1.021637,97.03101
1.0955391,97.37696
1.0960442,103.802185
1.0527191,90.639465
1.0093024,95.51303
1.0674814,97.9422
0.98429376,91.71529
0.99078345,92.15469
1.0021335,96.23496
0.9182339,89.136185
1.0239708,90.32626
0.97036225,87.90066
1.014654,89.870995
1.0306187,87.20407
0.95544976,84.58991
0.9426035,83.48394
0.8577048,83.03357
0.89641684,83.27237
0.9126106,84.86957
0.8355912,83.94328
0.8967711,84.34651
0.85512376,82.19273
0.7832086,80.8835
0.7364679,79.98946
0.6644025,78.22578
0.7326255,72.385216
0.6364715,73.03876
0.6733966,74.15905
0.5925007,73.843475
0.5445575,71.05119
0.5384386,73.95336
0.4807361,71.74131
0.5100678,69.19613
0.4950306,68.47721
0.5067523,67.944786
0.51246357,69.35567
0.49202415,67.727486
0.5715714,69.93068
0.48418468,65.60216
0.50358826,69.17144
0.5240358,63.616913
0.4783664,65.669464
0.50754076,61.201912
0.45787674,55.249992
0.6063485,55.925323
0.50151765,58.589256
0.4074631,57.630043
0.48846677,55.616096
0.39382342,58.115746
0.43927503,54.208378
0.45100272,58.39523
0.36175758,58.325603
0.32571277,54.582874
0.25864816,62.206493
0.28264436,57.4507
0.23040879,58.23039
0.23266903,56.202927
0.22238673,57.464886
0.2350698,60.496876
0.17809956,60.671513
0.2403219,62.36463
0.09601562,63.20324
0.172212,57.976215
0.24958023,64.88225
0.23787276,64.58789
0.3290249,62.12553
0.32805356,63.38018
0.3664658,69.02076
0.45492178,65.24302
0.50724185,70.4869
0.66184866,69.540054
0.68217546,73.782265
0.6924104,73.48678
0.81526476,75.27625
0.81862867,78.83951
0.99446213,76.18663
1.012406,86.43715
1.1625204,85.08739
1.1148367,82.627335
1.2698729,84.85155
1.3584857,91.547264
1.3348688,87.120766
1.3825282,95.077835
1.5008401,95.42888
1.5501274,94.32133
1.5518317,96.20528
1.6339613,101.148094
1.6273755,95.85192
1.6331038,102.27122
1.6063493,98.84204
1.6639028,105.79339
1.67413,102.78595
1.7825867,100.241806
1.7398739,106.79199
1.7489828,103.79734
1.7117524,108.83285
1.8267832,108.53804
1.7175595,109.45255
1.7807584,101.630844
1.7584187,105.75295
1.779116,108.8455
1.6238256,110.57663
1.6891564,105.06144
1.5962254,106.82404
1.6876624,105.86221
1.5857093,108.59772
1.6397153,99.4338
1.612631,104.743095
1.5815314,104.09187
1.5419749,103.8079
1.5289763,108.30517
1.5007476,99.751076
1.4824291,102.264534
1.4714345,100.949196
1.3777565,96.23632
1.5031753,101.14596
1.5232064,101.9078
1.4582735,99.138695
1.3741616,97.91861
1.4758452,94.80738
1.3679855,93.948685
1.3353432,93.77023
1.3423529,93.767685
1.432961,91.49865
1.371046,92.65335
1.3349651,89.17643
1.3509394,90.96654
1.3795398,83.72519
1.2798197,85.294334
1.2837722,84.48619
1.3310057,81.22513
1.3119015,80.576935
1.1908513,85.56308
1.2697932,77.980515
1.2051117,80.98413
1.2128509,79.65005
1.1985264,84.798775
1.13446,78.41005
1.071989,81.68224
1.0201885,81.095085
1.0903187,73.714035
1.0037785,72.093254
0.95430946,74.44088
1.0048494,72.90581
0.9296638,71.68246
0.9215489,70.77863
0.93846405,66.198746
0.89672315,69.03789
0.9632442,67.75951
0.8107608,66.22399
0.85817593,64.41149
0.833554,65.308365
0.8306878,67.72512
0.87889457,61.346542
0.8708018,60.07295
0.8577504,61.62028
0.8805239,60.7621
0.7986672,56.342823
0.9160549,58.32837
0.88000095,62.776207
0.86211914,62.129684
0.8281393,57.845974
0.8293944,59.416832
0.8478381,60.548878
0.776171,61.332207
0.81565136,58.128178
0.6951608,57.136555
0.57828206,52.905403
0.6218454,53.596516
0.6292413,53.86779
0.5451645,56.536552
0.46253112,60.78127
0.5154684,61.310223
0.6204715,58.371273
0.5471126,61.727936
0.47811446,63.037033
0.57573074,63.543064
0.55319476,62.291187
0.55792224,64.809364
0.61310756,65.901405
0.7191849,67.546524
0.77235883,68.61244
0.8869023,69.7602
0.8740655,70.73483
0.9168958,74.68213
1.0652238,74.50755
1.1174307,74.02405
1.2311156,77.7891
1.1814156,77.51424
1.2942296,83.06725
1.3895252,85.77298
1.491824,87.39345
1.5120225,89.091965
1.5913306,86.24219
1.6666206,91.4122
1.7069144,90.022446
1.7401029,88.42539
1.7262379,97.346985
1.7519686,99.64647
1.8432162,98.565605
1.9252036,100.974075
1.892305,104.26001
1.8430778,97.312775
1.9830811,101.482574
1.8919382,102.45142
1.9604907,106.443985
1.9859881,106.56362
1.9770344,105.16822
1.9220628,105.89297
1.8876009,106.75546
1.944721,106.361015
2.0068674,106.33255
1.9018996,109.51729
1.8838683,108.3963
1.9307942,108.786865
1.9918306,108.73391
1.8668879,105.179756
1.8074543,108.76436
1.8859366,105.669106
1.7882069,107.24251
1.7991874,106.263016
1.7626804,106.47947
1.7226307,107.42608
1.7042059,105.93162
1.6625437,100.77017
1.6368419,101.67891
1.6202937,98.82893
1.6301364,101.23188
1.5551945,100.50159
1.5921202,97.093506
1.6128805,94.37693
1.4895989,99.684746
1.4944011,96.18419
1.5065467,98.77245
1.5442038,92.15268
1.559966,93.77642
1.4727091,91.57378
1.4661951,89.80879
1.4058676,91.41345
1.4442309,89.28977
1.4352334,86.235176
1.4699954,83.394966
1.2964131,84.85068
1.402608,79.41854
1.3120033,83.06898
1.2448376,80.59087
1.3388956,81.15953
1.399616,79.95172
1.3110152,78.52529
1.2242025,77.196045
1.2081867,78.29801
1.1292156,75.04929
1.102692,74.33106
1.1463962,75.61745
1.0550255,77.98665
0.96226716,71.903244
1.0135326,73.065926
0.8759945,72.669365
0.96562445,72.01422
0.79706335,73.49311
0.8098278,71.30548
0.81154925,67.49092
0.7920808,64.92754
0.8624018,69.35
0.8351803,64.05708
0.9056745,60.770172
0.82096994,66.400215
0.82054,61.56322
0.8346342,57.95007
0.8188889,62.150536
0.81155586,58.887775
0.8020313,66.20306
0.70821404,61.768127
0.8078902,56.49341
0.7110544,59.721535
0.7467199,57.462612
0.7377173,59.843666
0.65711343,60.56729
0.6207415,59.510796
0.578053,57.32015
0.5331356,62.523785
0.5632553,52.08021
0.51158816,54.26625
0.45034385,61.54679
0.44954568,58.244545
0.39062676,58.393093
0.3690072,54.753162
0.35284528,58.626434
0.44079491,60.287807
0.4361461,62.90644
0.39321184,62.268738
0.42440602,63.25644
0.4220198,63.68367
0.4970255,67.36604
0.5405221,68.56069
0.6767278,68.101616
0.57690424,69.35529
0.808582,73.75647
0.76417106,79.43554
0.79655117,76.0086
0.86647516,74.83407
0.95977515,79.80278
0.98104876,77.36046
1.0891992,81.40838
1.2011175,84.990974
1.3008311,92.71852
1.2981473,86.7843
1.296643,92.598854
1.3978815,88.49056
1.4117777,90.86256
1.455181,93.17863
1.5560983,99.21744
1.626729,101.67123
1.6591309,96.48228
1.7488449,97.9002
1.6190004,98.47902
1.7089487,103.90991
1.7025204,104.13628
1.6328654,101.26025
1.6225138,105.606674
1.6363379,105.805565
1.7973049,110.66333
1.6961243,104.72841
1.6750185,108.78654
1.6237495,105.72146
1.692767,105.85783
1.6830629,107.583176
1.6484748,105.042076
1.663416,108.56684
1.58688,106.46038
1.5896388,107.57677
1.4698116,104.939896
1.5683603,106.196335
1.548255,107.99164
1.4253953,107.41094
1.484319,104.48136
1.3742511,102.85039
1.4573902,102.72982
1.31359,99.52739
1.2933335,103.61572
1.2757902,101.09358
1.2265332,98.12308
1.169587,98.09718
1.1570671,97.59858
1.2179248,97.80404
1.1518209,94.31167
1.2653687,99.49804
1.1174206,92.97683
1.1192175,93.18399
1.0916281,90.19355
1.0835451,85.55641
1.1516029,91.52543
1.1201386,89.79098
1.0337316,94.27762
1.0446113,88.40021
1.0140486,87.65579
1.0286672,89.582664
0.98065877,83.368225
0.9560234,83.21887
0.9340263,81.28749
0.8630956,82.655655
0.94685704,80.163635
0.9574389,81.167595
0.8529382,82.04813
0.8250946,80.11524
0.7761181,79.65984
0.6342454,76.29751
0.7028452,73.10627
0.6172479,72.09332
0.58901805,73.061676
0.5956795,72.01542
0.51828873,70.15153
0.54842037,70.9205
0.45697463,72.69598
0.4783486,67.63951
0.46560994,67.67009
0.4541131,69.738174
0.5647938,66.06254
0.4831498,65.55631
0.46390015,65.43288
0.46181715,60.144497
0.47292697,64.599945
0.3544555,62.420906
0.41722077,58.065063
0.41855446,65.93186
0.42460737,57.523567
0.39716563,57.63698
0.32740885,58.558105
0.39939982,60.955284
0.329214,58.51062
0.21521617,56.208057
0.32125655,54.52885
0.3363865,57.89689
0.19696188,56.23851
0.120027795,57.490246
0.11689446,56.604633
0.067529514,61.11269
0.044813987,56.205906
0.0908359,58.704426
0.0068811644,58.30478
0.009110355,57.712864
-0.037646234,63.13053
-0.042593908,60.33674
-0.006667064,62.84693
0.09628222,64.782196
0.011331543,63.36652
0.13769671,61.160538
0.1791253,64.762314
0.24824405,65.61902
0.24435148,70.89491
0.25410524,70.21903
0.3273523,77.110245
0.4556123,67.10917
0.549399,73.68898
0.52066123,74.32453
0.6949278,78.71335
0.68200904,85.11464
0.8504516,81.52572
0.89037853,82.26512
0.97070795,85.99372
0.9040518,88.97604
1.053575,87.14184
1.127229,92.533775
1.1066492,88.30406
1.201991,92.093704
1.2075316,99.21685
1.1817385,94.34721
1.2458684,95.01197
1.3575013,98.13267
1.3945807,99.26043
1.4372526,100.39782
1.3464892,98.952705
1.3116608,101.80564
1.351525,104.05823
1.3674872,104.457695
1.4147313,104.42297
1.3576875,107.458824
1.3325986,107.06279
1.3452452,109.31313
1.3883657,105.7467
1.3924139,108.0363
1.3539014,106.226814
1.2935332,108.25343
1.3064553,109.667175
1.2953035,103.48599
1.2786704,106.763466
1.2579144,105.50781
1.2670423,105.21297
1.1931633,102.278984
1.1944894,103.938484
1.1388161,100.4894
1.1764456,103.61432
1.1356908,102.76284
1.0703113,96.489365
1.0101148,97.94254
0.94096625,98.744125
1.0116674,95.09579
0.99538946,95.71086
0.9684715,96.52727
0.92732495,92.29116
0.9744788,95.744095
0.93587345,94.90938
0.9097554,90.831924
0.8804193,91.59194
0.9364747,89.05865
0.9010425,90.55163
0.8229562,90.526505
0.80721384,89.15555
0.86928666,89.43867
0.895174,83.310684
0.8147229,86.92235
1.0030667,85.73929
0.805236,84.12915
0.82733166,83.07954
0.6997769,83.68384
0.6946291,82.535835
0.7288276,79.35015
0.7207437,76.936516
0.59051406,76.76344
0.5902408,72.67283
0.57522416,78.81512
0.51050377,77.21496
0.50763065,70.722916
0.5371688,71.08804
0.3839491,71.904045
0.39243168,72.33494
0.46905285,69.89941
0.42246538,69.062965
0.36877665,67.804184
0.4017228,66.32505
0.38959154,65.56709
0.4525174,61.712017
0.38496536,60.26635
0.35611054,66.12278
0.3443315,67.70373
0.32035407,64.415016
0.37205783,62.61328
0.37905502,61.444607
0.3302865,58.301823
0.3218606,55.878548
0.2530818,60.283813
0.33105618,58.00477
0.33993116,61.269173
0.34557566,57.50396
0.25895864,60.564808
0.23545633,60.189312
0.15102024,60.418144
0.18627362,56.349613
0.12912807,59.0917
0.12371068,54.501137
-0.030146852,59.04463
0.046939883,61.87748
0.07739726,58.834816
0.022783818,61.23004
0.025907792,62.36111
0.10354211,58.400307
-0.07671029,55.379665
0.043991234,65.249825
0.048756402,65.02011
0.13950603,66.97174
0.17485785,65.760254
0.1707813,72.78243
0.31193608,63.97311
0.36518666,69.0022
0.4518746,74.00902
0.49652332,67.86807
0.56187856,71.70329
0.6417921,73.02692
0.7549104,78.837776
0.74524283,77.29279
0.8550277,81.20752
0.88580465,81.99407
0.94067764,82.12735
1.065436,90.033035
1.0870183,89.43713
1.1615587,88.97445
1.3095151,89.90528
1.325562,96.66602
1.38639,94.03059
1.380337,96.6185
1.3599313,99.483955
1.4820998,97.10447
1.4773293,98.710205
1.4551021,103.54256
1.5753453,101.82078
1.572079,103.24651
1.4905689,106.74614
1.5075057,105.89698
1.5534037,103.96279
1.5685601,108.36251
1.5840869,106.784325
1.5836457,104.70438
1.6474023,103.36268
1.5278733,105.57745
1.4800421,106.373886
1.5837793,105.370674
1.586022,110.24665
1.5071113,103.54684
1.5163262,109.46799
1.4803076,106.80214
1.5318537,103.98479
1.4004844,106.078735
1.4240916,103.090485
1.3758138,101.60082
1.3540714,101.990105
1.4239019,103.03681
1.2831534,99.71854
1.3126551,101.01412
1.3878759,98.91711
1.2530721,101.67635
1.2976816,98.209465
1.2683116,95.532234
1.2496384,95.902435
1.307742,97.74843
1.2568375,96.679726
1.2433889,95.62834
1.2631706,96.12064
1.2195969,91.028305
1.235999,92.57541
1.2059377,91.05763
1.2508473,87.74217
1.1306655,84.2594
1.2057627,86.785286
1.2444211,85.44938
1.1507871,81.70149
1.1526442,80.5191
1.1199733,85.0332
1.0823311,80.02257
1.0993462,80.953285
1.0317111,82.45382
1.0219218,84.22562
0.972887,74.05291
0.97706836,77.22971
0.97015,79.83148
0.8710368,75.15659
0.8250921,74.11793
0.7803116,75.91255
0.8861876,73.02972
0.82442755,76.00769
0.7680482,73.69877
0.7257372,66.482506
0.7306354,66.911514
0.6950111,72.231476
0.8106681,67.263626
0.716497,66.225136
0.76198775,66.45762
0.7286453,67.56189
0.7438988,68.57631
0.6941424,60.416035
0.749125,58.234344
0.6955693,65.87013
0.7929315,60.79984
0.6857959,61.133472
0.76380634,64.87252
0.821274,57.517868
0.7291867,55.014076
0.6560174,60.483543
0.65463394,57.107216
0.67920697,57.64093
0.5501401,56.26115
0.5781541,60.343132
0.54089785,54.418873
0.5878244,59.26346
0.5156669,60.7559
0.5385171,59.305653
0.46008053,53.733555
0.50189894,58.386055
0.3883599,60.834213
0.37404087,61.436558
0.45138344,63.021458
0.44706854,60.025196
0.4923493,67.00751
0.47053218,64.58943
0.59762055,65.70718
0.48864686,62.377796
0.691005,64.88305
0.68670064,69.603035
0.74891645,69.07838
0.7956007,71.79801
0.92426443,72.3392
1.0085447,80.97465
1.0926996,77.26168
1.1658115,79.56906
1.2258542,80.30878
1.1972501,79.77044
1.3131582,86.415825
1.4932654,85.729164
1.4588144,82.753075
1.5113163,90.9597
1.6292628,87.91109
1.73708,90.54255
1.6494337,89.05926
1.7761022,91.15923
1.8336962,94.28369
1.800778,99.00773
1.8224038,97.41689
1.9340047,101.720406
1.8486449,101.05262
1.9505758,103.73709
1.9293001,101.276115
1.9175744,101.66433
1.9818426,108.33549
1.9637957,101.17218
1.9401603,105.97179
2.0330884,109.498344
1.9204319,105.45269
1.8113627,109.08886
1.9036481,106.88928
1.9106661,105.982544
1.9630961,104.38324
1.8872136,105.7427
1.8445295,109.95125
1.7909943,107.21086
1.8267195,105.43088
1.7632852,106.68225
1.8158638,103.8739
1.8510375,104.14835
1.7777876,101.72801
1.7113818,103.456955
1.6817544,102.624794
1.6251264,100.64139
1.6077282,101.05097
1.6447688,97.70665
1.5343103,97.36247
1.5579737,97.988914
1.5059686,96.33648
1.5545365,95.42738
1.6265322,94.60796
1.6039661,97.78583
1.4817107,89.24582
1.4730853,94.33695
1.5030755,94.15393
1.4463722,89.956505
1.4206535,90.41717
1.5328183,87.41035
1.5145191,82.9039
1.4297913,87.020164
1.4141077,86.25823
1.4208463,87.50453
1.4043493,84.096085
1.3482218,83.98037
1.3730031,81.10883
1.2923466,79.545784
1.2695547,78.30572
1.2487592,77.36857
1.2233359,81.79027
1.2393543,76.23634
1.1302795,70.57536
1.0467955,77.50489
1.1080754,77.19237
1.0876071,73.85738
1.0520126,71.98616
1.044333,70.31224
0.9463057,75.28797
0.98922426,71.55543
0.84490144,75.74285
0.95993555,67.32714
0.9085733,70.0342
0.9863252,71.2647
0.96032083,67.28674
0.9296573,63.291683
0.85076106,64.49063
0.9196142,64.67655
0.8655367,60.56818
0.8822487,61.903217
0.8856912,61.03994
0.8650222,62.491806
0.8662686,58.18677
0.8825018,62.038177
0.8842134,58.728832
0.8149225,61.651836
0.7938017,58.45735
0.7624953,55.540253
0.74347895,60.483315
0.70630497,55.86336
0.66424847,55.064934
0.5364218,57.527657
0.73397076,57.31289
0.5764322,58.446407
0.54233366,60.286095
0.50832665,59.753918
0.5295244,57.783237
0.5203891,61.304523
0.5935569,63.187653
0.47071922,63.700176
0.5403677,64.09913
0.5760477,65.06885
0.5812227,60.214397
0.64882,63.383934
0.6351499,67.305626
0.69265693,70.989624
0.83392423,72.214516
0.85755366,73.05034
0.9913745,75.816284
1.0218655,75.0555
1.1012901,78.45309
1.1344193,77.38336
1.3003881,80.36465
1.3143337,82.29775
1.3575824,82.14811
1.4073839,84.25348
1.5169379,82.6223
1.5843687,88.25074
1.5911242,87.17046
1.6735729,90.47178
1.6763585,93.0796
1.7446953,94.59478
1.6856366,94.3002
1.7285069,95.27156
1.7856108,101.85034
1.8035554,98.66822
1.8802171,104.041985
1.861722,102.89042
1.791364,103.055046
1.7687788,103.53899
1.8537127,103.87868
1.8553568,105.56718
1.7992232,108.2747
1.8755606,105.058624
1.7459358,107.12102
1.8465248,105.63146
1.7414626,107.39097
1.8388283,108.98941
1.745508,108.12393
1.7021954,101.8033
1.7145178,108.09513
1.7790917,107.35235
1.6655799,106.08485
1.6482471,99.953125
1.5701566,101.889595
1.6349782,106.06678
1.4765185,105.29721
1.5394577,105.53507
1.5088077,105.60686
1.5004593,99.36559
1.506615,101.00057
1.4927799,99.541405
1.3705572,95.32302
1.3117094,96.952194
1.339572,95.75508
1.2912378,94.04191
1.3768233,100.03382
1.3431065,91.18985
1.2886845,94.19663
1.2144402,95.45341
1.2236408,90.12873
1.3010082,89.723724
1.1678237,87.47446
1.2211998,90.62745
1.275666,90.315865
1.1568512,85.06324
1.1964922,86.29576
1.228345,87.02106
1.0734826,82.38663
1.1822078,85.6732
1.0516071,77.32014
1.1102444,80.24658
0.9707054,80.16372
0.96676123,78.94959
0.8721587,78.11648
0.9372581,75.64499
0.8325282,75.38792
0.83707035,78.32007
0.7846309,77.00939
0.78450596,71.15442
0.7961126,72.84855
0.68040687,70.62717
0.71490914,74.17908
0.68131304,69.07579
0.6621021,63.444035
0.58558446,66.69495
0.63374525,67.9393
0.6083771,62.818813
0.63393295,68.99528
0.5616088,66.257484
0.48183006,62.525013
0.6279606,64.82806
0.51329046,64.75685
0.5615187,63.44433
0.46865124,58.03529
0.5649939,60.49861
0.60282505,55.586464
0.5082209,55.403217
0.47285166,59.06553
0.48920605,56.462807
0.3614477,60.245434
0.40269125,57.119587
0.26105145,58.11162
0.34433395,51.199806
0.33739492,51.922318
0.28317595,58.50441
0.16341674,55.281013
0.28796187,57.411022
0.17681433,61.912956
0.11376591,60.142117
0.14255677,62.98037
0.13445744,61.73912
0.14260072,61.27995
0.14105055,64.90824
0.15441184,61.243534
0.26247525,62.263004
0.22835207,67.71317
0.3097816,69.362816
0.30834734,72.80395
0.36751676,71.456764
0.47274148,69.17363
0.5162505,70.03564
0.4583036,72.227005
0.6373313,78.111
0.7095381,73.34467
0.75724,77.86188
0.8590516,83.2589
0.94249886,80.6866
0.9176402,83.74282
1.0341778,87.60652
1.0953506,88.0174
1.1795877,87.642624
1.1765382,86.865105
1.2866248,93.18248
1.3664796,91.605194
1.3612684,96.94526
1.3724108,97.736824
1.3666513,103.3148
1.4482167,97.88682
1.4245043,99.953026
1.5205301,100.92271
1.4045184,104.06308
1.4894648,105.12131
1.4530426,102.22756
1.4513527,104.08187
1.4765115,102.133446
1.4861039,105.84921
1.4090858,103.786285
1.3175161,106.632965
1.3812348,107.62774
1.411327,108.41029
1.3770024,107.71696
1.3927572,108.95671
1.3648287,108.08146
1.2842535,106.49305
1.2986655,106.00791
1.3088372,102.889015
1.3024665,106.39716
1.2867885,103.19794
1.2206743,103.982086
1.111577,105.225
1.223094,103.75037
1.0769578,104.77856
1.1117768,102.70624
0.98235726,104.21382
1.0232322,101.03295
0.98810935,101.82941
1.0313659,98.603165
1.005477,96.34488
0.92549086,98.19297
0.94601446,88.993195
0.96663404,92.959015
0.83702004,90.066895
0.94200575,90.66024
0.9029505,86.69568
0.9789799,88.09866
0.8356114,90.982376
0.8692485,90.228645
0.88477665,91.21463
0.8312476,85.52242
0.81869656,82.873856
0.7904893,84.68917
0.8631724,85.10986
0.779429,79.82905
0.7076133,84.02094
0.70580304,83.43142
0.696412,74.97757
0.6585171,82.30376
0.60263264,78.80856
0.51762706,73.140114
0.5596779,76.58606
0.4550928,73.79426
0.4278902,73.26523
0.43172327,72.86109
0.46819493,75.18664
0.37664592,71.04179
0.3175526,71.40773
0.333113,70.353676
0.40266714,68.9268
0.33356935,65.83072
0.3876117,67.42141
0.28997198,63.030773
0.31036234,64.26801
0.34689945,58.26765
0.26022023,60.66083
0.3804898,59.91688
0.3577607,66.94152
0.22154373,58.394585
0.2867186,54.630432
0.30641237,58.67724
0.31353882,58.09896
0.27451587,56.327026
0.212536,58.340797
0.23667522,56.8556
0.18420175,54.073895
0.19457677,55.28668
0.108434066,52.451984
0.13908027,57.941753
0.05536032,56.00095
0.043434374,56.15785
-0.008927538,54.97457
0.033771582,57.195362
-0.016630594,60.445026
-0.06042275,58.37758
-0.059346557,63.088284
0.01602867,60.52729
-0.03205792,59.187496
0.01301777,64.56529
-0.01586016,62.83361
0.020441592,64.42396
0.0715159,64.556854
0.13673587,64.81397
0.15863228,66.30817
0.30052766,70.597145
0.24900742,72.11417
0.38248733,76.586754
0.4397575,74.35576
0.4921444,73.09468
0.6459382,77.55079
0.65129346,84.36495
0.7985552,82.892876
0.83042336,82.762825
0.9585354,83.83685
0.98286587,87.325516
0.9699983,87.4107
1.0729334,90.32106
1.1425225,91.11062
1.2420155,93.70032
1.1734306,94.59815
1.1786081,97.76518
1.203336,100.80131
1.3756051,97.55181
1.3092009,97.7282
1.3833967,100.166824
1.4921614,99.24321
1.3556902,100.4302
1.3837736,106.762985
1.3794515,100.57388
1.5126309,104.81641
1.4604751,107.17139
1.4096589,108.94362
1.4013761,105.67211
1.3860348,107.0729
1.4282192,107.733025
1.3548338,105.967224
1.3893774,107.317856
1.3965954,109.16146
1.3980936,99.746254
1.3119763,103.083855
1.3315848,108.98317
1.3173493,106.49249
1.3249387,109.13794
1.2795492,105.25577
1.2105948,103.415695
1.2608933,103.917915
1.2534498,101.10434
1.1853013,100.64888
1.1852504,104.538445
1.082994,96.82012
1.0945865,96.16076
1.1254117,97.48386
1.1041067,94.06741
1.0038681,96.64515
1.046072,97.26336
1.0756056,93.21321
1.0410614,96.27846
1.0844628,94.24619
1.0979935,93.227066
1.1117126,90.245476
1.0670682,86.36708
0.9954823,93.24205
1.0372729,90.52149
0.9950575,85.93953
0.9671208,85.6035
0.9727261,83.61525
0.9217253,88.5517
1.04928,83.74663
0.91168195,79.627045
0.90499383,80.163055
0.9864318,82.54637
0.94752234,74.521385
0.83815366,77.83274
0.7989969,76.00217
0.7901168,76.42307
0.70736,80.18417
0.7133438,78.39163
0.65830946,74.22698
0.699932,75.05026
0.63126314,73.35901
0.6072193,67.93489
0.62351143,71.409134
0.6432965,73.0568
0.6471849,61.72954
0.58771145,67.84035
0.5188558,68.95323
0.5404493,65.44502
0.5347272,64.46484
0.6354234,59.641006
0.6564045,64.356155
0.5931546,62.842808
0.55160546,63.495804
0.5077402,61.71623
0.60057664,57.142677
0.5678532,61.64005
0.45833072,58.28405
0.57831246,57.0723
0.44613826,59.481407
0.4983739,52.666615
0.50830287,61.351624
0.46533176,56.449482
0.42456833,58.28306
0.31948492,55.367188
0.35270444,54.453217
0.30328956,60.433167
0.36917332,61.6577
0.30382818,56.81971
0.21008168,58.678005
0.29880244,56.57527
0.2211236,61.2763
0.28241652,59.916252
0.211681,62.89297
0.34108126,63.813297
0.38244784,61.510788
0.41435117,63.983936
0.4019882,62.956734
0.48472977,66.06233
0.5244226,67.562965
0.55832434,76.98164
0.634574,68.28262
0.73991036,78.6873
0.84691674,76.74543
0.9280757,78.72516
1.0309376,79.002594
1.244229,81.99973
1.1357231,77.03885
1.2763712,84.98599
1.1812278,84.359535
1.3895739,89.179245
1.5043306,91.510666
1.5516361,88.99289
1.5217226,91.469795
1.5969074,95.35993
1.6126668,97.20151
1.6117606,97.486885
1.6881566,99.14684
1.7800486,97.451675
1.6974909,100.44026
1.7831492,106.03644
1.855195,102.73723
1.7884637,109.02426
1.7625273,97.8337
1.7473285,106.15433
1.8712105,106.18793
1.8327711,108.69459
1.8011748,106.823555
1.8556767,107.37949
1.8007576,108.944214
1.7663293,104.79908
1.7736557,108.03785
1.7859855,105.291176
1.7142401,106.522644
1.7647897,112.07503
1.7511947,106.54128
1.7197992,105.317444
1.6615788,105.601654
1.6379677,102.50641
1.7123964,104.20019
1.617785,104.562675
1.55187,101.09899
1.565581,99.41538
1.5846223,99.11798
1.4971217,103.27562
1.6310403,96.7376
1.4858308,98.61307
1.5550141,100.78111
1.4710279,98.182434
1.4359899,97.89095
1.4506931,93.30718
1.3786737,94.65192
1.4957727,96.24602
1.4626408,90.43339
1.3688385,93.91716
1.4524577,91.786644
1.4960191,86.60894
1.3967227,90.73634
1.4512902,82.20546
1.4713178,91.56457
1.3749602,84.47175
1.3762509,81.30296
1.352918,81.976974
1.3057588,80.597275
1.3373765,82.849464
1.280116,79.99496
1.2704468,79.2017
1.2594284,83.24922
1.2109455,79.06986
1.2319808,80.496704
1.1482415,77.07388
1.0906026,71.64244
1.0364044,73.89131
1.0167341,73.39358
1.0583695,73.041916
0.9492264,70.54102
0.944625,72.539246
0.9445358,66.27231
0.8319956,67.623825
0.8807085,67.00382
0.89696014,66.688194
0.9017734,64.28836
0.81464314,66.47761
0.9109924,64.443924
0.9169254,57.564705
0.8867819,62.57098
0.9108399,58.83288
0.89518785,61.854546
0.94859666,59.741848
0.87943345,54.957977
0.8055783,61.10077
0.8823719,58.87093
0.8221927,55.584156
0.7826216,53.16679
0.76478404,55.621235
0.7495927,54.62581
0.7558776,55.829525
0.800655,61.352318
0.61328506,54.722588
0.6396114,54.76433
0.6169251,63.15827
0.56258786,55.627537
0.5589506,58.04682
0.52317435,59.789753
0.54408365,64.17379
0.47340453,62.903236
0.51373583,58.73866
0.54093426,60.40497
0.60815006,61.5429
0.6411931,66.303
0.7113892,65.09595
0.64966017,68.0476
0.7223441,68.37367
0.8257281,66.59076
0.87238705,72.46283
0.8629674,71.78558
1.0443429,80.60486
1.0614115,77.83824
1.0768602,75.44453
1.2704386,79.80656
1.3326702,80.78096
1.4180737,83.550735
1.5001075,82.75756
1.5632215,84.57064
1.6209388,86.33867
1.5972986,88.81506
1.6944362,90.48883
1.8344733,94.01786
1.73186,95.75706
1.8184791,97.83202
1.9182783,99.88353
1.8120319,102.72427
1.9304546,98.1429
1.8948641,100.2302
1.8269678,101.33945
1.9220401,103.898155
1.8890239,101.54565
1.9990078,106.97796
1.9003989,103.844574
2.00908,108.02646
1.9632905,102.83749
1.8836775,108.07553
1.948897,111.06308
1.9383204,108.98281
1.8823447,104.49946
1.8440571,106.34569
1.8226954,107.82205
1.8909646,106.72983
1.8917613,105.865
1.7750711,102.62245
1.7528998,106.047585
1.8191395,110.395775
1.6869444,103.11888
1.6739264,105.659775
1.7447684,103.41987
1.7281057,101.01563
1.6397702,106.34842
1.5864025,101.01108
1.541325,101.729866
1.679202,96.74289
1.4978087,98.8548
1.5026348,95.78069
1.4987861,97.3352
1.4549731,96.441055
1.4078325,93.32987
1.4439836,89.24315
1.4003572,90.544235
1.4144546,93.526245
1.4341394,94.508934
1.4062226,91.0631
1.3322405,93.20108
1.3943821,85.38327
1.4041535,89.20228
1.3591238,86.15899
1.3293089,87.58796
1.256118,87.320786
1.2806486,82.06673
1.3042182,79.35279
1.2677488,83.98719
1.1629919,79.640305
1.1820606,80.4248
1.161287,80.22519
1.1100199,77.44206
1.096429,75.46371
1.0495613,78.209465
1.0093244,78.437965
1.0156624,72.68597
0.8522534,71.155365
0.8904194,71.34787
0.8701406,72.868484
0.8188634,70.677216
0.78160655,68.52147
0.77498597,68.32001
0.89683574,63.723503
0.7842002,63.233936
0.7992605,64.21224
0.7442612,68.08601
0.7773768,64.163345
0.6684357,63.52521
0.7165349,59.768986
0.7972439,58.169796
0.65677387,59.726685
0.7648242,58.1858
0.63734895,59.259586
0.63593525,59.574837
0.6584356,57.735535
0.6574824,57.23628
0.63292706,54.261242
0.6399261,59.0702
0.56330913,58.24255
0.5326564,58.355927
0.53508824,57.868595
0.4454859,57.288445
0.42887256,58.748047
0.31358793,59.38284
0.2992938,58.46225
0.3143185,56.39095
0.3239172,62.093716
0.3329399,59.39158
0.28404328,56.28468
0.40620103,60.462597
0.3421997,61.088413
0.3726474,61.656216
0.3148624,67.752304
0.44929948,64.72693
0.5325575,66.22146
0.49522105,66.37233
0.64934295,71.68112
0.5762799,70.667946
0.6914733,73.421936
0.8534593,70.78314
0.8337075,77.21644
0.98024845,75.914444
0.993241,82.42686
1.0724411,85.377785
1.0972145,82.05959
1.1149547,88.26925
1.2028595,82.65733
1.3306016,87.86201
1.340062,88.847786
1.3972819,93.76032
1.3953621,96.12994
1.4288886,100.91992
1.5038706,94.504616
1.5584152,97.92265
1.5761324,99.19651
1.5479021,98.68766
1.5544856,101.98913
1.6333745,100.18056
1.5139982,101.5215
1.6374857,108.82839
1.6510054,103.31989
1.6019764,106.36159
1.6176188,102.47298
1.6121294,105.78559
1.6006318,106.68264
1.6409761,104.64357
1.5977826,106.18341
1.5426177,105.16598
1.4959877,110.490036
1.5258876,108.77798
1.4198953,108.43585
1.4199834,105.427086
1.4109821,107.19632
1.4998128,107.019325
1.4187984,107.911736
1.3457992,105.64658
1.329348,100.94352
1.3756876,104.755394
1.3271438,101.40623
1.2377474,102.41834
1.2706702,98.200165
1.2099166,99.68778
1.094039,96.93368
1.1670743,99.61638
1.1587234,94.450645
1.16429,99.6103
1.1067162,96.012115
1.0258063,93.385414
1.1341311,91.825485
1.0924578,92.01288
1.0000325,89.05414
1.0138389,91.91979
1.0219666,89.041534
0.97895116,90.4802
0.9631337,81.58166
0.9761994,91.59455
0.9209422,85.86289
0.9178679,84.09176
0.89325976,82.04527
0.854453,82.558174
0.8135084,76.36594
0.8236687,78.04745
0.83421236,78.096725
0.77577716,76.64812
0.80820805,81.1704
0.62347937,76.656235
0.5896962,78.23742
0.6074595,76.690926
0.635347,75.90806
0.5209859,76.17014
0.56230193,76.00763
0.48677608,69.15778
0.47040105,67.94529
0.4622497,68.982414
0.40258855,71.567345
0.4403832,62.446835
0.32636824,65.24512
0.37072864,69.18242
0.31984782,64.73749
0.40272695,64.05196
0.3356461,66.65256
0.38908803,63.372173
0.3428795,58.555702
0.30048898,62.16096
0.36856088,57.922646
0.44934258,58.172356
0.3461056,55.698986
0.31505716,53.786064
0.2780681,62.29205
0.3241953,59.800575
0.19037955,57.798397
0.2149394,57.14008
0.20955925,56.55895
0.098973565,55.80074
0.14855117,61.473625
0.07142903,56.893986
0.045794897,61.84013
0.0101555595,55.35239
0.031483203,60.893467
-0.05288492,57.382023
-0.10009255,60.654835
-0.023158371,61.159473
-0.09176298,62.18252
0.02645615,64.22575
0.074301526,64.70779
0.0738034,64.432
0.065616935,66.850845
0.079494044,64.42005
0.12161917,66.71632
0.24151786,72.66127
0.23107103,71.458046
0.3718261,65.98777
0.4866579,71.03385
0.46635103,76.690605
0.5111735,77.129005
0.70820534,79.83967
0.73278075,80.35751
0.7315722,82.50599
0.79542476,85.577835
0.9621578,85.35346
0.9554031,88.80002
1.0542612,86.87982
1.0240191,93.11399
1.1481228,90.967415
1.1972971,93.68156
1.1888514,97.133644
1.2501327,97.25173
1.1563592,97.8742
1.2514515,99.705574
1.2351109,96.717384
1.2769208,102.05161
1.3672057,99.6204
1.3991253,102.27738
1.3532507,100.91187
1.2682828,104.3847
1.3141516,106.62129
1.3599223,106.104485
1.423491,107.503334
1.286202,105.7262
1.3791189,107.520645
1.3943075,107.53485
1.2141459,109.76781
1.2350188,111.43326
1.2857906,110.97075
1.2965386,108.079544
1.327746,108.57881
1.3266169,103.634224
1.1537963,103.13729
1.2937429,104.304375
1.1946836,105.01553
1.0901998,104.54248
1.0995207,101.301926
1.1253645,100.97256
1.0216565,99.43295
1.0297925,98.50461
1.004944,101.098694
0.9940334,98.022514
0.9634802,102.415535
0.96498805,101.003334
0.9813718,94.27026
1.0166569,93.057335
0.88222843,91.82976
0.9205282,93.73609
0.93316144,91.62079
0.9969902,91.97658
0.9846927,91.16983
0.9274912,90.21563
0.8790687,88.2539
0.870295,84.810295
0.9742509,83.13995
0.8725498,79.40754
0.82229763,81.96648
0.8905435,81.666756
0.75329065,85.416214
0.75195086,83.341255
0.75196904,80.127686
0.7720957,81.22761
0.65017605,78.541824
0.6761796,79.554535
0.62332886,73.49282
0.6182606,77.38196
0.59194374,73.163315
0.54662764,73.48871
0.47728497,71.13288
0.46934927,75.15325
0.51474553,69.62959
0.45484957,66.65615
0.4992267,69.403175
0.4408604,72.946
0.30535388,68.98255
0.42935824,67.52137
0.38650098,71.72016
0.3719218,66.33902
0.4169518,62.680813
0.4517168,62.328327
0.43056378,62.91467
0.34930435,58.68881
0.37831149,61.51945
0.4386534,59.830727
0.43560994,56.796055
0.42740044,59.33823
0.39095446,53.4619
0.28502163,55.030357
0.41680413,56.30899
0.33824873,54.887997
0.27903122,54.492252
0.3337397,57.46267
0.24072082,55.760532
0.28395677,61.2177
0.25165236,60.79562
0.14366136,58.447582
0.12867254,55.228436
0.12031044,60.338036
0.14113939,59.818474
0.10174865,60.560192
0.06954067,62.1979
0.13842504,62.196598
0.12282525,64.057365
0.19691336,61.660362
0.19704302,65.88191
0.22896399,64.65788
0.35527107,65.3141
0.39426714,67.420105
0.4350956,66.01837
0.4905941,71.12157
0.609216,71.18287
0.5852816,72.5407
0.6659273,79.33986
0.7548094,79.94798
0.8657236,82.405365
0.9098232,84.8774
1.0224776,80.19409
1.1972107,87.402885
1.149762,84.80502
1.1877388,88.965546
1.2287139,89.33373
1.3202081,88.75587
1.293801,94.481476
1.4790204,92.17199
1.4844085,95.41032
1.4929739,97.33127
1.5809158,97.87572
1.5908251,99.745834
1.6603147,99.69455
1.6934246,100.94999
1.4919001,99.14583
1.6317871,106.62525
1.6302347,103.916016
1.6367598,105.22114
1.5576432,103.09589
1.5957012,105.866974
1.7165502,105.62032
1.6066872,108.72709
1.6289558,105.13723
1.603591,108.578705
1.5950323,103.833374
1.6995132,100.79803
1.6194861,106.430534
1.5982709,105.03858
1.5337821,105.28429
1.4907011,103.37123
1.4564112,107.35641
1.5022217,100.71511
1.4799058,97.35373
1.3559585,103.40131
1.4500167,99.43833
1.3146449,101.16947
1.4045098,99.18045
1.3704885,102.18066
1.3418785,101.32688
1.2902893,99.4314
1.3440175,96.118195
1.3124003,92.58774
1.3837209,94.11833
1.3429877,96.05461
1.3443909,95.82673
1.3443651,91.39643
1.1572782,93.353775
1.3215837,90.278
1.2891845,90.14222
1.3463991,86.144875
1.2416638,89.3684
1.2725208,85.89769
1.1990932,86.94259
1.2542963,81.6054
1.2560383,82.60657
1.2924955,79.23758
1.1701028,86.53345
1.0772653,82.438896
1.0859011,78.89044
1.1020224,80.22501
1.0640768,83.13642
1.0644464,76.5885
0.9800347,79.18441
0.98068076,73.474266
0.8991922,75.33791
0.9170089,69.8185
0.89858645,71.600235
0.9108212,65.92567
0.8747831,71.66948
0.7516661,71.59217
0.7565866,71.86015
0.75659394,71.675964
0.8393178,64.63964
0.7728427,67.119026
0.7974836,66.197624
0.8489595,67.01369
0.8074438,63.676983
0.83403474,66.86817
0.8625783,61.37585
0.8665314,62.895233
0.8677704,59.073784
0.83310467,62.78375
0.71442604,58.36516
0.79083675,60.927143
0.8029274,58.148083
0.78234816,56.534332
0.7411545,57.025604
0.66536474,54.33647
0.6584447,54.385445
0.613912,58.335773
0.5850719,56.080063
0.6386018,54.536503
0.57606196,57.467663
0.52754724,54.324024
0.48805198,59.205734
0.4816634,59.535507
0.47970456,56.1565
0.44364208,66.591125
0.48795313,61.229076
0.5436587,59.623554
0.47306427,63.619423
0.59938896,64.200386
0.6747826,63.36136
0.5696524,66.94966
0.65140164,69.29883
0.7024537,66.810165
0.8467424,66.39715
0.899609,71.62517
1.0283395,72.685165
1.0019727,72.900475
1.1225132,77.20698
1.2662112,82.550835
1.2474058,75.898796
1.3493395,79.998955
1.4699718,83.422424
1.4864818,81.619
1.457099,89.93648
1.63244,89.057144
1.6304723,91.20877
1.727795,93.19921
1.7886727,96.919426
1.7579911,91.511566
1.860926,98.845406
1.907565,98.15232
1.8294876,99.208374
1.8976938,102.74619
1.9677184,100.08398
1.9141487,100.761795
1.9744645,107.471306
1.9712528,105.84891
1.9087368,105.11313
1.9218502,106.12051
1.8947936,103.89376
1.9233865,104.61567
1.9824196,109.17488
1.8989004,105.684555
1.9641587,105.38727
1.8345938,107.07469
1.9401561,109.48274
1.9160731,109.91897
1.888063,108.42946
1.8726633,101.20249
1.8506429,102.88405
1.7442403,107.94593
1.8608164,110.334145
1.6792307,107.146614
1.7568585,102.79885
1.8043345,102.46012
1.6928575,101.865585
1.667577,104.857
1.6696088,101.48285
1.636599,101.83532
1.6643186,98.27272
1.6427159,93.58165
1.5551295,96.18612
1.594985,95.81299
1.5586596,97.44183
1.518826,90.74077
1.5181806,93.95785
1.4948739,90.93501
1.5178717,91.002945
1.4511993,86.3404
1.5024261,87.097176
1.448394,90.73471
1.4975181,88.06057
1.3922696,83.743546
1.4116803,85.314865
1.3501017,87.51964
1.3459738,80.60385
1.3545103,81.70179
1.4285417,77.8686
1.3112707,78.69577
1.3465887,84.16604
1.1981759,77.879845
1.2046945,78.40778
1.1475914,75.6141
1.0881476,77.079445
1.0757769,73.426384
1.1153272,72.0446
1.0524031,74.86944
1.003175,73.21071
1.0247618,71.2119
0.93811864,75.68609
0.82623357,67.93002
0.96837,64.899796
0.8270618,64.3895
0.8825638,62.744648
0.87576336,67.75083
0.7744366,62.907696
0.91866386,64.87888
0.8103185,64.76609
0.8950464,65.25258
0.9117462,61.843056
0.86462295,62.76071
0.9161381,61.21245
0.8448718,61.798885
0.85023046,56.805214
0.87453246,56.842487
0.7134513,58.804893
0.6535311,50.660015
0.79529685,56.57757
0.69283277,57.385963
0.69023985,56.83506
0.6803359,57.056335
0.59999526,54.92944
0.48539886,54.410362
0.5667756,59.32805
0.47857252,59.94606
0.55310464,58.939743
0.42845196,58.712364
0.46263108,59.940037
0.4612205,60.006138
0.49261993,60.90671
0.43111822,61.66808
0.49157217,61.285164
0.65476483,64.74045
0.51060903,65.906654
0.5516932,68.30454
0.71051174,72.16274
0.7024401,68.08445
0.7878919,70.50755
0.81777436,72.12815
0.9045055,77.74102
0.9994294,76.38848
1.0420252,81.12243
1.0823804,79.79445
1.1423298,81.78629
1.2474906,82.656906
1.3032156,86.238266
1.4392182,83.22982
1.3966271,83.6961
1.4343661,90.34805
1.4675088,91.078964
1.5356979,91.71707
1.6282766,97.315155
1.6318039,93.78694
1.7338837,99.694595
1.7290069,99.39283
1.724104,101.53058
1.7007977,102.25209
1.6654708,103.256226
1.8192209,109.00999
1.8125103,106.46455
1.7074447,99.59074
1.8582505,104.08666
1.757449,103.9315
1.7164464,108.95551
1.7898192,107.96807
1.8181915,104.74655
1.674283,107.05887
1.7126333,108.93731
1.6926283,104.85765
1.6591069,105.30443
1.6586741,105.63401
1.6553679,109.558495
1.6464142,105.89028
1.6288254,101.65275
1.4867936,101.97226
1.539646,104.40497
1.463966,105.602264
1.4568495,104.62661
1.4751462,99.51958
1.3620979,100.91433
1.3958875,100.21884
1.4198018,103.53908
1.3462149,99.19056
1.3171389,98.629654
1.3011607,97.04634
1.2213491,95.41839
1.3088014,97.52551
1.2128545,99.3442
1.2342678,95.65482
1.2011056,93.37703
1.1265178,90.595184
1.1345321,87.19066
1.1433984,92.03366
1.1052294,85.8955
1.1391037,88.14845
1.1291155,85.403175
1.1289072,85.63429
1.0988357,82.62445
1.0565264,81.03661
1.0276653,80.430305
0.9717293,85.555145
0.9898474,83.202934
0.921124,82.79996
0.97171694,82.81127
0.94514316,77.87282
0.8048862,77.98865
0.7960632,76.02696
0.8205272,75.37514
0.67664844,75.21805
0.69695014,73.14116
0.6535091,72.414474
0.6493612,71.53986
0.6204732,72.11016
0.6181901,67.804955
0.59059,68.20383
0.5005421,67.68476
0.4974062,67.62652
0.5353074,63.65515
0.51192194,68.38004
0.4611815,69.22048
0.5554709,62.064617
0.5005408,62.88901
0.48374256,64.728874
0.4794617,60.576912
0.4556526,58.605915
0.5369251,60.72717
0.45091507,62.061935
0.42894205,58.88134
0.4258373,55.47024
0.44789112,58.572968
0.44359404,62.888107
0.3126069,53.884605
0.3143182,56.52589
0.27524126,56.166534
0.1397552,56.88198
0.1867263,58.52103
0.16690476,64.42098
0.10914111,59.558064
0.105596565,59.159595
0.10755293,58.849506
0.06449846,58.67388
0.06402907,62.139233
0.03982232,59.404327
0.017065182,65.91531
0.041579317,63.367992
0.10880456,63.65446
0.17273793,65.375694
0.243759,67.68585
0.20751493,67.76159
0.2786124,69.36014
0.2669458,68.79723
0.40992138,70.95742
0.51458997,71.425705
0.53673345,73.934616
0.5231562,73.9996
0.6445963,75.29943
0.6877209,80.15813
0.7786529,87.08237
0.9297326,81.847336
0.9315369,80.88829
0.90842015,85.11864
1.2026037,86.539986
1.0965706,87.46011
1.1661534,89.96504
1.1599061,95.247765
1.2585374,97.63251
1.2960438,94.226974
1.2999569,97.72111
1.3232269,100.861
1.3405371,99.91201
1.4354528,98.49199
1.3733939,102.93974
1.3959422,106.806656
1.4381671,105.302635
1.4219667,106.05595
1.402375,104.417274
1.3934411,105.21016
1.4269782,104.05441
1.4209819,106.39225
1.4518113,109.277306
1.3611621,104.12368
1.3773972,105.77677
1.4003769,103.1937
1.3035007,103.74998
1.3847015,106.48092
1.2218406,104.88196
1.2545809,105.34412
1.2623477,107.97764
1.198218,107.82415
1.2391862,100.016136
1.1551633,102.101326
1.0545077,100.05314
1.0858469,102.67509
1.0418303,102.593285
1.1062206,102.63053
1.0270699,101.77892
0.96683425,98.56105
1.0178152,93.40198
0.90989816,95.41195
1.001095,96.75342
0.9649735,96.54343
0.9215217,96.284546
0.9089557,91.73532
0.85801923,89.93502
0.94882923,93.97723
0.8710533,89.23952
0.89500064,91.43589
0.9685096,92.466736
0.8469167,85.22191
0.8387264,87.10247
0.83530986,88.51064
0.88389933,87.31697
0.7366703,84.13447
0.7569338,83.554535
0.7700213,82.848076
0.6706189,83.50106
0.7269045,82.31781
0.65503514,82.52102
0.59876335,76.6162
0.53456527,76.98632
0.5313577,76.965416
0.5024766,77.55192
0.57609004,76.686035
0.49848422,76.48198
0.43198377,72.76354
0.44490516,76.6252
0.42820728,69.687805
0.40930602,70.38138
0.36720058,69.80613
0.39796856,67.69463
0.36494994,63.540413
0.43462497,63.271492
0.30799493,59.722683
0.30245745,66.58855
0.28563282,63.153713
0.32886758,62.47687
0.38786814,64.270935
0.31694317,62.554707
0.3908897,60.17809
0.2922299,60.149216
0.26872998,55.24513
0.30571938,54.787354
0.26769477,60.61147
0.22745724,57.77911
0.27749458,56.584866
0.23375227,55.163517
0.2019298,56.207813
0.14858316,55.83421
0.076329865,57.473427
0.13486385,52.52581
0.1842627,54.409927
0.08130898,57.04453
0.00622855,58.22973
-0.019138576,62.607433
0.026110906,55.98997
-0.03750381,59.695614
-0.04071068,57.563976
-0.013182659,65.03625
-0.0026320212,61.797485
-0.028215498,64.71998
0.062669724,65.89721
0.08007224,62.94942
0.20280503,71.79821
0.21408133,70.824196
0.25720623,71.76161
0.34630167,70.14601
0.47270936,72.34842
0.47260553,77.69182
0.6474522,77.86141
0.7184354,78.42279
0.834276,86.71743
0.9291704,80.779976
0.8966458,83.05352
0.92194265,86.99562
1.0780495,89.597244
1.0650157,89.64798
1.0663922,89.34279
1.2324569,88.949326
1.258094,92.79467
1.3190813,100.856415
1.3053049,95.70279
1.4060872,93.89067
1.427756,99.01482
1.404414,100.79211
1.4046049,102.60699
1.4795611,100.027306
1.4680797,103.46747
1.468647,105.03733
1.4798805,105.40403
1.5274284,103.61619
1.4770223,105.180664
1.6017396,105.43729
1.4886569,111.030136
1.4921958,108.47899
1.5418321,104.88613
1.4728271,105.08125
1.5126092,108.392624
1.4342588,108.41501
1.4157088,107.78761
1.3718199,102.35734
1.3203655,107.07932
1.3382618,106.292595
1.2858218,105.51968
1.2308978,105.515274
1.3725947,98.61151
1.2777095,95.341064
1.2912716,100.28997
1.2952882,101.01648
1.2026389,103.980606
1.2530959,98.63382
1.1928073,101.22992
1.243657,103.58806
1.1504582,96.7117
1.1709801,96.65965
1.1100558,94.60633
1.1964167,90.876625
1.1605262,89.54515
1.2086495,90.2906
1.1354319,89.94974
1.0931948,91.031876
1.126946,89.06748
1.0703727,85.23257
1.117505,86.95617
1.0645494,86.84281
1.0619837,83.9569
1.1065831,83.03803
1.0177252,86.33729
0.95606804,83.45273
0.997935,79.66247
0.9445791,82.87754
0.8166941,80.8618
0.8950715,80.22787
0.85167533,75.94544
0.7851813,79.62732
0.78800666,75.56066
0.8272692,76.47481
0.69523644,74.68417
0.69419885,73.52429
0.73499763,71.07397
0.62678224,73.2777
0.7214495,68.55802
0.68315744,68.6464
0.70535463,72.47055
0.65953714,62.77486
0.6576883,65.87561
0.749927,68.698524
0.65371627,66.95361
0.6978143,63.16571
0.6755614,64.848045
0.6249614,61.68573
0.6911251,59.325348
0.693826,61.179813
0.61006266,55.255615
0.68761224,59.794506
0.57238495,58.916954
0.6596676,55.626667
0.6461242,58.97916
0.5480479,56.47016
0.57187104,60.824364
0.5933592,56.981987
0.43294466,54.565586
0.4983824,55.95435
0.4215364,57.85086
0.48024037,58.5543
0.41352057,60.870052
0.4274085,55.068542
0.30459732,59.149265
0.34235284,60.894592
0.38932714,55.787994
0.3389807,62.288177
0.39949906,58.789867
0.45357814,60.505825
0.34926125,68.815506
0.43281868,65.10959
0.5565566,65.49098
0.55216974,66.567924
0.6333667,66.75795
0.58128726,72.63571
0.7635329,74.73748
0.79090166,69.69833
0.77869266,77.75569
0.98442745,78.69965
1.0558639,79.902405
1.0445113,74.30963
1.1901665,80.8885
1.2501936,80.34919
1.356493,85.875984
1.3794305,86.20895
1.5061308,89.24205
1.4835296,88.0816
1.5053893,92.907166
1.6504331,93.413795
1.6731764,94.69986
1.730291,93.7708
1.7536052,101.12018
1.7000825,95.34574
1.825794,99.982086
1.8751991,100.33449
1.9150903,100.89393
1.8621204,101.55799
1.8201454,103.35829
1.9285578,105.60177
1.855266,102.3793
1.8893014,105.72483
1.9220759,107.78209
1.8302372,108.55335
1.8986489,105.576256
1.9067247,106.65996
1.8623017,108.94529
1.8474274,104.39431
1.8632921,105.478745
1.8325852,103.328026
1.8376337,109.22229
1.8033944,108.21748
1.870093,107.2516
1.7673326,103.46675
1.8119016,109.23282
1.6510086,105.7743
1.7662634,101.815346
1.6282914,99.95623
1.6290649,99.62685
1.7010378,101.08672
1.5565786,95.064964
1.5465336,93.415955
1.5777084,99.33161
1.5609528,93.80936
1.5325462,96.49626
1.5318189,90.911934
1.4792421,90.15818
1.5104668,96.590805
1.5268782,95.577576
1.4351485,89.01944
1.5187923,91.54864
1.513983,86.89962
1.4621845,89.36065
1.4651238,86.763145
1.4712256,91.09885
1.5124872,86.95965
1.3611689,84.90883
1.3612692,84.69416
1.3997871,82.55583
1.2802182,83.86425
1.2656671,79.5442
1.2833614,83.00081
1.2446948,79.57532
1.2304523,80.92961
1.1854342,79.15784
1.0783522,74.73918
1.1904688,74.30897
1.0353348,76.69629
1.018681,75.176926
1.0543084,76.81527
1.022338,75.007324
1.0767463,69.38002
1.00627,70.36175
0.9391389,71.01291
0.9783037,70.11228
0.8652779,63.36135
0.9353869,63.55082
0.8989685,66.3189
0.86503786,63.8049
0.89971125,62.553085
0.92142314,61.798927
0.87816757,60.254436
0.86720484,59.87447
0.8884246,62.40151
0.8184836,63.457058
0.9425021,53.860153
0.93138975,57.7487
0.88411236,56.220036
0.82369494,55.514713
0.83562154,55.68178
0.7126836,58.32157
0.76993364,59.14326
0.70902056,58.7629
0.6225063,60.873432
0.6970803,57.58557
0.58975303,59.259846
0.5885173,57.937683
0.58721626,59.227234
0.45753843,55.524544
0.46064636,65.13714
0.5349097,62.319622
0.54450774,55.59898
0.5955992,59.5899
0.6235431,62.18146
0.5464148,62.86786
0.6375793,63.097694
0.579763,69.085175
0.6691426,66.686104
0.7760267,71.73283
0.88545364,69.32276
0.8649026,73.52636
0.9856058,73.82713
1.0430876,73.30763
1.1185867,76.26929
1.2045876,74.42428
1.244942,77.181786
1.3105874,79.97529
1.4026313,93.41563
1.4794271,84.25413
1.4761305,83.929306
1.6243103,90.24833
1.5241331,91.33077
1.6177247,96.15985
1.8177241,93.81587
1.7407498,94.11396
1.7995737,98.7635
1.8939623,100.90621
1.776528,100.123764
1.8034104,101.86953
1.7626014,99.54317
1.9413978,103.434845
1.8702563,105.25041
1.9844941,103.70421
1.8642391,102.59565
1.8761331,106.53526
1.8620359,105.754036
1.8618981,105.60297
1.8525347,109.56093
1.8785169,107.01401
1.8166087,108.199486
1.926608,102.38752
1.869171,106.03496
1.775633,107.0194
1.7504655,102.851204
1.7180072,106.1537
1.7317609,108.95993
1.7459725,107.07375
1.7470595,106.196045
1.6821144,104.80306
1.6616784,105.66768
1.620233,104.19467
1.564087,101.05451
1.5541776,98.71834
1.5498619,101.64046
1.439902,95.79037
1.5168335,96.63566
1.3753619,93.94336
1.4300483,95.144196
1.482135,91.914986
1.4501729,99.38553
1.420861,90.480515
1.3751731,95.49619
1.3747028,90.88684
1.3615046,94.74676
1.4263331,88.51532
1.3300343,89.365616
1.2666247,87.27405
1.364524,86.28097
1.2550918,90.1445
1.3329426,83.50686
1.1618239,83.23439
1.2956691,84.379196
1.2194031,78.478096
1.0729022,81.172844
1.1081045,80.528824
1.0838753,82.40115
1.092286,80.86085
1.0353403,81.47091
0.99807537,73.3409
1.0660502,76.928154
0.9330817,74.41049
0.8654067,74.70653
0.81664795,74.406296
0.8249661,72.257484
0.79796135,72.6622
0.78882784,71.77473
0.79772806,71.827614
0.7426379,65.965675
0.757561,70.190994
0.7244649,65.56047
0.7670543,69.17331
0.61080635,72.05281
0.6826586,66.263725
0.67550975,63.948746
0.6848547,65.19779
0.70993346,65.35563
0.6395174,57.635807
0.72083634,59.594376
0.65959316,58.728615
0.6212075,59.037415
0.5492531,54.689686
0.51987904,60.988644
0.565139,53.46784
0.49603721,59.63589
0.47658992,56.740765
0.39963567,54.47496
0.35045633,56.0591
0.33476958,57.05582
0.31031626,60.07018
0.3108012,56.946693
0.31726772,53.547977
0.28924438,57.581337
0.23560354,54.59276
0.25815564,61.781208
0.2141674,56.13592
0.19096485,59.798096
0.19078383,60.435665
0.26230988,65.24671
0.25796226,63.045708
0.34526113,63.499454
0.44115537,69.764694
0.2986248,70.006134
0.50475043,72.6042
0.54027873,68.70574
0.55141395,72.83562
0.64723194,74.79963
0.6824101,77.648636
0.80021256,77.909386
0.87156916,82.42868
0.8784383,75.91518
0.94518673,82.75748
0.9810142,84.63767
1.0640028,81.90669
1.1298248,86.68347
1.2951005,88.53435
1.3511096,90.71765
1.3098389,94.60893
1.3611933,91.576454
1.337195,95.1415
1.4695407,95.981064
1.4672676,97.50298
1.427482,100.08255
1.4445776,100.2794
1.6102939,95.32664
1.4561352,105.31932
1.5292737,102.45722
1.5756816,101.94641
1.511148,106.925835
1.4771416,105.19456
1.53275,107.95235
1.54741,111.74156
1.4829015,109.860535
1.4234699,107.748375
1.4770075,106.42775
1.4632869,103.27957
1.4192322,112.21649
1.4834516,107.54672
1.3503567,107.90375
1.3725252,109.76764
1.256318,108.215515
1.2999164,103.10198
1.2683845,99.96866
1.280137,103.628975
1.2642323,101.028885
1.1961755,101.967606
1.1864794,104.80111
1.1617191,99.78883
1.1528933,103.361496
1.0742791,99.787895
1.0919257,99.41116
1.0408483,101.58282
1.0440502,95.31147
1.012929,95.12794
0.9670604,91.65101
1.028944,92.40121
0.99000174,91.952515
0.9916493,91.00847
0.9645693,90.28052
0.9399837,93.69163
0.91059667,87.84996
0.9545428,91.28591
0.88349664,85.07715
0.88235617,84.20014
0.921882,86.58018
0.80259866,86.39046
0.8709242,82.756004
0.9422315,85.16338
0.78528374,78.38067
0.76194805,79.32644
0.73725903,81.39805
0.6613709,81.33472
0.6337921,79.53621
0.6027973,77.18254
0.62942284,77.49528
0.55667907,69.09534
0.56802535,73.99838
0.38831767,71.909706
0.48851734,74.97362
0.36494625,67.14542
0.39482537,70.2321
0.3216309,68.28596
0.44575998,68.003
0.30572593,65.34346
0.34942573,63.97413
0.3842889,65.56011
0.41968256,67.519035
0.30501547,68.3926
0.35571936,65.392235
0.3510694,63.62609
0.33279884,62.305744
0.3865541,59.65436
0.31051362,57.75103
0.2886004,59.3295
0.3185769,59.442673
0.27400368,60.351242
0.2754729,57.225018
0.27117488,53.55044
0.16540703,55.76424
0.189055,52.416233
0.18079014,55.77583
0.07547781,55.035088
0.016178364,59.70037
0.023283008,60.37399
0.055464875,60.9575
0.08120163,60.36708
-0.027756412,58.710133
-0.020339543,55.29089
-0.016487872,61.89108
-0.08849477,61.352924
-0.0059322566,56.88946
-0.08351793,66.18091
-0.01414517,64.59307
0.014191445,67.03883
0.051003017,67.068825
0.07992939,66.899
0.078056745,67.09172
0.23700877,72.0768
0.27252275,71.979385
0.3709792,71.72401
0.43146425,79.10079
0.49625197,78.17564
0.5643902,75.442245
0.7229498,77.30708
0.70669305,82.7449
0.70437896,82.2074
0.95596457,83.08903
1.0035781,88.92984
1.0194174,89.97041
0.95593196,90.41391
1.0970892,94.918045
1.2015111,96.42677
1.22289,92.135155
1.2388039,94.22601
1.200536,98.8121
1.2551858,96.88939
1.2715781,98.5481
1.2812223,103.00421
1.3704308,102.91739
1.3900198,100.82805
1.3907332,99.94747
1.360936,105.780495
1.3751857,109.17111
1.4101443,109.24581
1.4126401,106.48283
1.4033105,106.307
1.3736564,106.10082
1.3973348,104.23711
1.4666061,110.179
1.3427889,104.618774
1.4001651,107.56204
1.3474275,107.17631
1.2294778,104.442024
1.2473931,105.10304
1.297561,107.212616
1.2047112,105.810196
1.1131973,102.720825
1.113327,106.711876
1.100914,106.3226
1.110839,103.405136
1.1124612,99.2828
1.1007912,102.31935
1.0307336,93.45833
1.1306745,94.744484
0.939381,103.25331
1.0612175,94.36107
1.0112987,98.14746
0.9816833,94.797356
0.9749002,96.91995
0.96821547,91.60699
1.0376904,93.06208
0.9548462,89.84538
0.8905867,90.42205
1.030924,87.503815
0.96574163,83.49563
0.952556,87.90438
0.94262207,86.66986
0.950753,84.33632
0.8356056,85.81499
0.91781956,83.48532
0.8771245,79.936874
0.8426227,82.598236
0.86114603,82.11012
0.7925059,83.91985
0.7861531,78.65067
0.8127283,77.62735
0.8200923,80.2624
0.6696687,78.57074
0.7002278,75.32472
0.5669567,76.36005
0.58631027,77.147545
0.62815404,76.49493
0.49572167,68.060616
0.50827837,69.392006
0.5513311,71.49137
0.47234273,67.74369
0.4102617,68.64781
0.4974016,65.89585
0.49546695,70.84001
0.44898093,66.03087
0.47778425,61.93329
0.49619976,65.709305
0.49042475,61.265324
0.55781716,60.610645
0.57007027,60.93932
0.5025961,62.538303
0.48176473,62.13086
0.48761383,60.603394
0.45452672,50.52061
0.39946604,61.64187
0.32742828,57.490868
0.33826652,62.696674
0.31734687,54.812126
0.3526116,60.263927
0.34642854,57.91878
0.30914313,58.628677
0.29002115,53.182564
0.22343792,63.142616
0.28794616,64.27
0.17263228,59.939693
0.16195065,58.401615
0.19899355,57.478664
0.11170287,58.77841
0.17324102,61.3806
0.26415005,59.079617
0.21656448,62.184113
0.29759654,64.857994
0.30247808,65.821556
0.2859735,64.944214
0.38879353,66.458435
0.44838494,65.676926
0.49234793,68.52209
0.5374338,73.61642
0.5407438,72.8816
0.762047,74.829895
0.750627,76.26988
0.8932758,74.21526
0.9933483,77.33819
0.9870291,80.62746
1.1604545,88.758255
1.1823629,82.87774
1.3179557,85.983246
1.2750297,89.145584
1.3811861,89.714874
1.4727488,96.215866
1.4423002,96.27912
1.599458,95.25621
1.5251963,97.52307
1.5533719,100.07264
1.5752971,101.203316
1.588799,100.49771
1.7118481,102.261444
1.6609135,98.65644
1.75289,105.065254
1.7504126,100.31639
1.764139,103.37682
1.724565,105.93271
1.7925664,108.74926
1.7147677,101.15122
1.7703755,106.57201
1.7217572,108.12812
1.7410573,111.54205
1.7102121,107.347244
1.7820473,108.15071
1.6423366,103.89714
1.6033614,103.91465
1.6830963,104.52721
1.6059159,102.75168
1.6865919,104.040184
1.5476658,103.21678
1.5737898,103.121994
1.5404556,103.12044
1.5543153,103.6343
1.5454657,101.59496
1.4903687,99.08201
1.501886,99.509766
1.4547455,98.57194
1.5301716,101.76064
1.455995,103.10265
1.4302197,94.87806
1.3718776,92.16173
1.4385922,95.01111
1.4766233,94.10398
1.4937875,91.86279
1.4545056,91.49422
1.3532834,89.88678
1.3954309,91.2919
1.3617775,89.55945
1.3404208,86.78001
1.3543916,83.20403
1.379366,89.5098
1.2929776,85.95951
1.2690133,80.67732
1.3119096,88.448456
1.3271741,83.91336
1.2641444,80.690895
1.2763913,82.30628
1.2059999,82.6069
1.1330228,76.81929
1.1716369,77.691536
1.115924,77.0006
1.0191832,79.88973
1.0804427,73.82707
1.0035175,78.41821
0.97019285,73.97932
0.9570276,72.068375
0.9539373,69.405914
0.9355115,68.985085
0.7896706,65.45046
0.82378453,71.20603
0.88597983,65.819984
0.8969106,67.98455
0.8792487,64.13656
0.8280284,62.357513
0.8507724,62.56947
0.8560107,67.92945
0.8636892,62.018257
0.8599092,60.837055
0.81873447,58.336704
0.90339035,59.78528
0.7765309,58.985016
0.8407255,59.66421
0.90066737,54.724384
0.7732539,58.483242
0.8368614,59.0919
0.73695534,53.84653
0.68986297,59.13523
0.77729416,54.495335
0.71222377,58.51152
0.58699334,59.526237
0.6418982,59.723236
0.6351322,61.493996
0.58441675,55.409035
0.6343932,57.894836
0.5533553,54.74948
0.55924326,57.695343
0.51023704,61.140682
0.5360064,63.18285
0.5600093,58.61037
0.5537846,61.01192
0.57102925,64.27216
0.6874906,60.693645
0.691898,67.195175
0.72345746,68.190414
0.7853405,70.36268
0.8459122,68.19865
0.85640574,75.764725
1.024573,76.82832
1.0122279,77.335
1.0740027,76.37518
1.2508707,76.42042
1.2872801,79.93551
1.3922019,84.68351
1.4676462,87.802704
1.5802004,86.987114
1.5496241,91.57683
1.6312991,87.685104
1.6101904,89.88644
1.7521871,94.152664
1.7946981,92.37
1.8635008,96.96196
1.8655355,96.059044
1.9125072,99.62076
1.8995717,98.47502
1.9475015,100.4484
1.9530654,103.38868
1.9616753,102.883255
1.8717126,103.69059
1.8909062,105.32494
1.9861817,99.55182
1.9930187,108.52615
1.9319444,104.750244
2.037369,108.887
1.9551274,106.86821
1.9942691,107.25359
1.9703612,109.76179
1.9226532,108.76114
1.9330375,111.3244
1.8619751,109.99607
1.9109019,108.27985
1.8627701,105.902626
1.8682711,103.32985
1.8112706,106.5497
1.8275466,105.539116
1.7609125,107.64244
1.7903999,103.197105
1.7198277,102.93591
1.6803974,105.59689
1.7079324,101.79001
1.5581049,93.768814
1.6927557,99.30469
1.579385,99.87206
1.5869684,97.41625
1.57278,94.73553
1.477623,96.51905
1.5029333,94.05997
1.4823706,94.96712
1.4603946,93.00659
1.3952125,92.762184
1.4532095,89.43822
1.4227562,89.08028
1.3971609,87.29052
1.4328796,87.9569
1.4360278,87.99933
1.4793212,81.20897
1.4689975,83.2833
1.3594759,81.76386
1.2886915,80.33555
1.4121273,88.44319
1.2811825,83.48881
1.2442791,81.00301
1.2130824,82.19151
1.2000802,77.26689
1.1756024,77.37185
1.0976518,73.73254
1.0727023,78.50573
0.9704686,78.93147
1.0160879,74.16745
0.9895459,71.29458
0.94656664,69.84985
0.9434897,68.82652
0.8690547,71.4592
0.94632214,66.83476
0.8460082,63.65539
0.8291804,69.777725
0.7746444,67.76714
0.85086465,66.68875
0.8580185,63.24157
0.8371433,64.67495
0.88569576,63.608902
0.8075043,68.05658
0.88045055,61.03458
0.7808227,55.941055
0.7934036,59.888813
0.77094257,58.142418
0.7891683,56.446667
0.78529465,61.339867
0.7784228,58.85075
0.63404274,56.264614
0.6720444,58.27747
0.54766995,57.46084
0.6063873,53.133198
0.4596274,60.88212
0.5812986,60.519566
0.45727897,58.18028
0.38885143,57.41283
0.42277652,58.83062
0.34238365,55.93982
0.35943222,57.791428
0.35684904,59.98453
0.314626,61.28265
0.40748897,62.550297
0.45996368,62.184715
0.44922534,62.91285
0.46464816,64.88277
0.50421476,64.63107
0.5146277,69.47776
0.6408031,69.569855
0.66230434,72.07473
0.67366415,69.51591
0.7706241,69.51819
0.76169765,73.78394
0.8745864,75.40385
0.9775435,79.854256
1.0036559,82.012
1.0909017,82.964165
1.2007468,81.94947
1.3135328,80.20932
1.2611591,87.337776
1.4158732,88.18932
1.3673195,89.99784
1.4655704,91.71775
1.4619288,92.09834
1.5753112,93.80213
1.5663104,93.246895
1.6669226,98.93534
1.6260358,102.157745
1.5380843,95.7307
1.5936853,100.02645
1.6396321,99.32075
1.6458491,103.31337
1.7058332,105.08122
1.6190312,101.48875
1.6842375,106.855125
1.6425688,105.851456
1.6271697,110.8569
1.7033178,106.75851
1.6990064,108.23342
1.6103617,107.43794
1.5835682,107.22183
1.6300156,106.12994
1.668051,108.564415
1.5879331,107.87432
1.5814209,106.941124
1.5365256,110.46651
1.4820305,106.06457
1.3443733,100.54503
1.4542639,106.13795
1.3834239,103.73679
1.3526554,101.04675
1.4325396,104.3662
1.3244032,100.09645
1.2683233,96.71406
1.2344081,99.80307
1.2481819,98.31081
1.2553027,93.00982
1.1917427,100.93704
1.2552139,93.45652
1.2010293,97.29081
1.1728253,93.661
1.1399759,91.86059
1.0857108,91.528625
1.1510618,90.802536
1.1479744,90.120514
1.1059765,90.60488
1.1116031,85.40501
1.0849879,86.02283
1.1540866,88.29506
1.0591465,87.40844
0.99088305,84.61647
1.0015568,87.9758
0.92432183,85.097595
0.8842542,80.24928
0.9195324,82.086075
0.82892805,80.829765
0.8121538,76.9955
0.6235431,76.11282
0.74622065,73.230934
0.61189634,79.78328
0.69883156,79.28027
0.62815195,72.4718
0.61436033,73.48598
0.6109414,72.04457
0.4519788,67.53287
0.44089508,65.65339
0.496068,69.72977
0.5158112,69.43355
0.5153682,61.435707
0.4605853,69.20246
0.42985514,65.35604
0.40038738,66.737
0.4703623,60.921143
0.35178316,60.46268
0.38194492,62.32265
0.44912425,61.35689
0.43539378,60.3064
0.3746325,62.974102
0.4142279,64.4427
0.3675396,54.761932
0.4405365,58.77845
0.38091657,60.520493
0.31458637,55.5622
0.29988545,54.909435
0.29394656,60.404945
0.2324898,53.979202
0.20288286,53.961887
0.22999269,61.753677
0.13785484,56.112755
0.08081926,57.175392
0.028386353,61.324295
0.042830106,55.53346
0.010387893,61.55953
0.0021175186,66.71492
0.020231564,62.3414
-0.0230846,62.836674
0.0072962972,66.95546
0.05121,61.037525
0.07429656,59.63551
0.1170521,65.04414
0.11744555,66.668365
0.16081892,68.296104
0.19563638,68.0076
0.32530946,72.303474
0.32922748,74.84067
0.48693022,72.746666
0.41801748,70.259926
0.58859223,75.9285
0.65109646,74.81775
0.70306283,77.96256
0.6873187,79.99052
0.7856639,85.64287
0.89176196,84.840675
0.9301303,81.50322
1.0754837,90.0476
1.1277918,86.90636
1.0499891,90.70781
1.1566408,90.35432
1.2592455,99.26455
1.2078037,95.081215
1.2620424,97.75442
1.2705339,98.43349
1.3100911,100.83794
1.3174865,105.33053
1.2920302,103.43893
1.3535595,103.64233
1.3699487,101.67553
1.3880957,106.28045
1.328852,104.5883
1.3760484,106.4111
1.3153763,107.540924
1.3851042,109.62919
1.3540483,108.836494
1.3438072,110.32491
1.3322647,106.09672
1.3069032,106.88009
1.2574831,104.660355
1.3537055,109.990906
1.2114416,104.795204
1.216293,101.82416
1.2507739,104.46088
1.1671939,103.01965
1.1409519,103.171135
1.1437699,103.69761
1.0946118,102.20682
1.167531,99.335785
1.0242537,94.20452
1.0465685,100.74348
1.0603586,104.350464
1.0500425,101.16706
0.98137283,98.06025
0.9661517,93.938644
0.9589032,95.146126
0.92890364,94.39203
0.891104,92.35519
0.8781918,91.91554
1.0209495,88.38486
0.8840513,86.85061
0.9403284,91.11312
0.85819966,91.938126
0.8707789,85.03797
0.817872,90.542885
0.8516559,91.313095
0.7778334,91.22864
0.7852826,83.71135
0.7364286,83.42924
0.8031795,82.92339
0.8163411,83.01593
0.6962716,83.91566
0.6519847,76.341774
0.68623304,76.89432
0.58733124,77.079735
0.6219377,72.42784
0.57806444,72.48582
0.56049246,74.2157
0.5924707,74.760796
0.391408,74.91388
0.36874914,76.33078
0.44216466,71.71183
0.36643898,72.17802
0.4270056,67.58933
0.3178416,67.133965
0.39098004,68.75315
0.37419432,66.1932
0.37723473,62.15104
0.3318044,65.61387
0.28595036,63.841984
0.35993746,62.267216
0.39222395,59.87026
0.36007115,60.07519
0.3989874,63.770264
0.37167838,58.29036
0.4242901,62.015385
0.31745675,58.197094
0.30807364,57.65355
0.34485304,55.31954
0.25082406,59.690342
0.32875204,56.15029
0.28136542,57.08783
0.24308504,56.33255
0.20981012,54.194977
0.16096862,55.359943
0.123865545,59.04546
0.16973448,55.704544
0.09194134,58.81039
0.085271545,55.816162
0.059587263,61.627777
0.066581935,56.478695
0.030638326,59.91308
-0.012578117,63.777283
0.051106613,62.85665
0.024348462,65.18443
0.033876397,62.948074
0.15603198,65.03867
0.27023596,69.027275
0.2944397,64.62514
0.31408578,71.95204
0.3443979,65.94524
0.49052107,67.10943
0.4789923,72.89643
0.6772322,74.90759
0.75815725,78.408264
0.74564046,78.82161
0.9197494,81.877975
0.88625616,86.12105
0.9654811,85.47724
1.0473194,80.31122
1.142623,93.518906
1.255161,87.9213
1.2419955,96.0748
1.2916505,86.89238
1.3411025,95.58202
1.3294332,91.8936
1.4878794,96.26433
1.4768386,98.046684
1.4461784,97.65525
1.4540918,99.22948
1.5383875,100.090805
1.5656672,100.140114
1.5433301,100.93041
1.5949179,109.30176
1.509911,102.434425
1.5389168,107.42086
1.5907077,108.44297
1.5587606,109.36262
1.5979536,107.02784
1.6300194,107.3263
1.6209244,104.77421
1.5229708,106.97134
1.4603608,107.84013
1.5565579,106.7292
1.4958481,110.09488
1.5571245,104.852455
1.4803492,104.81864
1.4537759,104.389
1.4671919,104.532875
1.3686638,106.33703
1.3641782,99.86992
1.3483815,104.350494
1.2720689,103.51514
1.4526817,99.258484
1.2719169,96.581505
1.258695,97.22221
1.3398293,98.252594
1.2357577,98.28843
1.2624607,94.34937
1.1649479,93.69197
1.2748791,94.86401
1.2789966,91.4661
1.1825463,93.11942
1.2605909,95.161125
1.3085989,88.44436
1.2651385,88.50642
1.1757598,89.05408
1.2747946,89.48079
1.1955547,87.87463
1.0940952,86.752525
1.1579815,83.980835
1.1621741,84.81339
1.0877851,87.25748
1.2138063,81.09379
1.0880882,79.04619
1.0180116,80.291405
1.0693268,86.27436
1.0796248,78.14474
1.0050881,77.16761
0.946956,76.53716
0.9711765,71.40776
0.87634516,74.46551
0.8448859,75.04971
0.77293766,70.8437
0.911982,69.384384
0.7794359,69.92296
0.70260817,68.4143
0.71768224,71.29029
0.78151923,66.25528
0.71296024,68.537254
0.7507896,63.851624
0.75972784,65.51347
0.70456475,65.04196
0.80823874,63.51111
0.7169538,57.688175
0.6930228,61.22176
0.77878344,60.581326
0.71605754,63.887142
0.75907445,60.907948
0.7513939,60.91066
0.73073834,61.07247
0.72493076,59.495296
0.6970698,61.028328
0.6273795,58.022217
0.60722977,56.945663
0.6270069,56.141926
0.55305934,58.289345
0.58072627,57.891117
0.5047064,55.142567
0.5520549,57.03953
0.5304412,56.94896
0.44098702,55.002945
0.47945142,62.19906
0.43470997,62.11141
0.4238537,60.86216
0.43819368,62.118507
0.41626525,62.13003
0.4547348,64.240456
0.45418987,62.15129
0.5555974,67.985085
0.5133542,66.98941
0.64043367,65.47581
0.75986004,66.13292
0.77247685,72.83582
0.8279947,72.33468
0.8387964,70.50889
0.8914133,76.089935
1.0815623,78.806404
1.0940759,79.32229
1.1908363,78.751335
1.2838924,79.661804
1.3244317,84.04705
1.44274,88.50011
1.5206541,86.957756
1.4252036,84.74963
1.6204089,94.18975
1.5665123,89.879684
1.7003512,90.49817
1.7801988,94.166954
1.8116612,98.05166
1.8644052,97.37986
1.8095922,99.92934
1.8559089,100.74252
1.9162258,103.4036
2.017705,101.89457
1.9387125,101.95727
1.9284705,104.561
1.8951323,106.81682
1.9775796,106.46635
1.909936,105.250786
1.9630766,102.63979
2.0343091,103.325455
1.9587286,100.19854
1.9218599,105.51794
1.9049635,108.02656
1.9085952,105.253494
1.9170256,105.69854
1.8610717,107.37321
1.8563181,109.42856
1.8507543,106.74694
1.8056717,107.39013
1.7914915,102.80047
1.7803702,103.93513
1.6945744,102.43083
1.7192534,107.69303
1.6951048,104.17632
1.5501899,100.2059
1.6331035,98.19982
1.6713479,102.25851
1.57551,97.32181
1.5840604,97.10117
1.5441376,100.09614
1.6188775,97.91223
1.5389762,92.10648
1.588804,92.94854
1.5329657,91.58821
1.4615805,93.608826
1.4323336,90.96358
1.5056785,87.27717
1.4629141,88.48795
1.4425746,92.569305
1.36639,88.73567
1.3608344,88.15114
1.4390165,83.843636
1.3781023,79.776085
1.4027355,85.22625
1.426488,84.19671
1.427802,83.68747
1.387901,80.57277
1.2321048,77.98907
1.190848,80.45096
1.0340815,77.44481
1.1037577,77.87876
1.1485368,75.016754
1.1665708,72.13987
1.1237597,71.31064
1.0818678,74.86432
1.0385618,73.801994
0.9215944,75.45952
0.99352944,68.822556
0.98766094,70.52516
0.91648936,72.52601
0.8645012,68.21412
0.9933232,64.13127
0.97804564,65.631516
1.0379503,67.83746
0.9690157,66.082634
0.8888793,67.21846
0.8426891,59.64483
0.9357298,63.63168
0.88501525,63.608536
0.923587,60.873287
0.86677325,58.31692
0.8022288,55.09843
0.8270468,58.439316
0.8936161,58.00439
0.7714853,60.713223
0.7809881,60.381065
0.7378369,62.158897
0.7346303,55.03285
0.6496533,57.748196
0.67106116,56.219627
0.62231994,54.124527
0.63423616,57.12304
0.6129475,57.56064
0.610237,57.952126
0.5800856,57.8162
0.5663782,60.49548
0.50767595,57.671303
0.49436775,60.36782
0.5874112,60.411846
0.5007908,63.523468
0.48632106,61.230473
0.62476003,65.50891
0.6576284,68.28127
0.6882413,71.08896
0.7331999,71.80958
0.8447509,70.78894
0.9112706,77.676414
0.92586446,76.273224
0.97286075,73.789314
1.1499603,77.99361
1.1697507,78.21085
1.2058846,79.294655
1.304769,83.993256
1.3865436,83.93027
1.424711,84.737305
1.5667766,86.299965
1.469178,90.592316
1.6634738,92.26591
1.6243654,89.57675
1.6762706,94.43691
1.6501336,94.53403
1.8010385,96.82402
1.7246773,99.42903
1.8459349,99.06184
1.7741197,99.25542
1.8345035,101.469055
1.8078142,98.98732
1.8416251,106.238754
1.7916286,102.79324
1.7908049,105.96777
1.8155318,109.05608
1.8584825,108.51721
1.8554859,105.401054
1.7924405,105.32838
1.8466464,106.13479
1.749931,107.026566
1.7855552,104.08309
1.7874199,109.3345
1.7332546,107.43977
1.6101512,104.23177
1.6877936,112.838844
1.5822735,105.79534
1.622274,105.74032
1.6320485,101.23579
1.6610234,101.062744
1.5995132,105.71387
1.4937501,101.90739
1.5690894,100.94914
1.5298263,98.096825
1.411501,100.872215
1.4116586,101.22857
1.4387231,96.73986
1.3866255,98.60263
1.2975402,97.688446
1.3680719,94.317474
1.2993368,94.41171
1.2830894,92.72093
1.3009373,94.60846
1.1443037,95.22358
1.2627134,91.520836
1.223723,91.23416
1.2969294,90.59976
1.2498922,89.02141
1.2354718,89.71475
1.1587106,85.35087
1.1874288,83.79772
1.173251,84.29108
1.1553422,84.08328
1.133107,84.477844
1.0778977,84.67769
0.9430768,81.44174
1.062243,80.43145
0.9181302,79.88126
0.9381012,81.30931
0.8404963,81.34792
0.93502164,76.89813
0.9008827,72.805855
0.7871948,74.60982
0.7570729,75.35854
0.7173999,73.277534
0.6073458,68.569336
0.7340979,67.6866
0.65413743,71.27429
0.71433884,67.24395
0.5741925,63.67914
0.64248705,66.081085
0.6464442,67.37404
0.6334661,69.50636
0.5700573,66.55266
0.5592475,62.940945
0.55261683,63.15894
0.62430245,61.926216
0.5826262,59.768436
0.49896365,58.078545
0.5249527,63.737892
0.5135973,55.170193
0.5270563,55.086166
0.49855778,55.460327
0.42115936,60.914898
0.45079416,57.164993
0.3997002,57.60528
0.36655074,55.257206
0.35428506,61.4484
0.3355305,56.444893
0.35154927,55.007767
0.22856355,51.99007
0.1321687,51.790535
0.16480392,57.206886
0.17461854,58.368324
0.16300127,55.694565
0.1073502,64.98913
0.08537425,54.850708
0.119402155,60.16963
0.20002753,67.609825
0.14190857,63.923122
0.26029158,63.43689
0.20384373,70.51784
0.30076414,70.44092
0.3456809,67.85529
0.40374613,70.68708
0.50769156,71.930336
0.64683914,71.09586
0.64647377,76.84699
0.68725187,77.315094
0.8028489,76.829926
0.85816187,81.83748
0.9283708,88.438446
0.9354124,86.08559
1.0266304,90.2178
1.1117353,86.76793
1.1578362,89.16337
1.2256337,88.96465
1.2206621,95.115036
1.3239527,93.63155
1.3473684,93.93624
1.3932731,99.70394
1.3200758,101.11385
1.377291,101.94446
1.4590766,101.32738
1.4772966,106.31577
1.4491189,107.578384
1.4585409,106.622025
1.4200246,100.42777
1.5002452,105.21107
1.443729,105.021774
1.4465274,106.28905
1.3936675,105.48297
1.4279174,107.43654
1.4078618,107.5023
1.3738638,109.97969
1.4959011,105.45832
1.3643228,105.343735
1.3834817,113.44401
1.311714,106.152695
1.3065883,108.2532
1.2622156,107.01336
1.2576494,100.978165
1.2132792,107.77744
1.2279752,106.459076
1.1960193,98.429436
1.136491,101.09803
1.1428438,102.948685
1.1136795,98.11665
1.0738536,97.17384
1.0638473,97.43698
1.0328892,98.684326
0.98969305,94.35014
0.97147053,98.95843
0.9600412,96.04044
0.89157534,96.75567
0.9282163,93.8068
0.9331595,92.55892
0.8936153,94.34173
0.85120136,91.25252
0.8555517,87.19733
0.9329999,85.44916
0.8723517,89.10891
0.8919176,87.25163
0.8460252,85.09561
0.7566986,84.37393
0.83260024,82.970894
0.8735391,83.500336
0.7890907,82.22844
0.67627245,86.08195
0.6450263,78.722565
0.6836909,79.28802
0.61765975,78.387344
0.6038588,79.237465
0.558724,76.48247
0.5187941,73.61733
0.48771137,72.10603
0.49655595,76.9617
0.44973606,70.3324
0.43734536,69.05816
0.41621864,68.43243
0.3022559,64.91312
0.36055902,70.3573
0.3335313,69.84501
0.31380263,64.86476
0.30046934,67.46734
0.35059822,64.343666
0.273654,61.502037
0.3559545,63.08208
0.22439304,66.06625
0.33989477,63.54136
0.21000274,62.531757
0.3288621,62.640636
0.35677987,63.936314
0.3021453,62.73827
0.3777479,61.521263
0.28843462,61.356167
0.24863963,60.492195
0.25868347,60.291313
0.13992094,56.716248
0.16406439,59.549942
0.114321485,57.622448
0.13011752,55.504417
0.06913035,59.57803
0.069189444,61.139473
0.018463898,58.96674
-0.05686068,56.321316
0.08340682,54.117535
-0.057979256,56.211914
-0.0070310477,61.47293
0.0047963783,61.394253
-0.053931605,63.970615
-0.11657598,67.539444
-0.0389233,63.69191
0.06472153,63.999527
0.15032011,61.217632
0.17353311,68.965195
0.18899451,67.0994
0.2074077,66.86881
0.34155673,68.95425
0.35475516,75.62225
0.49130487,75.38447
0.55371153,78.39738
0.5993333,78.90284
0.74968255,78.06104
0.79361033,80.02725
0.7655958,80.92242
0.88865733,85.25457
1.0496591,83.77044
1.0601726,91.04367
0.9330433,90.070145
1.131848,91.52166
1.1881384,91.314156
1.3034141,96.02475
1.2026213,94.034454
1.3023881,94.756516
1.2996298,102.818535
1.2820941,99.26481
1.3687687,101.78709
1.3446672,103.29248
1.4119738,104.95451
1.4381099,101.62397
1.4758286,106.66501
1.4623027,104.73242
1.477295,105.91742
1.4329066,105.14606
1.372788,108.0096
1.4431933,109.42713
1.3122554,112.407425
1.423896,104.657486
1.4305354,104.51306
1.4226022,106.51286
1.3036678,110.949394
1.3885257,105.190125
1.3462191,105.508766
1.3944473,103.40748
1.3035163,106.643074
1.2730845,101.529976
1.2366803,102.1672
1.2538388,104.591194
1.2529938,102.77174
1.2026007,104.142525
1.1924404,100.92447
1.1312364,102.484764
1.1785864,96.86624
1.1402235,99.1444
1.0542103,96.5229
1.0889286,95.286476
1.0625919,95.04021
0.9539971,95.51933
1.0814254,90.81073
1.0684327,91.6983
1.0195963,92.32584
1.0298046,84.616554
1.0322154,92.062935
0.9973373,86.35962
1.0589967,89.4538
1.0371956,86.23929
1.0107315,84.069885
0.95190305,82.13942
0.90766287,86.02613
0.9699925,81.149765
0.8989656,84.23716
0.8455061,81.11137
0.8586759,83.84266
0.8056283,79.78743
0.7899602,76.872314
0.7554093,76.79172
0.77083004,75.006905
0.7238098,77.44783
0.6833427,75.72308
0.5993185,73.4714
0.5710024,69.662285
0.62532467,71.610695
0.66054785,71.44898
0.5748997,68.10852
0.5242161,68.42754
0.5670699,73.60939
0.63671863,64.851585
0.664224,71.527214
0.59359455,63.193085
0.6091095,64.16195
0.5520554,62.72729
0.55500394,63.88248
0.6305631,60.988205
0.574891,57.432575
0.5970981,61.227695
0.6313669,59.4278
0.5803422,61.078648
0.4999088,56.94097
0.5288023,56.333233
0.4880821,55.876675
0.48657623,55.771523
0.43794915,62.470203
0.49248853,58.36802
0.35735565,59.40875
0.38342398,55.931427
0.42714354,55.41254
0.31919843,51.794052
0.3495812,55.093258
0.24512802,50.113895
0.24384893,56.486195
0.3080306,57.07848
0.33622572,59.01863
0.24019313,60.986263
0.3159789,60.250267
0.25554004,64.65177
0.27883914,62.64615
0.38959894,65.95161
0.42154956,67.556946
0.5380157,69.74726
0.649502,65.38108
0.6318203,70.46086
0.68937343,73.06979
0.7105131,76.33314
0.90092516,72.40706
0.9434056,79.285286
0.97734076,75.04016
1.1555336,80.687775
1.152497,84.612366
1.3040572,87.13635
1.340274,86.40403
1.3282954,86.11822
1.3916156,89.63847
1.5529681,94.74483
1.5735611,90.84664
1.5850673,92.82945
1.6995548,97.94617
1.624981,99.83596
1.7504656,99.04086
1.7089221,101.44637
1.6948532,99.53768
1.769938,101.89385
1.7880094,102.768715
1.7681322,103.92448
1.8328751,108.04301
1.7224278,103.504
1.8665377,109.85338
1.8139282,107.351746
1.7896262,103.37783
1.8188616,105.91658
1.8016585,102.945015
1.8420436,105.93365
1.7312778,108.66633
1.8033484,106.41363
1.7312459,106.7564
1.8252476,103.59607
1.7164087,106.15331
1.7974104,104.02308
1.639165,100.79687
1.706525,105.801025
1.5586667,102.801285
1.6064616,102.08102
1.5380896,103.57734
1.5717014,102.89065
1.574567,101.35525
1.581334,104.42098
1.5554368,100.74996
1.4842123,95.27765
1.4888266,96.49858
1.4556195,97.090935
1.4254712,97.47551
1.4197513,96.90752
1.4043266,96.076584
1.4595869,94.116554
1.427712,90.75831
1.4650142,86.40851
1.4273216,91.88045
1.3990666,92.096275
1.4052149,87.83093
1.4133048,91.86716
1.4484783,86.814445
1.3895051,86.192345
1.3742845,84.83414
1.3257017,83.40268
1.2597246,83.93238
1.3125615,80.82564
1.2699292,77.8774
1.1889349,77.38252
1.215432,84.144135
1.2678597,78.407745
1.0952412,80.261955
1.0853736,77.54001
1.1257867,76.12618
1.1094327,76.27646
0.98946464,70.2334
1.0316421,70.95435
0.9385845,76.899124
