ppg,abp
1.121565,115.602776
1.2196285,118.80142
1.2855589,121.79811
1.3369387,121.716835
1.3583474,119.895615
1.3869863,125.05686
1.3875028,124.242294
1.4368576,125.81427
1.5773213,131.92152
1.5311536,128.59753
1.701257,132.98982
1.6915879,134.3148
1.7409012,136.94714
1.6487825,136.62122
1.6952103,134.83269
1.7714443,138.51399
1.7910492,140.02327
1.6237557,138.41043
1.6322018,142.31784
1.8314532,141.48332
1.6879654,142.46875
1.6832563,141.58974
1.7884696,138.88211
1.7035825,142.42918
1.7391793,143.77188
1.7108778,141.0374
1.6926664,142.84598
1.6133167,139.87732
1.64218,137.89745
1.545181,139.9751
1.5573816,141.61778
1.5530256,139.51059
1.5510682,135.58752
1.5394715,135.23299
1.6003647,136.6684
1.4795266,133.87354
1.497133,133.23936
1.4117321,133.74368
1.5319908,130.12042
1.4200217,132.47852
1.449826,130.22377
1.2927104,130.94865
1.4599165,129.48871
1.3565183,122.46493
1.29062,126.33502
1.4047229,126.45853
1.4090112,124.78924
1.3629335,123.58037
1.3518616,122.55425
1.3908696,121.29611
1.3800081,125.98504
1.3127582,121.53297
1.2560453,121.96252
1.1994318,119.60807
1.2469654,115.5604
1.3157498,112.08157
1.1898297,114.643364
1.1693788,115.15462
1.102102,114.44208
1.0428371,112.78192
1.0771177,110.60934
0.9814371,108.4565
0.93567556,110.462555
0.96995354,108.54903
0.85631,107.06342
0.96082366,105.438286
0.9330035,106.410545
0.9200684,103.48899
0.9119913,105.83594
1.0063928,103.17565
0.8856754,102.024994
0.8123729,95.735245
0.8122725,94.09431
0.8799082,96.4587
0.8707439,97.92023
0.86882454,97.766335
0.7759328,91.17106
0.76416016,91.64405
0.90414333,94.35468
0.9167733,93.71463
0.87845045,91.36484
0.84250003,92.0653
0.77278185,93.62321
0.7408782,88.23344
0.7727993,89.48816
0.74433917,90.639145
0.67597336,90.01869
0.7093807,91.10605
0.5989254,91.33147
0.6221489,91.26994
0.55239356,90.40777
0.60872096,90.84093
0.65377337,89.92451
0.50664157,90.91561
0.4971137,90.09589
0.64723617,93.29112
0.5090375,90.04626
0.50171673,90.3254
0.5248647,93.75077
0.5586047,96.22408
0.70108277,96.54997
0.65823823,99.28897
0.7491183,100.92471
0.8246212,100.4654
0.8058404,106.67917
0.9000892,108.49345
0.99411845,110.03338
1.0062395,107.925285
1.1928259,111.71666
1.2997724,115.501976
1.1671773,116.08495
1.3833342,118.188416
1.4445219,117.536545
1.6588858,122.94574
1.5910088,121.423134
1.7290425,126.14701
1.654123,126.873405
1.7871857,126.921814
1.7642471,132.26915
1.8439022,131.23174
1.8641366,131.53822
1.8814219,133.2695
1.9896415,134.27687
2.0011075,136.72836
1.8790662,134.13866
1.987217,135.72021
2.05522,140.41127
1.9406854,139.40118
1.950868,140.21492
2.0083942,139.15195
1.9392492,140.67953
1.9530574,143.72604
1.8748617,139.29106
1.9829443,146.41357
1.9414773,141.20819
1.9149535,141.32156
1.9013234,140.73235
1.8192602,141.18039
1.9335561,139.85805
1.8237307,139.76642
1.6933839,140.18028
1.7468265,141.02835
1.6506459,136.47618
1.6955454,138.59067
1.7491161,135.21939
1.6931852,133.58098
1.6060623,135.70337
1.5783286,133.10374
1.5847449,131.70978
1.5292209,129.79369
1.5589015,134.07681
1.5907924,129.29054
1.5037768,126.69956
1.4949366,130.39116
1.5844648,128.59195
1.5943786,127.691605
1.5190411,125.926056
1.4512548,125.25949
1.4131674,124.717255
1.4770266,122.44035
1.4477404,121.59188
1.3686787,118.90535
1.3816528,120.376366
1.4357265,117.08049
1.393727,118.31081
1.2685072,119.31409
1.3130146,112.74004
1.3066385,114.67839
1.1987265,112.18819
1.1700493,111.12945
1.133905,112.54635
1.1467556,111.387215
1.0894046,108.3263
1.0578164,103.78056
0.99471897,105.21022
1.0147219,105.51927
0.88378185,105.06512
0.87742406,105.35617
0.8754481,105.858215
0.8538387,102.17888
0.928222,101.176056
0.9520678,98.83866
0.9653541,101.453835
0.8857482,98.552605
0.879743,95.8913
0.94860005,92.18729
0.9227917,93.03218
0.857565,95.08825
0.734824,95.733246
0.82235354,91.94793
0.8019327,91.113884
0.8437428,91.259224
0.6700226,90.13882
0.67687684,91.06473
0.69259566,91.04128
0.62834334,88.32555
0.62731266,91.846725
0.68877065,90.60955
0.7218506,89.31002
0.5513645,91.11051
0.35897017,92.836784
0.43972242,87.19121
0.42891255,93.00566
0.4608952,92.40222
0.5103505,92.71441
0.31527132,94.67283
0.3941284,93.51813
0.41733915,96.723526
0.39903006,94.988075
0.4100566,94.66141
0.41236502,94.36026
0.4233995,97.07422
0.59698623,98.46761
0.5900366,101.77524
0.664465,103.00403
0.70305073,106.141754
0.7505,106.44993
0.80839723,104.69791
0.9378048,110.85893
1.0282761,112.07404
1.1917067,114.36431
1.1416044,116.21719
1.2883937,114.22278
1.3822131,122.90795
1.3858248,123.2391
1.4645768,123.408806
1.5172656,126.408005
1.4864856,127.751884
1.567294,127.49226
1.5872033,132.95453
1.6590185,127.90585
1.7930285,132.86488
1.8094621,136.33113
1.682948,133.40784
1.5954987,137.56549
1.6708231,138.16988
1.6903555,137.94269
1.801967,140.00824
1.6100813,139.35704
1.7069111,141.83597
1.7582265,137.3433
1.6319566,141.66405
1.6961805,147.30095
1.6019443,145.5432
1.6726629,141.93735
1.7136141,142.8102
1.619777,141.3189
1.542317,142.04402
1.5556763,141.93988
1.4787647,142.03777
1.4938226,140.84023
1.5735685,140.41475
1.4219174,136.10446
1.4650332,137.71173
1.3410928,137.37991
1.3837997,134.95546
1.334729,136.77678
1.2815956,133.83388
1.1992176,135.06876
1.2104894,129.18262
1.1747301,131.41997
1.0726067,132.29909
1.1813557,127.84839
1.2745922,128.76793
1.1229357,129.13866
1.1664407,127.47836
1.2104636,123.54247
1.006833,122.553734
1.090301,125.095024
1.1345396,124.07554
1.0283536,123.57224
1.1711333,122.137115
1.0611373,117.8252
1.0702469,119.04311
1.0044383,116.42804
0.9553811,116.37545
0.904154,114.86391
0.9060532,114.775795
0.9030983,114.81655
0.69505733,112.600075
0.6902581,111.5422
0.73609555,113.575066
0.7381621,111.5607
0.6856896,108.05611
0.6754145,112.17644
0.5664892,105.68822
0.56820863,104.73654
0.5738384,106.59842
0.5190729,104.00588
0.6706928,101.81569
0.45997792,100.83235
0.50705254,100.14354
0.55351573,100.81231
0.5307941,98.649025
0.4912963,97.307785
0.44730943,96.151794
0.4685924,98.08472
0.54347473,96.1766
0.39862692,94.25677
0.41237104,92.70172
0.42197576,91.363464
0.4604671,94.487335
0.38369185,90.33367
0.36818865,88.81175
0.30680493,91.522285
0.3160428,91.974846
0.36557215,94.06468
0.37534046,91.27557
0.15811539,90.00545
0.07892143,89.44366
-0.007044992,88.05295
0.18794017,89.78235
0.21335122,90.88119
-0.055362258,88.94814
0.028041305,90.37686
0.04723124,93.65747
0.015172568,92.785385
0.0929001,93.98729
0.091140315,95.011894
-0.018476963,97.12438
0.15527585,96.59427
0.15210994,97.0611
0.18509558,102.951996
0.22152233,97.84449
0.3293095,99.06198
0.38801724,108.21993
0.37440443,105.93303
0.5549447,105.29419
0.5399224,109.04223
0.7893347,111.09831
0.6426849,114.82525
0.82652473,114.384964
0.86472857,118.255
0.89019996,119.632744
0.98573744,120.76213
1.060524,121.08578
1.1661968,121.75581
1.1709943,129.33937
1.3045878,126.66621
1.2373811,130.54276
1.2994885,130.45125
1.2284901,134.19505
1.2629054,130.77946
1.4172413,138.33896
1.4769868,138.62419
1.4399817,139.93535
1.4140472,139.98482
1.3836899,142.54498
1.3427492,138.79321
1.3985157,141.01088
1.3558294,144.28583
1.4128364,140.37958
1.447629,143.14018
1.3131461,141.97638
1.365532,146.22871
1.4263747,140.93526
1.2625049,139.78828
1.3467019,142.44543
1.2469225,140.77486
1.2539458,140.55157
1.2186475,140.47383
1.22156,140.45615
1.2321421,139.55487
1.2089294,134.55586
1.1063277,138.28996
1.1209768,134.54689
1.1257757,136.74492
1.1004846,134.56964
1.0070494,134.81616
0.932391,134.50032
0.99817765,130.6929
0.93532246,128.99316
1.0097805,128.78105
0.90225923,130.77588
0.9567449,127.65983
0.9386122,127.47162
0.8257846,128.18233
0.8965963,126.22958
0.83203197,124.45931
0.8858909,122.9428
0.7290464,119.85219
0.8866054,119.706894
0.9295499,120.63832
0.84530824,119.31627
0.8947437,120.63923
0.81615365,116.66944
0.78038394,118.75442
0.7271069,114.73974
0.6662455,114.59484
0.5380182,113.10706
0.6421013,112.416374
0.58906573,109.855804
0.5157553,108.22891
0.5728616,107.22865
0.5169994,106.19845
0.44539118,104.33421
0.3768058,109.78079
0.41256917,104.3764
0.38968298,101.84583
0.31654844,103.657814
0.25004265,102.47784
0.40145808,99.61921
0.3045913,97.37227
0.41894788,97.99914
0.3423998,100.3221
0.34728268,98.07193
0.318229,92.51858
0.34422338,93.36973
0.30774167,91.898766
0.42810324,93.74719
0.3002896,94.4709
0.3081884,90.978325
0.33949205,91.94723
0.26960844,94.590836
0.2104018,91.605545
0.31551564,90.95729
0.12785074,93.00716
0.13415538,91.34127
0.22039817,91.50316
0.16064787,90.472855
0.21164349,91.40092
0.045219705,88.31612
0.013753187,91.07987
-0.034272876,89.39882
0.020907305,93.20908
0.01273217,93.20322
0.023926934,91.57089
0.0113912765,93.55327
0.108703256,93.37352
0.10229737,97.91632
0.1855382,96.681816
0.12987693,95.61776
0.26104316,99.365555
0.28219566,99.13454
0.30628258,102.5467
0.41739243,101.29416
0.43506294,105.16481
0.45319113,108.18463
0.62630767,109.78816
0.7043699,108.78952
0.68613553,112.186195
0.87390876,114.55495
0.9571413,119.09513
1.0633793,116.29242
1.0484263,119.975914
1.087287,120.671974
1.28181,126.97062
1.2835801,126.17878
1.2008258,130.731
1.3367035,127.55179
1.3562056,134.62032
1.3718019,131.83893
1.4224868,134.51799
1.5148298,133.0829
1.4034559,135.81763
1.5955393,136.83466
1.483438,141.2464
1.5739685,142.52876
1.4670298,141.0734
1.5539322,141.29007
1.4472532,142.73032
1.5200346,137.70978
1.5322087,143.9888
1.6050776,142.87405
1.4689544,142.11371
1.4423851,142.13809
1.5637457,143.05554
1.4978148,142.19492
1.4584104,141.09393
1.4303449,140.80327
1.4508404,140.14342
1.3833104,140.4088
1.323957,137.50748
1.3009185,139.78966
1.3426695,136.50845
1.3552212,136.30095
1.3064167,135.14656
1.2530783,135.82228
1.3047446,131.98157
1.1475252,132.79483
1.1694716,132.65369
1.1579633,134.64825
1.1531616,128.18448
1.1813524,127.05371
1.0534133,124.85315
1.1584644,130.30486
1.1574758,124.451485
1.2052106,123.00805
1.2766719,121.13735
1.0693488,124.25213
1.2516433,125.0926
1.0434583,124.147095
1.0716166,123.71336
1.1162052,120.34256
1.0763112,117.31956
1.093883,117.48616
1.0795454,113.48417
1.0989416,114.95408
1.0471137,111.70413
0.82091415,114.155464
0.96017087,111.993126
0.8792889,107.14942
0.86305726,111.55349
0.8576831,112.4269
0.84537846,106.947586
0.7325408,106.469345
0.87738866,106.747215
0.8111954,106.1315
0.7158497,102.24556
0.75154126,103.405205
0.7189315,99.93555
0.6223043,102.61466
0.624302,98.19677
0.6813313,97.19832
0.6005923,99.87749
0.65520346,96.993324
0.649692,94.59154
0.83359575,94.87896
0.6745415,93.46894
0.6564964,94.73783
0.6384766,93.39682
0.78130686,93.33202
0.6254101,91.854454
0.7475641,90.501396
0.6048229,91.5312
0.6719317,90.87003
0.58361924,89.06276
0.6013443,90.944275
0.5603528,90.63734
0.49854788,88.79404
0.5109038,88.26932
0.45217368,88.226
0.35149804,91.06013
0.372023,91.40622
0.33358896,90.32355
0.30408314,90.1597
0.48357338,93.12708
0.42931873,94.26926
0.34062767,94.33762
0.49971315,96.96027
0.44310826,95.53792
0.52173084,98.88931
0.6395283,99.02037
0.6556447,101.26058
0.70278037,103.17307
0.7984175,105.53122
0.8163084,108.47247
0.8824251,108.34191
0.996174,108.296555
1.0587575,108.08913
1.0720516,109.952866
1.1875181,114.82171
1.2411032,115.61588
1.3126371,116.85685
1.3921604,122.19442
1.4667798,118.58058
1.5173041,120.664116
1.6522651,123.82515
1.6534274,128.80066
1.6338592,130.01859
1.7259927,127.542534
1.7199733,132.54956
1.8981409,132.78903
1.8856199,132.81876
1.8590045,135.84782
1.8507781,135.6814
1.8989652,139.4017
1.9599283,139.41321
1.9367427,139.50566
2.0213103,138.71323
1.8778005,139.24481
1.8643836,141.59418
1.8140827,140.69131
1.87504,141.7512
1.8589535,144.33362
1.7980444,143.16176
1.78467,142.58559
1.7892141,138.70601
1.7374066,140.53047
1.7998908,141.56387
1.6659082,140.91637
1.7584919,141.85896
1.7805393,138.37347
1.6516557,137.07765
1.7405473,137.57376
1.5694122,136.74556
1.6123551,136.77634
1.7274578,136.1436
1.4819958,135.16576
1.5566839,132.02534
1.6503924,132.19406
1.5847071,131.57411
1.648521,128.7458
1.523392,128.90572
1.5519043,128.34985
1.4584864,129.10889
1.5393888,126.275314
1.5304132,124.30968
1.5095594,128.18195
1.5358107,122.78161
1.4137228,122.8667
1.4999876,124.046486
1.4733899,120.4811
1.5397056,121.45978
1.348635,112.70729
1.3732674,117.30825
1.3201597,119.21185
1.1757226,112.656265
1.3574952,112.04881
1.215867,113.28287
1.3095328,113.11207
1.2412206,114.47019
1.2478671,109.34079
1.1600747,109.31556
1.0662773,109.59161
1.0438503,107.350815
1.0711527,103.156784
0.93167466,102.78045
1.0525037,101.50084
1.0399888,101.78836
1.012732,101.62901
0.987534,101.72309
0.9550807,102.01266
0.9362976,100.666275
0.8272109,101.68035
0.97862744,99.688385
0.8553454,95.564354
0.8698616,94.65607
0.99222934,93.99973
0.9041424,92.667885
0.9874441,93.28655
0.93398285,91.853745
0.85449994,96.21403
0.8149287,92.49716
0.87453234,88.39989
0.75622916,86.86266
0.8227471,89.96583
0.7324861,91.03184
0.71143514,90.83031
0.7359398,90.18109
0.63178456,89.229805
0.6948561,91.84023
0.59447867,90.894356
0.52679527,85.86685
0.502061,90.17641
0.39719135,90.16616
0.509865,93.31516
0.62011105,93.44358
0.5198096,91.934975
0.5600821,93.13299
0.67306244,100.84503
0.59923345,95.12629
0.7067507,99.13466
0.7513526,104.499084
0.81104076,102.17773
0.7937172,106.92266
0.93833065,103.563095
1.0117651,107.7874
0.9394713,108.45259
1.0491049,111.677925
1.0930748,111.47665
1.2385838,113.084114
1.419099,114.107086
1.3477226,119.80868
1.4687651,118.45956
1.5370885,120.15501
1.5993179,121.49914
1.5159822,121.94646
1.7517185,126.28786
1.8000262,126.51848
1.7891933,131.82782
1.8472642,135.74895
1.7566143,132.36096
1.8492447,138.41203
1.921489,136.46489
1.8021234,136.08896
1.9393063,135.70227
1.8568428,139.07878
1.9426916,139.34811
1.8520446,139.6576
1.7917781,141.90062
1.9587656,141.46368
1.8149974,142.04323
1.8419002,139.65128
1.846849,139.35002
1.7967625,142.57631
1.8672725,140.52129
1.9534858,139.94229
1.7222598,144.12277
1.791227,140.04257
1.759396,141.44868
1.6996868,140.36015
1.7300851,141.57523
1.656097,136.93813
1.6963443,137.65501
1.5353959,136.29816
1.6107104,138.49126
1.7307575,134.8948
1.6188405,134.49467
1.4741758,131.61261
1.4413413,136.29953
1.3780165,132.92589
1.3140811,129.61343
1.3363848,128.67847
1.3849063,127.06642
1.3761935,130.71953
1.4181546,125.30416
1.4116648,125.73922
1.28756,122.28387
1.3917266,122.194
1.2902809,123.11171
1.3156033,121.31341
1.3255581,120.38468
1.318843,119.25638
1.1729678,118.13699
1.0778767,118.426575
1.2339009,118.78744
1.1856326,114.00892
1.1766537,114.58967
1.2500974,113.148155
1.0348938,111.80481
0.98102313,112.852875
1.0391245,111.05587
0.8799085,112.75448
0.97102106,105.96873
0.8668453,109.08294
0.7656625,103.08443
0.8172265,108.26793
0.76684016,105.643875
0.7746433,106.056526
0.70358443,102.71066
0.69285583,101.077385
0.6904302,100.80312
0.59476876,98.41594
0.64869744,98.680305
0.69450474,99.64848
0.666048,96.913635
0.72919714,98.5188
0.610343,97.25445
0.5322609,94.91188
0.60316676,93.32648
0.57114077,92.70218
0.74480516,92.16261
0.61940444,85.388855
0.5384496,94.10955
0.60287195,87.11136
0.42120126,87.58582
0.4565985,91.85366
0.41813058,91.46396
0.50079226,86.72546
0.29151124,89.80919
0.34650546,89.377914
0.31795275,89.65089
0.25613922,90.64199
0.3503087,89.97866
0.18762219,87.59958
0.2956564,87.70673
0.24369745,93.07036
0.34378424,91.98316
0.19516218,96.03885
0.2224671,91.43881
0.27856702,97.879654
0.25744078,99.4053
0.34809604,101.597946
0.43413183,102.86668
0.40996376,103.377075
0.520061,104.02366
0.55067724,106.34738
0.6502226,110.03518
0.6688113,111.52183
0.7552199,113.72888
0.9144598,114.64033
1.0339103,118.00303
1.1025054,116.61411
1.1641158,118.24361
1.1434371,122.53169
1.1921705,122.56573
1.2001334,127.42676
1.3868464,126.1155
1.2679771,127.15787
1.4667442,129.43661
1.4659411,129.33777
1.5443827,134.0475
1.4868033,135.35544
1.4359233,134.48114
1.4817181,135.47014
1.4723933,137.40091
1.4420376,137.71678
1.5355903,138.74629
1.460888,141.5654
1.4973011,138.00494
1.478348,142.65576
1.5318751,141.53227
1.4453814,142.14197
1.6089085,142.20161
1.4348133,143.77657
1.4294481,142.23366
1.3266336,139.63223
1.4249038,141.76625
1.4305452,139.95276
1.414122,142.65073
1.3961301,140.08769
1.3534329,140.55139
1.1371819,140.02786
1.2243892,137.21213
1.2748457,137.37279
1.1874272,135.31552
1.1369718,134.817
1.2543458,132.6908
1.0490464,132.24785
0.9924336,130.96086
1.0553242,129.49861
1.1143078,129.35919
0.9917831,134.47511
0.91829044,129.49532
1.1299998,130.06808
1.0881464,126.46799
1.0231951,125.836624
0.9116486,122.69312
0.9622112,123.39884
1.0694604,121.39788
0.9005475,123.38611
0.9313019,120.44237
0.91331,118.43828
0.98119885,119.29039
0.860438,119.47755
0.73443514,116.62367
0.81332415,116.0649
0.73807245,116.94008
0.7867126,112.811
0.60185707,110.81624
0.68958974,114.75023
0.5989018,111.91546
0.5629182,110.9362
0.46878716,108.49724
0.58805513,107.79022
0.50714195,105.794266
0.50699115,105.07071
0.4002098,104.959274
0.49871224,103.72375
0.3106746,101.09715
0.41455218,100.99183
0.426027,102.674774
0.43882594,100.99612
0.35828498,94.67894
0.29947093,99.304665
0.37949598,99.62468
0.36048892,95.603645
0.30191723,95.99097
0.38494962,93.29874
0.2767634,96.57043
0.33728495,92.922874
0.28446507,91.772125
0.36001843,93.12004
0.2043709,90.75381
0.28260064,90.406555
0.24376525,87.4126
0.25578457,91.22918
0.22581348,89.91051
0.053860415,90.30453
0.05037513,89.12844
0.09218812,87.27473
0.060375314,89.128204
-0.023124117,85.324776
0.007407099,91.315254
-0.052218877,94.30198
-0.08563135,91.77784
0.036076933,92.93395
-0.051497694,94.03778
-0.028020943,91.27121
-0.03428547,97.71531
0.011891856,98.65904
0.032845117,98.60541
0.06940078,98.45079
0.06710677,102.33699
0.2470495,103.4943
0.22985718,106.40512
0.27651495,108.1878
0.4222189,106.62735
0.53487474,107.924095
0.5787046,112.19244
0.59161896,114.92586
0.676855,114.76948
0.7969833,118.860016
0.9443571,119.35815
0.93195647,121.73298
0.99958676,123.28034
1.0358745,122.97239
1.0514292,124.35111
1.1125196,125.331635
1.0885587,129.04031
1.2319131,133.50758
1.1617867,135.01999
1.2964389,134.12808
1.3475505,133.3081
1.2599033,139.73087
1.529557,138.03404
1.3822148,138.54745
1.4128453,137.79736
1.4196522,137.64851
1.3155026,140.75012
1.3964669,139.90025
1.4702843,137.00085
1.4719621,144.05078
1.4605775,141.31737
1.2604524,144.10678
1.3538529,144.18903
1.3601842,139.30948
1.3752626,142.55304
1.2512735,141.9601
1.3911546,143.98537
1.2578284,141.68318
1.175155,140.75296
1.1830322,139.92105
1.2472216,136.2589
1.2249203,135.98586
1.1717511,137.51804
1.10896,136.31259
1.037331,134.95198
1.0794876,133.75851
1.0772922,133.88066
1.039591,130.79808
1.096984,131.5116
0.95322645,132.9736
0.94870543,130.4894
0.9353227,126.6825
0.9053351,126.572136
0.9462987,127.19446
0.99735516,127.03901
1.0719521,121.80942
0.89668775,126.83572
0.92078274,119.51589
0.95213497,120.257034
1.0298264,121.70472
1.0157232,117.88862
0.89028156,117.669586
0.89108324,118.16461
0.9330914,116.273575
0.76950777,116.4299
0.94275725,113.60203
0.6724673,112.840866
0.59854496,111.10792
0.7326215,111.607635
0.6449027,109.14538
0.63922095,109.77348
0.5752433,106.8058
0.5309909,109.9428
0.58607817,106.97988
0.44294766,104.71812
0.59373677,102.5595
0.45102742,105.261345
0.4239091,103.17569
0.4846845,100.52731
0.5372068,98.82653
0.46066746,102.16562
0.5257791,100.6922
0.49627495,96.00064
0.39690146,93.79603
0.5295519,94.633446
0.4116771,91.81698
0.5190123,94.18399
0.48714003,92.82289
0.43636736,90.66474
0.3600907,92.660774
0.5906021,91.787056
0.42930967,92.4452
0.47050983,90.023315
0.38963053,91.04175
0.40268436,93.08739
0.33787224,85.09475
0.28988135,91.23983
0.12298589,86.12406
0.21126488,90.063576
0.20121355,87.506584
0.11931657,87.19756
0.13303617,88.385635
0.11363835,90.93942
0.10849251,90.6436
0.21761034,93.98969
0.08125258,94.420906
0.091557875,93.56928
0.2969856,96.076546
0.27077228,95.543274
0.43700892,101.404655
0.3408572,101.93669
0.50066787,100.521774
0.514791,104.88691
0.4489639,102.12615
0.6818761,108.25764
0.7720483,108.10792
0.8324943,112.39993
0.8619227,112.524414
0.9063606,113.60478
1.0675095,115.65556
1.1129743,120.278435
1.2174902,118.21929
1.2651083,125.04211
1.3838131,122.902245
1.3018264,127.198685
1.3880794,124.78512
1.6203153,131.72844
1.518046,132.93379
1.5490464,132.74626
1.5653377,130.9723
1.5526432,134.71698
1.6076752,134.15924
1.5825195,139.79709
1.6657763,138.09221
1.7608578,139.75363
1.7248139,139.35696
1.8118994,142.59775
1.7706132,140.56937
1.6916848,139.7418
1.7940669,143.18
1.6427251,139.84415
1.7840551,142.16545
1.6483679,141.69125
1.5804957,140.61317
1.6055079,141.96387
1.6903285,141.05482
1.5677668,141.61588
1.6760322,137.63501
1.6347637,138.24207
1.5026255,139.362
1.4700661,137.35756
1.487046,137.77184
1.4972858,136.44589
1.4540324,137.08093
1.5039514,136.83336
1.3457063,135.0461
1.4528219,136.64243
1.3639838,130.89058
1.2664711,135.00797
1.3839703,129.88771
1.2728258,127.26562
1.3425549,126.33305
1.4065938,127.879524
1.4049356,123.88457
1.314257,128.01642
1.3150233,121.91572
1.3260351,124.529976
1.302484,122.34157
1.1850792,122.002594
1.291133,122.73568
1.2793688,120.76806
1.2597976,118.48281
1.2144527,117.49515
1.0888395,116.410545
1.2523355,115.39243
1.2018291,115.83944
1.2130959,113.676895
1.0756897,111.538994
1.2174424,112.86461
1.093271,111.99779
1.0261762,106.84974
0.9806774,104.79565
0.9188565,108.73169
0.848011,106.77018
0.981696,104.28637
0.88048714,106.42143
0.8110522,103.847855
0.9432654,101.254585
0.8722275,99.91014
0.93325627,101.669655
0.8445536,94.46824
0.92328256,97.249466
1.052258,96.5343
0.82294226,95.05394
0.9035859,95.14733
0.79888254,94.55847
0.9569006,95.35847
0.85409933,92.892136
0.9227488,94.837875
0.85075474,91.492065
0.7800253,90.849335
0.9194628,92.81599
0.8558202,92.31113
0.72683924,90.701866
0.72618496,89.886604
0.76445615,89.78991
0.73295707,85.95344
0.66591483,87.15347
0.6346321,88.466225
0.62541485,87.156105
0.61363363,92.47111
0.43114555,89.177376
0.51920444,92.353294
0.4795158,93.531364
0.6488587,95.80364
0.4855174,91.405846
0.4967245,98.39442
0.57401216,95.614296
0.6056565,97.65654
0.7163119,98.20794
0.75854236,102.758606
0.7691107,101.18033
0.8137895,100.65143
0.8993165,106.47261
0.9116442,105.52001
1.10578,109.75475
1.1165912,111.43674
1.1568853,111.83644
1.3313835,110.32343
1.4224502,116.279785
1.4221964,116.67702
1.438088,120.372154
1.5367476,121.52855
1.6476413,123.950035
1.6631832,124.99664
1.6463622,124.295746
1.7435373,128.70695
1.7481194,128.56178
1.8518281,129.69986
1.8293755,132.52701
1.8691503,134.2295
1.9336921,136.93091
1.9635922,136.43153
2.0130262,137.9506
1.9892489,140.51556
2.0036314,138.33029
1.846703,140.51122
2.0224276,141.6397
1.9722638,141.27815
1.8799034,140.33502
1.9508457,141.51721
1.7974255,139.83884
1.9172753,145.91795
1.9312326,145.37057
1.9710014,143.31612
1.8619294,138.72548
1.793114,141.74648
1.8911147,141.19601
1.8670198,140.58524
1.7547373,143.52611
1.7754158,135.70892
1.8264579,137.65828
1.6308928,136.03058
1.6888969,135.6053
1.7836949,138.59088
1.5962422,132.68764
1.6799283,135.38466
1.564015,133.92029
1.4288795,130.58067
1.5030847,128.65065
1.5633255,130.05864
1.5265608,130.48088
1.4965227,125.85371
1.5323511,126.87045
1.6181538,124.437836
1.4252982,123.83399
1.4394749,125.74797
1.5053867,122.58017
1.3947765,124.50279
1.4973674,119.927666
1.4429588,118.44101
1.3474318,120.4416
1.2917482,117.11774
1.3556489,114.34319
1.2889402,118.05769
1.2522159,111.69681
1.2914019,113.27064
1.238345,112.02327
1.1403799,108.840675
1.1194761,109.55017
1.1078306,112.05044
1.105195,109.849304
0.94735014,105.04445
0.9201849,103.33795
0.9762099,105.83935
1.0217116,104.82444
0.8837497,100.86227
0.9478938,104.143654
0.88837284,102.9726
0.8233854,102.719345
0.89672273,98.91762
0.8524309,97.69938
0.99857026,96.77822
0.94576526,93.94144
0.87587935,97.02546
0.7280355,91.80131
0.87050396,94.15504
0.76016355,93.94318
0.79009587,95.64133
0.8511508,92.973656
0.7417028,91.36152
0.7837073,89.67829
0.6469339,92.82118
0.6891854,90.23471
0.66607845,88.023026
0.70110863,93.13823
0.6215311,87.303024
0.541379,89.89843
0.5922345,90.28468
0.65955245,84.7294
0.5497834,91.33088
0.5226515,88.76824
0.4489187,91.02134
0.44004685,92.66401
0.362628,93.75699
0.2806341,95.98199
0.34676296,96.42426
0.53117454,96.341354
0.63010263,95.820305
0.56987554,98.488976
0.5630885,101.72388
0.5874042,103.18639
0.60620636,100.453735
0.75484794,106.86932
0.8275659,108.063644
0.8529282,108.54478
0.94191384,109.665955
1.0366828,110.12357
1.1142328,112.914116
1.1149646,113.41034
1.2065042,112.5806
1.222297,118.51306
1.4241095,120.37748
1.4062917,125.23672
1.4892241,125.17817
1.5873486,123.74333
1.5782195,127.87097
1.6490989,127.30912
1.633465,131.36452
1.6320254,130.67247
1.7231953,133.29419
1.7421917,132.9603
1.7078592,138.00114
1.701565,137.10382
1.7120098,138.401
1.7863357,138.09425
1.8192753,141.2213
1.7158526,139.34132
1.7347065,138.63858
1.7829674,144.15239
1.6423023,140.41681
1.7421669,142.22308
1.6346282,138.16266
1.6046188,141.96938
1.7024701,141.69046
1.6594911,140.42082
1.5779394,143.24649
1.7345147,140.70601
1.5089632,137.94595
1.4500285,140.05338
1.5598307,139.87546
1.5173044,136.38495
1.3942622,135.80647
1.4360507,133.8061
1.3588414,136.7559
1.3697302,133.97119
1.2873573,129.96347
1.2510412,131.27972
1.2415509,130.72462
1.2294528,134.13202
1.220933,131.02783
1.2089767,126.72619
1.1765718,129.68292
1.2139469,128.28888
1.172922,125.79783
1.1017582,123.297485
1.2051576,122.12941
1.1401768,120.39136
0.96412426,122.73415
1.1013676,120.78656
1.0488284,121.00265
1.0250882,121.48557
1.0297874,118.56706
0.9607031,116.922485
1.0629475,118.27636
1.0204211,114.812515
1.0017511,115.2904
0.96899486,115.101234
0.9455025,109.19522
0.86266035,110.84629
0.8438301,111.6881
0.6523255,110.202126
0.6313977,109.58974
0.5297445,105.71423
0.6759624,106.911316
0.6167705,103.42856
0.65251523,105.126595
0.5306085,100.60504
0.5709419,99.450584
0.47065997,100.23813
0.39279503,99.928795
0.45722073,103.01196
0.5483551,99.25621
0.46287885,96.72848
0.38828054,96.05132
0.46712917,95.332504
0.43935058,93.88704
0.5257242,91.92143
0.4548393,92.66318
0.40038407,92.81582
0.43078902,92.42135
0.33270946,90.95432
0.31619444,87.76134
0.3853447,91.625786
0.28910324,86.22949
0.3057789,89.21096
0.28503495,93.960945
0.14367975,88.986725
0.1549208,90.07755
0.17677154,90.36709
0.12180644,87.18846
0.13707781,85.5045
0.17384967,92.486
0.081741855,92.20205
0.046628956,93.72868
-0.038566012,92.15031
-0.073098436,94.13663
-0.02691641,95.78132
0.06460287,96.25602
0.1651332,98.73271
0.1776123,99.113846
0.25701892,99.62936
0.25891325,103.58447
0.32143453,106.683334
0.36352277,103.05388
0.42771724,107.861626
0.55747753,111.93954
0.64100355,110.62913
0.69069433,114.93843
0.8111392,111.31846
0.9060386,116.33655
0.88757336,114.163765
0.9349636,121.73362
1.0351546,121.37945
1.1163628,123.12929
1.101035,123.10641
1.1694837,125.454506
1.289097,129.09282
1.1884446,126.543945
1.2715033,131.78253
1.3788289,135.21715
1.4691885,132.68387
1.3728942,136.49461
1.3477287,138.16388
1.4257908,135.64786
1.4107289,136.44003
1.35579,137.35141
1.3746327,141.42784
1.3802707,142.8035
1.36306,137.66248
1.549919,138.15181
1.3589458,142.79001
1.4045285,141.69302
1.3107378,142.7134
1.3789669,141.39229
1.2342147,141.05054
1.3856771,141.02304
1.1649646,140.20909
1.1199865,140.9413
1.449824,138.97353
1.1965677,140.12045
1.1553897,141.74963
1.0530609,137.40968
1.0775776,137.00038
1.0506475,134.31847
1.0412629,133.59506
1.0244701,131.45718
1.0765834,133.20027
0.9617214,135.6134
0.83516914,132.4259
0.9847676,128.9832
0.8344254,132.30702
0.8981873,131.81651
0.87107164,123.23075
0.92700356,125.92821
0.9912439,125.892586
0.9476103,126.25879
0.95466375,124.40665
0.93887067,123.14962
0.88496417,119.56092
0.82418084,118.940895
0.7539637,121.236664
0.99967504,118.920586
0.745175,116.937775
0.82723194,112.575806
0.74214023,115.699196
0.7389022,116.3368
0.7388795,113.40812
0.69419795,111.74855
0.5629714,113.431145
0.5483814,110.62993
0.48545176,111.9763
0.603221,110.989586
0.605214,107.6197
0.4790046,107.602516
0.39535975,102.46339
0.32827598,104.612755
0.5155205,106.01493
0.44979352,103.23001
0.3375722,100.81058
0.2734969,99.73735
0.33834767,102.37236
0.40723783,95.45715
0.33831632,96.1844
0.41941428,96.24341
0.35972604,95.38324
0.33364084,95.58211
0.34037313,93.59107
0.28510565,92.77568
0.3499331,96.83393
0.5000051,93.15499
0.24199146,89.59192
0.16240552,90.88501
0.24976857,88.471565
0.22334997,87.37273
0.2457164,89.18237
0.14118831,87.77175
0.23874615,88.41301
-0.0037006324,92.79135
0.06319396,90.90541
0.0039357613,90.351456
-0.0054966514,88.750916
0.027728641,93.60404
0.030828495,93.069885
0.017945664,91.427315
0.015935563,97.00434
-0.006924116,94.95761
-0.14027931,92.47829
0.027589697,94.98151
0.055633765,100.27099
0.10747441,102.02471
0.17081419,102.243454
0.32635143,100.44883
0.3697019,101.278564
0.38937867,103.70835
0.4633923,111.251175
0.5572032,109.381355
0.6047933,108.45628
0.64546734,115.187546
0.7576888,114.46847
0.9412211,117.26394
0.8989598,117.36394
1.0168054,117.508415
1.0854977,119.450676
1.2063888,122.39085
1.1696558,125.74355
1.2038292,127.58985
1.2161398,129.39069
1.3932508,129.64642
1.3753755,132.98035
1.425927,134.69952
1.418554,134.62967
1.3840919,134.94493
1.4066192,135.98233
1.539642,140.6718
1.5479538,137.03688
1.4616635,137.60753
1.4928266,138.47124
1.4596231,139.88113
1.4039447,143.29184
1.402183,141.22162
1.4237168,141.23067
1.6059636,140.44023
1.458335,143.55539
1.4795686,142.82211
1.5364156,140.07588
1.4581681,140.2612
1.3454025,142.84674
1.3933678,144.68633
1.4847864,142.3658
1.3939675,141.04329
1.2699766,139.8742
1.26615,139.79204
1.3055153,137.32214
1.252956,137.69122
1.2774154,134.83937
1.3048292,133.82097
1.2369536,133.45503
1.2330476,134.27596
1.0763377,132.79451
1.1015369,131.74448
1.0968307,129.21031
1.0903275,127.87506
1.0955927,124.37441
1.1030759,127.92882
1.1649075,126.84575
1.1195105,123.13842
1.0760968,123.18243
1.1508806,123.644005
1.1319137,122.940704
1.092336,121.63293
1.1098322,119.71462
1.1161956,119.444046
1.0413107,117.65996
1.017016,113.4193
1.063314,114.2554
0.96823037,112.78705
1.0513974,115.60918
1.0204252,114.30822
0.97282827,110.1995
0.81814885,110.66749
0.8303338,107.81701
0.75260186,107.500786
0.8105435,104.49066
0.68327385,106.01285
0.73650724,105.86178
0.7658255,105.594955
0.6358987,103.58106
0.7256664,105.64211
0.6537837,102.536865
0.57210875,101.79279
0.51467526,98.50312
0.6348745,98.42742
0.65368235,98.4798
0.71242964,96.87241
0.60291827,95.80471
0.52176255,95.14842
0.68462473,91.71961
0.6197572,91.53475
0.5690001,93.729294
0.62212986,92.21191
0.608019,92.82293
0.66017014,89.16816
0.60465705,90.495026
0.5275147,89.17578
0.6305146,92.64445
0.4332222,89.931114
0.4220445,91.131424
0.52859586,91.65686
0.46751574,91.259026
0.3241454,91.317535
0.40160382,91.896965
0.3715852,90.350105
0.2634287,92.77699
0.36482322,93.62185
0.28410304,94.6718
0.30088997,95.32219
0.28273878,91.76993
0.5187662,94.55837
0.40633267,97.59642
0.45047536,98.6953
0.4949463,102.58658
0.7049777,103.25892
0.5397301,104.00304
0.6459368,102.746056
0.8786534,103.89233
0.85671616,106.31378
0.87489545,112.846794
1.0332614,112.10395
1.1643772,114.959854
1.1726179,116.626045
1.202428,113.6746
1.2721479,121.23115
1.4018682,120.45961
1.5069469,122.33549
1.5989846,121.64376
1.6463685,126.983154
1.5959213,131.61417
1.7238324,132.48103
1.6723534,130.79382
1.7610573,131.17064
1.7377822,131.36551
1.7401447,135.9538
1.7923653,138.53049
1.9148552,136.32564
1.7957923,139.72118
1.9337304,140.30637
1.8554399,138.5219
1.9045888,138.4917
1.9400876,142.4402
1.8376228,143.27676
1.886035,142.60901
1.8406407,140.59499
1.8926657,142.10535
1.8274431,143.17691
1.7625848,139.15549
1.830542,139.877
1.8371935,139.18788
1.6964651,138.04085
1.7381183,136.96242
1.7754802,140.69348
1.753424,141.50636
1.7383293,137.73592
1.5893766,137.10121
1.6875284,139.44151
1.5728705,136.00172
1.5110453,134.27715
1.586171,133.50351
1.6502107,132.81364
1.5781858,131.48415
1.5859317,131.92833
1.4952074,130.83813
1.4986584,130.74144
1.4832662,127.734085
1.555364,128.91733
1.4843322,127.07414
1.6255275,122.604034
1.4460729,122.77376
1.4126222,120.64063
1.3920896,122.8407
1.4513899,121.05323
1.4436761,121.30222
1.4317123,116.82119
1.3628463,119.417885
1.3493632,117.890236
1.3527789,119.17331
1.2717094,115.58222
1.2110846,113.25532
1.1705912,111.45166
1.2800851,113.61297
1.1222506,111.01163
1.1835539,109.580635
1.154498,110.559715
1.0697834,107.34642
0.99568903,107.27443
1.1484058,108.37633
0.99641657,104.59419
0.9531123,103.90805
0.989426,100.53458
0.97893393,99.85912
1.0124804,103.650475
1.0352474,101.43295
0.99015486,98.00825
0.92114305,96.10412
0.9618176,99.170425
0.85520196,95.93699
0.98417807,96.22121
0.8880596,93.93531
0.91505283,89.70021
0.86114943,94.654205
0.90908945,92.66017
0.9134274,92.061195
0.8838373,88.94816
0.88194644,87.15248
0.7034262,91.392494
0.80980986,90.85149
0.816663,88.676865
0.769515,88.061905
0.7233018,89.46709
0.7533053,87.26302
0.6146373,90.42575
0.642753,91.025665
0.541571,88.98989
0.483405,90.750824
0.43908468,92.82941
0.5443932,92.965546
0.6667868,93.20098
0.69021195,91.63288
0.5563844,94.18385
0.5912581,102.03689
0.5144234,99.11764
0.5531488,99.26418
0.79182214,102.474556
0.674947,104.120514
0.85916966,104.08638
0.92437106,108.320724
0.9744222,108.90462
1.0699723,110.33304
1.042106,114.24014
1.1146843,113.50823
1.2869449,113.22869
1.3160022,115.789406
1.5026337,115.14918
1.5385503,120.82414
1.6122847,119.09453
1.6397884,123.616005
1.7556779,126.750854
1.6519747,126.88248
1.6599473,128.72621
1.8039452,128.05864
1.9180158,133.45612
1.8889894,134.69995
1.8919867,129.92047
1.9311476,132.0351
1.8684247,138.16895
1.9229416,139.50848
1.9399949,138.65752
1.7860767,139.49934
1.8419931,139.62498
2.0251646,140.96068
1.9053178,141.45694
1.9959322,142.85292
1.8957049,144.5643
2.018544,141.83
1.8170612,141.50098
1.8747169,140.97382
1.8426863,142.01003
1.8063016,140.22212
1.7440488,142.07727
1.6971967,136.08852
1.7555112,139.61452
1.6166465,139.42397
1.7436084,138.88634
1.6034466,137.4699
1.7453507,135.38696
1.6020048,134.5858
1.5333406,136.1927
1.503778,134.3798
1.5076712,132.97214
1.4983635,133.91829
1.4426091,132.8737
1.4837488,129.33453
1.4038804,131.0376
1.406853,127.44794
1.3521762,125.90119
1.2907255,126.14039
1.4083863,125.1628
1.43832,123.24514
1.3535048,123.87483
1.3229852,121.225136
1.2514997,122.16582
1.3781338,119.30616
1.2768233,118.396484
1.2556279,118.25284
1.3126723,120.059204
1.3290817,114.91918
1.2590319,115.58759
1.2392694,110.81413
1.0403925,115.87046
1.0582643,113.36618
1.0946822,113.22685
0.9567882,109.87726
0.98498774,105.57802
0.9082378,110.516884
0.93010247,109.564186
1.0428867,106.93183
0.8437606,106.350815
0.8048047,104.16719
0.7825961,101.149155
0.7738149,101.72029
0.7358445,100.31945
0.7548753,97.575424
0.85801274,100.39404
0.62186193,98.42316
0.6370253,97.007515
0.68174165,99.95085
0.7262106,95.36693
0.7349875,93.306244
0.6872677,92.26044
0.71053696,92.882744
0.7790585,89.100815
0.8252351,92.84208
0.65768737,90.77313
0.5648061,91.99102
0.64981323,92.15812
0.5030453,91.80504
0.48131508,89.01024
0.5099646,89.4996
0.43023157,89.28097
0.37568158,91.26324
0.37825832,93.0171
0.36939803,88.27818
0.32802337,90.767006
0.17984654,91.9137
0.26010182,89.32036
0.29138207,95.0354
0.24990804,89.45672
0.21892029,96.80645
0.21304959,96.13421
0.19543557,96.654945
0.33312422,97.2354
0.40173915,95.154015
0.4445881,101.75549
0.44422272,103.07072
0.4831565,104.91895
0.6608614,105.88389
0.5638222,107.36331
0.7122765,106.92433
0.8031306,111.10979
0.8654398,111.27433
0.912857,119.28727
0.9492029,114.42412
1.1028304,117.02736
1.1714379,120.1351
1.2196686,121.36134
1.2456028,121.904526
1.2614363,124.91325
1.3226374,126.41451
1.3176699,129.09471
1.5589626,133.8969
1.3877697,131.9839
1.6159189,131.64882
1.5492142,133.87126
1.5495194,136.92392
1.4757686,133.89954
1.5287733,134.94733
1.6129916,142.31943
1.5391378,140.55067
1.5499893,141.42241
1.5200038,139.95523
1.5582749,143.13641
1.5365292,143.40079
1.5306712,142.03484
1.4844043,140.09474
1.5610303,140.55034
1.4408274,140.22838
1.4758179,140.53966
1.427933,138.55325
1.4157729,140.36981
1.3329998,138.66977
1.3280703,140.04845
1.2090147,140.00739
1.3413932,139.95319
1.2460384,135.32019
1.2559365,138.00551
1.1069098,133.36325
1.1752137,133.84618
1.27268,134.47412
1.1441317,133.33905
1.2355515,134.09741
1.1368687,130.56284
1.1117994,131.77109
1.0819207,127.463684
1.0509508,128.47023
1.12642,127.48043
1.0113254,126.19763
1.0445722,125.257126
0.9873383,124.68101
0.95918447,126.4788
0.9819699,124.76942
0.88337463,122.903984
0.94004506,118.87368
0.90884715,120.020905
0.9944086,116.864494
0.8351171,118.59135
0.7813877,115.839066
0.83617127,115.45724
0.73341453,114.9768
0.6734777,115.32205
0.7787242,109.45382
0.6971898,111.7337
0.6314081,113.2408
0.54604435,110.039734
0.5808535,109.72923
0.56236887,106.44838
0.39529335,107.23721
0.44273528,105.55756
0.45087758,103.21802
0.35466963,103.023605
0.4673186,99.77297
0.45352674,102.727135
0.2752493,99.5811
0.29453626,98.06195
0.3795882,97.04066
0.48335356,99.33796
0.36948922,98.104675
0.3196152,96.83533
0.36455458,92.51124
0.28987604,94.492966
0.42303658,90.58301
0.36384806,90.960915
0.30410734,90.51972
0.27712673,91.37665
0.32258347,91.79207
0.21103269,89.720436
0.20405231,90.1379
0.27946597,90.86217
0.09046413,91.73122
0.050837986,88.44969
0.15576664,94.749
0.036391195,87.90498
0.01258819,87.80696
-0.14738815,92.319565
-0.06479271,91.49949
-0.104246706,91.458084
0.0035507914,93.733406
-0.059852693,95.586334
-0.08547759,94.96128
0.016888078,97.25947
-0.0016982027,95.32462
0.103502885,96.103165
0.20327376,99.960884
0.0303525,101.00882
0.15341038,101.0913
0.0916769,101.34711
0.2424836,105.333405
0.39884928,110.166046
0.4585457,110.41115
0.5841862,111.95109
0.645805,115.1353
0.5628732,112.280754
0.78489435,111.89817
0.74597096,120.9975
0.8883875,121.622955
1.0573007,124.19921
0.97229314,122.36982
0.9959545,127.40684
1.0280987,126.337776
1.1888944,128.9772
1.2641943,127.64659
1.1271799,130.09422
1.1942645,133.4814
1.3242251,134.04453
1.2577908,136.13106
1.3555559,137.39992
1.285976,136.3574
1.3132432,137.44777
1.4368695,140.35243
1.3302697,139.2628
1.3406123,139.7334
1.4715431,142.16772
1.3762335,143.31226
1.401284,143.25592
1.2541277,139.08609
1.2754111,141.61513
1.3521433,139.26218
1.269453,140.58907
1.3046967,139.12761
1.2917784,137.32095
1.2593385,139.83228
1.1373291,139.89362
1.1593769,140.7374
1.2229271,139.7859
1.1266782,138.58466
1.2225058,134.94716
1.1008466,134.1552
1.0663892,133.3577
1.0979724,134.51958
1.1834383,133.4201
1.0874327,131.43253
1.0448475,130.32455
0.95863104,132.704
0.9471336,130.94186
0.95154387,129.03354
0.95260054,125.97851
0.88511544,127.891075
0.86725265,122.73942
0.79417485,123.52997
1.0627736,121.53572
0.9159913,123.14955
0.9061091,119.64344
0.8550418,121.52928
0.8600825,120.972176
0.8676696,122.15621
0.90659225,118.20503
0.8356947,117.7051
0.83720064,117.17065
0.9225562,114.886536
0.7278391,117.07832
0.7495352,112.785324
0.7890437,110.55324
0.7010521,111.570045
0.5816272,107.46258
0.5797846,103.14221
0.5934622,108.931175
0.5408386,107.284996
0.53174394,108.37113
0.46639565,104.82229
0.5003408,103.16249
0.49720523,99.932175
0.41202238,100.30731
0.39868635,103.187584
0.40844607,98.78078
0.39062533,98.49369
0.48370847,97.82379
0.44312143,93.26484
0.40823212,97.423676
0.44679323,93.47115
0.5362752,94.72758
0.36785942,95.75914
0.42055416,94.68932
0.3842998,91.90542
0.31043938,92.630714
0.4202865,92.27256
0.3781456,93.29309
0.34663212,90.641655
0.4159706,93.38797
0.28256166,90.04432
0.29979426,87.94142
0.19408675,90.49813
0.22627999,87.47203
0.24830186,88.11457
0.17030053,91.371056
0.18906912,91.684326
0.075180024,89.189125
0.061471373,91.54811
0.17901972,92.76391
0.17016813,92.70701
0.21676743,92.39869
0.2089072,96.641365
0.2749816,95.90507
0.15726396,100.94341
0.26077858,97.33047
0.31595412,101.497475
0.39261907,105.25699
0.51186526,105.01032
0.4421615,104.97225
0.6449283,106.88524
0.66307986,108.4617
0.88930625,115.588165
0.9199004,112.96645
0.97588676,113.73635
1.0508053,116.53653
1.0257634,120.94262
1.2425294,122.05397
1.2004439,120.01778
1.2955155,122.57939
1.3857049,126.56164
1.4164318,129.99585
1.3301861,127.98578
1.5519218,130.45941
1.5789732,131.4436
1.6115651,132.07362
1.6499126,134.21037
1.686091,135.29718
1.6140561,135.73897
1.5998538,140.05406
1.732731,143.8526
1.5895115,142.52167
1.6549127,139.78026
1.6630528,142.06355
1.6288282,140.78462
1.7074374,143.36006
1.6311522,142.04048
1.610067,140.2473
1.7072196,142.7364
1.5854117,141.21
1.5593711,143.58272
1.5347037,137.02435
1.5355012,138.47005
1.5835261,139.37822
1.539447,140.28056
1.4899205,137.08339
1.6348507,140.00175
1.5431894,142.0545
1.4118023,134.50624
1.4348257,135.24055
1.4179995,131.24367
1.3963366,136.71378
1.3765332,129.96407
1.3207864,130.95338
1.3572996,128.7538
1.3850738,133.02487
1.3230456,131.3112
1.3250532,128.74045
1.4099909,125.291405
1.3536317,125.129005
1.345715,124.971886
1.3981926,126.87178
1.2105743,124.743286
1.2689072,122.70724
1.2530683,121.08233
1.2835351,123.16712
1.3002546,119.22189
1.3016549,117.98851
1.1748109,113.550964
1.2755634,117.03968
1.1588261,115.429565
1.0086324,116.43921
1.13733,114.3377
1.0318644,110.791
1.1412619,112.39314
0.924538,110.140816
1.0398116,108.87176
0.8865501,107.24163
0.94637626,110.01321
0.97449756,107.17452
0.94867355,104.6355
0.93950164,101.99282
0.82624525,100.82874
0.7827896,101.699455
0.89989793,102.24831
0.851254,98.313484
0.7571288,98.207565
0.7801938,97.75931
0.8115526,97.21698
0.8546799,96.06065
0.8927477,92.6282
0.9725757,97.71819
0.662467,91.35049
0.9002527,91.593895
0.8080099,94.80084
0.85076654,92.149956
0.8153865,89.42551
0.83838975,90.499275
0.71851826,88.929115
0.65463305,93.26735
0.6466803,90.78232
0.63550365,88.15417
0.63928354,93.09445
0.6627085,88.16984
0.62865394,90.67513
0.62228507,89.973145
0.5615665,91.59977
0.5388952,88.51152
0.4995756,88.675476
0.5396286,91.06006
0.47224763,91.46972
0.6126077,91.765236
0.56983227,92.48878
0.6422715,95.949684
0.67108107,99.039024
0.6966095,100.241806
0.63792324,100.91258
0.6956313,103.521645
0.8860274,105.678215
0.8632915,106.71722
1.0164773,104.726006
1.0395181,109.97112
1.2325708,110.10015
1.1311564,111.98232
1.324573,116.00048
1.2800292,118.68554
1.4092723,117.33082
1.5601585,120.036095
1.4831961,123.107506
1.7183353,122.914215
1.6531171,123.46852
1.6685996,126.71356
1.8205357,128.00958
1.7902901,125.69951
1.8900371,132.39938
1.8631904,136.03944
1.8948758,132.67902
1.8515778,134.58511
2.0005372,136.65514
1.9802697,139.91302
2.0744386,140.21567
1.9910862,137.3579
2.0058653,140.75874
2.0073397,141.21024
1.8866698,143.6765
1.9393215,137.52339
2.0300362,141.65236
1.8475479,144.53253
1.8375504,139.48422
1.9203198,141.11313
1.8710086,142.83266
1.7277937,142.16577
1.8335284,140.22966
1.8071069,139.41151
1.8179142,141.10489
1.6588526,140.98474
1.7013011,139.30913
1.742577,140.70964
1.7574283,134.89946
1.6871408,138.33542
1.6297541,136.3081
1.544204,136.37193
1.5550302,133.02042
1.6948199,132.07541
1.6262559,131.63516
1.5289146,132.79356
1.5757037,128.1551
1.6825254,127.18601
1.6030803,129.75322
1.4911832,125.474686
1.498288,124.86934
1.3744699,125.91137
1.5093528,124.42568
1.49065,124.39634
1.4230424,121.04784
1.4706463,122.11233
1.4409959,119.72964
1.4634739,115.01764
1.4052,122.04333
1.3306541,116.48208
1.2921785,117.720314
1.2302601,114.59825
1.2700863,111.6399
1.2562498,110.89361
1.1021037,113.18682
1.2360479,112.03805
1.0269415,108.36454
1.1324062,109.16061
1.0401199,108.426956
1.0197387,107.36296
0.93747556,104.68327
1.090413,100.15007
0.9266077,108.463806
0.98572487,104.40133
0.8694247,99.81894
1.01462,98.12011
0.9093398,100.17225
0.9795716,99.80951
0.81830907,98.06684
0.8048332,98.7473
0.8324191,96.55594
0.92220265,93.817856
0.81257915,97.070404
0.8129876,92.84096
0.891048,90.736694
0.82106656,92.78461
0.8643319,92.13439
0.7556863,92.97023
0.80769724,90.32395
0.7089792,92.4972
0.80540633,90.183525
0.7011523,89.59372
0.5833813,93.65026
0.6132206,90.235954
0.563863,87.19481
0.55304617,92.674194
0.48089436,91.75893
0.52752084,91.25846
0.43689016,92.597755
0.5513904,92.95232
0.56208867,93.75612
0.45676652,92.83541
0.52785426,96.9479
0.53662616,95.408165
0.41164574,95.0739
0.61041623,98.17364
0.6049009,95.90241
0.6330041,101.28238
0.7474207,102.52652
0.77640617,108.05112
0.83623487,103.30194
0.90366286,108.26162
0.9921254,111.51178
1.1265296,111.68383
1.1368386,113.52883
1.1171073,113.43047
1.3031079,115.76047
1.3648479,117.087654
1.3327966,121.87485
1.4496282,122.91602
1.4985056,127.34739
1.4761474,129.44781
1.5204903,129.23827
1.6627814,130.95744
1.7512221,128.84052
1.6786875,134.63754
1.6991086,134.11653
1.6640368,131.47093
1.8128434,135.20532
1.7869434,134.99142
1.7767596,137.56154
1.798717,141.7272
1.8167195,141.41028
1.6855823,142.00989
1.7655718,142.61165
1.7230909,137.41866
1.7730167,144.88544
1.6875945,141.16595
1.7477303,141.26157
1.6558307,139.64088
1.6996568,140.57011
1.6196177,138.01974
1.6085522,140.59308
1.6065389,141.31955
1.4877992,140.15535
1.5897627,137.91669
1.5240896,139.56139
1.5369849,138.35817
1.3576342,140.19174
1.4701805,135.79932
1.411223,135.38872
1.2820009,135.94254
1.2857798,136.7049
1.2974201,132.6275
1.2920263,133.42212
1.2265264,130.13058
1.3864238,129.31844
1.2712265,129.99849
1.1847221,125.01853
1.1240662,126.6114
1.1554197,123.909424
1.1896962,125.04112
1.2026024,124.32883
1.1476009,119.12374
1.1511744,123.52558
1.2347904,119.6668
1.1763245,118.76559
1.0548345,117.82087
1.1417651,116.20475
0.95966685,116.815796
1.064745,114.36286
1.0530962,116.55613
0.910958,113.89372
0.86243033,108.61827
0.9318593,112.52441
0.8596477,112.44879
0.8725611,107.49312
0.73206645,111.84054
0.73042864,105.46613
0.68900245,105.03759
0.7218339,103.75817
0.63619775,106.11726
0.5684122,102.82259
0.61376,103.13416
0.50286293,101.84984
0.6105848,98.86707
0.42359927,99.699745
0.59722275,99.347145
0.5526147,99.62619
0.4623549,95.418175
0.5455476,96.39495
0.4962807,94.77744
0.3604892,94.695244
0.43921608,93.866615
0.40340403,91.71469
0.41087762,93.30493
0.60470384,89.382805
0.42312866,91.908905
0.4161647,89.63716
0.45072818,91.05094
0.3528668,91.66461
0.2568775,87.740875
0.28395203,85.92636
0.15381883,90.158455
0.21467318,91.44908
0.10660646,90.378006
0.22017051,90.46784
0.046396725,91.74773
0.057528164,89.43131
0.09722128,91.883156
0.06971846,95.29113
0.08402736,94.64846
-0.053276513,96.50426
0.048867084,97.983696
0.09952698,100.44817
0.0779612,94.05608
0.20747964,102.08216
0.16438238,102.435585
0.34937084,102.308716
0.45484594,107.88814
0.43185684,107.30785
0.5636355,105.26436
0.54473245,110.93766
0.72176987,115.81379
0.7624978,115.39229
0.8280673,113.437904
0.9268766,117.52343
1.0946296,119.41311
0.97327316,118.747444
1.1139042,120.1259
1.1314901,126.84705
1.1413168,128.32498
1.1729169,130.73892
1.3189716,127.146225
1.338614,131.81413
1.374984,134.91302
1.4501053,133.70865
1.4028676,130.23804
1.3266453,134.80103
1.395223,141.12059
1.5543216,137.93697
1.3204308,134.91638
1.4159211,138.3384
1.5057741,140.5877
1.3752286,140.58942
1.4808247,141.58704
1.3703698,139.37372
1.3920445,144.42104
1.2900786,143.83995
1.399431,141.96283
1.3267792,139.44984
1.3745451,141.96014
1.2817063,141.0741
1.3877041,141.61714
1.1812227,138.38184
1.0735373,140.25447
1.0680913,137.20804
1.2283784,137.65276
1.0677063,140.27805
1.0310886,136.40746
1.0508245,137.72145
0.93901193,131.9155
1.0383627,132.81223
0.96352655,135.28578
0.9774882,131.3448
0.9174122,131.12059
1.0175997,133.02316
0.8665369,130.89462
0.9171374,127.118965
0.75938886,124.4625
0.9063543,122.327515
0.9224426,124.06965
0.9093366,122.83943
0.87834036,122.27125
0.8351962,120.85534
0.8952748,123.02433
0.88465464,118.19433
0.7829873,121.76431
0.7865096,114.7114
0.6721601,120.54839
0.7571342,112.86711
0.6616781,112.63822
0.7477614,112.76106
0.6778545,115.18293
0.64328635,112.34018
0.6154058,108.26928
0.50142825,108.294426
0.48651236,107.70829
0.5290421,106.616905
0.41676342,107.4069
0.30916256,106.27971
0.3675285,102.75214
0.33541277,104.007904
0.38731983,102.63898
0.26448345,102.27328
0.3203292,98.22266
0.3576041,98.21491
0.32708612,97.99384
0.28733477,96.89771
0.45210764,95.91079
0.30596814,96.88751
0.33763117,96.458405
0.25672415,92.604744
0.40494502,91.73629
0.31778285,95.00289
0.2747922,90.98713
0.23724774,90.74443
0.2238699,92.95959
0.2849939,92.296
0.1717023,87.33997
0.16564804,89.24903
0.14456066,89.90041
0.16693616,90.586205
0.12794258,88.71367
-0.031088233,91.434326
-0.024434231,88.02965
-0.0066884113,92.10983
-0.042215213,88.55059
-0.08691127,89.800644
-0.09299132,90.70931
0.03177097,89.279495
0.017258815,96.83469
0.07889902,95.29736
-0.06800276,94.486664
0.028693719,97.433945
0.12414415,97.19642
0.07775795,99.453156
0.20457006,98.675896
0.35843787,103.52921
0.30329463,103.42162
0.43683323,106.93897
0.43569812,108.975494
0.7000148,109.00549
0.6941553,109.460686
0.66661453,113.852356
0.67743874,115.16504
0.83543056,116.24607
0.9387546,115.35648
0.79717237,118.05648
1.1715351,123.507866
1.1840497,126.94993
1.2480283,124.85432
1.2379025,129.00409
1.2866925,126.21818
1.2879982,132.22423
1.3743863,133.15001
1.468825,133.49695
1.388214,135.78575
1.4053792,135.07997
1.4164715,138.62106
1.4253459,139.84268
1.4659939,140.12024
1.425045,139.76299
1.6546818,142.21602
1.4656793,140.40007
1.5369872,144.57973
1.4341049,139.35265
1.4251034,144.02502
1.4480219,144.95471
1.4037653,139.94228
1.3814563,141.82411
1.4085816,140.06172
1.4554468,136.4576
1.380982,141.1067
1.2900059,140.64287
1.3157798,137.86818
1.3614932,139.44995
1.3092437,137.68436
1.2723824,136.60686
1.1964896,136.44003
1.1927412,139.15234
1.2334888,139.80544
1.2183471,135.89546
1.1849064,131.74449
1.1043981,133.14185
1.0430675,134.19034
1.0371945,128.32451
1.1266755,129.05577
0.92828655,126.39839
1.1106532,127.90919
1.1150669,127.65541
1.0156686,128.26965
1.0167818,125.50936
1.1541249,124.46362
1.166568,122.74423
1.146843,122.67217
1.13957,123.6403
1.1821451,120.61158
1.0607712,117.00711
0.973023,116.429535
1.0724295,116.7717
0.8514512,113.97787
0.90478003,115.135544
0.9357597,114.76176
0.8458342,114.1196
0.8610991,114.58407
0.79826707,107.06129
0.78379864,109.03814
0.7985537,110.15863
0.7484593,105.02292
0.598002,103.98129
0.72710526,104.930664
0.6748604,105.71346
0.71453005,103.3188
0.77070564,99.85006
0.5957515,101.053085
0.69976354,100.98862
0.6526536,99.53121
0.65212536,96.92939
0.6170297,95.67391
0.5699627,97.22422
0.53685045,96.9367
0.7047727,93.74562
0.54822654,94.41639
0.63433015,93.38187
0.66178817,94.852905
0.64505106,90.966225
0.5459271,92.02939
0.7147375,87.77266
0.58385307,87.51728
0.55262667,88.860176
0.40575713,89.45009
0.50617236,90.970795
0.40530014,89.48333
0.28713346,89.369156
0.37202916,89.19169
0.35546353,92.59259
0.2907602,90.796715
0.34837288,89.13831
0.38092113,90.251175
0.3685909,91.63132
0.3585866,97.36189
0.34521955,91.85852
0.41866216,99.17004
0.4218596,96.7404
0.41180435,99.017975
0.47818094,97.27448
0.48624185,101.81923
0.5025154,101.72635
0.6154642,101.51582
0.816782,105.92547
0.88457435,108.67293
0.86416715,108.97627
1.0042679,110.76955
0.94072425,113.18926
1.1713736,115.66912
1.2936615,117.59339
1.240772,117.6955
1.3423679,116.52373
1.3657639,120.99657
1.4745197,122.34802
1.6446304,126.35201
1.5187652,126.293526
1.6759108,128.84033
1.6458693,125.818214
1.7340013,129.41972
1.6638949,130.96506
1.7197263,133.02786
1.8021913,132.6945
1.7971348,134.27203
1.748536,137.21423
1.925023,138.42815
1.9298892,138.55215
1.9228531,142.17607
1.8110031,137.75307
1.765402,144.0465
1.8704228,145.02565
1.7453463,142.2397
1.8542087,139.26741
1.8547899,141.08089
1.8100556,144.02945
1.8479757,140.88332
1.8803409,140.38612
1.7723911,140.89304
1.7431678,140.66418
1.811537,140.6227
1.7721002,135.08844
1.6510916,140.68611
1.7173866,139.14745
1.6114006,136.18495
1.6308453,133.72864
1.5978531,135.0136
1.4655696,132.35048
1.5481187,131.72987
1.4969034,132.57933
1.527325,128.78096
1.5291495,130.07922
1.4869167,130.79308
1.5783118,128.85242
1.4249266,125.14291
1.4865783,127.410576
1.4072285,128.84312
1.4697756,124.7691
1.5192446,120.56438
1.5238832,122.00167
1.3311541,124.33043
1.3858565,120.47448
1.4328389,116.55664
1.3351548,117.9804
1.3657714,117.97888
1.3880448,115.66534
1.3601341,113.93777
1.335538,114.82789
1.2281942,111.827934
1.1660703,113.91913
1.2775042,109.63909
1.242547,110.67383
1.2526051,107.81141
1.1186697,109.78006
1.116383,107.501076
1.0224915,104.35494
0.9160992,107.06556
0.8751661,103.05308
0.9827121,103.153656
0.8535052,99.68811
0.8223966,101.66011
0.8469888,100.79022
0.9564362,99.251816
0.9161915,98.545906
0.94514495,95.33525
0.9986785,93.95627
0.87151223,96.2359
0.8538043,95.92956
0.8701495,91.25473
0.97541696,90.64192
0.87223375,95.17362
0.8150414,95.219505
0.82942355,92.44217
0.8985447,85.35379
0.91902435,90.55069
0.66818446,89.575134
0.8627394,92.287384
0.6557618,86.63251
0.70405656,86.87426
0.68250036,90.871574
0.65732217,90.25917
0.5854792,87.85917
0.49878016,89.55767
0.58008844,90.73428
0.6831217,89.36322
0.5623133,92.746666
0.49233896,93.41022
0.54178226,95.56808
0.63376623,99.06543
0.5069125,96.62913
0.57195586,98.77837
0.6427371,96.39917
0.6387047,103.56256
0.5905504,103.87518
0.60370207,102.3835
0.9038163,106.25956
0.99999243,106.007515
0.9113102,109.28338
1.0884541,106.752716
1.126414,112.64406
1.2000742,114.20747
1.2862812,113.19067
1.4965218,118.887695
1.4627892,119.0036
1.4916393,118.11751
1.6131264,122.82112
1.7191783,124.91396
1.6983098,123.469826
1.7553711,126.843765
1.8223392,127.73979
1.9224813,129.40396
1.9450907,129.68349
1.9048125,131.3658
1.9154952,136.8099
1.7622279,138.49698
1.9461746,134.13513
2.0000708,136.24942
1.9040446,139.9238
1.926196,139.24771
1.8876404,137.55717
2.0119777,139.5931
1.9048859,143.6108
1.8478713,143.70503
1.9245979,140.72057
1.9570717,144.22209
1.7960097,139.83447
1.9085748,139.53078
1.7592843,141.28671
1.8014514,140.31886
1.7737368,137.20796
1.7251703,138.68124
1.7410121,138.5312
1.61208,140.00261
1.7096149,138.65492
1.6626315,137.12843
1.7395614,137.57806
1.6425879,136.15228
1.6785759,131.09894
1.4823067,138.13815
1.465109,134.6482
1.4415039,133.76454
1.3949959,129.2522
1.4348167,128.5205
1.4098085,129.07858
1.3792348,127.49516
1.3975409,131.3937
1.3459641,123.76079
1.4078536,126.95291
1.4100021,124.29751
1.3233573,124.96166
1.356906,121.60189
1.3870425,121.63794
1.4018129,118.95843
1.2579352,120.14194
1.2287941,116.20581
1.4275944,116.87716
1.2491788,114.93427
1.196562,116.742805
1.2551311,114.70082
1.0593158,114.02039
0.9752403,113.38863
1.1187402,112.26608
1.0097547,107.01162
0.94725245,107.48387
0.98879695,109.2117
1.0015244,104.37042
0.9167185,100.94417
0.83768237,105.90407
0.78161633,101.086945
0.79134583,106.51035
0.843602,98.97505
0.71483505,100.17082
0.6403791,96.08282
0.74820143,98.801704
0.84094644,96.45455
0.75481516,97.23171
0.67839164,97.90343
0.67915606,97.14801
0.6922197,93.63073
0.71306205,96.53415
0.82356006,92.25827
0.6117713,95.757515
0.7200917,91.66975
0.5689135,90.5023
0.6693255,94.34254
0.7084029,90.450165
0.6146457,89.970085
0.45560947,88.45625
0.52064306,89.092155
0.3894204,89.7582
0.54585713,92.16524
0.35283867,91.07322
0.29824346,89.75358
0.17662473,90.395226
0.20400697,90.40404
0.3358932,91.05291
0.26623914,92.915504
0.30200866,94.7039
0.291859,97.56444
0.33902532,95.013306
0.32312247,97.181725
0.384513,103.396126
0.5025834,101.85529
0.39360908,100.34773
0.5107797,103.2801
0.6589815,104.391235
0.6692453,108.32806
0.7607122,106.953926
0.79478395,106.65936
0.9936846,113.5828
0.90506697,116.735405
0.99238366,115.604065
1.1420014,117.965065
1.180088,120.54144
1.2011687,120.19517
1.1794227,122.07271
1.3200517,123.50914
1.3489206,128.2972
1.431788,127.041695
1.3908763,129.03494
1.4956235,131.45506
1.4857745,135.36566
1.556483,135.24606
1.54915,134.10733
1.5283924,142.15703
1.6466603,136.82793
1.5662311,138.74823
1.6101458,138.56517
1.6203299,136.49527
1.5440364,143.84724
1.521032,142.63483
1.5848333,142.27838
1.5526061,145.68292
1.5232825,141.9245
1.5782613,142.25711
1.5369323,145.00696
1.4737855,141.77423
1.5333863,141.36462
1.4468957,137.91594
1.3767185,140.17882
1.3973496,142.13887
1.5377634,141.45595
1.3239616,137.27423
1.2647117,139.31392
1.2436006,136.5067
1.2027212,139.4179
1.176173,135.39397
1.0999644,135.40184
1.1207184,134.45155
1.1905923,132.85435
1.1797352,132.27182
1.1463813,132.11682
1.0104978,131.37921
1.042016,127.82153
1.02734,129.99632
1.0836241,130.77599
1.0065364,125.74316
0.9977384,121.176155
1.0492024,123.8293
1.0212101,124.39212
0.9654703,123.78807
0.9801794,121.246254
1.0299422,122.698715
0.8782859,121.301796
0.80102825,120.022194
0.9274956,119.6286
0.9168917,112.492455
0.8284973,114.75543
0.7657394,113.210655
0.7383838,115.44017
0.6914105,111.720634
0.6615411,114.137375
0.7954632,111.028145
0.58507574,107.33509
0.5275659,108.895584
0.52939934,109.78918
0.3918466,104.892265
0.5752496,106.03883
0.47553337,106.77847
0.44984502,101.96522
0.4226882,102.2558
0.43240592,100.0903
0.37540063,99.17147
0.4366707,98.86606
0.3874715,97.976906
0.34617668,95.790344
0.30768135,96.83708
0.3886521,96.32615
0.40181667,95.09069
0.30592614,91.44549
0.35953754,92.160614
0.33240792,95.729454
0.36189428,91.34965
0.38425633,91.19909
0.24453594,89.14943
0.3192463,88.18511
0.30950662,90.56306
0.12691577,88.27592
0.15308838,87.355705
0.13267875,90.7116
0.08886482,90.74275
0.09496607,87.97579
0.09975706,89.60169
0.100194834,91.822495
-0.042492516,94.54709
0.06357292,92.25996
-0.028138256,89.76543
-0.04969703,94.00457
-0.090033695,95.67423
-0.022877146,95.655716
0.029571733,93.24088
-0.0150933685,97.54116
0.09529123,98.89009
0.107446715,100.52724
0.21283635,102.06163
0.22507192,103.03791
0.3623841,105.339935
0.3631261,108.51318
0.5534073,108.42312
0.48601475,113.09115
0.6372673,112.36508
0.70268637,114.9044
0.84010386,120.041756
0.833927,118.524666
0.92739034,121.619225
1.0255623,123.705795
1.0698994,125.95336
1.063839,124.23604
1.2147644,128.62169
1.1492159,126.69697
1.1862038,129.76385
1.2541914,130.4286
1.3085973,132.27936
1.2308251,133.38171
1.3625278,137.67998
1.3559124,136.35698
1.3952918,134.7179
1.4115517,139.53572
1.2915039,136.56778
1.3828132,136.63403
1.3517029,142.62607
1.4645807,139.9359
1.3400831,140.83676
1.2921396,140.11542
1.3734536,142.44298
1.4531385,142.16434
1.3670257,141.05124
1.3463023,139.80692
1.3161833,142.64546
1.1929299,141.60419
1.2843707,140.51595
1.1196475,138.57298
1.1688387,137.1173
1.1048037,140.73952
1.0899608,136.0464
1.1175672,138.24144
1.2338465,136.13841
1.1485509,133.38086
1.0151347,130.49313
1.0317262,130.78453
1.0987918,133.736
1.0031438,128.34505
0.93528956,130.43942
1.0167224,128.35326
0.93748665,127.51682
0.91987365,125.7554
0.97826207,124.9703
0.9824983,123.188576
1.0078042,127.155426
0.94617903,127.09188
0.9078416,125.74375
0.9399242,118.1874
0.85901743,121.97845
0.9998461,121.79374
0.88474196,118.953674
0.839514,115.961716
0.77169,117.44448
0.7418921,115.67985
0.7538161,116.31987
0.6809532,114.62653
0.72348255,110.75331
0.565568,113.17635
0.57730764,110.43467
0.59740216,110.442764
0.63898283,111.17081
0.5977149,105.320786
0.4832402,103.90337
0.43776125,105.08282
0.51984257,102.893684
0.41224313,103.148384
0.53132576,101.970345
0.45625293,101.24712
0.50940657,102.22239
0.32585227,100.75125
0.4458502,98.79914
0.3360123,95.37641
0.4153037,94.981384
0.4103663,96.55691
0.43168214,96.22743
0.5321916,94.9657
0.46774906,94.209045
0.47131371,94.997475
0.3539393,94.76573
0.3487908,94.0282
0.33286396,95.34119
0.2568865,89.97807
0.3723652,90.268234
0.40366453,88.78989
0.29027554,87.553406
0.32494998,90.19982
0.22905289,84.9415
0.1027118,90.21398
0.0964999,91.963066
0.07815367,90.91585
0.08823389,89.78725
0.16813242,92.03082
0.04662922,90.33276
0.04554263,91.834145
0.0663506,96.3118
0.104101636,94.51255
0.11282055,98.84283
0.2798774,100.60877
0.29913533,99.33889
0.2683725,101.250435
0.51077443,102.101
0.47334155,105.03176
0.59785694,106.01192
0.6567432,104.356415
0.7606341,108.01576
0.643435,112.66849
0.8369275,106.94555
0.9594088,114.21022
0.925009,120.31353
1.0303124,117.884476
1.1329157,116.69905
1.1870141,122.850365
1.262811,123.86529
1.3140004,123.443954
1.3282899,124.26338
1.3761978,128.4945
1.4999073,129.44438
1.4765335,132.07855
1.4911408,132.1347
1.5712764,131.9997
1.5928174,137.60193
1.6270313,136.583
1.6423584,138.6416
1.6280421,138.4933
1.5195801,138.70847
1.6678836,140.73305
1.7665563,143.54245
1.6674911,138.82414
1.6511393,141.61656
1.6780088,140.3096
1.6802009,141.89134
1.6259549,143.02286
1.611914,142.44212
1.7025845,141.59697
1.5251341,141.98691
1.4725409,141.2054
1.5601243,140.21059
1.5202868,140.21841
1.52986,139.27695
1.4714397,138.93532
1.3912234,135.19818
1.5319626,134.98082
1.4978955,135.14151
1.4171247,136.47864
1.3953291,135.89973
1.4858156,129.81879
1.3925545,132.00066
1.2522374,130.98697
1.3319864,130.55252
1.2505361,131.2466
1.2656538,130.67137
1.3357679,129.83151
1.2504902,125.56384
1.3218623,126.94079
1.2954048,124.557014
1.2897348,124.6496
1.3985356,120.908455
1.2387663,118.78222
1.2926186,123.26185
1.1952635,117.9411
1.1175872,119.17518
1.3089446,117.878784
1.2450337,117.17202
1.2540447,115.01358
1.0756127,117.022995
1.1229734,112.72665
1.1463616,111.13735
0.93756855,111.164856
0.95914745,111.5871
0.8960953,108.90662
1.0048509,108.67465
1.0026835,105.886284
0.9556139,107.41809
0.90356475,107.44098
0.9410043,105.589676
0.8357639,101.772354
0.87259686,103.17821
0.785749,103.0723
0.82325923,98.93517
0.7925161,98.10421
0.83800966,98.678444
0.8168269,100.10584
0.84375465,100.26488
0.7822803,94.82781
0.8541552,93.18612
0.7923163,92.40182
0.7515343,93.00031
0.8016946,92.38859
0.88784826,91.5201
0.7307891,91.02494
0.69032174,90.181175
0.6955153,87.8028
0.7020796,89.21864
0.72463214,85.607635
0.64097434,91.687416
0.6348277,92.337875
0.5906271,89.40654
0.6539391,86.3497
0.48488232,89.880775
0.5385712,90.82162
0.4594274,89.88231
0.4971905,92.77295
0.45123082,92.70688
0.5091569,92.336365
0.5748838,95.74541
0.46161008,95.49488
0.5203247,94.21272
0.6296176,93.68577
0.59682935,101.00209
0.7959763,98.15737
0.7177844,103.999435
0.8671914,100.74206
0.7939293,105.11711
0.97416514,106.307526
1.0125288,108.56876
1.1001842,107.95838
1.2542646,114.49695
1.2935919,108.85895
1.2845287,114.79624
1.2621241,119.07012
1.3413737,116.89424
1.5850316,120.80147
1.6160336,121.43088
1.6601835,124.5871
1.6070601,127.67262
1.7761058,125.91141
1.7730443,128.57303
1.7869691,130.8383
1.7617772,131.8334
1.780718,133.64006
1.8426797,133.76044
1.9413304,134.39291
1.8210568,138.26537
1.9541821,138.38719
2.0348692,144.36722
1.8652999,137.24164
1.9780256,138.59082
2.0779078,142.1415
1.9382225,141.68744
2.0006337,144.20126
1.9406599,142.49965
1.9577756,141.18448
1.8978748,142.93889
1.97557,141.64557
1.8423606,140.2863
1.8458779,139.98743
1.7793895,139.42221
1.8704464,139.70427
1.8475629,137.21771
1.7278343,136.87494
1.7131408,136.04222
1.6625775,138.71794
1.7498366,139.66772
1.6427951,136.5447
1.6288719,134.74107
1.5790858,133.6282
1.6215044,129.09204
1.5511818,129.32582
1.5398661,130.84767
1.4574986,129.98865
1.4871377,128.88293
1.5182039,127.16898
1.4602935,127.0109
1.5143574,124.9954
1.5063215,124.293465
1.5336641,128.1006
1.5525756,123.52102
1.4745542,122.98475
1.4567777,127.29922
1.4682428,124.32638
1.3513367,121.00729
1.4559462,113.961395
1.2740117,116.714676
1.2155159,117.41587
1.2959368,116.103294
1.235708,114.33324
1.1991967,115.71318
1.1493018,111.06501
1.0674095,109.92428
1.2012324,110.17338
1.1177185,109.079605
0.9813592,107.92133
1.0195737,109.37799
1.047836,105.693726
0.9596966,105.62634
0.8774909,103.42628
0.86305684,99.43765
0.9416714,103.377815
0.9187712,102.80376
0.87885815,100.23802
0.81471366,100.76367
0.9385337,95.25961
0.8632432,98.02063
0.91225207,97.24163
0.85455936,94.91753
0.99732393,96.228485
0.9943445,94.00315
0.84480536,95.14992
0.80148774,93.19435
0.8723667,91.43266
0.85429776,93.73517
0.6778906,90.1738
0.8236795,89.423996
0.7195558,90.57065
0.77536714,90.843925
0.72717124,89.981926
0.68571347,94.51149
0.56283504,91.03316
0.5824577,90.27858
0.57473516,91.55424
0.64857584,90.51767
0.49257457,90.80892
0.525316,91.49425
0.48622274,93.48295
0.60167736,93.452034
0.39190352,97.263466
0.41760495,97.36695
0.5066581,101.367714
0.57728416,98.189644
0.567655,96.790504
0.653078,104.56872
0.7102244,101.64863
0.82914543,106.48149
0.85654575,108.00794
0.84884065,107.85665
0.98002696,106.99837
1.0933352,110.521965
1.044743,113.9567
1.1337188,115.35063
1.2681645,113.05832
1.3353956,118.11764
1.3741014,119.14033
1.4129794,123.65445
1.4987495,124.89626
1.5507045,124.06551
1.6379464,127.755455
1.5572785,129.13765
1.6996169,130.09851
1.7813582,131.0716
1.7422837,130.63608
1.7545571,132.95683
1.7117285,135.73273
1.8130634,138.33078
1.7785392,138.33334
1.824634,136.15663
1.6782862,138.5476
1.8100777,142.20082
1.8014101,140.20683
1.7951179,142.22664
1.7507738,143.48193
1.8064212,141.14131
1.8006755,141.16551
1.7016498,140.79024
1.6876603,140.19875
1.738999,141.56613
1.5939702,142.55519
1.6774368,141.15758
1.6942497,140.7511
1.6267865,138.97826
1.5573157,135.07372
1.5033454,137.40553
1.5349734,139.29054
1.4629012,138.61217
1.4591758,134.71547
1.3701651,134.85132
1.4439747,132.30618
1.3939553,133.93083
1.3459747,131.82857
1.387973,130.5332
1.3041878,131.33122
1.2344291,128.56828
1.191961,124.99539
1.3189893,127.80474
1.2591112,123.6712
1.2393677,124.607635
1.2091594,125.44949
1.2188549,126.10612
1.2111261,120.08642
1.1535398,121.96533
1.1946152,122.4371
1.1527568,119.36786
1.0456512,118.1101
1.102554,120.02693
1.0389328,117.4289
1.1268096,114.224815
1.0264293,117.63828
0.9986477,108.67797
0.96383923,109.81842
0.8532501,113.35058
0.88417995,108.94295
0.84109205,107.30866
0.7916152,110.039825
0.6448101,108.292435
0.79426116,107.41563
0.6937701,105.12713
0.63075936,105.7968
0.58955866,102.491
0.5119033,102.08818
0.5771612,100.923935
0.71848714,100.36471
0.4451979,94.503426
0.5687586,99.25603
0.44493982,96.91699
0.5480957,97.33613
0.4549082,98.61303
0.54214996,95.242645
0.46979573,93.305305
0.49565727,89.58829
0.5922658,91.35678
0.40196592,91.25226
0.45327225,94.05763
0.4056541,87.989075
0.39172775,91.426926
0.43339404,90.71856
0.3425437,91.93956
0.26538756,88.60282
0.32048059,89.893684
0.20844308,86.67076
0.23624852,89.10734
0.12608184,89.84781
0.10076514,88.20174
0.02264914,90.42149
0.046231654,91.82335
0.12333431,92.496635
0.0058998554,92.164024
0.08589636,97.258095
0.12230715,93.986404
0.039010078,95.25081
0.14957096,98.08577
0.074382685,100.00472
0.23573022,99.58331
0.3215981,104.24442
0.33139277,104.282524
0.38819507,104.64579
0.49627188,107.56043
0.64067537,111.25679
0.7015014,111.60945
0.8416364,110.07803
0.7268365,117.627914
0.896166,116.16212
0.9895936,119.61844
0.9714442,118.49167
1.0139196,124.50403
1.0749735,120.938965
1.1387509,123.45344
1.2384664,129.33113
1.24096,129.07234
1.3084383,129.16829
1.3223721,133.51057
1.2695591,130.82451
1.3804903,134.26958
1.3885452,134.19913
1.4327769,137.82463
1.4622698,135.98657
1.3369243,135.58353
1.3951927,140.12093
1.3553476,140.14519
1.5444671,141.57504
1.3401315,140.99884
1.4341576,141.32097
1.5147158,140.59644
1.4240124,141.593
1.3919747,141.15501
1.4296944,140.52617
1.5061979,142.09645
1.3450718,140.23088
1.2946529,141.0001
1.3543766,139.33937
1.1380788,139.122
1.1912551,136.88147
1.0812974,138.30408
1.2126628,141.60431
1.1944188,136.57921
1.1547319,136.74821
1.062544,133.03732
1.2345705,136.11687
0.94459164,134.22505
1.0173782,133.10995
1.090114,129.12787
0.8733344,134.2397
1.0474433,131.5768
1.0213742,131.47772
0.8920771,126.453766
0.860596,126.795845
1.0015476,125.7169
0.9261272,125.248634
0.9017581,121.64117
0.9014488,119.99827
0.9087132,121.22634
0.9621863,121.125244
0.80583036,120.25937
0.8978277,119.55279
0.8058983,120.75755
0.78626496,117.40097
0.8592086,115.73229
0.6628473,113.32828
0.6669538,114.68244
0.7073786,113.865715
0.6274838,109.27348
0.6626722,110.474236
0.4607955,110.58623
0.5336199,108.41384
0.5644911,107.369255
0.4656101,108.923416
0.42340517,107.47662
0.43986568,102.57167
0.5080431,102.613144
0.41654253,99.51051
0.3579323,101.62464
0.40029505,97.737495
0.41774324,96.93483
0.2118554,99.253685
0.35076833,98.039055
0.22640307,98.981384
0.23734309,95.36697
0.3232183,96.46455
0.37471086,95.74661
0.194423,94.058235
0.2643373,96.55444
0.3743406,91.11828
0.19593924,92.732704
0.21051027,93.68198
0.17063761,91.36598
0.2998964,89.859985
0.1535673,88.10565
0.047574826,90.53806
0.12220296,88.23354
0.18531582,87.59823
-0.024587449,89.582375
0.025078602,91.320366
0.011395254,94.04522
0.09826145,89.23934
-0.02345412,92.834076
-0.02578726,88.54282
-0.06722815,93.83374
-0.001411151,91.94804
-0.009213607,90.707794
-0.023411604,99.195915
0.06533284,95.03976
0.20307748,98.73784
0.026017519,103.79648
0.21651348,100.293274
0.27925217,103.8745
0.26613143,104.12967
0.37052324,106.918205
0.48429257,107.525314
0.5270989,110.99363
0.571533,109.411125
0.64582825,111.604095
0.75804234,112.03192
0.8702596,115.288734
0.9793144,116.94763
1.0860207,121.92363
1.1068273,124.03328
1.2071291,125.69381
1.0354079,124.39734
1.3180954,125.803185
1.2138041,128.13083
1.2083968,134.09358
1.379709,133.49309
1.4847342,130.09193
1.3157738,131.32661
1.4808173,140.17438
1.5265864,139.44084
1.4645115,136.16069
1.5309368,140.7594
1.5001262,140.67142
1.4601701,140.91072
1.446956,141.89737
1.4449438,141.01826
1.6185269,142.6108
1.3436341,141.88713
1.3213153,143.95937
1.3119997,142.12311
1.3716724,139.60298
1.3248622,140.39352
1.4340615,138.80858
1.413476,143.50574
1.2817049,137.05824
1.3115865,137.30614
1.2850443,138.34982
1.3393245,138.10994
1.1682872,137.1037
1.2670214,136.53471
1.249473,132.98636
1.1725006,133.42552
1.0592893,132.15297
1.1207001,130.8191
1.1035725,132.86465
1.0878806,130.49982
1.0967492,131.01352
1.0561281,129.22852
1.009796,128.67834
1.1083267,126.99858
1.0226653,126.15182
1.0321689,124.316505
1.1186085,124.43123
1.0837208,125.337616
1.0264844,122.564964
1.0156497,120.74798
1.0087137,117.42739
1.0204245,120.0775
0.9871146,118.15066
1.0906389,117.5642
0.9411347,116.96185
1.015099,115.43087
0.8751884,117.18758
0.9241371,110.869705
0.8122697,111.377625
0.88291025,110.63448
0.8446036,108.7661
0.63434505,108.84779
0.7122679,108.73705
0.7421191,106.69052
0.65620416,106.96618
0.66612995,103.275826
0.66452885,99.88373
0.7192296,104.99671
0.5733499,102.590866
0.6436026,99.26368
0.50990844,98.62357
0.5855437,100.01311
0.5589082,97.218796
0.5955569,96.40306
0.671369,95.626465
0.6047019,91.88879
0.5962042,95.401436
0.7408832,96.12122
0.60236853,92.917984
0.6450621,94.67392
0.57877266,92.20049
0.54187965,88.76387
0.5404451,92.760124
0.6762354,91.13349
0.45477808,90.279045
0.5160194,87.9379
0.38132066,93.837425
0.39632124,90.86871
0.3674538,90.010185
0.38822427,89.52724
0.33551353,91.38254
0.39213854,89.69244
0.3142013,90.992355
0.36368415,90.933495
0.24349324,92.03426
0.28144535,94.04265
0.26267973,95.71034
0.332573,96.24003
0.45078713,92.91099
0.43326586,96.78121
0.38171294,100.56713
0.4768991,101.90446
0.52013206,101.10414
0.6892458,104.29689
0.76419795,108.34788
0.85345346,105.88433
0.94047374,107.66102
1.0159806,111.19234
1.067915,112.96096
1.0815349,115.37231
1.2225897,117.060455
1.1643766,119.14226
1.3991369,116.564804
1.4085158,125.29685
1.3708503,122.66522
1.5034109,129.03447
1.6064917,126.113304
1.6673028,126.429405
1.5887828,128.71693
1.8478167,133.76788
1.6892917,131.14171
1.7321415,131.04628
1.7169983,135.166
1.7316018,136.32779
1.7924428,139.791
1.725062,140.88382
1.8935361,139.37344
1.7202644,138.15802
1.7992533,143.40216
1.8500128,140.49136
1.8488771,140.35847
1.8871253,142.32736
1.792223,141.03474
1.7963868,143.58806
1.7219087,141.08594
1.780913,140.83382
1.6588863,141.5205
1.7676413,141.08888
1.5883586,142.40692
1.6774646,141.5035
1.6298585,144.65408
1.6496372,139.40163
1.5562426,141.19377
1.6591334,136.99007
1.5579348,137.71007
1.6060946,134.5551
1.5223145,131.95522
1.5162399,130.50784
1.4737332,131.30031
1.5168695,129.83865
1.3890913,131.04825
1.4732797,127.151024
1.4686737,125.49948
1.4431736,130.84787
1.4325843,127.36161
1.347842,125.770836
1.5259849,125.64751
1.5172894,124.89376
1.3406256,120.69412
1.4048632,119.50683
1.4810324,120.16517
1.3590745,121.837265
1.2620162,118.03208
1.3506826,116.44831
1.3598071,115.31491
1.3348266,115.217026
1.1583445,114.13851
1.2579299,111.02903
1.1882974,107.72295
1.1929686,113.90935
1.156999,109.2763
1.1446582,110.641266
1.1409229,108.302185
1.1086469,108.55605
1.0329992,108.54135
0.91219,103.75505
1.0034995,102.97979
1.0032632,103.86775
0.9148653,103.27689
0.88220626,102.51802
0.8455562,101.45637
0.84181106,100.25339
0.9965459,97.82545
0.91271776,98.21675
0.85801876,94.637794
0.946963,97.70971
0.88014066,90.59751
0.8719158,93.90879
0.88225585,93.930626
0.98783714,88.64786
0.8000925,91.24183
0.8398998,90.947945
0.89036417,93.13648
0.6912647,88.41858
0.80604815,91.98389
0.9165505,90.50337
0.698356,90.28127
0.712915,88.97221
0.5572961,86.0829
0.7177652,89.94779
0.65975404,91.34388
0.5956242,89.604195
0.53452075,92.43509
0.52441835,94.26769
0.6345909,90.594246
0.592568,92.38613
0.5458492,92.81264
0.5060474,96.92741
0.5773552,98.464226
0.6739674,99.946915
0.65629554,102.40362
0.74579227,100.03571
0.79420906,101.79797
0.7769956,107.10255
0.8260391,105.39625
0.9100939,107.83145
1.2275176,109.153145
1.2258712,111.52625
1.0875553,111.96281
1.3402783,115.86732
1.4187696,116.60201
1.5269715,114.22738
1.5574893,120.2069
1.4740554,119.12448
1.5767874,124.02793
1.6609617,124.06765
1.6604679,127.23301
1.7936532,129.40451
1.7807895,130.68855
1.9574928,129.59285
1.7988449,135.50543
1.8878739,132.83109
2.0314822,133.9424
1.900047,136.15352
1.8720238,136.89581
1.9792732,139.52179
1.9848439,140.19035
1.8935074,140.40071
1.9108086,141.66606
1.8178009,143.46793
1.8815635,141.31519
1.8789214,140.73752
2.026022,143.31358
1.9019364,142.91298
1.8973639,139.8033
1.8255948,140.22064
1.8842845,142.4499
1.7700673,141.14124
1.7818111,142.3535
1.79671,142.36726
1.6160123,138.07996
1.7398345,139.94778
1.6604606,137.61598
1.6845571,136.81519
1.6349853,131.98975
1.5384358,133.46861
1.5366377,137.27567
1.5259125,132.44862
1.5643746,133.6871
1.5002369,131.94063
1.5404168,130.11938
1.5957773,129.03159
1.4104573,129.5609
1.533157,124.65044
1.3553965,125.59597
1.4164242,124.3794
1.4671981,123.50046
1.4354221,122.80907
1.3668284,119.46023
1.3427525,122.51539
1.2177635,119.67538
1.3976262,115.49348
1.3090751,121.58416
1.1861622,118.40452
1.2528335,114.71975
1.1955451,112.23368
1.155402,113.425514
1.162282,111.90176
1.2284509,112.739586
1.114966,109.228096
0.96652514,109.969864
1.0585705,110.16033
1.0122498,109.94158
0.86119175,106.666176
0.9524135,105.00245
0.93425536,105.24787
0.89513093,104.4253
0.8276704,100.965004
0.95120937,101.715065
0.75819665,100.772224
0.70849645,101.8787
0.794399,99.60751
0.70825016,98.923325
0.8514228,96.52026
0.7246095,99.87071
0.6938335,96.82185
0.69086397,95.15715
0.6963582,95.21286
0.7292176,94.8248
0.7765719,93.595474
0.7213173,90.68302
0.6301341,92.29151
0.68578935,90.806305
0.72035015,91.74538
0.5438202,87.26687
0.637246,88.90264
0.6320273,88.82841
0.4972779,87.28066
0.5296488,91.1186
0.43144634,90.228516
0.33131632,90.00973
0.39611638,89.71181
0.26103786,93.31473
0.29852277,88.30821
0.35082334,93.60851
0.3615441,92.88617
0.2726549,96.05693
0.41476524,93.920815
0.29976574,94.58397
0.37737373,95.04221
0.37067017,101.92811
0.42551032,100.63399
0.5276084,102.04934
0.64450234,101.641014
0.72619295,102.51306
0.5583867,106.27244
0.75306404,107.44185
0.8314883,108.48368
0.9048238,111.0806
0.99026066,111.88892
1.0749471,115.497925
1.13432,115.84023
1.2605482,120.06102
1.2419335,120.23866
1.5093701,125.59414
1.2790247,122.84512
1.4860572,125.88753
1.4404074,128.55476
1.4300487,127.132095
1.5507804,132.40175
1.5168345,132.45111
1.5143516,136.42393
1.5293754,134.50595
1.5562452,137.61063
1.5903666,135.89938
1.5826908,138.28528
1.6135337,138.4913
1.7522969,138.92326
1.5866139,140.03694
1.6171657,142.18333
1.5697887,141.0435
1.6524159,138.79677
1.5773275,140.8551
1.4648741,142.48062
1.6159493,142.09895
1.5328319,142.08182
1.4272017,141.39795
1.5154716,142.3601
1.4165819,143.37769
1.3874189,139.95244
1.3704801,137.77443
1.3009564,140.61884
1.408524,137.49586
1.2957971,139.11853
1.2697839,137.67218
1.2610229,135.16777
1.2682617,132.9793
1.1294237,132.60016
1.1946377,133.20676
1.0914893,133.54652
1.1793771,133.21855
1.1180062,130.51973
1.0642662,130.06664
1.1353707,127.45284
1.111942,126.5602
1.037232,124.88554
1.2677182,126.2181
1.023035,123.27354
1.0404862,119.23545
0.9567404,123.60591
1.0881526,121.32376
0.9166939,116.54999
0.86963606,117.32029
0.85027945,118.54037
0.87965524,118.26493
0.9297454,115.04146
0.80156326,113.777534
0.75352514,113.33664
0.7516855,113.38832
0.74198323,112.03404
0.6780314,114.78603
0.74215907,113.22086
0.6202493,108.88734
0.62904996,106.87555
0.4633992,110.2621
0.4234577,107.28388
0.50645196,98.30015
0.48378283,106.6739
0.43219215,103.19704
0.5003305,100.96544
0.40789732,99.997284
0.2789705,102.142624
0.4305805,96.22333
0.3949002,95.91078
0.32397932,97.91406
0.39169887,96.8477
0.46862632,94.56591
0.3937377,94.429085
0.3218711,92.939255
0.28576106,94.711235
0.37598702,93.95061
0.34359008,91.04861
0.46000457,92.31112
0.23349808,90.3146
0.22147767,88.73186
0.18391065,92.06881
0.16900788,90.194016
0.122583546,90.0703
0.100915596,92.68614
0.10120047,88.23556
0.13229813,89.64665
-0.059690364,86.40316
-0.027601285,91.83711
-0.015237815,92.54225
0.008781129,96.64627
0.031426463,91.473656
-0.07122893,93.97882
-0.017026817,93.32931
-0.069353126,95.549484
0.1339047,96.00648
0.124228574,97.309814
0.072634205,98.892525
0.25458774,102.79436
0.22615547,103.30283
0.31451678,103.0107
0.29756477,106.7343
0.36768013,108.434555
0.5314059,110.186165
0.6695553,113.11221
0.67029154,112.92539
0.7275566,114.951195
0.7636813,114.49452
0.8654369,115.32098
0.9666634,117.229126
0.97491664,124.40795
1.0108898,125.09135
1.0716829,121.8904
1.0679806,128.21631
1.2366229,127.67706
1.2495916,131.25337
1.2676789,130.69232
1.2970672,134.4382
1.2320968,134.80272
1.2341616,132.7626
1.246815,133.73726
1.3497931,134.75774
1.2461866,139.81932
1.3282335,137.99538
1.3706368,138.89017
1.3562,137.27475
1.2612153,138.77892
1.3002878,140.61847
1.3419588,141.12305
1.2850913,141.73793
1.2790887,138.18297
1.3209523,143.1275
1.4169366,142.21326
1.1889422,141.49188
1.3314674,145.5352
1.2442496,140.01628
1.2937288,137.91522
1.1776334,137.86185
1.1755183,137.08965
1.1196691,140.77452
1.054893,137.44685
1.0305381,136.52803
1.0925725,134.3856
1.1121312,132.36794
1.0382185,134.52132
0.9998229,130.29758
0.9659528,133.24408
0.9085878,130.27298
1.0188916,130.0678
0.9276044,129.96515
0.99531883,128.34538
0.9461784,125.49833
0.8680342,122.24727
0.81998867,123.61902
0.9023243,120.20015
0.81897485,120.683975
0.88873184,116.59834
0.8934713,120.39578
0.7938772,116.12138
0.8747847,118.53601
0.8565472,115.23228
0.884165,117.44514
0.74356645,112.546936
0.71187586,115.08216
0.8033387,114.30399
0.7608282,109.91798
0.6838905,109.71319
0.7307457,112.60577
0.4874636,109.30855
0.60700154,106.93258
0.45746553,109.40423
0.5620572,104.347626
0.5950997,103.83507
0.5947684,104.50977
0.423893,103.98172
0.47918895,101.48711
0.37661204,100.80786
0.32199216,99.299324
0.36868444,100.60632
0.42267442,94.81161
0.33543235,98.519905
0.3059689,93.69401
0.48616737,93.96573
0.37303278,95.43089
0.37989843,94.71558
0.3464754,92.66041
0.30354255,94.03703
0.3872096,91.43929
0.3774394,91.80158
0.33624786,88.77217
0.35529935,87.031296
0.36355633,87.74648
0.23830563,86.88114
0.21308072,88.86592
0.26469815,90.88306
0.09773247,93.47827
0.13246523,90.942375
0.06401419,87.471695
0.17729409,87.84871
0.14693232,92.06789
0.04880655,92.40593
0.11618934,97.033646
0.11270982,94.26527
0.14806448,96.95021
0.1399079,96.43002
0.22034499,95.910385
0.023587035,94.78633
0.20352519,99.72363
0.28199238,101.65316
0.40204257,104.7798
0.44813517,105.97758
0.51708424,104.493546
0.6222056,107.33726
0.58192974,111.86794
0.7367236,110.711716
0.7654649,112.06264
0.9023646,115.29404
0.97070545,113.89633
1.0342598,117.94116
1.1127512,118.30883
1.302308,122.66233
1.1878903,120.64617
1.2704949,124.02334
1.3779905,128.53864
1.438233,127.212036
1.4261599,130.86598
1.4133085,131.7004
1.5033523,132.49384
1.4746076,131.51266
1.5914867,137.29402
1.6147054,136.58595
1.5337113,137.13478
1.5890192,138.89915
1.6104811,137.98264
1.739536,140.1242
1.5544449,138.72237
1.7026538,139.65445
1.5446652,138.04802
1.5936203,143.11795
1.6461289,140.87653
1.6256939,143.26805
1.5498016,139.56769
1.4792016,144.31995
1.5527692,142.58803
1.5925199,137.85867
1.6534983,139.608
1.4672077,137.96439
1.387917,139.65663
1.4350837,138.49174
1.4356089,139.274
1.452121,136.05623
1.4019152,136.91861
1.3347462,134.58981
1.2383114,136.66408
1.339457,135.6718
1.3824251,131.9746
1.2282399,129.62363
1.4090896,129.2505
1.4335165,130.35768
1.3665894,128.81956
1.2937615,127.05199
1.1993113,124.87325
1.204014,127.48719
1.2422228,124.54281
1.2285922,121.241234
1.2431071,121.91614
1.2282083,120.867744
1.270238,119.85603
1.1974938,121.25484
1.2331406,119.20574
1.1096678,118.05841
1.2012905,117.35456
0.93685645,114.76501
1.0638653,114.55723
1.0725862,110.787224
1.0910072,113.530365
1.0283396,112.415855
0.8685974,109.360725
1.082173,109.61525
0.89302886,106.14952
0.9795664,105.71089
0.85729295,108.69318
0.87550914,104.36837
0.7743715,104.88711
0.9750496,102.11223
0.76544666,101.285164
0.7718326,100.15347
0.88714993,98.9449
0.75316685,101.501854
0.8422608,98.02556
0.70465094,95.22116
0.82744753,96.588234
0.7369755,89.83215
0.7559026,91.68256
0.8088391,95.79741
0.7938619,95.97183
0.7517085,93.218636
0.7045894,90.13871
0.74057186,91.76711
0.7085143,90.35436
0.72855324,90.65661
0.66903746,89.52699
0.71682984,90.32066
0.7198526,91.6296
0.6425495,93.1786
0.5581118,89.30562
0.5058304,92.230446
0.6064101,91.63681
0.58596504,87.99821
0.49474743,89.23608
0.5402911,92.507965
0.4071128,92.586266
0.4560212,95.363716
0.5311109,91.85033
0.41852313,95.770195
0.43652403,93.796326
0.5330594,95.92271
0.59180826,97.059044
0.6685507,98.667946
0.7826631,100.43612
0.7561901,101.83308
0.8080397,106.282295
0.9371694,108.6598
0.8628156,109.42486
1.1069865,111.32366
1.1874927,110.2003
1.225976,115.686844
1.3564423,117.2801
1.4646018,117.57422
1.509293,118.769066
1.4514184,121.72802
1.5232297,122.880646
1.6786033,125.33339
1.6922104,125.539085
1.6612064,127.72523
1.7960693,124.798645
1.7239635,134.37326
1.8770403,132.84798
1.8364794,132.3173
1.9039266,132.65016
1.9158826,137.8387
1.9697347,139.33307
1.8765987,137.0236
1.9283706,138.58867
1.9288403,138.95451
2.018967,139.8758
1.9840617,143.00336
2.0339417,140.03636
1.8459939,142.80095
1.9593116,142.56767
1.9304776,142.33981
1.8625753,141.96971
1.899839,138.90263
1.8693098,136.69806
1.833109,137.32101
1.8424445,137.50905
1.8076873,138.2029
1.751171,137.05994
1.777927,138.98705
1.7593012,138.16164
1.7028978,138.56728
1.6450567,138.15254
1.5833241,138.51773
1.6807923,134.89903
1.580537,135.71048
1.5774872,130.3599
1.5270872,131.31613
1.6325436,130.20244
1.5268711,132.11925
1.5775987,131.07684
1.5140686,129.77983
1.5447993,125.05845
1.5480201,126.58178
1.4695399,126.18481
1.4574494,126.35681
1.4474362,123.63874
1.4526031,120.60937
1.4278874,119.39498
1.4415439,119.67269
1.5033684,119.885155
1.3701164,115.768196
1.3393415,117.34057
1.3552637,115.775
1.3214083,114.24943
1.2946299,109.575645
1.3410536,114.25388
1.2231419,113.830124
1.3075639,111.23136
1.2391052,108.79407
1.1221824,107.773506
1.0382854,108.779785
1.0404313,107.83924
0.99807215,104.75521
0.94166094,103.8334
0.92386836,100.628944
0.99280196,101.70828
0.88539565,101.2954
0.9699758,99.36789
0.96226466,100.85874
0.8928743,96.866394
0.9484255,100.08992
0.9404594,100.18313
0.9299102,98.15707
0.8904338,95.47469
0.8830945,91.60642
0.9864918,92.544334
0.80960625,92.52726
0.96674776,92.67478
0.87560606,89.88363
0.83657086,89.26484
0.7387253,91.64946
0.84699607,89.03983
0.85306525,86.754234
0.6398593,88.40033
0.66664857,90.40111
0.6620471,87.53658
0.4590623,89.52091
0.5203137,89.49146
0.62630653,87.67119
0.49841696,92.679985
0.52469885,93.848946
0.45176557,95.69583
0.4369881,90.478386
0.6068846,92.10696
0.44447997,95.59875
0.48965323,92.23359
0.5341823,94.78728
0.44747436,96.622185
0.5878081,99.86125
0.7432242,100.88175
0.781259,102.8491
0.87420595,107.77919
0.87446207,105.250626
0.97492576,105.97228
1.0273343,107.30348
1.0550299,112.49942
1.1875597,113.299324
1.183349,116.60342
1.4102362,116.38644
1.3526748,120.33163
1.3788747,119.19333
1.574964,122.20945
1.6082873,125.43204
1.59546,127.38489
1.6418444,125.27388
1.6890764,132.34825
1.687739,129.92224
1.749482,129.06413
1.6724279,130.485
1.7101771,135.75304
1.779314,136.80995
1.7863282,136.82962
1.8301181,138.29805
1.8562496,138.39539
1.8494897,138.42587
1.7556047,137.6937
1.8033468,142.59142
1.7774256,140.33554
1.6892884,141.38933
1.7056284,141.2916
1.6653543,142.71693
1.7924813,139.53835
1.8017741,140.39577
1.6459651,142.608
1.6863152,143.12456
1.8314981,140.84401
1.677813,141.21454
1.5460378,138.1344
1.4652535,133.38313
1.6340017,137.06631
1.6138287,135.64757
1.4311527,135.3136
1.415655,135.14082
1.4725554,135.86447
1.3834444,134.2176
1.2590092,130.91983
1.3671235,133.80116
1.2177233,132.98967
1.305487,129.77187
1.2810736,127.717804
1.2154753,129.66351
1.1987771,127.14973
1.3170019,124.26442
1.176147,127.58918
1.1582506,127.18502
1.2675376,124.64468
1.2406759,119.60478
1.2097971,119.21532
1.2256272,121.36208
1.1992267,120.403915
1.1690655,114.64448
1.2491939,113.46886
1.0076399,116.635574
1.0688184,110.80849
1.0391963,115.788376
0.81166875,112.73911
0.92427313,111.977394
0.93842745,110.33122
0.9239988,107.44851
0.79553276,110.98032
0.8460889,105.84085
0.7561288,107.56882
0.7747739,102.59997
0.7086377,103.71353
0.6633031,104.551094
0.67487824,106.27767
0.5667328,98.2566
0.5147629,102.77926
0.5675619,99.50641
0.4467019,96.50404
0.54209524,97.599655
0.62131435,97.36707
0.6909737,96.67426
0.5653086,94.37931
0.53177685,92.986725
0.49603736,95.04834
0.41372675,93.33388
0.5762666,90.95016
0.5414115,92.70145
0.49506408,94.081436
0.49598846,89.843864
0.3653115,87.74542
0.3611558,86.82468
0.39214417,91.083786
0.31864408,90.57457
0.22559549,89.76175
0.22534077,88.00333
0.378657,90.19529
0.19316417,92.54128
0.12591164,91.880035
0.04609646,89.24305
0.06120111,90.87139
0.20025514,91.97543
0.22626896,95.367744
0.18311709,95.07789
0.20467849,95.19395
0.14654076,98.138466
0.18705238,97.7062
0.25241077,101.66655
0.23969954,100.80775
0.34907606,101.864044
0.378823,108.31028
0.42263624,103.71432
0.33589983,106.56641
0.61458033,111.34265
0.6242954,111.36462
0.7332553,112.34967
0.7985604,119.95999
0.9444486,118.26411
1.0061271,116.54385
1.1339452,119.357475
1.0925721,121.122154
1.2126448,122.445244
1.3076193,124.95104
1.3067508,127.734726
1.3050553,129.23085
1.3807019,129.48119
1.3508614,132.10287
1.3165416,131.24442
1.3856221,133.17464
1.3578053,137.33678
1.4634026,135.01286
1.479778,135.8909
1.49964,139.71887
1.4316273,140.02504
1.4538466,140.76213
1.3807986,141.19795
1.4217323,141.33437
1.4335402,141.99799
1.4497832,141.36026
1.3723662,142.46695
1.2618837,141.32881
1.3421761,141.20168
1.357813,142.12462
1.3073165,141.16656
1.3256102,137.67896
1.2917377,144.00668
1.1902006,140.52345
1.1454037,139.96979
1.1587772,137.54376
1.1999813,132.57756
1.065602,136.73112
1.1334398,135.5456
1.1803569,134.86842
1.1181015,135.45465
1.069101,134.5154
1.0679282,130.9825
0.9989735,132.54123
1.0090798,131.76022
0.91251475,129.11731
0.98731166,128.81827
0.89931893,128.64009
0.89540035,127.242035
0.94720984,122.68701
0.91337293,123.97785
0.8246503,122.70789
0.894067,126.624214
0.7541324,121.76772
0.8093714,122.88123
0.801379,118.03949
0.80513227,115.76602
0.9009758,120.68519
0.79696923,116.00145
0.7281487,114.5157
0.75455827,113.69214
0.637047,110.68213
0.63401544,111.52548
0.54793674,110.2884
0.514947,110.96813
0.60476,109.87496
0.5277372,106.66872
0.64497375,106.20574
0.35782832,104.03197
0.31770024,103.37725
0.40512326,107.00588
0.28052533,104.18641
0.31716454,102.349495
0.28793877,100.45849
0.4052389,100.198845
0.20472874,98.52675
0.2779245,100.19319
0.29606828,97.75089
0.38049585,97.54731
0.2922431,95.5759
0.2591472,93.813675
0.3404613,94.7172
0.28461295,90.87355
0.27312857,91.09175
0.29890278,93.66703
0.40496212,92.0821
0.23988912,89.93898
0.25256512,88.92516
0.1687685,90.144104
0.12677813,90.06943
0.26132804,88.567764
0.004314945,90.50178
0.16896893,84.92553
0.039452694,91.626366
0.07449474,88.6989
-0.10348158,89.78388
-0.023554547,90.04098
-0.13809751,92.895004
0.0458828,90.98031
0.07052687,93.20858
-0.03949408,96.04291
-0.050827883,96.47838
0.057693023,92.18761
0.048132703,95.457466
0.22657217,98.16127
0.1815263,105.0107
0.2032567,100.36016
0.30010194,106.191216
0.26918086,105.662445
0.38168222,105.829704
0.5721897,108.38133
0.65148854,106.96015
0.7283946,110.2605
0.7210763,112.78376
0.7566639,116.8931
0.887967,119.031555
0.89762354,120.18013
1.0470959,122.27837
1.0455718,123.89274
1.2500277,125.22302
1.24591,126.831024
1.2008352,131.29024
1.3173667,130.3176
1.3186544,131.28056
1.2406403,132.1384
1.4409891,134.38898
1.3745408,133.4728
1.3907384,136.7579
1.4787291,136.02338
1.452963,140.24663
1.4461831,136.64804
1.5271431,140.7538
1.4402884,140.85352
1.4403557,141.34938
1.3590903,140.02165
1.5004609,141.85074
1.3122928,143.02483
1.4510187,141.64594
1.4006125,143.30199
1.3875173,142.86102
1.4449563,142.15526
1.3781954,142.9162
1.2534775,141.54791
1.3314772,141.48119
1.316991,139.48033
1.2090682,138.08076
1.3117725,139.22804
1.1534942,139.8135
1.1398321,137.33795
1.1753256,136.2159
1.0122163,131.75006
1.0882903,134.49612
1.0604026,132.20174
1.1369464,132.16525
1.0449524,128.62965
1.1381102,131.35379
1.0405694,128.2704
1.0160656,126.07675
1.0836633,127.04819
1.1176009,127.999214
1.1191709,124.02695
1.0661125,120.86393
1.1051193,124.85759
1.0442514,119.95287
0.9934597,117.64986
1.0190551,121.09852
1.0149704,118.18312
0.8735321,118.36474
0.9094759,116.65261
0.9394612,117.11257
0.8738296,117.091415
0.9915269,112.488205
0.83659506,111.955894
0.7776768,111.94227
0.73655957,107.732
0.81531066,106.56213
0.69824076,107.52916
0.70667315,107.51186
0.7872635,110.80806
0.6552961,101.744316
0.6345131,103.02131
0.51272064,101.74733
0.59142053,99.66616
0.59184873,103.24725
0.5220939,101.07941
0.56250745,100.692924
0.6002423,100.03328
0.54932463,94.26227
0.5816057,98.34158
0.6254349,94.34479
0.6630844,92.33294
0.5350619,94.74683
0.527321,94.1355
0.55752325,95.315346
0.49070132,92.77248
0.55134076,93.70194
0.56971717,91.198685
0.62396425,93.74978
0.49447262,89.742226
0.54599667,86.83541
0.466239,86.9041
0.44997865,88.294655
0.40849212,88.07364
0.3036467,89.8074
0.36162522,90.173904
0.19276738,91.46548
0.266603,89.622055
0.31618384,95.208885
0.35419518,90.66504
0.1961441,95.02075
0.3463923,93.44006
0.35587302,95.97745
0.29287446,95.62402
0.34408796,95.931526
0.3706203,97.10404
0.50748724,100.296295
0.48405752,101.389145
0.4970518,103.62206
0.7477804,106.27405
0.71172357,106.699615
0.8516598,108.5784
0.85004556,107.419846
1.0050831,111.67817
0.98762524,110.44733
1.0543649,114.89556
1.2208539,117.11367
1.2741916,117.95629
1.3631393,120.979774
1.4447486,121.56853
1.5253417,127.63149
1.4429833,126.720245
1.5045801,129.33087
1.654144,129.54507
1.6761085,129.10555
1.6393551,130.77657
1.6750985,132.3156
1.8469661,134.41702
1.7127973,139.46434
1.8360353,136.36507
1.7287682,135.8866
1.7188681,138.49905
1.9350578,137.16612
1.8310773,140.49336
1.8914124,141.95573
1.8580557,139.28252
1.8778021,138.94951
1.7087101,142.2253
1.7181202,142.99008
1.7573913,139.3431
1.7724504,142.8918
1.7922391,141.73807
1.6664325,138.32233
1.7130842,141.13857
1.6479454,138.26367
1.6653024,143.35378
1.6333752,136.96457
1.6655004,138.47542
1.6366076,138.03801
1.5492355,135.24268
1.6236115,135.4295
1.4728249,137.27864
1.5990434,131.88765
1.5262568,129.55994
1.4775026,135.53674
1.5048167,131.28706
1.4679369,130.28998
1.4278814,131.14067
1.4471606,129.24911
1.4884149,125.15901
1.4375949,124.492546
1.4726069,122.42908
1.463667,123.706635
1.3783809,122.58952
1.4850799,121.36274
1.4815806,121.64839
1.3750994,122.26201
1.33942,120.040985
1.2866805,119.63234
1.3198168,114.117424
1.2729754,116.07375
1.3099288,116.739006
1.1623898,115.86494
1.3434316,112.59431
1.1410686,111.628555
1.1385261,112.917854
1.0522988,109.27789
0.96414685,106.933266
1.003062,103.28935
1.068764,107.181526
1.015132,106.58015
1.0373901,104.031784
0.93742776,102.03476
0.8207846,101.51442
0.86722875,100.498665
0.9703498,101.6605
0.9198013,100.631584
0.9642058,97.112854
0.92716086,98.73029
0.88119584,97.21967
0.9853561,97.08181
0.78274375,89.9785
0.9014784,93.338776
0.91335815,92.70195
0.9089443,93.74076
0.8596825,92.93775
0.88197464,93.19494
0.8091209,87.911446
0.8798845,92.04875
0.79871595,89.49142
0.739851,88.73255
0.75824684,88.08592
0.7238244,89.673485
0.63801175,88.376625
0.6642031,88.48868
0.60631275,91.55643
0.6401941,89.28503
0.7042166,93.314224
0.49115136,92.32982
0.62326914,92.94747
0.5713451,92.856026
0.64808446,95.935394
0.47495723,92.485954
0.5960728,94.56558
0.5733208,98.69136
0.5974928,97.75717
0.54267746,100.17554
0.7751453,98.46164
0.85202056,103.24139
0.88058627,102.32632
0.9220419,104.96981
0.90551466,111.970406
1.0249516,108.17014
1.2820349,111.34234
1.2025949,113.553566
1.3631094,114.03351
1.3730767,114.96472
1.3164726,118.83592
1.4816972,120.02803
1.6034675,124.327835
1.6479843,125.53377
1.7560122,126.898895
1.6587929,129.90388
1.7376393,129.16661
1.7870073,130.6944
1.915058,131.99388
2.0122626,133.03658
1.8893198,134.46077
1.8826425,135.05478
1.9761457,134.48811
1.8654228,143.2094
2.0850172,139.55296
2.0412583,134.70197
2.030398,142.55292
1.9265941,138.88913
1.9661806,141.88283
1.9157221,141.61038
1.9914223,141.90353
1.9213483,142.68022
1.9104652,141.32664
1.8945,141.08401
1.8256696,140.72264
1.8973566,140.50664
1.8920826,139.22197
1.8754709,141.74756
1.8302482,139.75468
1.6324679,137.00558
1.6563693,134.18091
1.6409037,137.6191
1.5167067,136.79704
1.6314079,134.56534
1.7088114,134.82253
1.6831033,133.68698
1.5510421,132.22978
1.5877862,133.81938
1.4279276,131.91405
1.4793601,127.60898
1.4782014,129.9423
1.5136137,128.79543
1.562625,127.54607
1.465259,127.85313
1.3924747,123.84187
1.4769665,123.75288
1.4094595,123.30021
1.3423411,121.51178
1.3822902,121.36909
1.2741427,124.51907
1.3529116,120.53319
1.4119935,116.175354
1.2599523,120.614845
1.2742525,116.48113
1.2493916,115.92048
1.288123,113.232185
1.1836045,111.345024
1.0849603,111.36094
1.0828047,110.4514
1.0245332,107.235016
1.0558436,108.09491
1.0242729,111.47336
1.010415,104.048065
0.8573127,107.43757
0.82922167,106.67298
0.8555162,105.49403
0.9144911,101.76175
0.7706817,100.89022
0.8643388,103.50052
0.79364365,99.33269
0.7926396,96.743805
0.77487564,98.81678
0.7532496,94.40789
0.7321821,95.33188
0.75772005,93.464836
0.759841,95.26832
0.78417784,90.39941
0.75697273,91.24153
0.805208,93.77724
0.6568464,88.21216
0.76443726,91.80196
0.58380675,91.19773
0.70614487,88.40915
0.5200504,91.056656
0.5592193,90.15745
0.61482245,91.32237
0.4003639,87.57359
0.40666845,87.2954
0.5467201,89.83794
0.51450723,87.786736
0.3319007,90.24178
0.23851521,89.2256
0.34712625,89.78643
0.35800368,92.08012
0.3497686,92.89656
0.42472926,95.23547
0.38380268,91.656876
0.39027685,95.70916
0.4011573,97.48163
0.5136918,99.54536
0.5153278,100.927155
0.57105994,99.99298
0.5830675,103.48174
0.5276085,107.3399
0.79676366,107.42626
0.7778218,109.393684
0.9479012,114.105064
1.001375,114.98209
1.0883257,112.17559
1.1030188,116.98208
1.0021214,117.53962
1.1982924,118.44406
1.2828693,120.022194
1.3604352,121.90267
1.4600703,125.000656
1.4371185,128.45552
1.434132,126.402596
1.4509834,128.95912
1.6083522,129.9722
1.5357444,136.99464
1.4635766,133.94858
1.4722284,135.46245
1.6719627,136.87956
1.5893764,138.43803
1.6226338,139.34251
1.5511817,139.14206
1.5429937,135.57812
1.5487511,140.11032
1.6225166,140.3254
1.5635154,139.82292
1.5739067,141.94818
1.6097102,141.50075
1.5442345,141.32487
1.4546105,139.22081
1.5908816,139.52806
1.5272658,141.03325
1.4288452,139.02983
1.3156434,142.41505
1.3205724,138.72734
1.3945634,141.83661
1.5149621,141.20772
1.3666325,137.98244
1.304135,134.95544
1.254276,139.90553
1.3348305,134.74226
1.2852806,134.62686
1.2265714,135.172
1.1858354,133.00887
1.1743419,131.39996
1.197758,128.25246
1.0833871,132.62575
1.1557902,129.60233
1.0391145,124.56345
0.9242793,128.757
1.0763173,122.90603
1.0970157,122.7066
1.0562626,124.11249
1.0057286,118.224785
1.0807896,122.690025
0.9568803,121.29784
0.95840937,120.20028
0.9479057,121.75412
0.9657494,117.83918
0.9718373,116.80823
0.7008723,112.83109
0.8276615,112.12208
0.7797791,114.1876
0.77155566,113.90532
0.72244346,110.94952
0.700073,112.18216
0.63723654,110.25243
0.68667567,109.03492
0.6521993,104.10657
0.6198365,104.481606
0.48526242,104.80058
0.528859,104.16517
0.5055701,102.261406
0.34489638,102.78536
0.5556673,101.51391
0.4227937,100.3919
0.3952996,98.06723
0.40769932,96.7234
0.450927,98.42111
0.4030889,98.78665
0.48605946,94.4478
0.31524894,93.800026
0.39171103,92.143845
0.3617666,90.581856
0.4120676,94.75137
0.35133505,89.83023
0.3651625,93.892456
0.35549787,91.08422
0.22281395,91.5156
0.1317439,91.82835
0.1862342,91.085
0.25159797,91.150604
0.09841759,85.73697
0.06949358,88.69734
0.046840064,89.82532
0.14202853,91.71458
0.05700335,90.66723
-0.06346301,91.13193
-0.09440143,90.48656
0.09610447,90.175804
0.0016020129,95.505394
-0.025216455,89.98934
0.032399513,94.20059
-0.0077244486,96.53377
0.15989055,99.11641
0.0029620656,100.65026
0.14426765,99.90495
0.2531702,104.41932
0.32918513,103.35897
0.26712602,101.950935
0.37350437,106.545105
0.37753907,106.70299
0.5938131,110.82346
0.6087105,115.526726
0.7422503,112.573685
0.7865065,116.0446
0.8343536,116.45629
0.828657,121.71271
1.010502,119.42144
1.1553757,121.68495
1.1312202,126.27021
1.1336832,126.14225
1.2104322,128.69585
1.2487164,127.67225
1.2564156,128.91176
1.2757918,133.36646
1.2869073,133.93448
1.3628757,132.891
1.4353117,135.85852
1.3396881,138.04721
1.374895,141.92049
1.3893578,140.01274
1.3339419,138.00894
1.3654727,136.80762
1.4018945,141.95609
1.377168,140.38481
1.4277886,142.7641
1.3952682,141.32509
1.3623067,142.51817
1.340679,138.72832
1.1814647,144.99823
1.2875959,143.42384
1.2639735,144.0011
1.1938576,142.2847
1.2217168,139.93213
1.1490229,137.97147
1.1748167,140.79518
1.0930161,140.80736
1.1854846,137.70834
1.1430672,135.38284
1.1043454,135.26848
1.065842,136.09105
1.0506916,134.50996
1.0336151,132.8751
0.9581543,134.94545
0.8971622,132.71318
1.0291127,129.87306
0.8717365,127.35103
0.9042662,128.65517
0.7435397,127.99685
0.91320294,127.373985
0.9420112,123.69483
0.93044066,122.07037
0.84133023,124.814575
0.875332,122.827484
0.8776454,124.08569
0.7843657,124.483734
0.9319735,117.03439
0.80167574,117.64049
0.7729975,114.53323
0.71274453,117.217896
0.8506537,116.140305
0.74140275,113.520775
0.75590956,115.23438
0.6784,113.40426
0.6507167,112.1634
0.6705139,107.681145
0.6572142,109.95535
0.48178408,108.90914
0.44717693,106.6385
0.5402088,104.988045
0.4710146,103.709404
0.5251435,103.87244
0.40287694,103.946846
0.36630082,101.06737
0.363346,97.85828
0.48701465,98.74833
0.3750947,99.53042
0.492307,97.79042
0.40512896,97.44927
0.3866959,96.91111
0.46056342,93.84348
0.29165405,92.97447
0.43720144,94.4512
0.41563165,91.55065
0.39548934,90.50883
0.39523435,90.021996
0.2592884,90.39763
0.2738158,91.90543
0.3244287,91.566635
0.20865954,90.843185
0.20416799,92.74099
0.24484594,88.49658
0.18560506,88.9934
0.09461908,89.81364
0.12817153,90.663994
0.10888697,90.05316
0.15260205,92.747086
0.084309585,89.89432
0.03533889,91.52153
-0.009782356,95.38584
0.06127239,91.29487
0.07486765,97.25033
0.20179072,96.47613
0.15471397,94.463554
0.20133346,97.68225
0.17163411,100.01477
0.29244035,100.56611
0.4596483,101.04517
0.475584,103.68808
0.4187587,107.38093
0.543243,105.84359
0.74289095,110.35026
0.6452044,111.56644
0.8694986,115.88764
0.9198708,116.06893
0.9872578,118.204735
1.022295,116.77773
1.1309428,121.22154
1.2327101,126.327446
1.1812091,121.55656
1.4073236,124.70041
1.3573053,126.83825
1.4509865,130.93396
1.4262282,132.09671
1.3144183,131.10825
1.4841192,133.3768
1.4676702,131.69208
1.6668551,134.12582
1.5410842,137.35309
1.5330598,137.97763
1.5718101,139.60172
1.5478892,139.37164
1.5611862,139.6568
1.5889041,143.91057
1.6973454,142.1111
1.5216988,139.6649
1.5895239,143.17804
1.4869026,141.0617
1.5466954,141.39279
1.5432405,141.99187
1.4669876,143.95496
1.438938,143.06006
1.4810828,141.21016
1.5259088,143.34972
1.4545498,139.23898
1.4358948,140.93974
1.3675277,137.57184
1.3569667,136.10097
1.4300823,136.0864
1.2840217,133.54826
1.3024931,136.77945
1.3885176,134.73259
1.3404288,133.40332
1.3357282,129.08102
1.3829545,131.52844
1.182428,132.83234
1.1404426,130.73828
1.2414186,126.67642
1.1894499,129.09306
1.3091093,124.95566
1.2114637,124.4501
1.1903404,123.52404
1.3044881,125.15819
1.2515589,123.14382
1.2647122,120.57068
1.1805509,118.0647
1.3049583,118.63292
1.1848228,117.447716
1.1544875,115.76729
1.1548524,118.73103
1.0682281,115.292915
1.1309114,113.47391
1.0236299,114.478
1.0955347,113.0397
1.0052923,112.019485
0.8957572,109.02347
0.9827225,107.74837
0.9623382,107.10805
0.79245406,105.95502
0.85993814,107.7827
0.7298269,106.11924
0.80091494,105.93722
0.90523773,102.05474
0.65751475,102.16931
0.6727649,102.98075
0.69215,97.75278
0.7523012,97.726974
0.81431925,98.149536
0.64443195,96.97249
0.81518894,97.0292
0.8418357,94.74127
0.7555362,94.19082
0.8628841,92.90919
0.71211946,97.333405
0.7473865,94.550156
0.7154155,93.81847
0.7499923,93.59373
0.6025583,92.73776
0.7176037,90.22574
0.7086455,92.1448
0.6734267,89.56677
0.61554027,88.12015
0.59339833,89.63312
0.5724538,91.752144
0.5028886,90.25788
0.53519315,92.04053
0.45454878,89.2053
0.47520804,92.130585
0.42123783,92.5079
0.48990878,94.90066
0.50609905,93.65197
0.41180417,95.824165
0.47501716,90.75982
0.5237644,97.54331
0.64418864,95.5575
0.6749217,101.493614
0.8408601,98.40748
0.66426784,105.28275
0.71194047,103.71139
0.879037,105.64438
0.9838522,109.79513
1.0160701,106.365616
1.118389,108.27549
1.2488422,113.38414
1.2940298,114.55902
1.3815949,117.307365
1.2984009,121.459526
1.4505461,117.409096
1.6071883,125.13228
1.5887609,122.865845
1.6708052,123.65447
1.7899266,131.6645
1.6643333,130.65349
1.7920452,128.77083
1.81532,134.41121
1.9194425,131.41267
1.8916013,135.4822
1.9176873,134.58241
1.9616783,137.27824
1.905644,135.83218
1.8179412,139.84096
2.0273356,137.27849
1.9073197,142.69183
1.909882,140.48459
1.924001,141.21655
1.9917912,143.0736
1.9525537,144.92624
1.75505,139.35155
1.93514,142.5015
1.8927785,138.64328
1.8630515,139.1888
1.7713513,142.61375
1.8666645,142.27081
1.7986829,139.45622
1.712649,139.00206
1.7646489,140.98022
1.6325305,137.82352
1.782433,142.54007
1.7531208,138.96614
1.6426058,134.10223
1.7142318,136.80383
1.6460323,133.79097
1.5584091,136.83311
1.6023369,132.05557
1.6021669,131.61887
1.5815659,133.47397
1.4547993,126.88104
1.6214782,129.11977
1.5734742,128.55501
1.5764761,128.19608
1.4509344,125.19508
1.5027786,125.031906
1.4356759,124.58275
1.4883484,119.34637
1.5260583,123.37212
1.4000448,119.92061
1.3922921,121.09642
1.5537518,119.165245
1.4227126,119.48107
1.414921,114.70596
1.2697908,116.007935
1.2981285,115.299126
1.2739649,113.9585
1.2612753,112.38687
1.1708674,109.82642
1.1652199,107.549484
1.2420781,107.26724
1.0704563,110.46194
1.073822,107.23841
1.1230538,105.61111
1.0853677,105.562225
0.97738135,105.00662
0.9590748,102.66899
0.87370604,101.09435
0.8494143,100.68144
0.9041884,96.88772
0.9126432,98.098305
0.92413807,101.22383
0.96008915,95.35444
0.83568496,95.53659
0.9360589,93.97487
0.9818021,95.07737
0.8638081,95.65806
0.94948214,93.054245
0.8342326,89.70111
0.9361097,89.65642
0.75926816,90.407745
0.85359937,90.757774
0.960904,88.02274
0.8193474,90.33545
0.6989986,90.515045
0.7345852,89.16087
0.7064176,88.04588
0.59817773,90.26267
0.6695343,89.31484
0.51832485,91.384254
0.64429593,93.401955
0.5701929,91.34925
0.46212134,92.95326
0.40250564,93.4359
0.410024,93.469536
0.5243963,95.29581
0.43254286,94.190735
0.49250522,95.63345
0.5846579,99.40366
0.53492665,102.1901
0.6169609,102.811134
0.65594125,101.321304
0.75988686,98.55775
0.7609765,105.31117
0.9092493,107.18031
1.0767766,106.59618
1.0654435,111.97155
1.2186121,113.34506
1.1625828,112.22101
1.2896886,116.91465
1.2660962,119.688324
1.4530882,119.63458
1.5351074,121.05618
1.6320435,123.04836
1.6049707,125.902115
1.5779347,125.32972
1.716681,127.946526
1.686086,128.31168
1.6363751,130.17262
1.8217881,131.19205
1.8190974,133.43051
1.7733966,132.5001
1.7706445,135.3428
1.8048487,137.6505
1.8086851,141.15788
1.917716,137.28036
1.7844825,139.79042
1.8018658,141.97087
1.8748015,141.59969
1.8389267,140.35027
1.7187076,140.18057
1.8582933,136.88641
1.8419952,140.27493
1.861659,144.2929
1.6703448,139.71083
1.8165838,140.43878
1.7236457,139.87747
1.7833334,133.70609
1.8084863,139.51152
1.627198,138.12741
1.5992826,138.60765
1.6126963,137.53549
1.4848487,137.90149
1.5607568,134.45248
1.4768354,133.31955
1.4425431,133.34843
1.3609657,134.24008
1.2976967,132.345
1.2707648,132.96927
1.3650972,129.95694
1.2929724,131.34785
1.2944679,128.69586
1.3113286,127.68339
1.303247,128.66658
1.3719845,126.22122
1.2530506,123.4417
1.2372231,126.49022
1.2640496,123.44498
1.2858176,118.759056
1.2574015,120.91759
1.1650004,116.577515
1.0943136,117.43518
1.1117591,118.858475
1.2079157,113.91665
1.1671922,116.07093
1.029086,114.97236
1.1167958,114.3878
0.9648542,114.00402
0.9154119,113.837135
0.9796562,109.32362
0.9086726,108.96774
0.7930701,106.586235
0.77123433,106.915726
0.70036334,106.17056
0.7698984,107.88988
0.77584183,105.14108
0.6279799,109.10091
0.7182769,102.796555
0.730136,101.58243
0.55890405,100.78181
0.53166604,99.16908
0.5900605,98.47073
0.59738433,100.89087
0.55612147,95.07326
0.52071524,93.02483
0.54940754,93.62234
0.55230904,95.88442
0.53759944,91.39336
0.61092526,93.17662
0.5024275,92.41367
0.5520183,89.466545
0.65998363,93.65115
0.42432305,90.00658
0.41139686,90.57981
0.396114,93.696075
0.4354295,88.643
0.36025128,89.44915
0.36639988,89.364426
0.31062624,89.65816
0.13965814,90.569305
0.30103824,90.482216
0.18424769,92.426186
0.014286797,93.66304
0.090681925,94.30497
0.072574005,91.32911
0.21234438,92.269394
0.20221022,92.91119
0.282269,95.23222
0.20855144,97.28881
0.26667273,98.5525
0.35477185,99.500175
0.29650027,100.94257
0.3258661,103.73941
0.5203166,104.16505
0.51713556,103.97832
0.5625965,110.44771
0.5598837,106.40227
0.7460835,110.60549
0.73385245,112.54219
0.9117848,118.88786
0.9051405,120.22181
0.9738826,121.58169
0.98026645,119.87473
1.1796576,124.65986
1.1518472,123.082184
1.3849556,128.03995
1.3576877,128.1913
1.3587282,133.26341
1.3718628,129.42984
1.3472145,133.14093
1.5071043,131.9502
1.3855197,134.40099
1.3949578,135.42743
1.504095,137.60301
1.5084993,136.34177
1.4592559,139.44174
1.496213,138.43803
1.4766289,143.12517
1.468897,141.00473
1.4328563,141.28528
1.4472058,138.49004
1.3199667,141.2594
1.3797234,140.87057
1.346493,142.14307
1.4536173,143.83727
1.3095915,140.86136
1.301229,138.19661
1.2719786,141.88301
1.2461841,137.78851
1.2662002,141.07863
1.2360402,137.2439
1.1762557,137.4278
1.1590574,133.99117
1.1848835,137.06685
1.0605041,138.4699
1.1801788,136.6692
1.0090905,135.0084
1.0827093,129.0904
1.047774,131.70428
0.8826637,133.32924
0.9816322,130.92252
0.9755704,127.415634
0.90484685,125.824615
0.99718195,127.64102
1.0122896,123.13129
0.9412515,125.63412
0.97745836,121.48887
0.91367745,122.869385
0.8274579,119.22892
0.83254,122.02271
0.8879574,119.239685
0.7640925,116.34953
0.82411534,120.07699
0.82911813,121.3502
0.9296667,116.02221
0.7921041,114.25466
0.69264895,118.34597
0.67415136,112.54872
0.5757853,109.66743
0.5435502,109.47014
0.6011491,111.897385
0.62341374,108.82079
0.49018952,109.22734
0.53619057,108.89453
0.4522486,107.69233
0.49326974,105.787735
0.28996736,100.342316
0.37390557,102.58757
0.30983308,102.29687
0.4184274,103.73685
0.31292832,99.0788
0.35209334,99.51612
0.32986832,99.44929
0.25258952,95.983315
0.35388798,99.57037
0.33834988,96.96851
0.30283657,94.28032
0.29220158,91.500114
0.414175,91.363014
0.35615984,88.424065
0.28251192,90.32405
0.28988874,91.33562
0.2960574,91.20181
0.20535322,88.783806
0.24222349,88.22827
0.16753176,90.58141
0.16311105,90.83029
0.03255845,85.22677
0.117699265,90.200325
0.12063126,89.04879
-0.11689359,87.558945
0.03136125,90.513115
-0.14736196,87.85307
-0.12848265,91.49884
-0.13679062,92.66997
0.010600462,93.243256
-0.08078651,96.34355
-0.12518898,97.20355
-0.014904116,94.35069
-0.017697668,99.141525
0.19820966,102.13076
0.13531984,100.36452
0.20742878,99.4361
0.3000947,99.9932
0.46114847,107.858315
0.35200095,107.48355
0.48673663,110.31601
0.582808,109.26919
0.7256807,111.14008
0.76834726,118.59286
0.9271086,116.227066
0.84266144,119.75601
0.99314415,118.518684
0.99905664,117.72177
1.0456167,125.17024
1.1272746,125.1196
1.1865205,128.97255
1.3461719,126.130684
1.207611,127.663345
1.2698799,132.7918
1.4340153,131.40918
1.3730584,134.09705
1.3780934,138.436
1.3720515,139.93903
1.3120774,137.73183
1.2448618,138.99731
1.377797,141.04163
1.3575182,141.8126
1.4760996,142.94766
1.4451525,142.10751
1.5060925,137.78955
1.4949743,142.34457
1.4399159,141.01433
1.4655488,139.4785
1.4353201,142.20026
1.4043995,138.34007
1.2876931,145.14998
1.302553,141.71123
1.1908429,137.3541
1.2978446,142.33754
1.2682102,139.64026
1.2471982,136.02864
1.2242193,142.52495
1.2524351,138.05066
1.0793866,136.09355
1.1603476,134.03914
1.1879774,133.9819
1.2165313,133.36987
1.1697998,131.59657
1.0692815,132.47665
1.0111973,129.85022
0.9700441,126.549065
1.0830904,130.13841
1.0386533,127.330765
1.012439,126.436
1.0818669,127.50068
1.0072781,123.7559
0.9462783,123.01568
1.0813835,122.016495
0.97277594,120.75215
0.98251355,122.123375
0.9222086,117.17162
0.970043,114.77692
0.9293405,123.0036
0.8965521,115.07242
0.9399987,113.67112
0.7805541,114.15006
0.9250061,113.07475
0.72231317,113.856636
0.77176887,112.97895
0.7691811,108.4331
0.59059197,111.3689
0.642678,108.58377
0.5770165,106.741035
0.68786263,103.966965
0.6523889,105.823235
0.55354637,106.57792
0.61280125,103.21764
0.5520546,100.56895
0.5245327,98.45377
0.5498548,98.47591
0.48069644,98.036285
0.560878,98.93483
0.57804036,96.62409
0.54528326,97.4719
0.5812338,94.18919
0.57824063,96.747475
0.40716574,93.70626
0.4248068,90.28476
0.4915916,88.70682
0.45798925,93.674446
0.4387221,90.509766
0.46445075,92.90086
0.52822894,92.39761
0.38152912,90.83391
0.46444118,90.15463
0.41150153,88.02716
0.4362847,87.57682
0.3220909,89.68146
0.33717546,89.99528
0.35343847,90.541
0.35179278,90.77505
0.27654997,91.35422
0.36553833,90.228226
0.24823731,94.46431
0.30150464,95.188286
0.16887058,97.86343
0.20895585,96.24253
0.36383626,95.60085
0.33206987,95.57872
0.30803752,98.11073
0.48273993,100.66737
0.4859942,102.31909
0.4833133,103.180046
0.6292656,105.19813
0.73968655,106.885895
0.7631472,105.703255
1.0781296,110.16871
0.90592897,111.12528
1.0067489,116.71585
1.0926495,115.27224
1.26746,119.2625
1.2862923,116.499954
1.4147266,124.99503
1.3528386,121.75772
1.4232858,125.864845
1.4618853,127.99435
1.6062925,127.44028
1.5536771,129.80534
1.6346405,133.87831
1.6589931,131.78255
1.6865093,134.63518
1.7138652,135.01485
1.8251284,134.43031
1.7490358,139.1311
1.7942357,138.37013
1.8447782,138.89142
1.8479923,139.79286
1.8522888,143.01546
1.7796235,142.77441
1.7585217,140.68286
1.7927686,142.438
1.7530982,143.93202
1.7159283,139.90955
1.6679213,139.27518
1.6978894,143.66971
1.6922139,141.59749
1.6889384,140.12732
1.6220477,139.55876
1.6266896,139.3143
1.6543809,140.82951
1.5715672,139.19806
1.563566,132.72917
1.5248847,139.41156
1.5191425,135.40276
1.4420998,136.311
1.5476346,136.82492
1.3625069,131.60794
1.5139766,134.5966
1.3762298,134.58836
1.4327236,131.56882
1.4717848,132.6508
1.335836,129.20653
1.4272192,125.15139
1.3185105,127.10062
1.4781241,124.67218
1.3804365,123.03106
1.3205281,122.35282
1.3413178,121.17851
1.3789611,123.93165
1.4475425,121.60426
1.3872236,119.11344
1.3393639,119.25912
1.4220656,118.637985
1.2666101,116.71718
1.2394434,114.980774
1.298978,115.59194
1.2377195,109.59909
1.2097538,112.48489
1.1797419,109.6803
1.0890937,112.66147
1.0593328,108.80916
1.0187815,110.03821
1.029176,106.79325
0.97641945,108.97159
1.0593604,106.171005
0.9933473,105.58279
1.0372133,101.57348
0.85242707,103.41057
0.9676848,99.9558
0.8204978,99.69245
0.8370504,100.908356
1.0242604,97.39091
0.91020006,96.110374
0.94297147,97.455826
0.8268153,99.64261
0.9714312,94.378265
0.93412054,93.269516
0.86975986,95.79825
0.8910647,92.75669
0.96196234,92.89269
0.9819757,93.960335
0.8446627,91.057144
0.84471107,88.2292
0.78674275,91.04275
0.7994828,92.03102
0.6245485,89.22244
0.6432488,88.21118
0.6355402,89.721825
0.61551344,89.999596
0.6345653,91.55386
0.6275582,93.87341
0.5547238,89.036
0.535548,91.46517
0.5555379,96.19668
0.4812373,92.769295
0.4223955,92.36476
0.5911044,94.190575
0.60070175,98.16736
0.6098425,97.26861
0.73902494,99.76765
0.68639696,96.60621
0.8341853,99.91915
0.8424595,103.25919
0.81292504,103.30658
0.9002466,106.65082
1.0516738,106.64345
1.1329478,111.15637
1.323883,113.631134
1.3122371,113.30646
1.399766,113.7778
1.4596958,119.64296
1.5294541,117.57266
1.5069907,122.372795
1.7374281,122.83301
1.6394603,125.297714
1.7278891,129.25272
1.6742107,129.37341
1.8733224,131.76404
1.8427643,130.26756
1.7993163,134.40434
1.9105579,134.32613
1.9534488,135.61147
2.014509,137.8797
1.859121,138.122
1.8885998,141.41576
1.9931109,136.97992
1.9087894,139.36922
1.9746501,141.5816
1.989386,143.41692
1.9629056,140.58357
2.0020883,146.48285
1.9294146,142.24681
2.0090404,139.48677
1.9261891,143.02785
1.9293048,143.51895
1.799406,140.15274
1.9264475,141.45372
1.8846407,141.04446
1.7528443,137.27676
1.866176,137.5253
1.6865543,136.72777
1.8379134,137.05927
1.7383584,133.51643
1.6056598,135.19212
1.6623124,139.09578
1.5890076,129.57445
1.5935187,130.30252
1.6089494,130.51208
1.5612328,130.54558
1.465017,131.6767
1.5287448,131.22551
1.4825267,125.02211
1.4775677,127.837875
1.384951,126.818016
1.4888921,125.24225
1.4279794,121.98405
1.4063796,123.058304
1.4192888,121.91678
1.3784157,121.6769
1.4357564,121.87548
1.4144769,119.80804
1.2913687,117.99067
1.3748333,118.83123
1.313415,114.00707
1.3192769,114.434395
1.2832385,115.19961
1.2165216,112.1956
1.2383784,114.055046
1.1384969,113.46332
1.1679236,112.59075
1.2773201,112.72053
1.1031724,107.46279
0.92976594,106.13611
0.8424404,106.8053
1.0048863,105.214165
0.7916836,102.65563
0.97158605,103.38266
0.97025585,99.11743
0.81336206,99.166435
0.9411574,99.35424
0.8012797,97.55399
0.710201,99.73141
0.7968691,93.36962
0.73496115,95.78105
0.73337126,96.90627
0.8180427,96.06335
0.76663405,90.936966
0.73104,89.97834
0.7545614,93.37497
0.9229974,92.36031
0.7506753,88.83277
0.77198595,90.49265
0.68105316,94.93719
0.6003387,89.70865
0.6086821,92.600716
0.61595994,90.41998
0.5681618,90.3785
0.6246068,90.69914
0.5665636,85.54189
0.47878763,92.19572
0.37635183,88.056175
0.50852966,93.81255
0.37354198,91.11407
0.3417739,92.51022
0.36495334,90.7853
0.28150347,94.492615
0.3811005,92.65463
0.3367514,96.32401
0.3320426,96.5756
0.3670698,100.28733
0.52661145,96.23667
0.5697302,100.91672
0.5933814,103.19694
0.78045684,102.0418
0.7353327,104.179924
0.8344173,110.19901
0.8500586,110.287926
0.93943673,111.866486
0.9305068,114.132126
1.1954436,114.987366
1.1482499,116.89295
1.1314251,116.99339
1.2667092,118.79697
1.3963858,121.04938
1.4315472,123.209045
1.4933583,123.43922
1.5291494,127.20795
1.4936384,128.7947
1.5952224,127.91303
1.4698696,130.44348
1.6655602,131.9298
1.6104629,136.05202
1.5814811,137.35103
1.6542633,138.41
1.64436,141.0901
1.7928067,138.29012
1.6419699,138.1131
1.5777584,134.4543
1.6057073,137.26625
1.5532309,141.40088
1.6384844,140.80748
1.719757,140.90877
1.6119472,140.13614
1.544097,144.15515
1.5866847,141.25426
1.5379584,141.77559
1.4695154,140.6514
1.4642158,143.11142
1.5161877,141.15028
1.5385145,138.48181
1.4529396,138.82794
1.3729283,138.61353
1.3898134,139.90987
1.2796357,137.00034
1.2920796,135.63914
1.2396114,136.83539
1.2525926,132.7408
1.3211163,134.73181
1.3119766,129.68607
1.251234,133.1294
1.1634613,129.5399
1.0677586,129.6048
1.1520531,129.54329
1.0496187,125.50211
1.0959646,128.52072
1.1218884,124.09899
1.1093562,123.06168
1.0526774,123.87889
1.0539075,125.176735
1.1597149,119.42261
1.0119686,118.78057
1.0582793,120.54051
0.9894286,117.93288
0.95552206,119.20682
0.89825356,116.925064
0.8300436,112.54597
0.8037108,113.04279
0.8411407,111.490265
0.86252147,112.33307
0.6447139,115.75214
0.7728846,110.782814
0.6164215,106.41087
0.56262356,109.61112
0.64379483,107.0166
0.521872,108.15301
0.6038069,102.49498
0.5194443,105.62809
0.5827746,102.64527
0.3841313,103.9489
0.46541992,99.369995
0.36000046,98.05114
0.37338117,99.69112
0.42180046,98.29864
0.4522615,100.3039
0.38243416,98.29248
0.38644326,94.39038
0.34945947,93.132866
0.41034824,91.43886
0.39766878,92.19548
0.35578614,91.026794
0.26118523,90.84817
0.42837808,92.02646
0.38745347,89.80704
0.28627512,89.736374
0.25651124,86.5847
0.3443024,90.28831
0.0894225,88.34848
0.23973821,90.2318
0.10740297,86.76067
0.016984738,88.87295
0.069005325,93.643936
0.019364396,90.56088
0.01659827,89.69806
-0.034910005,91.42193
0.057614964,92.72475
-0.0888524,91.92492
-0.08136787,95.53693
-0.029709203,97.66005
0.032559857,97.5989
0.04620475,99.772354
0.10110811,99.95337
0.16212527,100.86048
0.13833435,101.55908
0.29964286,105.385086
0.34463614,106.262794
0.34528568,106.0936
0.4706697,109.70595
0.5855704,109.16125
0.6196547,111.96966
0.58975154,114.50092
0.78557205,116.833374
0.7502163,119.745316
0.8642107,120.03585
1.032196,122.17834
1.0116109,122.2906
1.1054095,128.16212
1.1285523,127.31974
1.2256867,128.06949
1.1351742,129.312
1.2263116,130.95183
1.349819,133.88765
1.3498092,132.69856
1.3651934,134.45564
1.4143577,136.51808
1.3132983,136.61615
1.3553145,139.04982
1.4311985,141.65697
1.348595,139.37831
1.3184274,138.97993
1.3689369,140.89969
1.3145434,141.75154
1.2388884,141.57716
1.322435,142.87901
1.3132052,143.65105
1.4039892,142.13742
1.3155643,141.29535
1.266557,145.51881
1.2504661,139.26721
1.2643193,138.44528
1.2604308,141.5517
1.1635005,140.02335
1.28607,139.25786
1.2109524,136.79156
0.9838365,139.74353
1.0954658,135.8216
1.0137029,137.29031
1.0296968,132.82674
0.9403393,133.06319
0.9174672,129.27426
0.98137134,128.91037
0.94215184,133.50739
1.0020056,127.66439
0.88747287,132.26784
0.90799123,128.92549
0.9305198,126.98884
0.8733069,125.14168
0.7369288,125.61192
0.9471918,121.86835
0.8575659,121.553
0.84749013,121.64775
0.83686286,116.151985
0.8514993,119.19033
0.79508024,117.10536
0.8555637,118.49336
0.7149882,118.31732
0.67013997,114.05294
0.6349408,114.489296
0.6996426,115.206894
0.68592983,112.41475
0.53449273,110.27658
0.58492994,110.81476
0.56467336,111.12254
0.4212095,109.86496
0.42341486,106.4366
0.5009391,109.45387
0.49279508,109.35182
0.5468342,103.25912
0.50632447,104.53965
0.41723353,103.459526
0.41566572,100.47122
0.3794471,99.810745
0.40730855,99.09736
0.3478114,97.58509
0.41125402,97.71481
0.35783643,95.747475
0.40420756,91.65626
0.5146394,94.11676
0.41146618,90.61424
0.38338873,91.83027
0.25009707,92.9991
0.43302512,92.52325
0.36519906,93.70586
0.2449061,92.34301
0.26869714,92.75666
0.29267836,87.743965
0.16684473,88.68762
0.1634325,90.01692
0.26895154,89.28558
0.23369563,88.61169
0.22695076,91.174515
0.13126788,90.786316
0.05841759,87.97102
-0.02851305,89.31473
0.05648021,89.53916
0.024712626,92.488075
0.018386386,89.691025
0.065592006,94.77561
0.046159517,95.57035
0.17062846,93.83907
0.07536388,97.03246
0.15076907,98.36769
0.26886544,101.82485
0.21108714,103.2848
0.44575602,101.596954
0.44791615,106.731895
0.487374,107.602745
0.58144957,109.439735
0.67491716,110.94931
0.7567718,111.2489
0.86906445,113.33012
0.9619741,115.9431
0.9363828,119.924576
1.074067,121.12848
1.0338507,121.52439
1.2502754,122.67188
1.2513965,126.210365
1.2635643,127.06261
1.327963,125.42713
1.4788395,126.20843
1.401214,129.5791
1.3454778,133.44606
1.6380858,134.30554
1.4962739,136.13712
1.5078572,134.85475
1.517323,137.94919
1.6170729,138.76122
1.6037564,138.30064
1.4964764,141.327
1.5162506,142.8421
1.4729885,141.03108
1.5693929,145.09901
1.631694,142.79016
1.5721376,139.29456
1.5897133,141.50322
1.4872801,141.526
1.6082404,142.68083
1.512706,140.95427
1.6137606,142.83237
1.4688504,138.76976
1.428746,141.74998
1.3432128,143.13197
1.3961651,140.19383
1.3816885,138.35443
1.2950388,135.14082
1.3658152,139.1767
1.3427436,137.12682
1.278579,136.5211
1.2874082,131.4043
1.2888714,131.63622
