ppg,abp
0.92833596,102.87329
1.0702187,108.2385
1.1446439,106.52598
1.2989494,108.58635
1.3832779,114.947426
1.4032338,113.92181
1.5656902,122.116714
1.565338,116.39134
1.5696696,125.83333
1.631282,122.694275
1.5429344,124.68028
1.5798638,130.51117
1.6170626,132.24297
1.7228421,131.45459
1.6821386,135.93715
1.7636464,134.6647
1.7429752,131.94118
1.754971,134.47668
1.6805047,134.55963
1.7231747,135.71799
1.7515928,132.9769
1.6467749,136.352
1.6144611,138.54631
1.6774981,133.1765
1.6229379,132.1991
1.6401758,134.573
1.523672,130.00386
1.5192745,130.70917
1.6151975,129.37622
1.5694386,130.42924
1.5990021,126.185616
1.3656261,126.127205
1.4638892,123.850876
1.353032,122.278366
1.3682792,122.48863
1.3863951,118.29071
1.3678374,120.24728
1.2663134,120.81444
1.3537638,118.11455
1.3966397,113.65758
1.3662728,115.86304
1.3311857,111.64261
1.3061193,109.79838
1.3478967,114.17673
1.2396585,103.056114
1.3518974,108.40401
1.3128798,104.65113
1.3588363,102.91264
1.232859,103.778175
1.0691917,99.375565
1.1067884,102.64791
1.0081245,101.285995
0.98631763,100.54899
0.986211,93.59257
1.0558363,91.5789
1.0590047,90.74195
0.9137127,89.3656
0.99234134,89.31219
0.83384764,92.130104
0.9204249,86.05251
0.7768311,85.593796
0.8674074,86.1168
0.8983639,81.36577
0.8762476,81.67377
0.921617,80.47794
0.9160625,79.54709
0.8503544,77.53501
0.84152305,75.594086
0.86979085,75.13422
0.84328806,73.551315
0.8097823,74.10191
0.79553753,72.95597
0.85818285,73.346176
0.653288,72.32181
0.7217872,70.025406
0.6920531,72.48231
0.7389085,68.47979
0.5680807,72.83121
0.50878346,73.51146
0.5450073,72.53703
0.55982983,75.14015
0.5035364,73.81827
0.5304131,76.49923
0.48234022,80.74665
0.6017199,80.70741
0.6210971,76.76487
0.5816488,79.59828
0.72904205,83.916916
0.72261417,85.95535
0.81888896,88.867485
1.0062006,94.36873
0.95586056,93.09204
1.0116427,98.45466
1.1646924,95.745705
1.3068019,104.41008
1.2043359,103.57717
1.4465399,105.45616
1.4985611,109.00181
1.6442065,110.49101
1.6324874,114.790726
1.6519582,117.51905
1.7190254,116.89587
1.7905514,122.73501
1.8491437,124.8065
1.9110976,127.220665
1.8792335,126.92121
1.8978643,128.051
1.9550139,126.92076
1.976978,127.96255
2.0755484,134.52374
2.003856,135.38417
1.8858747,134.97685
2.0205595,134.57011
1.9527217,136.67445
1.9625565,133.9922
1.8984085,134.7401
1.9523054,132.6727
1.8835586,135.1275
1.8524976,133.85927
1.8395357,132.85098
1.8994553,132.09877
1.7859424,132.81085
1.8294162,128.14972
1.6398097,132.48756
1.6739836,128.72478
1.6328096,131.33134
1.6660427,126.51324
1.6749946,125.36268
1.5320764,121.90292
1.548613,122.340706
1.5306653,117.73669
1.6209856,122.07886
1.5270336,119.735214
1.5412686,116.97245
1.5906612,114.068146
1.4925122,111.71175
1.5096323,112.09068
1.4836266,111.20385
1.4611799,109.984215
1.3816339,109.78066
1.3972542,107.690254
1.4510236,103.94723
1.4477602,100.40179
1.341395,102.45755
1.2849597,97.496956
1.2246792,99.72657
1.2078149,96.754814
1.1782874,94.76279
1.1204649,95.132835
1.0432268,99.36195
1.0811975,95.06796
1.0266587,88.55466
0.9704934,93.124344
1.0468584,87.155815
0.8740626,84.55522
0.9772652,87.83935
0.9631061,83.61876
1.0308691,82.70942
0.8811232,79.97909
0.8543404,80.99867
0.8933197,78.94986
0.91509783,79.92274
0.81110644,76.39199
0.85312366,78.82269
0.8892821,72.70926
0.8416664,73.985146
0.7512695,73.411674
0.7244379,71.41087
0.63667804,69.09682
0.74608785,69.75669
0.72578186,69.773506
0.6074024,72.86273
0.62109345,69.942375
0.57005876,72.09728
0.6129185,71.69419
0.5080393,75.36089
0.5150467,70.766014
0.42496195,73.69579
0.47622132,77.42252
0.49356452,77.42885
0.56419986,79.17523
0.5792248,82.6064
0.6214833,82.03761
0.73400897,86.011475
0.709492,91.346245
0.82934934,89.37416
0.8813018,94.20015
0.9898596,95.43196
1.0410234,95.74028
1.197316,99.39721
1.2759839,100.9655
1.3429452,104.68756
1.4058626,106.3812
1.5021275,110.40378
1.5706803,114.12508
1.6835772,115.47375
1.6784792,117.085884
1.6479545,122.89178
1.7379043,123.65484
1.7127799,126.1333
1.7803073,126.46677
1.8707547,129.71086
1.8437744,127.94862
1.9206289,136.7716
1.8400806,134.82332
1.8387786,133.01843
1.7781613,137.06386
1.8424492,134.3174
1.8161975,131.70769
1.7474095,131.98512
1.7539887,139.67523
1.8423357,140.90942
1.7741231,133.23055
1.6290227,136.48363
1.6630468,133.6597
1.6855785,129.13002
1.6422784,129.67812
1.5081508,129.78429
1.5503752,129.0062
1.5683957,128.40405
1.4276367,131.32388
1.402173,127.59068
1.388665,123.24811
1.3613186,122.41674
1.2904555,120.77353
1.3081112,119.59623
1.3359976,121.88851
1.2852312,118.254234
1.3432583,116.96181
1.3498582,117.14964
1.1426839,113.86446
1.1810136,114.74704
1.1923941,107.840515
1.1642785,111.71729
1.0855037,112.30911
1.1859456,106.3513
1.176432,105.33501
1.0311459,101.82059
1.0672902,101.96249
1.0428164,98.20328
1.0655026,97.81981
0.94215983,98.99147
0.83066565,94.089554
0.92739147,93.90098
0.82388157,94.72213
0.8230703,93.79341
0.75590456,87.02278
0.747209,87.969215
0.64895606,90.77363
0.69104326,84.34606
0.6103746,81.174034
0.6007143,83.40186
0.57341015,82.547714
0.50744534,83.02937
0.60418415,84.707985
0.58724964,76.255104
0.594179,80.5199
0.52954453,71.2709
0.6310579,75.872475
0.5997765,76.46367
0.49990314,70.21475
0.55165267,74.609535
0.5039315,73.76066
0.4193093,75.23482
0.34515876,71.80844
0.35014182,70.44236
0.32569495,73.222824
0.30314085,73.13153
0.32469755,69.65555
0.1786315,71.14718
0.20799817,76.593445
0.13384393,76.11545
0.13465264,74.013054
0.074150614,77.08018
0.21620683,77.797195
0.2759002,78.73612
0.25893104,81.91608
0.25584707,87.866905
0.2887929,88.555115
0.50331646,90.90445
0.42969966,94.93702
0.51861924,94.7672
0.6275854,97.65497
0.79846644,96.39662
0.9033163,102.1881
1.0264448,106.647415
1.02004,106.617516
0.9862163,109.05519
1.1972195,110.85124
1.2778118,112.88668
1.300551,116.218925
1.3552924,120.91609
1.3778025,123.437836
1.4254154,128.37775
1.4747329,125.16124
1.406892,128.4016
1.4319329,127.58429
1.4768493,130.61365
1.5360522,131.26404
1.5047824,129.99495
1.5491754,133.6935
1.5237627,132.71008
1.4947579,138.56792
1.5703927,132.33707
1.4493928,130.34421
1.4067663,137.40755
1.3932209,131.15504
1.2882627,132.73605
1.3504432,128.59862
1.3784442,132.78912
1.252403,132.31288
1.3006034,131.42358
1.1849217,131.69446
1.2357132,128.79231
1.1612006,125.11847
1.1154248,127.78174
1.1541687,125.89717
1.0922291,123.004845
1.0887477,128.10002
1.0294108,122.842896
1.0422615,120.22917
1.0014731,124.25744
0.9355064,119.13544
1.0527186,111.38758
1.030378,114.55724
0.96779007,113.88029
1.0099854,110.83675
0.9227452,107.19355
0.86459726,104.86639
0.9294071,110.08711
0.8581609,107.62253
0.7892352,107.594604
0.70440805,103.28732
0.7991064,101.223885
0.7015178,98.08863
0.6854029,101.92188
0.63707924,97.10323
0.6138751,100.72629
0.5951559,95.00923
0.45642555,96.72425
0.4512044,92.38744
0.37993208,88.5127
0.4322387,92.89291
0.31645322,85.165794
0.416112,86.70764
0.38885474,84.71265
0.42865986,81.676895
0.2554871,83.86717
0.25601968,84.445114
0.4556138,82.31587
0.4411834,80.43627
0.35128608,75.641655
0.4145214,78.12216
0.32068273,74.77026
0.37073165,74.0835
0.30527332,68.4517
0.29650995,72.50309
0.2521361,70.60141
0.23351213,72.169106
0.15794262,73.84221
0.045625377,71.5205
0.06540399,74.26592
0.034885928,72.770164
-0.028370162,69.65742
0.031776078,71.4548
-0.07198085,75.31083
-0.13247359,73.58323
-0.06997526,74.36935
-0.07433228,79.303085
-0.07224842,82.03524
0.014747314,80.03837
-0.022633497,85.410866
0.052783705,84.85245
0.25618404,84.10731
0.20949566,88.934235
0.29265037,90.26981
0.42476475,91.37789
0.5414676,100.67885
0.6055647,97.24345
0.695441,102.34665
0.78834593,102.26227
0.90927947,106.92972
0.87061334,109.803795
0.98977774,111.51228
1.0733163,113.15306
1.0500044,116.12522
1.1872524,122.48501
1.2888851,121.79641
1.2845765,123.041756
1.2600344,123.187454
1.2990272,130.75282
1.3734434,129.3765
1.3582598,131.99037
1.3591412,131.94412
1.4256943,130.80751
1.3981448,134.75871
1.3614693,137.04231
1.3602403,133.97722
1.3148087,134.81172
1.3922238,134.97342
1.3549386,136.43056
1.3408543,137.19751
1.2653294,133.87363
1.249373,133.7163
1.3122514,135.27347
1.153628,135.24492
1.1751405,136.75224
1.2217245,127.80255
1.0346347,128.52167
1.0785685,130.41374
1.0981663,127.168564
1.1151166,126.849236
0.92997235,120.19828
0.9553878,124.8285
1.0865678,121.74399
1.0071622,123.30549
0.9345676,119.70079
0.9532765,118.11144
0.8873207,119.01691
0.9826386,117.83284
0.98967546,116.66722
0.91452193,110.9109
0.8819339,108.1432
0.88293076,109.969666
0.86659074,105.505165
0.9214232,107.33443
0.8133393,103.752716
0.7612176,104.17158
0.72034866,100.66322
0.8044671,103.341446
0.7401739,99.28478
0.6698325,98.818596
0.5912566,96.146866
0.62972903,99.16818
0.5663165,92.98712
0.5114265,94.64035
0.50083816,93.38063
0.5029302,90.01917
0.48472717,87.59685
0.4217809,86.73637
0.51821774,85.82914
0.48908955,84.57951
0.42353803,83.542725
0.5282716,82.51699
0.4192328,78.80837
0.45084372,77.1487
0.4808822,75.692505
0.40538466,77.0977
0.50156254,75.14464
0.41406545,75.32243
0.47044927,75.89857
0.4021554,70.07066
0.35221213,73.69024
0.33986408,72.68877
0.33252618,73.64891
0.30895394,72.62456
0.226476,70.55799
0.1797073,72.816895
0.17570712,71.21576
0.11832493,73.71943
0.19199704,71.91664
0.024005309,76.62133
0.13422245,73.59373
0.043444872,80.417274
0.10363459,79.526924
0.123886034,78.43629
0.26673418,80.73387
0.22908583,85.19552
0.45172328,87.68618
0.45399275,88.34572
0.48373103,92.46645
0.6397687,92.504616
0.7366558,97.85853
0.764579,100.33768
0.86053604,99.39538
0.93715316,107.33183
1.074253,107.53517
1.1532483,107.44887
1.1574911,109.80727
1.1806369,115.18357
1.401173,112.98414
1.4019324,118.48238
1.4415671,121.18645
1.5458393,124.61266
1.560857,126.751015
1.5096276,127.473206
1.5514971,127.860054
1.6662472,129.68501
1.6525378,129.47375
1.596612,129.36057
1.5274504,130.86409
1.6530442,133.57486
1.6283761,136.45041
1.5832697,136.08102
1.625822,134.24425
1.6914672,136.87648
1.6241628,138.14034
1.5817882,135.22984
1.5424709,134.44322
1.4600866,134.41731
1.4871204,133.09265
1.4397336,130.88222
1.4472246,134.74757
1.4240602,130.93523
1.4308028,128.73764
1.3655995,128.98048
1.3943142,122.40487
1.2582765,130.57854
1.3337207,120.62716
1.2764953,122.02549
1.3310034,117.54883
1.3268021,116.56139
1.2575657,116.53154
1.253655,116.17777
1.1522855,114.227745
1.2329497,115.08298
1.2586985,114.16512
1.1612068,111.91276
1.1244427,109.00323
1.3214988,106.575615
1.1676564,105.965416
1.2249031,105.38237
1.1985763,102.04963
1.1412588,104.93964
1.0861338,99.66315
1.0579438,98.74405
0.99873877,100.89491
0.9332058,97.817444
0.9018971,93.257614
0.87882763,92.27127
0.8498071,88.51358
0.76997846,90.23465
0.7949925,90.04601
0.6514247,88.73254
0.8259483,87.77654
0.7353194,83.11416
0.8146893,81.92531
0.7380004,81.93718
0.762492,77.1481
0.81299186,79.903786
0.7420513,77.01411
0.75717807,76.637856
0.7653172,79.79166
0.68676925,75.48353
0.6695028,75.84503
0.7731466,70.72051
0.6980697,75.36848
0.6617826,68.06132
0.5838227,73.088745
0.74567443,71.86122
0.6026652,70.17388
0.52220774,72.41998
0.4769679,68.30355
0.46437216,70.30118
0.3930745,75.64446
0.4190085,76.37133
0.41327098,76.94567
0.4522413,75.1826
0.4053086,77.36928
0.49167803,80.89528
0.59704983,77.78463
0.589984,82.94961
0.66371846,83.42727
0.7228757,87.628174
0.8232201,88.716
0.80423754,93.11595
0.97246224,93.284935
1.1465493,97.38248
1.1160219,100.73271
1.1834666,103.26321
1.2609335,103.72885
1.3766596,112.893585
1.4066823,109.67809
1.5225618,110.83958
1.527874,116.28937
1.6477982,114.210754
1.7845699,122.50097
1.6924925,124.43589
1.7930083,124.847015
1.8377881,120.79756
1.9180208,128.18369
1.8761389,127.58093
1.9923425,128.05255
1.8542082,134.52145
1.9650471,130.90215
1.9276061,134.52287
1.940889,134.94968
1.9701428,132.42958
1.8320364,132.89981
1.898097,134.18913
1.8750646,135.54474
1.8530011,133.72794
1.7979707,134.90764
1.8380826,138.5948
1.7388706,133.30608
1.8901266,131.8452
1.7440865,134.61778
1.7656893,131.40706
1.6343356,131.48393
1.6985157,127.79268
1.6051944,127.5435
1.5855981,124.675766
1.5561702,125.72327
1.5066707,122.736145
1.6228021,119.76162
1.5421057,122.63303
1.581527,119.87247
1.4728259,115.11175
1.5177068,114.41693
1.3845645,117.34801
1.5114263,109.34934
1.5244483,112.57089
1.5159581,110.72339
1.5347339,111.33675
1.4097469,109.66106
1.4300201,105.588356
1.3645866,104.047806
1.343584,101.92063
1.3115067,104.757355
1.212917,100.265
1.2479295,96.11847
1.2182881,95.73612
1.2084152,98.406334
1.0912992,93.47974
1.0588177,91.71114
1.0416685,92.32323
1.0136803,91.52164
0.9681643,89.91227
0.9724668,87.29776
1.0310128,86.189644
0.95468324,82.38182
0.91134584,81.31001
0.96824086,83.20071
0.987311,79.83453
0.94975406,83.70573
0.91406566,77.80581
0.8666121,75.70876
0.9232195,77.27949
0.937942,74.409645
0.87732583,72.86887
0.86058336,72.24532
0.86896676,73.25466
0.8329992,70.31759
0.875748,74.2905
0.8025652,71.76443
0.7780034,71.88086
0.62711316,73.00351
0.57618636,71.07691
0.5888696,71.75226
0.6099272,76.94688
0.46746686,74.383224
0.552546,73.967575
0.5223788,76.11412
0.5839268,77.30066
0.5152768,78.848404
0.5965179,83.840004
0.679597,81.19039
0.7533859,87.82445
0.83747584,88.92962
0.85850054,87.58294
0.89792275,91.86116
0.9130146,91.75397
1.124129,95.59593
1.0478913,99.03791
1.1979705,100.99512
1.3424398,103.68024
1.4840559,106.86172
1.4034504,108.977196
1.56155,111.4069
1.624834,115.63859
1.730859,115.51071
1.6934011,118.67154
1.7191365,122.24463
1.8356898,125.63501
1.9163636,127.98168
1.8142676,129.03944
1.8591573,127.68093
1.9105247,132.65622
1.8041927,133.60098
1.9201635,134.34575
1.9347526,131.93555
1.8365518,133.85828
1.8601832,135.33115
1.8647656,135.26254
1.870451,136.9319
1.7916348,132.17628
1.8254396,135.82086
1.7431277,134.18417
1.7911849,135.23914
1.803912,132.25862
1.6814446,130.1901
1.6474688,133.86002
1.6591759,133.263
1.614429,129.96437
1.5631623,127.69655
1.5332682,130.43867
1.5108823,123.20037
1.534724,122.99578
1.4002135,123.15941
1.468843,123.90578
1.3663112,123.08697
1.4529692,120.18842
1.3599094,114.84441
1.4039328,117.63146
1.4846281,115.52175
1.2778474,114.6578
1.3836858,110.36612
1.3404883,108.13713
1.3745989,110.71244
1.3129739,104.187805
1.2717326,105.63354
1.1909217,107.947266
1.2349963,104.53254
1.1433558,102.0365
1.1962291,101.717766
1.1075785,102.38658
1.0690558,98.24071
0.90901935,99.04676
0.85920745,98.48348
0.95240057,92.904236
0.9487754,92.73273
0.8801605,89.32206
0.8604681,87.705986
0.84211653,85.16987
0.7081231,81.4813
0.79950005,82.19463
0.7387691,81.47028
0.7203192,82.39838
0.60531616,80.51991
0.67984647,78.82142
0.68306845,77.73514
0.7462018,79.77208
0.69444126,78.43851
0.707531,72.93668
0.6422677,73.45939
0.62419415,73.82496
0.6194525,72.960075
0.54475254,71.73429
0.52619135,70.608864
0.47523662,68.36219
0.45434734,70.31367
0.27662522,68.952545
0.31929022,72.81791
0.3912563,71.87397
0.27692887,76.63133
0.20993575,69.777855
0.30342492,76.12503
0.25601986,76.428925
0.30088586,75.89683
0.31213328,80.509476
0.3022854,82.65779
0.28891698,82.44005
0.4242723,86.074036
0.577875,83.32637
0.55458945,89.81147
0.6435954,92.07293
0.75647205,93.46799
0.85593826,96.05419
0.8706381,99.946335
0.91704464,102.04736
1.0783403,105.05872
1.1105535,111.28957
1.2152843,109.929596
1.2353313,108.87453
1.2897687,114.81805
1.2527069,116.88345
1.4050285,121.61039
1.5017555,119.29874
1.562666,121.75837
1.594316,122.689926
1.5943313,125.23321
1.6068895,128.75348
1.4980022,129.95833
1.6060008,133.10638
1.549219,131.33067
1.5539973,130.46332
1.5875449,134.32744
1.5308112,135.75858
1.5059766,134.38562
1.4862094,134.6035
1.4459022,133.21361
1.4972179,136.26125
1.4757891,133.28874
1.3550112,131.34889
1.3927245,133.41087
1.392981,131.57368
1.344685,131.9557
1.3856804,131.50752
1.2667035,129.66905
1.1807048,125.250916
1.1500998,128.25626
1.1454704,126.16332
1.1142787,123.42207
1.0716484,127.3291
1.163897,121.83659
1.1011597,120.00834
1.084429,122.641014
1.111382,115.5826
1.0450091,118.114914
1.0614957,114.71762
1.0615809,115.25597
1.109782,113.73199
0.9812402,114.68596
0.9673316,106.5208
1.0002856,104.651024
0.8857626,110.61593
0.899026,108.74998
0.7648517,101.630066
0.8151914,100.98346
0.84407425,99.89876
0.60881084,97.4695
0.65103847,97.02984
0.67331487,94.95602
0.5815956,95.514366
0.52627724,93.90681
0.6424665,94.77849
0.47157207,86.52409
0.4519519,89.42962
0.45889914,88.96069
0.39053783,83.55078
0.3911772,83.24743
0.35506523,84.41214
0.45794132,79.66047
0.39475363,78.95601
0.3968961,81.70411
0.3772482,77.95391
0.37094745,78.051895
0.43447268,74.52292
0.44295573,74.77951
0.2973488,76.735466
0.31068698,74.03208
0.30076686,72.305534
0.21077156,71.55972
0.20788631,71.75969
0.10620794,69.17884
0.12191129,76.44425
0.09843652,70.59127
0.061547082,69.42262
0.10635847,72.667694
-0.036968783,73.37016
-0.049502254,74.038605
0.026612692,77.78357
0.06632033,72.92872
0.048274767,76.9012
0.0668022,78.85273
0.062918365,81.74543
0.06461633,83.419716
0.1119984,84.767136
0.21809737,88.06415
0.3646547,90.79668
0.40938434,89.64838
0.38817364,95.091125
0.6260072,98.14699
0.5956301,103.36068
0.74530566,100.47127
0.7696424,104.73054
0.9173115,108.04756
0.9564669,109.97693
1.0075027,113.61629
1.1169753,114.72252
1.1392249,115.49467
1.1363585,118.791084
1.1195698,123.72025
1.2641811,123.9114
1.2988788,124.87556
1.2160488,128.14766
1.2388287,130.40343
1.352934,129.69165
1.3895828,128.34642
1.4145899,133.26105
1.3628073,135.92001
1.3828862,135.5272
1.3150219,132.46962
1.3074988,132.2265
1.3636178,137.77853
1.3888482,134.2546
1.3361219,133.14441
1.343965,134.77417
1.2391876,134.06914
1.2669176,136.00177
1.148253,131.73097
1.2586021,133.75125
1.2291677,134.34125
1.1655699,129.26212
1.1779191,125.85724
1.1445457,128.6921
1.038362,127.61854
0.9586179,122.71127
0.8910134,124.17595
1.0055991,123.4381
0.9182157,119.80203
0.8741405,120.29424
0.91585946,117.59802
0.93245775,113.858574
0.9267437,114.01379
0.9437911,114.22668
0.80945265,111.613754
0.82022846,112.015465
0.81785494,109.2019
0.77350754,109.57194
0.8835451,105.41034
0.7334399,102.46885
0.811101,103.00003
0.77706707,101.38626
0.7239933,100.086365
0.6520275,97.15929
0.58091193,98.023445
0.5529702,95.46598
0.55354065,91.62999
0.5132941,97.21527
0.5534862,90.66994
0.46448764,87.16802
0.34864616,89.139984
0.4739271,82.993935
0.3749436,85.02803
0.35484496,84.16931
0.34186983,81.14357
0.36349526,80.06517
0.28226525,83.185005
0.44245055,78.83016
0.47597778,77.0173
0.30904987,79.60367
0.37175626,78.24153
0.24009998,76.895294
0.29418796,74.51842
0.36870936,68.68262
0.22124921,73.856415
0.35588884,71.26501
0.26425424,72.22161
0.12636678,69.677956
0.13752235,72.91078
0.106279515,74.22919
0.044282053,71.249054
0.06814357,72.60264
0.108139135,71.88774
0.09030429,76.9441
-0.051926814,74.61048
0.01378104,76.47971
-0.035749547,78.52773
0.077612594,82.880714
0.28405887,80.247025
0.1425202,87.606995
0.21390466,88.45743
0.4075231,88.401024
0.3406611,90.73689
0.4541219,89.44789
0.46041092,97.33553
0.6997589,97.7513
0.7737608,99.71758
0.8265289,101.33473
0.94045544,105.194374
1.0366646,109.69939
1.0639613,112.825775
1.2053499,110.527916
1.1440605,111.613144
1.3145232,116.43854
1.3016428,114.4134
1.3750147,119.87098
1.4676709,125.74913
1.5280349,128.418
1.4952979,126.86856
1.4817358,131.24844
1.4164324,128.5869
1.5927413,134.95087
1.5208507,133.17561
1.4467179,133.98131
1.5342898,136.19582
1.485267,134.78105
1.5717669,133.39528
1.4821689,134.43309
1.5388945,136.59535
1.4204084,135.73477
1.4672498,136.11272
1.4695705,133.54655
1.4906923,132.3367
1.3960783,132.56676
1.2882295,129.59833
1.2819148,131.9483
1.3052101,130.80933
1.338152,128.63593
1.2454752,132.23996
1.2225438,123.87902
1.2420881,123.962456
1.1423676,121.47075
1.197458,124.98584
1.2735834,120.10329
1.1183928,116.91722
1.0252597,115.72518
1.138096,118.86014
1.1158861,115.09455
1.1031047,114.45896
1.1788594,113.782684
1.1344168,108.18308
1.1153735,110.50483
1.0773127,108.37311
1.082287,105.14566
1.0312344,103.42867
1.0870781,102.86548
1.0194329,101.42775
0.9680227,101.14101
0.9135573,99.23723
0.8951565,93.55949
0.89700323,94.078514
0.81461173,96.83493
0.7950823,93.91062
0.7866553,91.39342
0.80714,88.6233
0.66708213,86.246994
0.66296685,84.3596
0.6944256,84.94
0.7457807,88.09488
0.7654779,83.19103
0.65646714,79.82164
0.7307845,81.17623
0.6212503,80.48385
0.611141,76.15484
0.6477459,77.71776
0.7452247,73.053276
0.70089346,73.50171
0.6537706,75.02779
0.63924724,74.1698
0.6146322,71.211754
0.5492403,75.95324
0.5440398,70.62963
0.55989975,67.7552
0.3898156,71.555885
0.49107584,76.3692
0.284614,70.9472
0.47154278,73.32225
0.40969336,71.888596
0.38395607,76.87716
0.4358714,75.70577
0.34388694,75.51279
0.37407845,78.821106
0.44654754,78.27693
0.4024369,82.00126
0.426349,86.144264
0.5299136,85.92226
0.61849177,86.1294
0.71993613,91.44056
0.85618085,92.83194
0.9113039,95.281395
1.0223575,98.79427
1.010367,98.20897
1.180488,103.281815
1.3319945,102.917984
1.311901,109.60318
1.5313306,106.992455
1.480052,111.844315
1.566255,114.6286
1.6816047,121.627174
1.7006892,120.44596
1.7182639,121.50783
1.7512885,124.60435
1.6861902,126.150635
1.7686411,128.35287
1.8454378,129.17624
1.8836621,130.58488
1.9365548,129.96843
1.865452,131.28548
1.8539174,133.166
1.8843241,133.46457
1.9778454,132.69923
1.8254145,137.58739
1.8380923,136.54175
1.7821583,137.6683
1.823877,137.90071
1.8388709,133.57225
1.7979933,138.1994
1.7340368,135.05959
1.8172221,133.59976
1.6192961,133.40909
1.6396999,129.34407
1.6792719,127.04575
1.5887277,132.11887
1.5876698,128.68303
1.5908453,125.77282
1.5464008,123.16957
1.5748562,122.982254
1.4696232,118.434586
1.4759724,123.05342
1.5170072,117.51247
1.4554888,116.5103
1.4286672,116.42111
1.4325643,112.11352
1.3571702,114.813034
1.5138752,111.475685
1.3954512,107.891785
1.3493867,110.58417
1.5138408,105.90129
1.3234661,104.60759
1.3177735,104.71019
1.2857041,104.82877
1.2144792,104.001686
1.2558947,99.10756
1.2084453,94.34473
1.1831887,101.21894
1.0861734,98.96869
1.0681814,95.44645
1.0288109,93.66024
0.99465394,96.41683
1.0453554,94.25261
0.9173961,91.70031
0.94531053,85.13985
0.9866165,85.46882
0.9496276,85.53017
0.88391465,82.701744
0.9058915,77.73159
0.91720784,81.15168
0.86957175,75.36271
0.90089685,77.955444
0.87408566,76.934586
0.89098144,81.1738
0.92218715,76.000206
0.8547591,76.29623
0.7195698,75.13679
0.8719523,73.143364
0.7588412,72.74805
0.78680825,73.73971
0.75091064,69.37729
0.66123855,75.96487
0.733907,72.467545
0.5895478,70.3429
0.5898617,73.29251
0.60169035,72.84289
0.48981833,74.24233
0.56849384,74.030594
0.53658986,77.11712
0.5880565,76.22153
0.6397726,77.31205
0.5741016,81.45191
0.7642489,84.06915
0.7170846,81.58124
0.77980703,87.582146
0.9931136,87.27438
0.88826686,90.33529
1.1200861,93.31481
1.1057085,98.09429
1.2385542,100.03233
1.4169179,105.47174
1.352587,104.00282
1.4482117,105.40573
1.5900759,109.216835
1.7114879,112.03699
1.668617,116.007645
1.8093385,115.01075
1.7138337,122.45037
1.7824686,120.31546
1.8870593,124.2029
1.893318,127.94314
2.0001342,127.22182
1.8947182,131.60815
1.928417,127.37749
2.004368,132.12535
1.8818747,135.13892
2.004109,135.36111
1.9655329,134.5468
1.9585637,132.1784
1.9028708,135.15285
1.8555475,133.81575
1.8513362,134.80954
1.7722423,134.5635
1.829673,132.95792
1.7468756,135.75621
1.8083214,131.21016
1.7980591,130.19052
1.7809389,130.24765
1.7451898,130.00888
1.6634598,125.39397
1.6012933,128.40129
1.58631,129.94012
1.6031613,125.74354
1.5193276,123.668015
1.5483257,122.66723
1.4465714,119.288536
1.5536369,121.05108
1.4541066,117.07653
1.4116458,117.068756
1.4838727,115.98217
1.5086539,109.704765
1.4457265,116.25488
1.434252,111.49695
1.3647889,110.44775
1.3507854,109.40765
1.2235467,110.71115
1.3160208,103.86765
1.268024,103.01385
1.3318518,103.32944
1.2202235,99.84289
1.1298181,101.723145
1.1044371,94.951584
1.0019262,96.06289
0.96477216,96.3505
0.97648114,94.727394
0.94890934,92.33946
0.96487296,91.463005
0.8893313,89.69249
0.9026321,91.934235
0.8576352,88.130646
0.8718086,85.861145
0.89766914,84.37777
0.80623305,84.35339
0.81257886,82.80857
0.8127838,83.398926
0.8260055,81.24537
0.8689685,81.95358
0.70253783,77.81693
0.83223826,76.22985
0.6834316,72.846634
0.7561536,72.31962
0.6945467,71.503586
0.6538586,71.10203
0.71150964,75.57214
0.6437877,71.5578
0.57246,71.223114
0.52676624,74.45518
0.45293114,71.2776
0.38309193,72.91221
0.45451352,72.437996
0.34911665,68.99339
0.30426422,76.2464
0.40888116,78.01192
0.35237107,80.146225
0.3856678,77.676796
0.28283498,80.06875
0.4878386,81.345024
0.47068945,81.65617
0.45865402,85.22972
0.577565,86.139824
0.6419075,88.865005
0.7345329,95.60621
0.9209844,92.76519
0.9584072,99.48307
1.0469447,103.03671
1.0912715,103.06153
1.2315514,107.17939
1.2823955,104.131775
1.3608383,111.61002
1.5043495,113.83928
1.4621543,118.59585
1.4999516,115.33635
1.5756391,123.203064
1.7017195,119.10761
1.5777767,125.773254
1.6168255,122.75919
1.6126456,125.63961
1.661101,126.99052
1.684887,130.0015
1.7245188,129.67055
1.6624829,135.75024
1.6754467,133.15245
1.5825539,132.33447
1.6515414,136.5214
1.700331,132.70926
1.6796132,133.27054
1.6395135,131.89076
1.5692677,134.70482
1.5568507,135.22797
1.5217497,135.03917
1.5885404,135.20113
1.4313797,131.1449
1.5257174,130.84042
1.4244342,131.38962
1.3582578,128.00696
1.4046205,128.66289
1.1982725,127.08188
1.2082089,126.70101
1.2393838,124.63165
1.2485971,124.31725
1.1609889,122.81292
1.168833,117.19642
1.1484135,118.010155
1.1653438,117.37862
1.1706923,113.76208
1.0440378,111.31033
1.1564469,110.11783
1.1067836,110.94401
1.0079803,112.37827
1.0281012,106.66745
1.0132589,102.67895
1.0238675,105.826866
0.92193586,103.75543
0.9297825,100.15494
0.89132136,101.50576
0.8786963,101.2989
0.8007232,98.88817
0.72378594,98.28813
0.61520296,94.159065
0.61501294,96.13307
0.6916739,89.99308
0.61956674,92.13028
0.44901204,91.231964
0.51253897,87.83527
0.47078472,88.32538
0.45993528,83.74623
0.5287241,86.10997
0.5248598,81.74306
0.49292773,84.58357
0.48350155,82.245804
0.42215726,81.083275
0.41425,73.64114
0.470518,76.94374
0.48975533,75.807915
0.4276504,71.50658
0.43498737,74.71861
0.3711026,76.07897
0.30095986,71.32478
0.32433453,68.93207
0.25599828,72.144
0.23354244,73.229385
0.19803339,73.219025
0.11975373,72.278015
0.13521035,74.70916
0.042551573,70.96495
0.10993514,70.73775
-0.009362423,69.92172
0.03184468,75.24158
-0.12423437,77.45864
0.03051721,77.94761
0.07074967,81.30892
0.068343535,81.4817
0.17610845,82.724724
0.19974618,87.83257
0.2952233,86.75111
0.3627452,90.09392
0.39260486,93.220276
0.51098704,95.41228
0.6527361,100.01603
0.7132629,100.79831
0.80479527,105.265305
0.9043561,104.84289
0.9332621,105.80165
1.0304111,109.753296
1.0435047,112.322044
1.053999,117.82752
1.2526374,118.32307
1.2948651,123.479385
1.3278906,126.29649
1.2880002,124.24982
1.3432611,126.09903
1.3702525,125.54054
1.4218886,128.25847
1.3879218,134.66808
1.3501222,132.71281
1.409006,132.40315
1.3691912,132.3187
1.3842064,133.00243
1.3625127,135.18056
1.3532797,131.52269
1.3452094,133.73424
1.2340299,136.42944
1.3574715,137.2246
1.3107282,136.07132
1.3048936,136.70354
1.1940583,136.79094
1.1705894,132.66911
1.1647464,128.55376
1.1304532,132.96884
1.1195729,128.16089
0.98000777,127.46459
1.1327695,127.674164
1.0340439,127.047775
0.9868888,123.52915
0.9480198,121.22272
0.9117179,117.9645
1.0097086,122.91233
0.9323671,119.156876
0.9058361,117.040924
0.8922833,115.84936
0.96152216,116.74171
0.87846226,112.81125
0.89862025,113.21407
0.88487697,109.407196
0.9093605,111.88533
0.92665315,107.973495
0.7972962,107.25854
0.7130176,103.759346
0.77897024,99.58554
0.7412918,101.06894
0.6542698,100.66726
0.6242037,98.49715
0.5488884,98.59362
0.52904546,99.1201
0.45579588,91.92929
0.5057863,90.31097
0.47263482,89.146324
0.35307068,90.50204
0.43377754,88.72284
0.31492788,85.92057
0.35340106,87.199036
0.34136838,81.45981
0.34210876,83.37682
0.36344475,80.4865
0.32441312,82.94507
0.35069165,80.44358
0.35600156,73.86479
0.30296078,77.494965
0.3167723,75.30237
0.25726017,74.29233
0.32138455,71.802444
0.24646063,74.83506
0.1928942,69.445816
0.18654078,70.87178
0.21024694,69.75008
0.10776011,74.99938
0.10789072,72.12276
0.04917287,68.91199
0.059738178,74.867455
-0.0137452595,77.09796
0.00984048,72.77665
-0.0030156244,79.68282
-0.074303366,74.57808
0.0008255337,77.01802
-0.030250864,79.44551
0.121215545,79.695595
0.09383721,79.38925
0.10465005,84.792755
0.11318229,84.84484
0.27051234,89.51443
0.40536723,90.32531
0.39112118,94.92664
0.5065953,93.98434
0.59769845,102.22874
0.67860645,99.74713
0.82409984,105.35207
0.8486017,105.25667
1.0030849,110.05241
0.91680986,110.359985
1.1342894,111.374146
1.2387435,116.9281
1.2607887,118.17655
1.2040613,119.38961
1.461817,123.873634
1.3291557,127.0214
1.4064287,127.52272
1.3422607,130.52618
1.4530655,132.70044
1.4885769,133.50041
1.4350327,132.39331
1.3905123,129.40532
1.4366921,137.15237
1.3898226,130.3631
1.5099843,135.35095
1.3930166,132.03094
1.400173,133.26122
1.5012143,131.55003
1.4366322,134.40799
1.3367718,133.72438
1.4377508,133.78021
1.3459786,134.06474
1.3182111,131.55577
1.2061976,130.47871
1.218241,127.99789
1.2316889,130.19357
1.2157756,126.72326
1.1336136,123.69223
1.1526983,124.99415
1.1166245,124.59031
1.166303,122.37164
1.1029062,119.6989
1.0942194,117.08605
1.1004143,115.32495
1.0020589,113.07635
1.0589334,115.64671
1.0880069,116.21239
1.0790253,111.305885
1.0465442,111.78368
0.9773494,113.90855
1.056491,105.79672
1.0003664,106.475
0.9552876,105.23915
0.96254647,104.69009
0.92666036,102.35084
0.9513903,102.33828
0.7564903,97.40578
0.7311677,101.42879
0.7535473,94.11188
0.760988,94.73523
0.7329697,93.13781
0.64722615,91.83092
0.674034,91.937195
0.6637212,87.52661
0.63429475,89.30456
0.64465696,86.57508
0.5462732,87.88261
0.58031124,83.80343
0.5240417,83.47696
0.6194097,83.302536
0.57101595,78.2601
0.628181,74.61251
0.61296296,76.77972
0.5952959,75.600624
0.50507253,71.409874
0.60463685,74.89912
0.62970316,73.76832
0.60870105,70.18758
0.5392848,75.93978
0.4739379,71.69837
0.43016154,76.51855
0.40787545,71.21454
0.3881461,73.658676
0.33706367,69.499466
0.26248875,72.63105
0.2252332,73.78084
0.27961668,73.436554
0.28546888,76.49108
0.15559345,74.64814
0.29931608,80.43834
0.25626233,79.194305
0.37559852,79.769714
0.37510502,79.718735
0.4611223,82.95843
0.38542008,89.29536
0.6119014,84.675995
0.7294443,93.38737
0.77376246,94.24606
0.7516521,95.810394
0.92505777,97.18549
1.0496289,102.60541
1.1091143,102.50716
1.3260746,106.14635
1.3062738,109.57847
1.4028265,111.51945
1.4126314,110.40872
1.561046,116.67654
1.62069,117.26631
1.5743178,124.90467
1.5799245,124.78211
1.6000084,119.88858
1.7132736,129.5023
1.7249297,127.90888
1.7017796,130.04031
1.8014292,131.81393
1.7845846,132.02127
1.7922245,129.8813
1.8096325,133.07466
1.7320908,136.09036
1.7826599,134.90277
1.7395666,134.12926
1.7141033,134.28964
1.721238,130.92674
1.8051573,133.0399
1.683811,131.69186
1.718376,133.00754
1.7092546,130.87134
1.6247132,129.45796
1.57388,131.4524
1.6196947,129.58678
1.5615803,127.72565
1.5378561,126.61957
1.4771414,128.72661
1.383483,125.97513
1.4832358,123.97305
1.4728404,125.800865
1.4379776,123.15805
1.5019263,120.40679
1.4481301,119.21017
1.3836961,115.68451
1.3905519,113.49131
1.4004488,110.142235
1.4503479,112.45407
1.2792302,110.61377
1.3868805,106.296974
1.3692136,109.51485
1.414173,107.23299
1.3276117,104.24777
1.2268105,104.23379
1.2615411,103.25861
1.26771,97.36551
1.111521,98.03852
1.092263,96.20212
1.0876116,96.96204
1.0706568,94.40613
0.9939388,97.12706
0.9872437,94.623405
0.9610241,91.35839
0.9825571,91.749916
0.95323807,89.12441
0.9069703,89.32124
0.9440946,87.85524
0.86214924,91.067764
0.8836869,82.324554
0.81227684,79.17865
0.85328615,81.552315
0.88477355,81.10465
0.97810936,76.5183
1.0021881,78.58644
0.7373294,72.31303
0.8668485,71.3685
0.80512524,69.5939
0.8188321,74.37488
0.8414193,71.782425
0.8159644,71.27127
0.843141,73.14785
0.7723337,71.88257
0.7237944,72.47139
0.6256247,72.68591
0.6068939,70.15403
0.53609157,73.09315
0.55078614,71.48316
0.54769427,75.22968
0.46789604,77.64475
0.5502691,77.92359
0.60597146,76.3305
0.51162416,79.86266
0.594299,82.82511
0.657709,84.705574
0.75076514,87.665115
0.84646183,85.597145
1.032698,88.85237
0.9499279,91.56423
1.0969875,99.88249
1.1080586,96.26321
1.2631477,100.22443
1.3610306,104.45698
1.3583373,104.831924
1.5243973,111.44174
1.5493006,110.81674
1.6796106,111.361626
1.681322,115.53959
1.7394196,120.11511
1.8909565,118.85345
1.8724375,125.16037
1.89436,122.92904
1.806035,127.84104
1.9595046,128.39723
1.9185679,130.65613
1.9355705,131.80498
1.956891,133.23495
1.9488342,134.09743
2.005624,130.57372
1.9165841,135.65291
2.024567,134.648
1.9913908,134.20549
1.9775356,134.10555
1.9021304,132.1579
1.8934664,138.03247
1.777546,135.86775
1.8570266,132.24638
1.7922761,133.50728
1.7082814,127.91823
1.7547373,129.56088
1.7384988,127.783066
1.6840059,129.19716
1.6165068,128.55434
1.6411974,127.6264
1.5868515,125.40064
1.570807,123.83605
1.5675769,123.14574
1.6055259,119.2225
1.5264462,118.74031
1.4840612,119.72476
1.4107167,119.45498
1.5374373,116.11716
1.4816834,112.28919
1.4827964,116.53779
1.4551841,114.30723
1.3534281,112.16947
1.4398721,104.33132
1.4993424,107.43564
1.421351,105.77136
1.3551841,104.50766
1.2748004,104.43515
1.2895225,100.46297
1.2376494,96.79273
1.2019695,96.57489
1.1156822,97.712395
1.1286452,95.008896
1.0591594,93.073906
0.9387807,93.856544
0.91533166,92.52157
0.89009815,90.17297
0.9337898,90.48204
0.9038375,86.02888
0.96872854,83.44294
0.8473068,83.14151
0.77640945,84.09547
0.87844205,81.36122
0.76664424,77.47777
0.86769176,79.55376
0.916502,78.056755
0.83256024,76.92628
0.8956197,75.72941
0.8079882,78.300156
0.8430105,74.824
0.8259559,71.192
0.6673171,70.23155
0.8043282,70.72933
0.6249025,70.9265
0.6354842,67.889595
0.53779125,71.74617
0.47221476,67.65558
0.42823094,70.98623
0.5134502,74.92421
0.47855815,75.90694
0.4093293,71.74013
0.42437404,79.68878
0.48446247,78.54765
0.427149,82.580215
0.5427076,81.30331
0.54483104,81.71864
0.53247774,87.27126
0.702486,87.3426
0.7227778,90.34904
0.73165774,89.461494
0.9825981,95.84551
0.9911973,95.74987
1.0413241,96.17523
1.0724745,101.423775
1.1964825,105.964905
1.2885311,106.3003
1.361773,110.43973
1.4510272,111.77529
1.5062848,113.2093
1.5045402,119.80244
1.5966793,121.05867
1.6380495,120.03047
1.7181487,124.97547
1.6576991,124.21829
1.7509522,126.22596
1.741775,128.96251
1.673497,128.69682
1.798975,133.62567
1.7387851,133.5425
1.8015996,133.20256
1.6984022,133.5323
1.7471946,134.30234
1.7995625,135.18721
1.818526,132.95181
1.7901702,133.76753
1.7679063,135.24728
1.7482255,133.14053
1.6271217,134.64029
1.6076158,133.92879
1.5665033,133.56279
1.4870014,129.95102
1.4446784,131.74306
1.3983526,129.16344
1.488936,129.94772
1.4447485,126.146065
1.4486388,127.45267
1.385317,125.39665
1.2835615,123.35506
1.2668135,124.6133
1.2186042,121.499306
1.3223784,119.473236
1.2022609,116.683525
1.227206,112.94998
1.2871351,115.24583
1.1747397,115.44518
1.3182681,113.27066
1.2058932,110.10157
1.1967325,111.157135
1.1341841,107.67122
1.1363331,104.535484
1.1355679,105.86585
0.941057,101.09584
1.1013397,100.87631
0.9483291,101.83005
0.88549644,99.03717
0.8276822,99.21329
0.8973191,97.2943
0.89733577,97.32655
0.7631525,97.335815
0.77979994,94.493805
0.6802437,87.99309
0.6783576,88.587
0.56451124,85.77637
0.5411687,84.49125
0.55083334,84.06605
0.57894546,83.40798
0.59479684,79.04326
0.6340053,86.004456
0.56653315,81.33601
0.4833231,79.04938
0.4995235,75.14981
0.56904954,75.66503
0.47690007,78.27754
0.5194468,71.38892
0.38167223,73.76828
0.4392923,72.863205
0.42604256,73.7816
0.4071189,70.95307
0.33725965,71.853874
0.35952967,73.19054
0.26210576,72.52453
0.18587261,70.57874
0.16767973,70.38166
0.105970435,75.2823
0.124843284,72.83862
0.18575808,70.03578
-0.0245815,75.08475
0.12770851,78.33572
0.11682576,76.17533
0.21562614,77.009285
0.27898186,84.41853
0.32992542,84.95937
0.30310646,83.92475
0.27422842,89.26365
0.42408067,87.93593
0.62031496,94.42374
0.6499434,95.948166
0.81775343,99.678734
0.8490591,102.11825
0.88511205,99.79935
0.8798032,104.29815
1.0195234,106.397095
1.0352625,112.4692
1.1488435,111.31485
1.1492316,117.90362
1.3194209,120.94469
1.3315115,120.610344
1.3499621,120.580185
1.4401104,126.08913
1.4485394,125.94788
1.3867314,126.04491
1.4156345,130.30759
1.4451551,131.0498
1.4426819,130.14062
1.4371233,132.4677
1.3290755,133.71457
1.4429659,134.39223
1.365649,135.22752
1.360216,135.2996
1.3160189,133.89854
1.3123758,133.93456
1.4195907,135.21313
1.3311146,133.94572
1.2343143,131.4301
1.1788176,133.5627
1.2809728,132.35834
1.1719062,133.57927
1.1401726,128.8526
1.0768735,131.64679
1.0496904,125.55532
1.1595199,125.16884
1.0512412,123.98635
1.0312389,125.76993
0.9693733,122.212425
0.9247648,121.64499
0.95459384,117.65236
0.9221488,115.77967
0.96486795,116.24319
0.916154,114.6208
0.9775077,113.28771
0.8426007,113.73971
0.94606674,113.1305
0.97549796,105.96576
0.84510136,109.40216
0.8443675,108.314445
0.81141776,105.37171
0.7298984,103.551476
0.73637336,98.92716
0.64972633,99.957855
0.6896915,99.924515
0.5623638,97.00961
0.5923937,93.583336
0.565725,96.20058
0.5051777,93.93152
0.4866007,91.58193
0.41497594,87.61826
0.40647873,89.7412
0.42285162,85.05011
0.3540847,89.363976
0.3034385,81.99151
0.4202031,84.48755
0.39082652,82.84661
0.33277372,83.09413
0.26423925,83.330986
0.31468683,80.24494
0.36284843,76.92689
0.37210345,78.05623
0.2929472,78.09497
0.26978397,69.64308
0.27086833,72.243576
0.27210984,74.02562
0.19773467,72.62483
0.17164358,69.95486
0.17286608,71.20205
0.09814761,71.46092
0.02906027,71.558235
0.018316286,69.829346
0.14045846,70.96781
0.017556584,73.54478
-0.04784821,73.26643
-0.0152388625,77.250465
-0.13604428,76.6215
-0.05671005,76.95098
-0.07116321,81.19955
0.04130445,81.82469
0.015509137,82.088776
0.13496663,83.05795
0.1468408,88.34591
0.34508136,87.79714
0.33530656,87.94793
0.45704755,94.68304
0.53381926,95.25284
0.61317915,98.93434
0.71249753,99.882576
0.7094253,104.19991
0.86220574,104.17627
0.96554863,110.22818
0.9244447,109.34224
1.045888,111.86407
1.148633,115.40994
1.153186,114.1719
1.2570573,124.449715
1.2971666,125.4321
1.3409114,122.78878
1.3430748,131.13817
1.3394742,130.35487
1.413297,129.69405
1.2760541,130.71878
1.3573936,130.812
1.418334,131.62881
1.3559691,134.13626
1.3561827,133.2677
1.4159015,135.06876
1.3967023,137.10648
1.332375,139.38026
1.4007385,131.22902
1.391069,134.0451
1.2352846,132.95596
1.2937168,136.66292
1.2816846,132.03038
1.2580247,132.8069
1.113986,133.55386
1.1646401,127.79403
1.0857583,128.05437
1.1185864,125.08821
1.0462655,124.28207
1.1116788,125.621445
1.1335016,125.42152
1.0750978,118.64996
0.99153006,117.55415
1.0199051,114.89186
0.99177855,116.86286
1.020407,114.42549
1.0474395,112.6392
0.99601996,117.1706
0.9326356,110.8869
0.92546874,109.78031
0.97105306,110.4189
0.97496945,108.02195
0.9337233,105.09684
0.91725725,102.720116
0.8382041,106.223045
0.93467236,102.83328
0.73416084,99.25198
0.77751637,98.24535
0.8485385,98.20524
0.64937854,95.64796
0.6547832,94.46915
0.6286902,94.6877
0.6145185,92.48095
0.5625836,89.31309
0.53968334,93.420135
0.5730436,86.43815
0.49127522,87.090935
0.43903914,84.70429
0.55675447,87.0335
0.46156517,80.913445
0.52493894,83.12167
0.53768307,79.586296
0.5251666,75.777534
0.45312634,76.440895
0.4678876,76.99678
0.48236528,74.936005
0.50132227,70.72155
0.42146647,75.93659
0.42766985,73.00137
0.4602198,72.31082
0.4284208,70.835236
0.34912682,73.726234
0.39913598,73.16785
0.2473674,71.28844
0.30964518,69.17169
0.26916128,69.832275
0.25856084,72.17304
0.15916952,76.248085
0.09242939,73.81383
0.169811,75.467804
0.099513106,79.53955
0.1716376,74.51844
0.19014725,83.82309
0.25915083,81.95984
0.4006647,82.22498
0.46396595,89.79144
0.5494774,92.95273
0.61962366,91.16542
0.7459367,93.18191
0.6569144,96.45162
0.9046219,95.71194
0.9970142,104.76756
0.99774647,105.20565
1.2355521,103.73167
1.1797305,109.221344
1.3139144,117.46934
1.3846506,115.17682
1.460367,115.048065
1.4679693,122.37164
1.4432468,118.66591
1.5578128,127.39411
1.5210443,126.54251
1.6060956,127.233154
1.6122907,130.31018
1.6527123,127.78057
1.6649011,132.03967
1.6542293,132.53949
1.6704786,133.92441
1.735188,138.94786
1.7472728,134.82225
1.6539968,137.81001
1.7371889,133.0385
1.6471332,135.74118
1.64982,132.85841
1.5907043,135.54028
1.6390316,130.23827
1.6642833,130.90965
1.6405638,133.54553
1.577421,134.37662
1.5722392,131.11633
1.4885297,128.56308
1.5142546,131.06258
1.3568449,124.81189
1.467694,124.80169
1.3764175,124.98788
1.3288711,126.167114
1.397029,124.18585
1.4316517,122.1741
1.33058,117.61732
1.2317734,116.49537
1.336161,117.46157
1.3853827,114.201805
1.357335,113.38418
1.3367234,109.62322
1.2883173,110.675934
1.3090771,109.51475
1.2417186,105.71423
1.3141112,108.16693
1.2350727,104.994705
1.1835347,104.61322
1.1115013,100.32348
1.0911151,102.77841
1.0304286,96.031975
0.9337056,98.75062
1.0924323,93.22992
1.0223264,92.85856
0.91016054,94.085205
0.92254215,95.0152
0.9471199,88.51995
0.803217,87.28464
0.9028121,86.07178
0.89985603,83.19523
0.85727376,85.812225
0.73846114,83.85414
0.8031943,77.45295
0.8041818,82.16428
0.91863406,79.63831
0.92846,77.822655
0.792577,76.99118
0.81116277,69.844734
0.6829359,73.90459
0.75083935,73.57279
0.8268106,75.96594
0.76223767,71.794235
0.73824817,72.05225
0.74350613,72.598785
0.6373698,71.76705
0.6588741,68.824394
0.6136818,76.91575
0.59053946,70.74754
0.5152088,71.075935
0.48796782,73.80284
0.48460996,75.00343
0.4455412,75.41323
0.4909751,76.06101
0.45321062,78.824554
0.47185358,82.077194
0.54315895,83.19993
0.5833144,82.93413
0.62211305,84.93316
0.73376626,88.60865
0.80439216,88.83667
0.80087787,91.15615
0.9649139,91.73123
1.0148307,96.90588
1.1993304,95.14364
1.3017048,101.93346
1.378278,103.6668
1.4716078,104.215576
1.5710621,110.967255
1.5384362,115.89452
1.758038,113.59842
1.8159466,118.51012
1.7540767,120.38664
1.7530538,122.56115
1.8080498,125.71897
1.9423379,126.1236
1.944186,125.51748
1.9348536,126.85334
1.9438978,128.63503
1.9921681,129.4401
1.9723355,133.98003
1.9374242,134.19905
1.8649806,131.59752
1.9661375,136.1744
1.9670918,137.50746
1.8774914,132.24051
1.9398168,136.87354
1.9573096,136.87839
1.8079472,133.96945
1.8015653,136.30519
1.8217112,130.47043
1.7565217,129.72363
1.7836566,130.17052
1.8048588,129.14005
1.8087063,129.65344
1.7467082,128.33418
1.6438566,125.515
1.6937771,126.94008
1.5837616,128.06216
1.5086076,119.59051
1.4803814,126.03869
1.5479864,119.9068
1.6197543,119.846725
1.4780283,118.29809
1.4406018,114.357765
1.5511912,112.7851
1.5760301,112.51657
1.5401725,111.25488
1.5262157,108.43999
1.5339161,108.63025
1.4138151,110.63247
1.4698757,107.0689
1.4053392,103.51375
1.3719319,107.67724
1.2377434,100.26356
1.2549864,100.26908
1.3168153,101.05214
1.1690922,99.08196
1.1905166,94.43611
1.1716956,90.852196
1.104415,90.56164
1.0001991,88.9349
1.046593,89.18636
1.0279229,90.04162
1.0004138,87.83742
0.8618541,88.15552
0.91502416,86.67299
0.88091373,77.93371
0.92885345,84.086365
0.910395,81.030495
0.9412434,79.67518
0.87173146,78.6796
0.77432585,71.892265
0.8137344,75.375786
0.9097303,77.11762
0.8520265,76.90498
0.90054065,69.216225
0.8600824,70.88657
0.8063035,72.81972
0.70558476,73.53303
0.66045284,69.82147
0.6683928,75.6002
0.5997913,73.35842
0.64129853,70.292076
0.5403216,71.81423
0.5147166,72.96533
0.4831081,75.177666
0.5722769,71.896225
0.47034878,77.33144
0.5404952,75.33656
0.50883466,81.84882
0.5701844,76.699135
0.61119944,83.98601
0.66260034,86.29711
0.7211735,88.65127
0.70189196,92.25192
0.7748335,90.206665
0.9629354,92.58379
1.0609955,96.4591
1.1981589,101.05265
1.2349629,103.3311
1.3456538,104.62149
1.36777,109.14489
1.4869645,111.114784
1.5420223,109.44303
1.559208,111.62468
1.5521599,116.99297
1.6513458,120.04773
1.695103,121.26021
1.8105112,120.880905
1.7723031,123.548004
1.8178253,124.01384
1.7792246,127.17476
1.8261153,130.15703
1.8541607,132.21025
1.7464807,132.44037
1.8823011,134.03749
1.8196828,132.19682
1.7965463,134.89484
1.8373083,134.09027
1.8247284,135.58308
1.696351,134.72627
1.8278346,134.9851
1.761401,133.23122
1.7266966,132.80856
1.6664212,136.15265
1.6030749,132.65594
1.6219789,129.70697
1.5921354,128.1218
1.458438,134.26537
1.5353425,130.1824
1.4540515,128.16594
1.3364466,127.49881
1.4655434,128.00275
1.4820757,123.090866
1.3440083,121.30117
1.3439091,121.16272
1.3731632,121.22648
1.3872272,116.75446
1.2954607,118.06289
1.398561,115.7556
1.2296894,112.45588
1.27919,113.60853
1.2928654,108.33585
1.2569363,109.66606
1.1945554,106.65397
1.2276883,105.77247
1.154588,103.46214
1.1136297,101.84508
1.1436977,106.911896
1.1185937,102.577225
0.9863413,97.32899
0.98704696,95.75938
0.8877047,93.75411
0.8376157,92.69054
0.85370415,93.285
0.7457216,91.95214
0.89706296,92.084854
0.5681648,87.341675
0.76784545,87.848
0.7448551,85.12107
0.7084619,82.61792
0.58550876,83.13493
0.6337993,79.18562
0.5977745,84.76691
0.56754684,78.52247
0.61332613,77.39011
0.5282701,80.48718
0.68737394,80.38566
0.5280511,71.677185
0.58721334,74.402916
0.57937187,74.23806
0.43810236,73.50766
0.4376908,72.45287
0.45939508,71.885414
0.4045078,72.02302
0.3980213,72.20796
0.32532707,71.17635
0.20831817,68.83464
0.20810111,72.81607
0.16057433,72.1771
0.0964404,77.78644
0.2640012,72.161415
0.2023303,79.15742
0.21067384,76.29246
0.29201832,80.91754
0.32414523,81.855034
0.2898396,82.556656
0.42053914,88.42431
0.4461059,82.34163
0.4268389,87.43529
0.59578305,90.392
0.7379138,95.50559
0.7870814,99.7126
0.88768065,101.96521
0.97981447,100.959206
0.9225053,105.45244
0.9692056,110.43389
1.1013029,110.50049
1.1298404,114.164894
1.2726679,117.16818
1.2843511,115.121155
1.3407819,119.16709
1.4404342,124.304405
1.5059845,122.53688
1.4689301,126.52361
1.5020188,124.85616
1.3942386,126.976135
1.5360091,131.62321
1.5802269,130.65007
1.5163862,133.47554
1.4792253,136.06499
1.4597114,134.48402
1.4936167,136.59627
1.5299945,132.40594
1.4526708,134.8435
1.4339142,134.64009
1.4665074,137.42087
1.2731808,129.5266
1.3303019,136.12025
1.3788446,133.09903
1.3118751,131.46194
1.2799511,133.91371
1.2219406,130.20285
1.2336626,131.34308
1.1264184,126.005325
1.1005981,124.333084
1.0848147,128.39848
1.0738568,121.64355
1.0290447,123.10681
1.0368832,127.1326
1.1224747,121.856384
1.0287025,119.03609
1.0330905,115.23283
0.9360759,116.975525
1.0269426,114.35454
1.0658964,114.24007
0.9347417,110.37631
0.9675652,109.54098
0.96865374,109.32131
0.9307347,106.49717
0.88852185,105.667366
0.8290003,104.33512
0.8622633,104.77762
0.7433407,101.26686
0.70323753,97.75964
0.64408344,97.73475
0.688027,94.38556
0.622255,94.00994
0.6225463,99.12356
0.555675,94.65654
0.45081392,90.54759
0.4646521,91.50278
0.4328317,88.17057
0.46372056,85.290474
0.43228066,83.06516
0.32975465,82.11971
0.4332849,85.384636
0.42265046,86.02402
0.39776236,80.25316
0.4722441,80.513954
0.43970954,78.04621
0.32862347,78.97598
0.32112035,75.53397
0.3475625,74.130295
0.33731213,72.72694
0.26841328,78.354996
0.2150838,72.670105
0.2688461,69.126015
0.16737093,72.5718
0.19153999,71.64307
0.18566783,70.15189
-0.025196893,73.90654
-0.013496687,74.87857
0.02368986,74.28012
-0.009443061,74.30852
-0.061078504,72.602295
0.0036581545,73.01015
-0.0072719674,77.29044
-0.08863764,74.029396
0.062604494,79.52305
0.037934672,80.95561
0.15837009,82.5816
0.10781154,87.60211
0.23407358,87.21248
0.3149619,87.557434
0.37482136,90.11018
0.4587642,96.13625
0.50189126,95.97205
0.7046492,98.15619
0.7401288,101.26257
0.7473437,104.38494
0.8478178,106.93273
1.0089861,107.00123
1.0955849,111.37772
1.0358862,114.76063
1.1157961,116.52015
1.1874304,122.921074
1.2863019,119.93984
1.2560432,126.727455
1.2713022,126.38811
1.317668,129.94482
1.3520207,129.46997
1.3228639,131.18158
1.2687368,131.02568
1.367316,131.52603
1.3788595,131.09558
1.3803422,136.55315
1.3465192,134.8874
1.3841388,136.3614
1.2641767,132.32985
1.2840368,132.67166
1.3043545,135.0604
1.2386894,133.10599
1.2750443,133.6378
1.2637279,136.28847
1.1936388,132.04683
1.211671,132.38013
1.172537,131.39412
1.1272616,132.01656
1.0935998,128.68805
0.99004364,126.37203
1.008758,124.789185
1.0804434,124.47161
1.0064088,123.86214
1.017494,123.81806
1.0494927,121.182594
0.97555536,120.48131
0.9369077,116.52157
0.9451335,116.77045
0.84728885,114.70086
0.85645056,111.21103
0.914196,112.09706
0.8567678,110.33444
0.9250021,111.03464
0.9421783,102.74646
0.90904003,105.16171
0.8510555,106.09836
0.8581125,105.63325
0.76594937,102.15965
0.7235947,103.51424
0.7056353,97.924355
0.68185925,99.991135
0.60064906,97.98521
0.5369671,92.44257
0.5235399,89.139885
0.52832484,92.62536
0.40817225,90.69318
0.49070442,89.48244
0.3898564,89.61616
0.37023297,82.963264
0.37936258,83.89828
0.36256298,85.57998
0.42392635,81.78427
0.42600182,76.74708
0.29722044,75.51858
0.4399475,78.8365
0.43809274,74.861305
0.42281508,79.084854
0.33234027,70.409386
0.32741153,74.28786
0.44736543,74.58055
0.4234878,72.09958
0.3308534,72.806564
0.35383683,73.60197
0.33252278,71.61483
0.27987045,68.10905
0.23604506,72.83338
0.13048644,73.03803
0.15761155,72.611885
0.06391842,73.56653
0.08989936,74.78292
0.058573846,78.42384
0.0976697,73.20972
0.10137971,80.964554
0.11659466,82.01446
0.11577942,80.98053
0.25868595,82.636444
0.30935147,87.64343
0.4006562,86.44758
0.43380085,87.6169
0.5706495,91.888756
0.64928955,95.98476
0.80626476,100.20676
0.8810552,98.283966
0.7564989,102.60709
0.9894253,101.792496
1.0306638,106.29355
1.2193077,107.623726
1.0924995,112.68007
1.2680315,112.9487
1.429721,115.93022
1.3387887,119.55181
1.5189378,124.08724
1.4879673,120.42539
1.5362811,123.53555
1.4438599,125.062
1.5493793,128.37143
1.6902044,129.67447
1.5613163,132.14911
1.5778956,132.5819
1.5299443,133.40662
1.5205262,137.43422
1.5421389,131.69347
1.5595613,136.04805
1.6068784,138.67244
1.5395553,136.98596
1.5894943,131.78809
1.5126601,137.29332
1.4651811,130.7879
1.5278745,130.98438
1.5512062,129.54237
1.4764875,134.38838
1.4492824,131.77402
1.412999,131.80788
1.3820266,130.31592
1.2806512,125.710976
1.3767198,126.131905
1.3865649,123.32507
1.2230865,119.39449
1.2761786,124.10699
1.3842471,115.73009
1.2094188,118.97772
1.2675335,118.177246
1.2690022,113.54727
1.2838677,112.55991
1.1855335,114.32309
1.1444715,112.31194
1.212405,109.26189
1.2862555,108.04376
1.2477198,105.40045
1.1709384,105.150536
1.1578759,104.30384
1.0732576,105.697174
1.0493263,107.48517
0.99088085,99.354546
1.0200953,100.86807
0.9529812,98.317856
0.9575132,92.18917
0.9757574,92.84644
0.8404573,91.79971
0.8806692,94.38359
0.8517598,89.579285
0.77915394,90.35898
0.74382615,90.341255
0.7277151,87.28838
0.7598684,84.371635
0.6992026,80.24491
0.7322272,82.54366
0.72411966,81.89961
0.72658885,73.33731
0.79272544,77.07208
0.7655519,76.60687
0.76559514,75.44442
0.7823849,74.1849
0.6722268,73.309975
0.704467,70.98908
0.6688019,73.91661
0.6324281,73.57634
0.60589874,68.48858
0.54814357,70.77659
0.57385194,72.55045
0.41548413,72.53782
0.5139393,74.59602
0.44419494,74.25074
0.48483783,75.06547
0.43619257,74.904
0.4565243,77.91334
0.43549412,78.06034
0.4281588,79.02573
0.4583984,79.75346
0.52244943,80.29976
0.5952915,79.1012
0.60890496,91.4672
0.71144134,87.098946
0.7376427,92.06092
0.9191879,91.93166
0.99958766,96.970726
1.1074873,97.5455
1.2006171,102.46169
1.2331744,106.84479
1.3393277,104.2724
1.4188391,105.4523
1.5624015,108.37996
1.4730611,113.807816
1.6300975,113.34142
1.7362149,116.53393
1.7011895,117.46694
1.8352789,126.84229
1.8518118,125.455055
1.8453379,127.78683
1.9567014,125.09675
1.926481,127.97364
2.048678,129.92032
1.8081666,130.38815
1.850813,131.8353
1.988735,131.69133
1.9450452,135.50423
1.8262062,132.03674
1.8134159,135.34409
1.9349451,136.06151
1.9541919,134.74367
1.8906314,133.14197
1.8679248,131.52057
1.8028148,134.0588
1.9144684,132.34169
1.7563804,130.06009
1.7294904,131.54343
1.6274705,128.20905
1.6645442,132.32968
1.6961045,128.16328
1.6473308,128.54953
1.5126625,127.65927
1.4995736,122.36207
1.585467,118.07822
1.4721642,123.98976
1.5657585,117.50709
1.5108271,119.937515
1.5041336,112.04416
1.523988,116.72477
1.535073,117.67349
1.4859878,112.66918
1.4818337,111.94112
1.5047414,110.37035
1.4813296,107.6752
1.400834,108.425354
1.400601,104.339355
1.4349148,106.098335
1.3773481,103.051796
1.3180399,102.41061
1.2113072,100.549034
1.2943547,97.17824
1.2113477,92.42359
1.0976855,96.73424
1.1884834,91.4174
1.0472587,93.922585
1.0654131,91.872444
1.0656254,89.60136
0.98379266,88.27542
0.98983514,86.42964
0.96079767,87.43166
1.0075676,83.00711
1.0008546,81.673836
0.9036295,80.69009
0.929064,77.51913
0.9081852,79.59103
0.92440957,72.86746
0.87271607,78.92859
0.89580715,76.88792
0.92002726,74.34273
0.8756382,75.45886
0.80982786,74.6621
0.8028825,72.047035
0.79313225,72.99548
0.76995504,72.47728
0.64429826,69.65602
0.66673136,70.420105
0.75982445,71.370735
0.5998621,73.05878
0.6720282,74.04214
0.5966749,73.1187
0.59276205,74.65637
0.5672379,78.023415
0.51325977,78.2363
0.5447034,77.722885
0.5432111,73.41335
0.60206884,81.011986
0.652283,82.79091
0.7452141,86.88121
0.7584767,86.2782
0.82943445,90.024574
0.9658579,89.23246
1.0438443,94.303
1.1504284,95.63437
1.1581538,99.49081
1.2937526,104.60323
1.3694456,104.75982
1.5174679,105.86999
1.5268707,111.08694
1.6494429,115.203316
1.7579646,116.815994
1.7116628,121.98153
1.7477596,121.44182
1.783215,120.832504
1.8565989,124.71334
1.8274877,125.951706
1.9594669,125.08303
1.8654302,126.27565
1.9150757,133.74399
1.956726,134.28401
1.9485747,132.65482
1.8858004,136.69345
1.9675664,134.81267
1.9182104,137.23769
1.8447591,135.70952
1.8070331,135.9179
1.9061565,134.13525
1.9091616,136.02303
1.8196067,134.70523
1.7204471,132.9993
1.670981,132.00648
1.6757536,132.97473
1.5968189,127.700455
1.5878336,127.089554
1.512358,128.1816
1.6054862,129.57196
1.5685887,130.13416
1.4971927,128.56396
1.454767,124.79859
1.4374844,122.53601
1.4334344,123.65596
1.5025088,119.821304
1.4722569,120.0442
1.3736159,115.22255
1.3649994,115.28828
1.3591988,114.57589
1.3004123,111.7103
1.3192362,106.64316
1.3929894,112.07433
1.263164,109.96425
1.2271407,109.28159
1.2635114,107.032036
1.1970012,100.750465
1.1937724,103.865776
1.2328498,104.13087
1.1474477,101.56712
1.1073602,102.09501
1.0378644,95.57666
0.93720335,92.7029
0.96037096,94.170074
0.8783245,91.01065
0.9158683,90.68428
0.87111783,93.72488
0.96691376,89.77038
0.8339331,85.16297
0.8227566,84.86103
0.806534,82.56049
0.72137207,83.88762
0.76496255,83.9214
0.7483136,80.33499
0.7172375,77.29958
0.7280196,77.81478
0.5905568,76.99181
0.72765267,76.26736
0.7183231,77.02266
0.7543189,78.410545
0.7072281,69.13438
0.5094703,71.68376
0.56638026,71.660164
0.52264696,67.11871
0.5705757,68.97046
0.47612697,70.95591
0.37032798,74.59956
0.32950348,72.995155
0.29136476,71.12524
0.30313593,73.440094
0.32759872,72.325294
0.2817994,75.89107
0.2456788,76.61681
0.33295265,78.6917
0.31200576,75.39965
0.22233419,83.840485
0.4094648,83.21212
0.413803,87.8473
0.58806044,89.0541
0.67273486,89.45272
0.7425611,92.97327
0.7673161,93.191055
0.76233244,98.638954
1.0238918,99.16025
0.9830289,99.84018
1.0881927,106.6832
1.1761591,110.51133
1.1993686,110.06857
1.3098707,112.35721
1.3768348,117.95095
1.3881516,120.205765
1.473948,119.36597
1.5344535,122.2177
1.4789858,120.96738
1.5270959,127.140274
1.5412399,127.90386
1.5549873,129.85818
1.5447031,128.68542
1.5507711,132.44624
1.6163363,135.24428
1.6620033,135.00528
1.6451154,135.04196
1.635036,134.3459
1.5912359,132.9805
1.5419523,136.87204
1.5965737,134.24086
1.5495948,135.7991
1.5648305,131.7819
1.3497242,137.59964
1.4626389,132.98929
1.2908942,133.91914
1.4188018,127.214935
1.2648429,132.05338
1.2532977,128.19489
1.2550776,127.15408
1.227174,125.1067
1.1581173,125.72787
1.1530273,124.911865
1.0706947,121.1968
1.0053629,120.51882
1.098026,118.28674
1.1278232,116.37185
1.0463864,117.37454
1.0522437,115.44014
1.0352291,113.88155
1.0958328,109.78063
0.943123,107.798096
0.9525379,107.321915
0.99246234,109.52494
0.9210418,105.60831
0.93388444,108.45128
0.91979504,107.509224
0.8912365,99.6386
0.85081804,99.10969
0.69889134,98.98411
0.72069955,96.193085
0.7132768,95.32157
0.6887051,94.11964
0.603635,97.745636
0.63301545,94.02199
0.558064,92.02851
0.4424251,89.83063
0.49217257,88.71343
0.4744853,85.28197
0.38847053,84.62622
0.4324012,84.32486
0.47045174,78.91678
0.35560423,83.50568
0.44581136,78.02543
0.31996664,77.0529
0.34513247,78.02073
0.41446373,74.85005
0.36174232,70.85042
0.37172967,75.962166
0.29083014,73.73916
0.34239092,72.23251
0.42669278,73.74203
0.22004963,70.552895
0.1850018,71.141396
0.25252318,70.25805
0.18657891,73.632454
-8.326117e-05,73.47847
0.09885111,68.549965
-0.001992566,72.10363
-0.027700067,76.51781
-0.06934336,72.85876
0.06639027,76.17538
0.015555131,77.802
-0.07411929,80.57724
-0.043477032,79.97923
0.16108517,78.90353
0.053748183,83.65254
0.21015069,85.08554
0.22000949,86.02944
0.272939,85.984856
0.45800817,91.76159
0.5003836,96.10076
0.54022366,96.21843
0.7200617,100.77985
0.7948463,104.811775
0.8079332,104.369225
0.9279773,107.667786
1.0085039,110.66919
1.0655087,114.12205
1.0950412,117.307205
1.2124908,120.50352
1.2440368,119.52679
1.1705828,120.58233
1.2916807,119.697685
1.3056058,126.65224
1.3881658,131.81996
1.379042,129.96239
1.4602239,131.5738
1.4360018,132.49043
1.42446,132.37093
1.3769608,133.28142
1.4387518,135.92444
1.3972483,135.41385
1.3315214,130.88525
1.2906822,136.76944
1.3424163,137.38362
1.2883519,132.02597
1.2654306,130.90819
1.2143395,132.10013
1.2755522,128.3283
1.2417092,132.36554
1.1594622,130.59804
1.1409786,129.88875
1.0602496,131.08487
1.0847054,127.30425
1.0044991,125.305695
0.92299706,122.373764
0.97449416,129.01987
1.0057517,126.8848
0.9730196,120.66523
0.82372063,120.3479
0.9106636,120.18835
0.8675544,117.03396
0.9251292,119.68459
0.83136964,114.31388
0.8509774,114.603424
0.9013192,109.224365
0.80934125,107.7119
0.88763386,111.54534
0.8668808,106.78639
0.6774845,105.12741
0.75907576,107.49046
0.707284,102.151306
0.6723763,101.282974
0.6916551,98.820564
0.5791036,100.12089
0.67984396,92.250465
0.49253103,95.42778
0.5268502,95.72966
0.45797879,94.245445
0.52471435,89.226746
0.4403577,91.47277
0.43087968,88.58153
0.35045803,87.44078
0.3687265,85.95553
0.29986656,82.210846
0.41842714,82.36733
0.41149154,79.32284
0.38362822,79.96655
0.4773964,77.07308
0.35487866,76.582054
0.26643142,75.37559
0.36703482,73.9869
0.24218768,70.90698
0.34972864,75.83468
0.30493155,75.24422
0.21836296,71.69779
0.34348485,72.89519
0.20654377,72.15238
0.2611403,69.75773
0.19183944,70.48899
-0.02736331,71.64644
0.0553362,68.16958
0.07996619,70.34289
-0.030360809,72.91642
0.0875052,75.580795
-0.011257963,74.62168
0.055758692,79.1272
-0.025836429,78.588524
-0.0096076755,76.9182
0.075453416,83.43308
0.06904011,83.53679
0.19254602,85.22939
0.21155179,84.145134
0.35731828,89.64655
0.57263905,92.35685
0.47591603,96.59705
0.7222524,95.7806
0.74366367,102.91028
0.8573235,99.39864
0.9142681,103.33857
1.0767142,105.487755
1.0552877,112.90039
1.1483922,116.38043
1.1629755,116.4204
1.2095917,115.98901
1.3454937,120.96683
1.3508576,117.83086
1.3848332,122.58485
1.5758039,126.75626
1.4853323,128.21358
1.452108,127.63743
1.5047748,131.4424
1.5687585,131.79779
1.4798697,135.12683
1.5595837,131.9754
1.502747,135.21361
1.5404686,134.67096
1.5394024,139.43219
1.4209739,131.76158
1.4576632,137.263
1.4047114,134.8372
1.4311503,134.55168
1.421006,133.44557
1.3887041,132.86388
1.404208,129.71463
1.309621,131.03914
1.3965667,132.54884
1.4001564,132.1365
1.2537628,125.96662
1.2614892,126.00946
1.1898509,123.33295
1.2097995,124.772026
1.1926042,119.83661
1.1377685,123.669304
1.1749511,119.00449
1.1473161,118.91076
1.0944877,116.627235
1.1521962,116.806786
1.1441164,110.91264
1.0893704,109.888855
1.1659591,108.84892
1.0723716,108.302086
1.1605432,104.698364
0.97576535,105.77468
1.1117723,106.049675
1.0116001,104.16364
1.0124211,103.67627
0.9775599,99.08236
0.91774035,99.9255
0.84218985,102.37229
0.91105735,96.973625
0.815442,92.14548
0.7639882,93.33427
0.74997836,91.45843
0.7057916,92.98089
0.6953791,87.364174
0.66696286,88.821724
0.7442159,88.891975
0.7148303,85.48389
0.58940387,86.29735
0.729327,85.12624
0.63083625,79.45925
0.606176,80.78171
0.6924634,79.14922
0.6657607,75.438614
0.67747587,78.962135
0.6654419,76.41437
0.6099095,71.761086
0.73768854,74.08708
0.55901706,72.5638
0.6044711,69.68281
0.5727844,76.610725
0.505999,73.046684
0.5524404,73.02972
0.478729,72.92774
0.39247745,71.584206
0.42888817,73.03784
0.36837843,72.45812
0.3439771,74.05758
0.28121823,69.59825
0.3715319,73.2502
0.38809827,78.274994
0.433571,77.06814
0.39405093,82.707466
0.41599017,79.80712
0.6553369,83.87807
0.53699064,85.88934
0.6807621,89.19535
0.7627982,93.069305
0.7463392,94.26925
0.8487008,99.26825
1.0208356,100.52703
1.0484078,98.7369
1.2403765,102.32206
1.2865031,104.228096
1.3703847,110.12543
1.4061959,113.078995
1.5654683,114.2809
1.5750229,118.15568
1.600799,122.7235
1.674022,119.172646
1.7101104,118.9652
1.7458096,125.51238
1.77166,126.98638
1.7698854,131.61792
1.7706412,130.48395
1.8019977,129.70564
1.8407942,132.96635
1.7610868,129.38939
1.883474,132.9114
1.8501139,131.43785
1.8717182,134.0323
1.8031423,134.86197
1.9402072,134.9987
1.8416249,133.46426
1.7434636,134.15979
1.7688287,136.1982
1.6362326,133.29436
1.8232055,136.88371
1.7105334,133.45659
1.76807,130.37
1.6113946,130.50465
1.6569234,128.45566
1.5223553,125.56855
1.5253588,125.12819
1.5534813,123.26117
1.5895038,124.70655
1.4609185,123.189445
1.4876953,121.17412
1.4842778,117.95089
1.4658372,122.015724
1.4191983,114.25
1.4584063,115.990456
1.433542,113.06478
1.3213615,111.095184
1.4328886,110.65617
1.437454,110.980064
1.4310089,107.99258
1.3151826,105.99246
1.3666013,107.38605
1.3106947,106.308815
1.2529616,101.744804
1.2900635,103.80009
1.2205924,102.45532
1.1494188,97.9385
1.0667068,98.46853
1.1004815,95.98466
0.99657184,95.820885
1.087404,90.49785
0.99622566,91.927444
0.9374861,88.45819
0.9756705,90.323715
0.93354213,86.45107
0.91249347,86.35494
0.95684105,82.85793
0.96154314,84.43763
0.94080377,83.929375
0.91229916,76.85413
0.99764234,78.02205
0.8572504,74.99349
0.8594801,79.51066
0.9219692,76.47812
0.83945525,73.49223
0.8677316,75.24283
0.86424166,73.93311
0.79130393,72.51821
0.71426874,71.9631
0.76711816,71.458405
0.6966403,70.70703
0.7114498,68.54321
0.5579945,69.47258
0.5661775,74.85315
0.54150516,74.30926
0.52963537,68.04249
0.5435443,75.81115
0.5795349,75.35773
0.5637649,77.19195
0.5382332,76.07204
0.5839548,79.638504
0.6817431,82.46293
0.71658325,85.30928
0.7992869,87.803246
0.85535324,92.10276
0.8691638,93.36224
1.042504,91.88468
1.0775466,97.08739
1.1479641,98.23105
1.2759359,97.69027
1.3800061,104.2418
1.3949043,111.79129
1.4839503,105.54344
1.6066751,111.056305
1.6607226,111.46203
1.7044474,118.0172
1.8016423,115.809166
1.8672848,119.41063
1.806545,118.768394
1.8986546,126.606964
1.8690516,126.06351
1.9305325,129.4865
1.9672594,129.34132
1.9704338,131.9603
1.9147158,131.89452
1.9297601,136.1703
1.9352767,130.40901
2.0063303,132.19734
1.9727578,135.14388
1.8992252,133.8983
1.9285032,132.64151
1.8526444,132.74663
1.9472895,136.48514
1.9690328,134.82117
1.7370745,135.15433
1.757307,132.44629
1.7742289,131.89345
1.7255322,132.79396
1.8396409,129.36229
1.6738648,129.22902
1.6056143,129.6084
1.5437468,130.79805
1.5950685,119.92556
1.6389294,124.24318
1.6293548,123.899605
1.544199,119.14023
1.4841081,119.31981
1.4778425,121.01825
1.5218855,114.57071
1.4182452,116.70895
1.4698869,116.496956
1.5013812,109.28242
1.421601,108.84454
1.4734119,109.8452
1.3770424,107.03988
1.3640862,104.95509
1.3151015,105.81598
1.2833028,103.4372
1.2146515,101.84363
1.2310891,98.935356
1.2040528,95.985405
1.1616281,98.06942
1.1022048,94.12402
1.054739,97.9705
1.0794716,91.93549
0.94104016,96.021416
0.87758785,93.29948
0.97414124,92.76633
0.90957856,88.00831
0.8367085,84.54124
0.9896185,86.87092
0.8627751,86.03009
0.8056035,81.00775
0.9077163,80.242294
0.8472321,80.09326
0.8002981,79.082596
0.7634979,77.16441
0.82463866,75.699295
0.7957533,72.76905
0.7579511,74.3362
0.68881786,77.97041
0.76212174,69.41003
0.6141668,71.38161
0.6968039,72.464096
0.625584,69.14421
0.5987287,69.63518
0.48985523,68.56851
0.47958145,71.33689
0.48300794,75.07736
0.4964505,72.924805
0.40831,73.39263
0.39393717,75.88276
0.40734965,74.54781
0.38813925,77.213394
0.38916934,80.524155
0.37566775,79.48
0.5182623,80.43446
0.53258413,83.85801
0.5525975,84.71609
0.75022376,87.234
0.7417272,89.25804
0.74111754,93.8826
0.8120552,96.20676
0.92662454,95.35447
1.1200104,100.78309
1.1644744,103.31208
1.2232897,107.13947
1.2469491,106.71884
1.3503662,110.3706
1.4838076,114.00391
1.5650682,116.130066
1.5413089,118.70895
1.5538691,120.22248
1.6426138,123.962105
1.611846,123.973656
1.650819,130.36977
1.6550997,129.55753
1.6468577,130.2426
1.6304111,131.90598
1.5990752,133.36394
1.7030039,130.99884
1.6481087,131.5873
1.7158877,133.58269
1.6811448,136.1519
1.7424513,135.39288
1.6141647,133.04721
1.6437076,135.81009
1.5494636,134.17392
1.5927048,133.22511
1.40622,134.73383
1.4153626,134.37813
1.5062526,135.08138
1.4174309,131.3367
1.2924211,128.80338
1.3545427,131.05832
1.3034227,129.11644
1.2606275,128.52359
1.2453498,125.853004
1.2238306,123.308
1.1935413,120.41071
1.249787,124.27941
1.1446254,117.10506
1.1494352,118.11291
1.195299,119.09476
1.0794398,114.3803
1.1895419,115.961136
1.1396662,114.715195
1.0975686,109.124626
1.1044106,108.40956
0.9850219,111.861305
1.0765744,107.27513
0.9591723,103.12224
0.9400654,103.97826
0.9647925,102.46745
0.98152506,100.795074
0.8464648,96.709984
0.81068474,95.96698
0.71596676,97.12951
0.6265285,98.14896
0.72480154,96.594025
0.6385588,91.980896
0.5858429,90.0481
0.57559407,90.571976
0.51890504,89.76116
0.43604976,87.891174
0.43619785,85.8014
0.42997822,84.14733
0.5141794,81.25816
0.5584265,79.95122
0.5023476,81.167305
0.51303834,77.2692
0.39450687,75.65688
0.46968943,76.54167
0.4595907,77.81971
0.4740368,73.237144
0.32981685,70.682236
0.32585928,71.28376
0.32151464,70.650314
0.30449563,70.035225
0.26743218,72.46263
0.23220693,73.010704
0.20307878,71.23792
0.14125389,68.94326
0.101984814,72.577866
0.03414776,71.103516
0.0485655,72.00457
-0.048975434,76.36495
0.13407288,77.984276
0.03513377,77.28362
0.0137914205,80.45208
0.09782618,78.620995
0.11238945,82.301445
0.11730254,89.67364
0.26192346,89.88054
0.34474936,89.45935
0.37632486,89.402664
0.40340194,94.19055
0.5674481,99.6768
0.59628385,104.541504
0.7095537,101.79325
0.8147982,102.58956
0.83196026,106.95404
0.91745424,110.642685
0.9894027,112.89453
1.0762302,116.58726
1.0914314,117.37739
1.1699175,119.72535
1.2969282,121.208145
1.298775,123.66679
1.3843927,124.815216
1.3763546,126.62958
1.3952185,128.82214
1.4004458,130.08958
1.2990061,126.57558
1.427515,133.89236
1.42589,135.20154
1.3548175,134.2594
1.3966457,134.72896
1.3916819,137.84721
1.315581,135.3679
1.4118438,134.17067
1.2873863,133.4876
1.3156799,136.72214
1.2854654,131.95499
1.319605,132.58946
1.1969576,133.61171
1.2432458,134.54324
1.207071,129.6625
1.1237626,129.81644
1.0651097,130.44032
1.0881288,126.62249
0.9749408,127.34169
1.0215882,126.66197
0.9845347,122.02354
0.96018285,118.9135
1.008019,121.484726
0.9506785,120.9205
0.9140576,119.08902
0.88203967,115.68245
1.0106766,116.72645
0.7980238,113.81276
0.90396863,110.38371
0.8388677,110.2366
0.8342628,105.924484
0.74264765,109.77309
0.8132117,106.31365
0.7474094,104.03249
0.8120966,107.43537
0.7661307,104.18264
0.5929751,101.35061
0.7577267,104.25097
0.54355454,96.835625
0.5160122,94.395546
0.5145236,92.8349
0.4650454,96.91517
0.43904388,89.159004
0.37566176,93.66463
0.4069405,92.91831
0.3825147,88.73751
0.32706347,86.87882
0.3983558,87.87816
0.41492096,82.33315
0.38734275,82.74706
0.33229002,79.10501
0.36198628,75.51187
0.29679742,80.22484
0.34288853,78.44075
0.27496564,74.51834
0.31683862,74.74206
0.3134571,74.28445
0.2773606,73.790215
0.27158505,72.99511
0.21729317,74.12136
0.1369113,70.3052
0.06943439,71.168816
0.1729615,73.24619
0.13690014,75.05391
0.07222434,71.86251
-0.0093713235,72.669754
-0.069189295,75.48831
-0.028977253,72.997
-0.03562378,76.68562
-0.065768205,75.50006
-0.09143069,76.53928
0.005815396,77.71903
0.030395456,82.11626
0.10048774,83.155205
0.06488111,85.383
0.19527587,83.85189
0.28798252,89.79326
0.27133897,89.50955
0.45084912,96.47358
0.62491846,96.708435
0.59587634,95.28791
0.74676543,102.14855
0.7969179,104.35358
0.8996581,104.98049
0.98996496,109.75628
1.0582292,109.48934
1.1294942,114.10432
1.162641,114.98478
1.2377613,120.24184
1.3624736,119.70611
1.4179792,120.13464
1.2847512,126.75815
1.356873,125.91104
1.4328924,129.90222
1.4077522,134.873
1.4366332,130.57384
1.5591885,132.94604
1.4694765,134.84299
1.3986212,134.717
1.5021698,136.5718
1.3920815,136.39882
1.4413835,134.80496
1.400486,134.72699
1.4067487,132.28748
1.4046317,133.89815
1.3802013,132.2373
1.4344393,131.09041
1.3671279,131.37015
1.2511477,135.28131
1.2390372,131.82893
1.274649,126.7179
1.2383183,124.68577
1.1572244,127.1266
1.0861943,126.1876
1.1333723,130.10146
1.091374,125.01856
1.0927477,122.58403
1.0916768,122.33022
1.0816097,120.17028
1.1125017,117.490105
1.0573369,116.58831
1.0467569,115.60087
1.0072981,109.5994
1.0248948,117.05097
1.0275658,109.58715
1.0376135,106.48564
1.0824604,107.51803
0.98699296,106.844765
1.0229033,101.25911
0.9495379,101.124725
0.90178955,103.54976
0.8120101,102.03169
0.7697858,98.16159
0.8250948,98.41565
0.9066975,98.965836
0.7082743,94.577484
0.74415517,97.44604
0.62483054,93.39817
0.5759046,94.42354
0.5622387,88.33287
0.62205416,88.80641
0.5228505,85.73436
0.52828175,88.4739
0.64278954,85.75541
0.59765387,81.243454
0.5412069,82.75564
0.63799846,83.04092
0.61763626,79.172134
0.6373755,76.401146
0.50465864,77.30859
0.47216785,73.09126
0.52916855,73.94417
0.50651836,74.91015
0.54648894,73.67282
0.4350116,70.86055
0.48051888,70.18686
0.41855574,71.81252
0.34684676,74.51346
0.3730126,72.97843
0.28234464,71.896675
0.17941144,74.661156
0.24847598,74.29583
0.13810356,77.82872
0.24238084,74.94797
0.32813498,72.63469
0.2628651,83.02319
0.23433462,80.03765
0.22869031,83.48504
0.33354622,84.115616
0.49584487,87.751274
0.48779985,87.859505
0.5892354,91.56631
0.7320512,94.30182
0.6417444,91.501434
0.85789835,96.73858
0.89182013,100.48258
0.99443626,103.86277
1.1929057,105.73279
1.2870597,104.53498
1.3605367,110.82412
1.2919146,111.029976
1.4331566,115.30254
1.482542,114.69627
1.5059694,123.58187
1.6007311,124.385574
1.6224457,124.16062
1.6485217,126.39114
1.6616937,129.72975
1.7561665,130.97908
1.785628,129.82962
1.7480929,131.19553
1.8117583,129.1019
1.7875277,134.63104
1.821524,132.87755
1.8351026,137.07584
1.7089355,135.35645
1.7326015,133.95451
1.6640409,133.16356
1.6885023,134.27072
1.6864475,134.42636
1.7687453,134.77243
1.6652569,135.13832
1.6565235,134.95079
1.6610732,131.49066
1.5583023,130.2455
1.6002526,130.05934
1.5757788,130.34093
1.5094811,125.36445
1.5050944,127.03253
1.547854,123.071266
1.3864878,120.86578
1.5245745,117.92877
1.4952093,119.852844
1.3828197,117.173515
1.486928,120.8445
1.3409369,114.85848
1.3654425,112.82088
1.2996901,112.598114
1.3997016,112.44961
1.4047314,111.94701
1.3289906,109.79303
1.32506,105.717995
1.3236539,106.7243
1.229967,104.700386
1.2330925,101.54024
1.2006121,102.12545
1.1271932,98.702034
1.1677274,99.88299
1.1611958,98.35342
1.1653165,96.53635
1.1085409,93.45308
1.0189277,93.64455
1.0050175,93.14598
0.96592957,94.42161
1.0025198,89.33452
0.91000503,84.93292
0.86314714,82.70109
0.90155566,84.20436
0.9655534,82.81633
0.8573582,80.780334
0.88692635,78.07592
0.79325116,76.61668
0.8902897,75.621376
0.8622832,73.72724
0.78010726,73.2642
0.88335085,75.263145
0.7581139,74.32585
0.84688306,74.309
0.7978214,71.82395
0.7439584,71.9698
0.72547805,71.11259
0.67145914,71.18576
0.70437646,71.370804
0.62135047,67.81533
0.63954467,75.49837
0.577395,67.49496
0.56352234,70.9443
0.53345704,76.24739
0.45717365,73.24281
0.45138592,74.68779
0.59073323,77.85547
0.5262223,79.147545
0.5778596,82.08762
0.5986252,83.98716
0.69449747,89.7183
0.7576756,85.976616
0.8612364,88.55621
0.88183177,93.369225
1.0178266,93.79543
1.254476,96.22789
1.1992369,99.49272
1.330354,102.11635
1.4017876,105.5419
1.4732827,104.73504
1.5685543,108.9197
1.6844138,108.605995
1.6421758,116.100784
1.7551463,118.20479
1.8148756,121.84912
1.8376726,120.70564
1.8176769,124.49797
1.9337717,126.85837
1.9330122,127.92519
1.9275829,128.98895
1.9692636,131.03877
1.9670898,128.45822
2.03158,132.58849
2.040498,133.70602
1.9897866,135.3779
2.0602171,131.99506
1.9170151,133.67427
2.0036829,136.08154
1.8833209,137.3589
1.885948,136.13661
1.8801166,134.42342
1.8822664,134.86525
1.8414208,134.01237
1.8436457,130.63567
1.7675985,131.69312
1.7875257,130.0586
1.7653801,133.30002
1.6038086,127.36768
1.5891409,126.99525
1.6420629,127.12218
1.680905,123.86874
1.6445669,121.54841
1.5689038,120.89073
1.5743604,120.391045
1.4609833,118.63286
1.4395279,116.10368
1.5719184,116.91385
1.5101383,112.62191
1.3953525,113.1274
1.483786,111.89561
1.4717617,109.01552
1.5567706,109.51747
1.3395149,105.09713
1.4529861,109.27883
1.3713449,103.03735
1.3470417,104.72501
1.2751806,100.291985
1.2899442,98.31124
1.1657798,100.53218
1.1468515,100.93546
1.1194633,93.92374
1.0051156,94.85015
1.0988337,93.07749
1.0154403,90.725105
0.9798997,89.92675
0.9831754,91.689735
0.9336701,87.10457
0.8579493,87.5283
0.9173996,85.48584
0.8579632,82.32039
0.9412571,83.995636
0.89930546,81.013405
0.95793194,78.62489
0.8943924,80.68879
0.8901567,79.86594
0.87564355,75.8174
0.7693528,71.19231
0.8133649,72.30699
0.7641025,74.07191
0.7748968,72.41458
0.7554708,72.02402
0.7435627,74.06956
0.66266155,72.9702
0.67937094,72.986755
0.6072775,73.604706
0.5486922,71.70233
0.5511113,72.92418
0.45928314,71.76849
0.44352046,76.728004
0.5868386,74.36709
0.3976246,76.26301
0.46076795,77.70903
0.503998,76.028656
0.5414262,83.016136
0.5690271,81.31959
0.6343658,82.939835
0.75726813,85.97688
0.7309555,92.48815
0.8132944,91.269615
0.95372045,96.04527
1.0618876,97.54571
1.0793115,100.27626
1.1952602,101.50554
1.3321489,106.807365
1.3606529,108.40715
1.427336,109.63492
1.4971516,114.896164
1.5876075,111.33922
1.6594752,118.3826
1.6830211,119.30273
1.6691396,121.14305
1.791296,122.00567
1.7159368,125.789185
1.8527974,127.54139
1.7005464,130.69437
1.7733891,130.22278
1.6800003,133.51004
1.7203752,134.42107
1.7743788,135.08005
1.7804933,134.36528
1.7938573,136.4417
1.8266184,134.11162
1.7467523,136.57397
1.7472907,133.2436
1.6518645,133.687
1.7192222,132.86009
1.637506,137.36542
1.5867211,135.5476
1.6251386,131.14267
1.580943,131.04692
1.6271485,128.84103
1.4819562,126.60889
1.4089773,128.34477
1.4287449,126.24659
1.3790098,125.393845
1.2615608,126.44761
1.3734273,124.643456
1.2926384,123.35923
1.4062387,119.29407
1.3137153,118.16917
1.331159,118.250404
1.3351438,114.73576
1.2420279,113.96237
1.2209579,117.51996
1.2669238,114.165436
1.1641406,111.48066
1.2085987,106.10889
1.1687386,108.20338
1.1261532,109.81107
1.149489,108.07634
1.0512984,105.56003
1.0454205,103.30652
0.92683715,101.73801
0.8996185,97.66631
0.89927876,101.51407
0.84114516,96.748314
0.8266821,95.66259
0.7090593,91.05681
0.7930019,91.3203
0.7117843,93.34297
0.55421567,89.44685
0.5786951,87.54986
0.53911835,85.443436
0.57243806,81.52755
0.5419939,83.682686
0.4983014,79.11593
0.5440297,80.352005
0.52578646,77.015625
0.6575056,74.50534
0.5726893,75.05351
0.58553725,72.44216
0.59040296,72.187805
0.56598306,72.693794
0.41744483,72.218475
0.47415322,74.22616
0.33865246,73.793205
0.34814155,72.21142
0.35191715,71.65498
0.32944384,70.06528
0.27942064,67.861244
0.15925103,71.54287
0.2284137,76.313484
0.20659696,71.84811
0.06455204,75.74766
0.10712142,77.39909
0.19325218,76.705475
0.1627819,75.15246
0.17798862,81.67776
0.18851843,81.81146
0.23756234,81.89719
0.20749193,84.92396
0.31708485,88.23231
0.33007714,85.80256
0.5815686,89.237595
0.58132994,92.85132
0.6809977,96.19915
0.6883659,103.04671
0.8391488,101.865974
0.8761358,107.483665
1.0452055,109.08518
1.0894248,108.86387
1.1410394,112.23391
1.2787896,114.85577
1.3137709,112.49889
1.2895087,118.32028
1.3465568,120.808945
1.2351758,125.37979
1.4388652,125.40941
1.3764861,126.02638
1.445324,129.32968
1.4037619,128.83002
1.3015627,129.48686
1.4371406,135.62183
1.474091,134.56215
1.5359142,138.18254
1.4572028,134.49117
1.4423574,135.97481
1.4310305,130.4041
1.3320965,134.56886
1.4401366,136.3192
1.3095162,136.08717
1.3621391,129.58487
1.2771832,129.73926
1.3204416,131.67938
1.1539264,128.0762
1.1988268,132.54277
1.2396201,129.81697
1.1416948,131.40558
1.1446863,128.18513
1.117915,123.28231
0.9988731,126.76086
1.0530823,122.02242
1.0471196,120.397026
0.90901136,120.272484
0.9620313,118.627625
0.98057145,119.219315
0.9709073,112.4208
0.9027144,111.3511
0.93554723,117.755455
0.9479353,111.52001
0.8663493,110.425766
0.8055385,111.146324
0.7643446,109.54979
0.82685614,105.94367
0.87999815,104.76434
0.75935316,106.59492
0.74987125,96.93879
0.6664621,98.513115
0.63951385,97.08888
0.6464931,95.43078
0.556281,94.01898
0.49072853,90.82363
0.445782,93.86453
0.500872,89.89055
0.481319,92.1911
0.40193775,89.057655
0.25958046,87.79168
0.24674127,85.77472
0.37922361,82.50105
0.30459756,84.310356
0.37651718,79.684
0.35686934,79.300224
0.42954344,79.25315
0.32126185,78.22105
0.38573992,76.74748
0.27898172,77.203125
0.31309354,72.15412
0.25281057,75.18801
0.2658179,74.229515
0.32224482,73.71898
0.17163849,70.9793
0.10723249,67.997635
0.1233017,71.56153
0.104333654,70.79449
-0.05187917,71.33832
0.096466616,69.83364
0.019052679,74.39115
0.030961128,74.365944
-0.025648376,73.153145
-0.07222563,75.04769
0.011667075,74.60386
-0.06678541,78.08678
0.06916724,78.987854
-0.040543504,79.833786
0.10682495,80.71028
0.0943539,85.34597
0.2969456,87.84005
0.24948798,86.074905
0.4207533,90.38992
0.4301717,97.055664
0.48694488,95.17151
0.61553526,103.261024
0.74291885,99.7515
0.7736268,107.310234
0.8551181,111.205894
0.9205601,110.36206
1.0003717,110.09499
1.0209208,115.10955
1.1144695,116.044266
1.2019935,122.3015
1.2989106,122.72925
1.3127035,122.01684
1.3677703,123.2692
1.2247878,128.17273
1.4338466,125.02588
1.4100375,129.1072
1.2952565,132.06485
1.4236137,134.0446
1.4062384,131.75317
1.4053414,134.38492
1.3774871,132.43837
1.4389668,132.97156
1.3252606,135.09221
1.3697958,135.27159
1.302269,134.16571
1.2326612,135.99356
1.2082299,133.00217
1.2352316,130.27693
1.2500154,137.19258
1.2537436,134.27707
1.1386808,128.68358
1.1997432,129.07034
1.129733,128.38794
1.1894333,128.8962
1.0984908,125.26298
1.1200641,123.26955
1.077662,125.020966
0.9815192,123.52822
1.0177515,116.38789
0.9851909,121.96874
1.0392895,120.86151
0.9708738,116.38579
0.9379628,113.033325
0.96112937,115.21941
1.044636,114.2172
0.952724,104.80468
0.9181759,104.30988
0.88571864,106.67438
0.9283873,103.62504
0.861568,102.67443
0.7512702,106.924576
0.7590244,100.05402
0.7112725,99.39598
0.7496954,98.44708
0.712843,100.35986
0.63785464,96.37224
0.6157577,95.292465
0.5781061,90.95024
0.49788478,91.791695
0.5304493,90.5098
0.47243604,89.800316
0.6214746,89.03093
0.41974208,88.777275
0.36012697,84.32569
0.43287393,84.18771
0.4861333,81.34644
0.4361363,83.38884
0.4671803,80.49742
0.4330078,77.01994
0.5469597,76.9027
0.5365007,74.665436
0.50114495,73.07582
0.3951331,73.21732
0.3960595,72.19113
0.3355814,73.11962
0.36980784,71.13457
0.40269738,71.14084
0.33279523,72.9231
0.2694494,70.53267
0.2900749,74.63023
0.21453665,71.67273
0.10909585,75.726135
0.11618967,72.65005
0.12784183,76.7153
0.11907752,75.66782
0.14144519,77.07634
0.090440795,78.28056
0.14366738,78.82269
0.31714004,83.76223
0.21336243,84.30489
0.33410826,86.50953
0.43699318,86.5454
0.50422895,86.76358
0.5951021,92.04383
0.6600091,98.39629
0.8079873,94.43898
0.91840416,99.76076
0.9567098,102.45164
1.0807371,105.029366
1.0726056,108.40103
1.2489836,112.35839
1.3177756,115.23212
1.4311061,114.196266
1.452833,119.681595
1.5555712,120.21263
1.4876008,123.36849
1.5605775,125.77941
1.5328224,122.93063
1.64254,129.50656
1.5645024,129.57173
1.6212565,132.66925
1.6805438,131.54625
1.6151663,131.24045
1.7271259,133.66954
1.6493809,132.52692
1.5908726,133.64307
1.6676592,132.25458
1.5597445,133.78075
1.6278263,135.99493
1.5764549,134.57793
1.653997,134.4286
1.5928066,134.50192
1.620612,133.7796
1.5621545,134.56973
1.5983737,131.8987
1.5861466,130.81189
1.484082,128.08052
1.5090332,130.91856
1.4739828,128.0275
1.3420683,125.907585
1.3606174,122.6221
1.2914801,118.89006
1.2785285,123.85877
1.3505626,121.98784
1.3488169,116.33048
1.3539002,117.396706
1.3467921,117.70466
1.3464662,116.562195
1.3920246,111.69296
1.338882,112.368576
1.2590421,110.2353
1.2663658,110.6205
1.2669457,106.55105
1.2560723,107.24595
1.1901858,100.47441
1.2010603,105.62848
1.1686378,96.67324
1.1628172,99.584564
1.0609812,99.24567
0.93635875,101.50103
1.013468,92.58273
0.98378724,96.9556
0.8928632,90.97619
0.8692482,88.51613
0.87542176,90.751495
0.8430796,90.486374
0.86507124,87.56712
0.90227,83.84016
0.8435401,77.42076
0.83115333,84.44661
0.7683139,79.697296
0.7130353,79.95989
0.82672054,81.84839
0.8334364,78.43221
0.7419972,76.00674
0.8469169,77.49737
0.76607174,72.78545
0.77772826,78.63248
0.6982334,71.75852
0.7189392,70.36919
0.6664436,73.67589
0.68696016,74.64692
0.63722104,69.108864
0.57652944,73.812675
0.553913,71.84491
0.52902526,71.5053
0.5546233,74.55052
0.48147494,74.17894
0.39463884,71.62267
0.46912262,74.14297
0.40022385,77.03206
0.49068093,79.340294
0.4690812,77.8926
0.5217253,80.39848
0.58224255,81.003685
0.6695669,89.13265
0.6474592,88.06071
0.8640062,88.51133
0.92651415,93.519424
0.9758542,90.48767
1.1207916,94.95478
1.1669031,103.2293
1.3003477,101.166435
1.3048613,106.736435
1.4776976,108.69864
1.4637666,109.371506
1.5741408,110.16634
1.6017524,114.15545
1.7713573,113.712494
1.7782298,119.21372
1.8368434,122.67989
1.8399642,124.197075
1.8148974,125.25141
2.040919,128.15424
1.9783603,130.84027
2.022252,132.16673
1.9919667,131.69647
1.9687628,134.9624
1.9371324,131.30328
1.9278919,133.67924
1.8915715,132.404
2.0069559,137.68489
1.9198853,133.68864
1.9443833,137.94339
1.9565786,136.66078
1.8489336,135.37428
1.879007,133.9951
1.7480383,130.97324
1.7337488,130.6687
1.8029389,130.73866
1.7347353,130.67856
1.6827275,128.2171
1.7011157,125.50377
1.545757,125.829445
1.5548803,129.41818
1.6035699,122.30959
1.5941622,121.14982
1.584259,119.79862
1.5863808,122.99448
1.482846,118.93598
1.5408508,117.740974
1.4641188,117.69435
1.4787309,110.911316
1.5377333,112.558586
1.4637687,108.7969
1.4436862,109.871826
1.548303,108.416176
1.4487523,110.37394
1.4259752,102.91249
1.3850999,106.39504
1.2925355,105.34394
1.293838,101.57925
1.2736392,101.127975
1.2144619,101.660736
1.2221192,97.7519
1.096702,99.02264
1.1199169,94.82009
1.0869727,91.61393
1.0751592,90.518
1.1369847,91.98859
0.9521806,89.88378
0.9610944,88.88386
0.8969885,87.447395
1.024774,84.82638
0.9334225,80.67445
0.9474073,85.74831
0.8393764,83.30728
0.85216534,81.13582
1.0141153,77.690575
0.8964447,74.70182
0.80813885,75.70534
0.9522623,74.216034
0.85110784,73.541405
0.78826463,73.780815
0.76481366,72.747635
0.74006635,73.59499
0.749805,71.50103
0.6423677,70.86233
0.59710616,70.59087
0.6586439,70.411804
0.61918414,72.35765
0.5168943,71.2295
0.48607633,77.14061
0.4933459,75.82053
0.49355653,74.87239
0.49546522,78.67345
0.48546973,77.63494
0.63020235,81.54951
0.6533101,81.25591
0.65893966,86.29937
0.6538485,84.05983
0.7499879,91.94911
0.85436964,90.30593
0.96661186,94.06796
0.9916104,94.45613
1.0966494,96.02249
1.24398,99.63209
1.2640853,100.487915
1.3300521,104.636215
1.484046,105.29215
1.429589,111.001144
1.5640252,112.08165
1.6699276,119.36834
1.6350774,117.74999
1.7424957,122.39787
1.7495117,124.13943
1.8009139,125.90252
1.8122293,124.34888
1.7504036,129.14915
1.7945603,128.42299
1.8843924,133.15332
1.870035,132.90268
1.9109354,132.02432
1.8409666,133.78139
1.8298237,132.04024
1.8130871,137.30273
1.8820683,133.7688
1.7387887,136.51236
1.7881333,130.3516
1.7631854,134.93137
1.708343,134.44545
1.7004824,133.11615
1.6236047,133.94081
1.6621344,133.34077
1.6153377,133.64029
1.6295137,129.20174
1.5218095,127.4261
1.5686027,127.838936
1.4921079,128.9898
1.4894532,129.04112
1.380297,123.79878
1.448623,127.81516
1.3680202,122.90942
1.3756762,115.78882
1.36323,120.6248
1.383836,115.005005
1.3013366,114.14749
1.346409,115.18706
1.3045491,111.93922
1.3243732,112.70047
1.1947833,109.89197
1.2655157,107.97141
1.1202357,107.165634
1.213428,108.57322
1.1770673,102.96718
1.1561649,101.385216
1.0419549,100.65268
1.0362667,97.20034
0.9939379,98.37257
0.9341535,92.54143
0.86137706,97.5412
0.9583082,96.173004
0.8552982,89.58608
0.7410529,89.48248
0.9038892,91.86164
0.7136754,90.54555
0.76634353,88.68887
0.6306228,88.07125
0.7148932,84.384125
0.68568605,84.90706
0.7035678,76.00872
0.6580402,82.53496
0.69452226,81.714294
0.733179,77.40778
0.6676442,77.79055
0.6180878,73.76646
0.57682586,72.40765
0.55399686,73.45623
0.60957724,72.85443
0.5600661,71.86509
0.5386007,72.794525
0.4017105,68.56276
0.45891333,72.33106
0.46132645,76.25225
0.3064375,71.94708
0.2452462,73.56864
0.23113905,73.13995
0.1723124,69.95262
0.18036154,77.19182
0.1885683,75.67342
0.21810533,78.5921
0.19516017,78.20517
0.292623,79.73489
0.20499124,81.62094
0.3505129,84.12068
0.36587638,85.10712
0.4384922,89.45922
0.5109426,94.020966
0.65967375,91.1614
0.66387945,98.187935
0.7830072,92.6899
0.8822908,97.141785
1.0553674,101.022484
1.0830638,104.50307
1.0921254,108.79102
1.1694627,106.86707
1.3747083,113.86533
1.3925779,117.73784
1.3048583,118.52881
1.4093444,122.48255
1.4607974,123.63931
1.4789884,125.01043
1.4274949,127.14055
1.5786022,127.88026
1.47862,130.53249
1.4846078,128.86879
1.4904323,130.66832
1.5846175,133.96693
1.514214,130.93088
1.5060903,134.61885
1.5916785,134.56564
1.4479889,133.83623
1.4782606,135.76866
1.429323,135.68102
1.4525435,135.54326
1.3024067,133.80658
1.3876977,135.77472
1.3512894,132.76477
1.4288945,130.44815
1.3203907,131.42392
1.2201347,129.20758
1.2077,130.01288
1.1675317,128.82402
1.1614107,127.165596
1.0748093,125.762146
1.1576902,122.5992
0.99501836,124.36349
1.1054121,121.440125
1.0652068,118.62895
1.0301076,118.4085
0.9787331,117.94846
1.0076844,113.93589
0.9451696,113.433365
0.9261476,111.20387
0.9018586,110.84644
0.90319705,106.12978
0.853469,110.93909
0.9101058,109.1805
0.9371504,107.17941
0.74624264,103.14669
0.89818573,100.49856
0.82592964,100.462906
0.71138495,99.42582
0.6283504,97.94081
0.65475154,97.086365
0.6387333,98.25238
0.5619398,93.78792
0.53917,94.6857
0.45592728,91.7674
0.41403142,89.55812
0.423184,88.81628
0.45678532,88.01106
0.41964728,88.13642
0.2648458,83.34707
0.40270045,85.47244
0.3086139,80.41126
0.32326797,80.16909
0.36361486,77.92472
0.4003481,75.62482
0.3944164,76.086205
0.29236832,76.037415
0.2820004,74.61014
0.2857445,70.337585
0.27751866,72.79093
0.19070251,74.79421
0.21869971,68.99049
0.14671077,72.51529
0.10931366,69.51643
0.1463138,71.846245
0.10090339,70.24166
-0.11716987,72.48436
0.030411648,71.40829
-0.02197918,74.45833
-0.034334313,78.86993
0.043137778,77.20085
-0.09865207,75.7627
-0.016436236,76.28703
-0.1016311,79.14892
0.005703239,83.13724
0.08682765,85.98371
0.19109623,86.3811
0.1905039,91.71263
0.29179588,92.49771
0.33834553,90.78607
0.4567654,92.96746
0.58109164,95.99118
0.6721127,99.68296
0.75446135,104.90235
0.8773619,108.830376
0.8653035,110.65373
0.9274142,111.41714
1.1092514,113.64619
1.1950781,116.695816
1.174193,115.576744
1.174396,118.07619
1.2390327,124.2841
1.2458099,127.602325
1.2418895,127.79807
1.3007001,127.944115
1.3925046,128.0831
1.3857867,131.55476
1.3734072,130.095
1.3127438,129.7193
1.3357968,133.90495
1.3725512,135.19427
1.3062607,137.76738
1.3679035,137.59796
1.2983378,134.79332
1.3122505,134.75163
1.2685672,132.76335
1.2979474,136.06148
1.1776963,135.53662
1.2890384,133.1123
1.1636573,133.12845
1.1632214,129.49559
1.1347347,131.37836
1.1857116,130.75206
1.1429387,124.294
1.135931,123.55255
1.0445688,126.548935
0.9962759,123.62488
1.0187315,124.447205
0.9843798,118.25075
1.0027075,119.77552
0.93577427,120.21062
1.0120404,117.88794
0.8792583,115.63587
0.99289715,110.893295
0.8852056,115.43252
0.8512078,112.52955
0.8950315,109.547905
0.8843148,109.17738
1.0033835,111.0007
0.7687545,107.26393
0.85755646,103.49334
0.7848838,102.36185
0.7209097,101.98114
0.80114424,97.90391
0.6115161,103.0204
0.6627766,97.2325
0.54749477,96.9161
0.5145261,93.70009
0.6013801,92.43358
0.38890824,91.58673
0.43467823,88.75848
0.36314526,89.54345
0.4570268,87.29359
0.4321279,86.08298
0.50999933,82.27088
0.38439503,88.04759
0.39709282,83.009926
0.41886452,78.92552
0.46194333,78.400986
0.49342307,75.96138
0.4025021,76.02373
0.31194478,77.93018
0.34380585,78.10888
0.37911776,78.96911
0.35252875,73.8781
0.37002626,72.16602
0.30322194,75.60404
0.22574353,70.31028
0.16042683,71.780945
0.22881258,72.87465
0.2679996,70.919876
0.08096968,72.40536
0.13394049,70.23657
0.1606541,75.43017
0.15357696,72.82829
0.10704884,76.91602
0.10891269,74.40793
0.19890973,77.18514
0.020609986,81.476585
0.08213157,82.21835
0.267071,81.53545
0.19604032,87.52797
0.25168076,89.29906
0.47299814,88.878716
0.5290075,91.708206
0.5827615,96.136635
0.6923225,100.51035
0.7775551,99.13091
0.91708195,103.14002
0.9288117,103.7095
1.1506808,104.77665
1.146483,113.39009
1.3342459,113.833176
1.2656287,114.22822
1.3870239,116.33442
1.3876679,122.31709
1.3998727,118.68598
1.5158217,121.175446
1.4532517,128.17598
1.4238447,130.55612
1.6493249,131.39316
1.5529245,129.92947
1.6021652,134.76672
1.5198216,132.34181
1.5905511,134.54182
1.5621198,136.2281
1.5590465,131.37802
1.6221559,135.09546
1.5831549,135.6581
1.5210153,138.62773
1.5693904,133.95601
1.5494746,135.36774
1.4319315,135.10355
1.4903721,132.75467
1.5373982,136.3608
1.4071127,130.05211
1.399735,129.95966
1.4197047,132.70049
1.3574041,127.70902
1.32874,128.64308
1.3208145,122.31888
1.2640187,123.4641
1.3784155,126.63359
1.3199137,123.01627
1.1991322,122.87714
1.2626271,116.26362
1.1771936,118.927925
1.2482843,113.245316
1.1557732,114.22024
1.2555704,114.91671
1.1854198,112.595184
1.1749524,111.09602
1.1809955,109.90796
1.1820332,106.33404
1.2014072,105.450645
1.1358478,103.43075
1.0188751,100.229195
0.99226636,102.61079
0.94194824,101.760796
0.9639946,97.622375
0.8246916,98.54102
0.9233861,96.49466
0.8509239,92.291435
0.84124625,91.77937
0.7894504,91.42129
0.80592406,86.872856
0.73598176,86.2548
0.7758218,90.35668
0.7306663,87.31901
0.78910434,82.33759
0.8099444,83.332695
0.79931474,83.24053
0.705691,82.327286
0.70085824,79.609406
0.77998286,79.19157
0.7351105,75.94439
0.71003985,74.47079
0.6128005,71.966934
0.671704,72.3633
0.69534785,73.09637
0.61184704,69.402054
0.65555996,73.70296
0.5245474,70.55737
0.53981245,73.56534
0.55502325,74.926956
0.5557185,70.670494
0.48074988,72.95173
0.5078079,77.735916
0.37672916,73.68508
0.3859328,77.11927
0.4412738,76.12852
0.3734743,80.206406
0.43092117,81.418304
0.4759093,79.77681
0.5500597,82.837296
0.59402764,81.49438
0.66995794,87.02292
0.7010688,89.55316
0.73485863,90.8936
0.83608913,91.948814
1.00305,90.487
0.96298736,98.95454
1.1556952,98.23389
1.2152245,103.41742
1.3302646,106.439674
1.4251109,107.69783
1.5524898,109.54909
1.6230474,114.69124
1.5070385,115.77359
1.6852392,119.86387
1.7807856,120.04204
1.7198502,120.03114
1.8084756,127.0829
1.8564209,128.97911
1.8059098,127.76986
1.9423023,130.50346
1.8400882,128.64413
1.8672343,131.24463
1.8554604,133.05156
1.9575956,137.16408
1.9083275,135.14299
1.9029309,133.47058
1.89239,135.3217
1.906621,133.70879
1.8260845,135.64944
1.9491994,131.86377
1.8396724,135.71472
1.772916,131.98697
1.7820661,134.61247
1.6430441,129.66246
1.6652828,132.44363
1.6784157,126.11499
1.7038339,128.91666
1.6094824,126.964066
1.5729855,126.98517
1.5564363,124.63462
1.6240077,125.76125
1.4905611,121.620674
1.4353231,118.79757
1.5178555,119.87684
1.5090252,120.05012
1.525192,117.88166
1.4628448,115.80889
1.4526341,115.843994
1.4217193,112.6059
1.3653241,109.50046
1.4011159,108.8417
1.4397599,112.06594
1.4117005,106.3344
1.4025303,102.51893
1.2910998,105.20037
1.3251522,101.09883
1.3183355,99.92756
1.2496458,102.85475
1.1924593,94.95264
1.1802849,94.744514
1.0712054,93.85646
1.1062756,92.32161
1.1106218,90.66267
0.99728215,92.89271
1.0708784,89.04957
0.96327454,90.09163
1.0115523,89.77689
1.0028981,85.48113
0.8314113,81.266106
0.8771482,85.081764
0.9586741,80.76257
0.83796674,81.85062
0.9298931,80.3079
0.86504865,76.64514
0.8613551,79.11981
0.8425849,73.97726
0.879048,73.74827
0.7512212,74.49621
0.8475903,70.6446
0.7617499,75.03033
0.7998902,71.85424
0.796208,69.30582
0.7561246,70.03371
0.7219818,68.82751
0.63951206,72.80918
0.62605053,69.542046
0.569387,71.92649
0.5650431,73.93113
0.5777829,73.37917
0.57706517,72.702965
0.5461545,75.66803
0.589932,78.47318
0.60536546,80.38351
0.68868595,82.42037
0.69347256,83.29655
0.64663833,87.386406
0.8235772,86.20313
0.9199523,90.30381
1.029593,94.25415
1.0252583,96.8223
1.1374749,100.22132
1.2147393,102.26473
1.3711355,103.88541
1.527147,106.94887
1.4924626,111.16363
1.6756922,111.0812
1.5358444,113.433334
1.715291,113.519035
1.7170575,116.59201
1.8081445,118.5154
1.8614599,123.199905
1.9169388,127.3363
1.8719805,123.66869
1.9156544,127.87565
1.8854765,125.77464
1.9871141,132.15997
1.9093143,130.93661
1.9455459,134.9177
1.8555459,134.52087
1.8634744,131.65526
1.8689522,134.22075
1.9475057,134.23128
2.0116234,134.03159
1.8078859,135.14253
1.8256584,133.59955
1.7605795,130.78418
1.7283074,135.32278
1.7350998,133.83936
1.7859863,135.64229
1.6800694,127.4014
1.6174189,130.97583
1.5824203,127.24759
1.6232969,127.625946
1.5289077,124.056244
1.5197988,127.43962
1.484549,125.288536
1.502846,122.51185
1.3856777,116.465996
1.4185582,120.52334
1.4501572,118.90559
1.4003987,116.96748
1.347773,116.118454
1.4622921,114.48826
1.37474,108.324005
1.4212375,111.262054
1.2933843,109.784515
1.3827659,107.3767
1.2544837,101.86321
1.2413822,105.42944
1.1633389,104.39118
1.2471088,100.43714
1.1583198,103.089806
1.1542081,100.81059
1.1441312,99.163605
1.0422387,98.38854
0.95568633,93.17695
1.0083923,90.79407
0.9458868,91.903984
0.9493801,92.8388
0.7504344,91.11374
0.90407044,87.77027
0.78616005,85.93795
0.80218464,79.11833
0.77582926,87.07385
0.76447505,82.13153
0.7042262,83.966995
0.70098746,82.7814
0.80926335,78.13246
0.81542665,77.21789
0.7096362,76.33696
0.76929176,77.99972
0.67410636,76.72886
0.7238568,74.429985
0.7739412,70.639465
0.544726,68.98042
0.5924659,71.224396
0.55323464,71.33493
0.524216,74.04773
0.42317754,68.7128
0.40585008,71.44235
0.47225413,73.07267
0.36602578,73.23236
0.35313296,72.73161
0.3327309,75.4901
0.24081895,78.33483
0.31091538,79.83289
0.3889071,76.77329
0.28509837,82.03203
0.41195288,81.973114
0.42711914,85.95205
0.5641117,86.61331
0.5964516,86.97011
0.73401463,90.7134
0.614539,92.678764
0.88181055,95.16271
0.93664116,99.54604
0.9876888,100.43786
1.079496,104.76096
1.2212603,107.65436
1.2579057,107.97713
1.3317894,110.65953
1.3767182,116.3984
1.4224992,117.46035
1.4980724,117.7856
1.4561571,120.502975
1.5826782,122.31986
1.5577701,126.35853
1.5374945,124.80276
1.6420645,128.53119
1.7089481,135.0107
1.6280704,133.44843
1.6367971,132.21834
1.585065,135.54958
1.5384438,132.50829
1.6627557,137.12012
1.5730141,137.34184
1.5841857,139.67856
1.5776212,133.7739
1.5556897,137.71036
1.5018973,134.92787
1.4718949,131.70346
1.4732919,136.17337
1.4511842,131.79366
1.4808161,132.98045
1.2749252,131.96745
1.3926427,127.089264
1.264275,130.43166
1.2083449,125.83927
1.1284959,124.56701
1.1029582,123.95834
1.2088733,126.281555
1.2076219,121.880905
1.1477747,120.89234
1.1085348,123.90821
1.0744542,118.46764
1.1208551,118.683174
1.0605733,115.3952
1.116135,110.61043
1.0305336,111.79285
1.0327452,112.36464
1.0135248,108.54789
0.97257984,105.079636
0.93770695,109.26298
0.85335714,104.71206
0.9710078,105.73504
0.81817454,106.51031
0.69945234,99.42104
0.8037444,103.47758
0.7633282,102.41528
0.68115664,94.71665
0.63983595,95.17224
0.63952595,90.33509
0.58848554,89.001656
0.52916324,87.72259
0.52587754,90.16083
0.51236016,89.71818
0.49632737,82.97667
0.4325979,86.2087
0.3290102,79.645065
0.47351897,83.76228
0.3735022,80.20507
0.45499936,81.031456
0.46724427,82.49659
0.3632851,78.75804
0.4735091,78.836555
0.36646467,72.79263
0.44500813,76.103966
0.25982746,71.744354
0.14958324,74.63059
0.29020298,68.805405
0.30622023,68.706696
0.22478999,75.61429
0.13014685,73.098976
0.14252286,71.09132
0.08007505,72.62877
0.0070274724,72.08796
0.10028713,71.21105
0.027063534,72.710976
0.03462493,75.24446
0.03306819,79.04317
0.02194854,79.51826
0.024793861,75.93987
0.055559628,77.987686
0.013882757,84.01389
0.15443787,82.309784
0.1653278,84.701004
0.15812777,85.82475
0.36103928,92.93366
0.43419072,97.66058
0.5251607,97.16718
0.57271236,101.554985
0.7349596,99.00185
0.83352494,107.56614
0.8587412,104.92454
0.9495208,112.15892
1.0279499,111.84347
1.0740151,116.169334
1.155505,118.180565
1.1576346,121.38303
1.2190987,122.460175
1.3289701,120.383835
1.3153912,124.471214
1.3200552,124.057816
1.298409,131.53401
1.356551,131.00102
1.4568124,133.9549
1.3825185,128.55489
1.3872129,136.36258
1.3449429,135.36111
1.3778672,136.18869
1.3683236,131.16367
1.4917241,140.72243
1.2384517,134.9076
1.3818861,132.76707
1.2786298,134.25725
1.2447605,133.68985
1.2120916,133.2087
1.2256035,135.71704
1.2044387,133.0333
1.1817616,131.24942
1.1670295,132.28519
1.0261542,131.0997
1.0879378,124.04898
0.9616015,124.12101
0.9504176,127.316216
0.8950692,127.12119
0.83670294,121.6504
0.99151695,122.802574
0.94436496,115.9554
0.98319066,117.398
0.9055732,117.880066
0.8559029,112.31112
0.95637625,116.3248
0.8847101,112.64451
0.95473456,112.10269
0.8666564,110.393585
0.8882245,109.061516
0.87298185,105.72982
0.7720252,109.03051
0.7644196,103.581
0.7947908,101.74958
0.69024295,101.43311
0.68977284,98.58575
0.60324115,95.36482
0.51881295,100.15131
0.6079718,95.14148
0.4518305,92.72609
0.49825874,94.65629
0.44411537,89.16953
0.35745323,88.64942
0.40394166,89.3753
0.45406142,84.23992
0.3274633,88.70722
0.3168996,84.37615
0.33117935,83.28594
0.3125771,76.581406
0.25149098,83.362656
0.2851117,78.00985
0.36509922,77.30528
0.31916392,75.978874
0.33100137,76.33366
0.39165056,72.90139
0.28635448,73.78649
0.16593067,76.542206
0.20047064,71.25878
0.13344793,70.005646
0.23576684,72.65462
0.11352329,73.38655
0.05091745,71.758064
0.17916906,74.36509
0.069855966,70.24358
-0.0046414924,75.09375
0.053372886,75.81245
0.01659738,76.708275
-0.00321667,75.09785
-0.011604097,75.976776
0.067765646,78.770744
0.03344152,81.4869
0.12577714,82.27204
0.18246286,82.814156
0.24440415,84.46496
0.31684402,90.77523
0.34331077,93.42765
0.5167329,89.77833
0.5363612,94.528564
0.72691214,99.81491
0.78135127,103.05429
0.91642046,106.52972
0.9113443,107.17431
1.0858929,106.75623
1.0709021,114.49537
1.2373669,113.38044
1.2084373,117.75324
1.2173162,117.139534
1.4097826,119.42605
1.3651891,121.70692
1.3406112,123.208595
1.4464004,128.92017
1.4858532,128.02704
1.448889,131.7656
1.5095587,132.14653
1.4392607,132.09023
1.466681,133.62651
1.5867903,132.89781
1.4614097,134.73598
1.4764967,134.81987
1.5976875,133.7638
1.4822474,134.80013
1.361621,133.59094
1.432869,134.12654
1.4704417,135.93625
1.4826965,133.58041
1.3423169,132.67819
1.2912434,132.0234
1.3388181,129.38878
1.309454,127.86643
1.2301497,130.77487
1.2439084,127.91392
1.237971,127.40882
1.1645974,125.75591
1.2074953,126.00514
1.245578,121.4578
1.1451328,124.10528
1.1248257,118.198044
1.1711813,118.74762
1.0963228,117.47451
1.1763543,114.87423
1.1406095,117.02576
1.1534839,117.7155
1.1436874,110.56322
1.1023035,111.95436
1.0597181,109.9581
0.9841295,106.900665
1.0273987,106.65101
0.9480688,103.39946
0.90462315,103.618546
0.9283175,101.51964
1.0017912,98.264275
0.838408,97.24934
0.8092497,96.54534
0.7872073,91.9245
0.68408394,97.87803
0.67981064,92.062096
0.64645714,87.94015
0.7074467,87.425156
0.668281,86.532005
0.58883506,89.38353
0.59623903,85.46961
0.6178352,83.275246
0.69145304,85.34972
0.63579845,82.08154
0.70465976,80.8956
0.65616477,77.93397
0.66543156,76.336136
0.6331026,77.34269
0.5820358,73.84883
0.6446352,76.77058
0.564807,74.85095
0.58336276,71.24031
0.5555892,70.640274
0.55322367,74.88818
0.43511802,75.28932
0.4284213,69.21604
0.42999238,71.97554
0.32869592,71.82435
0.41490117,74.048355
0.28868568,74.46053
0.33434096,74.41157
0.3295586,78.71837
0.28667542,75.71467
0.32997474,77.489655
0.3753536,76.443825
0.4062733,79.338776
0.4348166,85.364914
0.59080976,84.0254
0.4420823,85.55411
0.605098,85.24992
0.79143155,91.17443
0.75107735,92.46278
0.8948481,95.99168
0.94997466,95.76109
1.1283538,101.60679
1.1772356,102.69286
1.3386976,106.44276
1.3352054,110.49072
1.4001894,109.39816
1.590369,115.849396
1.5993143,116.08941
1.5047559,120.59132
1.6608069,119.53951
1.7345796,126.25734
1.8128773,125.28738
1.8181651,128.29272
1.797002,126.68792
1.9059619,129.15965
1.7454484,129.99626
1.9117775,132.57979
1.7864094,136.07486
1.8128103,135.7522
1.8412892,134.9881
1.900537,133.55693
1.8068829,136.80707
1.7071306,137.0533
1.7850674,134.61235
1.7721736,132.82552
1.7329966,136.96419
1.7602113,133.52684
1.7684851,132.12604
1.6625344,133.54515
1.6472619,131.60733
1.6589663,131.6131
1.5674742,131.97406
1.5536232,127.54242
1.58587,126.053635
1.5450357,122.59786
1.4983263,122.60012
1.5241138,120.605965
1.5106337,124.84027
1.4739355,117.85282
1.3880543,117.87272
1.442911,115.42328
1.4479674,115.191284
1.3166745,111.31174
1.4436479,111.90728
1.3910756,111.98135
1.361586,109.50588
1.3367958,108.414955
1.3169702,106.79918
1.3836249,105.088295
1.3020874,103.628716
1.2517856,103.8666
1.2155675,98.33421
1.2083329,97.32725
1.1511244,98.01177
1.2857326,96.16262
1.1018178,94.914
1.1838953,94.979416
0.9836104,93.520996
1.0219984,86.64889
0.981263,91.35786
1.0115026,89.96788
0.8892563,86.27525
1.0063397,85.99815
0.82470256,81.997856
0.86483645,82.35381
0.86272216,79.15269
0.92988807,76.936485
0.8219411,78.3714
0.89978325,79.47707
0.9151772,74.61914
0.92193437,76.399895
0.8445291,75.781166
0.8629673,73.97876
0.8629137,70.753914
0.77677476,70.07503
0.6891498,71.52009
0.76935226,72.8617
0.69853324,73.492294
0.7692927,70.75677
0.66547865,69.92456
0.57418525,71.68211
0.59282714,72.986496
0.5450127,73.792755
0.5715758,73.55873
0.54189694,77.81015
0.58173776,75.921455
0.53250414,77.964516
0.60544175,80.02428
0.59216404,82.413475
0.72481984,81.8671
0.83327824,85.62921
0.8182488,92.175735
1.086011,88.25604
1.0870444,95.12448
1.0973277,94.870476
1.1984475,98.37217
1.3712368,100.924835
1.292195,106.21535
1.5146146,109.3539
1.5900041,110.5838
1.608066,112.98221
1.6697611,113.69113
1.6935648,119.03459
1.8155887,120.230736
1.8135484,121.82391
1.9039756,120.17702
1.8593551,128.71782
1.9092002,126.28257
1.9706842,128.0101
1.9284503,130.43124
1.8854201,132.23589
1.884297,133.03348
2.057837,132.6025
1.9383311,128.73094
1.9448953,135.7886
1.919333,138.81737
1.991331,135.51094
1.8983055,134.41286
1.8705469,133.61784
1.785467,135.52287
1.93871,134.43422
1.8592039,136.60474
1.8709283,131.56696
1.7135499,132.6196
1.7755393,128.71008
1.6773887,130.13367
1.628917,128.1209
1.6266017,129.77382
1.6042267,123.86077
1.579641,124.38029
1.588087,125.38713
1.5183998,117.42358
1.5648029,123.615814
1.410249,122.60297
1.4927381,116.06878
1.488827,115.788376
1.5862781,113.45804
1.4626442,115.353165
1.4101363,111.63423
1.4709588,109.08168
1.4816768,108.65092
1.3706638,108.961266
1.389915,106.34388
1.3336508,107.621735
1.2373416,101.55633
1.3095825,101.45942
1.311022,99.042175
1.2148117,100.60059
1.1200833,97.83629
1.1348711,97.11864
1.0384119,96.07087
1.0637405,91.17323
1.0109652,89.02028
0.977663,91.085724
0.87600714,91.74959
0.8961634,88.34272
0.8113461,81.359955
0.80134994,86.68858
0.8212702,81.855034
0.8937383,80.571594
0.80650026,80.86037
0.84782034,79.39117
0.8582556,78.28665
0.8905442,75.13945
0.8082107,75.252266
0.7533857,74.76682
0.88626355,72.84568
0.8037688,72.75376
0.7147537,76.99182
0.7159353,74.15057
0.6910076,72.971405
0.6310285,69.589
0.6195509,73.07806
0.47225034,69.99192
0.49592984,72.17725
0.46634784,73.592224
0.3486146,74.68395
0.3737113,74.02357
0.31006208,74.5189
0.42365652,79.473625
0.4547762,79.34203
0.3681975,81.10612
0.4710205,80.62122
0.48111942,79.945564
0.59048045,88.47036
0.6948369,88.47134
0.6935809,87.4355
0.6978201,90.585
0.8300499,95.03198
1.0212964,96.772865
1.0188473,95.23635
1.0385792,104.48936
1.1109085,105.67401
1.2935764,107.8737
1.4439639,110.94092
1.311156,110.71066
1.5054849,114.50576
1.5337446,115.79993
1.5768893,118.235825
1.6603755,120.979706
1.6866301,122.06942
1.6182829,124.43195
1.6598183,131.71048
1.7902008,129.40425
1.6992886,129.39148
1.6890999,128.96887
1.7148064,132.94826
1.7868859,134.07503
1.6910298,131.7837
1.6735783,134.23439
1.6721281,135.53041
1.6279149,134.35835
1.6758218,133.424
1.6202089,136.20924
1.5956353,134.42291
1.5380061,132.91829
1.5657123,133.55351
1.5012109,133.8499
1.4699597,131.03339
1.4489232,130.15932
1.3675851,130.97171
1.4169366,126.96045
1.33851,125.47008
1.3622322,126.981415
1.3473765,123.77115
1.2593716,126.41083
1.2737846,122.18092
1.1627667,118.39227
1.2053467,118.69944
1.1762848,117.98122
1.1945468,113.506714
1.201927,111.70921
1.0613121,114.98189
1.1923743,114.24076
1.1053437,112.966125
1.1305668,109.0575
1.0303199,109.031815
1.0909189,104.00362
0.99733186,105.68406
1.0207944,103.58
0.8939845,104.67179
0.825455,100.92211
0.878824,96.62575
0.8040709,97.31651
0.75170726,95.02007
0.78638023,95.55026
0.62650454,93.335785
0.6407226,92.600845
0.6118148,91.117195
0.56683403,89.69455
0.50750864,87.50694
0.62618965,84.82634
0.5217832,82.673164
0.49331284,81.502914
0.4971289,81.35876
0.45907846,79.785484
0.4806001,78.340706
0.4311621,78.51621
0.461523,78.21088
0.38120094,78.847145
0.42133337,74.49626
0.42473543,73.114
0.48847103,76.46816
0.4351449,72.396095
0.3679978,70.946434
0.266378,70.24722
0.30685762,70.201
0.24726118,74.79008
0.20329861,78.05265
0.15850322,68.94679
0.18367688,72.103645
0.18138161,75.1947
0.062112182,71.2225
0.03754872,73.034096
0.06835079,78.30639
0.042715866,78.52154
0.16916487,81.35913
0.14672521,83.67495
0.2359158,82.45176
0.22471984,82.45177
0.3470217,84.70929
0.43451726,90.03777
0.48081344,95.01793
0.59590125,99.71169
0.6030696,96.20627
0.7956332,96.77497
0.8238097,102.08372
1.0052933,107.26659
1.0254263,106.132
1.0725838,112.04174
1.1386982,113.07004
1.1594955,115.44598
1.3086276,117.71399
1.2574495,119.54466
1.2277772,119.46873
1.3457866,124.03641
1.4080218,125.61373
1.3936495,126.39425
1.3244113,127.78294
1.4525334,131.6611
1.4289323,132.32233
1.3969908,132.23592
1.4505726,132.79538
1.2851341,132.27875
1.4557521,134.9199
1.4123656,134.26555
1.4554597,139.79259
1.3726472,135.40903
1.3132639,134.62964
1.4501891,134.71327
1.2837956,135.58858
1.3210051,133.51
1.2368478,137.51749
1.2265043,131.56876
1.1456069,131.8994
1.0987717,127.99681
1.1349375,130.36589
1.1661853,127.61175
1.0582012,126.21858
1.1318574,122.20384
0.98722523,126.90455
1.0054556,122.41619
0.90355307,119.099915
0.8799748,117.24123
0.99399143,119.14535
0.9056157,117.765915
0.9306626,112.62997
0.9238131,114.990524
0.8918867,109.40135
0.8589002,114.82896
0.87084043,106.73844
0.85765326,108.35839
0.787733,104.69301
0.7606077,102.930984
0.763138,103.81007
0.7038473,100.53966
0.60010725,96.54403
0.59385395,97.756
0.5737186,98.39296
0.54320896,97.12516
0.5495505,90.920685
0.49554393,90.26561
0.49842083,94.08903
0.4024895,89.630165
0.49509314,87.53851
0.41192946,88.20832
0.32267514,90.06058
0.26825637,84.388245
0.2779705,83.40294
0.35961667,80.95037
0.2915006,77.76847
0.37049043,78.44713
0.29825875,81.05442
0.354699,78.68144
0.26905605,79.22512
0.3304049,76.99208
0.28014305,76.139175
0.28672168,70.2557
0.23909347,76.64769
0.25531125,71.15108
0.21638757,69.887375
0.15910707,73.889755
0.14127597,72.04093
0.12762356,70.84735
-0.037460923,73.44606
-0.079732664,74.61256
0.01624383,72.46993
-0.08861185,75.19672
-0.0918889,73.41112
-0.03256408,72.17634
0.032787062,78.06095
-0.030270208,82.05456
0.07611172,80.43737
0.07090033,83.82519
0.09987808,87.55947
0.18172774,91.483696
0.33290663,89.54472
0.40466106,95.4536
0.37335175,91.30101
0.5334444,95.71698
0.6901692,99.23353
0.8117577,102.35307
0.8262491,107.624954
0.9252386,103.34467
1.0765948,107.18079
1.086466,111.31699
1.1546191,116.35733
1.2389687,119.88881
1.2080325,121.06497
1.279815,120.7981
1.3274605,121.804924
1.3565997,130.0945
1.4177477,126.321266
1.3834487,131.44194
1.3993087,132.53246
1.3950332,134.91669
1.3757359,132.10832
1.3331673,132.66023
1.5000805,126.84795
1.4531193,140.2549
1.3593436,134.20795
1.4002333,133.95932
1.3743892,134.4559
1.3581134,135.50862
1.3657216,134.42912
1.3890244,133.35962
1.2153294,132.06853
1.3606604,133.62428
1.2386248,130.48503
1.2444199,131.71426
1.2078716,128.29857
1.2018826,126.96991
1.1737676,125.00014
1.0769252,122.52833
1.0166656,124.803314
1.1273671,119.45235
1.0152687,120.25804
1.0913495,122.8782
1.1261636,117.73327
0.99841106,114.342674
1.0651011,115.20227
1.1305038,114.26448
0.9559276,109.41322
0.9922636,111.422935
1.031219,109.42084
0.97541785,108.542816
0.9579167,106.19938
1.0403315,104.41757
0.8261368,104.3532
0.9158187,104.55244
0.85497457,102.60764
0.88415956,98.733604
0.80325204,96.5396
0.66057575,99.05865
0.7558119,95.88066
0.59152454,94.96679
0.63846624,95.0712
0.6248355,90.4106
0.6708557,87.018654
0.6091362,86.25866
0.534954,91.06028
0.55595016,79.61842
0.5529283,83.327866
0.5071303,83.89053
0.5686552,78.390305
0.5384301,81.563614
0.59683055,81.71928
0.5019772,76.769005
0.5726335,76.85577
0.53984493,77.87737
0.48147124,75.201256
0.5364401,74.228134
0.42038712,75.57324
0.516897,71.99769
0.45072067,69.22374
0.31480202,73.00527
0.39319587,71.327644
0.37897003,73.735374
0.38189536,66.50773
0.26959723,72.66063
0.24170955,74.87694
0.26602986,74.93405
0.21704115,74.316154
0.22415787,75.96963
0.2142139,75.53214
0.25706312,79.5221
0.28560314,77.64137
0.25802556,83.6658
0.43056098,84.874725
0.40584537,83.78837
0.53183156,83.226585
0.48424163,91.4183
0.60994893,90.43593
0.70765465,96.24322
0.92809826,94.52861
1.0461828,99.7462
1.0354543,100.55693
1.1529546,107.15345
1.1775109,105.39027
1.2196674,110.168106
1.3742633,114.64695
1.5091456,118.13943
1.4775591,120.56148
1.5182348,116.78215
1.5983251,120.23345
1.5837632,124.20471
1.6396475,127.238266
1.7447393,128.12929
1.8020391,129.44987
1.7591146,129.76561
1.736145,127.98429
1.7824359,132.99962
1.6707549,131.2327
1.7011911,132.16644
1.7782083,134.53055
1.7204119,133.32388
1.7866033,134.07202
1.6669859,136.59161
1.6713172,133.44469
1.8016609,130.59491
1.6614001,134.55702
1.6407145,133.30943
1.5970333,132.8486
1.5834,132.7082
1.5525546,130.71452
1.4743019,126.88943
1.422572,129.8461
1.5480525,127.61909
1.4589776,127.58221
1.3562346,126.12613
1.3938513,123.91577
1.3758392,118.96556
1.4772139,118.8758
1.3250029,124.519165
1.4177783,118.01724
1.2944677,115.418785
1.4116167,114.17913
1.3279437,116.69586
1.3201563,108.22822
1.2900878,107.16331
1.3577886,107.68657
1.27573,108.552635
1.2206717,106.633514
1.2846526,105.07225
1.2278811,108.35473
1.252325,103.3677
1.1359824,103.39686
0.99662894,99.78679
1.108195,98.98163
1.0068609,94.935295
0.97873086,94.30636
0.95853364,95.43538
0.89010066,89.09008
0.8956918,93.75578
0.9190747,85.52854
0.8378294,89.16108
0.8688018,90.38352
0.8602546,87.35968
0.77382606,86.205795
0.7843139,80.44479
0.7968059,80.519485
0.7964577,77.30483
0.8055185,74.25811
0.8353372,76.44247
0.7765219,76.21475
0.8892884,76.23564
0.8124911,76.44059
0.862445,73.38771
0.740069,72.16243
0.7580981,74.27308
0.75197244,72.78504
0.6615169,69.263535
0.7316526,70.565056
0.5884502,71.04324
0.60997504,73.216774
0.50547814,70.73763
0.44288686,73.73403
0.579853,72.53397
0.4735459,73.05367
0.4200347,75.77811
0.5464707,79.13162
0.56612223,84.610405
0.6319126,79.15149
0.6868144,87.461815
0.6963228,85.08254
0.8586977,87.716354
0.8568917,86.57259
0.8678508,92.166176
1.0439863,96.488304
1.1849588,95.63359
1.2506256,102.62889
1.3002408,102.02988
1.3889488,102.76319
1.5361716,108.67698
1.5412436,111.2787
1.620756,112.77116
1.6893362,115.58506
1.7753403,115.56961
1.7855136,118.463806
1.8062618,119.94038
1.8747836,124.489815
1.9721118,127.54558
1.9055523,129.75044
1.8972765,127.250305
2.0209165,131.05823
2.0008452,131.7642
1.877559,135.1289
1.9358532,134.65735
1.8549509,135.85071
1.9482396,133.16594
1.9609817,131.93153
1.830714,134.42606
1.8751531,137.86847
1.9363463,136.93051
1.8046476,136.26712
1.8473122,134.46536
1.7702353,135.39882
1.8101248,133.15002
1.856676,135.26125
1.7384145,129.18011
1.7265812,126.34727
1.6686921,126.06327
1.6793704,123.92488
1.6613119,123.16379
1.6528428,123.70398
1.5999365,118.88002
1.5559835,123.46481
1.5641793,121.8869
1.5187902,120.21879
1.4675428,119.9988
1.5068606,115.96602
1.5359912,113.23053
1.5163889,113.390396
1.4646838,107.51956
1.4611188,111.04157
1.463278,111.75296
1.450969,107.173
1.4160056,104.41651
1.3989422,101.97781
1.371202,103.01607
1.2348645,101.16932
1.2760912,100.48395
1.2150682,97.421936
1.1936406,98.66416
1.1773691,91.96357
1.0844569,92.680916
1.1414585,94.698135
0.961607,95.72734
1.0481377,91.7017
0.95605344,87.1334
0.8917485,86.36332
0.8912044,90.77307
0.8632637,87.0843
0.87596333,82.32611
0.89989597,78.55772
0.8369456,78.504005
0.8226069,78.28485
0.9496962,75.2491
0.9182263,79.00132
0.8821165,73.8613
0.8432274,74.33628
0.7901343,71.707504
0.9088124,70.67784
0.8634554,72.46534
0.70510256,72.556145
0.65185297,70.55129
0.6630939,74.08609
0.67873436,71.88225
0.58203495,69.987885
0.5999792,73.5152
0.5589541,73.467316
0.5351779,77.02379
0.47013536,72.6197
0.5295422,72.07407
0.47355106,78.7564
0.49551243,77.853226
0.5637285,78.87336
0.5353845,79.27868
0.6344836,85.63197
0.7447963,87.468094
0.6821709,88.67283
0.8722435,90.53009
0.933488,95.83172
0.9919662,92.6646
1.1215606,98.28368
1.1289825,99.0028
1.2479467,104.734276
1.2377493,104.8332
1.4263034,108.06911
1.4401956,111.80243
1.5560478,113.7876
1.5649614,115.83605
1.637475,112.13061
1.6675168,117.53458
1.6587796,120.4603
1.6909363,122.569016
1.8047833,127.37806
1.8595797,128.05211
1.8358791,129.18738
1.7982125,128.78976
1.7769,129.43738
1.8550879,133.91327
1.8483537,130.823
1.8214566,133.91225
1.7746531,134.32147
1.6764348,137.89183
1.6805605,136.47539
1.7662872,134.58928
1.7387624,138.32684
1.7985777,131.84247
1.6729275,135.66942
1.6282864,130.47015
1.6155493,131.76935
1.6212723,131.06905
1.4948752,129.06505
1.4863324,129.2303
1.3800731,127.10675
1.4368285,124.767265
1.4230363,125.40744
1.420348,121.957436
1.2934502,123.25789
1.3374584,123.99321
1.2000087,119.02182
1.2852161,119.1357
1.2274499,116.285225
1.2686397,116.45016
1.2346368,115.17544
1.300798,113.92159
1.2342421,110.25198
1.2456281,110.88931
1.1836255,113.40562
1.1658283,106.955635
1.170928,104.75094
1.1753831,102.80753
1.0344931,98.92628
1.0209113,102.07349
0.9413666,104.049904
1.0148708,98.885735
0.9630121,97.56825
0.82100993,96.37742
0.83946264,91.966515
0.78929603,93.026535
0.6634052,90.531876
0.6655359,90.788055
0.6311051,91.04462
0.64232236,90.88513
0.67393297,87.83937
0.61556315,81.519104
0.58310485,79.532394
0.595738,78.69386
0.6850236,76.81183
0.62656856,79.504654
0.54511905,75.70174
0.58685416,76.92369
0.46571228,75.10472
0.55595803,71.86561
0.43365166,74.363495
0.51259565,75.60794
0.4852506,75.174545
0.47147995,71.0692
0.4736221,71.32754
0.35527593,73.40685
0.32353926,74.845604
0.1907982,74.66387
0.17651936,71.18831
0.22429168,73.546394
0.26590335,76.33636
0.16855772,75.002365
0.16590177,74.23859
0.04027759,79.70896
0.1632466,79.20449
0.16450225,76.88153
0.25110644,78.26884
0.251526,84.9453
0.29307812,84.4884
0.34118268,87.76797
0.4377805,91.38341
0.60262126,92.85713
0.6581248,94.493
0.6736062,99.585014
0.7852375,98.36178
0.98082304,102.93119
0.9970295,107.26824
1.0380534,109.118034
1.0191512,111.75907
1.1823747,113.54221
1.2832414,115.29084
1.2477272,118.72313
1.4000988,119.008415
1.3741417,121.34992
1.4615397,125.91411
1.3144903,126.704605
1.4034383,127.6796
1.4665483,130.6499
1.5566821,127.976006
1.4020754,134.50937
1.5197546,130.36267
1.4247421,133.80096
1.3869355,137.55026
1.472999,131.98347
1.5002159,135.74973
1.3338555,135.19077
1.4286622,134.72911
1.4305178,135.72334
1.3374507,132.35129
1.3241124,136.16689
1.3403426,137.109
1.3207326,132.2538
1.2253929,133.92358
1.1633457,131.48376
1.136628,128.78546
1.1653832,128.07043
0.9754282,123.093506
1.0853697,128.5193
1.094734,122.94469
1.0274019,122.52351
0.99468946,117.45691
0.983108,123.01833
1.0441141,118.65229
0.9523981,115.68866
1.0003268,113.68936
0.9787261,112.74648
0.9287938,114.2834
0.91018075,108.53873
0.96625483,110.68908
0.8847131,109.639114
0.87730503,107.59112
0.7653095,109.25654
0.7516665,107.98431
0.74100715,100.49582
0.7011959,103.17858
0.6718876,101.41386
0.5588099,97.587234
0.65267706,99.04945
0.5398094,95.7497
0.5366124,91.58037
0.511656,92.1351
0.3467278,90.79858
0.5911502,88.445984
0.3539375,88.209274
0.32349652,88.069176
0.39004052,86.39475
0.40160286,82.94125
0.36076742,84.25004
0.406894,82.861984
0.3063846,82.45749
0.29780686,77.86426
0.30182984,78.678314
0.29752162,77.14549
0.33824304,78.34813
0.24805674,77.982895
0.20233373,73.157394
0.2030533,71.40043
0.25589633,70.13359
0.18550435,74.24836
0.1703954,70.065285
0.17783289,71.58577
0.053364795,72.81049
0.057344742,73.181755
-0.04370429,66.645065
0.0143912295,72.735146
0.007942796,74.1434
-0.08474924,73.34428
-0.056790996,74.99785
-0.052521817,78.274185
0.067976326,77.9971
0.029064598,80.32746
0.08538913,83.71505
0.058364242,81.920296
0.06581518,86.40676
0.24922003,89.89357
0.26141673,91.037155
0.28939056,93.86888
0.48696566,97.23287
0.5774059,97.34252
0.64770335,99.53176
0.7849773,102.61935
0.85706514,105.8895
0.8934509,107.15215
0.9889711,113.82533
1.115425,115.9149
1.1080049,116.48232
1.1667804,112.91485
1.2081347,120.94428
1.2819403,122.487175
1.2614462,125.97645
1.2927154,121.542496
1.2810088,127.93603
1.284486,131.43112
1.3308386,131.11398
1.3728634,129.77457
1.3860972,133.0245
1.4215236,134.94
1.4666214,132.3718
1.360046,133.60583
1.2956324,134.02824
1.3421987,136.8238
1.3067547,137.32709
1.3225207,136.54674
1.2295234,135.22766
1.2606093,130.24295
1.188047,134.93474
1.1463816,129.81638
1.1876302,125.295364
1.1763488,129.6493
1.1430682,126.15636
1.1079537,128.66936
1.1563667,124.50709
1.0770211,124.92856
1.0380304,124.27389
1.0788612,125.57097
0.92344517,121.46661
1.0807246,120.384476
0.97270113,117.379684
0.96468097,116.83095
0.8969598,116.45082
0.89516526,112.91911
0.9671647,116.2631
0.89667773,114.192635
0.9892283,108.12853
0.9117519,102.3772
0.939023,107.12846
0.9563368,104.2257
0.8292519,103.37096
0.84476966,101.78788
0.626779,102.47319
0.7660044,99.10074
0.64530003,96.63472
0.60479313,97.32468
0.55034244,96.21149
0.6465372,91.25347
0.5769251,92.38997
0.525372,91.38942
0.5135733,89.28637
0.48299816,92.10154
0.49395165,90.37131
0.46290836,82.14748
0.36497453,87.94619
0.45290694,79.90833
0.41162995,82.03611
0.4118047,76.73035
0.39146677,79.62965
0.4570091,76.67069
0.41759822,77.88995
0.44521046,74.50227
0.3879031,72.5016
0.4543005,76.04986
0.3730626,72.97852
0.351467,75.64021
0.33691534,74.88839
0.37508103,74.48592
0.31529367,74.132744
0.19225812,71.33129
0.26619637,71.13357
0.11828769,69.66001
0.12916288,72.80997
0.08542402,72.200584
0.14581583,74.798836
0.14771798,75.66992
0.1513796,77.2784
0.14758849,81.13391
0.15183733,78.51251
0.24206528,85.02214
0.32714492,82.84273
0.31666407,83.88966
0.40646145,91.56653
0.54692364,91.49732
0.6542981,91.1617
0.6215746,96.93881
0.846024,99.00308
1.0268784,99.875145
0.958941,100.79157
1.0520451,105.87501
1.2017536,107.94264
1.183473,114.0081
1.2902061,109.54
1.3418257,117.33105
1.4513409,121.340065
1.4253278,119.20185
1.4872819,120.85584
1.4864949,124.55601
1.578057,126.533714
1.6759949,129.63663
1.6258754,127.252556
1.6319939,126.52322
1.6255398,129.09636
1.5666949,131.52602
1.6730628,136.31924
1.7245146,132.48474
1.6861281,133.48515
1.6979017,136.18347
1.6165676,135.06256
1.5239923,134.01485
1.5480539,136.56546
1.6452055,133.1692
1.5241927,133.11766
1.5738283,129.10335
1.440361,129.37054
1.378886,126.6681
1.3659917,128.73804
1.4335184,131.03087
1.4364026,126.49322
1.4214772,127.689026
1.3282301,129.44514
1.3037308,120.957275
1.310177,121.64816
1.3167591,122.8692
1.2872,116.95551
1.261813,118.97221
1.2844934,115.743164
1.3592243,115.62351
1.2682854,113.76601
1.300949,114.33992
1.2984923,109.47491
1.2163416,106.9255
1.2874515,108.37767
1.1758678,111.210014
1.1256973,104.91801
1.256873,105.1577
1.1845628,100.408485
1.0602599,102.08537
1.0509127,99.46105
1.0048264,96.471344
1.0861423,96.48118
1.0082605,96.237885
0.95291626,90.983
0.86869067,94.49817
0.7506493,91.34859
0.7959435,90.260826
0.75763464,88.61705
0.785685,86.74444
0.7840293,85.72954
0.83221173,83.859566
0.8673224,79.94632
0.80049866,81.927
0.7885464,80.0269
0.74590546,79.490524
0.8292557,75.53069
0.7567587,78.55744
0.7820782,77.796814
