ppg,abp
1.0136169,78.886314
1.1446788,82.16703
1.2745931,84.85105
1.4399585,87.430214
1.4375929,90.78879
1.4137288,92.17803
1.5418764,101.60916
1.5302473,98.75783
1.5821033,102.79645
1.6135451,103.48849
1.6496218,105.00316
1.629921,105.849
1.737626,107.43817
1.6965569,108.38564
1.7159051,113.68274
1.7431134,111.2436
1.758525,115.0878
1.699504,112.44465
1.6905392,110.17425
1.7509081,110.78384
1.6781939,112.467964
1.6596167,108.78631
1.5754639,114.59062
1.6284751,107.77703
1.539897,109.701
1.5490022,108.82216
1.54266,105.00588
1.4665921,103.31447
1.5675014,104.47652
1.4732851,102.02285
1.3698167,98.3012
1.3521292,95.76568
1.409828,95.858574
1.2865909,93.12461
1.3271564,89.099396
1.271969,86.918015
1.4154795,86.55176
1.2885637,90.87296
1.2389889,87.56348
1.2624367,78.68852
1.1285741,84.65298
1.2530588,78.61524
1.1173061,80.47447
1.1579349,75.45931
1.1260705,73.256935
1.1019938,71.9326
0.9944266,71.46254
0.9964512,72.82568
0.9333298,71.09247
0.8725147,66.232635
0.89332485,61.33258
0.73721117,60.662437
0.88836163,58.22816
0.8927683,53.95929
0.8106209,51.833424
0.83487517,52.962994
0.7982812,53.670403
0.8415035,52.096306
0.7960485,49.57916
0.7990128,52.870255
0.8553361,47.41527
0.8212013,43.619778
0.8855691,43.174816
0.6826379,43.763786
0.70489067,43.94947
0.553459,41.592495
0.61447716,45.69979
0.5358796,41.29339
0.548081,42.837635
0.49121374,49.32003
0.46760932,43.86903
0.38157415,44.33497
0.42821455,43.81679
0.417097,49.95896
0.5709578,52.07515
0.5025504,56.854416
0.6013621,51.430565
0.6016484,62.187042
0.8034651,57.439796
0.79183745,64.609184
0.8790939,63.12867
1.0934645,69.48759
1.2179918,73.30881
1.2637862,78.66708
1.2998712,79.873344
1.405317,87.10541
1.5678908,85.80061
1.5117342,93.56051
1.6612767,96.026215
1.8099589,95.991516
1.7895612,95.69826
1.923587,101.68097
1.8717304,107.43054
1.9796593,104.884056
1.9916546,104.639946
2.0526192,108.50547
1.9246787,111.82178
1.8899013,112.08837
1.933698,115.24978
1.8893892,110.72943
1.8920184,110.73132
1.8259816,112.46288
1.9397528,110.315384
1.8757875,110.90117
1.8866096,116.23158
1.9110516,110.8826
1.7915332,112.936874
1.7032273,102.703316
1.7184354,109.55681
1.7151223,103.79105
1.6312282,103.006134
1.6046274,103.669785
1.6682696,107.24403
1.7211949,97.57849
1.4703455,98.47365
1.5200075,96.91377
1.5662464,92.84856
1.4763771,93.316185
1.5034997,95.00841
1.5419588,88.68634
1.4778957,85.339485
1.51637,85.35332
1.4545596,82.313156
1.4478947,78.81343
1.3081928,78.24311
1.3254783,78.73651
1.2326689,74.256325
1.3398895,77.794815
1.195133,75.06866
1.0897598,70.55933
1.1620909,69.53004
0.9928176,70.12467
1.0130672,66.95844
1.0516698,60.04094
0.9444844,61.61735
0.9658575,62.218704
0.9542297,60.735046
0.9816054,55.879795
0.9338368,53.783115
0.9720842,54.197853
0.9238446,52.976578
0.9129169,52.15578
0.9384335,46.77175
0.9062113,49.66955
0.96422297,44.009098
0.845234,47.859097
0.8514349,47.491364
0.855473,47.467484
0.7540286,42.104336
0.61811835,40.0
0.7442087,40.541214
0.7105038,42.98727
0.57713646,43.971638
0.4418515,40.88064
0.43984482,47.933933
0.46431676,49.511684
0.4912256,48.381424
0.46212408,50.507637
0.36745524,57.1379
0.6138763,56.374886
0.73487467,55.924263
0.7901888,58.112522
0.80241394,66.563705
0.9427996,64.17457
1.0103871,69.95445
1.1450192,70.638664
1.2600782,75.442696
1.4243135,78.049805
1.3648902,85.25018
1.5789728,85.78085
1.6190107,91.80199
1.581693,94.84029
1.7148196,92.99645
1.7716066,95.004486
1.8428327,102.54046
1.8539822,105.00433
1.8508146,105.63207
1.9442478,102.929596
1.9375061,104.35957
1.9249959,108.013954
1.8254335,110.100914
1.958842,112.648705
1.7917165,111.23927
1.9478793,114.832726
1.856606,110.651184
1.7558801,113.34217
1.7389958,111.59977
1.7096707,111.39374
1.7507336,108.30339
1.7747827,111.44096
1.6957889,110.291534
1.6315743,105.00513
1.7062802,107.11823
1.4537727,104.38257
1.5397948,108.49025
1.4622017,98.945045
1.5222716,103.02579
1.5193403,97.44025
1.4956387,93.95752
1.453779,94.499176
1.4288882,90.67057
1.338761,93.71476
1.330897,88.23687
1.3248858,84.42429
1.3993373,90.095085
1.2177081,81.81102
1.2528849,87.791725
1.162838,81.56004
1.2623174,79.72047
1.1462692,77.59656
1.1121503,74.64194
1.0701677,73.85611
0.98669374,68.19408
1.0067959,65.52776
0.92153233,72.54166
0.8055592,69.2145
0.903226,65.71583
0.963137,59.973495
0.6290313,57.849876
0.7893487,59.477818
0.7065506,53.78672
0.7765422,56.13497
0.66613513,56.272995
0.86066395,50.741226
0.74445385,54.01043
0.7962307,48.96111
0.6728497,49.147526
0.66086215,47.713615
0.68496263,40.95718
0.6394996,42.888756
0.63099253,46.24882
0.4885101,46.61616
0.29537955,40.0
0.43292168,44.189793
0.4456346,45.370594
0.3875765,46.178642
0.3898887,43.420048
0.2700819,46.45273
0.21540248,44.047203
0.30783918,51.305
0.21411301,52.677692
0.3418698,54.28047
0.32437566,55.408615
0.48338526,55.253983
0.45666054,58.990673
0.5833898,62.95721
0.668049,65.46138
0.8123193,69.737854
0.88767153,69.37397
1.0070971,80.56384
1.0462643,81.52024
1.1291822,79.26577
1.1376497,88.41946
1.2074065,87.47434
1.3531024,94.52282
1.3950489,96.08836
1.5733619,95.566414
1.4113784,100.22469
1.6417785,104.02792
1.4947656,106.09751
1.6653188,104.0855
1.5143335,104.72575
1.6493943,104.96414
1.5389153,111.098305
1.6177288,109.58007
1.6877457,107.95033
1.549921,106.61654
1.567217,110.64399
1.6035286,115.66969
1.5461211,114.171524
1.423277,112.032936
1.4636267,111.521545
1.4381407,112.79126
1.3551686,112.364746
1.3094455,112.15592
1.3262699,106.09822
1.2940413,105.50796
1.2050225,106.13167
1.1822757,104.95822
1.2090294,104.58094
1.1554695,107.00327
1.120606,97.7504
1.161323,97.0705
1.1336203,93.50878
1.0598788,96.77933
1.071898,95.53733
1.0271386,88.23439
1.0040344,81.61036
1.06026,82.75922
1.0135386,83.88547
0.8991715,80.91497
0.96190923,80.373955
0.9167715,76.01935
0.82740974,77.35306
0.7793503,73.765205
0.7211947,72.31622
0.74265,68.38235
0.5884195,73.41323
0.6522348,70.371895
0.57963204,64.36511
0.515975,66.89561
0.50205827,64.605156
0.51109946,61.632935
0.5230424,55.47627
0.50508016,59.34618
0.42308217,52.80724
0.38883838,53.87509
0.43350002,47.61547
0.33335963,52.776714
0.42495057,48.46438
0.40392444,49.82004
0.43012744,45.211254
0.3641524,41.488903
0.3156601,46.45795
0.25339705,42.32105
0.14679316,43.559788
0.22028336,42.430878
0.12048382,41.146225
0.15052316,46.5547
0.07153201,42.00633
0.072525345,43.338745
0.066563815,47.117504
-0.1691146,48.129295
0.07784914,46.943027
0.073009714,52.265198
0.08436334,52.81657
0.17219925,58.06993
0.24058516,57.25254
0.18933359,59.548172
0.29901266,62.370407
0.43599403,68.45758
0.5383974,66.484146
0.57980263,74.69483
0.79972124,78.65905
0.9337119,84.246666
0.9375989,83.23109
1.0031714,86.83818
1.0880028,93.43883
1.1306943,93.38517
1.2538813,96.21221
1.3152044,104.54571
1.3776026,104.27376
1.3633136,106.37299
1.4288964,104.413574
1.3650391,106.13063
1.3084334,107.68773
1.4021274,107.88663
1.3936489,114.31746
1.3814286,114.869896
1.4121562,112.73591
1.3967327,115.87077
1.424651,112.80678
1.3148829,114.39721
1.2305374,113.32378
1.1964343,111.75551
1.2094685,112.15719
1.2864274,108.00441
1.1911155,105.954155
1.165471,110.789085
1.1013049,103.83101
1.1495149,105.31475
1.0549333,101.21067
1.0038426,96.372665
1.0346073,100.54462
0.90392107,99.82336
0.9481084,96.554985
0.9805037,95.91897
0.99432915,93.29536
0.93804175,90.251
0.90295535,89.4521
0.85077935,87.38351
0.941146,84.85185
0.86718005,89.471085
0.84541553,82.68015
0.78834045,80.26718
0.7970523,80.63358
0.76162565,72.90754
0.7134408,74.74748
0.63635194,71.555115
0.5012979,68.06292
0.5617088,70.06161
0.46456525,65.412346
0.42260027,65.925995
0.39794868,60.616512
0.34889397,62.025394
0.3649031,60.72212
0.3406495,58.387543
0.33938414,51.30814
0.3707589,54.853085
0.3896564,49.28334
0.21900691,49.688404
0.3457163,47.31421
0.32714123,49.799168
0.37111863,51.630016
0.3249663,48.55808
0.39686137,48.721493
0.31712872,41.141174
0.22006036,40.643837
0.11832597,46.687233
0.021479331,48.277794
0.13980918,44.13191
0.1823661,44.61069
-0.008128603,45.778366
-0.038382553,42.874027
0.026011983,43.78993
0.09729304,42.24192
-0.035158917,48.476
-0.08796491,51.933247
-0.00089405023,51.254517
0.008238223,54.990696
0.20964316,56.160847
0.18704489,61.895878
0.25871733,63.15837
0.30030712,61.447872
0.52914596,68.89736
0.61531454,71.27285
0.71303105,73.68971
0.76943785,79.52367
0.91657764,82.713486
1.075113,84.618645
1.1512915,86.423454
1.2783784,93.3848
1.2594907,98.738365
1.2356621,97.467804
1.2274811,99.89448
1.308141,101.52804
1.3003124,106.92037
1.3707567,104.47105
1.425736,109.26364
1.4855108,110.033104
1.5024359,110.48825
1.3972297,113.318054
1.481669,112.25029
1.4114801,109.566246
1.4593079,112.67469
1.5217682,111.56225
1.402136,110.77051
1.3014864,112.0329
1.3273898,110.6246
1.3275068,112.68356
1.3044044,109.32207
1.1621541,106.37543
1.2249222,108.226585
1.1438324,99.21441
1.1246588,101.199356
1.0867133,100.05136
1.1278468,97.35369
1.0774107,97.75099
1.0954182,98.53
1.0928099,95.60197
1.0756818,90.177986
1.0316736,93.93378
0.9622017,91.6305
1.09218,88.36283
1.1053071,87.43463
0.87219876,89.26532
1.0021609,86.566956
0.90818423,82.51649
0.95767397,77.51103
0.9204143,78.36274
0.83706903,74.16423
0.7662427,72.186
0.74090606,72.91855
0.57469124,72.32187
0.6583556,71.66834
0.63383985,67.250656
0.606542,64.65967
0.5915013,63.100445
0.6068948,62.17448
0.5393417,57.831005
0.49363694,56.59568
0.5758171,57.228916
0.4116014,52.376816
0.5082418,50.589687
0.54652697,48.49075
0.5090209,48.494965
0.5187351,46.788788
0.56029934,48.405632
0.43771935,47.47418
0.44689146,44.405388
0.5222443,45.33767
0.4165495,42.535732
0.34113824,42.776825
0.25560302,40.733475
0.3838,42.49692
0.32677796,41.80555
0.22984868,48.25997
0.28498113,49.774826
0.22475378,43.63409
0.26700795,53.303963
0.24551404,48.8361
0.29081592,55.439575
0.24877828,54.693756
0.33562887,59.69777
0.5257114,60.286263
0.51573336,66.99486
0.7134975,65.71675
0.74997604,69.45785
0.8480054,71.506485
0.9405189,76.36898
1.11465,84.18801
1.0586443,82.08654
1.2108244,83.38334
1.3078327,85.800865
1.3419825,95.054245
1.4464422,94.43827
1.6253604,97.22806
1.5394996,100.46278
1.5482032,99.714745
1.6447188,103.041275
1.5821183,109.545525
1.722261,106.56238
1.6600002,109.71048
1.6872541,115.13144
1.6670724,112.17408
1.7906184,118.9222
1.7161143,109.27538
1.6950297,113.08641
1.785558,115.20982
1.6652763,115.64519
1.6317824,110.89356
1.5989861,108.651985
1.5925715,113.95096
1.668594,113.903366
1.4802022,110.95632
1.5771754,104.80216
1.4040574,103.567314
1.3630241,101.75414
1.4653574,104.87872
1.3292358,99.16404
1.372854,99.52582
1.4200678,95.688866
1.3325702,94.14247
1.4119021,95.25761
1.3154029,91.58604
1.3078045,89.77105
1.3088068,89.00215
1.2601771,85.25214
1.2714761,87.3397
1.2622279,83.069115
1.2408288,82.83187
1.2085999,78.349495
1.1899612,79.60461
1.0461789,74.62915
1.110312,74.48686
1.1109998,69.153
0.96760166,67.54415
1.018921,69.48864
0.897433,66.581116
0.8397495,58.44875
0.94135857,61.185333
0.8054494,62.637745
0.84602165,56.54272
0.82199305,57.18607
0.8976958,59.31432
0.88782287,54.12712
0.8319381,53.21325
0.706433,51.443314
0.76576936,53.241875
0.79143596,50.17576
0.7828671,50.945415
0.80331624,44.070065
0.78272355,50.19462
0.77265704,45.730946
0.7444442,45.42294
0.70826554,45.331203
0.73174715,49.22182
0.4729699,44.38352
0.5105493,44.758682
0.4607599,41.69133
0.5721048,46.227398
0.50936055,46.083237
0.42486253,46.496227
0.4426941,49.58681
0.48348188,53.233593
0.6270602,49.41795
0.58984923,54.064526
0.6455658,55.638145
0.8410911,59.863403
0.84228975,64.54016
0.9708191,66.05672
1.049306,70.53777
1.2164344,74.27529
1.30538,78.22422
1.3404185,81.74251
1.4074486,81.25772
1.5604935,85.82838
1.6260266,90.93102
1.7271999,93.642914
1.7821712,99.241264
1.804768,103.38679
1.8630517,101.522354
1.8455784,97.59526
1.8538706,103.26439
2.0974436,106.66069
1.885048,109.92059
1.9986995,114.31696
1.9345422,110.41095
1.920493,110.32069
1.932749,111.544975
1.8483821,113.63103
2.0314865,112.98667
1.9660723,113.806786
1.8475981,113.0569
1.9247242,113.359474
1.8208542,106.052216
1.771943,113.03444
1.7870995,109.664
1.7971662,104.703766
1.7516303,109.40928
1.5857942,104.541245
1.6523066,105.44909
1.5233513,101.58927
1.5860381,100.19542
1.5428581,95.09763
1.4413254,94.37395
1.5338582,93.10558
1.5559651,93.1812
1.5374095,86.33451
1.4859194,88.30767
1.5248361,83.928665
1.5153984,89.65668
1.4549137,83.6769
1.4485233,81.92383
1.4317476,84.44819
1.3038704,78.46583
1.3860987,77.02791
1.2292963,75.39021
1.2088186,74.84459
1.1211231,75.69049
1.180382,69.72115
1.1548057,64.184166
0.9960635,65.233
1.0757405,65.28083
0.9288656,62.523872
0.8727351,59.3162
0.91816175,56.323082
0.9000669,55.728672
0.94843864,52.86783
0.8061496,56.708527
0.92055637,52.805847
0.9250287,51.77852
0.9658378,52.777817
0.8878111,49.15901
0.88485384,46.002644
0.95580596,48.781765
0.8096568,44.71131
0.8222141,47.738186
0.6830855,45.640644
0.6413821,43.512775
0.76830935,40.0
0.6362094,41.242325
0.63799375,42.979023
0.5461379,43.110855
0.59270144,48.652393
0.53488517,47.50525
0.57925904,48.25862
0.40796295,50.40095
0.59475046,55.12907
0.6132927,58.0651
0.67310405,57.57143
0.8449701,61.243805
0.8095061,62.565437
0.9713002,67.58051
1.0046266,67.84088
1.1882397,68.223114
1.2716396,73.14974
1.3323516,79.01169
1.4614794,82.13903
1.4466848,85.456406
1.582138,90.4413
1.6789104,94.91639
1.7681674,93.90606
1.7688788,94.14169
1.8617991,106.095375
1.8660606,105.39146
1.8682675,104.59928
1.8840387,106.55919
1.8849072,110.49739
1.8959337,111.56701
1.9696568,112.93208
1.9836812,108.71221
1.8975297,110.79771
1.791039,110.65874
1.9558216,111.72483
1.8085859,113.01001
1.8258324,115.59446
1.78334,113.02374
1.6368109,111.644135
1.7215763,111.897896
1.6440862,109.90379
1.7061067,105.85888
1.5721489,104.88394
1.5948031,107.173454
1.5143383,103.93506
1.4899136,100.59169
1.4211744,96.523705
1.3888087,93.0596
1.3905362,93.396935
1.4739889,96.77593
1.3284456,91.00377
1.3113899,85.65023
1.3651892,88.71955
1.2822198,89.32801
1.417451,87.02286
1.3433734,89.06671
1.3170433,80.84375
1.2542694,79.43328
1.2130407,78.752464
1.168608,78.99189
1.0728787,76.842224
1.0753227,73.01908
1.037722,70.32312
0.99656427,71.83635
0.86972755,68.26697
0.76701206,64.18294
0.9454539,64.201126
0.91465396,61.116158
0.7216632,61.36981
0.73990434,61.322823
0.7529128,58.76929
0.68672204,60.21848
0.70818233,52.83456
0.7116011,51.449318
0.6915468,51.06077
0.7311045,49.388103
0.69495755,51.67021
0.7414343,47.29323
0.6867864,45.594337
0.6053915,44.740612
0.5594621,41.7189
0.5583574,43.858273
0.55106926,44.89288
0.52824116,45.76888
0.39351505,44.457897
0.3616763,43.739952
0.40893793,45.240692
0.341231,45.894543
0.28160742,47.71404
0.31884363,48.604275
0.34768137,51.01501
0.36035046,52.805115
0.42495838,54.682957
0.46170598,59.39201
0.46640024,60.0557
0.5663883,62.498333
0.68595284,64.58837
0.83470356,67.18225
0.8373561,73.31899
0.9584813,76.632545
1.1002822,74.73239
1.2375009,81.697975
1.1885484,85.14116
1.3308845,89.67931
1.2839414,90.43711
1.3567826,91.51342
1.3337482,98.61831
1.5916243,102.80888
1.6112435,105.564285
1.5373446,105.108986
1.604908,109.65624
1.6261401,107.67857
1.6271794,108.66965
1.646772,109.50379
1.6530468,113.72002
1.5787944,110.55103
1.5144752,115.69386
1.5494572,117.93337
1.6134542,116.728264
1.5759478,111.31557
1.5676376,112.60102
1.5221591,115.000015
1.4014044,113.8332
1.280301,106.38571
1.3558447,107.88568
1.3338338,104.979485
1.2149228,106.28145
1.1862758,101.046844
1.1480112,101.054596
1.2343146,99.778885
1.1908611,102.33369
1.047257,101.68098
1.1070119,97.096016
1.1410891,94.86467
1.0374682,94.97976
1.1496491,90.31679
1.045665,87.716896
1.0370002,89.39017
1.0662596,84.30759
0.9657355,80.769005
0.9757688,82.632545
0.9047281,81.24076
0.9140029,78.72914
0.8478634,78.70136
0.8430214,72.94935
0.7486425,76.51131
0.7009954,67.72018
0.688626,70.973595
0.6639967,65.91818
0.60515046,66.14168
0.51920885,66.68379
0.5288642,65.608086
0.46263313,55.894817
0.5224336,54.415634
0.42599615,57.57666
0.53000134,51.7599
0.35801303,56.618496
0.4260334,54.349415
0.51043016,47.30909
0.4738484,49.51627
0.45547828,45.434788
0.4217553,45.320053
0.31525838,49.617123
0.29176563,44.75941
0.28466937,41.087307
0.21910523,41.040363
0.16140483,45.768936
0.17048469,43.788063
0.09695124,46.419533
-0.021680769,47.672665
0.07340128,44.334454
-0.043072727,47.11694
-0.06200334,49.128242
-0.06375637,49.044
0.013846808,51.73353
0.092265144,52.06949
0.17150779,52.903748
0.13125545,56.806255
0.34522897,60.681305
0.33741084,59.075527
0.44386038,64.186485
0.5642888,75.77443
0.69623744,74.53357
0.84372914,75.080475
0.9030325,80.98457
0.94108844,82.83932
1.025904,84.38491
1.0617446,86.83709
1.093351,95.411964
1.2196295,100.44843
1.1780963,97.856964
1.3647565,107.966835
1.3085752,106.55182
1.3524504,104.47193
1.2534187,103.08156
1.3111371,107.94064
1.3779037,111.11724
1.3846444,108.36671
1.3942478,111.82764
1.3728824,112.55533
1.3997633,115.85923
1.2471921,113.02762
1.2991711,116.206474
1.2068466,114.26566
1.3125597,113.07363
1.1958919,109.256874
1.2069056,109.81093
1.0519041,110.96377
1.0850743,110.54799
1.1445959,103.2695
1.0834922,100.9815
1.0764971,102.81655
1.0395766,100.945854
1.0722411,99.98468
0.9648591,100.98234
0.9798293,97.58204
0.9732637,97.52625
0.9031592,92.31094
0.90195435,93.92033
0.80816007,86.208206
0.8384694,90.080055
0.9125885,87.36587
0.7725877,78.83405
0.85735476,81.827095
0.7089184,82.77684
0.74522215,75.86815
0.70256436,78.21105
0.66619915,76.80582
0.6519657,74.38712
0.5891343,67.0525
0.559164,66.53371
0.49582487,68.806435
0.42614672,64.68939
0.38811547,63.00378
0.30290073,62.679955
0.4183934,58.075436
0.35881138,55.364857
0.3863818,56.148872
0.18202859,49.16312
0.33441767,56.822872
0.3298044,54.524906
0.32152367,51.714138
0.3670842,43.86245
0.26670283,47.3598
0.2532359,49.45392
0.20270237,42.487537
0.23958357,43.525692
0.14182317,44.181942
0.19200467,44.3774
0.11247338,40.613995
0.16284847,41.991436
0.041120023,42.122166
-0.031379197,45.699703
-0.017536944,45.316677
-0.043948576,46.500538
-0.028041951,44.338974
0.0012967853,48.90735
0.008945397,45.407177
-0.014025941,52.17601
0.13270152,55.755127
0.20613477,60.526474
0.30011174,59.368034
0.28893706,64.77029
0.50894415,68.737976
0.5773053,66.42487
0.613392,71.94052
0.7675795,76.85075
0.8035682,78.71441
0.8849719,82.65778
1.0462546,85.34729
0.99432874,90.59785
1.1724156,89.57467
1.1633531,93.81907
1.3487554,100.201096
1.3948781,100.50608
1.3504196,104.03003
1.3986111,106.37154
1.3550327,107.62411
1.4045941,111.24007
1.3756132,112.860886
1.4485548,109.32319
1.51605,110.43191
1.3958513,116.157425
1.5312735,113.436714
1.4404291,107.28113
1.4276716,113.439384
1.3908455,110.566025
1.3793721,111.02558
1.3344966,113.15159
1.233759,111.554054
1.1943607,107.102356
1.1997972,106.7844
1.256227,106.2208
1.2705883,108.17095
1.2132207,102.8518
1.1327806,102.44212
1.1368952,100.66927
1.0817245,101.67077
1.0972732,96.364
1.0334556,93.33669
0.9950604,93.45625
0.94475764,92.82274
1.085172,88.67199
0.9888247,87.06714
1.04903,84.799805
0.95143014,81.70078
1.0113267,86.00991
0.8955307,81.04392
0.8910475,81.73976
0.8037604,77.87412
0.79056084,75.45545
0.7311119,71.14033
0.7014975,74.51538
0.76657754,69.73961
0.71311724,65.18554
0.6302537,64.88432
0.56918395,59.648106
0.5921346,62.24317
0.575359,58.380222
0.5756476,58.94106
0.47202882,56.361202
0.55376494,56.302002
0.59482867,53.889206
0.42288476,49.949814
0.6040201,58.03411
0.44631934,50.2901
0.5505912,46.687977
0.4691306,43.41482
0.50127923,43.588703
0.42870817,46.93913
0.46526563,44.010838
0.35316747,42.64917
0.3953958,40.0
0.3856237,41.633484
0.29458767,46.777096
0.33616838,44.186146
0.16431808,45.33905
0.19020484,45.486763
0.19890885,46.96953
0.20195958,49.635906
0.28108412,50.627785
0.27155238,49.905895
0.34980783,55.589314
0.3450754,58.232014
0.41849887,55.72386
0.6175012,65.2328
0.6520284,67.6762
0.7191612,67.527756
0.708683,71.82261
1.0133147,75.91193
1.0822327,76.66073
1.0470172,81.2069
1.2752255,84.12841
1.2372315,89.141396
1.4740536,89.130356
1.4119179,96.15729
1.4489368,95.30673
1.5546436,96.90088
1.593191,102.64052
1.6381685,106.43121
1.7262539,108.5011
1.6388023,106.42049
1.8253027,113.24998
1.6819617,108.25952
1.6684371,111.654816
1.7351482,114.19549
1.784868,110.60063
1.6156908,108.0182
1.669907,117.792145
1.7122867,107.47893
1.7039372,109.77294
1.6329651,113.913246
1.6047728,110.28504
1.5010321,111.41877
1.5124081,111.21301
1.4076477,107.62049
1.4970686,102.35799
1.4163866,105.55553
1.443234,102.09996
1.3915751,100.344025
1.4263954,97.13822
1.3037333,100.10133
1.2732247,91.56675
1.2182127,92.03178
1.3462887,95.19585
1.4122177,91.865234
1.2780358,86.51959
1.3441489,90.72571
1.2420733,85.74676
1.286638,80.603386
1.3207315,81.246994
1.2560976,77.961365
1.2983172,80.119194
1.1064254,81.06214
1.0931709,72.98995
1.051041,73.44509
1.0272819,68.83266
1.049537,64.9849
0.9926194,63.926235
1.0063113,64.90538
0.76648045,67.4494
0.90462005,66.8975
0.8923987,59.278744
0.79796404,53.91653
0.8427318,56.51754
0.75169605,56.267963
0.83155334,49.322117
0.87178457,51.934044
0.7581535,50.010487
0.76084745,48.171516
0.768313,46.677372
0.68435335,47.52062
0.8988413,46.439693
0.6928508,44.956867
0.8136533,43.428886
0.59800637,41.628212
0.56162024,42.873825
0.5444406,41.36755
0.58541745,40.740963
0.44545245,48.41033
0.4815031,44.55559
0.5097603,42.083115
0.45268914,45.147625
0.4361249,50.989197
0.5525552,50.869457
0.640228,55.54684
0.5750309,55.448135
0.77400297,59.744972
0.85285914,62.675514
0.85101396,63.938324
1.0058094,70.17522
0.99538755,72.03754
1.1707982,77.45773
1.32507,75.207695
1.4205633,77.322876
1.4946085,85.91612
1.5542902,90.157486
1.6180594,89.85923
1.770095,93.1763
1.8537911,97.54205
1.725001,100.09928
1.88247,100.41038
1.8315883,102.764534
1.8222121,102.662575
2.0380104,111.794945
2.0186632,107.57372
1.9915831,111.06393
1.9363406,115.36275
1.9448097,112.67245
1.995057,113.62605
1.9149332,111.5183
1.9601262,115.45563
1.8764471,116.37618
1.905367,113.18902
1.886936,111.334
1.8074574,108.22957
1.7406031,115.42809
1.7569469,106.10363
1.7005455,109.24923
1.6696908,105.11914
1.6524781,100.39171
1.5443678,103.07244
1.5720216,100.32789
1.5035267,94.9994
1.6349628,100.61913
1.5671523,96.76485
1.509876,91.06054
1.5554078,94.191025
1.5935898,90.8002
1.5115262,91.81177
1.4611632,85.467255
1.4490225,83.04883
1.4619349,85.14291
1.4122243,80.37429
1.3409069,80.49227
1.3248303,78.14518
1.3018116,78.509155
1.1998881,77.659424
1.1727363,72.655594
1.1696445,72.516815
1.1583334,70.95264
1.1097507,68.4878
0.91941583,63.433144
0.9521693,63.83891
0.99690706,62.59023
1.0631478,59.3905
0.83955604,63.529335
0.93576896,57.7368
0.9367062,53.952633
0.94941944,54.840942
0.87965244,49.356213
0.8994244,52.444073
0.9007781,49.841656
0.91061854,46.308678
0.8752498,42.743996
0.9513084,48.208035
0.855191,48.95172
0.9099925,44.137127
0.85236645,40.0
0.67650425,44.45809
0.64430296,40.0
0.6970048,41.22092
0.58203095,43.558598
0.50359136,42.366085
0.43623185,48.0358
0.60264814,49.39641
0.48554057,48.03696
0.6069139,48.47391
0.53288335,53.058483
0.72393596,52.649765
0.68880266,63.923077
0.8273899,60.544224
0.89329976,61.66308
0.9402999,69.50518
0.9545103,69.88477
1.2087156,71.95876
1.2931132,76.68278
1.2992359,72.35306
1.3998216,84.94497
1.4252648,85.38571
1.5945477,90.013084
1.6728806,94.91409
1.720125,92.071304
1.7572068,95.73498
1.9057331,104.479836
1.874743,103.131805
1.8615729,105.99463
1.8769714,107.97618
1.9497406,105.37341
1.8724767,110.78813
1.8566531,112.27338
1.8921305,111.70604
1.8505074,112.89772
1.7967825,112.775826
1.8084365,113.34191
1.8595171,117.94152
1.8157334,111.0441
1.786118,109.54272
1.6776024,110.25524
1.7147002,111.43156
1.6042354,111.73683
1.5299338,108.50144
1.6067945,106.744385
1.6015209,104.46848
1.5199466,101.680534
1.5225769,100.66169
1.5300882,98.832016
1.3864447,97.9417
1.4133378,96.01227
1.4536918,96.005196
1.4037036,95.40479
1.3515809,93.10456
1.3551545,91.68933
1.3958604,88.484
1.3372009,87.44575
1.2836401,87.10002
1.241489,79.97101
1.2992518,83.452805
1.0829597,79.851845
1.0627723,75.534706
1.138141,76.69057
1.0541312,73.12802
1.1308037,68.26884
0.96483076,72.03052
1.0274904,70.84126
0.8953355,62.43834
0.8536098,65.08327
0.87369,58.331688
0.8332667,57.28822
0.69504213,60.720894
0.8069103,56.232864
0.70713884,60.030533
0.6642939,52.83518
0.7815176,53.027752
0.7545819,55.380177
0.7245855,49.06561
0.6838433,46.114033
0.5767697,46.083717
0.7338306,47.170784
0.6768657,44.266613
0.67036813,41.065662
0.66517603,47.19639
0.48873597,41.531536
0.5348324,41.820354
0.3900109,44.300533
0.4035393,42.168297
0.26241896,43.64163
0.33437163,41.184734
0.3061543,45.139378
0.25679132,51.346455
0.28707448,47.276253
0.32615954,58.27922
0.32922527,56.318966
0.44547713,55.449265
0.45921725,60.940334
0.5077355,66.61297
0.6476587,63.619186
0.6903847,65.32227
0.8329376,76.63939
0.9920823,79.337006
1.0367751,75.30361
1.1077445,82.03216
1.2564522,89.48443
1.3491983,87.85751
1.3654487,89.0779
1.4497038,97.0501
1.4501355,96.890274
1.4417274,97.354675
1.5753404,101.99884
1.6954422,101.30552
1.613482,101.61573
1.5987864,107.0538
1.5715232,108.571434
1.4840349,109.41665
1.696987,113.70694
1.5951351,112.00707
1.5040691,112.651535
1.4745924,108.22393
1.5300374,110.31621
1.6209463,111.14599
1.52123,114.29733
1.4725435,112.14363
1.394667,108.24904
1.4454845,106.995674
1.3725038,110.26818
1.3465389,107.08078
1.277163,107.18036
1.2694223,101.2557
1.1240497,101.08327
1.2326483,100.9291
1.1191055,100.78618
1.1405392,93.360016
1.1985241,94.47743
1.086647,92.82381
1.0868946,90.22992
1.1158011,89.399796
1.0591192,92.31061
1.072096,86.57274
1.0531176,81.858864
0.9500804,83.1185
0.976381,80.86264
0.9877459,79.75736
0.9665639,78.70959
0.786007,71.96323
0.7670008,78.518974
0.7606047,75.43384
0.6869321,70.55056
0.71947664,69.697975
0.65142816,65.48959
0.56199366,65.386826
0.50718737,64.11
0.53983366,62.196636
0.46493626,58.485565
0.48353243,57.409554
0.3819671,55.37227
0.4822861,49.301544
0.3849688,50.867367
0.40233296,49.51278
0.4401186,50.48295
0.44086996,51.21531
0.4011583,43.405632
0.3360642,44.658134
0.3834634,42.629
0.35156038,43.374615
0.2697452,42.14629
0.2653978,44.070786
0.24229373,43.04658
0.13865249,43.48021
0.13167302,44.75952
-0.004299481,41.6189
-0.025065906,45.28001
0.01063289,44.432285
-0.030540654,49.68383
-0.005495474,47.546276
0.001504783,48.0758
0.15595306,54.24181
0.054415565,60.27671
0.21484917,58.40504
0.28651947,65.824425
0.40543637,63.044518
0.44199014,68.013695
0.6205011,66.581154
0.6257501,81.47241
0.69086266,77.73991
0.8027923,82.52164
0.90274066,85.292175
0.97819173,86.385864
1.0385089,91.13558
1.136816,92.12311
1.2224134,97.12234
1.3693846,98.974304
1.2421929,100.619896
1.3104224,100.88875
1.4166378,104.62278
1.3785956,105.582405
1.4120687,108.07494
1.3181372,104.91386
1.3125808,116.963875
1.3217835,113.46029
1.5015848,113.45239
1.3601539,115.226776
1.3670504,114.30886
1.2053952,114.38588
1.1982088,115.51337
1.2548478,111.792175
1.1304206,113.899025
1.2222983,108.70987
1.1708956,111.7562
1.1746542,106.4207
1.0378913,103.6943
1.100924,108.401764
0.97517276,100.38937
0.9620951,99.2354
0.91021574,95.275444
0.85953414,97.72095
0.9266214,94.823616
0.9374388,97.557495
0.8971617,94.510445
0.9416095,86.777985
0.8753556,90.94767
0.8669926,89.47829
0.8954881,86.994064
0.79461116,82.58881
0.7786035,81.4399
0.8772061,84.055824
0.76944953,77.515724
0.79712754,75.8938
0.6880589,76.52226
0.6036009,73.35927
0.5804436,73.84634
0.60134923,72.83311
0.4715156,68.86726
0.597477,67.41544
0.40940383,67.3351
0.328992,64.63334
0.4090399,60.83209
0.29204848,58.14169
0.3337759,54.098442
0.29598013,54.880493
0.30678087,57.977066
0.3242698,49.053703
0.3554528,52.655823
0.22081342,51.64453
0.36131835,49.592766
0.33148947,47.86312
0.27276894,43.03054
0.26759353,43.93619
0.25385454,46.518753
0.09865089,45.613724
0.1678831,42.144096
0.057469435,42.728516
0.051269926,41.942856
0.040289167,44.342243
-0.0948936,44.25558
-0.03828065,44.71796
-0.11757445,45.170986
-0.05701417,49.005123
-0.12490068,46.905365
0.030111877,51.685265
0.08520999,58.60124
0.1761232,57.16124
0.2252529,62.8191
0.2950555,61.512672
0.381918,67.021385
0.49932286,65.86368
0.6872523,72.44397
0.59816265,76.15345
0.9370773,80.690926
0.9303602,81.5095
0.9942451,86.96541
1.1343465,89.42914
1.2621505,89.88081
1.1768112,94.07424
1.3178663,93.549866
1.4037268,100.91311
1.367131,101.55166
1.3276714,107.40725
1.5376647,107.45675
1.3752258,107.57095
1.4633273,111.51328
1.4779804,110.907845
1.3498714,113.0911
1.4549501,112.346756
1.414661,113.866684
1.4092246,108.13808
1.3627216,112.63844
1.3930917,114.052704
1.3820466,110.20069
1.3347467,106.68616
1.240647,107.072365
1.2517405,105.87135
1.1900252,109.520615
1.1322646,105.23142
1.1734204,101.397064
1.061404,96.758865
1.1584713,107.48424
1.1455742,102.31946
1.0432073,99.45928
1.08438,98.90568
1.0740197,92.17101
1.0399009,94.02316
1.0465845,93.46522
1.08513,92.22455
1.1202453,88.83083
0.9197109,85.382774
0.99855465,82.15348
0.8999021,81.25656
0.9468335,84.82968
1.06616,76.099335
0.83904254,76.47861
0.7996057,77.170525
0.8372437,78.19262
0.67962664,74.32862
0.68068403,66.45111
0.6584571,67.47093
0.6270012,66.87907
0.6270254,65.5541
0.5222227,60.167587
0.5132312,61.01007
0.59797895,55.010204
0.535147,55.129208
0.49587402,59.07793
0.5796988,54.610878
0.54158026,51.99042
0.561757,51.28989
0.56457245,48.23968
0.57908,48.477497
0.5815598,45.20954
0.5256009,49.788033
0.4938558,46.673084
0.4977538,45.535248
0.4643231,45.3483
0.44575226,40.052353
0.420571,41.15353
0.2779565,41.381775
0.21009062,48.090515
0.15925296,40.31482
0.22833167,42.998455
0.15612175,47.846436
0.30249888,47.141697
0.24136162,51.179268
0.23747896,50.556087
0.3729034,52.37847
0.43278092,57.173656
0.43054074,58.194103
0.5541498,59.12344
0.6310833,63.796085
0.8398328,67.52551
0.8692336,71.72176
0.9708781,73.283806
1.0233727,78.38427
1.1774758,80.481544
1.2497379,85.6035
1.3413411,87.0683
1.4386138,94.24489
1.3762786,94.23328
1.4792932,95.28719
1.5814247,96.0997
1.6969228,99.99038
1.5425724,104.98541
1.6803036,103.914734
1.6030067,108.81405
1.7166867,107.42265
1.7562511,112.38855
1.7844498,109.1256
1.7467698,113.53272
1.6948586,110.502556
1.7114526,115.92447
1.6430938,110.010414
1.6759313,111.569664
1.627531,109.324844
1.6359227,105.975914
1.6391401,111.11169
1.5746988,111.18742
1.5766139,113.803566
1.5518829,103.45568
1.5445043,101.66536
1.476149,105.135345
1.4461992,107.454124
1.4004816,99.35797
1.2867252,95.725136
1.2646866,98.71001
1.2584304,95.17071
1.3686574,96.75187
1.2760669,92.652756
1.3797243,92.3889
1.3497784,89.14729
1.2514505,89.56321
1.3050007,83.90017
1.2402185,84.11967
1.2673113,78.30504
1.3119584,78.25028
1.2441169,81.70038
1.1897776,76.96666
1.1069903,77.63366
1.125093,77.808365
1.075661,74.01109
0.915189,72.23866
0.96213615,66.06766
0.85433793,65.82549
0.8272187,62.499176
0.8076495,59.635315
0.8375594,62.003456
0.82274884,61.507713
0.73076266,59.608776
0.71681917,57.729134
0.72609276,51.883183
0.8417188,52.452602
0.85958815,48.754383
0.696157,43.389294
0.8307295,43.73434
0.79218435,47.27754
0.80858445,43.189724
0.7127205,41.157616
0.7329178,42.734722
0.7625053,43.98825
0.66347295,47.26672
0.5626769,45.70735
0.5618929,42.46519
0.44429106,42.91675
0.48000705,47.60412
0.5572614,43.635605
0.5169984,43.418575
0.43212146,47.676434
0.48288086,54.33125
0.6164818,53.432327
0.5954743,54.70857
0.66536915,60.61813
0.7135172,65.74693
0.84388924,61.70183
0.936456,72.42936
1.1060643,61.200165
1.2437074,72.14465
1.2243029,75.24572
1.3910533,79.03108
1.4306183,83.96208
1.5324694,83.54259
1.708299,91.10033
1.7180274,90.63182
1.8024892,95.068565
1.8285958,97.918
1.8071064,105.527084
1.7688863,100.53093
2.0018,104.71313
1.91042,107.328316
1.921037,106.49976
1.8969027,107.10154
2.0024252,111.844124
1.8688114,109.19517
1.9249923,111.359375
1.9751261,109.14021
1.9782591,111.536064
1.9367453,113.28931
1.9091944,111.93537
1.930528,112.06313
1.8063403,112.30064
1.8037887,110.091255
1.6457883,109.18973
1.7249923,106.72717
1.7091044,105.9468
1.705589,108.31007
1.5674485,109.683876
1.5693284,101.01596
1.5315408,101.64506
1.5495743,99.596214
1.499619,99.250534
1.4657176,95.248245
1.5748218,93.491066
1.4983547,93.867096
1.5255089,90.758026
1.343288,83.936035
1.449134,84.366104
1.3858511,86.56683
1.4720509,83.3389
1.4373255,82.24454
1.4007998,80.67321
1.2740872,75.02128
1.3351063,75.32995
1.2699603,74.44087
1.1554985,69.65473
1.2040933,75.95116
1.0779577,68.608246
1.1005592,68.81306
0.8945257,61.882565
0.95409095,65.36615
0.9764573,62.077156
0.98698837,56.488663
0.8932098,59.853786
0.844736,55.574062
0.91436297,53.46401
0.91455543,54.790268
0.89800704,46.8167
1.0391711,47.35988
0.9391977,46.732075
0.894263,49.550663
0.9371658,44.339214
0.7933456,45.284145
0.8596803,47.10592
0.79458064,46.002277
0.7096736,41.99655
0.65165764,42.99485
0.66378015,45.159863
0.6375111,42.711132
0.6458988,47.152836
0.491765,43.67788
0.56985444,49.260006
0.5772159,49.95661
0.5052541,50.038097
0.5211767,53.315777
0.5647108,57.593185
0.62097913,55.553143
0.64540434,65.95914
0.79392284,63.86639
1.020733,72.28266
1.0748616,65.5312
1.1946155,77.52331
1.2169098,75.9343
1.308755,75.24728
1.387076,86.21226
1.5262889,85.992775
1.5273279,88.22984
1.7757161,90.68978
1.7328919,92.87852
1.7260585,94.41019
1.7182847,101.85194
1.7942389,105.2448
1.8760365,107.51567
1.8198429,107.92138
1.8456823,108.56001
1.8666861,107.13874
1.8234423,109.74641
1.8962955,110.95374
1.8574122,114.46822
1.8275185,112.88839
1.8548906,116.41527
1.8446074,114.00785
1.9061333,109.9627
1.821955,109.6641
1.7082783,111.37381
1.7015332,108.63303
1.7643688,107.76619
1.6952364,109.6912
1.6812522,107.94351
1.7585065,101.36251
1.4151257,104.34046
1.5520747,98.61692
1.5566164,101.24076
1.4526435,99.346985
1.3787228,98.06189
1.4047152,91.701385
1.4144444,95.33864
1.3709588,91.4877
1.40544,92.05722
1.3056949,88.25837
1.2710416,86.05533
1.353349,86.92103
1.2480873,78.80746
1.2557077,78.73636
1.2218863,79.75992
1.1908786,75.6414
1.1886299,73.65113
1.0766134,72.036606
1.0388328,76.72317
0.9783386,68.17913
0.9404279,65.15122
0.9415584,61.82806
0.72450244,64.183846
0.7193997,65.60803
0.72094923,58.41042
0.71394575,60.261425
0.8251636,53.880787
0.74293804,57.97151
0.6794573,57.401432
0.80709785,56.62811
0.7532384,52.846836
0.7633797,48.353855
0.7717415,49.324596
0.731256,51.784348
0.5797738,47.903034
0.58478034,42.85428
0.56261456,47.783638
0.58995914,43.556396
0.5164,45.719807
0.40428817,40.98957
0.44751132,40.92756
0.4704587,42.493908
0.34847778,45.139015
0.33830285,45.035465
0.3288733,45.575344
0.25263336,48.299118
0.3203537,48.0187
0.28434512,52.884018
0.38814616,55.197536
0.5882038,60.225243
0.39130396,62.626556
0.5222754,60.25977
0.6896974,64.440056
0.79692113,66.19004
0.8232244,67.77429
0.9722445,80.60698
1.0642728,76.95678
1.1854588,78.960815
1.1404241,85.62436
1.2936559,89.53818
1.3559952,86.98716
1.4080491,96.89072
1.5545247,95.29542
1.4446903,99.209465
1.4993546,104.841484
1.5853351,102.8512
1.5588449,106.90398
1.598052,105.639626
1.566712,107.36782
1.7033212,112.56771
1.6436495,113.91288
1.5428804,112.40597
1.5820049,111.804474
1.5774868,113.14658
1.5651174,111.19882
1.4773312,111.29398
1.4892535,113.264175
1.523404,111.969986
1.3621055,108.340324
1.4307412,112.1467
1.3274127,113.09919
1.2912344,106.784676
1.3582195,99.849945
1.196477,103.417725
1.3126395,104.00197
1.1480865,97.34572
1.0792035,97.485275
1.0714228,97.72981
1.1132549,97.94017
1.1110855,93.54749
1.1440663,94.06893
1.0498586,90.49456
1.1037406,87.594955
1.1220769,84.155106
0.93871206,85.98992
0.9654125,84.634766
0.99160826,80.96851
0.9592223,84.934715
1.0097064,78.32103
0.8172366,77.21602
0.8397578,77.67723
0.7633719,67.07691
0.6361355,69.94767
0.70657915,70.60088
0.5031445,64.83798
0.64746714,64.17804
0.5689286,65.32044
0.51873803,61.74541
0.391784,60.298737
0.46410763,54.372425
0.4089445,58.37276
0.49607942,54.175343
0.44133863,54.828976
0.44816512,51.80495
0.29891255,50.493607
0.3927228,45.147144
0.4117364,44.098316
0.38151643,42.57831
0.21800399,44.45743
0.26704773,41.705837
0.3259916,43.059628
0.18118048,41.65866
0.1899095,43.13087
0.22593804,46.106056
0.11555681,42.96795
-0.039984565,48.233376
0.07445743,41.421364
0.0465209,48.021946
-0.008735386,48.00228
0.07336212,47.98009
0.005383903,52.408993
0.04844783,55.11632
0.11029386,53.267155
0.19554865,60.97521
0.3062725,61.819176
0.30699983,62.02562
0.45116296,67.49581
0.56052643,75.99266
0.7228416,75.528755
0.7928415,76.14109
0.9152815,79.54261
0.8759977,85.30348
1.0140213,90.367546
1.0128086,91.84562
1.2065625,91.47813
1.229787,94.78174
1.2403035,100.85418
1.3062488,103.32485
1.332836,100.97554
1.4277682,107.975586
1.3476193,110.82802
1.3373376,111.100525
1.3107386,108.65292
1.2958359,113.14232
1.3589605,107.274124
1.3832711,113.698654
1.3068819,113.3011
1.2797678,114.4809
1.3014364,116.789856
1.2319256,109.07866
1.2691406,112.673
1.2348312,109.19643
1.1369079,111.34007
1.1426997,107.1271
1.1579772,106.48241
1.1130235,107.44724
1.0006906,103.827225
0.9616909,108.00776
1.0339386,102.55586
0.91024375,100.804405
0.99742913,99.07721
0.9929577,97.44335
0.9332661,88.49153
0.9842671,91.80745
0.9304412,89.299675
0.824541,86.440895
0.96114236,88.13937
0.8531452,83.72064
0.8762149,82.75527
0.82316893,83.75613
0.7547884,80.29587
0.7000507,74.458466
0.7267904,77.53773
0.65930647,78.82896
0.6323654,70.4371
0.50401634,70.71289
0.478192,69.843834
0.44975168,68.461006
0.5385755,64.74822
0.3697327,67.72608
0.40458465,64.577614
0.29254693,62.23417
0.35190028,57.698605
0.42356706,61.021294
0.3980173,54.74691
0.3104636,53.606976
0.28886464,56.89187
0.35912645,50.68017
0.3799627,48.861034
0.34130046,46.45808
0.3592417,45.292774
0.28565186,47.203278
0.3560128,47.527576
0.17042916,41.8905
0.25146726,45.655605
0.0876239,47.758446
0.11916298,41.03712
0.059140574,43.32881
0.05446044,40.0
-0.07653259,43.42363
-0.011604888,44.23656
-0.06469435,49.7428
0.02122445,47.36085
0.07942357,51.540924
0.06465549,51.002403
-0.016356865,51.82054
0.14232595,59.515614
0.2496407,62.85681
0.26431865,66.820465
0.4709931,65.248055
0.56227744,68.04826
0.48839906,71.567116
0.62905777,76.80003
0.77104354,78.65472
0.92923814,81.90554
1.0873677,93.755165
1.1283813,87.01523
1.2353019,90.20981
1.2860512,97.8105
1.2093775,94.86585
1.3422692,100.78265
1.492048,103.66941
1.4268322,101.51194
1.4567262,103.74308
1.4962358,108.00301
1.3312017,110.95987
1.479137,112.37567
1.455366,110.60921
1.4094712,108.94666
1.3978397,115.372086
1.4047135,108.96723
1.4191546,115.93832
1.358408,111.71864
1.3212798,108.97363
1.3533766,113.312935
1.270816,108.24392
1.3796937,111.45837
1.2853726,108.78048
1.2276025,106.59302
1.2728558,102.52932
1.0801309,102.84499
1.0988407,105.81981
1.1062771,98.23047
1.0818573,96.86747
0.98839915,95.61311
1.0587369,97.31957
1.0598009,90.16983
1.0353311,88.84623
1.0830729,93.65079
1.005842,94.3467
1.0495348,86.67853
0.9849318,79.081
0.96284133,80.39086
0.8885845,83.65526
0.9846304,78.9193
0.8801446,80.828674
0.81767994,74.73436
0.8340204,72.20968
0.7941892,73.90563
0.7194303,73.423676
0.68770015,61.740395
0.5641888,67.94808
0.5608677,64.5292
0.49421564,60.15929
0.5357721,64.43115
0.53846824,59.48101
0.56400234,57.534344
0.60789394,54.518383
0.46506947,54.927982
0.63933665,53.727478
0.51579404,53.50633
0.5597197,50.163284
0.47854722,47.445522
0.4598696,45.67432
0.42155483,47.71809
0.55179876,43.98022
0.36698747,47.21079
0.38531023,46.062603
0.38970372,40.186234
0.14547196,42.263012
0.34534395,44.47042
0.23138532,40.545895
0.19705719,46.01441
0.33428648,45.197514
0.30553976,48.700798
0.2631833,51.02185
0.18088955,53.224857
0.30304486,49.481903
0.2996402,51.78619
0.45735484,61.0035
0.43895784,62.92213
0.58853805,59.306858
0.64032376,67.49916
0.70921135,65.98137
0.7622105,75.21737
0.9696431,71.62977
1.0942068,78.38014
1.1698953,81.31175
1.2402388,84.890205
1.3285271,86.214485
1.4443369,91.201904
1.5425775,89.954056
1.4478041,93.628395
1.6303867,97.958534
1.5462276,101.43516
1.6291654,105.2307
1.6234078,109.60328
1.747848,108.207954
1.6654936,106.82277
1.6744021,110.53361
1.6460441,111.64006
1.725439,109.66415
1.7441958,111.43559
1.6971358,113.95815
1.7508458,117.19786
1.6380972,119.635765
1.6620481,115.766556
1.6034341,113.37509
1.5718794,108.308495
1.6436903,112.44196
1.5278668,108.20241
1.4924494,106.85751
1.4627748,106.86829
1.477413,105.63719
1.392381,108.92842
1.3895562,96.322365
1.2970915,101.97154
1.4317518,96.23063
1.2864833,95.672585
1.3567499,92.14219
1.2990148,94.57028
1.3647494,91.51548
1.320617,88.91412
1.3965652,85.800064
1.2722188,84.70187
1.2121485,84.31301
1.1802427,78.48762
1.2593085,77.67723
1.1690371,75.33822
1.1690428,75.796486
1.070482,76.70692
1.0821803,69.10041
1.0433977,73.33798
0.95599896,68.783966
0.90421754,68.53233
0.81618387,61.21175
0.84958833,64.140114
0.8351141,65.463554
0.8735725,61.674976
0.83921874,59.007694
0.80279845,51.884735
0.7743448,53.84818
0.8872086,56.152027
0.834818,51.578686
0.7900106,46.573807
0.7562092,51.27514
0.6936446,46.63016
0.7151263,47.082035
0.7523272,47.661736
0.7582273,43.054302
0.76601404,42.839592
0.6867673,47.65769
0.5838775,44.00563
0.54426974,43.01386
0.5883362,42.011875
0.4974974,43.48067
0.3914612,47.653286
0.46080187,48.453217
0.47853643,47.79937
0.4978876,48.977985
0.61227477,51.34266
0.6415733,60.20753
0.6861632,56.62978
0.6132209,61.380047
0.7839848,59.381126
0.9271384,63.840546
0.99823964,66.01576
1.0232658,67.8357
1.1876845,74.26913
1.2451628,76.78944
1.3213664,76.24024
1.442091,84.61809
1.5353081,86.65255
1.7117056,90.35101
1.662185,94.07997
1.7862344,101.069824
1.8397088,100.07882
1.8098047,103.56849
1.7530848,106.16522
1.9012564,107.15046
1.9650779,104.98127
2.0003088,112.77418
1.913531,112.43586
1.9389437,107.773636
1.9677839,114.50169
1.9817089,110.37252
1.9742976,116.10157
1.8786869,108.7277
1.9896134,111.37328
1.8558654,109.287766
1.8038936,111.75538
1.8150513,112.51954
1.672323,110.67115
1.7186185,106.61105
1.6457504,112.39855
1.6672817,104.96108
1.699311,103.38118
1.5005559,99.762535
1.6290482,99.49988
1.711975,100.119865
1.549528,96.13027
1.5407339,94.496826
1.4515805,94.08327
1.6665114,91.79508
1.6493529,95.172844
1.4291004,87.32338
1.5150466,88.18144
1.4651164,83.51129
1.4041342,85.711494
1.3636546,79.53638
1.3839399,84.11951
1.3513026,75.66182
1.2981744,79.896645
1.2895265,75.01418
1.235838,74.06066
1.1774517,73.60694
1.1188843,71.48148
1.0899869,65.41402
0.96861476,64.37292
1.0103904,63.30845
0.94937927,65.15857
0.92576647,57.20898
0.97415125,58.47273
0.94498,56.723263
0.9674878,55.70988
0.970699,52.489265
0.9129275,49.019062
0.90771276,51.347595
0.91867304,49.411728
0.84348434,45.62009
0.89199495,41.043087
0.77003586,45.302845
0.81775707,46.899883
0.7225973,44.08769
0.734007,43.32291
0.7640063,40.0
0.76908934,40.041157
0.5660471,41.945477
0.5906419,41.16738
0.5165711,48.8126
0.4990687,44.673088
0.49312,48.297745
0.47800356,51.456417
0.5982577,51.508278
0.5866039,54.614895
0.6740443,54.929504
0.6561552,58.7337
0.7988051,60.831207
0.83842456,62.10434
0.88555855,64.01711
1.053008,72.48829
1.1724602,75.62946
1.3388952,76.25164
1.2414533,78.03079
1.4715633,81.39104
1.522686,88.423355
1.6146578,88.07988
1.6473305,88.79086
1.7207693,99.12343
1.7952269,98.45026
1.7699245,96.681694
1.9020449,107.6273
1.7595303,104.0835
1.8955622,107.03332
1.8309734,104.24713
1.8630803,109.834816
1.9367713,109.369606
1.8984175,112.292885
1.9323459,116.113846
1.93062,114.385414
1.9114416,111.16658
1.693802,113.38481
1.6605897,112.93903
1.7600434,112.48613
1.7192639,112.49914
1.7485629,112.568405
1.6286864,110.48235
1.6015073,108.6645
1.6174408,109.08682
1.6101497,108.21788
1.5419247,102.20968
1.4606564,105.19474
1.3620569,100.94475
1.4858665,102.304115
1.4259151,97.80225
1.4249486,95.43352
1.3533528,90.52716
1.3222152,91.73612
1.3434199,85.97353
1.3135757,83.55002
1.2477007,85.74556
1.3131346,82.00873
1.2447728,79.708
1.3064269,77.09851
1.1920241,82.14513
1.2321236,76.79838
1.1114306,77.08512
1.0971098,74.20882
0.967144,70.98476
0.9614084,68.04972
0.9073461,75.83567
0.8480305,68.5064
0.83863366,68.441025
0.8711891,60.72398
0.79827505,60.323177
0.6914447,57.782146
0.6947575,55.12349
0.7495469,55.019035
0.7161245,49.433792
0.68122375,53.97469
0.72341603,56.181885
0.635975,54.11894
0.77604204,43.747585
0.70864415,48.94067
0.7288986,44.37265
0.6184771,44.93688
0.5351395,46.06658
0.61134595,50.924427
0.56178004,47.117767
0.4972487,42.5419
0.43358544,43.145954
0.40075228,49.186676
0.3949052,45.752598
0.32675308,44.42969
0.2674065,48.33981
0.22468068,45.691032
0.24585494,49.70434
0.3950005,52.554764
0.35573047,55.08468
0.46185282,55.41572
0.51966834,56.842278
0.48410943,62.904816
0.670304,68.6593
0.7385881,69.97866
0.82549906,70.296486
0.97264427,76.73717
1.0562416,79.5934
1.2227148,81.60285
1.0828829,86.50148
1.2352549,86.81716
1.4451635,92.64711
1.4696972,97.08788
1.5026437,96.640236
1.5488538,101.0232
1.5389684,103.58041
1.5150127,104.14031
1.5721668,104.34324
1.6374421,106.619896
1.5382776,110.80632
1.5225985,112.258125
1.5989511,116.35988
1.7298678,116.922005
1.5361605,111.88764
1.6313865,113.94909
1.489716,112.83132
1.4713594,116.67739
1.5025262,117.4526
1.4198506,113.123116
1.3642079,106.097885
1.4622108,111.56536
1.286021,106.74555
1.2740897,105.2843
1.2491899,104.78864
1.2585304,101.08626
1.2990769,104.41091
1.188636,99.35724
1.093491,101.05176
1.1236317,95.189354
1.1482106,97.90929
1.0176053,93.53605
1.039406,88.59801
1.1158,87.14094
1.008068,89.55678
1.002697,84.002
1.0273346,85.26597
1.0030882,81.70045
0.93946403,79.67805
0.9679939,77.67801
0.7859602,79.3101
0.8258894,73.91635
0.7649697,71.516266
0.68307567,72.95697
0.61279404,74.66092
0.63404256,72.0833
0.6169461,63.110725
0.6056704,67.65383
0.4593492,62.69493
0.5155575,65.438065
0.5075161,57.920452
0.46361384,60.547497
0.4764919,56.859783
0.4753257,56.986637
0.41733778,51.82466
0.40951836,48.514458
0.3980251,50.588043
0.39452824,54.89822
0.37258315,48.9102
0.36399627,44.849926
0.3198863,42.139988
0.39364105,41.641453
0.2187372,46.790043
0.17685658,42.002377
0.11282349,40.87976
0.16079892,48.072365
0.062037382,41.35509
0.047962695,41.203583
0.024118118,47.171207
0.008286429,44.867367
0.012204203,45.772903
0.011085289,49.106136
-0.028584072,49.751804
0.10849643,52.24808
0.14022334,55.95922
0.26031536,58.951824
0.25514546,62.04399
0.35095182,67.974434
0.48041472,64.46333
0.53867215,67.91728
0.6360613,76.41345
0.67991245,76.295906
0.92926985,80.63974
0.9730806,83.65295
1.07424,86.39151
1.0676013,88.92021
1.2277751,90.504585
1.3306015,93.853615
1.2051821,99.41487
1.325067,101.33455
1.2915585,103.46898
1.3270905,104.9286
1.2663885,106.038055
1.4305518,111.92264
1.3831518,112.21689
1.3775294,107.987465
1.4335171,112.458244
1.3737388,113.481865
1.3286573,117.26747
1.3359865,113.72365
1.2125096,109.28035
1.2176355,113.66267
1.2133538,115.16378
1.190473,110.4889
1.1896275,108.983864
1.1743479,110.05399
1.1614578,105.608025
1.1512331,105.13844
1.0184929,103.1895
0.9585184,103.00287
0.98202866,106.62094
0.9851751,101.453766
0.9735983,103.72993
0.9205514,96.38189
0.86190474,93.59183
0.86849904,90.3746
0.94557834,89.44294
0.9356355,92.00988
1.0044254,89.185074
0.85736775,85.42447
0.8484819,84.94532
0.7934102,79.92232
0.79464686,74.397446
0.7915514,78.47741
0.7200209,76.58387
0.62249887,78.61922
0.5798338,73.594376
0.6366015,70.35609
0.41573685,70.386635
0.42597649,66.30116
0.34947532,64.18828
0.38359255,71.21421
0.38751653,60.629456
0.43998885,61.96416
0.33804554,57.719654
0.43369287,58.928886
0.35899895,54.31853
0.40598896,56.02063
0.29871494,53.098034
0.36637902,48.873573
0.2798151,49.589077
0.3058701,51.12378
0.20662083,48.555794
0.24154033,44.823067
0.118828416,41.66217
0.26478642,46.82035
0.24044225,40.0
0.14207548,40.0
0.093443364,40.0
0.07491954,40.0
-0.0847421,44.35389
0.06612457,40.905235
-0.12986788,46.018246
0.031993147,47.617683
-0.07614318,48.575573
0.026695112,49.73169
0.08027803,51.920746
0.05973092,52.42358
0.16649765,52.631832
0.21684365,60.580624
0.31817168,57.4705
0.46982914,69.04146
0.6401734,71.73912
0.53664654,72.6574
0.7577057,72.40681
0.86508656,79.060905
0.8977566,82.67622
1.0465666,86.03753
1.1492062,91.61082
1.0894709,92.36603
1.1782364,98.28214
1.3321799,99.45633
1.3014938,97.64718
1.3059844,104.29079
1.3965673,105.97866
1.3288028,105.59229
1.3680131,104.89374
1.4132835,109.04457
1.3740716,106.17036
1.4567518,113.25252
1.4443389,111.117
1.303121,115.98567
1.4385182,115.220276
1.3405942,112.18368
1.3579292,108.24621
1.190406,108.92136
1.3387902,113.91341
1.2844503,108.03387
1.2856252,110.618614
1.2271165,109.59004
1.1876395,105.46366
1.2150501,108.130745
1.0655211,102.405846
1.077889,103.76276
1.1088836,101.51706
1.0082119,95.84932
1.0660448,101.20963
1.0304494,96.12479
1.0009785,92.73717
1.0537562,87.02683
1.0287712,90.16927
1.0892586,86.48504
1.0336741,83.49975
0.9903629,82.11839
0.9667409,81.35698
0.96290755,83.58644
0.9904361,77.34405
0.7998869,77.22091
0.76319635,75.705086
0.74974716,83.00072
0.6943601,71.550835
0.65065,71.864105
0.5731317,66.43057
0.5998726,65.60594
0.51177275,61.014977
0.5872978,63.292545
0.52149,61.709988
0.60701066,56.837265
0.5946475,56.046482
0.4540949,55.435753
0.5144959,58.328384
0.49294344,50.351677
0.5054106,53.98578
0.57291144,47.08234
0.52772844,46.406395
0.56169516,40.073265
0.4190147,50.786312
0.5483775,50.228302
0.49377292,40.71527
0.49072167,42.6185
0.3525411,44.242447
0.29418913,40.0
0.2869916,44.778854
0.21063471,45.39455
0.3136699,46.562897
0.18342084,48.850067
0.19996595,42.951897
0.123468004,43.8792
0.28475335,49.551224
0.28524378,53.50923
0.3281127,54.76734
0.39555126,57.59207
0.4768124,61.14194
0.53467107,62.148193
0.6485495,64.00426
0.78853095,66.63063
0.80395126,68.074104
0.93523574,75.93465
1.158536,75.080765
1.188275,87.20895
1.1983436,84.832886
1.3188032,89.286446
1.3755381,91.048386
1.521005,91.80606
1.603581,94.794464
1.5591048,102.92897
1.6391156,102.28499
1.5604062,101.37432
1.6560506,102.39255
1.6565398,103.785614
1.67821,115.44429
1.6091076,105.28709
1.6993226,108.479385
1.7756182,112.49248
1.7536,114.21599
1.6934192,114.40432
1.7029548,114.90534
1.6347862,113.46821
1.6853497,115.92683
1.6042106,112.13826
1.6012461,113.520454
1.470986,115.31729
1.5797427,111.36577
1.4436545,110.53764
1.5910462,105.35861
1.4502618,104.39031
1.386351,101.40319
1.4169419,95.80682
1.3674922,98.63437
1.2957408,100.59043
1.3678216,95.052345
1.2870802,94.22927
1.3449664,89.255615
1.3649067,92.047806
1.428799,88.19964
1.2951297,89.44229
1.2186574,87.04297
1.2894408,85.74051
1.1560595,78.3839
1.2113531,82.945564
1.1034352,81.87385
1.1181436,77.50045
1.1645511,75.00504
1.1300123,70.24664
0.9759822,66.42018
0.9592119,68.60055
0.94972324,63.305683
0.90536886,63.246124
0.876661,61.953564
0.80492675,60.85961
0.75990224,58.44211
0.78668845,58.48668
0.86586046,55.91231
0.83851945,53.083385
0.82104546,53.42482
0.75937253,54.247765
0.8508688,50.68952
0.744464,49.416653
0.8224877,45.07296
0.8123784,48.100418
0.85153836,44.218
0.6423844,42.746906
0.63467896,43.91858
0.65833735,46.977673
0.6621959,46.562794
0.6290973,45.300957
0.6009797,40.871895
0.47349113,44.652576
0.5552148,47.218254
0.45528328,45.54753
0.41372123,44.710083
0.52760214,49.745213
0.45016134,51.983456
0.50522923,52.649357
0.63908184,53.029873
0.6393708,57.095936
0.7850315,60.35849
0.90381235,63.722763
0.9950298,71.48018
1.0136558,72.00258
1.200552,74.81484
1.2869674,78.594025
1.3611788,80.1487
1.5234373,86.86736
1.5499806,89.368034
1.6496235,88.44458
1.7726344,92.32089
1.7906939,98.683464
1.7306353,105.03758
1.8766922,99.66154
1.8866701,99.58576
1.9253452,109.319214
1.7877917,106.2052
1.8160019,106.30904
1.9397768,109.1512
1.9270762,112.11518
1.9752147,114.51613
1.9503899,113.35872
1.8514905,114.2238
1.9203657,112.22943
1.8474332,113.59788
1.8151444,111.68828
1.8546302,109.118164
1.873504,112.60596
1.8672175,111.270386
1.7348025,109.2203
1.8070556,104.638054
1.6548415,105.6906
1.6353757,107.671486
1.594437,106.50338
1.5606263,101.29902
1.5586998,100.170944
1.484163,100.50953
1.4873315,97.203926
1.5530055,94.62852
1.5455754,91.20474
1.5419031,92.388535
1.4633229,89.6446
1.4711962,90.58642
1.4305094,84.801125
1.3564322,81.71603
1.4092882,81.39364
1.455647,78.97551
1.2447703,75.08178
1.2452891,74.81414
1.3028327,74.10811
1.1948007,77.23214
1.2243413,76.71379
1.0242962,73.86733
1.0332261,64.22201
1.1079433,67.55753
0.95651466,62.54469
0.9396115,65.48418
1.0067738,57.4941
0.88891774,55.346336
1.0029333,57.580788
0.91790575,52.974216
0.9101649,48.66156
0.9027808,50.564995
0.95899147,47.76615
0.9993972,47.313305
0.88927895,50.975468
0.86565036,48.29886
0.93214935,44.666504
0.76730037,41.595562
0.7505868,44.13213
0.7616717,45.40344
0.6962105,40.352642
0.6889099,41.949215
0.6565097,48.762974
0.5382299,46.601353
0.55288935,43.550907
0.5734651,46.7686
0.57956165,51.328426
0.5816523,46.37664
0.5443059,50.016773
0.6180572,48.136158
0.6436037,54.717834
0.70565474,60.3429
0.75163746,58.082737
0.999369,64.11031
0.9484023,68.025955
1.0225942,67.134384
1.1352991,71.844536
1.2453808,75.6863
1.3035831,78.69845
1.428665,81.20206
1.5434457,87.12106
1.5700613,88.42329
1.6751347,90.66975
1.7970178,97.48195
1.7826,99.642265
1.8559293,99.53608
1.7642885,100.24182
1.8302343,105.52826
1.8135113,105.84889
1.9820185,110.74458
1.9790673,114.05711
1.8269281,107.63537
1.932533,116.95042
1.8828319,110.46026
1.9589379,111.41686
1.813192,112.990814
1.7006342,113.92388
1.7377381,112.69036
1.6603808,106.82263
1.7974291,109.6091
1.739417,108.285
1.6370816,108.45697
1.6409574,107.09965
1.6133381,103.8722
1.5046055,105.825554
1.5279131,103.74417
1.541519,99.57263
1.488429,101.48622
1.4856119,97.73218
1.505907,99.76605
1.3140504,92.36044
1.4455819,89.93659
1.3131633,89.30034
1.3610024,88.512085
1.3969916,84.523155
1.3722069,87.38296
1.3142207,79.84921
1.194222,86.47827
1.3116704,80.170815
1.1410778,78.182365
1.1790804,80.69181
1.071629,75.33284
1.0226505,72.87874
1.0886557,72.96716
0.99942815,69.13165
0.99764055,70.43869
0.8558938,68.27411
0.8310336,60.74298
0.7538795,60.147923
0.8486577,60.18575
0.7529529,60.49444
0.7767094,59.37981
0.8114418,55.497524
0.7534693,55.082596
0.723133,55.601357
0.7305091,50.71746
0.67795956,50.04518
0.6029574,48.921185
0.6505007,43.365566
0.6633169,46.233604
0.6809353,43.39423
0.65916777,42.01559
0.51305515,48.15896
0.49336112,45.685555
0.4524565,41.035526
0.4954907,42.77871
0.35118967,45.041115
0.37744904,42.4744
0.32751828,44.79897
0.29185164,46.76713
0.27477378,43.56684
0.38480547,49.383976
0.29650098,49.53442
0.43213105,51.22896
0.44085002,57.071507
0.43245617,55.37404
0.6441815,64.6659
0.6674603,66.56623
0.7491601,72.19047
0.918336,71.38827
0.9869372,72.579346
1.0381888,77.67644
1.1162548,81.40031
1.1950511,87.63098
1.3308238,85.92395
1.397211,92.396194
1.5002832,91.8104
1.488071,92.32491
1.4972398,102.45013
1.630577,104.742165
1.6136231,106.30735
1.5555426,107.34049
1.6076008,105.36153
1.590731,110.06474
1.6938974,110.22955
1.5555735,117.28347
1.5883374,113.70892
1.5947269,110.94416
1.5392828,112.974205
1.5579312,115.517456
1.4994726,112.990585
1.4876599,114.87326
1.5206577,111.08148
1.4803004,110.08411
1.4383625,109.32533
1.3382319,107.97909
1.2922796,109.36942
1.2590626,106.55226
1.2757938,103.781624
1.1730924,100.67924
1.0976231,97.53285
1.2150307,102.958275
1.0594208,100.31583
1.328099,98.41496
1.1175499,93.36362
1.0075915,91.7452
0.9519877,92.72778
1.0567497,89.522804
1.0981894,91.425674
0.96796495,80.48173
0.9417393,85.525566
0.8859736,82.21885
0.8662408,78.88649
0.8165842,74.08534
0.83994687,77.30289
0.67186964,70.358986
0.7345827,72.449875
0.6553023,67.90404
0.6319614,68.4233
0.5308,68.25092
0.5651011,69.16461
0.4534278,64.14269
0.5647069,66.87412
0.42368194,56.253418
0.4503358,56.31575
0.48501483,56.68411
0.36932123,54.662155
0.5417906,57.70373
0.35877344,48.408913
0.33089817,50.121048
0.4655391,46.599335
0.4482129,49.54439
0.38578016,44.093014
0.32284138,40.0
0.3871005,40.78413
0.3603779,40.7333
0.22907755,41.05311
0.2258484,43.24151
0.1655836,41.448254
0.0946585,40.665405
0.08894556,41.191154
0.02594225,43.09757
0.0074629053,47.176533
-0.028336648,44.0933
0.09732478,51.175995
0.027739348,52.261593
0.109764636,55.24095
0.10431367,57.157017
0.2504957,61.374184
0.22085758,63.338337
0.42683393,64.88008
0.52649564,65.69747
0.5952327,73.62474
0.6748061,77.8024
0.8394578,77.969376
0.8712619,78.92763
1.0013169,82.086105
1.0277568,87.632355
1.1649197,93.38691
1.1714255,90.490326
1.2252219,99.67605
1.2808594,98.92586
1.3139156,103.3698
1.2727549,106.78145
1.3600924,108.03057
1.4118332,105.33136
1.4373066,111.646385
1.333287,112.796844
1.4114599,112.45881
1.3615514,110.37349
1.2950934,114.25658
1.3612602,112.80116
1.279505,113.43027
1.3112643,112.53079
1.2706765,109.41499
1.2848494,112.814766
1.1896884,112.5421
1.1523566,109.29726
1.0935712,109.21143
0.9881955,106.44634
1.0992903,104.43806
1.1246926,100.80708
1.0268376,101.02901
0.90948343,103.47956
0.9454833,100.2012
0.9204155,102.15844
0.9561839,93.947
0.91692114,93.88228
0.94801843,91.436806
0.9912827,89.82139
0.8883788,86.97204
0.9210037,90.30557
0.8573896,83.16394
0.85932356,82.87558
0.85832953,86.925285
0.79284334,76.60467
0.7809439,78.7369
0.78548205,76.25652
0.7308834,71.84969
0.61637104,75.45756
0.5812984,71.22658
0.5959978,68.72708
0.44729504,65.28288
0.47394982,62.049713
0.42388666,64.8258
0.41734785,58.614487
0.37152073,60.031605
0.42434388,60.95428
0.36888564,55.350967
0.2997975,54.182972
0.39565328,55.321774
0.24167736,49.257946
0.45780697,54.1106
0.34433544,45.646088
0.28855425,49.49701
0.3816531,46.91111
0.34820622,40.0
0.15796885,45.53675
0.22028142,44.891304
0.13922575,41.85302
0.054917928,44.170746
0.18175109,42.264
0.12873276,41.514557
0.010871936,47.571133
0.0130321095,42.796562
0.008703911,45.950657
-0.13228278,47.804863
0.018027201,50.9115
-0.04548228,51.05471
-0.06683074,55.330093
0.048258964,53.344837
0.17729665,51.900845
0.20437202,58.339455
0.28321743,67.20711
0.464742,69.11168
0.52315384,71.74955
0.64443654,76.78549
0.79614973,76.95645
0.80409694,82.51641
0.9293105,82.69465
1.0445318,84.12499
1.0919404,90.423485
1.2376634,98.50975
1.3162982,98.217995
1.2842505,98.58885
1.3045472,97.9913
1.2655442,102.76665
1.3799391,102.18434
1.3993962,105.65037
1.3942348,107.72051
1.3894297,111.40904
1.4910659,109.28004
1.3844057,114.05759
1.4343624,111.59416
1.4586151,111.73059
1.3783804,117.95205
1.3734047,118.84789
1.42759,112.7178
1.332139,108.91176
1.3501214,114.05522
1.2204225,110.61982
1.2020973,109.188446
1.2360185,107.25541
1.230577,111.526245
1.280854,106.40941
1.2970369,102.101524
1.1029367,97.35019
1.1513152,100.90922
1.1278427,100.424255
1.1316115,101.18442
1.0482281,91.19738
1.0917401,89.17987
1.12247,95.2708
1.0528404,88.00619
0.9446126,86.04348
1.0581514,89.821236
1.004748,91.532616
1.0063967,83.952286
0.9359089,80.578255
1.0279286,81.78148
0.9110801,80.71353
0.85859036,73.90585
0.80295026,77.3786
0.73654264,72.374825
0.7339013,68.54277
0.6658879,61.944973
0.6234512,64.24588
0.58500624,66.34278
0.5736189,66.267586
0.5526654,59.187523
0.58463836,59.31831
0.50820726,60.28438
0.5991763,54.61693
0.57266843,52.590748
0.5270706,52.796402
0.5433484,48.839195
0.49324578,55.415485
0.4458178,46.72231
0.5764177,48.735428
0.45598522,43.71417
0.49333176,44.52012
0.40429652,43.173218
0.4480956,44.977577
0.45494896,40.0
0.2512323,45.35992
0.26398787,41.634842
0.22154993,43.557487
0.26296517,42.999966
0.2542263,43.35369
0.24103685,51.60001
0.17216772,45.51252
0.14699207,50.945316
0.23235443,52.89775
0.307961,51.50429
0.3747203,55.86614
0.3800269,60.06296
0.53300995,62.19598
0.708153,70.66487
0.62437814,73.57377
0.84549594,77.74166
0.8936792,77.13859
1.0251981,81.06072
1.1397892,80.56167
1.3091538,81.782265
1.3199837,85.16304
1.3207802,90.037926
1.364449,96.310165
1.4246846,96.15298
1.513203,100.81142
1.7042595,100.64412
1.5717192,105.54712
1.6751169,108.99862
1.6486118,109.323166
1.6657273,110.597725
1.688875,110.14588
1.692949,113.163086
1.7308356,110.26539
1.7651644,112.033554
1.7541033,112.89659
1.6172838,116.522385
1.6408736,115.15756
1.6514081,113.04551
1.6535258,109.47271
1.6036146,109.97022
1.4758499,108.85662
1.5547462,109.25203
1.5424666,108.31254
1.4318541,102.574715
1.3559203,101.92112
1.4105465,101.32925
1.3731561,97.61687
1.4572778,98.380806
1.3376426,96.756096
1.4392275,94.007034
1.3587688,93.9452
1.2764794,91.72445
1.3191499,85.729454
1.2614652,89.58629
1.2625571,84.991486
1.3882914,84.34936
1.1458476,81.88055
1.1831611,83.319374
1.2365603,79.56817
1.1177307,78.50854
1.155494,75.90369
1.0896099,72.87593
1.1466967,71.11132
0.95110774,71.612404
1.0041486,67.44063
0.89674574,69.56014
0.9108779,63.06475
0.84551686,66.0925
0.9283613,63.648758
0.745636,56.38851
0.8213771,58.63904
0.7868252,51.70896
0.8563667,51.662174
0.83425015,55.28702
0.8056951,47.74339
0.87990534,56.279636
0.80248576,50.6399
0.8530756,45.920956
0.8358036,41.36682
0.7108043,46.159027
0.7964318,43.65063
0.7132119,44.86566
0.68095773,43.172478
0.7148225,47.556564
0.6688556,41.314987
0.5308217,40.0
0.5060045,46.680058
0.4778447,43.034695
0.5736496,41.342358
0.4696257,48.21056
0.4922556,42.921978
0.566783,51.87264
0.60166174,51.773857
0.65976995,58.924736
0.644458,58.16472
0.66908634,59.868706
0.9540819,63.096157
0.95926553,72.71594
1.1376361,72.48083
1.1367154,76.12886
1.131489,79.9571
1.3913468,79.39733
1.4489259,86.45737
1.6117424,89.28371
1.5985262,90.70239
1.6969042,87.30452
1.7508571,98.21493
1.8351175,99.40214
1.9154818,101.71183
1.7738822,101.58324
1.9536064,104.444305
2.0649948,107.94016
1.9995989,108.99433
2.053333,114.00069
1.8859769,110.90887
1.9822671,116.911896
2.052529,109.43518
1.9074507,109.643906
1.9999013,115.299164
1.9051788,114.5564
1.8665528,111.092155
1.8980972,114.95928
1.7826964,112.56891
1.8163856,106.645035
1.7394851,107.740616
1.7068442,111.85789
1.6977144,105.9291
1.6717396,104.38142
1.5632231,99.895226
1.5116664,105.367424
1.6624888,97.50768
1.56269,91.98967
1.63617,98.69313
1.562623,95.2099
1.3871503,92.19224
1.5307372,89.496826
1.5467863,86.1588
1.503541,89.49451
1.4258589,87.39112
1.4000213,89.84179
1.4837513,82.65673
1.3560463,79.55926
1.247136,78.346985
1.220093,78.39005
1.2338979,79.59765
1.1868284,72.28054
1.1940901,66.60057
1.1097215,65.3724
1.065349,65.83228
1.1568322,68.17108
1.0591712,58.327427
1.0061737,64.06941
0.9831453,62.10286
1.0124389,59.91673
1.0244918,57.486214
0.91102517,51.846237
0.8931228,52.7438
0.9375849,47.57376
0.8323923,48.469093
0.8804838,50.507015
0.84785825,47.34484
0.88352567,45.11888
0.9305533,47.13752
0.88090646,44.4259
0.75253654,44.902275
0.77217937,45.848392
0.71012014,45.799515
0.66810143,43.99913
0.68781406,42.188103
0.6561119,45.32338
0.5220602,42.62095
0.5557455,41.80302
0.49438986,44.936615
0.4606847,48.672955
0.5881255,50.307243
0.57471645,51.557507
0.5776766,55.470413
0.6257637,57.344
0.63015455,60.578255
1.0184873,61.287315
0.9173875,63.27726
1.0352086,69.01285
1.1669159,73.27527
1.2163568,76.33856
1.3047786,78.50813
1.4206378,82.020676
1.5910459,85.645195
1.5514392,92.61862
1.6542245,89.68669
1.7057067,97.03895
1.7462362,96.5494
1.853303,99.4246
1.7960448,100.23035
1.8807713,106.26875
1.9603816,108.69162
1.8730254,103.94063
1.8729858,108.23937
1.8678384,108.493034
1.9566787,110.059
1.8752395,111.00226
1.9213667,117.227104
1.8280499,106.75086
1.7789633,110.84786
1.801998,112.18824
1.830674,109.553665
1.6885582,111.04449
1.7405305,113.42678
1.5797856,106.543816
1.6869671,106.173744
1.5747306,102.963165
1.6366475,102.917694
1.5167015,103.428375
1.5040934,99.06466
1.4770663,100.06205
1.415193,101.21452
1.4010739,100.58511
1.3129619,96.090866
1.3523917,93.830055
1.3585393,90.442566
1.3892016,92.210655
1.3093027,86.18594
1.3755244,86.795235
1.3772393,87.083565
1.2324258,86.170784
1.2679042,80.92419
1.124597,79.18865
1.1042585,74.12109
1.254093,74.235916
1.0322165,74.78707
1.0911076,73.72489
0.99677444,72.94162
0.9824392,64.85366
0.9279825,68.43841
0.79187113,67.139694
0.8074398,62.85891
0.87148565,55.305195
0.8637106,59.67079
0.7472799,62.796646
0.7327663,56.8899
0.6824669,57.05734
0.73883295,56.4686
0.699982,57.20854
0.70784885,48.223034
0.6521228,50.214455
0.60925126,49.58793
0.731433,45.191788
0.5695095,42.804333
0.55617356,43.01
0.57962334,41.806747
0.5233625,44.018948
0.4419054,45.45795
0.45752728,46.814453
0.37974054,40.0
0.40092564,48.172028
0.28705627,48.601818
0.29394364,48.385452
0.3095936,47.376328
0.27121878,50.592533
0.2463564,53.859035
0.35453817,54.29825
0.45096597,55.732746
0.41477644,60.00061
0.56319886,67.670616
0.68582255,63.32645
0.8363272,69.95891
0.87260264,73.07049
0.9668524,74.11674
1.1122998,78.42372
1.1733078,76.82658
1.1582708,85.89211
1.4095135,86.75074
1.3314704,91.99538
1.3833438,99.09975
1.5221786,96.08907
1.5485659,93.3646
1.6078516,101.4714
1.6230537,105.23762
1.6864786,104.94789
1.6585126,107.10653
1.6787872,107.691696
1.5849353,112.48416
1.6402907,115.61645
1.6358595,120.04727
1.5776699,115.43855
1.6027647,116.03615
1.6406009,113.85458
1.5381455,115.74679
1.4317906,111.847305
1.4392741,112.74263
1.3871623,107.49935
1.368399,111.69067
1.3350497,107.79469
1.3633521,111.44394
1.3304269,107.44672
1.2620425,98.23949
1.2385573,104.71849
1.2131734,103.93637
1.2050854,103.19189
1.1554047,98.68581
1.0644357,95.84989
1.0512778,90.14738
1.087909,88.62812
1.0800014,88.394775
0.9749564,89.42079
1.038037,87.46581
1.0678978,83.81538
0.9691904,82.92547
1.0162979,74.80838
0.8356439,80.527466
0.8171162,80.88721
0.86627114,72.45148
0.7928214,75.90396
0.76455635,69.848045
0.7093881,67.080986
0.5456184,69.285385
0.7184939,68.2651
0.5626902,68.75089
0.49583396,62.30842
0.54768425,61.504017
0.5666855,60.404488
0.47268575,61.029358
0.52477455,54.35294
0.4368311,50.858906
0.46690434,50.16525
0.38081914,51.25995
0.40978533,51.97593
0.45529118,47.4749
0.4351631,50.401455
0.3095241,45.579525
0.32811946,41.29576
0.36839074,42.03851
0.30145514,44.30493
0.34907624,46.249046
0.16546533,41.73195
0.0920247,46.775562
0.10471526,49.86876
0.17005023,45.051746
0.119875886,46.571674
-0.094237275,45.115242
0.046848364,46.997818
0.03320263,50.751163
0.03820488,55.42519
0.055108085,55.517914
0.14212343,55.299835
0.1869849,55.321415
0.18362959,60.945724
0.36512482,63.880123
0.43627656,64.03694
0.54164875,70.18101
0.6311997,74.93959
0.8834071,79.697945
0.90049434,83.27032
0.8856361,85.99883
1.0068434,89.64521
1.0106941,92.98139
1.1707234,92.5387
1.1832217,97.13533
1.2752023,99.325165
1.330415,101.72313
1.3123485,111.72811
1.3957386,106.54826
1.3185261,105.71796
1.3386153,109.10813
1.3911084,112.42482
1.4098779,113.57181
1.3735023,111.20969
1.3157625,109.89052
1.3549731,112.62686
1.2886397,110.547424
1.3193855,108.87739
1.2580267,113.18882
1.2463496,110.104385
1.2142633,111.5563
1.2272398,109.65831
1.2694559,109.01544
0.9622722,104.84587
1.1886829,104.9019
1.0513701,108.77395
0.93767416,101.63159
0.8837009,103.77342
0.93173337,95.650276
1.0218673,104.30025
0.91077894,97.39491
1.0216907,90.477486
1.0415527,93.32311
0.8252427,87.114914
0.9194186,86.92752
0.8956001,93.00718
0.8769838,84.28492
0.95167404,82.9857
0.7273957,78.71255
0.745073,81.849815
0.7613578,80.66913
0.66840464,69.9997
0.7229317,72.75149
0.6213347,71.29628
0.6487242,75.54105
0.5897733,72.06317
0.585325,71.76494
0.37344688,67.94075
0.4363106,64.06455
0.33449948,63.31974
0.40449113,62.07432
0.36155444,59.79014
0.38068733,51.00758
0.2963674,53.71841
0.3238135,52.979675
0.3028614,51.321514
0.27247244,49.915894
0.30653366,51.141068
0.30124545,51.205177
0.34905553,48.39912
0.21728984,45.49498
0.17891386,46.839035
0.22726904,45.50781
0.14361979,43.211266
0.105534,45.127052
0.14038293,41.93211
-0.07612723,41.040806
-0.003544357,46.49911
-0.019235661,45.359325
-0.005267322,44.232883
-0.011783531,46.150333
0.019030593,47.901714
0.001432548,47.356197
-0.064115584,54.483047
-0.0063227997,55.21067
0.16381255,60.806225
0.09569611,63.95822
0.16498797,62.527912
0.4288477,65.15859
0.48279846,69.9354
0.6753765,66.25959
0.70782065,75.38203
0.84592324,79.392555
0.8643832,81.97808
1.0386559,86.64533
1.0203403,88.6604
1.1046644,92.681015
1.1517634,92.40102
1.2276293,98.88584
1.3786874,99.627144
1.3291487,100.06783
1.3102669,103.48877
1.4214369,104.67652
1.4567149,108.97098
1.3673146,113.992874
1.4458907,111.23342
1.4461232,113.577385
1.4857702,113.03949
1.3772733,112.298065
1.3823644,114.2276
1.4102618,112.0064
1.3404734,114.58653
1.3754141,110.61956
1.4470569,110.93668
1.2800449,112.8746
1.1856469,106.592735
1.1622182,111.20221
1.249089,109.00735
1.0901242,104.75718
1.1601212,103.02954
1.1880567,103.01858
1.081826,102.207695
1.0256398,99.83331
1.0184718,96.27867
1.0774615,99.74554
1.0245624,93.86692
1.0314174,89.61833
1.0199339,92.19781
1.1375117,89.66984
0.9582804,83.6771
0.98105806,83.54058
0.9704179,78.28122
0.9681572,82.64302
0.87036574,78.616776
0.7762447,77.6819
0.8325549,78.21638
0.8847128,75.84254
0.77890855,72.73025
0.7198727,70.65507
0.71501946,64.33899
0.5484313,64.07914
0.6899521,61.707844
0.5876145,60.0609
0.59386116,58.496574
0.5406409,60.811333
0.47433668,54.982315
0.5044042,56.139378
0.51176685,59.725468
0.5670487,53.736317
0.65032023,48.671513
0.54027903,48.688046
0.5709674,47.140892
0.5110276,49.130463
0.41756037,47.871284
0.52377015,44.38425
0.42993748,47.239285
0.35123622,42.17066
0.4147991,45.536274
0.39599174,43.436184
0.28601652,43.86505
0.31069595,40.13742
0.2853744,44.90539
0.20131652,44.137165
0.23008001,43.88067
0.26245263,48.671627
0.28145382,48.8009
0.24888727,52.757324
0.2769294,55.21747
0.37037638,57.287815
0.5052593,57.276176
0.53470385,68.5387
0.6867661,71.14696
0.7401162,71.948074
0.79181653,74.53574
0.9685185,74.13223
1.0347441,76.9309
1.1503137,83.82183
1.2523156,87.30335
1.3739222,86.74155
1.436084,92.91609
1.4991152,94.05959
1.5664557,97.382515
1.5999545,100.62637
1.6911374,100.335625
1.713375,108.394356
1.6550744,106.52206
1.74796,112.293686
1.6588457,113.2879
1.7389916,109.89748
1.7440175,108.9073
1.7062267,112.64835
1.8389118,114.05951
1.6986595,113.214096
1.6355249,113.989784
1.6808805,116.50164
1.58339,110.10597
1.5989289,113.31105
1.5621041,111.711395
1.6085523,106.13188
1.5780915,108.233376
1.4653326,106.47126
1.4791329,107.200485
1.4163572,99.74145
1.3920852,106.91167
1.3600287,103.52349
1.4039379,97.73894
1.3738742,96.90872
1.3559493,92.56551
1.4126896,92.42915
1.3618615,93.84768
1.2017969,93.12016
1.3345728,86.56958
1.2344655,83.678215
1.3679278,84.761826
1.2015123,79.417725
1.2405558,81.98126
1.1935952,78.13773
1.1615915,77.79354
1.1509011,75.06873
1.1107131,76.54021
1.1107523,76.30433
1.0388942,67.093094
0.9998332,69.29542
0.9198545,72.559166
0.8179971,64.16107
0.82864606,61.776394
0.8085701,58.5372
0.8465226,61.914043
0.86128014,57.966393
0.751376,57.96595
0.7550384,46.84593
0.8414165,52.995342
0.81366366,50.792248
0.8565608,47.860954
0.9228697,49.878635
0.7825472,45.916866
0.791456,46.693657
0.7864259,44.29213
0.635323,43.88092
0.6294984,43.50675
0.7213952,42.24264
0.65187216,40.951786
0.4853738,45.616554
0.5132022,43.012184
0.5581348,48.799774
0.40754896,40.40793
0.41094926,45.82163
0.46674788,50.104485
0.45802656,48.388603
0.57077426,51.503265
0.5918902,55.93633
0.586554,53.819454
0.6459962,64.750374
0.8308488,61.88649
0.8593176,61.881744
0.8856168,68.228516
1.0843537,75.31312
1.1657841,73.64843
1.263463,77.27556
1.3614153,78.22051
1.5757211,86.62882
1.5975649,86.05959
1.7196269,89.09122
1.6289617,91.87731
1.7824697,97.877144
1.8316247,98.83841
1.8286381,100.96475
1.8567533,103.71845
1.9664584,106.08545
1.8948778,107.736206
2.0014236,109.14787
1.9499321,109.93206
1.9276482,112.400635
1.9375502,112.126854
1.9136735,108.50108
1.9402957,118.91175
2.00148,115.47355
1.951002,111.887115
1.8484302,112.43423
1.7919503,109.047874
1.9464967,107.9737
1.6842711,111.71252
1.7796714,102.941086
1.8096099,104.227394
1.7426779,107.044205
1.6017439,104.45281
1.5765911,106.657814
1.6066486,100.35548
1.6265472,101.49213
1.5318397,99.48367
1.5031966,94.60472
1.4909154,90.54976
1.6486843,91.88754
1.4432056,92.31145
1.524348,87.285965
1.4268498,88.157036
1.4959108,87.66575
1.4355234,86.33724
1.455123,81.52199
1.4250504,80.014046
1.297095,77.90593
1.3616457,75.54607
1.3420575,78.697044
1.2004908,66.38904
1.1504966,73.11551
1.1364919,67.04986
1.0944736,66.088646
1.0566472,64.09787
0.91927195,59.43969
1.001892,64.9308
0.97268665,58.08302
0.9744345,57.973328
0.9585017,57.58598
0.9042025,53.987087
0.8983076,55.669437
0.8410338,49.26153
0.8379403,49.52981
0.91574717,45.663746
0.9108902,44.005974
0.8464963,45.09934
0.84076023,42.80984
0.80888766,47.088024
0.74200445,42.46466
0.66341174,46.8676
0.74638325,40.391026
0.63433063,47.167194
0.6615997,44.40291
0.48918095,44.11016
0.50900537,44.71797
0.47211727,48.219112
0.52706844,47.329075
0.6057961,50.35067
0.5389646,51.234203
0.50293684,54.52383
0.5711681,55.161785
0.7143826,56.436794
0.7980799,58.937683
0.7903066,62.59635
0.91837686,61.046833
1.0792713,69.174934
1.2352551,76.37935
1.2882333,74.315155
1.3388097,80.62567
1.4357849,86.669975
1.4761062,90.19603
1.5452822,88.05398
1.6954705,95.30613
1.7045392,97.91793
1.7807765,101.076035
1.8961059,102.810356
1.7780885,103.9073
1.9620761,111.826256
1.9607801,106.17092
1.9573385,111.326454
1.8906314,112.81083
1.8826303,108.697525
1.8344065,112.05795
1.8557774,112.824554
1.9751934,110.18913
1.8428497,114.08956
1.893557,110.25178
1.7852021,109.109695
1.8416272,114.78322
1.6696599,112.65073
1.718839,109.289986
1.742511,107.45681
1.6410968,110.76097
1.6444347,105.73673
1.7028673,106.03462
1.4165155,105.01033
1.5414699,101.63787
1.4741715,103.0005
1.4586071,99.1844
1.4505076,96.455185
1.42677,95.756516
1.3458476,90.7889
1.4848567,96.24653
1.3695612,86.86574
1.3210204,87.37
1.3163944,88.7761
1.3561244,83.30561
1.2765735,79.77579
1.3201194,81.66293
1.2076149,76.29698
1.1745987,74.88907
1.135321,77.25071
1.1777452,73.807465
1.0004249,70.166016
0.9547471,68.80171
0.8877374,68.77265
0.8796814,64.23228
0.8263836,64.27847
0.7708974,56.266796
0.8345212,62.014084
0.81707555,62.45387
0.7192551,56.75934
0.7488698,60.42566
0.69011897,54.348274
0.6390167,51.92224
0.61580634,50.37897
0.67805487,50.49749
0.75330055,46.23127
0.6534098,47.230637
0.72581345,44.22049
0.6348643,44.83808
0.58260787,45.671387
0.60313517,43.941174
0.5012976,44.91955
0.38840875,42.201443
0.5118848,42.828674
0.3948004,45.89035
0.40155986,41.25521
0.38541052,41.432983
0.27567723,47.536377
0.31317005,44.754356
0.3151204,52.802486
0.29091963,52.131435
0.30003348,56.716145
0.43850318,59.42801
0.5458447,62.11008
0.51079845,65.803635
0.5923591,65.713104
0.7915508,68.991974
0.8329288,69.86245
1.0760641,74.31132
1.0475051,78.17984
1.1579694,77.78424
1.1040051,88.1241
1.32068,91.9353
1.3736026,92.29238
1.3745656,94.63989
1.5580584,97.054184
1.4880005,101.74077
1.5417354,103.52459
1.6153247,105.96816
1.6412867,107.32665
1.6595166,107.757774
1.5268133,107.14869
1.6144297,113.616295
1.6497139,115.5336
1.6784502,109.76018
1.6679969,115.88788
1.55483,117.054985
1.5098658,114.77779
1.6261193,107.09184
1.410779,112.51448
1.437539,110.95657
1.4105438,114.039856
1.4047883,109.234375
1.3191825,111.466515
1.4077687,106.61514
1.288278,108.12495
1.2891953,107.037994
1.1853758,101.676765
1.1762161,104.86037
1.1632104,97.21965
1.1615227,101.08427
1.1797589,97.622536
1.1017034,93.84721
1.1137314,91.37136
1.1964656,87.79277
1.0149806,86.085724
1.0127325,87.72825
1.0898111,84.21728
1.0308683,85.807365
0.8438263,75.23914
0.9304264,79.46214
0.930943,78.43653
0.73985666,72.017334
0.7927076,72.2199
0.67841893,70.64106
0.73217565,69.42764
0.66563004,69.594666
0.5436853,69.180725
0.5159672,62.261932
0.5302097,62.248375
0.5739426,63.780827
0.54724675,62.36979
0.54476476,55.952847
0.41104448,56.06952
0.43691057,56.140038
0.42798308,48.05893
0.4558949,51.75388
0.45399097,51.994667
0.47656864,47.749237
0.35999763,46.694263
0.42368552,43.104473
0.37013096,43.227024
0.2989168,48.30548
0.21317199,41.76196
0.25358433,40.0
0.20925039,46.34083
0.16373277,44.20685
0.024373842,45.09233
0.093536414,43.975025
0.0781451,45.343365
0.0072098714,46.09925
-0.032435216,50.987507
0.002611058,47.410946
0.006323315,53.706676
0.14038956,53.18329
0.11520837,51.638885
0.1910014,60.34766
0.208814,64.8545
0.3931821,63.958904
0.39973485,64.8992
0.5769855,71.82991
0.76365614,73.88866
0.854801,74.47065
0.86872494,83.90292
0.96474075,86.77846
0.9540507,85.20501
1.068894,87.982925
1.1527982,92.58132
1.1041992,97.029854
1.1780956,100.498344
1.3041384,101.848915
1.350325,104.93937
1.3133258,109.39903
1.4198056,109.00736
1.3715627,111.740234
1.2717135,111.387535
1.3366259,110.87852
1.3117812,112.040245
1.3416138,113.90156
1.4083291,115.37665
1.4346254,111.81067
1.2442183,114.74442
1.3112782,113.643326
1.310408,112.11812
1.2471751,111.41468
1.1477245,108.89224
1.1372422,104.84777
1.1105576,105.18446
1.0646373,106.72585
1.0644947,105.317924
1.0304861,102.93908
0.9772565,100.85622
0.9382766,97.6978
1.0154063,95.99336
0.95226866,95.42562
0.9861408,96.131424
0.8996809,91.14562
0.9151274,90.52425
0.8621568,87.97656
0.95176774,88.10038
0.83279103,85.28321
0.865245,81.49673
0.8242989,84.54665
0.79774463,79.51308
0.7051382,75.366776
0.6578297,79.94981
0.75760186,76.28074
0.58207023,70.86162
0.48894164,68.12338
0.37569475,68.387886
0.48642543,68.37334
0.46481264,68.41086
0.39945465,66.23903
0.36017132,71.62571
0.36787677,60.87175
0.24464996,61.034203
0.32280967,59.373814
0.33763748,54.732452
0.3400662,54.164333
0.29195502,50.864536
0.40302184,50.260216
0.35107568,50.464718
0.35737523,48.306343
0.38278377,43.058487
0.16195686,41.44102
0.3560486,43.39074
0.15900452,44.028458
0.10046504,41.476624
0.0301853,44.019943
0.012025551,43.228115
0.034495737,42.166985
-0.06222956,45.395477
0.0026792244,43.513935
-0.010377696,43.78785
-0.11576522,49.65966
-0.044142876,50.098938
0.07226832,51.268585
0.1295559,56.564014
0.035955347,52.315258
0.15897931,57.542194
0.19279262,58.157406
0.42234436,62.71051
0.33993754,66.15087
0.5073287,70.390564
0.60014606,68.9632
0.7020721,75.72488
0.78372854,75.92806
0.9510262,79.729546
0.95779383,86.074875
1.1617155,91.70444
1.1687241,91.746605
1.2394799,97.42657
1.3173298,96.24847
1.3640395,97.74264
1.4002857,105.21743
1.467181,100.88442
1.413659,108.09812
1.424339,106.292534
1.4038502,108.88505
1.4104114,107.01711
1.408,108.320465
1.4710451,111.86645
1.4932477,116.446106
1.4071627,114.13623
1.4264102,112.402405
1.334677,113.44093
1.3874683,107.95249
1.3267179,111.31544
1.297732,112.77666
1.3363397,112.75251
1.1467854,105.63105
1.1506559,106.27637
1.1391205,105.757645
1.1224061,105.25333
1.1220511,101.82456
1.1403471,98.10696
1.0210669,100.4611
0.98581165,97.85694
1.020884,94.31786
1.0337062,92.97236
1.0533496,94.587875
0.9690767,88.226204
1.0273527,88.61894
0.9396827,91.224525
1.0318991,84.95183
0.9933465,83.32624
0.9496114,77.90171
0.8944524,79.98285
0.845351,80.11233
0.8001998,79.849495
0.8129206,73.23173
0.77931017,72.21357
0.6945916,70.52511
0.5958663,70.291756
0.6467076,66.09529
0.68123573,64.704025
0.6482645,65.05523
0.5167377,63.064507
0.58308434,60.922295
0.52289087,54.124844
0.59916896,59.096344
0.4714967,54.151337
0.45225647,52.766533
0.56538105,53.02733
0.5569324,48.19796
0.49560907,51.4246
0.4554047,47.003586
0.4505358,44.300743
0.49357888,40.288815
0.4881657,43.73227
0.3383518,47.52705
0.43059325,45.63999
0.40688297,43.99165
0.33606803,41.66442
0.20890008,45.982105
0.2893674,47.37828
0.22290483,43.135586
0.30245164,46.17423
0.28878534,48.54542
0.18983968,50.791042
0.39067978,56.43657
0.3621561,55.19195
0.323211,56.68434
0.5004072,60.330135
0.5850009,67.69169
0.57197875,66.76041
0.7480781,70.41544
0.83662146,73.89567
0.9570575,77.32109
1.0022671,78.03569
1.1938952,78.82789
1.2628518,89.45063
1.2632824,83.10877
1.3402355,97.57985
1.4326391,94.10916
1.4513772,94.98517
1.5933557,102.70113
1.6919311,97.96517
1.594801,107.76829
1.6837103,105.78548
1.6338536,109.98488
1.7166629,111.69219
1.6219612,108.941025
1.7875171,113.0402
1.6731497,112.815704
1.6771387,112.01288
1.7416043,118.54424
1.6682576,113.32011
1.6638095,116.02395
1.6580485,108.57682
1.5910822,107.42368
1.5649805,111.46649
1.5744346,112.100235
1.5929242,109.17397
1.4769127,106.01585
1.5567172,105.2136
1.4736098,104.252426
1.4597516,101.0871
1.4206828,94.56086
1.394742,99.47101
1.2482044,93.80723
1.3680696,97.66612
1.2554795,96.14928
1.3528014,92.216225
1.2883795,89.59546
1.2932361,89.924644
1.2280499,86.94089
1.2150481,86.07649
1.3559259,86.56959
1.1925229,80.90206
1.2439015,77.06348
1.1530946,75.36694
1.0743328,71.33078
1.1431286,73.07742
1.0481215,71.97447
1.0476004,71.141785
0.97107935,66.942696
0.96249473,65.18876
0.8890563,67.565994
0.8356734,63.27232
0.856537,64.7378
0.81816596,61.026245
0.8114398,59.484066
0.8534901,55.18511
0.8467285,52.75499
0.80509114,55.86201
0.90120476,52.337067
0.8842023,50.380653
0.70885307,46.32985
0.81816244,48.820415
0.7850381,48.177742
0.7966925,46.053772
0.728133,42.219433
0.6743816,40.706863
0.6882347,47.663807
0.75130385,42.929543
0.62268835,45.994804
0.5316867,44.497524
0.45337427,45.050087
0.45906964,45.14111
0.42168373,48.89849
0.49311656,48.581833
0.43909678,48.672913
0.6029617,51.48015
0.5541641,55.68033
0.6325273,57.76915
0.73232573,59.44899
0.7528792,62.337822
0.9641022,69.724045
1.0126009,63.652985
1.0591024,74.87615
1.2158201,76.00269
1.3643335,76.11169
1.3150018,84.40673
1.3604547,82.46724
1.569063,84.95601
1.6015054,86.138435
1.7318872,93.66058
1.7098767,95.16795
1.8626132,95.74376
1.8340721,95.94907
1.9365602,105.47715
1.8716879,107.192894
1.9521489,106.0773
1.9778203,107.88011
1.9526749,109.84282
1.8726484,111.46959
1.9300971,114.27059
2.0210326,114.06206
1.8984407,114.37051
1.9493424,113.96257
1.9278965,114.980064
1.856335,113.42449
1.8485719,112.25737
1.8489386,111.383354
1.7360634,106.06678
1.7279059,108.73495
1.6844735,107.99709
1.6512281,106.03597
1.6132272,103.69416
1.6449853,108.30168
1.6255267,102.07886
1.4704057,99.52411
1.5627156,101.015305
1.5989844,97.233315
1.502827,95.71634
1.5529509,91.16601
1.5054864,90.043846
1.439252,92.21374
1.491906,90.164375
1.4226134,85.01374
1.4128219,87.73585
1.4174205,82.3698
1.3371952,82.01823
1.3650262,79.66378
1.2926944,75.922745
1.2617217,74.72026
1.25388,69.277985
1.3210163,69.853165
1.0678425,70.69872
1.1367904,64.78748
1.0039791,62.31905
0.8871683,66.589645
0.98790926,62.378067
0.9498761,57.797733
0.98849076,57.91723
0.93102103,62.20322
0.91221523,57.78426
0.9695811,53.057194
0.8355867,57.658325
0.96395,48.78181
0.9077752,42.382782
0.90882826,46.19368
0.744466,48.79115
0.87055975,45.540646
0.8045162,44.80472
0.8273057,44.909836
0.6508858,40.0
0.79264957,40.0
0.72866833,42.833576
0.48634273,41.39275
0.57289666,46.201557
0.52634317,44.77262
0.5071004,49.61751
0.49943718,48.902256
0.5646031,50.218388
0.5919501,51.649464
0.5734608,48.50782
0.5773725,53.881504
0.581956,60.026424
0.71921027,56.104134
0.8949811,66.15214
0.9588324,66.61051
1.009154,70.557106
1.1105924,72.08087
1.3573965,75.83357
1.3304036,82.71649
1.3550619,82.61333
1.5893561,82.31153
1.5556954,87.09394
1.5023391,88.32782
1.7864318,93.36792
1.8741732,95.96923
1.7968959,101.37596
1.9110957,104.34257
1.8349901,104.21768
1.8998667,101.78048
1.8617711,106.397736
1.8795162,109.39038
1.9087193,112.07696
1.9546877,113.685684
1.8996041,116.27726
1.8739233,113.21692
1.8690569,115.0116
1.8690265,112.539406
1.7974544,109.3863
1.6481031,114.46705
1.6387264,108.776665
1.7056499,108.48985
1.7411383,109.38646
1.6276691,101.80603
1.6486614,106.4325
1.509865,105.2495
1.5075991,100.51648
1.5922399,103.14501
1.470293,99.49672
1.4286672,101.57638
1.4127785,97.49481
1.3502775,98.625786
1.3781688,94.35732
1.395636,88.03426
1.3714321,91.17454
1.359555,85.98952
1.3840393,83.274315
1.3851479,78.739296
1.3089062,83.430176
1.2542421,82.27537
1.2290431,79.11362
1.2873323,76.90023
1.0765373,74.672905
1.0443276,69.42002
1.0264784,71.5457
0.985294,70.28932
0.8726672,67.076035
0.9021181,68.15164
0.85188186,67.21852
0.9145606,64.5276
0.73845655,61.6089
0.728392,55.6602
0.78301,57.38304
0.78252715,58.527264
0.8088719,53.524673
0.6667724,55.609272
0.7131569,53.865925
0.8137262,49.386173
0.7344122,46.655464
0.7135576,43.860428
0.68947214,48.89933
0.5383829,47.500065
0.5614039,44.11043
0.541803,42.417923
0.43580714,43.998474
0.5003892,47.26236
0.36024848,44.60667
0.35818753,44.863853
0.2703351,49.13873
0.28891072,45.38161
0.24597543,43.69525
0.2752469,46.951756
0.30779862,48.42648
0.27402955,52.171875
0.43381166,52.279224
0.44169298,57.936607
0.44951776,61.281246
0.63919353,64.19804
0.7228165,64.62192
0.8555221,71.85534
0.88016456,74.31993
0.93582034,76.65865
0.99440515,77.56904
1.1345353,78.41401
1.2410233,85.27383
1.3178257,86.91625
1.4827276,92.92054
1.4500635,96.21327
1.4966906,99.8161
1.5030178,98.60118
1.4945139,102.20757
1.6166886,103.081696
1.5793675,107.355705
1.5858235,113.18843
1.5266552,109.057236
1.6425422,108.23472
1.7099555,115.96377
1.6405529,114.96095
1.4702278,112.7384
1.5741113,115.86898
1.5699624,105.801704
1.4542094,115.28819
1.5404435,112.17638
1.4168282,112.12679
1.3914422,111.468605
1.4000363,113.25657
1.353939,108.17713
1.2824739,109.54666
1.2110105,107.11916
1.233515,108.61593
1.1927897,104.3992
1.1663008,101.070755
1.1833725,97.31542
1.2038739,98.69254
1.1360638,95.44594
0.9996193,95.27736
1.0919392,94.08096
1.0644343,93.135155
1.0629872,84.61363
0.99252665,87.033
0.9613846,84.385345
1.0600843,78.49589
0.99379194,85.6661
0.9015782,80.615654
0.8771488,75.049194
0.8969822,77.87771
0.6824917,75.007454
0.7659643,76.971375
0.6877226,73.68629
0.7055,71.40365
0.5774224,69.598755
0.6847278,68.38998
0.4741127,65.90748
0.47204453,61.10027
0.5525035,57.01241
0.43306708,52.073452
0.4396508,57.33468
0.44785145,53.651257
0.40042594,55.5245
0.48052964,50.344265
0.49948433,48.76191
0.5478728,45.28531
0.44261026,47.316143
0.34213102,46.300804
0.37440005,46.8222
0.29120445,46.634796
0.2662895,45.234596
0.24624813,47.876842
0.20857961,44.37879
0.062517606,44.644466
0.085300885,45.242382
0.06969816,50.40228
0.011803414,40.0
-0.009925477,45.496296
0.026026582,50.62654
-0.01059682,50.603733
0.0065242318,52.105965
0.042491116,51.741703
0.12875181,55.177017
0.16229169,58.056667
0.2797396,58.5027
0.30936554,62.432407
0.50813705,69.86437
0.55551577,69.982666
0.564519,70.28374
0.75008214,74.57989
0.9594655,80.54336
1.0513058,84.336845
0.9770643,87.40753
1.0084429,85.21946
1.1148272,94.36427
1.3046696,95.17238
1.3054086,98.30984
1.2572175,102.29627
1.3568875,103.46387
1.2740339,108.45869
1.3716036,100.977684
1.3842047,107.68353
1.4259851,110.03617
1.4097232,110.93797
1.28911,110.39628
1.4110743,112.117836
1.3770332,115.03641
1.3349992,108.21682
1.293045,116.12952
1.2403096,115.42104
1.2693144,109.87871
1.2751588,110.69462
1.2518604,112.439606
1.1053463,110.773895
1.1138788,108.86562
1.0389997,104.07414
1.0211191,101.402084
0.9462852,103.854065
1.0252277,98.14581
1.0710857,98.64997
0.99126774,96.87394
1.0841084,96.407875
0.9633292,92.17092
0.9403429,90.737335
0.88488,91.72907
0.88914967,86.78502
0.79375076,86.960396
0.8887349,83.73378
0.79518765,83.69023
0.8346808,82.246605
0.72498536,80.50253
0.70626956,76.52629
0.6518991,76.22868
0.68554825,71.54661
0.69494885,79.26296
0.5380485,73.16709
0.578481,67.21186
0.46611935,66.82187
0.44843975,68.12466
0.4090229,65.28987
0.3630974,62.37931
0.2961983,65.40708
0.44199342,61.17222
0.3709873,59.04733
0.33881152,53.508987
0.23715848,52.039722
0.19462514,49.393467
0.24289662,50.50825
0.34930348,46.39235
0.31121415,43.183975
0.31687614,49.51624
0.22500682,46.848408
0.30548406,47.203228
0.22662582,40.0
0.21746922,44.543198
0.16938205,46.37746
0.09928527,43.668655
0.08071124,40.0
0.1018541,46.04909
0.06777577,42.028008
-0.061910346,47.676052
-0.055777542,48.196243
-0.018165043,49.410023
-0.016242376,49.58958
0.038632415,48.82291
0.08483714,54.480217
0.2521005,55.852802
0.23481746,60.01779
0.273893,66.46877
0.4474477,62.762074
0.5299827,69.78038
0.6296931,74.79254
0.76026535,71.82124
0.78711927,78.68227
0.93617284,86.538055
1.0046936,82.575356
0.9872282,89.69963
1.1093063,92.762764
1.2943108,102.8571
1.172466,99.34813
1.3644313,97.106415
1.3060865,102.384186
1.3601649,100.70493
1.3635771,104.91006
1.3990301,110.10657
1.4475797,110.614655
1.4318169,110.66664
1.499977,108.53774
1.5258219,112.23484
1.3852173,114.3585
1.4812735,113.62534
1.3385687,112.06322
1.3572173,111.26026
1.2508161,113.11709
1.342675,107.01892
1.2092835,108.33578
1.2345557,107.12631
1.1981679,105.28513
1.1508958,106.830826
1.1440972,104.4253
1.1724145,103.85738
1.0169935,104.55337
1.0211986,102.11542
0.9860937,98.88934
1.079067,98.19168
1.0178307,99.55293
1.0464284,91.43715
0.9640093,89.88457
1.1295418,88.68133
1.0357387,84.04636
0.96568525,84.08059
1.0835418,88.11106
0.9457753,82.69392
0.9062324,78.18469
0.8855092,82.67691
0.79063743,76.862465
0.8016899,78.50116
0.92189026,76.41681
0.6909577,71.460815
0.77083033,68.6215
0.72271526,65.83251
0.6356397,65.99145
0.6128433,66.08319
0.5938146,62.096333
0.6372353,60.06311
0.53404444,61.717094
0.57355195,57.862907
0.53417486,60.018864
0.44029608,56.478756
0.4399312,52.643097
0.5591172,51.46859
0.5628021,50.36838
0.55276555,44.008507
0.39916968,47.705093
0.44579032,50.049267
0.4625596,48.61878
0.47729966,40.0
0.41501704,47.122955
0.39222038,43.11888
0.32218894,41.26223
0.3048654,42.031307
0.20855162,48.191826
0.12127292,47.165802
0.04730395,48.672318
0.16546841,48.371655
0.16861507,51.66697
0.21610731,50.794636
0.2514075,52.602993
0.32895362,55.55501
0.32539234,56.628124
0.517579,56.894985
0.5886651,59.256348
0.59713197,65.68692
0.6885027,68.21123
0.7959935,72.55315
0.92071027,78.39369
1.0145857,72.89034
1.0266546,80.440956
1.2401783,85.10543
1.3191923,85.503235
1.299982,92.812004
1.4493597,96.46162
1.5092816,94.84303
1.6231552,99.59731
1.687745,104.04879
1.5901295,105.60447
1.7377055,107.47703
1.7085906,105.61416
1.6806883,112.185074
1.7019732,109.06531
1.7315018,112.24945
1.5774671,117.65515
1.7297229,113.40188
1.7378411,109.19542
1.7419634,113.92203
1.5360391,115.07796
1.6060687,112.27802
1.6526967,110.26877
1.4062918,110.50201
1.5565096,108.438065
1.5315546,106.63811
1.5519748,104.20531
1.5099181,101.381874
1.480889,107.31175
1.4935327,102.13767
1.4024848,105.77072
1.379466,96.73561
1.4077308,99.930595
1.2534128,98.21521
1.2588289,93.602875
1.2826444,92.49066
1.4154967,87.315926
1.3858827,90.323296
1.3451176,92.66173
1.3759458,80.19271
1.1812079,83.14577
1.1970149,81.68032
1.2430134,80.844765
1.2199159,74.05273
1.0720389,78.1342
1.1727818,71.626305
1.036526,69.93322
1.0472132,72.49059
1.0936614,71.30101
0.9888949,65.29876
0.7956613,67.10334
0.9030709,66.88967
0.76403755,66.34784
0.8365865,61.78313
0.8555297,60.743477
0.85572755,53.882694
0.80888945,57.5448
0.84122765,53.045273
0.90713876,47.037216
0.759854,47.69171
0.85595596,46.266617
0.808211,42.996204
0.71353734,50.688927
0.75451046,43.589752
0.6779351,41.060196
0.662024,44.116516
0.716707,43.177986
0.6164862,42.257656
0.6264595,42.124683
0.5831703,40.255623
0.5287637,46.028454
0.5201476,45.380047
0.47528142,48.57518
0.45015725,42.000294
0.45656058,47.573982
0.45569533,51.810085
0.6110804,52.626926
0.64200175,54.507423
0.8068928,64.60087
0.77994674,56.64693
0.8672338,64.98695
0.97876006,66.844574
1.0797192,68.70057
1.1799153,73.89961
1.2960699,75.493675
1.3452094,82.31668
1.568213,84.45141
1.5676445,83.26605
1.5011258,90.55615
1.793912,93.40222
1.6982385,96.18172
1.7933283,99.677025
1.8746657,100.4351
1.9451331,104.83167
1.8977056,106.73331
1.913703,106.83914
1.8930147,105.65346
1.8750554,111.87359
1.9699688,113.49574
1.985833,109.877304
2.0131283,106.04994
1.9366294,117.02118
1.9130706,114.36066
1.8711104,114.38017
1.909344,110.16612
1.7846088,111.87996
1.90559,110.681114
1.8608006,108.016075
1.6829045,108.229
1.7557731,104.77943
1.7055614,107.5159
1.6303911,105.428764
1.5677204,104.77536
1.625308,100.73401
1.5471262,100.508156
1.5463691,99.622696
1.6518108,95.04843
1.5060259,97.05589
1.4828196,95.81619
1.4433347,89.77198
1.5621171,90.82765
1.4208385,90.707535
1.4676223,88.161446
1.5842506,82.96977
1.5025424,80.39969
1.4085724,87.5402
1.3954396,78.80927
1.282786,74.69163
1.2511292,72.76292
1.2458565,72.93554
1.1459922,69.74438
1.1883457,68.34994
1.0605404,67.71163
1.0056216,64.990265
1.0418824,60.038475
0.97043926,61.259182
1.0182394,62.422886
0.9012525,59.446373
0.9579743,53.591774
1.0290606,51.783512
0.8449479,50.76125
0.8959718,54.320347
0.8568049,50.874607
1.0087094,47.871773
0.7893914,48.87494
0.9533828,47.86627
0.87826896,44.06774
0.8872168,46.071415
0.78771645,44.13717
0.7551514,46.920483
0.7670493,42.756165
0.681302,44.297657
0.72329324,42.082226
0.57283705,42.954624
0.61860275,42.981647
0.6057853,45.602512
0.5811425,47.33217
0.52921546,43.493145
0.5138641,53.523808
0.58723986,57.666218
0.6913794,56.429512
0.6438422,59.172054
0.78858024,59.292522
0.8133312,62.390945
0.9615919,67.09929
1.0490328,69.91854
1.1256841,73.34323
1.3310785,75.60404
1.2813336,79.73907
1.4338915,85.511635
1.4840655,83.550354
1.5999827,86.31296
1.5930598,92.554115
1.7024002,99.7884
1.7880867,102.2343
1.8619809,95.988365
1.8663169,103.6246
1.9324726,109.43109
1.895354,107.525955
1.8489918,109.16551
1.8692636,111.688774
1.8394234,110.28613
1.9605263,112.72239
1.9045347,115.80847
1.890472,110.77607
1.8357358,114.37465
1.8377712,113.40821
1.8401285,116.217155
1.775789,109.93911
1.8238767,114.181305
1.6826719,110.99967
1.6657239,103.31231
1.5283859,106.01122
1.5277084,109.51715
1.528748,103.812836
1.5129545,104.85972
1.4874324,102.12144
1.5225602,101.64982
1.3644946,97.21201
1.4174362,103.705376
1.4264505,94.19061
1.3253614,92.57847
1.4220077,87.30978
1.3340412,89.61517
1.3761395,88.70007
1.3697072,89.26721
1.3414553,91.14572
1.2267672,81.90681
1.2674485,81.58438
1.175517,78.900055
1.1863723,77.710304
1.1116945,76.72278
1.1372656,76.78404
0.9966691,77.13227
0.95848423,69.58017
0.9775929,67.52148
0.8908043,63.12365
0.781885,61.046963
0.75605375,62.238243
0.82673144,61.740192
0.7840728,54.034866
0.67878366,55.584267
0.7038527,58.34737
0.765181,55.145664
0.7473509,49.43985
0.70690024,53.390232
0.8979616,48.7948
0.62251645,44.810886
0.6883094,47.538635
0.71161705,46.725254
0.5805269,40.459167
0.5409579,42.69589
0.53127116,45.608498
0.55004495,46.909195
0.3934608,46.947
0.45810112,44.023605
0.35594067,42.87265
0.29418528,45.317425
0.34108904,42.415306
0.29796576,51.50091
0.39957845,50.724625
0.30823195,52.645287
0.22163881,53.54847
0.40560412,54.19104
0.42894462,54.804638
0.42652002,57.991543
0.53683203,64.503075
0.6248675,66.26215
0.7600841,70.92751
0.8727979,68.690025
0.92513466,79.9237
1.095204,74.5118
1.0029601,81.35928
1.1484486,87.085
1.3027071,89.6484
1.4479189,91.22761
1.4031825,94.59308
1.382645,95.469086
1.5650972,98.891716
1.4565542,101.73136
1.5768287,102.20438
1.5910195,104.73516
1.6475878,107.34042
1.6715113,111.79054
1.5485034,108.74748
1.6682793,111.09643
1.5844572,112.50927
1.5619663,117.435905
1.5644295,115.50675
1.5610586,112.54031
1.4691579,113.93563
1.4989725,106.69305
1.4868978,112.20428
1.4906873,110.7092
1.4151117,110.72205
1.4130055,103.32432
1.2499226,108.0702
1.2859529,104.49592
1.2923465,105.61858
1.1882281,99.52646
1.0642494,98.247925
1.1560901,100.99949
1.1384493,99.226944
1.0850294,93.627335
1.1242017,96.00687
1.1562924,91.33289
1.0136926,94.38506
1.0303417,89.770164
1.0669712,90.339355
1.0346357,86.39456
1.1336089,85.8253
1.0116575,82.40298
0.94668984,81.45779
0.891663,80.57756
0.9074162,76.30215
0.73037785,70.43042
0.69722724,72.002815
0.6362508,69.48855
0.7347312,70.68308
0.615302,67.5748
0.5516557,69.059715
0.50845367,62.96393
0.4710851,63.29115
0.46427616,55.50016
0.40576476,54.00164
0.45998618,55.515446
0.38873655,55.891243
0.47943336,51.862675
0.41359088,54.154373
0.3413848,46.473427
0.4376721,46.724697
0.3777232,46.285297
0.36787277,47.42866
0.35591325,44.585255
0.35658967,40.312397
0.36188033,40.0
0.19931261,41.272007
0.17552884,40.0
0.0827022,46.47599
0.17164642,45.44706
0.09445343,45.195072
0.036005013,47.590218
-0.015429371,46.6715
0.08523513,45.938927
0.059992656,49.935127
0.027738128,46.128258
0.029924007,53.34184
0.120080754,58.87142
0.16152503,55.532204
0.22511859,60.858162
0.3844984,65.46251
0.51458657,71.96837
0.57522845,74.0427
0.69250935,76.64627
0.81220526,81.743164
0.8171708,84.82825
1.0129175,83.377144
0.9976555,86.95903
1.0442458,89.67442
1.224405,91.19913
1.3086848,93.24944
1.1751099,98.24558
1.3426583,102.701546
1.3868983,103.630775
1.4147906,98.29792
1.3739771,107.69631
1.2803366,106.29752
1.3700489,110.09234
1.3889911,110.90222
1.3962156,111.90704
1.5345658,106.44775
1.3429421,109.725105
1.3076373,112.0761
1.4585046,111.841415
1.4087449,111.68245
1.2569091,115.72315
1.2054979,108.41928
1.2211956,113.87618
1.172445,111.15969
1.1412693,108.74272
1.094733,103.855225
1.0281118,102.66992
0.9910386,104.51897
0.92065394,104.07627
1.0463446,99.23295
0.9405901,97.683975
0.8766572,95.86155
0.9152881,96.80368
0.88653886,89.24936
0.88446873,93.71028
0.95605946,89.67161
0.8112738,88.93151
0.7881289,83.1546
0.75442535,84.987625
0.76171243,81.76548
0.917203,77.253006
0.7845464,75.64968
0.6637737,73.47716
0.62661237,75.45579
0.63722044,72.82833
0.5487581,74.30649
0.5225153,66.73893
0.48079777,70.646255
0.5165941,62.386578
0.38493782,62.641537
0.3978807,63.246986
0.38848191,63.43908
0.28550246,56.378376
0.35556513,53.95546
0.3658893,57.632404
0.34514326,53.287224
0.37906426,55.28465
0.27979285,51.11895
0.3391855,48.706337
0.32121953,45.509083
0.26874107,45.543144
0.23003007,47.285038
0.29823214,41.54911
0.24766266,40.0
0.16903774,41.455208
0.07207822,42.61143
0.09598688,42.24613
0.04569789,42.68004
-0.049136795,40.984814
-0.11912303,44.537514
-0.033059143,46.351826
-0.003730641,48.45643
-0.028207099,48.529945
-0.018515678,48.16889
-0.059767026,57.884518
0.03755722,58.302116
0.09582493,56.816803
0.25470483,55.714005
0.30903825,64.59148
0.4500229,64.94125
0.44093755,67.165245
0.6349161,72.531815
0.76043415,73.84231
0.9042329,73.9068
0.8806445,81.45469
0.94920355,82.9451
1.0966189,89.773796
1.1996094,91.66736
1.1461958,95.73617
1.286537,95.65113
1.2692158,100.39654
1.3041016,106.96002
1.4594389,104.21389
1.411459,103.521515
1.487708,106.55507
1.4361669,107.796036
1.4282746,116.0298
1.4275323,115.18182
1.4373968,115.96982
1.4492456,112.159935
1.4465053,108.90135
1.4358567,111.18799
1.3814493,112.9113
1.3863572,110.70083
1.3349406,108.82348
1.2614698,111.608116
1.2847259,109.118546
1.2855886,106.64082
1.2481837,105.06927
1.1516287,106.40077
1.0375165,106.615135
1.0600057,106.0151
1.0235069,102.8884
1.1428735,95.95883
1.0774931,100.23223
1.0534233,100.28783
1.0732862,93.86038
0.92951304,90.972885
1.0139598,88.277435
0.9385757,85.491974
1.105781,87.864456
0.92288846,83.71567
0.9481111,82.6268
0.9734723,79.39711
0.9304135,80.39398
0.8979738,78.04568
0.80611485,75.54185
0.824659,73.19525
0.7677301,72.053986
0.58835816,69.10326
0.63319635,68.57908
0.6837243,67.45485
0.56253064,66.60997
0.6449494,60.051197
0.51504517,57.428665
0.45677093,60.11244
0.573804,54.927498
0.43732277,52.78469
0.59496397,57.051346
0.5796115,54.22633
0.49440408,50.696907
0.5755376,51.6326
0.42546555,50.68206
0.45152238,44.84777
0.3593198,48.22128
0.4485792,44.475685
0.43689236,46.081673
0.383629,45.91771
0.43864626,46.17025
0.3307091,41.725143
0.23675415,43.962837
0.2844736,44.559914
0.19881614,42.694523
0.2432767,44.311836
0.17625658,47.87378
0.1627915,51.31694
0.20475319,49.94642
0.15862605,50.760353
0.33421087,52.965385
0.30104393,58.550686
0.51115924,53.694897
0.5245721,58.921734
0.66453326,64.024994
0.6630553,66.17373
0.81319374,69.41229
0.9085531,77.49651
1.0940849,78.17763
1.1887987,76.29837
1.2886034,83.28062
1.2527189,87.059204
1.4245102,89.96411
1.4707994,97.45205
1.5304327,99.05509
1.5741736,98.02197
1.6235199,100.62336
1.6260427,105.4765
1.6415694,103.677185
1.6314063,102.17332
1.7148647,112.62335
1.8007193,110.559654
1.6491147,113.09594
1.6442692,118.55585
1.6718929,112.004684
1.7502468,116.75232
1.7666456,110.88085
1.7281244,115.08356
1.6640437,115.1172
1.694065,111.843506
1.512357,116.13374
1.5886874,109.57947
1.544383,107.145744
1.5205427,103.852974
1.4956269,106.52818
1.4894695,101.87284
1.3582736,104.42959
1.3840656,99.88846
1.3508346,102.4164
1.3462634,99.70451
1.3487151,96.02418
1.3279479,92.44885
1.2650616,90.22556
1.4103677,94.08335
1.3252344,87.1151
1.3280898,92.87794
1.2468282,88.26041
1.3641795,83.93209
1.2880344,86.17978
1.1944892,79.18968
1.1939867,78.16635
1.0884322,81.61092
1.1232413,70.88421
1.0115801,75.687355
1.0380214,71.226685
0.9801539,68.32087
0.95442975,70.86365
0.87765676,65.401955
0.9167092,59.052876
0.9154122,61.19906
0.8417765,60.640255
0.85998476,55.88409
0.8673107,58.178814
0.90630656,55.965557
0.76922446,54.732723
0.80014294,52.93989
0.805127,48.838104
0.779094,47.12548
0.8167117,44.20289
0.78612363,50.251957
0.785751,43.220284
0.7429828,40.54105
0.673656,45.20405
0.7963453,40.0
0.6803141,45.2979
0.5663525,45.174416
0.5347113,49.992207
0.58609444,42.22093
0.536251,45.347023
0.54224354,50.71911
0.54087365,48.16493
0.37338826,49.21965
0.4860461,48.708595
0.502622,56.673058
0.5962789,53.916084
0.6171193,56.281937
0.9263021,64.79834
0.87210155,67.11188
0.9598811,69.286964
1.023016,70.03563
1.2407081,74.58815
1.2197232,76.165215
1.379027,79.65707
1.5042228,81.302536
1.5689472,87.011116
1.6850559,89.446754
1.7283792,92.56214
1.9105327,98.189705
1.7952979,98.80739
1.8106796,100.27677
1.7538949,101.352356
1.926334,108.67751
1.943365,107.95412
1.9183022,104.09668
1.9827126,114.8756
1.9427624,111.81882
1.9994872,113.37159
1.9559368,115.54606
1.8279501,120.31446
1.90282,113.60958
1.915064,112.91673
1.8465289,108.59761
1.8765562,108.8374
1.7955997,110.4683
1.8227274,108.76387
1.7689903,108.205696
1.7576494,107.052
1.7172406,106.40977
1.6008637,104.66102
1.6119518,102.89951
1.599666,99.89407
1.5728366,104.57435
1.6449473,96.246
1.6419272,93.55036
1.5276388,91.97176
1.5846506,93.18538
1.495883,85.98198
1.408763,91.8534
1.5148356,87.88167
1.399029,85.00347
1.4563676,83.49071
1.549465,82.45182
1.3667861,79.70418
1.3118888,75.03303
1.284622,78.88356
1.3589687,73.55198
1.291253,70.44662
1.2100954,69.976715
1.2246438,71.75749
1.0931957,68.42623
0.95262027,64.88533
0.9203664,57.26262
1.0051895,63.453842
1.0394081,61.75268
0.880943,64.05181
0.8193339,56.71213
0.80995184,55.830193
0.9211904,54.65044
0.9279396,53.556023
0.94005495,51.762264
0.8865198,46.832035
0.9447221,41.89243
0.9216208,50.91798
0.8826045,46.129066
0.8029958,45.713554
0.7867144,43.615208
0.7190819,47.192966
0.6935517,44.7115
0.6706672,43.18132
0.6071794,40.546932
0.5530914,44.158325
0.5183343,48.184883
0.590112,48.49438
0.56055367,46.623684
0.46327284,48.167496
0.59134644,51.64576
0.57366616,49.616817
0.59304476,56.099667
0.7252284,61.250134
0.7875801,61.499454
0.86749977,65.18586
0.8583841,70.4746
0.965419,67.08841
1.068905,76.004196
1.2641506,79.08182
1.3303926,80.15527
1.5022068,81.330956
1.4673878,88.85388
1.5367972,88.28827
1.5699308,93.37691
1.6910844,97.3463
1.7756288,94.282036
1.8389398,101.76325
1.885746,101.9721
1.8215998,106.96681
1.9045848,108.12526
1.9154087,109.08604
1.8275299,108.30343
1.9031011,111.29104
1.8555595,112.20229
2.0017507,111.227745
1.9088091,118.2709
1.8684528,112.55459
1.8205204,109.7615
1.8411276,112.52356
1.8158295,115.945625
1.7355636,113.04995
1.7452226,111.52985
1.5927812,111.10268
1.522134,105.59956
1.5381991,106.6603
1.4912173,105.42495
1.4855456,108.96791
1.541533,102.85953
1.3454381,102.227684
1.4428267,96.34454
1.4281465,96.99422
1.4220123,98.46722
1.4276943,92.438416
1.3891019,93.29552
1.4411211,88.27684
1.2944169,86.82893
1.368856,84.71617
1.2662773,79.25648
1.1976584,80.18962
1.3508233,85.24381
1.3312871,79.94619
1.1135052,75.329315
1.1676788,73.507256
1.1031992,68.208275
1.0820482,71.64553
0.9548715,73.3553
1.0772768,68.76511
0.9432533,68.787895
0.8861866,64.29154
0.78905016,61.321796
0.828667,60.691605
0.7716807,57.63586
0.7823248,57.940933
0.87786406,60.038124
0.71436346,54.37026
0.6732886,53.218727
0.65804607,50.29557
0.7234621,50.74668
0.70309687,46.89176
0.6821975,50.08441
0.56968474,46.601547
0.68736315,45.89634
0.5880326,40.0
0.52726996,40.19205
0.40822,43.15716
0.43957892,43.161015
0.44089586,45.11512
0.40966687,40.944527
0.29640773,46.71989
0.27301973,42.515327
0.2565822,47.4081
0.24111435,52.93206
0.24702555,48.219765
0.29259798,46.339813
0.40175414,57.02649
0.40654522,55.778706
0.5397665,59.57715
0.6039866,58.16191
0.6957019,66.03579
0.66938466,70.42204
0.74296194,73.39376
0.9413471,73.527435
1.0895299,75.2706
1.106724,80.82364
1.2884616,85.715294
1.3448578,86.93268
1.3746407,88.50936
1.44376,93.57471
1.5315685,98.25344
1.4903328,98.35569
1.5318052,104.36983
1.6408596,109.1531
1.6325319,102.51172
1.6039077,109.69712
1.6718086,109.45867
1.5339756,114.952896
1.6470026,108.65163
1.6226008,110.71124
1.6166909,111.020256
1.5954558,116.02101
1.521547,111.44518
1.5344877,108.950775
1.4597131,109.73212
1.4134122,109.31457
1.4121153,112.31153
1.422217,107.75823
1.3456907,103.3011
1.2831155,108.34223
1.2655574,106.81864
1.2412751,105.20636
1.2526997,98.83
1.2304358,100.758705
1.1706612,96.40523
1.1178508,98.67909
1.1548936,98.651146
1.0455406,89.20263
1.107846,94.99478
0.9901718,88.548134
1.0883986,92.22398
0.94889927,87.43646
1.0508785,91.51605
0.99430496,84.67552
1.0485879,78.4934
0.96753687,80.803444
0.805285,79.61562
0.8247524,78.52362
0.85704184,73.41223
0.8057954,72.944046
0.67024714,68.080124
0.6109678,69.35695
0.6231217,66.40748
0.6179593,68.14821
0.52747023,63.459854
0.54857695,61.529858
0.55728185,59.162533
0.4854775,57.479145
0.39480776,58.910908
0.4397762,55.196953
0.5198336,51.979767
0.37668195,50.64658
0.3767822,46.933258
0.5056516,48.18734
0.43447682,46.672405
0.37622318,49.451168
0.3435833,45.60045
0.38410607,46.62059
0.17435192,45.684677
0.24736145,44.67655
0.19267163,41.52424
0.23189749,42.878593
0.17674798,48.078438
0.019314855,48.82677
-0.013497164,46.723125
0.05414953,46.30686
0.070395716,44.075523
-0.06415069,46.187565
0.06399938,59.25344
0.11017416,57.92589
0.17911543,57.776424
0.1625343,59.08162
0.25331026,61.978973
0.3946224,65.19041
0.53045726,70.82425
0.4620266,69.088234
0.64198166,71.6392
0.7270599,77.038055
0.79415625,80.12487
0.8346825,84.868484
1.0407448,88.68768
1.0416198,92.06933
1.1248775,93.502716
1.2361184,102.46073
1.2324245,98.58486
1.3130364,104.34471
1.2884951,101.33581
1.2956362,107.46164
1.4274032,106.642265
1.4511753,107.669174
1.5008922,105.32204
1.4640841,110.10355
1.2879258,108.321686
1.3805307,114.72104
1.3099573,113.07931
1.3159381,113.29959
1.3388605,114.86617
1.2893217,115.13335
1.3441948,110.818375
1.2352911,109.25253
1.1445463,109.89022
1.1609191,113.30978
1.2113811,109.2233
1.0782008,106.0566
0.9954259,107.657646
0.98655546,103.92083
0.97809345,101.43064
0.93670464,101.62244
0.94368076,97.04071
0.94093806,92.37892
0.91189283,98.578476
0.9527514,90.719925
0.9365453,89.25051
0.9030286,88.20119
0.92821217,87.71949
0.87355083,87.30096
0.8706546,85.638885
0.7944911,82.74257
0.75917745,77.04209
0.8353513,79.37377
0.6631174,77.57604
0.6766188,73.87226
0.54730564,71.07005
0.51718956,68.59564
0.5086783,67.297874
0.48706052,65.32614
0.37291515,64.206345
0.42664427,67.3887
0.42465207,61.249523
0.39611638,59.339237
0.33884972,59.608208
0.37993115,58.786278
0.2796508,52.183865
0.39607114,51.653687
0.3530207,51.822903
0.36409724,55.333237
0.3736954,42.220367
0.3319019,47.945076
0.36920905,44.94063
0.28880405,51.548634
0.24571541,46.175076
0.25195864,48.10263
0.14406222,47.761276
0.110638075,41.259655
0.0865114,41.945557
-0.0021349033,41.299168
0.037100516,41.06173
0.013727039,42.108334
-0.027229274,43.88578
-0.019858884,48.666748
-0.03710667,51.58774
-0.022953967,48.18096
0.03109736,50.461494
0.0860633,54.550396
0.24165474,56.016926
0.2345366,59.01248
0.32886955,65.513245
0.401439,67.4516
0.65396607,72.06429
0.64228517,75.04029
0.69272006,76.679695
0.8334663,75.66251
0.88190395,80.96948
1.0165579,88.95885
1.0249401,89.61878
1.110466,89.68701
1.2323825,89.04398
1.1650404,102.57812
1.2808301,100.70727
1.2643003,102.21618
1.4593427,100.49639
1.3648573,111.920525
1.4199278,106.93364
1.4830742,107.62274
1.4184188,110.24297
1.4610249,111.90867
1.4603812,113.50005
1.3538791,114.689804
1.3746929,115.66593
1.4416572,115.976654
1.3200788,111.7542
1.3193703,115.78176
1.389989,114.25739
1.2335215,112.0653
1.2624346,108.535706
1.2397299,111.4357
1.1293589,106.412865
1.0853769,107.34878
1.1711408,104.16273
1.0339519,98.396416
1.0388019,100.5337
1.0831254,98.15912
1.1601143,92.6965
0.972658,94.162704
0.98463297,91.26417
1.0021955,88.65108
1.0566771,90.822784
0.9983948,86.62569
1.0787076,88.60971
0.90536565,80.98953
1.0227454,80.07402
0.94979584,78.57568
0.82416916,77.00463
0.76729226,79.13483
0.80797786,74.73668
0.8328988,74.00478
0.61278933,65.60513
0.7650379,66.4453
0.6646379,68.614006
0.6567669,64.46216
0.5590106,65.630684
0.58674467,62.305664
0.590589,57.86551
0.5095038,62.13127
0.48978335,58.66924
0.54471135,57.275787
0.53558576,54.475216
0.5352412,54.451702
0.51580626,49.35085
0.5286079,52.57369
0.4529554,45.80019
0.500297,45.793945
0.5480297,45.122925
0.52782965,45.323307
0.36106452,44.591084
0.43870372,43.861885
0.47346088,42.711956
0.31623244,41.915283
0.31047523,40.0
0.19633743,42.619057
0.16771904,46.94902
0.11534152,43.99195
0.23146422,48.439705
0.21214648,52.489365
0.21170229,47.559498
0.23482697,53.846542
0.29250315,54.206104
0.33651954,54.2311
0.3997252,60.24744
0.56243294,66.06801
0.5784114,65.09811
0.78059596,73.12202
0.8554625,68.44291
0.8980834,72.36371
1.0983974,76.1732
1.1413922,80.97155
1.3197525,79.82314
1.428739,83.119736
1.432346,93.258484
1.5348316,91.96539
1.4809378,97.97377
1.5822581,96.17266
1.5485891,99.85042
1.6212852,100.8958
1.6734573,104.90744
1.7083822,109.60646
1.6654,112.73679
1.6989164,112.71697
1.7214034,111.90535
1.7495407,112.98607
1.6547163,108.829926
1.7316394,115.90966
1.7861788,112.38339
1.7279571,113.88563
1.6051488,109.82
1.68608,113.78816
1.6119347,109.0433
1.6137959,110.17625
1.531789,108.17492
1.607922,105.95333
1.4478145,102.70071
1.4682927,103.51869
1.3695127,101.462395
1.4805088,95.73695
1.335796,102.30483
1.2952299,98.5337
1.4009088,94.50819
1.4819231,92.36769
1.381594,89.08777
1.2412733,90.21584
1.3666532,88.52157
1.2763965,84.87094
1.2390488,85.2734
1.207207,81.31682
1.2926282,79.8815
1.145213,87.53126
1.1544347,77.55159
1.184195,74.001526
1.1297965,74.05231
0.9804049,74.322815
1.0502623,70.10862
0.9952839,74.067024
0.96154404,65.923454
0.90804553,64.28345
0.8332286,68.202
0.81333625,60.406536
0.8172221,58.602318
0.8006443,60.34947
0.8096986,54.82394
0.82411915,59.349655
0.8428086,51.170784
0.87390614,56.42619
0.8580375,52.221123
0.8252118,51.308243
0.83716387,49.44974
0.73312217,47.809696
0.72899306,48.932114
0.8626259,44.273403
0.7270222,41.08368
0.74858546,47.967937
0.6149029,42.82661
0.6448631,44.431824
0.4505454,45.982563
0.518603,44.50482
0.5498461,44.794575
0.5284816,50.63024
0.48263633,45.924534
0.5443079,50.21732
0.40097106,53.06435
0.5147667,56.53751
0.55108947,57.43477
0.7564085,56.932816
0.78736234,62.14209
0.8840728,65.20647
1.0310692,66.0664
0.9805286,67.791466
1.1983436,73.31674
1.270556,77.302086
1.406241,82.28718
1.5124322,84.52906
1.5759599,89.8329
1.6724334,89.68568
1.7198813,91.09651
1.7080104,99.896935
1.7940855,99.33273
1.7871298,98.60008
1.9180757,101.68812
1.9566127,104.556465
1.8537866,102.424545
1.9270172,105.44946
1.9517329,110.91634
1.9520298,114.27152
1.8745714,113.543205
1.9303184,112.81454
2.01274,110.23446
1.8887233,117.06106
1.889829,114.45157
1.8293402,112.32939
1.9227312,114.072975
1.8609395,112.172134
1.8859433,108.24819
1.7412095,110.78548
1.7899108,107.00923
1.6684344,107.1105
1.6014475,102.201096
1.6740991,106.82489
1.6041883,105.6938
1.6628993,98.160194
1.459457,96.889145
1.5566713,94.76561
1.5812294,93.49134
1.499493,93.80873
1.5305008,90.82077
1.5289171,88.34955
1.4749085,87.59648
1.4695741,82.78458
1.3287622,84.313194
1.3918341,83.6541
1.4085774,80.61783
1.3402355,80.31846
1.1972415,79.55346
1.247864,73.789825
1.1835873,72.474045
1.0940384,70.62347
1.1366676,66.88662
1.0782018,69.76835
1.1782154,67.67204
0.9931721,63.921185
0.9201466,61.94566
1.0164566,67.07089
0.9256457,57.753094
0.88045555,57.935387
0.944646,53.029964
0.9089765,51.589645
0.85701764,54.3417
0.9561299,47.731705
0.9152231,47.033905
0.8929944,47.233852
0.87871766,42.69726
0.80487365,42.070427
0.84929764,47.860817
0.77997625,43.2914
0.75383407,41.73037
0.7199249,45.55488
0.6532968,46.23182
0.515614,45.04454
0.6360784,45.370342
0.51587373,45.82907
0.5311185,45.470516
0.6198043,49.724415
0.53896075,53.624607
0.5775503,54.102596
0.6622642,56.04706
0.6455709,60.093315
0.6805134,55.208797
0.7625261,65.11322
0.84340185,61.880898
1.0253717,65.713356
1.1164585,66.706184
1.19335,73.10183
1.2103723,79.97574
1.2969434,80.16813
1.4564196,82.963356
1.4891434,91.48605
1.6600134,91.03665
1.7110686,91.19201
1.7086843,94.70309
1.6577392,102.21918
1.7633138,105.29085
1.9695371,103.36357
1.8787247,103.568
1.878436,107.19609
1.9525849,105.604836
1.8986335,106.692314
1.8233557,112.52288
1.8752124,109.15032
1.9546758,113.88098
1.8777504,111.91131
1.9051821,111.885826
1.7652588,111.76687
1.8679776,111.883766
1.7637372,110.550735
1.7006418,110.993706
1.6432981,106.209595
1.6493421,110.51392
1.6169349,109.39971
1.6254517,109.37516
1.5414684,99.94052
1.4479562,104.574394
1.4536543,99.96927
1.4690187,97.65404
1.3887433,102.77944
1.3478189,96.11097
1.4164568,96.91891
1.3029835,94.98987
1.3952928,86.87855
1.4478838,89.049934
1.3605785,91.59621
1.2708387,91.74453
1.1937777,87.06504
1.2585648,77.90051
1.3115232,84.38745
1.1783055,77.461006
1.1669711,75.75781
1.2277577,75.45775
1.0903312,71.38204
1.0238737,69.18313
1.0248554,70.21005
0.9197908,67.56985
0.9259561,64.75924
0.8829294,60.56973
0.74650365,61.145477
0.82562596,64.472244
0.7264653,62.182854
0.80596656,57.306744
0.6983238,55.460033
0.72167075,55.163586
0.74618995,46.395485
0.78147,51.555798
0.73626524,50.733982
0.6728279,50.828423
0.63320684,49.001953
0.6380741,48.57065
0.714241,44.962105
0.5345989,44.23616
0.48140895,42.2345
0.4400659,40.973774
0.42721918,43.19675
0.4732373,40.69159
0.37724826,46.34701
0.3116636,46.42611
0.22927085,46.404877
0.27716613,45.88435
0.3078564,49.272537
0.35134396,52.339268
0.43553573,54.147957
0.3289541,56.022808
0.4024105,55.300983
0.38415012,58.823917
0.62123126,57.47732
0.5738512,63.97682
0.8431473,69.23789
0.8593217,69.73111
0.95351917,74.663345
1.0408151,83.54338
1.0711281,79.234886
1.2795525,80.956184
1.3073727,86.206795
1.3773731,90.47462
1.4580117,92.92566
1.537807,100.49652
1.5658058,97.59821
1.5578917,107.35356
1.5773522,104.44822
1.5851237,103.87106
1.5899171,108.63474
1.6055723,110.929825
1.7330608,112.591286
1.5996544,111.17082
1.701658,114.098
1.5757775,111.96991
1.601122,115.15081
1.5556506,106.80404
1.4546311,111.66454
1.544514,115.3515
1.5129741,112.94956
1.4642355,109.250984
1.3770373,109.10855
1.3527652,108.60561
1.2847862,108.389465
1.3412846,104.77946
1.1896695,109.688545
1.3363135,101.68193
1.1755373,101.73039
1.0279199,99.35717
1.2243643,97.23666
1.1795585,95.81964
1.0561694,92.38031
1.032749,91.74228
1.1188534,89.015976
1.1012902,87.17674
0.97544926,85.41646
1.1246043,87.824554
0.96833885,85.50058
0.9484352,87.5228
0.8912234,84.36087
0.8361322,73.76925
0.886232,74.317665
0.8453897,76.957726
0.69255936,74.615875
0.6854057,71.592545
0.6629455,65.491585
0.6244221,65.26147
0.5163911,65.6628
0.56126744,61.354958
0.48758432,63.271595
0.5545123,62.0078
0.35049906,57.490746
0.4011886,59.383892
0.4056463,52.67144
0.36411583,51.835228
0.45583153,50.23532
0.44078892,46.83504
0.44990644,51.955063
0.33698687,51.125862
0.46238026,49.569424
0.3458324,47.574543
0.36040553,42.101456
0.23748215,42.994057
0.21697715,46.27787
0.24700364,42.859978
0.2297226,40.97055
0.14596753,44.310944
0.038392555,43.17593
-0.012772197,45.010315
-0.008919587,51.03579
-0.03427964,48.515457
0.08735251,46.442505
0.12987275,48.333984
0.12006829,50.82104
0.10964465,56.38577
0.2898943,59.136147
0.34030315,59.545715
0.37355214,65.47602
0.46750084,66.679794
0.50851434,70.53953
0.6344524,80.807945
0.70911896,76.104774
0.86364377,81.390724
0.896771,85.0579
0.957224,88.702286
1.0612072,90.96744
1.2020882,90.59469
1.1503371,99.35309
1.2829978,99.105865
1.3066038,104.64002
1.4174873,98.84911
1.3883146,107.36809
1.3894486,106.011284
1.3732516,105.93397
1.4413568,111.22623
1.326352,110.157234
1.3759972,112.105896
1.3673267,106.06913
1.4127566,112.145836
1.3833598,113.232735
1.2891073,114.85423
1.2340086,113.69314
1.3071839,115.016624
1.3287207,108.33478
1.1694047,111.35082
1.172323,112.69712
1.111753,108.90631
1.1403258,103.09985
1.0285178,102.38889
1.0512061,101.29194
0.9375721,107.24709
1.0180122,100.250565
1.0109551,93.094406
0.8676311,93.16042
0.84103155,94.62088
0.8439861,95.83938
0.90297323,96.09946
0.8657492,88.697685
0.8733651,87.57654
0.86022794,83.328545
0.7358054,87.61859
0.7754965,82.10623
0.81462544,74.96634
0.70345926,80.827354
0.711567,77.76529
0.79038477,73.40691
0.57165563,69.836555
0.5298691,67.41672
0.5901744,64.10206
0.6257634,67.6728
0.3948217,63.281593
0.42469278,65.83382
0.38719,54.557808
0.35510796,58.33989
0.3080359,57.20231
0.2820318,59.249535
0.3825564,49.731937
0.29834905,53.30916
0.3716758,49.297726
0.30900458,47.174324
0.37252977,44.68079
0.3263011,51.625763
0.3802965,47.345955
0.29412773,46.15505
0.25608608,44.92176
0.29099175,45.04897
0.17837226,46.27531
0.1974171,48.673344
0.04571747,40.38664
0.014159316,47.84771
0.01403444,44.298695
-0.015128873,48.24628
0.0025210616,44.095768
-0.017573424,48.496677
0.0031259551,50.993404
0.08060843,54.918015
0.04012811,48.88167
0.101375915,54.54417
0.11258946,61.451656
0.20602494,56.605633
0.38136747,61.965412
0.3325259,69.31808
0.60512775,69.8974
0.6132798,72.36528
0.7271432,76.6216
0.8458431,76.423004
0.88489217,83.14624
0.87058425,89.71609
1.115603,84.6937
1.1628587,90.38062
1.2368985,93.139046
1.2497976,95.45082
1.3139913,97.98579
1.32811,101.537315
1.4253417,105.952644
1.3935242,110.078
1.3878692,109.02717
1.4254185,114.05135
1.5116941,107.52891
1.4511647,107.46747
1.4548076,114.18376
1.4129184,111.87126
1.3401052,110.715065
1.3994235,113.83391
1.3841711,112.34302
1.4344248,111.96034
1.2595183,112.21288
1.197365,110.923996
1.3599023,110.63083
1.3483688,107.63576
1.2746665,106.40561
1.1705749,103.64764
1.1621605,104.064
1.1375307,103.991066
1.0424227,99.80409
1.0171406,98.09614
1.0655594,95.49202
1.0700207,96.41749
1.0121632,95.03248
1.0214841,91.649475
0.9818488,91.99851
1.1452786,86.67594
1.023931,87.47906
0.9869437,86.714195
0.92050105,84.20345
0.9710795,82.96841
0.9434382,77.65214
1.0494219,77.634895
0.78309596,79.03761
0.8144724,72.24405
0.7816727,73.08206
0.75524586,71.90387
0.668103,67.97099
0.57446784,65.60351
0.6678154,62.832016
0.47111928,62.97425
0.5657471,56.03358
0.51082265,59.89429
0.49157602,55.126194
0.5197418,55.39281
0.5604727,53.539913
0.49322423,52.160267
0.5011799,49.704628
0.555273,50.738956
0.45694557,46.362167
0.5581407,46.678635
0.57386285,44.64167
0.41268456,43.666412
0.44907942,42.103638
0.31871372,44.037308
0.34136853,43.61746
0.34951213,44.16093
0.28665423,42.48459
0.22212109,43.65543
0.2805293,42.03567
0.14280197,48.548824
0.22062427,43.943974
0.105312385,47.61464
0.16220714,52.312775
0.25508335,51.462738
0.29614994,54.731472
0.43015274,57.937935
0.5537643,61.479755
0.5322535,61.86802
0.634649,64.5792
0.7895845,68.35643
0.87749404,72.8586
0.8988092,72.21383
0.95752335,74.71187
1.2037102,83.44424
1.295518,82.95332
1.2773287,89.113945
1.4459128,91.19714
1.4492139,98.37647
1.4908202,93.86457
1.5125899,101.3858
1.673446,104.47251
1.5804253,103.520905
1.6810269,104.60129
1.6186647,104.74222
1.7178212,107.02982
1.7495224,112.9516
1.7410766,106.036285
1.7558837,111.197014
1.7259712,114.7961
1.7858433,113.18254
1.6300644,116.259445
1.7209302,114.955376
1.6979338,110.960594
1.5739236,111.25252
1.5434262,109.54413
1.5533197,109.0942
1.5453768,104.19265
1.5303185,106.56444
1.4854426,105.178566
1.394971,103.426025
1.4163017,98.23606
1.3769758,103.54754
1.3778285,102.0388
1.3893628,92.510155
1.3975585,95.233406
1.2212417,92.41122
1.3297462,89.85066
1.2120547,91.26475
1.3964118,88.14175
1.2848364,85.273155
1.3267046,84.28528
1.2932365,79.83981
1.2090161,79.3854
1.279849,80.86087
1.1744915,73.879715
1.1458653,76.792885
1.0628672,76.19534
0.9853137,74.272316
1.0701001,68.35392
0.88596547,67.54243
0.8643292,69.71376
0.8652823,65.450096
0.91303825,63.022503
0.92352957,54.68356
0.82468295,61.31189
0.835116,58.700447
0.8357162,58.17734
0.87714916,53.07397
0.75692093,51.991028
0.8776727,50.032364
0.8379442,55.465378
0.76692843,49.172474
0.80943453,50.065445
0.7980596,44.993877
0.8365257,46.301895
0.737133,44.0777
0.702015,43.660862
0.6885919,44.442856
0.58603114,42.00724
0.7217238,48.37932
0.52066684,44.75738
0.5551176,44.682495
0.51909953,45.080353
0.51021445,48.199688
0.47494042,46.241444
0.38322726,50.741592
0.4677763,52.67838
0.612776,53.24941
0.5337002,58.062008
