ppg,abp
1.0224346,94.75081
1.1439409,97.451904
1.1607196,100.5828
1.2940444,106.45296
1.3746961,110.73842
1.4124873,112.0911
1.4053022,118.01162
1.5655702,120.16811
1.5815604,120.93739
1.572534,124.57997
1.6482718,131.53038
1.7016467,133.75175
1.6689411,133.96976
1.8305415,137.65735
1.7183657,136.185
1.7939148,140.23788
1.6520699,139.45357
1.7867392,143.02821
1.7635987,142.7212
1.768814,141.82367
1.8258224,143.94096
1.7585742,142.88243
1.5775968,142.83757
1.7574112,142.32123
1.7367635,146.5661
1.6652274,140.68668
1.6243656,140.08467
1.5668863,141.50537
1.6224169,138.56534
1.5958647,134.5897
1.4294505,136.46123
1.4870108,133.18172
1.5182483,129.31639
1.5004377,129.58447
1.4154196,128.34392
1.4181539,127.27835
1.3237259,126.33104
1.3429544,122.30246
1.3861511,118.513054
1.3542365,117.50347
1.3920133,113.114136
1.3182377,112.9733
1.371497,109.282
1.2978548,107.65817
1.2522677,101.945045
1.2757778,101.97964
1.4043983,101.708496
1.2492505,102.07007
1.2198691,96.544975
1.2320362,95.65864
1.1642158,95.05239
1.2381899,92.0648
1.0549084,92.24486
0.9729083,84.410576
1.0615441,85.33343
1.031537,82.52897
1.0171418,79.04568
0.9019399,78.69709
0.8655225,78.208664
0.99196255,75.12493
0.9244822,70.05804
1.019701,66.84272
0.878854,64.2515
0.8124372,64.84487
0.8879401,65.87407
0.88583016,63.478798
0.8738307,58.403126
0.85670346,58.30211
0.87052524,55.738102
0.82268524,54.533638
0.81033903,53.04707
0.8361354,53.694393
0.7905696,51.39719
0.84505635,50.78906
0.7671848,43.378353
0.776764,48.727547
0.71942466,46.841145
0.741528,45.002113
0.68984985,45.315704
0.543163,45.33549
0.60762805,46.31221
0.55569184,43.87084
0.5727212,46.46748
0.56922096,49.028008
0.54296947,50.577652
0.522821,51.12094
0.5681014,55.018604
0.5516093,53.844906
0.6033379,56.582207
0.63506335,60.13066
0.72344166,64.22394
0.71600413,66.78666
0.77131236,69.90935
0.94287187,72.76619
0.97961336,75.81226
0.8930652,78.14967
1.159674,84.03388
1.1616801,86.46869
1.2437822,90.42247
1.3074743,95.53195
1.45072,102.82815
1.3955986,104.88105
1.584161,107.999825
1.5768309,110.5589
1.6430182,115.74122
1.6606593,119.51118
1.7935138,119.715576
1.7996209,127.60816
1.8506565,126.653305
1.9787623,127.92108
2.0375838,133.73834
1.889512,133.08287
1.9841298,135.93275
1.8449929,141.54523
2.0110607,138.99335
1.9735883,143.35747
1.9636343,140.33902
1.9831161,140.07195
1.8853364,144.38724
1.9185631,145.21323
1.8425827,143.35434
1.8842161,141.06355
1.8793929,141.4134
1.8483316,137.41454
1.8080739,142.0681
1.978938,141.2113
1.852663,138.23961
1.8334966,137.63222
1.7202214,132.89575
1.6244953,135.25357
1.6604819,129.16203
1.5380337,131.8788
1.5902109,130.57271
1.5737808,127.59321
1.5514995,126.34298
1.6693689,123.0194
1.59427,119.53341
1.5060925,117.892204
1.4625404,116.016525
1.5373294,111.0775
1.5607823,111.66117
1.4171487,106.639275
1.4456125,108.5759
1.4957924,106.600586
1.4325775,101.39021
1.4101489,99.526085
1.2697316,96.78902
1.3170849,97.24465
1.3048898,95.04507
1.3126518,93.217354
1.3937616,90.54069
1.1821,87.145454
1.1262417,86.85888
1.1180874,84.08061
1.1045053,81.80559
1.1362197,78.24716
1.0659356,77.1171
0.9212153,75.93748
0.94997066,70.51411
1.0044689,70.40686
0.9696129,68.48581
0.96269083,68.163605
0.8360463,63.696564
0.9989454,64.362015
0.9175963,60.73887
0.8467518,56.72334
0.95520145,58.474426
0.8986146,54.386776
0.93440276,51.64805
0.8067769,53.18286
0.88282466,45.073845
0.75694954,47.772865
0.84526783,48.00489
0.87864256,46.797318
0.7524734,45.09154
0.69875747,47.61804
0.7487436,44.862164
0.614821,46.265137
0.5725758,45.62868
0.58432543,45.43969
0.55868745,44.335125
0.48899564,46.072178
0.45056775,50.19438
0.47118694,50.156345
0.6068841,54.79113
0.4611124,55.96945
0.47832578,53.8281
0.48004976,59.578835
0.4589963,60.648983
0.60498345,64.500275
0.66609067,67.24406
0.735706,73.34146
0.6716401,72.82307
0.9512073,79.76763
1.1092902,79.121574
1.0274832,85.28031
1.1973199,89.90601
1.2546988,93.04909
1.2932004,100.972404
1.4645053,101.741394
1.3598529,105.77287
1.4179946,107.84984
1.5031961,112.748405
1.630762,113.92621
1.645932,116.99609
1.6763599,123.77347
1.7129512,126.54659
1.7662884,131.15683
1.8283376,131.4113
1.7461556,135.4647
1.7976638,134.42162
1.7915806,136.84685
1.746913,140.76572
1.8145403,139.89233
1.7973714,144.8866
1.8043531,142.81485
1.6571931,143.8876
1.7905217,143.52783
1.7402515,145.24985
1.8173383,141.63452
1.6414071,141.11353
1.6600116,143.51212
1.655653,141.95422
1.5603852,141.32239
1.5254443,136.99542
1.546328,139.36015
1.5457469,137.08215
1.5234444,131.65825
1.5081617,133.12135
1.4641066,131.49869
1.4505992,132.64435
1.4749143,129.34659
1.3429165,124.22729
1.3809966,121.24432
1.3012342,120.65693
1.2546974,120.885
1.1782755,116.86644
1.1990806,116.79121
1.3618095,114.739845
1.2452615,112.73174
1.2270553,106.51582
1.2528722,106.123024
1.2067462,103.08175
1.1191508,104.338844
1.2034276,100.45525
1.0612648,99.35066
1.0370101,95.98576
0.99293554,94.871445
0.9132185,93.037384
1.0704539,87.38291
1.0330386,88.72257
0.91571695,84.44124
0.7946217,83.70121
0.7507839,81.52558
0.75189024,78.59429
0.76543826,78.60014
0.753631,72.17512
0.6324714,74.987755
0.68398374,73.56994
0.6614625,66.876274
0.65274173,68.54601
0.6411691,62.27113
0.64927566,61.436073
0.6026183,60.360176
0.6840175,59.958523
0.7149885,57.646393
0.5374052,53.00175
0.57136494,53.453373
0.6413471,51.0249
0.5107091,48.1942
0.5119821,46.873135
0.4140442,49.1717
0.39376727,50.774467
0.41805807,43.32642
0.25593436,45.188957
0.3896005,45.46054
0.23254341,47.965336
0.2291524,43.095943
0.25217453,46.097794
0.15053312,48.97975
0.15127675,50.34487
0.21692762,47.37224
0.1842936,52.181202
0.06959089,52.589718
0.18726337,55.58355
0.29433697,58.756668
0.3870137,62.86835
0.19851746,63.011436
0.19687033,65.98217
0.21352614,67.69356
0.42423072,69.48198
0.51105666,76.89355
0.6011045,83.1196
0.67392635,83.90865
0.74425185,87.55191
0.855675,90.88161
0.7884411,94.0354
0.96703273,99.25072
1.0681783,100.82429
1.0341526,107.13017
1.2373323,109.174126
1.2979231,114.59807
1.3119621,117.775635
1.3300298,121.036766
1.3542522,127.50652
1.3691288,125.77832
1.3729777,130.00677
1.4433215,129.46402
1.4152269,134.62567
1.3724146,136.94957
1.457412,139.22372
1.3670882,139.13518
1.3814715,140.60107
1.3891834,141.98119
1.431797,143.62543
1.4500493,144.38431
1.5077838,145.73404
1.3593509,141.01135
1.4506023,145.09402
1.2803773,140.78096
1.3047975,141.17188
1.3398144,143.43584
1.2751505,140.02936
1.281611,141.83647
1.1953166,139.49428
1.1408964,138.98497
1.2078352,132.34575
1.1321929,133.90251
1.0554618,132.67708
0.99742526,129.53122
1.1232662,126.30074
1.0215805,127.639015
0.9888577,122.676834
1.0079648,121.4284
0.96643823,118.940094
0.9646628,115.82404
0.9616606,117.03718
0.89654183,110.52061
0.93534386,110.77148
0.926267,108.44408
0.8850388,106.47399
0.7832398,101.70049
0.86589074,100.805954
0.79691064,99.75067
0.78108764,99.04967
0.68230116,97.854996
0.7688111,88.69573
0.75806224,91.80696
0.7095929,94.15982
0.5998102,85.79897
0.5993953,86.704834
0.46137506,84.54441
0.5411693,77.77445
0.5042732,79.81501
0.4449087,76.59271
0.3962063,73.95358
0.4483881,76.216545
0.36224443,68.86285
0.37228876,69.253685
0.35363218,65.756935
0.29239297,61.874073
0.39346635,60.621326
0.38689554,59.61338
0.38631675,58.99812
0.27774328,54.924355
0.2389308,56.841743
0.3442882,54.09315
0.44679865,53.932594
0.2954487,48.448185
0.29709876,49.573112
0.27457917,48.110146
0.17319003,44.793278
0.2471712,46.55431
0.14573668,44.333294
0.09501552,45.588367
-0.009554913,43.23717
0.08450049,47.405293
-0.032134697,44.788445
0.008511494,44.349007
-0.10354237,50.42213
-0.15879546,46.357517
-0.12665164,51.941875
-0.17610659,51.91978
0.017888041,54.989937
-0.10519766,54.037937
-0.03627808,60.410812
0.078024134,61.265232
0.15324491,65.44612
0.27706325,69.7396
0.2714339,70.13449
0.3540551,79.29285
0.45854804,79.24559
0.6386487,86.37245
0.6439026,87.78636
0.7479727,91.03991
0.82084304,96.00315
0.8901422,101.05978
0.8928101,103.7818
1.0427223,106.53614
0.99460036,109.22521
1.0140011,115.39598
1.2453215,117.258255
1.2594354,121.439514
1.307095,124.38271
1.3340214,126.57561
1.3352007,131.6452
1.3893477,135.13539
1.4024101,135.92831
1.3459764,137.1713
1.3713764,140.16554
1.4237413,140.62448
1.4351513,144.44388
1.389098,141.41145
1.3347967,142.06635
1.3621094,143.0252
1.2341083,143.62231
1.3563566,142.2852
1.2912226,145.10014
1.2536298,143.51144
1.2876626,145.34517
1.2975819,140.8024
1.3691969,144.11041
1.1754037,139.5838
1.2043532,137.82506
1.1547664,139.19101
1.2372617,135.43715
1.2418693,136.22891
0.9940825,130.00699
1.0563631,127.676506
0.9789399,127.6078
1.005435,122.83919
0.9908591,121.30104
1.0498102,118.37918
0.9958989,115.751175
0.9748262,116.38888
0.93559813,111.12022
1.0115734,114.56985
0.96177936,107.28212
0.9017138,109.55257
0.99625915,105.11934
0.8500248,100.201866
0.9329314,100.460495
0.80093783,97.501205
0.9276119,98.0512
0.86231875,91.289825
0.7467527,90.73504
0.7860046,91.08609
0.7537619,89.36421
0.7269681,86.4939
0.72339565,83.72147
0.65092754,83.33275
0.5503055,78.26546
0.6414567,79.34214
0.48355547,72.19555
0.5722896,76.891266
0.42725974,72.44769
0.5750022,68.97387
0.5447287,66.924324
0.4514123,65.74645
0.44306487,62.795444
0.59902,62.902367
0.40293264,55.7763
0.4567495,57.383755
0.34674105,59.20885
0.60638857,53.907135
0.49671835,50.711628
0.5163479,48.72696
0.56199485,43.633396
0.45305818,48.061905
0.46372974,43.298553
0.46463203,45.052296
0.27262548,45.925095
0.36823753,44.018795
0.390487,45.34561
0.2461792,46.39485
0.3021871,49.30129
0.29076406,45.903015
0.13958836,52.0975
0.10265832,47.225624
0.009432801,49.488144
0.22017676,52.192165
0.30047175,53.746635
0.23049417,56.956825
0.22870116,58.38278
0.2063237,60.104675
0.28733608,62.849957
0.49490386,67.8191
0.40178522,67.83918
0.43289068,71.76538
0.58438236,75.28344
0.69086576,82.6964
0.8394734,88.57684
0.9282048,90.18896
1.1057831,93.73126
1.0882,96.65125
1.1620543,101.345024
1.1773723,107.80817
1.3981735,109.02557
1.3296839,111.840614
1.4652233,117.00759
1.3632847,118.57332
1.5542282,124.48358
1.6229467,129.02211
1.6260878,129.1531
1.5717095,133.29832
1.5889126,133.43117
1.6254414,135.91852
1.6444062,137.26123
1.747025,138.10689
1.7607089,141.57094
1.7106949,142.98384
1.69112,141.19391
1.739835,145.65662
1.6903913,145.64471
1.6237351,148.0964
1.6322962,144.75597
1.6728778,142.48238
1.5137326,142.79964
1.5740304,143.65776
1.6418649,142.04869
1.5739566,142.0822
1.5790973,137.88023
1.5466392,141.06697
1.5149692,137.80435
1.4724903,132.71301
1.4302253,132.87941
1.35105,133.4482
1.3829519,128.09677
1.5132176,126.34405
1.3457286,125.16874
1.3124763,124.75882
1.333684,117.56645
1.3918943,119.18654
1.3826063,114.573715
1.3565834,110.609436
1.3416543,116.117485
1.2762461,107.23478
1.2505064,104.053696
1.3328404,103.001915
1.2369089,105.580734
1.3312021,100.25181
1.2251453,97.25966
1.2228487,99.483864
1.2208066,95.27654
1.166224,93.62171
1.1496884,90.93661
1.0802395,89.35607
1.0722373,87.49629
1.0461115,80.42285
0.8723108,80.79309
0.9393665,73.61597
0.95225704,75.870186
0.8188857,74.825645
0.8536265,73.21463
0.8324356,70.44445
0.9121554,67.214966
0.8221986,67.33218
0.8401832,65.770966
0.82292855,60.92127
0.76141113,58.84148
0.8515265,62.454346
0.9132524,55.463036
0.8117573,54.377926
0.8280575,51.307587
0.7745717,51.35913
0.73140895,50.427532
0.6519977,47.82624
0.70556825,47.191303
0.7781803,48.332226
0.70488524,46.510372
0.75594807,47.2048
0.7412555,46.95216
0.62841654,45.03288
0.65344757,46.099957
0.5493444,45.39561
0.50206864,44.539467
0.62399244,46.038036
0.5410641,49.188667
0.5990206,47.0965
0.487682,48.53949
0.5977672,52.649178
0.70152205,57.562008
0.5401232,60.000477
0.63509375,60.069572
0.7255663,64.189354
0.74133825,67.33625
0.81177944,73.320816
0.7985389,77.6198
0.9197306,80.595825
1.015252,83.85949
1.0824231,86.44865
1.2034051,88.74292
1.3152682,93.99531
1.4709767,99.76379
1.5916375,99.7394
1.508611,107.01229
1.5748425,111.44608
1.5964642,113.93547
1.8184752,117.24237
1.6830599,119.042755
1.7328737,125.42891
1.8776926,126.575584
1.9307753,125.619446
1.8731067,130.43689
1.8765674,131.4266
1.8942622,136.26163
1.9180421,137.83466
1.9830725,141.14842
1.9994323,141.54794
1.869892,144.8314
1.8772743,144.46872
2.0421624,141.99054
2.0167768,142.99908
1.9714216,142.71223
1.9232869,142.87833
1.8757794,146.34187
1.8326807,144.00136
1.8298208,139.7731
1.8277342,140.7093
1.7444688,138.33945
1.676811,139.0388
1.7639396,133.7328
1.7199277,132.95773
1.7007799,131.86664
1.6552783,130.5393
1.6807082,129.78558
1.582095,127.60885
1.6210207,122.86247
1.4078411,124.14469
1.524789,121.674835
1.4839876,118.08444
1.5254537,119.57252
1.5800644,113.00166
1.5153525,112.62422
1.4381664,111.48368
1.4946477,108.635666
1.3311455,106.46058
1.4900949,105.10098
1.4637369,102.88176
1.4254348,97.5259
1.4303043,98.83475
1.4252104,96.750145
1.3599983,96.31081
1.2202531,93.04061
1.2115318,89.33842
1.3230817,84.52346
1.2166792,85.701225
1.1465858,81.23691
0.98477316,79.73873
1.0833116,78.29935
1.027637,72.57326
1.007068,72.45476
1.025397,73.33626
0.905304,67.99061
0.9718918,68.98982
1.0174171,67.05394
0.87422997,65.7422
0.8965786,60.376175
0.95602983,56.825993
1.0204523,57.31941
0.8322983,56.59635
0.94093895,52.920296
0.97385454,51.43244
0.90314865,50.159084
0.80654895,47.882458
0.80580276,50.718384
0.8894168,45.994286
0.79353106,45.969997
0.6324102,44.40764
0.67881083,44.097595
0.7455118,46.757664
0.6698942,45.59141
0.46731305,44.352913
0.62887144,45.382538
0.48740488,48.621807
0.3768197,50.47542
0.57665896,48.814514
0.51961684,51.22598
0.52730095,48.15715
0.5718374,55.32275
0.5173125,56.732574
0.4976544,59.715176
0.56481403,62.99496
0.68421406,67.1981
0.6590561,70.1553
0.7886519,72.45734
0.7653999,76.99266
0.91564643,80.88787
0.97619265,87.00074
1.013866,85.189445
1.2440257,87.98885
1.2118459,94.98684
1.3187113,98.860825
1.470711,102.2175
1.5207918,108.66178
1.5407816,109.72569
1.6658262,118.11041
1.682153,115.50168
1.667053,122.73274
1.7459908,124.57642
1.7239655,128.13776
1.7340904,132.7235
1.798243,133.13556
1.7111154,133.8379
1.856343,137.18333
1.75504,142.23596
1.8047285,140.90543
1.850686,140.56964
1.7267683,142.60356
1.8702123,145.17805
1.838514,144.07542
1.7879274,146.59743
1.7772545,145.24037
1.6977707,141.55577
1.7262617,142.46732
1.6984115,142.52995
1.5867867,142.14417
1.6241359,141.70764
1.6619515,137.21472
1.5189495,137.99962
1.554046,138.80885
1.5027686,132.41
1.5131099,134.40231
1.4848205,130.78745
1.4318287,132.51328
1.4121499,128.03847
1.3451264,127.04825
1.3853563,118.05719
1.2353576,120.994736
1.3650018,117.096115
1.2032195,118.17867
1.2627773,115.023766
1.310586,112.080315
1.1868362,110.2888
1.3417815,109.61763
1.3345026,104.41858
1.2576947,101.64468
1.2521802,99.7462
1.075308,100.596924
1.1647102,98.142975
1.1540688,94.0445
0.96146315,93.43583
1.025724,94.986824
1.0199772,92.24045
0.94177586,86.36465
0.8944382,82.30899
0.90365946,82.887375
0.88424647,77.19142
0.69351596,76.830605
0.77266645,73.78102
0.69320136,71.47083
0.7003152,71.35101
0.6947357,68.09545
0.5446642,66.03278
0.65432245,64.0341
0.62530166,64.959854
0.5860314,62.49874
0.6452362,59.201103
0.5552952,59.151833
0.5724906,53.5105
0.592135,52.91478
0.58407927,49.136353
0.648763,48.474194
0.55905133,50.04514
0.5940697,46.713036
0.5299526,47.701138
0.45015082,45.241985
0.53930265,44.03858
0.32584327,46.692127
0.315767,45.109882
0.28270942,42.801533
0.33662012,47.00022
0.19533662,47.91773
0.1701518,49.43092
0.21310337,49.38774
0.31511548,50.559692
0.0746971,51.5075
0.11430128,54.232113
0.15320465,55.218437
0.12395585,60.558167
0.12356279,58.723156
0.2348483,64.21686
0.34892207,68.21724
0.40411076,70.9302
0.4837302,75.175446
0.47413135,77.5423
0.60743076,83.239845
0.74431354,85.38996
0.8424146,90.85187
0.89461637,90.77766
0.9303496,99.379715
0.91411275,103.674545
1.1173757,107.21974
1.207205,107.365906
1.3361498,111.8415
1.307886,116.268684
1.3096242,118.906815
1.3198459,121.05382
1.2951725,126.01881
1.4567548,125.757484
1.3806912,130.40158
1.4442942,134.11664
1.4385897,131.3022
1.5453868,137.94717
1.5246787,143.62518
1.4917759,141.73842
1.4019865,142.47278
1.5562086,141.54115
1.4845369,146.07802
1.5065099,144.49922
1.4988718,143.9295
1.3054122,143.14511
1.3673269,147.13556
1.4072716,141.86624
1.412394,140.40944
1.3344615,138.15489
1.2479118,142.24301
1.3107785,139.3336
1.2401094,137.47725
1.1357031,136.71696
1.1016351,136.08698
1.2397006,132.60513
1.1779774,133.07655
1.07454,127.14617
1.0337567,129.44408
0.985052,123.49715
0.9334552,122.160095
0.9966278,118.3753
0.972606,117.59835
1.0050472,115.03122
1.0098892,112.528076
0.9959053,114.838135
0.95778865,107.82949
0.89144856,107.30798
0.8850741,104.55215
0.9481789,103.3537
0.82548374,103.14521
0.82351553,96.609634
0.8114387,91.76291
0.8479701,93.11497
0.72396064,88.80837
0.80392754,90.27016
0.773295,88.17318
0.6173817,87.42275
0.5777411,81.69211
0.51625884,82.40338
0.5468204,79.555466
0.55931115,79.34975
0.5495826,73.53692
0.40873846,70.834694
0.43870097,69.68583
0.3583438,66.98226
0.42787623,66.700294
0.35343578,65.48194
0.38229924,58.35815
0.323771,60.847954
0.3085789,59.380917
0.3404886,57.1342
0.41677654,50.74837
0.24210347,54.55187
0.2874885,49.845406
0.33713412,46.70221
0.42304057,47.594578
0.2667809,46.369114
0.18005742,46.160305
0.2164079,45.437283
0.22400905,45.483192
0.19731185,45.17683
0.14783312,43.127563
0.03416841,45.284748
0.09983522,45.342976
0.08625404,49.427296
-0.018714843,46.81165
-0.12241621,49.30147
-0.103877775,51.567154
-0.04800936,49.759914
-0.07050103,54.12411
-0.039845362,55.776524
-0.06087912,58.251404
0.061324023,63.678677
0.110541195,63.030365
0.22040407,70.56874
0.21577583,69.59731
0.29083258,74.81347
0.35845858,79.34605
0.43028727,80.66011
0.5582413,88.04696
0.58852947,88.40358
0.73077494,94.40571
0.8584694,99.71557
0.854331,100.725
0.9949494,108.72367
1.0331869,111.485535
1.1102602,112.15384
1.0772365,116.760414
1.2826746,120.96169
1.2153009,124.347595
1.3998666,122.3953
1.343921,127.367744
1.3460834,129.11403
1.3589097,134.1628
1.2652636,134.46516
1.4881289,137.18143
1.430557,142.40501
1.4300452,139.34534
1.325241,140.5515
1.3465236,143.26344
1.3450223,143.05542
1.5221668,143.89688
1.2623559,144.03308
1.3441628,144.60223
1.3850583,142.81407
1.2976718,140.71999
1.2458049,142.98111
1.2563591,138.8964
1.2519318,138.82773
1.2302319,134.19748
1.2329661,136.9769
1.1077535,136.83675
1.1154276,131.4081
1.1264565,130.01425
0.8743381,132.67464
0.92910916,130.11664
1.0439668,124.17885
1.1037602,122.60284
1.0176718,120.52328
0.9989756,117.92053
1.0107778,116.27971
0.9111205,115.44258
0.9280406,112.23276
0.96457493,110.775505
1.0486892,107.59316
0.89644533,106.08904
1.0569663,102.20823
0.92515004,99.99326
0.984753,101.26114
0.94164693,97.643814
0.8809476,96.355034
0.84095573,93.122925
0.79007274,93.68641
0.76701236,89.24748
0.6291098,89.267075
0.68876624,80.977066
0.6220119,83.34279
0.5135173,82.04799
0.57084394,76.20118
0.5594497,76.60028
0.45966065,74.07772
0.48987874,70.84699
0.4660663,70.12177
0.4231387,69.327774
0.5694455,64.88655
0.5001625,63.619324
0.54704505,60.47254
0.4975187,59.482227
0.4564035,54.96501
0.52067894,52.505833
0.5293136,53.85944
0.44973198,51.418335
0.5023622,51.196045
0.39323163,50.25515
0.41475755,49.38102
0.4524179,45.684864
0.43110028,47.15916
0.4196081,45.0417
0.36511803,45.260117
0.2786414,44.798355
0.24339421,44.65608
0.21291481,49.30879
0.20346344,46.174454
0.19278394,46.233006
0.1804556,48.710484
0.18655746,49.247402
0.23056471,51.217937
0.05785482,52.722622
0.22547048,53.81628
0.26240158,56.98246
0.3120391,59.15855
0.25032094,65.9688
0.35091633,65.90835
0.5136164,67.87068
0.4841138,73.279785
0.51856756,80.52144
0.63169295,78.880684
0.8198844,84.28717
0.84117925,86.544266
0.9290673,92.3489
1.0594363,92.48595
1.0588797,96.757065
1.2273811,104.47331
1.3288168,106.42751
1.3847667,108.78261
1.3299496,112.72489
1.5572728,118.44341
1.4851183,120.229416
1.4092307,125.03207
1.5821446,131.35019
1.6542574,130.02203
1.6531898,134.27379
1.6219175,135.83997
1.682139,137.98653
1.771983,137.197
1.6352235,140.15227
1.7478107,142.42732
1.6152006,144.98178
1.7000946,143.56401
1.6593083,142.72061
1.6007501,143.34137
1.786131,144.08194
1.682951,143.20255
1.7039571,141.64197
1.5600709,143.41971
1.5675042,144.86859
1.5607178,142.38454
1.4765823,137.84859
1.408586,137.10608
1.5323436,134.19301
1.5420418,135.3593
1.4781419,131.84375
1.4772255,132.75621
1.401392,129.43837
1.3508328,128.46968
1.3869274,127.36755
1.2357495,120.100204
1.2751348,121.53898
1.3037981,119.610344
1.2729647,115.63543
1.3681053,115.5568
1.2537682,112.83694
1.2042034,108.197266
1.2815642,107.65922
1.2465147,105.622826
1.2397318,104.247826
1.1656712,101.21382
1.2621626,96.48043
1.1826155,96.23636
1.1236787,95.799706
1.100452,93.028465
1.1344836,88.938194
1.1019183,88.64394
1.0013999,85.88057
1.0720317,83.268425
1.0179348,82.29858
0.97945863,78.87573
0.9922989,76.972916
0.8573524,76.91818
0.820794,70.36067
0.86512065,71.453064
0.83863753,69.0417
0.76975954,68.19993
0.8587014,65.89193
0.9196851,61.97863
0.78837323,61.435844
0.8426025,60.2247
0.8595704,54.6541
0.8959993,53.45723
0.89254874,51.745136
0.8235721,50.071526
0.8775327,48.508053
0.75060856,49.66092
0.8023333,47.42081
0.63797796,45.052036
0.7262107,47.137985
0.6642086,42.256744
0.65862316,47.692062
0.55940974,45.683308
0.6747173,44.70336
0.53646857,46.91119
0.60498387,48.489426
0.51062673,44.751263
0.47723344,49.167526
0.48675576,52.06698
0.45686993,52.37037
0.40793088,53.64389
0.5270638,56.130165
0.5403542,56.823307
0.57535654,59.771774
0.6080349,61.004955
0.69050735,68.950424
0.86367816,68.58966
0.8048083,72.73239
0.9113634,77.47371
1.0140188,79.19993
1.0638082,84.6187
1.0957097,88.09762
1.3138838,91.7655
1.3617939,97.61579
1.3433355,100.05811
1.5083255,104.60118
1.6938921,109.49522
1.6241462,113.350494
1.650415,116.04061
1.7814801,120.320816
1.7981522,125.33479
1.8851551,124.77389
1.8805685,128.69553
1.9916583,129.84589
1.8747287,132.60204
1.9396572,135.96143
1.9790423,140.43082
1.9706463,140.11298
1.8422657,143.48087
1.9216937,141.27985
1.9287825,145.93918
1.918182,141.44771
1.9919345,141.39008
2.0053353,144.28865
2.0062866,143.19548
1.9071064,141.7029
1.8141073,140.11653
1.8509729,143.83292
1.6886,139.33998
1.7954595,136.87872
1.7357434,137.77101
1.7328264,135.36209
1.7251269,133.7226
1.5462809,135.32513
1.6559412,129.34178
1.6119986,131.51544
1.5273935,127.06063
1.5450939,123.41837
1.5445828,127.91784
1.5541344,122.29855
1.6136652,120.10934
1.438192,120.910995
1.6069139,118.57223
1.5035251,112.338974
1.5001107,111.776985
1.4588447,107.60358
1.5386844,108.234314
1.5148596,102.89891
1.3982636,103.77928
1.4251091,97.988914
1.2509418,99.68377
1.4136059,99.79737
1.3166248,95.22716
1.3365703,94.1833
1.1559627,89.86089
1.2093197,88.95105
1.1809362,89.945694
1.1733532,83.35677
1.1374543,80.99395
1.0781384,77.79331
1.0031402,79.65527
0.88944155,73.46724
0.92678165,75.19334
0.94497997,70.3033
0.94438964,70.7437
1.0500885,65.85205
0.9752983,63.76062
0.9172924,61.563076
0.87239987,60.383537
0.91539407,57.07361
0.8654825,57.95968
0.8597178,55.013863
0.9830564,52.482162
0.85395825,51.674793
0.91001415,51.62249
0.88729846,49.774384
0.86576426,48.818813
0.7684592,46.59792
0.8622428,46.873947
0.7445501,45.5448
0.63104177,43.3773
0.545969,44.93812
0.69986105,43.38334
0.6054018,48.267643
0.544323,46.186054
0.5495575,49.74588
0.5087221,51.477695
0.38314694,50.980984
0.58377844,49.302525
0.46957132,53.812813
0.614345,58.64826
0.5600227,60.13382
0.5603644,61.337738
0.66472846,67.28434
0.72852975,70.19014
0.86836416,71.75508
0.8842057,74.68482
0.9272054,77.30045
1.1041814,81.55904
0.9937092,84.070496
1.1953795,90.7674
1.1975021,94.035164
1.3604182,99.09434
1.4721551,100.322716
1.4357375,106.12198
1.4806094,112.116356
1.649113,110.23972
1.5794581,117.19591
1.691,118.87625
1.7114809,124.402824
1.7157454,124.50214
1.839883,129.79733
1.7918806,130.86372
1.8853561,136.51402
1.7324649,136.13297
1.9312576,139.04253
1.8436115,139.29536
1.8385481,138.961
1.7999051,141.89616
1.8618269,143.20436
1.8153374,145.42963
1.7127255,142.92491
1.7357702,143.86722
1.840276,141.62862
1.7137328,144.3592
1.6706316,144.2887
1.8171154,145.01541
1.6008463,142.2886
1.6816854,138.17375
1.6652294,138.83253
1.4716665,137.3302
1.5124681,132.90013
1.5197881,132.16934
1.5684204,133.8299
1.387201,130.62448
1.4459579,124.231964
1.343244,125.955025
1.328815,125.198654
1.308644,122.00035
1.3924754,118.21273
1.3588696,118.86586
1.3333945,113.48285
1.1519343,110.18552
1.352984,110.98617
1.2722791,112.66111
1.2317328,106.242004
1.3201047,105.648964
1.1589215,100.3896
1.1662838,99.241425
1.1898301,99.55406
1.3376797,96.7063
1.0849236,95.09946
1.0524375,93.092674
1.1396542,89.172935
0.92056835,89.1034
0.9945401,85.106964
0.8934338,82.505394
0.8347172,81.83532
0.89676845,75.45689
0.7472689,76.0535
0.7909199,73.13761
0.68825734,71.13859
0.6769184,68.96419
0.76097864,67.81301
0.60120046,66.37617
0.6095798,63.2277
0.5940299,61.346394
0.61244667,61.570198
0.633972,55.642254
0.6261549,56.36408
0.6706125,52.5142
0.6064233,52.98794
0.60873204,51.104675
0.55842197,46.24481
0.6393389,48.391804
0.7095044,47.65281
0.46967334,46.952164
0.4455161,47.437298
0.42081934,44.381283
0.4337484,44.142357
0.35165408,44.002304
0.15067339,44.732025
0.26415262,48.444122
0.16718471,50.343204
0.14071168,44.627335
0.1298265,49.12951
0.09005936,53.016228
0.12175608,53.785797
0.06939835,57.17117
0.17781304,57.416954
0.24576263,59.839867
0.21686114,62.10219
0.46738866,65.12444
0.36526528,68.71984
0.45221677,71.6416
0.48991397,75.86665
0.69325465,79.78333
0.7407215,81.951385
0.78232175,87.02714
0.7929421,91.462006
0.963496,95.66804
1.0494679,99.66702
1.1358323,103.837555
1.1752696,107.714386
1.2131767,112.94142
1.2712955,115.835464
1.4252949,118.69329
1.3528686,120.9261
1.4457672,125.19353
1.3746312,127.15032
1.5126992,130.53423
1.4785582,131.77051
1.5670098,131.90984
1.4102137,139.72295
1.5234051,139.04681
1.4454573,140.46112
1.4309206,142.32146
1.4708108,142.01758
1.4160379,146.10214
1.486634,140.70589
1.483735,143.96274
1.5014387,143.92903
1.498045,143.31578
1.3591362,144.83308
1.3589307,146.16707
1.4394164,142.01965
1.3658146,141.6658
1.3144555,139.26282
1.2250329,138.49364
1.1533424,135.76773
1.1647595,132.83861
1.1459674,130.80086
1.2421911,129.84077
1.0708698,129.23572
1.0324378,126.558876
1.0564597,121.51378
1.028081,122.97568
1.054967,121.78827
0.99715877,120.315575
1.0060128,115.55862
0.9419498,113.37056
0.9917103,110.54498
0.92888504,108.96315
0.8415406,109.5211
0.85647035,104.59348
0.86053574,104.27785
0.8923814,103.3228
0.8760344,98.23279
0.86084867,95.71923
0.7537372,95.92278
0.8623102,91.463326
0.6828499,92.38173
0.6838873,86.94015
0.59140027,84.868546
0.7461303,81.7875
0.6083254,79.09648
0.46532804,81.46014
0.53693247,80.264404
0.45589697,78.13315
0.4197404,72.795525
0.428633,74.153015
0.41861504,67.664345
0.44998115,67.56023
0.44084105,63.81062
0.32119286,64.013725
0.3702655,61.17219
0.2845519,58.28348
0.34471318,57.451298
0.41238624,55.434868
0.40999332,50.782063
0.35567808,50.127247
0.23405723,50.433434
0.3210234,50.824005
0.17244484,46.580135
0.20600784,46.17591
0.21711718,45.457924
0.17657743,44.185375
0.13273723,46.751854
0.05846171,42.97117
0.117044866,49.41258
-0.08671982,46.467056
-0.05828692,44.820126
0.02558332,49.108284
-0.038745243,47.795208
0.02407433,49.92439
0.061994664,52.14317
-0.052157015,54.856712
-0.045856565,55.198296
-0.00891309,61.220993
0.11164551,63.160553
0.12368794,63.222565
0.12591793,67.99478
0.12057873,71.77431
0.3069997,73.72001
0.308085,79.17955
0.39919323,82.11465
0.5585822,87.30899
0.6347296,86.98196
0.7242812,91.44787
0.7089603,96.00849
0.9839068,101.88156
0.92447454,104.270615
0.9773503,111.29005
1.0991676,111.54674
1.0352122,114.07466
1.2221537,117.63744
1.1230016,120.413475
1.260892,124.02756
1.377076,128.6731
1.2829702,128.80849
1.3842112,134.48845
1.3381032,135.74571
1.3593792,135.75305
1.376864,139.12389
1.3383411,139.07582
1.4038316,139.95845
1.3809129,143.57988
1.415773,145.63333
1.4295217,142.35489
1.3272629,143.8843
1.4258677,140.54216
1.3552586,142.01822
1.2234895,142.73888
1.2663587,142.19026
1.2258983,140.93527
1.1680847,142.23807
1.2251508,138.45627
1.1356481,136.1701
1.1006178,134.33537
1.0856941,132.56622
1.0323145,131.58427
1.108501,132.39543
1.0386436,127.67601
1.0185549,122.677246
0.95018387,123.416824
0.9504994,119.48404
0.86424637,117.341415
1.0773923,117.325195
0.967571,119.98831
0.9563334,112.84085
0.9812386,111.6508
0.89746755,110.06668
1.0086709,108.57594
0.86950564,102.92837
0.8371525,105.99031
0.83936083,99.36652
0.920781,101.47179
0.7818558,97.90922
0.8543936,92.95137
0.8364779,91.75474
0.823112,90.7021
0.7223036,86.84545
0.7078487,89.3503
0.6198238,79.68657
0.5279615,79.796005
0.45143962,80.75419
0.5651058,78.12997
0.48400816,76.97599
0.4160726,74.432465
0.48084873,76.05433
0.4681093,69.72823
0.43206015,67.195114
0.37510133,67.27468
0.30204943,65.68068
0.4586971,59.53398
0.46598756,61.77739
0.37859738,58.66046
0.36625347,53.9708
0.51370823,56.61136
0.5175903,51.70361
0.46717077,49.698036
0.43564126,50.026226
0.45049527,52.435844
0.32984093,45.174015
0.32041863,47.097168
0.42501956,43.024258
0.31890297,44.961464
0.2200979,44.263477
0.23036988,42.116615
0.1916942,43.8231
0.12586726,45.56357
0.11071431,46.524647
0.12252498,48.42763
0.015865676,51.71867
0.08152975,51.723553
0.117329106,49.12993
0.16789685,57.287598
0.28556153,60.489117
0.21533667,62.098854
0.3578307,68.07185
0.24032614,67.982216
0.3984598,71.72976
0.57663745,73.26438
0.5944091,77.71606
0.7155298,82.07992
0.77645695,87.464386
0.776604,87.01322
0.9993556,90.0008
1.0173258,93.82692
1.0489569,101.98899
1.153504,105.105225
1.1361433,109.62007
1.2869155,110.85927
1.4044582,114.79293
1.4920068,118.938484
1.5306523,123.43344
1.5010781,125.68993
1.4515433,129.60931
1.6617833,132.16989
1.6151899,135.01926
1.6732439,135.91371
1.5340692,137.1104
1.6144571,140.28485
1.607324,139.48218
1.6809094,143.98483
1.688747,145.18866
1.6099695,140.43634
1.6866728,143.09615
1.6015323,144.97603
1.6167737,143.68915
1.6805651,143.44423
1.5217841,143.23936
1.5265936,142.14037
1.662254,138.76303
1.4939483,141.29964
1.4884475,139.34161
1.4107364,138.26666
1.3401324,135.20854
1.342488,134.84837
1.3817775,134.18109
1.4107668,125.862885
1.4217498,129.38866
1.2955371,124.55527
1.2397147,126.07203
1.3955584,120.83521
1.3075932,119.82369
1.2516495,113.68053
1.2590921,116.39992
1.293846,110.45661
1.26298,110.28529
1.3759807,105.46528
1.2204771,107.28863
1.2190758,103.48885
1.2136846,102.09989
1.2234874,100.39812
1.1565784,98.39178
1.2121089,96.8827
1.2341075,90.79179
1.1447021,90.21887
1.0796528,92.14421
1.1426462,90.51376
1.0357611,86.653366
0.9589713,84.04697
0.9331918,83.18733
0.8684112,81.60384
0.8488474,74.89789
0.75684816,78.085846
0.82390195,68.65971
0.89420074,67.805984
0.80877095,68.437256
0.7849786,67.82205
0.83233285,60.448456
0.8503699,61.821598
0.8933988,60.805973
0.73505676,55.934925
0.7886089,58.369583
0.8271039,53.772556
0.7879847,50.879257
0.77671134,48.959972
0.8266273,48.085552
0.74801135,45.518288
0.7729961,48.22413
0.62625444,45.251675
0.6862883,45.752766
0.69834626,45.718002
0.67506135,42.93285
0.6899816,45.508484
0.5502125,45.659233
0.6080774,44.03299
0.58803815,48.11949
0.461107,47.374516
0.40868837,50.51994
0.47679383,50.632664
0.52138317,52.403336
0.5288765,58.00662
0.5262713,59.3737
0.56574386,59.797657
0.5364655,64.63579
0.6411037,66.94569
0.84758306,69.14522
0.8656004,76.829185
0.88095075,75.97047
0.982577,82.01568
1.0414157,80.25254
1.1789229,88.52168
1.1348763,91.23267
1.1958401,94.17901
1.2938106,98.46144
1.4506253,103.88345
1.4918258,105.06833
1.6687,109.73798
1.7307998,114.43867
1.7579104,114.20049
1.8069774,121.956795
1.870834,123.40065
1.8909659,127.61015
1.865948,128.12895
1.9261793,129.41681
1.8541703,135.3965
1.983974,136.49944
1.9584213,137.95126
1.9065341,141.468
1.870788,141.31781
1.9285508,145.09207
1.9922854,141.01625
1.9426955,145.04562
1.8916765,145.27695
1.8401986,144.22852
1.9267683,144.03163
1.901574,143.33511
1.8694748,143.3691
1.8831136,141.04314
1.8530992,143.5098
1.7917827,141.0313
1.7487131,136.15053
1.6595532,136.84811
1.6631331,134.27097
1.5507092,128.42729
1.5718714,129.27379
1.603671,129.19647
1.5238748,129.44037
1.5955104,127.310844
1.4717493,123.994606
1.6048288,121.83928
1.5240517,121.55924
1.5727462,115.65009
1.657461,113.89466
1.5118903,114.905815
1.4702897,109.03799
1.5368048,109.13012
1.5154767,106.28898
1.385506,105.50333
1.3716931,99.01317
1.4872077,99.35996
1.4441512,95.37043
1.3836485,95.031136
1.4300424,90.82994
1.2891588,91.36827
1.3402343,88.48044
1.2644,85.05857
1.3009714,86.5075
1.1368604,81.74968
1.0970595,79.02089
1.1681707,80.31233
1.0662669,78.875595
0.8587539,71.28426
0.97559917,71.70432
0.9940825,69.88365
0.9883581,67.793365
1.0327793,64.025665
0.94169146,62.63312
0.90608966,62.081657
0.9746118,59.86358
1.009891,55.654285
0.88396156,52.68304
0.89175797,56.023613
0.94353324,50.687355
0.90618545,52.520115
0.8144385,48.74421
0.8761706,47.935463
0.82384425,48.027874
0.78009665,49.384106
0.7025659,49.621227
0.85506177,45.3727
0.62839895,43.37571
0.69247085,45.394573
0.5513683,45.060986
0.5947685,46.998253
0.5092264,48.59988
0.5939392,46.295277
0.47948274,48.48196
0.5650619,50.37649
0.42245567,52.283844
0.52744853,55.832664
0.5790888,60.421013
0.5990605,60.99152
0.64542216,62.918983
0.6391402,69.76212
0.64525837,69.068436
0.76911557,73.94948
0.8791785,76.19936
0.9789532,83.63433
1.1639366,86.46613
1.0717096,88.31768
1.2219945,95.5805
1.2082093,93.76646
1.3023312,96.660446
1.4771072,103.699234
1.4163309,108.90317
1.7772924,108.818855
1.7024295,114.62986
1.7327392,120.25394
1.8153373,121.14232
1.7535224,128.08821
1.7716286,129.13205
1.7908645,129.78555
1.9325773,134.03151
1.9710239,136.87791
1.9343724,138.71904
1.8577368,141.66026
1.9060321,144.20337
1.8812249,140.10696
1.7031429,140.84746
1.8162197,145.09816
1.8508036,142.65746
1.8046472,146.95337
1.8559889,143.26247
1.8266313,148.43524
1.7682388,142.27263
1.7020617,139.47098
1.682102,141.28609
1.6292766,140.99646
1.7365836,140.09995
1.6111014,136.10269
1.5283936,137.24628
1.5252649,134.23143
1.4990743,132.6705
1.4825515,128.67555
1.4776404,130.95645
1.3800426,123.603424
1.5054905,124.672356
1.4112369,123.87805
1.3716246,120.042244
1.3909575,119.31292
1.374009,115.91802
1.2645873,115.97306
1.3809315,112.794846
1.4265883,108.77786
1.2930473,106.32262
1.257442,106.46232
1.3035085,101.959496
1.2009599,101.4738
1.196702,98.56075
1.2794523,96.72781
1.2381601,93.65808
1.0413328,95.013275
1.0695581,93.43262
1.0477158,87.07729
0.96751034,84.999146
0.8902914,84.46622
0.93799084,80.146515
0.9233883,80.44738
0.7993481,80.51003
0.6621344,73.567024
0.70581865,74.79423
0.67803323,72.9359
0.6099687,69.06488
0.6510445,67.48378
0.62220037,64.63668
0.6353738,62.164513
0.6571528,63.980053
0.71523726,57.304935
0.62915593,53.789597
0.64177316,56.02329
0.5620912,53.277775
0.6252552,53.17025
0.50423753,48.040657
0.55066425,50.348263
0.5228313,49.570976
0.5723095,47.937645
0.4860043,47.318794
0.43774813,46.41895
0.41283214,45.65914
0.50611,45.510555
0.32248244,42.29485
0.3188268,46.991917
0.30010757,46.557346
0.20356372,47.760155
0.23431526,49.87494
0.23391026,51.967094
0.2698922,54.435135
0.15991732,54.058937
0.17600179,56.577614
0.2787395,60.42822
0.30154985,60.134808
0.39820534,63.483578
0.41392347,67.15128
0.48047194,68.78041
0.5346006,74.16698
0.5481567,78.73205
0.57058537,80.2473
0.6589709,85.97147
0.8288449,91.04306
0.8762432,94.79493
0.98453474,98.65077
1.0344751,102.54057
1.0032066,104.685715
1.2774438,111.701805
1.2937207,109.56417
1.3400446,116.60194
1.280635,120.05999
1.387379,121.009544
1.4823301,129.90463
1.5757804,129.12872
1.4898255,129.4668
1.4999727,134.89491
1.4395324,135.74588
1.5470871,139.28146
1.4122915,137.74348
1.5697192,142.13547
1.5618051,140.45699
1.4622864,141.76189
1.4116747,143.6656
1.544641,143.61838
1.4776094,141.99568
1.4576881,142.07912
1.4237325,142.10625
1.3813759,141.52762
1.4408661,144.40948
1.3329744,142.84355
1.3074242,140.14296
1.2648357,138.95566
1.2401061,136.42247
1.1711668,132.86472
1.2048745,133.5232
1.1044971,134.13031
1.1950668,129.72319
1.066399,127.36082
1.1703309,123.169754
1.0503198,123.25107
1.0196,122.13534
1.0892661,122.68148
0.98786217,117.31936
1.0721353,114.220665
0.9946487,112.46656
1.0131276,110.80378
1.022457,109.92784
0.92776555,105.64745
0.9128827,102.43005
0.84279674,103.766174
0.8572568,100.27049
0.9049317,94.11275
0.83136934,96.645226
0.7241143,91.90942
0.816191,91.76629
0.6697185,88.88186
0.6117377,88.801445
0.6150169,83.76778
0.6369565,84.91162
0.5688722,77.84103
0.5348326,79.954895
0.42246652,76.21228
0.50908405,74.874084
0.35855013,73.99289
0.36529812,71.89596
0.54648083,67.23767
0.41031384,68.55637
0.33889604,64.910355
0.37439838,62.219536
0.3836528,61.67877
0.3692351,56.0696
0.422399,55.225986
0.35983795,54.84502
0.22033158,50.67794
0.3129402,49.461143
0.31436583,49.741493
0.29214013,46.573578
0.29525292,47.549206
0.1787255,45.560005
0.28250697,47.928467
0.14058056,45.54149
0.1851694,42.852146
0.06292747,45.70279
0.020599073,46.684338
0.048119634,46.87498
-0.036828846,48.993412
0.040947124,51.378204
-0.17242019,47.478855
-0.013210932,53.549862
-0.14934695,51.225124
-0.092432976,59.447636
-0.08252201,57.729156
0.030164113,60.093273
-0.05906465,61.649086
0.06871932,65.460266
0.24606934,67.234375
0.21330063,70.48895
0.3284681,76.425606
0.43993208,79.801025
0.55997896,87.851326
0.64156246,88.57349
0.7065357,89.00906
0.8215522,91.24271
0.81373096,100.87336
0.87014025,103.738144
0.9137431,104.78982
1.1102905,110.462265
1.0656439,116.18891
1.1011231,118.51727
1.2448941,121.88303
1.323366,124.42127
1.2294669,126.557785
1.2852956,129.08788
1.3458347,129.7689
1.3788234,134.02095
1.3069794,137.06349
1.416861,142.59474
1.3633428,142.33305
1.4651734,142.75351
1.4360788,144.04807
1.349928,143.7621
1.3205994,139.26027
1.4010364,143.061
1.3471458,143.4265
1.2054999,145.64462
1.3394873,140.77846
1.3486462,145.5337
1.2636089,139.86734
1.2530936,138.79941
1.2559537,138.14783
1.2197063,138.3602
1.2004217,137.198
1.1884586,132.706
1.1258426,133.4644
1.0189265,132.3947
1.0340749,130.9931
0.9088635,126.65059
1.0624411,126.88139
0.860841,121.99672
0.98058975,121.66207
0.99511755,116.23671
0.8209445,120.871216
0.97493666,116.258224
0.9455437,115.56231
0.9118797,111.68142
0.8824419,110.574646
0.92021936,106.83912
0.89440995,103.02537
0.92647976,105.66502
0.8403339,98.07162
0.8932622,95.24537
0.8450032,96.40262
0.7395338,91.89497
0.8343105,91.36096
0.7508671,91.3974
0.6804791,85.70335
0.6686407,82.20732
0.61703604,81.36006
0.64326817,83.97305
0.49277323,77.92729
0.47138518,73.966
0.4851253,72.87024
0.50624704,73.87939
0.51545304,70.628044
0.43242112,69.03267
0.47382,66.58437
0.44879368,63.385826
0.6096325,61.510674
0.48166874,59.22102
0.4329609,57.879536
0.4970697,57.711956
0.41368872,52.105328
0.3798719,52.40244
0.4406004,51.42288
0.4660413,49.456814
0.4350251,49.8377
0.40408245,47.11453
0.27989012,47.0809
0.3038502,49.28178
0.34192768,44.17007
0.2750662,42.934555
0.18912326,42.83367
0.17504273,45.506317
0.15189272,43.768143
0.1362237,46.478317
0.19415204,47.03968
0.095289096,49.49046
0.07281216,51.896465
0.10188125,53.33719
0.12785403,54.11184
0.1327383,57.318947
0.2920428,61.7287
0.22874065,62.835983
0.33206066,66.443474
0.38667753,69.82823
0.57731444,71.04943
0.5123877,76.24835
0.7055386,80.42922
0.7228253,84.63512
0.7965341,87.719894
0.9116145,91.40282
1.0452639,99.37308
1.0824195,100.28876
1.1173978,102.249435
1.2272142,108.04736
1.3061278,109.902596
1.3768933,114.93307
1.370764,116.80869
1.4144937,122.09381
1.5041777,122.38908
1.5729488,131.43048
1.4654202,129.25336
1.5059279,131.87755
1.56947,136.71927
1.5688689,136.86153
1.5852497,139.66663
1.6959956,138.48257
1.6939032,141.43114
1.5766429,147.86714
1.5589898,143.78127
1.6849761,143.93195
1.6344602,143.46596
1.7444879,144.6352
1.570867,146.76344
1.5433327,143.55623
1.463083,143.09811
1.547551,141.22838
1.460376,142.2729
1.4919965,140.52505
1.5205611,136.84721
1.4532431,136.25331
1.3887187,134.5267
1.4058099,134.51979
1.3121713,131.53835
1.419496,132.27266
1.3054475,125.82198
1.3265144,125.9458
1.2825536,125.27173
1.2735163,116.794846
1.2750134,120.96681
1.1827643,115.588455
1.2746648,114.92676
1.241719,112.18046
1.214073,108.35975
1.3023224,106.354225
1.2153697,105.50806
1.322541,102.901924
1.1189328,102.11291
1.0801017,99.086555
1.2081579,95.643036
1.232263,94.157394
1.1551605,92.132164
1.035149,92.11332
0.9944736,89.30098
0.9653909,84.12746
0.9831125,86.11605
0.98964703,81.89585
0.87372243,76.0057
0.8778702,77.92261
0.7678544,75.23405
0.8086177,72.05626
0.8463563,73.66222
0.7504119,69.008385
0.80901253,66.42562
0.7635043,66.26915
0.7065734,60.907955
0.7751267,59.512936
0.7749138,58.27155
0.71174777,57.222267
0.7472776,53.50172
0.8617858,53.476006
0.9206001,51.955
0.75989634,51.081528
0.8544754,48.048805
0.6826032,47.67241
0.7994062,51.38019
0.6518332,44.747257
0.62797177,46.690186
0.66038495,43.03182
0.59716153,45.342525
0.519425,47.02663
0.55302685,44.28628
0.5022334,46.58009
0.47604567,47.59957
0.45358774,48.940186
0.50245947,48.82324
0.4638514,53.14939
0.46216336,53.33774
0.5882243,57.75887
0.49894282,59.885227
0.5748095,60.007545
0.67706823,65.70652
0.6828176,68.7206
0.6880187,68.027756
0.8646354,72.76763
0.9629598,78.59782
0.9450095,83.01446
1.001485,82.48162
1.1519623,87.50339
1.254336,92.83372
1.3099884,93.88027
1.4641106,103.91708
1.4774173,104.61691
1.6334121,108.92004
1.6867613,112.20542
1.7654792,113.28936
1.7034415,121.337776
1.7963363,123.390076
1.8092115,125.173294
1.7922081,126.57542
1.7513907,130.62648
1.9510171,130.95969
1.82568,134.89316
1.9027017,139.02975
1.8107816,136.5876
1.8677741,139.49458
1.9911547,145.76277
1.8124126,142.01051
1.9545323,144.65309
1.8760802,144.73853
1.943873,146.63316
1.904949,141.8595
1.9722966,144.10081
1.7798686,142.8636
1.8312128,143.8878
1.7484044,141.15688
1.7269735,137.80173
1.7092043,138.48607
1.7389939,140.0759
1.8286523,135.28947
1.7744015,135.09505
1.6768875,133.40826
1.7933803,131.22183
1.5879354,129.38394
1.6180103,125.01766
1.4946514,124.52638
1.5764124,120.13344
1.5979037,120.94664
1.4063662,115.22395
1.4494631,113.230484
1.4230763,113.70713
1.3985274,110.13376
1.479593,106.80737
1.5083055,106.75594
1.4154485,104.817535
1.3983015,102.70284
1.5468721,100.47622
1.4340017,96.80635
1.3649952,97.20284
1.33718,95.23869
1.2937138,92.98684
1.2652612,92.0519
1.1727425,86.59857
1.20032,85.03566
1.1415131,86.35427
1.0104705,78.17342
1.037095,78.95471
1.1519283,74.506195
0.9835153,74.11498
0.926077,71.22179
1.0072948,71.60866
0.8594027,69.817055
0.937043,67.26831
0.85591906,64.999565
0.9448241,61.288406
0.92754143,59.790916
0.9287901,59.886276
1.093193,55.87753
0.99099284,55.439297
0.9767878,51.922756
0.9312594,50.49192
0.95964676,49.87663
0.89931375,49.74497
0.85898215,50.05413
0.9300408,46.21969
0.7339719,45.605576
0.7624154,44.29362
0.67670447,45.85414
0.6188195,41.749397
0.5880679,45.599285
0.7547064,48.026134
0.6497652,49.685566
0.5811036,48.657974
0.418789,49.948612
0.5335441,51.771786
0.6231801,53.926537
0.605694,55.551834
0.550746,54.43006
0.6579872,60.30175
0.6400738,61.79202
0.65718937,63.65532
0.7697185,71.1544
0.761388,71.00988
0.90260106,74.38616
0.9296725,79.236984
1.0969349,82.0462
1.1122003,87.8802
1.2509608,90.917175
1.2824259,91.5753
1.3424976,98.39287
1.3952242,103.81103
1.4179822,109.814285
1.63154,109.417
1.6474828,115.255066
1.6539752,119.00922
1.7393727,118.43121
1.7256795,124.261795
1.9385835,125.7329
1.7429386,128.89584
1.9044731,134.6585
1.9210514,134.68422
1.8245988,136.17107
1.8006533,138.2477
1.9094762,141.28279
1.8709414,142.71402
1.8065288,144.32692
1.8497218,141.42226
1.8657267,144.88634
1.885932,144.1822
1.8594943,142.42255
1.781808,143.77892
1.7575233,145.26404
1.7477158,141.6257
1.793369,143.27512
1.6390227,141.3611
1.6742432,141.0513
1.5672625,137.71432
1.5740931,137.6033
1.553643,133.98512
1.6051588,134.66508
1.6536779,130.78273
1.4325299,132.30525
1.4112753,129.03401
1.4578693,126.12151
1.4903469,123.244835
1.4368404,122.47245
1.3434169,121.16484
1.4052707,113.41619
1.3695657,115.6154
1.3502283,113.566284
1.2967712,112.541016
1.2307914,110.82763
1.4228507,109.87666
1.2611328,107.1021
1.2905124,102.96173
1.1607411,100.75452
1.1067219,95.61889
1.1491503,94.44619
1.1151221,94.6941
0.990082,92.7897
1.0165265,87.465
1.1131893,90.95064
0.9926829,86.90723
0.97138953,83.20674
0.84150034,79.54778
0.8005177,79.73327
0.8516549,74.92123
0.66597897,74.91903
0.8547803,73.77628
0.74491405,69.830925
0.74331355,69.29796
0.67301327,64.71388
0.6794885,62.933983
0.8080453,65.65486
0.7077985,58.09904
0.596643,59.61623
0.719799,53.87545
0.6785703,57.009586
0.74672616,50.259293
0.73646444,48.61741
0.70682067,48.839912
0.5832866,49.447113
0.55853206,47.501522
0.5911552,48.61966
0.47709012,44.009823
0.4401553,45.839863
0.48235926,46.021637
0.39468247,43.2508
0.4093367,45.55888
0.3427432,44.342278
0.29613653,45.033287
0.27215233,49.529613
0.19298957,51.66027
0.19926934,52.41703
0.16551593,54.36455
0.23008709,52.464592
0.24532779,56.063076
0.33270422,62.759037
0.38448244,62.551304
0.2614846,64.28197
0.37631547,67.99285
0.47509432,76.0118
0.5396669,75.904655
0.7541529,84.02091
0.77769655,84.77882
0.79091036,90.270676
0.90213066,95.60745
1.083714,96.68025
1.0066142,98.299484
1.097968,101.50897
1.2910999,108.202
1.145476,110.223
1.3894933,112.97463
1.4287558,119.97014
1.3172933,120.718765
1.3667983,125.337204
1.4975957,126.33569
1.6037439,125.4807
1.6173869,133.40529
1.4661435,136.20764
1.4713391,134.72914
1.6121808,135.9212
1.5009451,139.13774
1.5787668,142.85486
1.4763788,143.80606
1.5014926,141.31839
1.596353,143.41638
1.4135935,141.64862
1.564635,142.54909
1.4192637,143.60287
1.417034,141.72905
1.4247693,142.54152
1.4538063,143.12952
1.3598883,141.28722
1.3631376,141.16586
1.3063221,136.2902
1.2479867,135.38342
1.132707,137.26912
1.2445507,131.21826
1.1322781,131.4002
1.1233097,125.91269
1.1580162,125.078545
1.0402217,128.18814
1.0757288,123.44254
1.1216289,119.75436
1.1309943,119.901436
0.96199715,117.006645
1.0572752,112.02734
0.9695559,111.07359
0.9966875,110.00131
0.9805482,106.206856
0.9152524,108.65062
0.89897645,102.90033
0.97678787,98.81474
0.874495,97.683235
0.91711885,96.11804
0.82526475,94.13126
0.7550534,92.69249
0.7344459,89.98396
0.738354,89.266754
0.5887373,83.08081
0.6473726,87.14529
0.66210794,83.97443
0.51154244,78.546326
0.5815017,75.24043
0.6381002,74.019356
0.48566538,73.93842
0.44715536,69.84414
0.47396874,67.7719
0.35759157,66.339195
0.41259593,64.634514
0.269344,65.12114
0.29656827,60.42997
0.33782136,58.95985
0.42529407,53.55329
0.3507578,54.147423
0.26451775,56.082222
0.32210377,48.413277
0.30082884,49.461857
0.3499326,48.591583
0.28663763,49.749218
0.14049955,47.580994
0.26403204,48.562412
0.13620178,47.329983
0.09231014,43.628807
0.14011534,44.049152
0.13984673,44.052696
0.060917094,45.55918
0.006612338,44.128784
0.053278007,45.42011
0.079680346,48.702312
-0.114860944,52.231983
-0.056194827,52.906452
-0.09854396,57.824043
0.014866699,58.366264
0.009025647,55.91739
0.14632304,60.12001
0.044660125,65.81208
0.09500562,68.68679
0.21666294,69.36682
0.21773846,73.50531
0.35816643,77.93784
0.5588554,81.20753
0.6140177,83.97244
0.7439724,88.173
0.7467545,90.59603
0.7755618,95.85156
0.8687893,98.83264
0.96222156,105.894615
1.031521,105.74103
0.99676424,115.80271
1.0785339,116.42378
1.1864613,119.072845
1.2579075,122.76575
1.2365811,127.76125
1.3072995,130.51613
1.3329029,130.17508
1.346138,135.63896
1.415059,138.79283
1.3325216,137.87157
1.3454638,141.56989
1.3892599,143.91469
1.3474791,140.6115
1.388573,142.93488
1.4004667,143.09886
1.4496822,144.29286
1.3749682,144.29187
1.2799324,143.51207
1.2410973,143.99512
1.3582169,141.18605
1.2504742,141.53133
1.2745445,142.21732
1.2950792,137.99452
1.3375224,141.2273
1.0690732,140.73093
1.1127188,141.96826
1.089355,135.97517
1.0097772,127.04681
0.94177955,127.45623
0.9886896,125.9864
1.0185696,126.94913
0.99268275,125.62592
1.0123138,120.53865
0.9543367,122.50025
0.8720446,117.59514
0.9268835,112.92289
0.93718153,114.1408
0.88699436,110.10179
0.92230254,107.78696
0.8256039,107.787254
0.87729806,108.66818
0.85740054,103.11892
0.8667101,102.52329
0.7969719,100.67752
0.8465801,97.56011
0.66746706,93.088524
0.76525164,90.650635
0.70577943,88.24279
0.7201116,84.87658
0.65151095,82.408806
0.5903472,80.568184
0.5953309,81.38332
0.3870062,79.930565
0.5104067,79.497314
0.44649372,75.46181
0.47261482,73.535416
0.43949786,71.706985
0.48968154,68.40523
0.406163,66.889626
0.44490612,63.88964
0.30528373,60.375607
0.4607383,58.260296
0.4523029,59.936935
0.47551665,54.959858
0.33957234,53.70597
0.534452,53.475616
0.35945934,51.811825
0.40196595,49.9655
0.32175362,45.90987
0.35271373,50.264217
0.38709477,45.63137
0.22427218,45.363194
0.3018855,47.931316
0.23162848,45.69583
0.24969943,42.562366
0.082347386,46.78231
0.20981699,44.14983
0.13810787,49.773483
0.07376921,48.934605
0.12113439,47.575653
0.15425208,51.43897
0.115262195,50.685722
0.07206045,54.925663
0.08657949,57.546406
0.19347374,56.176582
0.15865517,62.113964
0.2947121,64.88454
0.28135252,70.95663
0.43724352,77.14612
0.49195522,75.41792
0.61909825,76.67113
0.5522639,78.97592
0.70162195,86.84058
0.9446709,90.70215
0.8392407,94.6856
0.94163626,98.84545
1.1109324,106.05652
1.1186956,106.53687
1.2515707,110.171
1.2500571,115.98308
1.3357062,119.95665
1.4294025,119.92441
1.5070273,125.74756
1.5248312,126.194725
1.4907248,127.76281
1.5127952,133.11569
1.5556159,136.5432
1.5914521,140.13722
1.6633538,138.18143
1.6132964,140.6184
1.5972637,140.31026
1.6046958,144.09158
1.5863316,145.69084
1.5329891,146.40825
1.5373883,141.88538
1.5819699,144.99573
1.5818411,147.10303
1.5184958,142.85007
1.5317055,145.63278
1.5289972,142.74463
1.4885359,142.482
1.5335346,139.68237
1.5198045,138.12268
1.459615,135.79861
1.2599113,134.07213
1.2792612,135.17154
1.4201939,131.02159
1.3931041,128.01163
1.2905738,128.63206
1.3417574,125.94009
1.2436255,122.63427
1.2877245,122.32327
1.2179298,120.68082
1.3335575,117.13308
1.3730791,116.90848
1.2012862,112.05259
1.2632238,110.636566
1.2201815,110.48584
1.2886717,106.18923
1.1091287,102.62908
1.3175931,104.06245
1.1414678,100.06837
1.1827412,98.315216
1.1421894,95.20004
1.0490644,96.94812
1.1207134,92.209724
1.0367876,88.38046
0.956935,86.65357
0.954723,88.50357
0.9605896,83.48128
0.8773747,79.50555
0.75549936,79.05208
0.74866426,76.22031
0.8707278,73.178925
0.83848596,72.95966
0.84653497,67.32042
0.7869995,67.619484
0.73948634,68.255486
0.67314047,63.572426
0.8183283,62.712112
0.6948721,59.488453
0.71451336,58.31812
0.82040566,56.8006
0.72909474,51.811127
0.73373914,52.566006
0.7024452,51.669197
0.72700477,47.38805
0.6909667,48.445343
0.7669703,46.13202
0.6955881,47.84887
0.5629199,44.37169
0.5283163,46.565613
0.6630693,42.878452
0.62525666,45.410748
0.5191961,46.93458
0.49536806,45.243046
0.42116427,48.235023
0.4166779,48.802483
0.3733477,51.107414
0.40609977,52.990307
0.41399944,52.399944
0.4694468,52.705795
0.4564624,57.081474
0.5795756,62.024292
0.6421997,63.71634
0.79554445,65.908455
0.66068953,69.505936
0.71404314,75.84021
0.8634257,73.582504
1.018982,85.19752
1.0069152,88.62178
1.0350996,91.49193
1.2226732,88.50583
1.3828936,93.87773
1.3286777,98.30798
1.500186,103.113304
1.4909577,110.153305
1.6362606,113.49999
1.6075106,113.6063
1.7251736,119.651474
1.6376022,121.07309
1.6527704,123.73598
1.7525933,128.55067
1.8455684,128.20384
1.7937734,130.46768
1.9091849,134.45361
1.911313,136.69173
1.9636617,141.7144
1.9642363,140.17604
1.9149553,142.23503
1.8893126,143.61398
1.8742429,142.69241
1.9450904,142.0871
1.8936299,146.69023
1.7884027,144.58147
1.9664078,143.36111
1.7833481,141.77013
1.9117006,140.66072
1.802022,141.77791
1.7076795,138.09642
1.8047098,140.21588
1.7382442,141.01244
1.6109715,133.75331
1.6842866,134.76117
1.6911385,137.48291
1.6193501,127.66608
1.6211807,129.76161
1.4955192,126.26685
1.5232943,122.05491
1.5373849,123.9553
1.4551722,120.63997
1.564632,116.39759
1.5082309,115.475235
1.5358325,115.2502
1.4581479,113.667885
1.379886,113.69907
1.5016454,109.5326
1.4606591,107.9631
1.4580783,100.54605
1.3664268,102.56212
1.4585869,95.91271
1.2809128,95.799484
1.3336341,98.48447
1.3082047,90.58331
1.2850837,90.70611
1.1865107,88.565186
1.256771,85.446785
1.1479816,82.02165
1.2004681,84.84158
1.1980771,81.92251
1.0068028,79.37688
1.270448,77.11317
1.0632043,74.85718
0.87336975,70.93364
0.9883515,67.60001
0.9270559,67.66581
0.9261112,63.263653
0.96874446,63.79508
0.9471679,61.555798
0.8869666,57.723183
0.866044,58.78234
0.9358144,55.67598
0.8186848,51.263355
0.99497885,51.729115
0.82638884,50.029053
0.8886333,50.628235
0.84254986,50.846157
0.70390815,45.910034
0.8166033,44.60871
0.77230895,47.115303
0.8364081,48.48396
0.64375985,45.732594
0.66126823,44.04198
0.52555794,47.59224
0.6167853,46.314182
0.5175909,47.804745
0.65621114,47.775085
0.5410113,49.88599
0.44826704,53.609676
0.61582667,53.521027
0.5228958,54.276237
0.5310776,59.4674
0.603041,62.81725
0.71958756,63.884655
0.6918342,67.29422
0.8227702,73.61308
0.83918947,73.09729
0.9895623,79.48305
0.99889857,85.10018
1.0614493,83.28956
1.1843154,86.991516
1.228447,90.69236
1.3638539,95.61401
1.3881652,98.70306
1.4966209,103.02092
1.5838145,109.25533
1.6294335,111.45205
1.676185,114.668594
1.6568936,117.77083
1.7485083,123.10443
1.8239315,124.56047
1.8803326,125.30462
1.7330822,131.82861
1.8360195,133.40863
1.8098252,137.74344
1.8455261,135.08084
1.9132978,138.63086
1.8149619,139.96587
1.9356906,141.80774
1.8595103,140.65259
1.9763366,142.03369
1.8128905,144.62015
1.8709661,143.45937
1.7646196,142.5187
1.7634524,143.68579
1.8610582,143.10153
1.7172557,139.74323
1.6194648,140.12819
1.7489653,141.47675
1.7123815,137.84247
1.6374621,135.52098
1.5961156,133.96582
1.5137869,135.38618
1.5015172,131.74835
1.3908038,128.3945
1.4534369,128.81316
1.3777438,126.53488
1.3516554,121.0238
1.5172176,122.82376
1.3400644,121.759605
1.2839599,119.16945
1.2694026,116.3193
1.3736095,115.837975
1.4930562,109.53249
1.3791685,109.94239
1.4110501,108.42334
1.3109701,101.891136
1.3751286,102.923035
1.2473657,98.60032
1.1644561,96.57738
1.1943763,97.45807
1.1788099,94.64435
1.2160125,93.34518
1.1649499,92.55763
1.0918409,88.594925
1.1429412,88.792534
0.958009,81.57794
0.9210846,81.8365
0.86456597,79.61908
0.8748046,74.17981
0.76645255,74.301414
0.73629487,73.07812
0.67446965,73.9312
0.7560602,67.70595
0.73019683,67.14506
0.7339024,63.921024
0.6580118,63.601124
0.60691845,57.637985
0.81808704,59.78738
0.60979354,58.730247
0.7611218,51.50414
0.63373315,51.925327
0.6393691,50.728165
0.6118415,52.65198
0.6067496,47.73659
0.54560745,45.556442
0.649268,47.718685
0.51019055,50.630306
0.46226218,43.08088
0.44101042,45.948776
0.38939276,44.66278
0.38150936,45.591095
0.3052387,44.790745
0.25464693,46.14634
0.28358588,47.073982
0.26094022,50.258217
0.24876639,50.850086
0.34544006,50.957973
0.23493464,52.790604
0.27118164,53.821037
0.30333838,60.755096
0.40444422,60.094604
0.39741677,64.16315
0.45091152,68.3358
0.5022334,71.53641
0.6512131,73.62887
0.7014058,76.21432
0.8176663,86.482506
0.838941,83.585175
0.8855096,93.00075
1.0406766,92.43808
1.0530632,98.844894
1.1544309,101.956665
1.1862297,107.5402
1.2793808,111.696045
1.3652477,116.02093
1.4062238,115.29306
1.4417018,122.9501
1.426504,123.233665
1.5098135,128.1755
1.4792899,129.86609
1.5085818,132.2943
1.4281714,134.30235
1.5422937,134.78194
1.5548381,134.52733
1.6525311,140.02689
1.5446423,142.80916
1.5296496,141.05493
1.4612521,140.72337
1.5622119,144.00421
1.5854113,143.19186
1.5754813,144.93472
1.4224566,137.7649
1.4745957,144.70934
1.4396344,144.53299
1.4660193,138.87282
1.2714503,143.45892
1.4008204,138.09125
1.242945,139.64107
1.3039312,137.09966
1.3676851,134.49844
1.236834,130.25082
1.1112853,130.70798
1.0931506,130.17165
1.1586299,125.49766
1.1792347,124.55921
1.0441221,121.665306
1.0735717,125.413574
1.1164947,120.6478
1.056866,117.78979
1.1461438,116.26699
1.1166995,111.98191
0.9584257,114.31065
0.9737545,107.41933
0.96227837,105.76229
0.8515696,103.53421
0.96259004,98.20003
0.89564925,99.67841
0.9115064,98.62626
0.8427991,94.555855
0.8108484,92.29887
0.87186575,93.41225
0.7449493,92.83086
0.69899267,90.873604
0.54704094,86.288345
0.6286396,83.25355
0.6409723,81.38278
0.43522656,78.46001
0.5049328,75.21032
0.47779065,74.4061
0.5186344,73.04055
0.4597446,69.82702
0.4749167,68.64525
0.37491965,66.45144
0.5628875,64.90111
0.30732277,61.16083
0.38015786,60.6703
0.39880806,58.161816
0.29662976,59.351
0.4398346,54.2337
0.36430857,53.777885
0.28990182,50.487946
0.35309458,50.55296
0.302814,43.06847
0.2636664,45.606388
0.29581138,43.527855
0.1851825,44.693264
0.14189155,47.35785
0.16148892,45.243656
0.16877778,45.969723
0.074625924,47.806156
0.014628538,48.852303
0.052474324,48.341805
-0.058582705,45.649845
-0.11470235,50.070747
-0.022049274,53.04089
-0.09176264,52.37413
-0.0047012125,54.395546
-0.005428195,60.575733
0.06633964,58.014988
0.09927851,61.279064
0.054705847,64.06113
0.108142845,71.17349
0.29754382,72.43955
0.32938185,75.63325
0.50640047,78.4873
0.4736349,81.33066
0.58917445,84.87468
0.6322451,90.524826
0.7659494,95.349556
0.88091844,98.22541
0.8829126,102.456856
1.0081279,107.99957
1.018467,108.420555
1.062115,115.576675
1.277169,119.15256
1.1929566,119.719185
1.3135355,126.65728
1.3351421,124.95976
1.3116446,127.40511
1.338288,134.65685
1.3428344,133.47214
1.28155,135.69382
1.3074389,141.82082
1.4871372,138.80812
1.3228211,140.97298
1.3771064,140.75328
1.3271222,142.78929
1.4734076,144.29999
1.4623842,144.94337
1.3767703,147.31668
1.2599831,144.55542
1.3329943,143.35677
1.2475194,141.59427
1.1761129,142.1556
1.1370757,141.16338
1.096217,139.13351
1.2944237,136.89005
1.0790908,133.27298
1.0520064,134.66267
1.0412716,131.38287
0.9584644,132.6823
0.9882295,129.48413
0.90210533,126.433655
1.0116782,126.135025
1.067026,123.08809
0.86448365,122.26499
0.9565376,120.62341
0.9945282,118.92459
0.84134984,111.51586
0.980762,112.34101
0.9209633,111.34746
0.9238643,109.16206
0.9302034,104.2382
0.90210545,102.3926
0.99961984,104.77831
0.77082163,96.97688
0.8720484,96.34418
0.7685381,92.630424
0.73036945,91.63688
0.7990267,91.029915
0.62542444,91.87227
0.60276514,87.87893
0.7376535,83.33051
0.60813415,83.334076
0.58757967,77.74419
0.50880474,77.605576
0.4435967,76.18302
0.5329637,72.540886
0.45102188,73.93396
0.42255804,68.177124
0.45439392,67.07201
0.31810638,63.636913
0.36573946,63.748035
0.36415705,59.921505
0.41774186,58.334927
0.47262573,53.91592
0.45274284,53.591797
0.31920022,54.24121
0.46742502,52.22512
0.26892856,47.476734
0.37082565,50.574825
0.26944447,50.602844
0.30197108,46.32231
0.37271735,47.877113
0.3246072,44.040077
0.1854261,43.052654
0.22851512,47.023335
0.17086408,45.570873
0.12362232,42.37724
0.07756054,48.791912
0.17408463,44.617226
0.10949831,49.5628
0.08134926,47.919014
0.05970044,54.73011
0.1671833,54.46285
0.10515733,53.813084
0.026439806,59.584244
0.16961376,60.66728
0.2719349,66.749245
0.32726476,67.22096
0.35085067,72.06491
0.4402944,76.11038
0.5301468,73.41454
0.6279176,80.482086
0.59789884,83.00995
0.8117334,85.36787
0.87637717,91.41399
0.9530432,96.06125
1.118219,96.91036
1.1923289,102.866005
1.0460376,106.07011
1.2789472,109.9944
1.397733,113.509575
1.3670301,119.117676
1.4985178,121.49512
1.4404242,126.518234
1.35019,126.234146
1.4933453,130.2563
1.5839462,132.5277
1.6372669,136.75195
1.4960583,139.0982
1.4959798,138.12767
1.6436802,141.80113
1.5900308,142.67487
1.6652294,143.09372
1.6142925,140.90894
1.5796643,145.97273
1.506737,145.06332
1.5213599,143.49358
1.4855168,144.55429
1.6195116,146.23094
1.5353267,143.00827
1.4182659,141.78548
1.4649011,141.33101
1.4526763,140.28418
1.3551031,141.70451
1.304554,135.53494
1.3215286,136.22609
1.2668067,132.44308
1.3566269,130.57217
1.2561752,129.51485
1.1303697,128.37724
1.2460063,123.48111
1.171963,124.63187
1.3554764,120.72281
1.1441286,119.12026
1.2101113,114.84858
1.2093484,111.95073
1.1593894,111.351456
1.281654,110.59561
1.2785989,106.99644
1.1462125,102.692444
1.23846,101.64933
1.2396606,101.10051
1.0566388,97.41672
1.1806229,98.39054
1.158104,92.19751
1.0619669,92.76252
1.0157046,92.48763
0.99992996,88.86916
1.0156932,86.752785
0.93034613,84.39502
0.9076525,80.56004
0.80012095,80.26289
0.7800027,76.87854
0.6745667,78.19426
0.78686994,72.93202
0.7734744,69.76806
0.70216304,65.55784
0.6774816,63.144344
0.75119543,65.637215
0.67090267,62.04336
0.8855217,62.79942
0.6098797,57.03837
0.7535458,57.735966
0.8216001,54.08932
0.7959478,53.160347
0.73358667,50.71555
0.72739536,49.512432
0.7019278,51.555347
0.6933906,48.416237
0.5901148,45.90866
0.54426205,44.79199
0.6753616,45.59971
0.46851194,44.349487
0.5593906,45.159676
0.4998313,46.040432
0.51632464,47.05992
0.28811318,45.527145
0.41857702,47.45481
0.36421272,50.935074
0.501663,50.62874
0.43564874,52.790573
0.40762708,53.648933
0.47598845,53.65231
0.549346,58.587433
0.4616734,57.41478
0.46908185,64.71621
0.65390337,65.140205
0.79795796,71.925354
0.7694074,73.30451
0.8656134,76.89486
1.0219928,82.834915
1.0130692,84.639595
1.1882724,88.991585
1.278286,92.3267
1.3342375,97.1474
1.3216748,103.4411
1.4979789,107.34361
1.5318449,109.82979
1.6078038,111.03179
1.6905782,117.55745
1.8119895,121.58978
1.7641407,121.84491
1.7762878,124.218254
1.797746,129.60454
1.831138,132.38666
1.8142481,135.71379
1.888514,136.96693
1.9666466,140.27339
1.902487,140.33722
1.9252185,143.39616
1.9402796,141.2132
1.8623693,143.83244
1.8779241,142.14703
1.8387941,145.1859
1.8488111,139.98714
1.8658023,139.71774
1.9126589,142.21118
1.8262383,143.7802
1.8573589,139.71503
1.7725431,141.33313
1.8221982,138.98299
1.6700381,140.10779
1.7105948,137.11276
1.6165838,135.7539
1.6413739,134.51334
1.6477518,131.32047
1.6584016,129.63394
1.4343836,127.975235
1.6314485,125.948204
1.4709467,123.310974
1.5512241,122.9346
1.4680032,118.6585
1.5021337,117.16437
1.486696,115.26724
1.4874375,112.372055
1.5342332,110.84998
1.5302119,108.15087
1.3461598,107.252335
1.3731252,105.190605
1.4481778,104.93553
1.4199193,99.24631
1.3155648,98.429344
1.3346419,94.90231
1.2251614,92.67007
1.203847,92.608665
1.2322024,87.688286
1.1871197,86.576065
1.1233752,85.398445
1.115234,84.01062
1.0761836,81.253525
1.0920165,78.116066
0.9531692,77.59701
1.0518702,73.54595
0.9120554,70.59949
1.0289282,71.78072
0.9010119,69.57593
0.8377967,65.68219
0.9167825,67.360695
0.97037303,60.36566
0.95400363,60.257748
0.9620698,62.043743
0.8192129,57.284546
0.88970345,51.018433
0.93218434,49.86785
0.9686859,51.181046
0.83570874,50.143536
0.9086845,46.974934
0.86364657,48.26058
0.8754671,45.710354
0.8482232,46.655106
0.7811893,46.574
0.6249251,48.857708
0.6390251,45.30828
0.6956907,41.308937
0.5489511,44.51926
0.6303518,45.40023
0.5052609,46.377686
0.53870875,49.33308
0.5214063,48.965206
0.48458153,51.63507
0.5384449,52.973976
0.5265114,60.118046
0.5570259,59.75652
0.66351134,63.00211
0.7656151,67.37713
0.8315686,68.27812
0.87282014,70.77238
0.79352194,76.785446
1.0054861,79.71987
1.081064,82.32741
1.0952007,89.07701
1.1191014,91.07778
1.3134664,95.59973
1.4298512,99.95264
1.50757,102.06401
1.5501201,108.01259
1.6826416,108.67289
1.6832564,111.59184
1.7925292,118.232376
1.7430826,120.573074
1.8326803,122.603035
1.8753773,126.42461
1.7136716,130.25056
1.9479954,133.14993
1.8685474,133.61151
1.8556306,134.58835
1.9318584,140.82567
1.9057328,141.39752
2.0353446,141.89946
1.9355274,142.06305
1.881826,148.13736
1.9757394,141.77322
1.8812993,141.03418
1.8519961,144.23111
1.8321946,147.95888
1.9626161,143.62956
1.9134636,142.96783
1.7702335,141.37582
1.7917151,143.79337
1.6985962,139.00258
1.6184889,138.79817
1.7036018,137.25252
1.6272448,134.70331
1.5647866,134.61162
1.624635,130.38821
1.4797344,129.72386
1.5180486,126.714645
1.4284548,122.252975
1.3638217,123.9127
1.4927007,120.651955
1.3470122,115.28971
1.4532748,117.38206
1.4110706,115.4755
1.3782302,114.75804
1.3431675,108.07224
1.3763695,107.496216
1.3342215,107.73974
1.3787843,103.31934
1.2948601,102.63229
1.2904661,98.749115
1.2242954,97.778305
1.1436224,95.38138
1.1895448,93.63562
1.1445329,93.24063
1.0291183,86.33835
1.0583909,85.099594
1.0411553,84.91987
0.9779331,81.78467
0.96583635,78.8302
0.83052397,74.89352
0.8224904,75.101425
0.85663724,75.15427
0.7935245,73.38122
0.75000715,70.2859
0.6426655,71.16088
0.75769264,63.28625
0.7078454,63.218613
0.8027096,60.390007
0.7926116,58.410645
0.7419954,55.94492
0.715129,54.033173
0.7261798,55.80196
0.73753005,47.80167
0.65813196,51.153954
0.6931704,49.268238
0.6300253,47.643177
0.5752086,48.73554
0.58561546,41.73351
0.54427767,45.307213
0.4641058,47.121544
0.48767856,45.12042
0.39555162,46.63727
0.3876545,44.38595
0.45847207,45.887653
0.42480814,46.96432
0.15863183,43.830315
0.22948554,51.88168
0.31402034,51.444942
0.23986635,54.33612
0.375575,55.86948
0.24926245,60.320377
0.35904366,63.211964
0.4007468,63.814453
0.4283174,67.24851
0.4919118,70.9654
0.513157,74.00246
0.6514787,75.75618
0.761711,81.837234
0.8594347,85.65405
0.87242943,85.2759
0.9437292,92.91873
1.0636296,96.00858
1.1598372,101.63246
1.1883969,103.8239
1.3056327,106.92255
1.1929015,109.61166
1.3072485,115.85675
1.3195493,117.33324
1.4859434,122.26701
1.5744631,120.55951
1.4963678,129.80089
1.5851576,129.44731
1.5932995,135.1002
1.7150837,136.61969
1.5482876,137.18436
1.6520983,138.66856
1.553229,140.21289
1.5050986,143.52824
1.6601919,141.25705
1.5077274,142.67035
1.5078036,145.10744
1.5118647,142.6597
1.5167158,145.13017
1.5258261,146.28094
1.525289,144.3104
1.3621117,144.57935
1.3936634,140.10275
1.4219861,138.75607
1.2295163,140.1865
1.3412815,138.98608
1.2583975,136.70229
1.2497115,132.77397
1.1911088,133.27072
1.2234097,133.14174
1.1117892,126.68446
1.1892188,127.94255
1.0564916,125.21549
1.0750204,123.22821
1.0942531,119.91247
1.1237496,117.988304
1.0823475,116.48184
1.0969429,110.78279
1.0048702,113.285034
1.0450122,106.6519
0.9580385,107.41446
1.0040158,104.614006
0.8896469,105.35914
0.932119,100.46965
0.9171787,100.39881
0.8289628,94.42058
0.8121168,93.062614
0.8361323,91.97334
0.7841637,89.03227
0.73837185,86.621544
0.65066344,83.86601
0.68815285,84.71046
0.62206155,80.37272
0.57374674,78.90721
0.5892304,77.81932
0.5248207,76.92951
0.54858035,73.24422
0.37430093,71.46487
0.38746536,70.39107
0.32810074,67.15032
0.4069688,65.28601
0.3901915,60.74654
0.40624356,60.189976
0.425828,60.02542
0.43411592,60.343903
0.3735943,54.94308
0.5099789,53.97061
0.4316362,50.47326
0.43428218,48.16417
0.23260367,48.446808
0.2954672,44.56282
0.2160208,44.08359
0.25592726,47.313877
0.2984981,44.33478
0.20836559,47.130196
0.11474106,43.95851
0.15042576,47.34965
0.042618807,46.53736
0.07786298,48.388424
-0.03954771,49.963703
-0.0956159,49.88673
-0.012398783,51.06932
-0.028716795,51.438786
0.0065312707,54.84658
-0.072527185,56.938152
0.14437181,58.161
0.11550724,56.94826
0.085724555,63.469524
0.23366599,69.71689
0.29433087,69.621635
0.3450866,75.20215
0.40468127,79.8452
0.48986915,83.80759
0.64562404,89.39352
0.59411144,90.58704
0.6436478,92.405945
0.7310654,98.13129
0.8931779,100.76755
1.0316077,104.838524
1.0234054,112.27318
1.0966171,111.21849
1.1782817,115.50249
1.2918426,116.815254
1.1729435,126.132454
1.2994802,123.38294
1.2058343,126.72136
1.3314904,129.21303
1.4140193,136.17899
1.3361148,136.27985
1.3837627,136.16847
1.451225,140.39531
1.4012734,139.84457
1.3225045,145.04916
1.2871543,139.91635
1.328019,144.69446
1.3565106,142.6275
1.243776,143.12022
1.3774717,144.08598
1.3461807,145.57353
1.3024344,140.80219
1.3101821,139.05823
1.2416073,139.67891
1.1216221,137.25789
1.037641,139.60321
1.1043453,134.58572
1.083647,135.22437
1.0451795,134.35417
0.9587725,129.80281
1.0416093,130.70946
0.9878935,129.96121
0.83961105,125.722244
0.99736077,125.861626
0.9099638,124.191345
0.95883155,118.60427
1.0336049,118.39772
0.9458063,114.91268
0.95198196,112.692604
0.8274407,110.595055
0.91851866,108.0864
0.8480335,107.04471
0.9112857,107.117096
0.86031467,102.313225
0.91793376,102.241646
0.8623883,100.48673
0.9464286,95.25511
0.8657676,94.28656
0.75402975,91.67919
0.68373454,87.713135
0.6263552,86.175285
0.60049415,85.00611
0.65701944,83.92759
0.5367796,80.3836
0.45062366,79.211845
0.51787215,74.18259
0.46562693,72.73844
0.42863628,73.866875
0.38595012,67.401634
0.42670375,66.48252
0.34367484,65.72445
0.4220124,65.89
0.38781852,63.627453
0.37830296,60.525024
0.33669698,58.98409
0.35515845,54.999123
0.37026894,53.788837
0.3909247,54.59989
0.36507455,50.353268
0.36777398,48.94167
0.2888969,47.97289
0.27662295,44.22825
0.3028136,42.47869
0.28033045,45.801105
0.19742522,47.43612
0.2258373,47.01825
0.20740342,44.620445
-3.1580897e-05,46.08748
0.1643713,46.088837
0.10295239,48.602814
0.02336158,46.56709
0.06372661,51.70442
-0.0033254472,50.460304
0.04187471,52.415485
0.088097245,51.343456
0.013918418,55.791935
0.08952058,60.3917
0.13655493,60.211365
0.30873048,67.12713
0.3057066,69.65553
0.32751963,73.45478
0.48695275,75.91657
0.56819415,80.02178
0.6285529,81.296
0.7392668,87.48422
0.90293247,91.744484
0.8580155,93.294365
0.9828433,97.70244
1.1630481,100.95308
1.0151687,106.05776
1.2241985,105.94327
1.2389694,111.81795
1.334771,114.97278
1.3986431,119.81842
1.3714192,125.042206
1.4365321,128.11436
1.5270196,132.34186
1.5894576,133.9142
1.5054669,133.48868
1.4769152,138.70853
1.7064277,141.85228
1.5526972,138.89027
1.5617844,141.29515
1.6307151,141.44888
1.5708123,142.0054
1.5470678,142.77115
1.5274895,146.61261
1.5038363,145.74677
1.5700904,142.87016
1.416302,141.8906
1.5334064,141.8559
1.413794,137.89565
1.3331784,139.96082
1.4534992,140.18698
1.4274032,134.61458
1.3018318,138.03647
1.332708,134.45999
1.2367216,133.2982
1.3418086,131.37752
1.3448148,127.486946
1.3227805,125.57893
1.3273423,127.204285
1.3038553,125.60197
1.2721959,120.51715
1.139061,120.23821
1.2149653,117.514626
1.2180616,113.5399
1.2681552,115.13385
1.19815,110.30312
1.135011,104.83773
1.1044,105.331894
1.2300411,102.34949
1.159195,103.06535
1.062308,98.69759
0.991118,98.78551
1.0725582,95.37851
1.0348155,96.24666
1.1024045,90.84655
0.93836784,92.57502
1.0059098,85.950935
0.8052618,81.60733
0.9175856,80.60145
0.70955074,79.03795
0.8046764,80.04208
0.81213987,76.7753
0.7281255,71.26731
0.8058435,71.30541
0.78350246,73.24305
0.709655,67.83613
0.71952313,65.52816
0.64614886,64.11478
0.71966213,59.684395
0.64451957,57.03451
0.7443447,56.992245
0.7245952,55.84077
0.6228324,54.337227
0.7719203,52.93449
0.64217764,52.166584
0.75214547,49.68173
0.7507976,46.49305
0.673155,46.632057
0.6816509,45.339302
0.62593454,48.16567
0.62247944,47.089222
0.530564,45.536045
0.3980059,44.998848
0.46310836,44.21152
0.5050362,43.289192
0.3939839,48.124966
0.44325185,48.326683
0.3676477,53.10392
0.37081733,51.37635
0.3891199,52.01257
0.47626773,53.707798
0.29564846,59.866848
0.5100746,61.365597
0.61033225,64.19768
0.60876024,66.16379
0.64306986,70.49678
0.7394131,72.52243
0.81483895,78.93452
1.0317717,82.41238
0.9682005,85.246796
1.0992311,88.001396
1.1552063,95.51045
1.2436421,93.22915
1.3583659,100.22709
1.4404569,104.19209
1.4892871,107.00545
1.619608,110.81995
1.5797089,112.88847
1.6135182,116.45374
1.6930763,121.51748
1.8264356,127.76566
1.7831728,125.8122
1.7716973,129.10597
1.732166,133.0024
1.8949822,132.66592
1.9568719,134.32669
1.874292,139.86726
1.917113,140.79588
1.9046489,142.56253
1.9140314,139.96266
1.9236866,143.13358
1.9098034,144.05714
1.7939031,143.49205
1.9534919,142.59044
1.9516313,143.9877
1.725855,143.49887
1.8651116,144.76431
1.8262838,140.12239
1.7245948,139.81413
1.7895248,138.19353
1.7304509,138.52325
1.6454561,135.93083
1.6348486,134.43582
1.5722318,131.87128
1.4973261,136.2448
1.6173457,126.62554
1.5266412,125.932526
1.6127644,124.08963
1.5681409,122.53427
1.4762123,116.71122
1.574987,117.680916
1.4687153,110.90494
1.4786316,115.01831
1.5502363,112.05442
1.4314699,109.91403
1.5387027,105.247856
1.3786812,105.05702
1.4492425,104.32897
1.4249148,101.3974
1.3611022,97.97808
1.3550578,94.53246
1.3851733,94.00202
1.3282397,91.02844
1.2972475,94.992966
1.2572364,88.48154
1.278284,86.90614
1.1566595,85.00973
1.1824684,81.18951
1.0624673,82.43112
1.087297,76.83989
0.96171737,77.40051
0.9268835,72.87114
1.0763689,72.11212
0.96688676,72.30975
0.9729494,66.94345
0.8708617,66.705376
0.87781894,63.966404
0.8593495,61.233234
0.8355592,58.28299
1.0512785,54.335846
0.912964,55.227222
0.9717931,55.582504
0.9200898,54.16905
0.9032999,50.152054
0.8882503,49.82294
0.89327246,52.141354
0.8673409,43.560635
0.8232324,46.829685
0.81925917,44.087322
0.64619833,45.216053
0.7265047,43.685753
0.672344,44.966713
0.5879189,47.56019
0.619218,50.98291
0.690778,48.1529
0.5197002,50.10107
0.57059324,50.588284
0.5821838,52.19313
0.6306726,54.229946
0.48226273,59.66667
0.5418706,58.58422
0.7041882,62.708717
0.68655384,64.55674
0.7052728,67.25214
0.870749,72.09994
0.82522833,72.82611
0.8951308,79.85201
1.096288,81.53935
1.0693314,85.127235
1.3162385,88.15447
1.303541,90.7575
1.4270396,95.88823
1.4137509,105.04143
1.5554115,108.87313
1.711132,107.35605
1.6221321,114.518524
1.6693634,115.55871
1.6028107,118.874916
1.7906922,122.96618
1.8115737,125.23212
1.8727698,128.82034
1.9368863,134.42842
1.879239,130.60237
1.9574676,134.18565
1.9764593,139.36684
1.9539005,139.73611
2.0385065,145.14117
1.8699619,143.52399
1.826215,144.21999
1.9207636,142.05898
1.8621684,142.24379
1.8991492,147.17531
1.8126576,142.2814
1.9094402,140.56221
1.8162913,140.24457
1.8145459,143.94069
1.7962507,140.44972
1.6953582,141.17041
1.7068107,139.54442
1.5956031,135.8628
1.6813867,139.32465
1.6420155,132.8744
1.4761139,137.38155
1.4915129,130.90298
1.512626,128.02995
1.4135383,126.67773
1.4581368,124.60182
1.4957908,122.01897
1.4954857,119.57054
1.3470645,119.90272
1.4702194,115.29607
1.4577248,113.30856
1.3880926,109.78758
1.3257424,105.39267
1.4358894,105.672775
1.3373505,105.96227
1.337158,103.2897
1.2808652,98.96843
1.2408884,98.85188
1.3021114,96.01106
1.236603,97.43179
1.2212759,94.564224
1.2137796,90.78796
1.0085409,87.92951
1.0372634,85.31857
0.97772753,84.267136
0.98270124,82.02281
0.9262946,78.68108
0.8800938,76.1347
0.84223473,76.62077
0.78547376,73.52782
0.7824864,72.68762
0.76016486,69.252464
0.77891004,63.314068
0.7916521,65.950356
0.8212884,62.009888
0.71433467,60.260563
0.7892213,56.972435
0.72096795,53.82009
0.7382128,51.41475
0.7415446,53.77599
0.7601747,51.305054
0.6601038,48.999107
0.64834493,45.979866
0.62240267,47.666267
0.5870346,48.05111
0.4657517,42.546085
0.5126461,44.34319
0.4819629,42.279842
0.49262995,41.178406
0.4729005,46.119873
0.34980115,43.63017
0.32094917,46.570232
0.37391457,46.984665
0.3639382,48.00321
0.26832533,51.481003
0.2520433,54.494583
0.46372533,55.30755
0.2518313,60.0238
0.29157916,61.77997
0.34457734,60.425037
0.5885376,65.13592
0.41825813,69.30201
0.4836737,72.24253
0.582953,73.104126
0.63331044,78.68953
0.7236067,84.347176
0.8847279,85.99397
1.0254725,89.142525
0.99157864,92.62722
1.1344513,99.684074
1.2063674,99.99175
1.2072295,105.61039
1.3411819,111.370285
1.3627663,113.66798
1.4736944,116.65763
1.3462801,120.45992
1.469576,124.75559
1.5881872,129.07315
1.5303991,131.51843
1.4788711,134.09137
1.6696336,135.82278
1.6382979,135.59848
1.5895133,134.61958
1.6079327,142.7382
1.6979946,144.07588
1.5435185,142.04155
1.6173452,143.06265
1.6754202,141.34706
1.5471876,143.9037
1.6440872,144.1027
1.4523033,142.75119
1.477713,143.08237
1.5696169,142.57458
1.5891085,140.19101
1.4238204,141.07639
1.381101,135.88574
1.3691968,136.6604
1.4461929,137.8762
1.3957053,135.5738
1.2502552,133.81082
1.3080313,131.35959
1.1855359,132.87254
1.0613588,127.57222
1.0464762,126.90736
1.1859314,124.275314
1.145005,120.063736
1.1338918,118.46003
1.134038,119.13582
1.0488292,115.00506
1.0633636,110.24466
1.1178877,110.892525
1.0348264,106.392075
0.98455983,105.77286
0.98840296,103.40555
0.90428215,100.70981
0.97665846,100.61844
0.91954154,98.59427
0.9113446,96.058395
0.88450825,92.30458
0.81132853,91.11855
0.9447499,89.01647
0.8926056,84.69275
0.6945822,84.588005
0.62777054,83.4205
0.65026265,79.18233
0.6642001,80.79545
0.65592206,78.255516
0.5374299,78.53549
0.4108822,69.21855
0.55003756,69.416214
0.4961586,67.79751
0.4219741,64.57589
0.41808745,62.586617
0.48334843,59.518345
0.39171243,60.519505
0.30081284,55.846783
0.39129922,54.90483
0.43316543,55.79772
0.44743067,53.62427
0.4514423,50.510487
0.36276448,50.160217
0.39131293,45.546608
0.38074037,46.467155
0.24394162,45.886303
0.24464221,49.049587
0.13913421,44.796432
0.25893697,44.93878
0.1209567,45.556473
0.14000945,45.910107
0.083929054,45.492725
0.060127787,45.76518
-0.035765164,49.36141
0.017481748,49.6492
0.04433411,52.605114
-0.075503655,53.941967
0.014428196,54.354908
0.029268358,55.99237
0.058778144,60.55799
0.09753903,62.43562
0.20743723,67.24042
0.17065862,68.37909
0.32683814,71.327934
0.33365893,77.15466
0.44233924,81.45896
0.5657098,84.85925
0.55531305,89.55499
0.7941906,90.92974
0.7658774,98.38456
0.77275765,99.48415
0.9086099,103.2723
0.9854536,108.29883
1.1092808,112.52509
1.2616825,113.04169
1.1396002,116.559875
1.2007316,120.41672
1.2983627,126.56453
1.3251851,127.21166
1.2736825,130.19945
1.2515875,133.26544
1.3367224,136.81392
1.3545386,137.45464
1.3096067,138.67494
1.3893334,138.07114
1.321786,142.42609
1.4319029,139.32411
1.254554,143.90244
1.4222144,143.90974
1.3009301,146.6346
1.271731,146.39915
1.3183049,144.13231
1.2055247,144.26483
1.2865704,142.21414
1.2445916,143.83516
1.1600491,139.55342
1.3327962,137.26318
1.1070094,138.27292
1.1281233,135.6622
1.000398,133.158
1.0170062,134.3592
1.0369587,132.2331
1.0110046,127.91802
0.95566314,128.10834
1.0329452,125.25577
0.99312353,125.28387
0.95245373,119.3934
0.90547925,116.7522
1.013526,116.30093
0.8757603,114.9704
0.9140255,112.25288
0.8459162,110.53063
0.8481002,103.916565
0.7638017,100.594505
0.9307082,99.863655
0.86479485,99.73239
0.81367284,99.76246
0.8981898,95.00309
0.7445086,93.89618
0.8082153,94.64859
0.6746832,92.473274
0.54581606,83.7065
0.6033076,86.40109
0.64305794,84.97154
0.48831916,82.33468
0.5651796,80.015724
0.4380583,79.45023
0.33996594,74.22044
0.5341549,75.31621
0.2951172,74.36434
0.43706396,68.236694
0.47856295,67.54124
0.37260178,66.735405
0.3178481,63.26545
0.44983894,62.346878
0.37026083,59.69511
0.2960854,56.93388
0.38331205,58.24139
0.3035792,52.132153
0.312582,54.694595
0.31523353,45.87411
0.23536786,49.22043
0.38900113,49.013268
0.25790465,47.395756
0.3075765,46.038574
0.14686574,44.843338
0.22043741,46.748272
0.13707387,46.218025
0.10897133,43.73419
0.12547503,49.671097
0.107892886,45.489468
0.034397718,47.90477
-0.05723351,47.258995
-0.000247716,52.068417
0.046947055,53.4902
-0.0077399537,53.208862
0.047046266,53.917454
0.04546342,59.823097
0.15517275,61.12057
0.18245856,62.756832
0.13250464,67.28835
0.37590978,69.22298
0.428811,75.60115
0.46250919,77.55926
0.5707152,78.199554
0.6918611,86.33897
0.67745876,90.41269
0.8531696,92.82666
0.9424122,94.215
0.99774677,102.423386
1.2055883,107.39164
1.1916491,106.91885
1.1608665,110.06904
1.2849054,116.95773
1.4530305,119.68218
1.3594227,121.578804
1.3693604,125.27422
1.4724799,128.90788
1.4221203,134.57077
1.5479679,134.53572
1.4590861,134.51009
1.5054965,139.48184
1.5565084,138.8655
1.5321516,140.04805
1.4319555,144.29546
1.5229414,141.81909
1.5805749,142.95059
1.5407597,143.65074
1.4931242,144.95963
1.5020044,142.73975
1.6297715,145.1017
1.4043434,142.19966
1.4237305,143.55592
1.395133,140.46747
1.3695652,140.13861
1.4152355,139.2608
1.3817421,138.10254
1.3486828,134.24036
1.2227627,133.74118
1.399174,135.59709
1.4327848,131.7084
1.243519,126.864075
1.2046442,128.14778
1.2252384,120.37228
1.158455,121.89136
1.227433,120.35737
1.1278249,115.16826
1.099654,115.22721
1.1790177,111.81514
1.0981946,109.499504
1.1295385,106.05364
1.1691517,107.872055
1.0531741,105.14075
1.0608922,104.575645
1.0486718,100.75841
1.1374242,101.24754
1.0947502,98.02463
0.93692106,96.7102
0.96230596,90.50265
0.94697255,92.32743
1.0410315,86.46433
0.91521245,85.4707
0.9211461,82.46069
0.80497444,80.975204
0.86675143,81.09274
0.7303922,76.49805
0.64222604,71.26217
0.803735,70.51879
0.65654254,69.62052
0.7502513,67.804855
0.6039421,68.0557
0.7417617,63.6005
0.81864256,63.071598
0.5228193,59.27303
0.84186286,57.7289
0.78836733,55.59643
0.7555311,53.202724
0.77059245,52.09539
0.68123174,51.553444
0.6528019,51.11787
0.70776266,44.923683
0.6044241,48.216698
0.67934835,45.229904
0.6509818,45.68563
0.549134,44.947582
0.47272405,45.302086
0.53811175,45.287685
0.5708948,46.27264
0.41306394,49.1072
0.4210703,47.300518
0.4110896,46.975628
0.41404417,49.256863
0.31446737,51.616077
0.3511793,55.548603
0.32851058,54.540874
0.38036612,57.02387
0.4710725,59.388958
0.5355225,64.8696
0.5313427,64.455284
0.47809306,67.129684
0.74944425,71.816284
0.7525644,77.28518
0.8594165,80.72196
1.0462178,86.1059
1.0395062,85.876724
1.1404443,86.6725
1.1752472,96.088326
1.2982247,96.58014
1.353052,100.29101
1.4309837,105.74318
1.6240532,106.7274
1.5747811,116.02321
1.5706149,114.35524
1.7000983,117.93868
1.7139752,122.38201
1.6910175,127.480286
1.8455279,129.56729
1.8433237,133.72704
1.8839488,136.46664
1.9813381,140.41742
1.8349643,137.5306
1.7939863,144.51268
1.8872981,140.97043
1.9847769,143.49165
1.95646,142.64473
1.8875436,144.34769
1.8628006,143.21974
1.9330697,143.88731
1.8686582,146.08508
1.7176726,146.61946
1.7693291,142.63445
1.7592881,143.10715
1.7152413,143.21083
1.8341328,140.95895
1.7361699,137.64905
1.7519481,136.47298
1.5585467,135.39333
1.5611061,137.66113
1.6774358,132.41188
1.5993538,128.26553
1.5849298,127.4016
1.6200993,128.42825
1.6203576,120.80229
1.5396031,121.19821
1.4923805,120.06475
1.3799473,117.01576
1.4936105,111.66179
1.4786375,112.5166
1.5325859,112.865906
1.4294442,108.23012
1.5220655,105.046684
1.4454715,106.05774
1.4710633,99.85923
1.4051789,99.851006
1.3788744,99.71092
1.3141928,94.676155
1.3329127,91.79261
1.1830695,94.77437
1.2867814,87.21302
1.1936249,83.884865
1.1621674,86.91372
1.0880349,81.84629
1.086788,80.638695
1.1090746,80.388824
1.0022055,74.497444
0.9820493,73.43594
0.9599244,75.49261
0.943552,70.772606
1.0140154,67.093376
0.89871764,64.550224
1.0464257,62.73868
0.8876177,60.240856
0.84203494,57.94157
0.89712715,59.645035
0.9384074,58.226166
0.92054486,49.881588
0.84976906,51.464607
0.91785556,53.249638
0.9947579,53.51814
0.8730326,49.339863
0.79335725,44.876602
0.81435186,46.086517
0.8317626,44.803036
0.8531,46.380432
0.6660229,42.586643
0.682871,43.870197
0.671647,44.192513
0.67677206,46.793186
0.549718,45.884
0.6125607,49.56505
0.5386128,50.305733
0.45106024,51.37095
0.46935326,53.972347
0.51497865,55.05077
0.53892785,57.310566
0.6190049,61.248207
0.66417503,61.998028
0.74179673,67.25998
0.75921184,69.737526
0.89282393,74.2139
0.9799741,74.98545
0.9920021,79.8571
1.1308217,83.9212
1.2197175,86.26144
1.3257537,89.90538
1.380075,94.42625
1.401183,98.61027
1.5280738,103.953224
1.5513427,106.090004
1.6758026,109.80349
1.6775113,113.70302
1.7066606,115.91472
1.9221807,119.62628
1.839815,122.02293
1.8986486,124.49337
1.8176911,131.73254
1.9434404,135.26564
1.9608353,135.11296
1.8937441,134.34705
1.9967787,138.42293
2.0032096,136.79283
1.9275943,143.54991
1.9083543,142.5918
1.9114261,141.43408
1.9320074,142.7177
1.9422151,142.91197
1.8347292,143.05278
1.983568,143.3211
1.927116,142.00671
1.7351987,143.73639
1.8137251,140.0138
1.7332567,142.03268
1.7789747,141.0281
1.7369977,137.68968
1.5507045,137.66803
1.5506576,133.9652
1.6468154,134.08858
1.608743,130.1042
1.647804,130.22264
1.5989834,126.51872
1.5499363,124.060196
1.4503655,120.10245
1.551161,121.3167
1.4314319,115.35457
1.4172561,114.23466
1.3250021,115.35896
1.4549624,115.76832
1.4240564,107.900505
1.4212291,108.372925
1.4411396,106.855545
1.4318184,104.17889
1.3213947,102.90186
1.275311,97.855064
1.2793248,97.652885
1.1976721,97.48132
1.2456772,95.44512
1.1428846,90.83087
0.98287874,88.48606
1.101277,84.62513
1.1429821,82.64849
1.0392963,82.35194
0.8292684,77.55039
0.8628933,78.135086
0.9643008,77.91747
0.94876885,73.72875
0.8701399,68.029564
0.79261607,64.47799
0.8668626,63.63725
0.77233607,66.136375
0.7096031,62.65343
0.7998712,59.035904
0.6781882,59.01598
0.7444279,56.86814
0.8450538,56.00262
0.7352355,53.815895
0.6492433,49.42321
0.7300711,51.506294
0.6664425,51.394596
0.7228765,49.52965
0.6628297,45.0116
0.63253164,42.932606
0.5220718,46.791317
0.5360111,44.335796
0.5081934,44.96667
0.4791427,43.5802
0.4448001,45.763386
0.3237918,45.89729
0.38218638,48.05162
0.32331747,46.54061
0.34996676,50.8974
0.30579576,52.323666
0.3166849,54.682377
0.36116162,55.265316
0.3817225,59.680363
0.35769218,57.575
0.374457,65.350525
0.3693757,68.03009
0.46909264,71.76847
0.6280512,73.969376
0.6579448,75.87827
0.8398682,81.736725
0.8385185,86.53686
1.0383289,88.70144
1.1734455,91.40543
1.0413514,97.5327
1.1085712,102.14204
1.3624079,106.505226
1.3289605,108.87412
1.4013072,112.05866
1.4332752,117.81811
1.4063351,122.36502
1.5443817,121.26111
1.4629933,122.828575
1.679273,128.76753
1.5873995,131.28201
1.6309371,133.10587
1.6485473,137.93214
1.6122466,137.8452
1.5234661,138.32132
1.7653255,138.78485
1.7151486,139.56047
1.622599,144.36627
1.593145,140.95938
1.6029472,144.19476
1.5752301,145.23415
1.6078553,145.95161
1.523007,145.19081
1.4717546,146.20576
1.565859,142.72015
1.4590896,144.0387
1.4599944,141.246
1.4371625,138.4972
1.3914069,139.03432
1.41959,134.22318
1.3272927,138.24117
1.3177756,130.64735
1.3130364,131.7264
1.2335526,127.616066
1.1749325,125.027214
1.2090769,123.67156
1.1380458,120.92163
1.0981456,119.98022
1.1181968,115.181015
1.0309358,112.92518
1.1638585,115.42436
1.1313757,112.89406
1.1458784,108.98604
1.0288771,109.83808
1.1908172,104.366
1.0794926,104.89945
1.0770599,98.581055
0.94422096,99.68015
0.8225943,97.32695
0.9098818,94.648476
0.7651406,89.55909
0.8195466,89.90442
0.7794606,88.13757
0.8466235,86.47992
0.6948775,83.57587
0.7260105,79.9182
0.53385174,81.48461
0.6538903,76.54385
0.5244665,76.51757
0.5428854,73.53508
0.4387848,73.25283
0.5088772,68.659065
0.48501074,63.44456
0.47203854,65.55727
0.4180583,62.706547
0.45448864,61.09902
0.5436663,55.479446
0.4488546,53.43902
0.32438087,54.307487
0.49211657,51.88057
0.41321218,49.336246
0.2819717,50.437607
0.30573273,49.975773
0.39119056,48.531227
0.2886526,48.430195
0.20001721,44.14603
0.35238364,46.345024
0.21526437,49.241226
0.18415926,46.15996
0.15601619,42.724358
0.035278607,44.503418
0.06219001,45.145123
0.07988168,47.805138
-0.08706093,50.112724
0.06713803,49.478218
-0.015872493,53.982944
-0.018369872,54.077377
-0.11240128,51.53492
0.013275267,62.380787
0.18319967,59.006668
0.07321994,63.25327
0.1985316,65.76322
0.26037687,73.24257
0.4030489,76.34495
0.43571594,81.11794
0.46078596,83.76724
0.65258455,85.36719
0.7681558,90.2277
0.7203452,96.467865
0.85484797,98.47909
0.9243786,103.03546
1.017099,104.25231
0.9640589,107.361855
1.0951337,110.68015
1.207003,115.52734
1.2145375,121.31442
1.2349628,123.93759
1.3274121,124.98455
1.2106777,134.13506
1.3776062,133.23756
1.3901062,134.01662
1.3669869,134.44023
1.3134154,140.94652
1.3290765,138.29472
1.3371426,143.28075
1.2689652,143.21184
1.3614832,138.44766
1.3437095,144.70079
1.3640656,144.60405
1.3401265,144.56061
1.3210292,143.74803
1.1681473,142.83067
1.3308363,145.01512
1.2875824,143.418
1.2128792,138.98566
1.2164918,134.4869
1.2239735,137.21214
1.0822825,137.17441
1.0477443,131.59824
1.011792,135.30545
1.053597,132.62282
0.89671916,127.20108
1.0365858,130.51872
0.9898329,124.754944
0.9518609,126.82207
0.978112,117.57449
0.99206215,121.882225
0.9728282,117.99995
0.9270866,112.51211
0.9777778,111.32728
0.9162879,110.52459
0.9285329,108.076164
0.81953675,105.28614
0.9073645,101.87593
0.78682345,104.73972
0.767644,102.95806
0.7974859,99.4369
0.71027845,96.34229
0.66637266,92.37855
0.7095838,88.98907
0.6844982,87.32142
0.58095145,90.620056
0.57354224,83.65934
0.61953944,82.6889
0.46566787,81.56224
0.49176583,78.94102
0.37978145,74.073265
0.3699058,74.18042
0.39145386,73.33623
0.39900154,69.188995
0.3672972,67.60307
0.40430403,63.77825
0.3757842,64.28124
0.4113994,61.585148
0.37484264,59.114193
0.40433228,57.50834
0.27428135,55.957382
0.36534894,53.980865
0.3910771,51.294796
0.28370392,53.328533
0.32271475,49.978893
0.37433797,46.780045
0.3392725,46.930775
0.22686325,45.57878
0.20056023,48.062683
0.20801973,45.33192
0.18789546,45.916294
0.14955659,44.655575
0.0685652,43.93347
0.10529435,46.707783
0.027409393,46.609844
-0.04806296,49.745975
0.002768228,51.681816
-0.107850805,52.477074
0.13193393,54.185635
0.039704397,55.619553
0.034713197,57.89013
0.123545036,58.81078
0.1117167,61.152634
0.24453235,64.963295
0.24074318,70.768456
0.3465048,70.99869
0.34177044,78.23462
0.50515544,77.50486
0.6597198,83.55375
0.7240391,87.52634
0.76444227,90.70413
0.8945826,96.65512
0.94420916,103.63657
1.003413,102.10538
1.1196266,108.68339
1.1819054,111.353386
1.21157,114.0788
1.2749158,117.54991
1.2225142,121.43889
1.4613539,125.49097
1.3534036,129.16049
1.4137622,130.59299
1.506241,133.39967
1.3642691,132.11871
1.505552,133.34447
1.4969039,142.25797
1.4991186,138.60147
1.5870678,140.60078
1.4580675,142.70781
1.4712834,146.31032
1.5288298,143.53699
1.4906406,146.00946
1.5096977,146.32472
1.5346272,144.88698
1.3968703,144.8373
1.4558938,140.63112
1.5614551,139.65965
1.4166898,140.13718
1.2542782,139.49571
1.360394,137.31488
1.3610659,132.90457
1.3136958,133.56464
1.2770275,136.29684
1.2611316,133.64925
1.2124271,128.27303
1.106638,126.13183
1.179741,124.19262
1.1657138,124.189255
1.0742127,121.18616
1.2252849,118.86548
1.158706,114.82403
1.2319199,114.234116
1.0636408,114.81407
1.0618877,106.2081
1.1305484,106.58339
1.0290449,108.44491
1.2570379,105.20138
1.1020207,102.24356
1.0652772,99.07292
1.0108455,94.60986
0.99962306,94.49341
0.94794935,93.262115
0.9099965,90.76911
0.94758177,91.11996
0.8582512,85.1176
0.74485177,86.61281
0.7448164,83.83423
0.7126798,77.549
0.7850377,77.23917
0.6652965,76.69385
0.66034055,75.002716
0.75475335,69.24213
0.6236004,67.8582
0.5928321,67.99717
0.5345293,66.197525
0.64716923,64.655846
0.712627,63.01899
0.688841,59.43568
0.6415945,56.75902
0.56574726,54.871506
0.5335426,47.802563
0.62482923,52.361526
0.6566111,49.914486
0.59016067,49.88167
0.6207679,49.63187
0.59768474,48.22083
0.56885,44.8327
0.49802417,46.084885
0.4704663,45.71705
0.4467529,43.14166
0.4995032,46.871643
0.32754716,46.774532
0.2658516,43.916847
0.40219963,46.28383
0.28626028,47.115685
0.28886023,48.707058
0.361837,49.984913
0.3783169,55.211624
0.34333333,52.82472
0.38170713,55.706654
0.4132334,62.47879
0.57013375,63.027897
0.5013813,68.48828
0.59747946,72.90626
0.7964564,74.80301
0.78980094,78.51663
0.82859445,80.71104
1.0342838,85.44497
1.1565212,88.86092
1.0834552,90.67621
1.2954974,96.135475
1.3448176,99.262
1.3951464,102.727165
1.4845597,109.175995
1.4515469,111.001915
1.5340139,114.537186
1.6544286,121.002304
1.6616155,120.07145
1.680031,121.658104
1.728482,128.87741
1.8103021,130.89784
1.7615926,135.94347
1.8133276,135.38301
1.829266,134.79115
1.8575006,139.94315
1.9387422,141.1067
1.7917825,146.83766
1.9319696,141.69318
1.8307397,142.42604
1.8350387,144.44012
1.8278606,143.75374
1.7887155,143.15231
1.7694821,144.16156
1.7305826,144.26163
1.7938138,142.58813
1.6412815,142.38095
1.6274114,143.08064
1.7686713,141.35355
1.6234261,133.04425
1.6626778,135.58488
1.645529,134.63155
1.6676629,132.54861
1.5558869,130.1527
1.5010006,130.016
1.5154254,127.53154
1.5214645,124.99743
1.5327165,119.38584
1.5407983,119.96681
1.5545392,115.831535
1.4438487,115.821335
1.4848335,115.2963
1.4885805,113.12507
1.448419,112.320015
1.406605,107.86513
1.479535,105.10253
1.4575877,100.25913
1.3592163,98.788284
1.4117783,97.42811
1.4244168,95.179115
1.4161736,94.90481
1.1812998,92.978645
1.2736367,86.93539
1.2981353,87.533745
1.1123496,85.73962
1.2396524,81.99571
1.0514987,80.92035
0.96104515,81.12395
0.9982705,77.46705
0.9945883,75.61317
1.1533779,66.299545
0.9594223,73.37064
0.9652948,67.938774
0.90293896,67.01738
0.97652423,67.679344
1.009726,60.236893
0.98861384,60.49791
0.9372436,57.219456
0.931577,58.114838
0.9624751,51.46451
0.9050668,51.973995
0.96292526,52.43806
0.86135465,48.912125
0.85703117,48.680832
0.8580288,47.736412
0.87387663,49.00824
0.855189,47.037754
0.723262,45.146877
0.63857955,44.90721
0.6994636,42.1531
0.5696334,45.094887
0.72842044,47.216694
0.49824506,47.366596
0.5246837,45.200375
0.56320494,47.16487
0.6196492,46.39884
0.5014399,53.737404
0.58202624,53.886387
0.60189754,50.823265
0.65541214,60.959557
0.7431982,63.475704
0.7178765,66.21496
0.84826803,67.22306
0.78998107,70.14368
0.88373065,77.25369
0.9166029,77.3952
1.0671024,82.21467
1.1298709,85.469826
1.3043414,88.010025
1.3100139,92.35192
1.4526894,96.36617
1.4808112,97.94756
1.5557271,103.25242
1.6556437,109.7296
1.6826036,110.70818
1.7727213,111.832535
1.8242502,119.61547
1.8551365,122.80003
1.7566857,127.12131
1.9031719,128.662
1.9162934,132.11992
1.8999014,133.87402
1.97513,140.69417
1.903664,137.01668
1.9604343,137.64023
1.9519428,142.51787
1.9341489,143.83604
1.9014548,145.81557
1.9569824,142.8631
2.072626,142.66273
1.7781389,141.74542
1.9117275,142.78682
1.7181587,139.88107
1.7717173,143.40565
1.798145,141.57643
1.8116213,144.6687
1.8221937,141.86758
1.6830263,138.28613
1.6147109,137.18872
1.695409,138.77057
1.685998,134.03427
1.517989,132.0759
1.5974712,128.90184
1.554102,129.58815
1.4814502,127.041115
1.4576832,126.14631
1.4514327,125.82075
1.491012,122.01801
1.4617721,115.57611
1.4566932,113.87998
1.4868891,114.34133
1.381944,108.75966
1.3347614,110.42449
1.321234,104.33173
1.4431189,104.76773
1.4125354,99.2916
1.3284696,100.186745
1.4215525,96.76903
1.3760648,95.05337
1.1916999,92.225395
1.2521393,93.86908
1.1386683,87.60154
1.1911937,84.28146
1.1737527,83.63584
1.0800053,81.677475
0.91683877,81.82886
0.9877643,77.19418
0.97966146,79.806816
0.8559169,77.96602
0.887253,73.03159
0.8906158,71.787834
0.77842313,71.118065
0.7994102,67.37919
0.7973787,63.800777
0.78064954,61.483524
0.8370023,57.15474
0.8404984,55.344265
0.7693592,53.117477
0.83351725,54.406338
0.77100235,51.047092
0.78397614,50.953323
0.7363103,47.42968
0.70502084,44.37371
0.79722154,48.629745
0.53456426,47.955746
0.6710634,47.922955
0.6251379,46.149208
0.58427626,46.188473
0.50327355,44.569473
0.48393282,47.09617
0.37932155,49.137863
0.50023645,50.450752
0.4437896,48.905216
0.31732374,50.12511
0.35057166,53.427948
0.36898646,50.659576
0.37029183,56.884598
0.31557235,58.44596
0.4271049,62.316025
0.51285285,64.89207
0.53325397,66.1988
0.6001751,70.631065
0.60499287,72.807175
0.65053123,75.22663
0.7622131,81.538246
0.84096235,83.396286
0.94068736,87.65939
1.107775,89.874725
1.0657561,96.951584
1.0867097,101.61538
1.182998,102.7982
1.370353,109.17132
1.519382,113.77895
1.3809984,111.70116
1.4584906,118.08744
1.473833,119.90794
1.5304893,124.00868
1.5393851,126.21677
1.5584087,129.17796
1.6975456,135.77145
1.6750602,133.9134
1.5856373,137.69496
1.6285387,138.73448
1.6801859,137.2555
1.6281006,142.08784
1.668323,144.93385
1.6433828,143.12923
1.6413916,144.29146
1.6659409,143.08138
1.5340327,146.5097
1.5554507,142.79031
1.5403308,144.63437
1.4774302,142.99615
1.4846376,143.86095
1.3829998,137.86899
1.3544111,140.08131
1.3769344,138.34737
1.3941641,134.52597
1.428133,135.3326
1.3702796,131.74245
1.2486792,132.20467
1.2300048,125.691154
1.2536633,126.73942
1.1790142,124.88137
1.0863137,119.51162
1.222395,122.47479
1.1142021,119.76625
1.021463,117.77014
1.081287,114.37146
1.1115494,112.17671
1.0522044,109.82219
1.0762233,106.97136
0.95265126,108.13515
1.0476747,104.19099
0.95375365,99.85465
1.0179285,99.02797
1.0014454,98.2953
0.89473176,97.22024
0.9450014,93.89419
0.87745047,92.10077
0.78313667,86.1288
0.7963946,87.40904
0.66400963,86.41116
0.6649948,84.86795
0.66186786,80.73291
0.6451106,79.44961
0.56606674,75.5964
0.67098296,76.60298
0.49771005,72.65785
0.46998182,71.79085
0.44895393,66.37246
0.49349675,63.137062
0.511986,62.37458
0.48237035,58.969444
0.41078398,58.972935
0.40353727,57.693996
0.40489626,52.660706
0.3929931,51.8896
0.3501008,53.486282
0.42065504,52.14155
0.4202871,47.78751
0.32208827,49.863823
0.47244048,43.733906
0.3423203,46.852676
0.24659163,46.510746
0.15146928,46.369305
0.23199938,41.33654
0.18906926,45.133522
0.21682414,42.954872
0.08197153,46.24063
0.033424225,50.257706
-0.078914665,47.351402
-0.019359564,48.248272
0.05729116,50.312485
0.01651171,51.954163
0.052647207,56.050716
0.10697029,58.480297
0.09599277,61.007835
0.12185797,64.94974
0.1260401,66.04012
0.2175555,69.92249
0.3996827,72.97015
0.46200293,78.73313
0.5056769,81.661316
0.61488473,87.39377
0.73957926,89.59514
0.7581033,93.521736
0.9222643,93.9426
0.89091873,97.69754
0.88602585,106.562775
1.0401858,108.32418
1.058982,111.098366
1.2411364,114.00499
1.194043,117.13923
1.184368,124.51073
1.2843099,124.09042
1.3693945,126.867256
1.2699112,128.25465
1.5017203,134.60939
1.3589573,136.0251
1.3561779,139.89928
1.453644,142.96893
1.3856875,140.52881
1.306574,142.26172
1.3822161,145.26953
1.3047932,143.58943
1.1375499,148.21725
1.262919,143.58998
1.3199838,142.16396
1.3093367,144.48701
1.3001355,145.18668
1.4789355,138.05084
1.1979842,139.61632
1.3298054,139.7535
1.1571153,137.05597
1.0932795,137.19673
1.0581744,133.5083
1.1028558,134.02534
1.0672497,134.77478
1.0346147,132.53662
1.0422776,132.44754
0.93797076,126.18664
0.9379385,124.12798
0.9288485,122.498604
0.8996614,120.34013
0.93873906,118.770706
0.84986484,114.08882
0.8990968,112.366806
0.91864425,113.8692
0.8250108,108.096344
0.9107053,106.46518
0.768673,104.8451
0.8711548,102.64623
0.7813821,99.98028
0.7921807,98.7922
0.7707645,97.16876
0.6931218,96.09965
0.6663336,87.23553
0.7333287,87.64831
0.70147026,85.29167
0.61401993,84.27702
0.54956514,80.82884
0.5891645,80.78616
0.55938506,80.12625
0.5403217,77.897026
0.4867775,73.955345
0.46185657,71.23149
0.28989908,71.0619
0.33681387,70.128075
0.40358213,67.77347
0.32260728,64.80654
0.37806004,65.082306
0.33994094,57.819824
0.29856068,57.31511
0.28091258,56.41225
0.36321318,54.412876
0.34837365,53.52831
0.38672677,49.36025
0.32196456,51.010826
0.34477222,49.415993
0.27727348,47.71109
0.3193074,47.455772
0.31620836,46.332092
0.2176824,44.13833
0.2189332,46.71581
0.039827332,46.914425
0.14212397,46.367004
-0.032117005,43.26127
-0.096657954,49.673534
-0.06769427,49.79554
-0.0136214495,49.126484
-0.008060582,48.69941
-0.046994448,52.73523
0.051633526,55.66659
0.07741355,54.846134
0.10511404,60.020653
0.07752939,57.84108
0.20972186,64.35298
0.24860467,69.15039
0.4198804,71.98689
0.42445278,75.40873
0.5635551,80.66662
0.5925823,85.119545
0.6729377,87.74566
0.71411234,89.18966
0.79317653,95.807465
0.877676,97.76644
1.0432199,104.05659
0.97679925,105.71649
1.0785933,110.98329
1.1220654,111.11155
1.3300619,118.02142
1.1998736,120.08882
1.3109586,122.93944
1.3465332,128.93713
1.4988719,127.2103
1.4590422,134.6822
1.551782,134.25705
1.3926992,136.52866
1.4138504,137.8189
1.5417923,138.15894
1.4971814,141.11047
1.6139693,143.284
1.5125965,144.57747
1.5640352,145.66719
1.3884969,144.32823
1.4362508,144.20953
1.3814325,143.57678
1.4723665,142.36333
1.2998722,141.49667
1.270735,143.73709
1.471037,140.69539
1.3604149,142.01248
1.335841,135.31778
1.3417047,136.24042
1.2520589,136.5443
1.3429002,130.47101
1.1669196,131.97604
1.0998362,129.85431
1.1897558,124.81267
1.1552866,128.78188
1.2722926,122.55066
1.0853765,122.685616
1.1869955,119.092155
1.1020145,118.67308
1.1021817,116.94288
1.1700166,113.302795
1.1332594,108.46558
1.1400568,110.18848
1.0923576,108.28134
0.9917584,103.69692
1.0571145,99.83723
1.144159,101.70129
1.1132344,97.04596
0.9563282,94.21108
0.9395109,93.5501
0.8783633,90.11449
0.8537982,87.99689
0.90868455,85.07647
0.8549707,86.609985
0.75774795,86.45582
0.69063747,81.69757
0.7792167,76.9381
0.6374844,76.11722
0.6175156,75.62735
0.6349009,76.15291
0.76924956,69.35155
0.5982624,70.87773
0.5627205,65.48401
0.76361835,64.37647
0.7171887,62.586517
0.59316003,57.95488
0.7067318,58.658188
0.5410658,55.80959
0.7350175,50.495327
0.7571013,51.428806
0.68879956,54.966934
0.6951586,49.2249
0.63118774,48.43909
0.70089525,48.521072
0.44735843,49.09769
0.55653125,46.423004
0.47916752,43.67626
0.5184594,42.37304
0.47479185,43.76645
0.5236332,45.14974
0.391508,47.442375
0.39084038,48.00793
0.31288546,45.648216
0.38752747,49.202602
0.30810598,52.314373
0.18729772,52.34141
0.36688823,55.521782
0.3682037,57.756187
0.4751677,58.506207
0.42753,62.629242
0.40244865,66.227196
0.6491699,69.65489
0.6558113,71.02161
0.7591085,74.97657
0.81908524,79.14566
0.9876119,84.62473
1.0724114,90.38125
1.2452995,93.96774
1.1650363,94.155365
1.3754617,99.23481
1.2971876,102.48597
1.4003447,105.46533
1.502746,110.674995
1.5246743,113.50375
1.5901724,116.2142
1.5738392,122.03295
1.6513875,124.11259
1.8261793,126.30689
1.8020667,129.8611
1.8804249,132.4538
1.7805723,134.23903
1.7925237,138.28035
1.7847346,140.1278
1.766435,139.26701
1.807018,139.94595
1.9031826,142.26512
1.7368317,140.4066
1.8669494,143.96861
1.7534292,144.78981
1.899181,143.10414
1.8635383,141.94888
1.7781581,143.0772
1.8169947,144.12726
1.6810858,142.81302
1.7042265,143.4398
1.5779699,138.13383
1.6578404,137.30441
1.6933095,134.55753
1.6930128,135.71815
1.6434056,133.63327
1.5674928,131.87167
1.5346136,129.38591
1.6817315,129.4574
1.4636667,126.38802
1.4901475,119.741646
1.5091435,123.20653
1.4884485,118.75028
1.5262738,118.96819
1.4544735,114.43867
1.4287927,114.10992
1.4323814,109.94062
1.3129834,109.086655
1.4233394,107.367355
1.2978365,103.19615
1.406716,102.74412
1.3643378,98.8441
1.3624951,98.44907
1.2917454,94.71173
1.2766739,93.10034
1.2507739,92.33271
1.2506983,91.13467
1.2499254,85.43817
1.163568,85.40363
1.1208729,81.771774
0.97804946,82.53314
1.0514994,75.18832
1.0110902,76.485466
0.9802442,74.52183
0.9000187,73.01189
0.8756241,70.54676
0.87797,66.46533
0.8550838,65.02651
0.88359356,61.32408
0.9272477,63.35257
0.8699283,59.772144
0.8880199,60.13549
0.9541635,58.584236
0.92262536,52.20829
0.9383598,50.85128
0.89477503,48.72441
0.7731221,52.69001
0.7880091,46.048523
0.8644353,44.818184
0.8108328,45.09885
0.78917354,45.4033
0.7916599,44.752125
0.83913815,47.50447
0.68997025,46.415848
0.6809051,46.53164
0.61630535,44.775726
0.47673985,48.46108
0.59265214,46.133865
0.5373285,51.69384
0.58066666,48.018436
0.5978701,54.25176
0.5725425,55.173267
0.6786202,61.332844
0.5017049,58.287945
0.6408916,62.362213
0.7420812,66.89134
0.83504707,70.854485
0.93394727,72.72125
0.9048276,75.113045
0.9985963,79.06428
1.0718162,83.56097
1.2669889,88.147736
1.343169,92.074234
1.3330642,95.66505
1.3859156,98.72463
1.4654772,105.84902
1.6008552,110.11484
1.7002481,110.73563
1.7143663,115.708336
1.7631828,117.62633
1.8831068,121.35269
1.8944128,127.452385
1.9226409,127.977844
1.9512513,130.15558
1.9686495,133.68547
1.9516232,138.30351
1.9441162,136.84027
1.9865792,140.7071
1.9262725,140.01393
2.0058308,142.27443
1.8819085,143.31013
1.9289423,142.67717
1.9554046,143.10242
1.9381768,144.06018
1.8447855,143.76881
1.8475987,143.2017
1.7986982,144.61615
1.8237592,141.81396
1.7913569,142.25565
1.7242717,138.5695
1.7063015,141.68254
1.7457976,137.45886
1.7112612,134.58347
1.6803825,134.39067
1.6617268,128.73724
1.5503484,133.65579
1.5288736,131.05557
1.4851844,125.40757
1.6786035,124.39973
1.5535365,121.467804
1.5326868,119.36327
1.3694886,119.99855
1.4774014,115.32479
1.3499093,111.51943
1.4912437,111.209755
1.4489661,108.992966
1.4107897,107.22162
1.4155498,105.23455
1.4042078,103.493515
1.4343724,100.0492
1.358093,96.20384
1.3017478,96.66406
1.2973586,93.18168
1.316526,93.68978
1.1954763,89.14854
1.0486598,91.41919
1.1279112,82.18886
1.0953883,85.55088
1.0078926,80.90068
0.9784992,80.38218
0.9867687,75.4427
0.8934771,75.24537
0.9310472,75.46097
0.85692865,72.61705
0.897864,69.464645
0.69454575,69.06588
0.8108832,61.642998
0.8275057,65.14162
0.7894234,58.52897
0.8069836,55.1453
0.76332825,54.504765
0.7979455,56.29194
0.7162063,52.738117
0.84942275,54.58462
0.76677054,51.28562
0.85226274,46.571026
0.7481465,46.720078
0.76646286,45.53895
0.5852711,46.19466
0.5521586,45.103745
0.6367189,45.36266
0.50914466,45.178658
0.46782783,44.94234
0.49283525,46.250145
0.38466722,48.04671
0.36188748,49.55912
0.3335617,52.43659
0.34374404,50.079453
0.37112826,52.014473
0.441272,53.84067
0.408106,56.456272
0.33716446,56.792713
0.41387734,60.732803
0.4970958,66.203094
0.50924706,66.67388
0.62414986,70.849846
0.73063934,71.58296
0.9324363,78.957596
0.92739666,81.15115
0.9630194,85.93948
0.9852257,88.40863
1.1834131,94.35919
1.1959479,99.44628
1.3048439,102.015854
1.2799326,105.164635
1.349236,108.74496
1.3627502,111.83094
1.5565577,115.61375
1.5220939,118.52945
1.5751225,122.555916
1.5658565,126.38624
1.6136302,131.19046
1.6507245,133.65904
1.5861474,135.8405
1.7081032,138.20914
1.7215228,138.58511
1.7422571,141.03806
1.5561304,139.24182
1.6320721,140.58577
1.6883241,144.71355
1.5887141,141.80313
1.5612873,147.99492
1.6827801,144.14029
1.5444887,143.41234
1.6397219,141.96565
1.5328519,144.77855
1.4607052,140.9526
1.5049821,139.35226
1.4952968,139.8881
1.4149212,139.09056
1.3846809,138.76454
1.3233036,135.74525
1.231882,132.4514
1.3409033,130.23555
1.3977194,132.59978
1.3498788,129.22713
1.180211,126.555855
1.1554749,123.0874
1.2362694,124.18339
1.1618747,116.15382
1.1581054,117.78219
1.1443003,112.47024
1.0909371,114.19907
1.1261878,110.601555
1.1317072,110.90422
1.0736986,106.056656
1.1578164,107.93235
1.0408682,102.40475
1.0298207,97.848854
1.0538398,96.8818
1.0287212,96.32135
0.9079437,91.375046
0.93284106,91.613495
0.92584443,90.93171
0.7830219,86.25984
0.77309555,85.68746
0.7206922,79.99076
0.73325044,79.2173
0.6365042,80.56794
0.56378996,74.859886
0.50347173,76.599525
0.53457946,71.89561
0.54910076,68.646355
0.5591462,66.848915
0.46088827,66.287445
0.49065363,62.572887
0.45660028,63.67098
0.36068302,59.872726
0.45195577,54.711853
0.44535547,53.497383
0.56844324,51.756393
0.52775687,53.15679
0.45567697,51.394695
0.29787397,51.31013
0.40239963,46.156956
0.4007877,47.410633
0.3813237,47.518974
0.1640641,45.62276
0.2582728,45.464874
0.15098473,47.672718
0.18818925,46.677677
0.2548997,45.7954
0.09933394,46.027603
0.13068038,45.6041
0.034243993,46.571796
0.03687066,47.67287
-0.05924884,49.53532
-0.024997087,46.892677
0.1624502,51.166073
0.047071077,55.667564
0.05235792,60.573425
0.086352244,60.52031
0.25423586,65.394066
0.2662032,68.95157
0.30997005,73.30779
0.38250965,74.658104
0.5500424,81.735916
0.6428785,84.27114
0.6248836,87.84115
0.72533566,92.55983
0.75459355,94.221436
0.8990864,97.705765
0.9038981,102.38107
1.0325255,106.240776
1.1060594,109.2395
1.2216879,114.55679
1.0878357,115.8548
1.237673,118.011505
1.2656103,124.30987
1.4312286,123.09411
1.3155526,129.35075
1.3722323,136.72913
1.3317186,131.83101
1.4457359,136.56717
1.4265369,141.60146
1.3228586,142.18964
1.5068537,141.6717
1.2954608,140.23509
1.4976577,144.43073
1.4240903,143.8062
1.4361197,144.96332
1.3710166,142.29343
1.3779336,142.80994
1.2644037,142.97252
1.3344074,145.48262
1.2985401,140.12202
1.1563611,141.20425
1.249039,140.2549
1.1838354,136.16254
1.1499565,135.58623
1.0737933,136.10944
1.0405345,133.83046
1.0505816,132.82993
0.996505,130.12068
0.97098196,125.8405
0.95754004,127.86865
0.9051065,122.027054
0.9394665,119.67827
0.9539143,120.302284
0.933259,114.696724
0.9803142,113.850746
0.8481868,115.43356
0.9038908,109.89025
0.82355255,105.867165
0.8832592,104.321495
0.8245721,100.50513
0.91394776,100.06101
0.7883578,100.16835
0.8006422,101.08003
0.8272786,91.8095
0.8031451,94.22484
0.66837746,92.26846
0.7566216,88.91124
0.54749966,87.07295
0.640799,82.82008
0.4248785,82.74771
0.6290376,78.5661
0.44932336,77.834145
0.40581,77.02199
0.3425598,70.74933
0.34415868,72.38322
0.39740935,70.74261
0.3550984,61.677452
0.3790879,68.885254
0.32709736,64.97975
0.271219,60.825092
0.30457088,58.472786
0.3995799,59.288914
0.29755008,54.508625
0.37498415,56.445866
0.28527403,50.574146
0.38534817,54.031555
0.28269553,49.504402
0.35321942,49.001972
0.25710297,46.716763
0.19397156,46.995796
0.17385969,45.033207
0.1967182,44.378983
0.12033962,45.751144
0.0968631,46.337265
0.029551264,45.93311
0.031020744,45.996452
-0.044107784,46.19631
-0.042468823,48.985676
0.006204007,50.03522
-0.05197195,52.336292
0.005713983,54.75487
0.02249818,57.663692
0.07410362,54.653557
0.14257841,58.79606
0.0916556,62.823593
0.22300586,67.42021
0.20726638,71.26529
0.34604958,73.35675
0.44924158,79.75536
0.38169187,85.288345
0.45602298,86.47837
0.6006424,88.710045
0.76268333,91.70738
0.9183959,95.085075
0.93108755,100.193405
0.98187596,106.99877
1.113235,109.143
1.1662651,111.47815
1.2055124,116.89685
1.2964526,120.59616
1.2688956,120.785576
1.309459,122.497475
1.3431876,129.46242
1.3769671,133.85432
1.4493951,135.31644
1.3773031,136.53743
1.4203411,134.90857
1.3754382,138.33888
1.4402089,139.64064
1.4316934,144.96211
1.3486005,140.89447
1.4169049,145.35243
1.448546,141.18472
1.4204006,143.21898
1.4781879,143.55028
1.5023595,145.02731
1.40044,142.40623
1.4135681,140.06078
1.4155638,142.58821
1.297132,139.65111
1.323893,137.80301
1.3988386,135.13
1.2301273,134.94048
1.1320395,135.2355
1.2087264,131.87727
1.1070412,133.52646
1.227174,128.37048
1.1106005,126.65378
1.1703712,125.71588
1.1409316,124.16091
1.1158669,117.9325
1.185959,120.0443
1.1425883,113.391106
1.0559928,117.36629
1.1368016,112.89292
1.26256,109.98931
0.9826881,106.79835
1.0350279,104.51469
1.1533471,104.76004
0.9634473,102.635544
1.123134,96.68949
0.96492714,96.630005
0.89369375,94.338356
0.86776555,89.69263
0.92800385,93.7585
0.9733798,91.47539
0.84882206,87.26481
0.7247965,83.52691
0.7484517,81.66944
0.823061,76.40494
0.7197377,75.8677
0.7104579,74.73144
0.6597012,71.30156
0.7151199,74.508865
0.5656646,68.87949
0.664753,65.99703
0.5766451,63.756065
0.58987916,63.204044
0.6160599,61.08691
0.61553806,59.5815
0.6743846,58.410553
0.48369023,52.91864
0.5498845,51.5597
0.54584706,47.461792
0.5963813,50.806557
0.57289284,47.563152
0.4701957,47.0714
0.52851284,45.560665
0.49897593,48.671673
0.49074578,47.22389
0.54222065,43.705696
0.44419554,47.259033
0.52241194,46.084583
0.39102876,48.081383
0.3091874,46.48256
0.27130157,45.626286
0.2422463,49.598263
0.21930109,48.19627
0.28290686,50.95795
0.30398956,50.986526
0.28733358,58.132767
0.3003253,57.43174
0.37189105,60.817814
0.39652953,63.48481
0.53079313,65.78062
0.54197496,70.41113
0.53204876,74.72645
0.7590505,80.48898
0.8730593,80.866516
0.93924344,82.22567
1.0948166,90.34905
1.0719463,95.82594
1.1822184,97.841965
1.1741507,100.69385
1.3505797,102.79947
1.3828471,110.60843
1.5374248,113.127266
1.629429,114.87284
1.7222996,116.01496
1.5775694,123.577675
1.6822659,127.28805
1.8318113,133.79874
1.6598414,130.58144
1.7298212,131.32289
1.7429051,134.35823
1.7554563,137.00754
1.8034271,141.97716
1.7223188,140.00479
1.8680251,141.29308
1.7843254,144.1943
1.8842623,143.33495
1.7776673,143.04205
1.8317201,143.31886
1.791058,142.29932
1.7527654,144.52812
1.8210404,144.04333
1.7657005,142.88657
1.6764606,138.76483
1.626251,142.72499
1.5860037,141.07521
1.6111854,137.32036
1.546863,131.58347
1.534704,134.99663
1.5639471,133.4058
1.4718052,127.78104
1.571994,130.12411
1.5492893,124.13758
1.4415482,124.96264
1.491126,124.67965
1.4847523,119.32257
1.5900182,117.04546
1.468056,114.49207
1.3731945,114.23962
1.3630013,107.892784
1.3830749,106.59067
1.3780621,106.62526
1.3270004,106.63086
1.4495767,102.692474
1.2930335,101.32265
1.2609148,100.39396
1.3067161,95.57251
1.2909042,93.55358
1.2166861,94.497665
1.2159874,87.31645
1.0900692,88.93834
1.185638,86.99078
1.0744486,81.78142
1.0380186,82.18218
0.973037,79.60863
0.9076772,75.16784
0.9314097,75.363945
0.97075534,73.671555
0.9086755,68.73345
0.93958265,70.594025
0.9691794,66.052795
0.89812565,65.195206
0.8618827,60.5011
0.955666,57.520966
0.95779335,58.042442
0.9735762,56.327606
0.7433696,57.54612
0.8307323,52.3367
0.94030535,53.395744
1.0254784,48.00301
0.8309969,47.824642
0.85526085,45.08713
0.7364705,46.554115
0.7985202,47.647064
0.7370108,47.876003
0.7369251,44.863846
0.7101331,44.462326
0.63673216,46.469807
0.67583364,44.642887
0.65202636,45.9418
0.50029975,47.698853
0.52772534,46.944588
0.45502177,49.765743
0.56022745,49.034847
0.5985369,55.235954
0.5725117,57.802666
0.63161385,59.735035
0.6848472,62.34805
0.7114261,64.574905
0.8609288,68.28281
0.93730503,74.658554
0.9560222,74.42002
1.0477464,81.14566
1.1833146,85.33271
1.1566465,84.87979
1.2921063,92.409904
1.3377085,94.86896
1.3463528,96.30008
1.5136355,103.191536
1.6025348,107.8365
1.583582,109.57119
1.6661537,111.958336
1.6944563,116.5174
1.8734894,122.0494
1.8340297,124.620155
1.8264849,124.300415
1.9055147,133.01205
1.9660152,131.59097
1.8712648,137.1024
1.9301372,139.35477
2.0449314,135.71156
1.979449,139.91878
2.0562403,141.75223
1.9407219,142.63387
1.9873894,143.06404
1.9425967,145.66255
1.8965391,144.46771
1.854324,143.9714
1.9465084,145.59421
1.9747669,141.9269
1.943712,141.04866
1.8367453,143.04654
1.7843773,138.39407
1.8142132,139.85057
1.7571099,142.08362
1.6745842,136.28513
1.8071109,135.39238
1.6144639,135.20457
1.6284379,130.77766
1.6195078,130.60892
1.6375703,125.876305
1.567614,125.061
1.5137001,122.126976
1.46296,118.9002
1.5430368,118.242485
1.5813552,119.830414
1.4310503,115.0951
1.4533182,113.580956
1.4120289,109.83555
1.4404255,108.75901
1.4638648,106.470566
1.4738803,106.17092
1.3474628,101.83914
1.4315171,98.42828
1.3747401,95.28116
1.2404306,93.3115
1.2366725,94.03415
1.2617605,92.09175
1.2243512,90.09781
1.1054565,85.01922
1.1871923,85.438225
0.8769441,80.704384
1.03138,81.12225
1.0520895,79.87957
0.8880241,77.41446
0.8902796,77.44069
0.9011017,71.96873
0.79610777,66.81364
0.7979787,66.9639
0.8197894,63.06059
0.68031466,61.86425
0.83634096,62.1208
0.9110216,59.00712
0.746099,59.031715
0.75114626,56.693478
0.7570416,50.730133
0.8505114,52.385876
0.89359254,51.388077
0.8410455,46.503605
0.7592285,50.892178
0.6234179,45.445534
0.77344364,44.786846
0.6433656,44.20662
0.76342976,42.607685
0.5971671,45.119015
0.59887373,44.775196
0.47440568,46.472717
0.44489187,46.543293
0.5109079,50.070908
0.5023648,49.678833
0.39162803,51.352825
0.4637585,51.920135
0.39540008,54.902714
0.45427528,57.281124
0.48820797,55.608994
0.42859563,61.15111
0.5115516,61.938572
0.5900111,66.05704
0.63545126,69.588745
0.726745,73.896935
0.7005209,76.31202
0.896294,79.31949
0.90930957,85.149055
1.0387803,87.03548
1.0409291,91.91582
1.1195285,95.44551
1.2817581,102.15699
1.4025118,104.01022
1.360782,109.052315
1.4945908,113.527855
1.5099796,114.93366
1.5877432,121.0929
1.6114082,121.87392
1.5884776,125.99195
1.5867944,129.18929
1.6744143,130.74185
1.6969672,131.02948
1.7580849,132.63326
1.7308247,137.5068
1.7144432,138.41666
1.6178486,141.23828
1.7803112,141.88312
1.7091073,142.82608
1.6700246,146.47366
1.6853923,146.789
1.6141077,141.7826
1.625299,145.48058
1.5837207,142.80101
1.578276,143.55046
1.5740596,141.50798
1.5836941,141.30132
1.5625836,140.3047
1.4670391,136.52675
1.439678,139.18135
1.3308362,135.43527
1.3685006,133.76685
1.4235566,132.89098
1.3183115,131.83337
1.1550623,128.16768
1.364444,126.414215
1.2530756,124.33485
1.1557283,121.51036
1.1881967,121.28246
1.1164421,118.19101
1.150396,115.72413
1.1932007,114.34783
1.176095,113.451546
1.1474574,105.090706
1.1380376,105.58823
1.1607379,106.04538
1.0240834,102.569756
1.0527815,103.194664
1.0254208,95.618576
0.9917859,94.63297
1.0040017,92.316124
0.9522252,92.22383
0.89528906,89.29039
0.8998808,87.41878
0.78202885,84.57079
0.834837,82.31621
0.63009185,80.97838
0.61707026,79.50404
0.7018219,81.12141
0.55838984,76.27747
0.67250067,73.90276
0.62052757,75.258804
0.5324349,68.71664
0.5026278,64.18071
0.46375364,64.912674
0.45341957,62.2759
0.46131152,60.670624
0.48080897,59.67549
0.47837648,58.38733
0.5493486,54.087696
0.5427472,50.597477
0.36494932,53.707756
0.43575662,49.870655
0.42910272,51.21154
0.36167026,48.33529
0.4203657,44.935352
0.3087389,46.66905
0.4470906,46.089333
0.21195091,46.158707
0.27595,47.702175
0.20719376,43.276745
0.17518358,46.020924
0.120736144,45.080883
0.080808826,45.719307
0.14406088,48.731148
0.02349719,48.619255
0.110702835,48.906273
0.018751951,54.069332
0.041887943,53.29161
0.09847039,54.184372
0.114435464,62.685165
0.14658636,63.252155
0.18638459,67.57884
0.29734647,72.19383
0.35530022,75.16089
0.44448468,75.81735
0.59598076,83.641464
0.6515202,83.56824
0.66211784,87.24423
0.8052978,91.91618
0.8905549,97.477516
0.8984791,100.23554
0.9780042,101.745415
1.090843,110.46021
1.273417,111.11179
1.2305987,112.40481
1.1757478,119.97935
1.2505898,121.78207
1.2597541,126.09479
1.382197,129.86234
1.2786692,129.42624
1.4591337,135.34753
1.3917681,136.5495
1.381689,137.22408
1.4536259,141.6486
1.3721942,140.43831
1.4364766,139.9915
1.3522409,143.99625
1.419111,146.29982
1.3855437,147.29408
1.4190348,141.9266
1.3325295,145.93898
1.3964006,142.83226
1.1926696,144.33093
1.2438412,140.18619
1.0955106,140.75043
1.1857733,142.78632
1.2294719,137.52838
1.25318,138.84984
1.0850316,136.93869
1.1464964,135.04967
0.9656518,131.91025
1.0512233,132.22603
0.96169645,127.46784
0.99203235,126.02551
1.0408592,123.9548
0.99520844,124.238495
0.90882385,120.862755
0.9197235,119.528656
0.7626923,114.38108
0.9168939,112.64757
0.85457927,111.78086
0.8646666,109.588005
0.9019381,104.98082
0.9305478,106.420006
0.8298227,105.0688
0.83033323,103.73044
0.8215349,100.08043
0.7146545,93.41332
0.7344446,96.8936
0.6848582,94.011246
0.67961997,87.006065
0.58587795,89.303116
0.61793685,86.70613
0.54512477,85.5298
0.5908616,84.48403
0.4966889,76.89552
0.44759834,76.090454
0.48745722,74.648415
0.38492915,71.02164
0.3263466,73.97486
0.30607048,68.07604
0.3581719,67.18366
0.3819185,62.691177
0.40296867,62.260887
0.42569798,58.85438
0.3501085,57.763546
0.42246953,54.444668
0.2980193,55.663654
0.33186832,53.275757
0.39941156,49.442883
0.24029684,49.684525
0.32947236,47.527943
0.29665762,49.99137
0.24754733,46.926834
0.19036931,44.592293
0.22714345,47.43335
0.094153576,43.41244
0.15903008,46.61098
0.041608628,46.11554
0.102902524,45.329876
0.022025207,45.913044
0.05693597,47.659744
-0.062031027,47.34512
-0.114775896,47.880104
0.038755313,52.436996
-0.04688822,55.315025
0.04029898,56.53825
0.01905907,64.49224
0.16084659,60.592075
0.18105648,66.43739
0.3621965,67.402885
0.28877467,72.84472
0.41513574,76.19505
0.45908225,79.08818
0.52336466,82.84857
0.7045556,85.87064
0.7053364,92.43965
0.79900265,94.722084
0.83055943,101.30654
1.0237428,101.49482
1.0446252,107.38778
1.1179007,112.56965
1.212026,114.086044
1.0775677,118.67855
1.216163,121.37733
1.2187784,126.15018
1.3459424,129.15588
1.3734599,127.36278
1.3521848,129.15102
1.3147656,133.52193
1.3932344,133.44446
1.4357727,138.55318
1.3946335,142.86522
1.5051498,144.22527
1.5122898,142.38551
1.4233631,140.68506
1.353867,142.88606
1.4660547,145.66357
1.47476,141.99103
1.5083292,146.35596
1.3255352,142.94089
1.4127091,143.15207
1.3372847,138.09386
1.2060659,140.12022
1.3216534,138.3203
1.3608385,140.19551
1.2877446,135.69826
1.1336516,137.82758
1.2156848,134.34589
1.2057664,132.34969
1.1583933,129.44633
1.1766326,124.40268
1.0790013,126.93532
1.027724,122.30201
1.1182064,119.671776
1.1589521,121.0018
1.1802926,115.41965
1.0641071,115.32505
1.0625627,110.703285
1.105264,113.948044
1.0365084,108.898796
1.0950863,107.798134
1.0235837,102.89669
1.0514452,102.4655
0.9661489,98.74918
0.99874544,95.98892
1.0148395,97.14451
0.89558464,94.08817
0.8591746,92.465576
0.8943602,90.11287
0.7427368,85.56264
0.82343465,82.32414
0.76988995,83.489944
0.8457722,81.28581
0.65272206,76.83627
0.5860235,75.09595
0.6085746,76.06458
0.5415021,74.15436
0.59859085,69.30014
0.5964449,69.47347
0.6007969,68.36974
0.57593775,63.517994
0.51445687,58.07936
0.5800812,61.901546
0.6569739,57.35174
0.6426604,55.535316
0.5744822,51.52232
0.6172117,50.419308
0.54379666,48.573277
0.70142,47.9512
0.57923454,47.847107
0.6272386,47.4047
0.6038827,46.285507
0.45840615,44.48887
0.3916218,45.005592
0.44881994,44.150883
0.4716285,46.330788
0.23096982,48.840828
0.1859056,46.31716
0.31225342,46.386017
0.3780601,49.923897
0.30760455,49.81902
0.26621345,52.20667
0.29116285,54.069668
0.32646537,54.633434
0.35193235,58.671516
0.34932467,60.00706
0.5305285,61.098663
0.43508413,71.29527
0.49244145,71.256485
0.7542298,75.168564
0.7646313,75.265045
0.70664155,78.999084
0.8172064,83.76304
0.9880977,85.0214
1.0936545,89.599884
1.1365597,96.82006
1.2305255,97.944664
1.3359205,104.603714
1.2954694,104.0782
1.5301214,110.65077
1.4342363,111.91764
1.5451845,121.82251
1.5268084,124.15652
1.6838921,123.48451
1.7435466,128.72227
1.7060896,131.11343
1.7160878,132.66148
1.7901956,136.01207
1.7622019,137.03716
1.7960867,137.60785
1.7794656,140.83727
1.8835224,143.65277
1.7512522,143.25981
1.8314213,146.30885
