ppg,abp
1.1260567,101.31779
1.1841813,106.67252
1.1211346,106.477234
1.2119586,113.19304
1.348027,117.307434
1.4093878,119.42477
1.582723,122.12736
1.5045148,124.79045
1.5411139,128.00168
1.6800699,127.67495
1.5643308,132.0321
1.6905583,131.90257
1.7699367,136.11172
1.7681817,133.77641
1.7209837,138.68118
1.6675886,139.22305
1.7158353,138.25876
1.7012534,143.91415
1.8113039,141.1411
1.6890844,142.55138
1.6828825,142.4086
1.7772709,142.61806
1.6582004,144.16759
1.5858165,139.22054
1.7399747,139.74335
1.6788212,140.52545
1.5979755,144.8507
1.4399359,137.27838
1.507684,134.19376
1.4921281,134.99872
1.3571455,135.3311
1.5742983,130.71526
1.4516649,129.99632
1.3758848,129.77422
1.3218203,128.01787
1.3306806,125.70202
1.1989472,121.680916
1.3383566,119.54343
1.3501701,119.68209
1.3881054,117.480194
1.448618,115.241776
1.3259082,116.20414
1.3398508,114.86325
1.3039738,114.78517
1.2871515,106.56166
1.3337603,108.077415
1.2751993,111.42527
1.243649,103.12122
1.2106264,104.049355
1.2533882,101.233376
1.1202852,99.76691
1.2087231,93.44328
1.1121037,96.15312
1.0104706,90.198105
1.1208454,93.871284
0.9171781,87.83358
1.0617994,85.926315
1.054237,89.24616
0.92781466,85.36907
0.894719,84.01026
0.8602544,83.58214
0.9155802,78.18388
0.8132079,79.98506
0.9023142,75.1618
0.8443462,72.21536
0.8172612,68.311485
0.7872759,73.60271
0.9059349,67.69992
0.899686,68.323944
0.8635819,65.7196
0.86853427,64.84924
0.8534647,66.931206
0.66781855,64.81914
0.7087549,64.00623
0.77657294,61.345005
0.7762137,58.13867
0.70108044,57.95655
0.70163167,62.70031
0.63123226,58.566914
0.6698835,61.690224
0.5843032,58.91013
0.45851007,59.154015
0.5246736,65.756165
0.47897673,68.372116
0.5275999,69.843895
0.44165608,70.71979
0.5331636,67.995346
0.5714369,70.129654
0.5663398,72.49065
0.75249314,71.31986
0.65694726,81.93993
0.7629828,79.445206
0.81413376,86.13606
0.913303,86.75777
1.0923444,89.713234
1.1895071,93.84011
1.1740154,96.550766
1.3469024,99.64023
1.513231,107.07181
1.3604375,107.033966
1.552153,110.8956
1.5992377,112.96345
1.68294,119.35447
1.6823163,118.530525
1.8486128,121.508484
1.8420674,128.08382
1.8007168,128.18549
1.9245071,129.66689
1.9719052,134.30928
1.9091374,135.25642
1.8992028,138.06743
1.9552611,135.36717
1.9120095,138.88776
1.9423213,141.08443
1.8504777,138.44223
1.8805068,141.20828
1.9203787,144.10005
1.969797,139.83916
1.8240154,143.69319
1.8895134,138.91096
1.9555804,140.49422
1.9538473,145.25638
1.9346575,136.21466
1.7683783,138.28232
1.9339565,140.49054
1.7665671,136.88762
1.7278666,136.73131
1.718919,134.04196
1.6396668,134.28136
1.6743238,130.30544
1.548787,130.96774
1.4845515,129.38058
1.5454563,125.97116
1.576616,125.88034
1.5571023,124.01921
1.5108758,123.80184
1.4942355,118.2596
1.5178872,116.85166
1.4978888,113.016
1.4608525,117.05912
1.4332255,111.98668
1.4355586,110.9492
1.4463412,108.42001
1.3833829,108.35017
1.3632648,107.17671
1.3974694,106.640305
1.3895731,101.626335
1.2612165,101.80921
1.2918024,98.125275
1.2238117,96.60121
1.164882,97.903015
1.1449273,95.82101
1.0993127,91.87857
1.0566078,87.91819
0.98906523,87.27003
1.0148818,86.24835
0.95230657,82.78434
0.94278854,80.81551
0.9854268,80.38067
0.99830145,79.770485
0.84388745,76.93368
0.9160563,69.78746
0.9235018,70.65289
0.8553721,70.75863
0.90827596,70.083
0.8454586,68.51448
0.85019994,69.61522
0.94997835,64.27542
0.85144585,67.84075
0.91325194,64.42282
0.7860526,64.80137
0.78056216,62.58806
0.7506602,61.524452
0.68164486,60.619827
0.6699156,66.82736
0.5812648,58.541294
0.6516332,60.904987
0.5751119,61.391205
0.5191003,67.852425
0.5043546,65.15851
0.5171518,64.484665
0.46618065,68.50149
0.47148463,67.52725
0.51034826,65.41085
0.55899507,69.96214
0.50785255,72.66409
0.5245091,74.99415
0.6058564,83.18863
0.68049496,79.99122
0.766551,79.47184
0.8347867,89.02508
0.91370356,91.58167
1.0504237,91.34967
1.0334786,99.969765
1.275403,100.97484
1.2106763,103.41776
1.3311386,103.70331
1.3574487,111.40673
1.4385374,112.29071
1.5898061,114.892365
1.6142929,121.31216
1.6516653,122.24324
1.6437225,122.60719
1.6930861,125.00719
1.8872882,129.6152
1.8508046,131.80835
1.8590404,132.4202
1.8071204,134.04204
1.7422658,137.96251
1.78001,136.20314
1.8314947,138.81554
1.9120977,140.42079
1.8371149,143.69525
1.7490196,143.98187
1.7206141,140.05664
1.7399172,145.31787
1.7641838,142.76913
1.6153312,141.74612
1.7088814,144.64218
1.7445978,144.3615
1.5485666,145.4372
1.5720829,136.81796
1.4988538,136.84679
1.589406,136.07407
1.5454537,132.92636
1.5313116,134.77748
1.3565885,133.23738
1.3695859,134.55287
1.3723369,131.02812
1.2742367,131.35648
1.3284829,123.06243
1.3521034,123.14276
1.2360786,121.25184
1.4122454,122.16809
1.3375461,116.27565
1.2892976,113.39034
1.3076966,117.6838
1.3059529,110.650444
1.1731013,108.06782
1.1743144,104.691185
1.1685758,104.52478
1.1638325,103.769646
1.0790752,103.72466
1.0138769,102.573494
1.0743792,102.40865
1.0345316,101.91591
0.97041565,99.58739
0.8164576,95.98929
0.85409796,94.8965
0.81448907,91.972626
0.86862373,87.92594
0.780535,90.331184
0.80478376,89.8926
0.66822827,83.57692
0.62358105,84.058945
0.66948545,81.186165
0.5923946,84.485825
0.61260897,76.161995
0.5808429,77.124306
0.64209074,78.39868
0.6109433,71.96327
0.57888186,77.72459
0.59556973,71.28316
0.5925592,67.041084
0.5900725,65.78301
0.5244302,66.03151
0.47655132,63.929035
0.4969969,63.777596
0.448796,65.83774
0.41745317,59.61228
0.43798488,60.788624
0.3668119,60.802334
0.28376257,61.37878
0.32247308,58.938656
0.1967024,62.52607
0.21667497,62.04571
0.21245304,64.57292
0.2147968,62.025826
0.16671535,62.585987
0.09028575,63.787323
0.1600498,70.132416
0.13837771,73.996994
0.17638858,69.289604
0.2682799,72.25592
0.25936246,77.70872
0.27023098,81.981
0.3983114,83.5505
0.49085778,90.696884
0.54671973,86.038284
0.6454229,94.989655
0.6546112,95.73009
0.79824054,99.91428
0.8837814,105.31195
0.9874408,101.76876
0.98081356,109.72783
1.1359878,112.82238
1.1422193,115.17271
1.1997294,119.65462
1.2487953,121.906105
1.4128963,126.318306
1.3646659,125.96669
1.3396282,127.45792
1.5137523,128.39716
1.4589454,128.66838
1.5018948,132.2014
1.588643,137.74171
1.5238829,139.75572
1.5032197,138.81364
1.4899076,140.4029
1.4644219,140.64355
1.5357372,140.69872
1.4353197,143.91344
1.380099,139.47243
1.411598,141.12213
1.4000546,142.89821
1.3172548,143.58354
1.3743654,138.60582
1.2636818,139.69939
1.2338098,138.10587
1.2461112,134.75099
1.2139891,134.91208
1.1602924,138.07614
1.146503,135.20418
1.0587001,134.47168
1.1034802,132.47993
0.9771129,126.97925
1.0202774,128.72452
1.0074263,123.853836
1.0374618,124.49011
0.92836875,124.1395
1.0010625,123.65449
0.86995786,119.43363
1.0681494,119.075584
0.9395892,115.15
0.89000636,114.056496
0.9096436,112.04921
1.0064602,109.21279
0.90228033,112.639175
0.87159634,108.380424
0.7931979,102.884865
0.859567,99.99979
0.74321353,95.97261
0.7136957,97.66001
0.80710846,101.6035
0.5699937,96.099754
0.57206583,95.01445
0.6502894,93.41282
0.455982,87.66979
0.46347868,89.31255
0.5486006,87.26559
0.42131367,87.20068
0.49691534,84.217964
0.3655743,80.138565
0.40311566,78.77908
0.3040034,79.07904
0.36435023,80.12819
0.26353997,71.709404
0.39775038,71.81152
0.29380462,73.36897
0.32117754,66.75205
0.3616395,69.50745
0.3203316,67.65222
0.25252286,64.94235
0.20136149,65.16609
0.397817,62.29475
0.25314832,61.216553
0.2663344,64.24685
0.21463521,61.567566
0.16577405,57.995144
0.16690342,61.769173
-0.0032304176,61.820057
0.0758443,56.966564
0.020236917,60.37764
0.04748692,62.677135
-0.05845565,64.08815
-0.08460098,67.23035
-0.030398969,64.17114
-0.105923146,67.20125
-0.03324944,67.70806
0.047637656,71.16605
-0.045406923,77.49956
0.10526299,80.15515
0.049613025,79.730316
0.15347615,81.403465
0.27205124,80.94085
0.34037843,90.02426
0.42867845,90.258316
0.44852504,92.52341
0.5295868,96.59066
0.674935,102.206184
0.69897276,107.69326
0.789156,104.762856
0.904054,109.735504
0.97959274,115.32343
1.1663911,114.47448
1.0487002,122.764114
1.2408198,119.93125
1.1438464,126.969185
1.2455949,127.583305
1.3087326,131.10986
1.3146209,134.0861
1.3788836,131.1692
1.3863021,135.83034
1.4637091,136.78453
1.3458775,139.81474
1.3592312,138.10918
1.3604687,139.87862
1.3509855,137.86877
1.3810985,138.99449
1.4826076,144.19473
1.4050751,140.61357
1.3498045,142.9639
1.2566284,142.27495
1.3676956,139.8452
1.2434169,141.06897
1.2490187,136.5047
1.1987488,139.0827
1.1649039,139.20573
1.183728,139.63376
1.1939135,136.85756
1.1199647,133.62622
1.2041154,128.50415
1.0621035,130.22227
1.1351355,125.4346
1.0626597,128.4659
1.0108713,125.04003
0.9786604,125.0376
0.98066,123.12934
0.95805496,123.49594
0.98877054,114.13221
0.97155416,114.746605
1.0747741,117.61617
0.9322178,114.02577
0.94142556,108.32958
1.0072663,112.52994
0.902189,106.70075
0.92133975,104.72439
0.91115505,109.58685
0.7801116,102.65269
0.76875836,96.89092
0.82874256,99.107086
0.8282905,98.86165
0.74792635,94.860954
0.70959985,94.3862
0.6528126,95.930466
0.6757724,86.89885
0.61115396,89.01548
0.49409702,87.55203
0.6100556,85.19151
0.40884504,81.24463
0.49781018,79.96084
0.49293998,76.9083
0.34632742,77.79958
0.43137056,74.26812
0.46098435,73.44605
0.4153181,75.23372
0.4476646,71.77687
0.53005373,66.788345
0.53823847,66.75288
0.4897513,64.68154
0.49394524,62.445583
0.53103775,68.05264
0.48433897,63.243546
0.4855795,59.89863
0.32913455,63.475044
0.37578508,61.84118
0.28692812,62.773155
0.26352665,61.735126
0.25089568,59.998825
0.20624857,62.210484
0.1740619,62.550777
0.09532845,63.779797
0.090447836,64.07792
0.14692098,63.26793
0.16540247,66.577545
0.20422263,68.736534
0.23280445,71.770775
0.15684341,71.64532
0.25437924,71.7433
0.32823774,76.720955
0.33627206,81.55943
0.48102537,82.68372
0.4439634,87.57954
0.63601375,93.6278
0.7324588,87.86693
0.9204757,94.136185
0.90494376,97.33071
1.0030107,101.892944
1.012031,108.17462
1.1812316,105.6077
1.1222926,112.99328
1.379761,107.889
1.4034104,115.453445
1.4711392,121.02018
1.4673792,123.90496
1.6306729,126.26582
1.5775822,128.02147
1.6568936,133.05685
1.5994751,130.48624
1.6690891,135.22275
1.6608664,139.22574
1.6781567,136.00697
1.6380239,137.9051
1.6624378,144.60759
1.7179159,142.93416
1.6968596,144.7865
1.6695157,143.5837
1.7729472,142.88585
1.5961348,146.53629
1.7108594,142.33182
1.6101551,141.12843
1.5305295,141.13661
1.6392939,140.34064
1.5558832,141.56805
1.4571377,139.11742
1.5159572,138.38942
1.4604805,135.9334
1.4842288,138.01288
1.3675874,132.34268
1.4601598,126.579926
1.444489,131.23508
1.3396392,125.95148
1.381617,126.8163
1.2750562,126.10915
1.32486,121.69976
1.3578418,121.39239
1.3496414,119.27911
1.3297441,118.88053
1.3589684,116.83502
1.3321708,116.0049
1.2953345,113.038025
1.3168496,113.907906
1.3068882,109.14481
1.3131868,104.76216
1.2872088,105.60038
1.231312,105.20365
1.2136431,100.443924
1.1658331,102.43636
1.0392792,98.08918
1.1186537,98.91019
1.023973,95.71939
0.9645279,90.44677
1.0183384,89.32029
0.88139427,89.05399
0.90190655,85.11231
0.7704111,86.32504
0.792848,82.52158
0.8487072,83.55417
0.8707097,81.27454
0.8029897,80.81156
0.75495315,74.57347
0.81454825,77.99568
0.8394217,71.1747
0.7767606,72.48698
0.789507,69.54332
0.83943635,68.34819
0.92931694,69.462326
0.78727126,66.061806
0.8150534,64.280525
0.8944793,67.60663
0.72672635,62.43799
0.66103494,66.0064
0.81355923,60.42409
0.60405463,62.51469
0.74614376,60.64394
0.5781801,61.958572
0.5960521,62.968185
0.5586669,61.588436
0.51720864,60.522087
0.52992684,62.622715
0.4945198,64.25419
0.5049948,69.231346
0.4711492,67.55777
0.55560726,66.45079
0.44253334,69.03536
0.66564476,77.2005
0.6778467,76.26039
0.71409166,77.55867
0.8323851,81.90845
0.82962024,84.16241
0.9075601,89.65296
0.9741329,93.383446
1.1111553,94.39211
1.029226,100.47514
1.4105244,101.62006
1.358821,100.81703
1.3853489,108.41319
1.5387506,109.25679
1.6271197,110.482475
1.628524,118.77202
1.7283186,119.121216
1.9023893,122.985306
1.798293,122.01802
1.8546941,125.02092
1.8040954,128.45363
1.8101381,131.19789
1.9023162,135.38548
1.9320405,137.3474
1.8798441,139.06886
1.8913206,141.0492
1.823998,139.18085
2.0704541,142.53171
2.0127668,138.85617
1.9391227,144.72952
1.9541006,143.35233
2.093048,142.9438
1.980913,145.32861
1.9248275,140.11693
1.8319243,140.75099
1.8537396,140.19305
1.7745229,137.62175
1.6988683,134.71103
1.7629473,137.48112
1.756988,137.16052
1.7002153,138.20468
1.6985298,133.42805
1.7115731,132.14108
1.6120623,132.35469
1.5561439,126.72051
1.4771954,126.062904
1.5476928,129.44186
1.53029,122.40351
1.6117014,121.20619
1.5362256,120.31634
1.5619528,120.983696
1.3922789,111.641205
1.5196816,119.527885
1.5065418,113.336464
1.4709228,110.815704
1.5744605,111.07729
1.3814874,104.646286
1.3518915,105.07678
1.3686876,108.13895
1.3956186,103.50342
1.3619995,97.5455
1.3113295,95.39142
1.2888106,95.786804
1.1842115,97.06255
1.2058111,92.03847
1.1393665,93.86807
1.0943329,87.902115
0.9674862,87.56273
1.002244,83.35104
0.9914073,82.261536
0.9785746,84.06308
0.8678559,79.85588
0.94555527,77.61059
0.9894218,77.939865
0.9354341,72.46379
0.95415443,71.882835
0.8573571,71.65569
0.92608356,72.41668
0.87305456,68.117134
0.87860763,67.89076
1.0272635,67.33992
0.8899371,64.19025
0.8965349,64.43547
0.86138237,63.294655
0.8377739,63.09818
0.8221452,64.53172
0.6811766,65.223114
0.7472969,62.56924
0.69407797,57.795647
0.6896901,63.58273
0.633538,66.94276
0.5975035,62.71036
0.4705646,63.53768
0.43609333,64.62232
0.64477444,65.201256
0.5675496,67.01278
0.5523952,69.50213
0.48103222,73.45411
0.510597,72.63132
0.59526956,75.42627
0.6529298,77.86077
0.74093014,79.709114
0.87169975,85.066605
0.85146666,84.98756
0.9659706,93.87798
1.0511345,97.13376
1.0403608,93.74134
1.2094985,103.64999
1.3401133,105.02559
1.2894453,106.90479
1.4478424,111.3714
1.4722728,112.78937
1.5445538,115.40006
1.6459907,116.580284
1.711776,119.69874
1.8152394,124.14505
1.7180579,124.32568
1.7895232,132.02954
1.9075171,131.62096
1.7622544,134.4767
1.8513072,134.0417
1.7872988,138.51366
1.9493574,137.47865
1.8068334,141.3645
1.9894946,141.86937
1.7470708,140.90619
1.7409409,141.77863
1.8628556,140.34067
1.8090407,141.0676
1.8230278,141.02017
1.8063444,141.30579
1.7916383,141.46281
1.7654614,140.6137
1.6768793,138.79575
1.668115,139.03777
1.6566528,136.70602
1.5361838,137.5907
1.5476841,136.9985
1.4889895,134.28899
1.5544063,134.7853
1.495478,133.37231
1.4577413,133.67796
1.3118614,122.721565
1.4001198,122.630844
1.4737356,124.42357
1.420162,126.38242
1.3931195,117.5243
1.2723169,118.037224
1.2880168,121.66696
1.313951,115.17574
1.2281376,115.68711
1.2625666,110.01636
1.2804672,111.42548
1.2789037,108.501144
1.2819498,106.50513
1.1145971,107.92799
1.2479868,102.40263
1.0453182,99.489784
1.0541484,100.16089
1.0354662,95.76259
1.1372353,92.31324
1.0005093,92.36898
0.98170644,94.02954
0.89732206,90.2696
0.7385744,89.60629
0.7321193,86.82866
0.67808634,83.19955
0.7013955,85.87832
0.6623007,79.16785
0.6907536,81.22447
0.53053194,78.21097
0.6498925,74.54733
0.6376251,74.063614
0.8001223,75.25313
0.63242567,72.29239
0.64036214,70.22434
0.56649494,69.90865
0.5117518,70.49706
0.5500536,65.8611
0.51888263,67.4054
0.523522,69.75553
0.5699404,64.561
0.48477083,60.095356
0.55043215,61.861504
0.5010285,56.974697
0.32344,62.209145
0.25299403,59.49397
0.24389791,59.546032
0.33852044,59.32515
0.1880339,61.73067
0.18680705,66.89151
0.15949793,66.97979
0.22883561,69.11382
0.20059891,71.191574
0.19324525,71.16751
0.19912107,71.41365
0.2934014,71.8392
0.337843,78.22165
0.4028869,76.99443
0.44070873,79.68791
0.5377764,84.26178
0.60585624,89.61835
0.6711197,93.85669
0.7964016,94.357574
0.85819596,100.388016
0.89037,102.058136
0.95778507,104.42293
1.0911211,104.52962
1.111359,111.3467
1.2210618,116.460075
1.3288643,115.06827
1.4105675,124.1542
1.3215506,122.19749
1.3847016,127.00829
1.4119474,130.15611
1.4130236,129.98003
1.4938345,132.73207
1.4751337,136.52324
1.4711787,136.00871
1.4966908,137.48949
1.6113355,140.3813
1.4721586,141.46275
1.5415652,142.66177
1.4747099,146.43457
1.5426998,146.02878
1.465526,143.93468
1.5105098,141.59515
1.4620755,142.43727
1.3422247,140.60739
1.3106241,143.41016
1.230616,143.2819
1.2980736,139.18855
1.2797896,135.18721
1.33485,135.49268
1.1841273,137.11752
1.226847,135.45831
1.1512766,131.21184
1.1082239,132.64383
1.1574764,134.38097
1.0932885,126.70911
1.1279013,126.71141
0.99612874,125.83403
0.99602777,122.136795
1.0684303,122.37641
1.1216017,119.81913
0.93691975,118.5776
0.94040674,118.29823
1.0696985,113.293
0.9585361,112.944275
0.975767,110.44346
0.78309965,110.33237
0.8257693,106.86711
0.75839794,106.04165
0.75953406,104.62138
0.80073905,99.51511
0.7731145,103.011345
0.70185953,98.273796
0.7316011,99.09671
0.62772,89.3947
0.65704304,90.91165
0.49836102,90.86331
0.45895568,90.269646
0.41038948,87.195625
0.33392692,91.25715
0.41012898,82.69523
0.4701189,85.64366
0.512943,79.78163
0.42037442,77.03173
0.3934512,74.12536
0.3574499,76.6212
0.2776291,74.34316
0.37544915,72.14138
0.36979085,68.179665
0.3401981,66.92045
0.4222503,67.37169
0.41678056,67.673874
0.2186242,64.83627
0.2786156,60.53752
0.20514429,63.61041
0.13918677,60.99758
0.22703241,63.44245
0.16942807,60.337555
0.15686035,60.979477
0.015902773,63.748997
0.09557632,63.123825
0.1165764,60.57932
0.032269973,63.871166
-0.0029229564,61.369064
0.026374692,63.794548
-0.060159065,69.05524
-0.077664904,67.660095
-0.011241596,66.020294
0.07456668,74.677925
0.065128885,73.72059
0.09671141,75.47369
0.12714697,76.26335
0.114296734,79.40325
0.29827532,81.893135
0.23906898,88.24121
0.4312286,93.37273
0.53281367,91.176384
0.6030048,96.35874
0.74441564,102.54736
0.7581627,105.69507
0.8782,108.66508
0.8741915,110.17463
0.984038,114.31376
1.0891635,116.79028
1.1385328,118.73346
1.2034358,119.20041
1.3052227,122.4478
1.2525047,124.96395
1.2588135,129.3973
1.2492867,132.44635
1.3377854,133.9984
1.3557363,133.69801
1.3308111,137.63005
1.2758671,139.87587
1.4791467,135.32602
1.3640105,146.36075
1.3407612,139.86736
1.3626237,143.79411
1.3855995,141.64645
1.3427597,142.5722
1.3521425,138.76157
1.2391839,139.94257
1.3056166,141.4166
1.2061921,144.6305
1.1648006,140.08693
1.2214313,138.57692
1.1759074,134.98846
1.1986078,134.18184
1.0886338,132.73187
1.0356592,133.98053
1.0901731,134.58241
1.0174782,131.92497
1.0242077,127.75842
1.0740103,125.95043
1.0103153,127.963646
0.99461436,124.77816
1.004983,123.72291
0.9606159,118.98667
1.0218946,120.446
0.9774844,115.99421
1.0569206,112.65983
1.0007551,111.600945
1.0253624,115.81214
0.9501084,109.70535
0.9516963,107.958
0.7932528,104.73458
0.8257503,107.41999
0.89580387,104.549774
0.8434363,97.560814
0.8450951,99.29073
0.8000645,97.91215
0.67022306,97.63852
0.5951677,95.229774
0.6198564,88.825386
0.61772317,87.080795
0.5965642,88.407845
0.5480487,88.92067
0.46823528,82.51565
0.41176584,79.37693
0.40285125,82.23058
0.4242362,79.54117
0.4421755,75.06317
0.3970649,75.21309
0.3765861,75.79421
0.41725984,74.71521
0.4395061,73.5048
0.3930652,70.79505
0.5441424,70.54728
0.41345817,64.08596
0.34671602,63.59207
0.24103305,60.462933
0.4138529,61.58092
0.46836558,62.583324
0.32282057,62.534477
0.31043684,61.379482
0.36938423,59.400112
0.26673564,60.62396
0.2526295,61.176716
0.16420889,63.162025
0.13859588,62.482784
0.15953887,62.540802
0.12704542,62.25376
0.15939409,66.44739
0.10697589,65.57092
0.056768645,66.55753
0.074770056,68.42315
0.20118031,72.31102
0.18106422,77.0212
0.28760377,78.120575
0.33466104,83.830925
0.38878128,82.25796
0.41316703,84.37524
0.62847924,88.94063
0.6768781,90.98509
0.7387024,92.82053
0.8792287,101.4624
1.0067711,102.661255
1.0109521,105.70018
1.1243582,111.05222
1.2369889,108.79931
1.227929,117.24145
1.3123593,119.04693
1.3314897,119.8202
1.4236184,121.63367
1.4253374,125.67174
1.4579892,130.24422
1.6148368,133.4003
1.5553259,134.40385
1.5455613,131.41168
1.556973,137.85081
1.7185184,137.53737
1.7127761,137.02313
1.7037698,141.81787
1.6809363,140.21922
1.6172162,142.4375
1.709515,141.73814
1.6883504,141.39594
1.6628153,138.87598
1.5985715,141.13757
1.5686562,144.38124
1.4482932,141.52132
1.6382198,137.3451
1.4393419,139.5213
1.4865973,138.03348
1.46735,139.26292
1.539456,135.66165
1.3094229,131.88638
1.2613744,134.39052
1.3178296,131.34267
1.3758302,127.86215
1.3527267,130.04991
1.2928216,128.21956
1.2906134,125.82775
1.3389525,124.51938
1.3188716,121.019295
1.2856222,120.09881
1.2872305,116.25032
1.2615311,113.99768
1.1301539,114.6464
1.2927388,113.945564
1.1612543,111.278694
1.2944647,109.225586
1.1211073,102.94894
1.1967493,105.21822
1.1473234,100.42508
1.1527772,99.11555
1.1690708,100.97874
0.95634484,99.141624
1.0295888,91.469475
1.066125,90.79819
0.9631273,90.67017
0.9093227,92.94703
0.83160734,90.25517
0.8522184,89.18628
0.8739066,88.02478
0.7764285,83.13724
0.79316264,83.735115
0.84438914,81.17517
0.63292605,80.13347
0.7267022,77.97417
0.80727637,76.6626
0.71871644,75.51064
0.76381505,71.73462
0.73937225,68.67178
0.8769127,73.356
0.75877213,63.227467
0.79910254,65.10569
0.7214225,63.487125
0.7989796,61.247894
0.78095675,64.038925
0.81175864,62.327366
0.5848531,61.589176
0.57935685,62.596226
0.5827943,59.374516
0.52062225,59.020008
0.5989175,63.50068
0.46224397,64.025894
0.49272314,60.863262
0.54242074,64.433525
0.5582441,67.93257
0.44968677,67.45842
0.43761772,66.67846
0.40206432,67.94062
0.60000163,69.96426
0.59080464,73.982895
0.60766417,72.96384
0.6591188,73.37963
0.6725235,78.954544
0.7403287,88.486015
0.8804542,89.77469
0.9239322,90.01986
1.1848247,92.373665
1.1400766,99.60738
1.2903851,101.60711
1.3313854,104.454185
1.3376552,107.283455
1.5486968,110.08666
1.561302,116.12262
1.6640333,116.15443
1.7121851,118.292076
1.7381849,122.46628
1.6635032,123.70682
1.8345867,124.14911
1.8375312,130.2759
1.7629367,132.48337
1.864081,134.43547
1.9539814,137.5913
1.8988516,138.44423
1.868653,139.94879
1.9355572,141.50623
1.9816809,140.55176
1.8978658,143.28891
1.8663937,143.4851
1.9052892,144.7372
1.95975,140.50468
1.9513546,142.92285
1.8574734,143.87823
1.8799573,141.22491
1.8362279,139.89252
1.8181126,140.02989
1.7334214,139.60175
1.8566082,139.3528
1.7060965,138.14369
1.6765226,136.4378
1.5862293,133.73994
1.6318688,134.96356
1.6950197,129.8612
1.6631473,128.8148
1.6786608,124.550674
1.4768752,127.367805
1.6299987,124.08259
1.5902398,123.90219
1.6171855,113.77745
1.4473085,119.30559
1.479722,120.346275
1.4277823,112.87018
1.4511088,114.33093
1.5171049,115.4792
1.4120504,106.728096
1.4178201,107.3479
1.3987329,106.865
1.4517508,101.26011
1.3773873,103.46894
1.292357,99.2868
1.2757192,94.98264
1.2194169,92.18167
1.166951,93.3474
1.103689,98.32953
1.1442015,94.70922
1.0469472,92.880295
0.99366856,86.97286
0.99273854,84.059296
0.95688343,86.795746
0.9262832,82.64097
0.90681446,81.60623
0.977567,80.341354
0.9464202,73.636185
0.9185252,78.992516
0.93505454,72.14416
0.97270244,74.35753
0.9985871,75.19586
0.9205938,68.353004
1.0235012,68.14846
0.91517806,66.57955
0.98871326,69.22258
0.9484469,63.377373
0.84580463,63.648617
0.88201,60.06989
0.79315567,63.1832
0.76689994,63.97955
0.74471146,59.993
0.7768837,60.891476
0.6580913,62.819153
0.5661944,58.837288
0.5257648,60.88752
0.5377422,62.34036
0.58461124,69.9701
0.51557094,66.51822
0.3872571,67.51648
0.5812396,68.8206
0.56264335,66.09585
0.61705106,73.32141
0.6277766,77.64068
0.7226251,73.5901
0.81258637,81.84057
0.70948344,82.52013
0.9435384,88.7823
0.97954607,88.97661
1.0027676,93.64767
1.1056564,95.23376
1.3267349,99.315796
1.3043183,103.20961
1.3621888,106.74009
1.4276372,108.362625
1.5533944,114.41992
1.6114584,113.30713
1.6440486,121.03064
1.7484474,121.42076
1.7917329,125.20404
1.8080387,127.266785
1.8601913,127.85172
1.7713468,131.20026
1.8578563,137.27373
2.0148587,134.16867
1.9443368,137.86804
1.9538774,139.74478
1.8595269,140.91402
1.948893,141.89735
1.893923,142.03064
1.769706,142.16618
1.8762331,140.68436
1.8279724,141.10997
1.8261425,142.92812
1.8294514,141.58937
1.7816049,143.04262
1.8006619,142.75954
1.7932361,139.63083
1.5866334,143.73885
1.7232107,138.0636
1.485079,138.68309
1.6468027,138.46844
1.6025321,132.87108
1.4970276,132.12677
1.4886808,132.73846
1.5149403,128.16478
1.4273007,124.9816
1.4453439,124.67133
1.4314026,125.696075
1.4302945,122.7257
1.3426547,120.53581
1.3559498,118.60225
1.4235327,118.8587
1.379106,117.847946
1.3181695,112.02863
1.2462002,109.517456
1.2282974,109.11272
1.151994,112.35354
1.2308068,106.65543
1.1426276,108.27052
1.2240328,107.42013
1.0668832,104.72398
1.1524906,99.91214
1.0380354,95.35307
0.98685926,97.6881
1.0830766,96.818665
1.0389329,91.15146
0.8133934,92.54378
0.93090695,86.434395
0.91045344,89.932365
0.84568083,85.58276
0.7336,85.17703
0.76916724,81.382454
0.7975842,81.25189
0.6725624,76.06006
0.6984552,75.536804
0.72707194,75.51279
0.6048166,75.123055
0.61852413,71.129074
0.6948978,67.277565
0.6871735,69.01704
0.7468954,66.09237
0.58905333,63.12107
0.576263,63.997982
0.5613904,63.768696
0.598531,65.7124
0.5353737,59.072845
0.59756327,63.600773
0.51643693,62.42676
0.3794642,62.99291
0.34571627,58.31275
0.36500347,61.255573
0.23697548,65.20116
0.31207386,64.00941
0.266577,67.379814
0.24212494,63.76239
0.24255882,68.18203
0.25209132,69.36144
0.21796194,69.48959
0.28145593,71.004906
0.3999152,71.944374
0.30730367,79.000015
0.4059462,83.19055
0.5161152,82.90952
0.57239175,87.02398
0.61714005,89.43017
0.71114284,89.63901
0.7337885,95.86678
0.8696623,100.20156
0.9903559,101.22997
1.0945712,105.282646
1.1127037,104.96721
1.2041318,110.70988
1.2552751,111.006096
1.3659625,117.06375
1.3814173,119.62269
1.3364564,123.85107
1.4355378,127.36044
1.493046,131.41849
1.4316938,130.44154
1.4841298,131.12595
1.5502032,131.49709
1.5044361,133.61794
1.557811,136.70589
1.460789,138.35693
1.5901253,143.0006
1.5474823,137.81316
1.5641663,143.65453
1.4085627,138.78065
1.5373757,140.71098
1.4851449,144.67159
1.558536,143.49043
1.4088928,144.54929
1.4745796,140.687
1.474745,138.7676
1.3224301,138.84433
1.2949141,136.93816
1.2638336,135.94211
1.2750937,136.76425
1.197937,135.54991
1.0847106,132.01346
1.2443584,132.82167
1.0715951,128.9615
1.07411,128.33116
1.0761173,124.66076
1.058998,127.93888
0.954762,124.816086
1.1723471,117.15331
0.9797037,122.84994
1.0223013,115.65881
1.0426863,117.20428
0.9681533,115.08457
1.1008567,111.55833
1.096647,109.7575
0.90252334,106.837296
0.84376496,108.386986
0.8991822,106.966194
0.87243223,107.520706
0.8234342,104.727
0.756393,102.04154
0.7082753,99.104645
0.74617267,93.54731
0.72931165,97.300156
0.67025566,95.959206
0.588183,91.58751
0.6601308,90.825455
0.42465904,85.04765
0.52164817,85.181885
0.4299888,85.698166
0.36656517,78.23795
0.32562938,80.091064
0.44724792,76.25837
0.3575546,77.81144
0.410834,70.18345
0.3766166,68.92939
0.35632047,71.780754
0.36299515,69.413536
0.3692999,68.544525
0.34337953,68.754524
0.4007579,67.32546
0.3071446,62.442223
0.35503235,63.826534
0.20702429,61.525898
0.2355935,62.181145
0.357221,61.27587
0.2628262,61.63452
0.055330142,61.355804
0.11760584,57.76335
0.08570983,63.12803
-0.02109032,60.25599
-0.01343599,61.13948
-0.09312445,61.418957
-0.024920125,67.68304
-0.07114542,67.1015
0.02884145,70.78192
-0.07395688,70.71599
0.07159072,70.930855
0.11652522,72.91412
0.12015563,77.28584
0.08656983,79.07697
0.24809718,80.117035
0.29040346,83.83173
0.45572552,86.28747
0.4011186,89.976234
0.55442417,93.70043
0.60978115,98.487785
0.6833298,98.353966
0.7824762,102.82959
0.8075157,108.90023
0.90067524,110.66958
1.078283,111.63254
1.0407495,113.133125
1.1609758,114.70346
1.1899077,119.841576
1.1831031,124.5959
1.2471817,128.01053
1.2995253,128.61394
1.3205065,131.71509
1.2940377,134.03644
1.3100342,137.93471
1.3422734,139.50163
1.4432007,142.08751
1.3638488,141.35677
1.4024944,139.96126
1.4195662,142.51552
1.3374834,137.9504
1.4016587,143.79132
1.2372046,141.91034
1.2565986,141.43932
1.3155512,142.27902
1.213205,143.15935
1.1818293,139.58089
1.2104397,143.33589
1.1278317,139.3628
1.2744675,138.89915
1.1954794,138.91093
1.1203195,134.17334
1.1725694,131.74557
1.1643534,129.03952
0.97627115,131.48447
1.0122025,132.26204
1.005088,128.75763
0.9192838,126.92195
0.9429176,125.58007
0.86425185,118.8343
1.0828178,119.261986
0.9901895,118.38394
0.98393387,115.7937
0.9069396,113.80171
0.94258547,115.34902
0.8803172,112.26606
1.0411516,110.248634
0.9235471,107.020676
0.8273654,104.96104
0.7510494,104.93941
0.87718767,98.3052
0.7768533,101.34999
0.7079535,99.356705
0.7239709,94.67132
0.6523564,93.492096
0.6409941,94.43533
0.57933974,90.67411
0.5672435,89.02266
0.51468885,90.24043
0.39794993,84.12013
0.46579248,85.61755
0.38018313,83.75058
0.45219508,81.42344
0.42414352,77.2592
0.38908216,77.17252
0.4361865,72.47308
0.37574273,67.71775
0.36789083,74.66989
0.38930547,69.72351
0.42658553,69.690994
0.34286293,68.28551
0.36253113,68.33088
0.35680544,65.074814
0.32967556,58.019444
0.3662898,63.413383
0.31183696,59.194664
0.3359236,63.483345
0.30203998,61.328632
0.27000678,59.772232
0.26178908,62.519978
0.14418751,63.754116
0.16642682,59.093952
0.17078634,66.78512
0.118149795,64.710724
0.10041314,61.296104
0.018251168,66.44975
0.034775317,66.329735
0.18730296,66.24111
0.11419229,68.121765
0.08919905,69.317856
0.21497716,72.62127
0.2758995,79.344025
0.3588186,79.70286
0.4525796,83.94145
0.43757775,84.01112
0.6178076,84.44941
0.6131423,90.714874
0.6929,94.65411
0.8396258,97.24458
0.98966765,102.407074
1.0913799,106.98112
1.0227585,107.06054
1.1654298,112.21819
1.1286763,112.15199
1.2929534,118.866585
1.3815343,118.688156
1.3529626,124.05303
1.4233412,126.0446
1.3852419,131.81549
1.5376073,130.88507
1.356158,134.49068
1.4991051,136.10664
1.6308956,135.5481
1.4651587,136.89693
1.5993903,138.31728
1.5414038,138.40834
1.6090657,138.14993
1.6457082,140.56668
1.4707873,143.2144
1.6134872,145.26503
1.5963178,145.90338
1.5332263,141.62424
1.5140188,143.37762
1.516451,140.07486
1.5266517,142.27118
1.4463071,140.22337
1.3287892,142.44252
1.4328591,135.18112
1.4021583,136.0579
1.3710482,138.3721
1.2856469,132.38535
1.3292696,131.26204
1.2531129,129.52895
1.3592048,128.35469
1.2585833,127.35676
1.1487094,126.283745
1.150567,123.47186
1.2360909,120.69872
1.2871054,119.75452
1.1963549,116.90731
1.1231664,119.96494
1.2513579,114.79236
1.2196772,111.449524
1.2378802,111.4246
1.1120301,111.24313
1.1169713,105.31146
1.1253792,104.59704
1.0286407,101.66999
1.0089211,101.46106
1.1039829,101.1376
1.0548728,97.14743
0.98109376,94.007835
1.0151192,98.372284
1.0609435,92.41211
0.8826623,89.7078
0.8566832,88.13692
0.7733429,85.79051
0.8224974,83.26165
0.7489805,84.25629
0.79100525,80.86179
0.68861973,74.49379
0.74114394,76.88669
0.696329,74.42816
0.723908,78.14301
0.73975927,71.323875
0.7303386,71.96363
0.72386974,69.947876
0.7098467,67.73016
0.6778079,67.30349
0.7766727,67.85664
0.7437506,65.026115
0.76254255,64.03034
0.7251438,64.1328
0.5669211,62.055542
0.583231,62.458103
0.6341115,63.813206
0.48844138,62.9176
0.5549579,62.41368
0.50478315,61.39378
0.44097313,61.949203
0.3642163,60.503822
0.4827783,65.3042
0.49212623,68.06954
0.35782844,66.27179
0.41087818,70.501785
0.4005523,71.083305
0.3857882,70.60935
0.4993701,74.68043
0.5769588,75.04972
0.6599537,82.61191
0.7321985,82.46552
0.8372289,84.029594
0.8445254,88.0903
0.9823758,95.60506
1.0332828,92.48543
1.1120238,97.48922
1.1976311,101.00468
1.2889597,104.565125
1.4534929,105.65345
1.4448954,107.919914
1.6438371,111.59487
1.6608735,115.10988
1.6043179,118.0376
1.6977216,122.842964
1.7060672,125.23066
1.677396,131.2795
1.8220948,131.17058
1.8344429,131.57076
1.8586601,134.44667
1.9124115,135.09776
1.8972695,139.13277
1.8963647,138.8139
1.8751136,144.13058
2.0004702,140.566
1.8019389,143.69356
1.8914465,141.79826
1.6881752,142.08632
1.7596093,144.08641
1.8559202,142.13393
1.891687,141.9586
1.9072465,141.1199
1.815823,142.22687
1.8110431,140.47963
1.759136,139.50688
1.7600718,136.63481
1.6780406,141.40988
1.6610755,134.63342
1.5229983,133.0134
1.6344199,133.48456
1.5808201,129.32465
1.5206149,126.41467
1.4909278,130.97556
1.5444001,124.98717
1.4912325,121.18967
1.6033105,120.1158
1.5030512,118.08002
1.5028826,118.51522
1.5493231,114.491646
1.5172918,112.56829
1.388105,111.11767
1.5182847,116.05972
1.4434171,109.66194
1.4235525,104.772705
1.4097327,104.216255
1.3131511,108.699265
1.3332989,102.35926
1.2304715,103.52259
1.3762337,99.71442
1.2535418,96.7275
1.2700095,98.05301
1.1815537,93.00619
1.1225662,89.99944
1.085508,89.50826
1.0549532,92.43264
0.9862904,85.12806
0.98627734,82.340805
0.9476936,83.35388
1.0361205,80.79028
1.0123777,78.49234
0.9146126,78.17812
0.9382149,75.84673
0.9261839,75.72686
0.9269142,73.27369
0.92301387,70.18124
0.9676951,66.77508
0.9066775,64.23484
0.905842,66.22696
0.89381224,64.153656
0.93954974,65.968956
0.76515627,63.345245
0.8193487,62.905922
0.7295141,60.62088
0.8389692,59.76895
0.76142436,61.474606
0.7457436,62.51076
0.60813695,63.528545
0.6523587,64.916306
0.5771567,64.84001
0.6708284,64.22593
0.6800929,65.20916
0.5359318,67.39366
0.5349494,66.79812
0.53283226,70.71013
0.6123051,69.84441
0.681456,72.52089
0.6108367,71.81551
0.7018826,81.33356
0.81203145,82.12715
0.85834485,83.54584
0.9474642,85.161476
1.0518179,86.996185
1.027572,93.79701
1.0989757,96.27944
1.1937993,98.329285
1.4159523,100.69852
1.4675543,104.40325
1.4675524,110.4939
1.4616088,110.95526
1.5219253,115.098526
1.6665361,120.249596
1.7448909,124.46302
1.7315673,124.57544
1.8295864,124.29234
1.8263602,132.67271
1.9425894,127.72161
1.9639795,134.48784
1.9365735,136.1434
1.9174149,135.90399
1.873273,139.13118
2.0289233,136.9125
1.8854313,139.758
1.9122684,141.525
1.871206,140.10907
1.9035733,142.533
1.8359233,141.93575
1.99508,142.13107
1.7986778,143.08546
1.7823464,141.78047
1.9195844,139.1535
1.8291398,139.60631
1.7217534,138.93066
1.6279349,136.05148
1.7015165,134.92
1.586254,136.35707
1.5011194,136.52187
1.5254405,133.76938
1.5674042,132.8503
1.487092,127.203224
1.5019416,130.8156
1.5215695,125.97529
1.4775181,122.69541
1.420835,125.41393
1.3698593,122.866264
1.2859097,114.53699
1.369716,117.56884
1.3570254,118.405396
1.4131975,112.11914
1.4365513,109.26751
1.4153247,109.43632
1.4137772,108.10415
1.2993038,106.39969
1.1843002,107.50524
1.2235372,101.2938
1.1932898,101.16653
1.1253145,102.341484
1.100409,100.30423
1.0508218,95.05977
0.96636343,94.99592
1.0255841,96.73826
0.8915767,87.99888
0.8868956,89.07702
0.8702462,89.66864
0.81617963,86.61463
0.8368735,83.43458
0.77905273,81.95556
0.7745631,78.92375
0.851689,77.1774
0.7138558,79.357086
0.7746333,74.15198
0.7667383,69.581024
0.780594,73.05783
0.71386606,71.63104
0.81772405,68.39586
0.738415,67.17057
0.747516,66.23412
0.6931967,65.50126
0.6820695,68.75862
0.57815164,64.18922
0.44192198,61.48366
0.6207789,61.57952
0.45577928,63.893005
0.43235922,57.15641
0.42419842,60.608547
0.42299378,65.09313
0.3009917,65.05667
0.3539587,61.65025
0.24047247,63.0415
0.23077774,65.81245
0.3092132,67.64023
0.20787321,70.04684
0.4920482,70.69684
0.38073924,74.66818
0.46206895,71.40023
0.3761806,76.59343
0.44516623,81.651886
0.5445926,84.50891
0.6536079,88.390205
0.7730299,88.76867
0.72362775,95.54513
0.86484313,95.646614
0.92390984,100.773155
1.0230658,102.97429
1.1242021,106.36527
1.2355517,110.16386
1.3663977,109.11988
1.3027303,119.37643
1.3951824,120.89643
1.4443705,119.35757
1.505803,121.92451
1.4904666,124.65005
1.5532755,124.3083
1.5851713,129.02748
1.524412,133.01263
1.5542397,135.26492
1.5557024,136.00717
1.6513263,140.00844
1.576193,140.05447
1.4615232,139.06175
1.6015077,140.77615
1.603635,142.6854
1.4722441,141.99927
1.6282179,145.0116
1.5582424,144.18022
1.4789132,148.67221
1.5515392,140.15538
1.543364,143.75531
1.4264874,141.59596
1.3756156,138.54219
1.4859557,136.11516
1.3880105,136.2357
1.2469931,139.75713
1.1780472,131.90222
1.2416523,136.94528
1.1716868,129.84682
1.1526011,129.93094
1.1564132,130.8994
1.1942636,127.30485
1.09285,122.89012
1.140987,122.22783
1.0432776,121.13637
1.0718613,120.281654
1.0211759,115.184425
1.1124997,113.5287
1.0133328,116.541855
1.0533824,114.24734
0.9224776,115.60061
0.97883105,106.354576
1.0334666,104.29572
0.909311,101.20229
0.83316714,103.233475
0.80845183,101.684616
0.85858077,100.24957
0.68468386,99.1134
0.8072027,92.849396
0.6092988,95.74452
0.67955285,95.122086
0.7046502,95.42665
0.6683323,93.66658
0.4891097,90.65552
0.49506614,85.19449
0.38178045,83.294975
0.45618847,86.143555
0.3936474,82.62406
0.5212324,79.82012
0.5132306,75.79591
0.35897452,74.73955
0.3487011,73.125084
0.39756823,71.853836
0.46368074,70.63904
0.40175986,70.6305
0.469917,67.09862
0.48255283,67.700714
0.37002796,66.79732
0.38636875,64.227684
0.29786888,62.321537
0.18776141,63.09962
0.20139629,61.892242
0.21390976,60.797375
0.106446944,58.931637
0.2171663,60.29455
-0.069652766,62.147095
0.038458988,58.30664
0.080867924,59.956226
-0.009660407,64.46023
0.03745993,63.56664
-0.02654519,66.87837
0.08313293,65.50932
0.073360644,70.775375
-0.042999823,71.64844
0.095770486,75.3089
0.08794524,76.08
0.15173668,77.85352
0.17463867,80.47729
0.40498585,88.01639
0.3921458,83.60439
0.5422041,93.33341
0.5650998,89.08921
0.64100224,98.742935
0.7117773,101.833664
0.7779954,104.23919
1.0020958,103.15655
0.9948604,110.209625
1.0572606,111.994446
1.1840924,115.74233
1.0546777,115.57632
1.1018271,124.93274
1.1760693,123.24227
1.239893,126.99606
1.2717967,128.3579
1.3130171,133.80411
1.3425254,132.8499
1.2929481,135.28383
1.3707559,135.1751
1.329836,139.44264
1.3319596,142.03745
1.2532167,142.50842
1.4095973,138.33702
1.3542469,140.92952
1.3003428,142.3763
1.3148596,142.82812
1.3393186,140.77695
1.2763584,141.17114
1.2737222,141.3828
1.2300928,138.98119
1.2813307,139.24542
1.1680505,137.72351
1.0622582,139.77357
1.1748813,132.85474
1.0625168,134.27419
1.103682,135.15916
0.9737364,132.97253
0.9823879,132.98508
0.8766509,128.97997
0.9845537,124.68115
0.92483467,123.07351
0.993461,121.29096
0.99732614,123.29311
0.91023755,121.10967
0.84200937,118.0015
1.035402,114.568924
0.81684434,113.15689
0.9426053,110.96509
0.8965065,110.98421
0.81683034,110.65181
0.85906255,106.54801
0.8656487,105.11034
0.8222917,106.97169
0.8895922,105.60733
0.7541832,97.779526
0.78754276,104.23724
0.71877193,96.21096
0.6056251,101.14352
0.51338434,93.311455
0.6336132,96.103615
0.59807134,89.38548
0.5203757,84.395424
0.47956023,87.672
0.3968185,84.68927
0.37596786,81.814285
0.41717228,79.969
0.48710278,81.39716
0.4160637,79.780945
0.45527172,79.49503
0.3700009,75.72171
0.38665685,73.33035
0.3220912,75.117004
0.35051316,68.62149
0.38257083,65.86986
0.36984834,65.73769
0.3364533,67.322266
0.32389325,63.890663
0.25791258,61.494865
0.20746502,63.41164
0.34262392,62.84638
0.22041863,62.2288
0.18350172,60.146687
0.21962139,60.915478
0.19859892,61.118736
0.12834094,63.20323
0.02641018,60.84842
0.075058304,61.69623
0.084503435,63.29081
0.038550187,65.23566
-0.0038633125,67.09255
0.09742267,68.750015
0.06812342,73.23581
0.07392755,73.731895
0.21709579,75.48457
0.25902954,73.78845
0.29456496,81.48525
0.34285334,84.55727
0.43692636,86.60341
0.5057808,87.29462
0.574059,91.76736
0.74332154,96.656136
0.66375697,96.47995
0.76972026,98.62255
0.8761797,102.7668
1.0520661,108.372
1.11046,114.565834
1.1508355,114.61798
1.1083779,117.64002
1.3271465,117.68715
1.2808245,122.51523
1.3664308,129.6071
1.4369754,131.59233
1.3439316,135.65988
1.5172337,135.12639
1.4256686,136.8577
1.4409351,134.80627
1.6199405,138.35873
1.5527529,134.04745
1.5470128,140.2603
1.502215,143.26372
1.6874166,146.93765
1.5105274,140.5834
1.4740478,143.72261
1.5199594,146.62209
1.4972473,145.77628
1.5205693,145.68947
1.3738405,137.03108
1.380654,140.24231
1.3963404,142.52493
1.358258,139.77202
1.3279924,136.31108
1.3257172,134.42729
1.3248329,132.18823
1.3311211,133.43553
1.2410342,132.26802
1.289969,126.6396
1.1470764,131.02469
1.0820844,127.12431
1.172447,125.37312
1.1510265,122.0666
1.2079762,123.679634
1.1180742,118.23446
1.2274209,113.41896
1.2430745,116.89489
1.1428901,112.795815
1.0896106,113.41835
1.2315882,109.964836
1.1017486,107.31798
1.1142106,106.43193
1.1590974,102.76453
1.0094541,101.7731
1.0655328,104.32329
0.9575987,103.061646
1.0171888,95.34412
0.9853668,98.59691
0.9157625,92.8473
0.8939924,91.724556
0.8455724,90.3879
0.732912,90.00905
0.668725,85.35824
0.66311157,84.05102
0.72500205,81.956436
0.7373345,83.82475
0.805011,80.715065
0.75211275,76.55111
0.71244574,76.953865
0.7646657,74.75544
0.72503877,75.61461
0.84859246,71.470024
0.7322247,72.70707
0.7530562,70.59051
0.7609016,65.12382
0.6900951,67.39702
0.68217164,69.21274
0.66504174,65.712204
0.6767781,64.286285
0.69212276,62.66531
0.55502605,64.854195
0.49890998,63.782772
0.6973141,59.856285
0.6149547,61.035156
0.4507072,60.88109
0.3915844,60.008465
0.33577353,63.029087
0.3556622,66.43467
0.32205287,65.855225
0.330668,65.28881
0.37434205,68.47842
0.4804965,70.32222
0.39491513,73.09683
0.4929753,77.08064
0.5192537,75.8775
0.5633454,81.58364
0.68162066,81.25883
0.79457146,85.07317
0.79876447,87.39175
0.85802674,89.659706
0.9671292,90.962105
1.0896358,98.17041
1.2124568,100.69901
1.3160919,103.55048
1.3540287,107.844124
1.4544603,112.58818
1.6281352,117.84779
1.5070051,115.11933
1.6323436,117.86227
1.6752725,125.091736
1.7846215,126.70435
1.7290759,129.09216
1.8900214,132.62723
1.8309302,133.72166
1.8192532,136.62044
1.8552128,136.27507
1.8613032,138.28514
1.878478,135.96611
1.8119652,141.944
1.8703864,141.63312
1.9140793,140.2226
1.8331195,142.06781
1.8789816,142.88821
1.913043,144.98207
1.8336502,142.51434
1.7770576,142.17992
1.77025,144.10341
1.6908016,141.60295
1.7267852,139.02216
1.7596456,136.82991
1.6387367,142.02019
1.6832986,136.2081
1.7145028,132.84018
1.6886147,133.30191
1.6797744,125.60281
1.6667304,129.4142
1.5682484,131.6618
1.5043572,127.36914
1.468545,128.21431
1.579907,122.85846
1.5380478,121.6784
1.5145531,115.95263
1.4441183,123.763435
1.4114549,116.92057
1.4835213,117.86175
1.3896776,113.61982
1.3299944,107.77931
1.4230798,106.79797
1.3791589,108.23684
1.3118464,101.607216
1.4693067,104.94963
1.3047999,102.7267
1.3626893,96.911446
1.2266399,100.32
1.2234181,96.73921
1.0433875,96.93008
1.1775758,92.93871
1.214816,90.34185
1.1187787,93.73918
0.95590705,86.157845
0.9360317,87.51515
0.9546132,83.526184
1.049195,81.52183
0.9699562,81.241615
0.9183628,84.718
1.0085722,77.6349
0.852874,71.39405
0.93319094,71.174614
0.90550196,73.91643
0.9032752,71.0607
0.8768383,68.53511
0.94293106,70.023735
0.88940775,62.872005
0.86416,62.283604
0.86681175,61.618095
0.897142,66.33968
0.8465505,62.43162
0.76799625,60.84402
0.78567994,61.950375
0.6371024,59.047234
0.6987446,62.53506
0.69434965,59.768524
0.55457413,61.38744
0.61578876,65.692085
0.6582185,64.81199
0.58741677,66.50756
0.6212715,66.35069
0.55354744,67.163345
0.55020875,66.29413
0.5892985,70.40837
0.58616483,72.43845
0.71690494,77.50858
0.70849526,80.78979
0.6128853,77.47453
0.92400396,83.34403
0.9946879,86.01597
0.9987745,88.18867
1.098289,93.89942
1.1446623,95.82385
1.2482511,101.69588
1.3604289,101.42794
1.4794462,103.87191
1.6794631,107.81836
1.6127343,111.40722
1.6323602,115.39442
1.6493475,119.721886
1.7645379,119.99209
1.8331136,122.225
1.8290615,123.88004
1.9282628,128.90746
1.8758601,131.73283
2.0209258,134.85945
1.8456872,137.0597
1.8493189,135.46352
1.9319013,134.18452
1.9377002,142.53735
1.9553602,139.54092
1.990708,145.76125
1.8847166,141.12424
1.8564836,138.22943
1.9008017,140.07457
1.8501875,142.2955
1.8754586,140.68343
1.8396724,141.77316
1.7685044,137.94974
1.8140686,138.96199
1.7248703,137.7928
1.7437055,139.05472
1.7175304,138.32701
1.7070312,136.4597
1.709094,132.13963
1.4654325,131.06757
1.5057479,124.68529
1.5715262,126.65817
1.5945395,130.53645
1.5057658,125.2611
1.4760314,125.40255
1.4897344,122.35622
1.442341,124.16862
1.4328363,118.22049
1.4271811,114.953575
1.3713319,115.42566
1.3557435,113.39509
1.337184,115.851166
1.3456686,110.068565
1.3779376,110.392
1.2709217,106.74187
1.2405951,104.81576
1.3425411,103.19878
1.3111678,99.88929
1.2133784,99.3258
1.1043316,99.107216
1.2411741,93.78029
1.085484,94.15868
0.985034,89.484695
0.9623117,90.45187
1.0039519,90.534935
0.99664223,88.185905
0.87327147,84.74425
0.8631761,84.874214
0.9023224,79.65678
0.7857075,81.81738
0.6835033,79.79334
0.7768203,77.617874
0.81761307,74.85766
0.7223028,73.25812
0.7127088,67.48585
0.7022398,71.95484
0.705127,67.1954
0.6792076,67.7867
0.66588885,68.14248
0.8646449,67.0569
0.74534845,65.13375
0.7938391,63.765247
0.7088,62.240047
0.6182201,58.197918
0.5854348,60.373055
0.50062937,61.522194
0.5707428,60.16567
0.39131737,64.95412
0.43376002,61.379444
0.37468377,62.460846
0.28698108,65.35576
0.42723516,59.11894
0.29260007,68.247955
0.334113,69.29099
0.4005745,71.93505
0.33196482,71.299904
0.39370215,73.63545
0.45949036,70.13586
0.57190764,81.86401
0.6295789,86.06989
0.61814797,87.06647
0.75869066,89.093544
0.8158975,93.50335
0.81246275,95.05139
0.99560624,102.75716
1.0764652,102.77734
1.136621,101.83532
1.2057122,106.78597
1.3095245,110.71509
1.2981007,113.24174
1.4472783,118.018776
1.5177963,121.44022
1.5043894,121.84078
1.6314224,127.01234
1.546471,124.74924
1.5409101,129.55757
1.6616704,137.03302
1.7139848,134.27235
1.6214814,139.2533
1.56917,139.19977
1.6399714,134.74915
1.6851952,136.15479
1.6611514,144.33304
1.6185895,144.49211
1.5284125,141.96461
1.5989702,143.33575
1.6215682,144.1999
1.5264119,141.03944
1.5567118,139.1578
1.581,146.5747
1.458912,140.71358
1.4739456,137.84181
1.4804729,140.93085
1.4416181,143.48605
1.3995168,137.74034
1.3256264,132.93118
1.3968593,129.11443
1.3325216,130.62653
1.3254772,130.04698
1.2983145,127.269844
1.2165403,130.22961
1.169193,122.952736
1.1847496,122.872574
1.2057325,124.26296
1.0037053,118.725555
1.0321602,119.96421
1.1062851,117.17124
1.1209748,119.329956
1.0904734,111.709946
1.0944244,112.17512
1.0989972,109.78062
0.9831824,108.14702
0.9725182,104.59183
0.8806243,101.820595
0.95476806,106.05741
0.96148723,99.845604
0.9266935,100.90184
0.78065634,97.96792
0.7174439,91.89091
0.71733624,89.3112
0.6530329,92.609924
0.5567578,91.15078
0.54588,85.78112
0.5051625,86.97675
0.59163076,81.33404
0.56488305,77.83292
0.38126293,79.58112
0.46763316,78.2892
0.45543465,77.70263
0.48405796,72.90263
0.44437492,72.95903
0.3916049,72.53383
0.47800094,67.98531
0.4152659,69.34467
0.3951946,67.41601
0.44363356,63.275913
0.41537064,65.66811
0.39222968,67.96894
0.4115735,64.71402
0.23583718,57.198097
0.31486568,60.299675
0.22787677,59.39217
0.2543261,59.151527
0.15825255,63.215755
0.16383804,60.810608
0.10496407,56.85213
0.08064858,63.428288
-0.008340334,62.690178
-0.07398495,67.8295
0.051619537,67.08629
-0.033016894,70.13844
-0.022174882,69.966644
0.021446778,74.34586
0.09186941,73.02748
0.06269075,76.54094
0.16603343,74.6291
0.2037668,79.43015
0.23251921,83.649
0.46308914,86.72044
0.49467283,90.820366
0.5530836,91.76971
0.64157754,94.35209
0.6650551,96.72157
0.842101,101.821724
0.94324243,106.98119
1.0243278,109.70867
1.0670899,112.29923
1.1381602,117.56037
1.0790547,117.30495
1.1591058,124.78557
1.2255836,125.46884
1.2893555,127.6411
1.318602,131.94025
1.3658812,130.93774
1.3675671,135.73439
1.3255386,136.45789
1.4271959,134.55582
1.3352742,140.80853
1.3292785,139.63757
1.3680176,140.45433
1.3664157,142.98648
1.384345,142.04404
1.3323582,140.50711
1.3947376,141.46571
1.3013325,144.91508
1.2421769,142.088
1.232822,142.28801
1.2243608,141.28648
1.2371835,142.32753
1.2840929,142.34088
1.2017379,138.32054
1.1189064,136.43973
1.0829773,138.96315
0.97954935,126.44263
0.9866383,135.31537
1.1301767,133.17392
1.0015415,127.95159
1.0184788,126.068954
1.0803063,125.03453
0.942894,123.91162
0.9759906,121.829834
0.92128545,122.234146
0.9577436,116.25536
0.8962929,118.72328
0.8261782,113.89078
0.81507456,114.36997
0.869527,111.688255
0.8896257,110.09448
0.87479556,110.96106
0.715606,109.36524
0.83668005,104.33438
0.82611996,102.651505
0.7902968,102.32208
0.7970349,98.58459
0.7395185,98.45746
0.67760617,93.26531
0.58348495,93.57441
0.64699674,92.344
0.5273382,90.97559
0.44192523,87.70295
0.3857876,87.77525
0.3616997,83.482124
0.38203436,82.315216
0.4355405,82.61371
0.30004868,77.94518
0.29913095,77.408394
0.33822662,71.746635
0.30776793,77.38149
0.37367213,75.53313
0.35278064,68.28268
0.3133803,68.34343
0.38464275,65.85625
0.2863263,72.01224
0.3301672,67.63607
0.2671948,64.34947
0.28417888,62.19177
0.36485088,60.901398
0.2661191,63.557976
0.13206954,64.80693
0.13020997,60.088524
0.14460053,61.17309
0.06340326,60.934578
0.07846232,61.48893
0.08647487,65.401566
-0.013674134,65.39057
-0.064772055,64.58774
0.005175597,63.7057
-0.06962544,65.90858
0.0730555,70.000114
-0.011001478,68.91791
-0.041609265,67.716
0.14434445,75.00036
0.23841892,78.63233
0.20609264,77.83977
0.25271535,86.67617
0.37131563,81.55303
0.4696631,85.696365
0.51796114,90.85426
0.6135792,96.73096
0.6587223,98.72676
0.83090305,104.04953
0.88843554,104.63886
1.0730028,107.817375
1.0289403,111.271645
1.0403347,116.396484
1.2626177,119.75064
1.2113255,119.40704
1.3703449,124.074455
1.2820265,130.21835
1.3910137,126.99364
1.41132,133.38431
1.5275297,135.4734
1.4454211,135.3583
1.4942745,135.98192
1.4492605,140.30086
1.5661744,140.23407
1.4508026,140.7182
1.5174677,141.4893
1.4506468,142.96632
1.5303261,143.09712
1.5202521,145.39603
1.5566791,142.27434
1.4381629,142.41496
1.388838,142.4758
1.4417508,139.1792
1.4011898,142.24945
1.2837949,141.2203
1.305076,139.4222
1.3229737,136.98334
1.2861654,133.70343
1.2798846,132.40787
1.1828656,132.67012
1.226606,129.3844
1.145245,132.25133
1.2482462,125.16366
1.2066355,128.91261
1.1834847,127.364845
1.1630689,126.5753
1.1511754,120.23027
1.0602633,118.686554
1.1637356,119.80839
1.1634665,116.26291
1.021702,116.68562
1.0603755,116.02871
1.075676,110.66646
1.0562321,112.24425
1.0132061,110.30031
0.9793832,103.0407
0.99486977,99.27578
0.9595608,104.30554
0.87712586,101.93454
0.90426564,100.79525
0.9173536,98.05568
0.720898,94.02921
0.7406488,88.92499
0.713375,90.21411
0.73017,87.83834
0.78708225,85.36967
0.70376486,83.05591
0.6826228,85.571526
0.62093127,78.28722
0.6157226,80.749146
0.696496,78.33197
0.69404876,77.68408
0.6028054,76.13825
0.67082447,74.78436
0.63825226,70.45056
0.6191522,68.08347
0.61523265,71.52492
0.6370579,67.8874
0.56540745,62.347965
0.62319446,65.93395
0.53697693,62.35795
0.57817125,64.164314
0.52664715,66.82354
0.53416157,61.0084
0.52017933,63.2202
0.44897947,57.460087
0.42636657,60.039955
0.37321648,57.045353
0.34489372,62.294727
0.33382165,61.971222
0.3316529,64.59092
0.2665224,61.856358
0.2931034,65.13121
0.34276116,66.34877
0.3834452,68.96308
0.32025445,70.54849
0.44185942,75.77657
0.5258704,73.83489
0.51074463,78.59114
0.54309475,82.33053
0.7124851,87.28427
0.7513947,86.78015
0.8639562,89.75734
1.0124112,92.40042
1.0140074,99.918785
1.1922222,101.83738
1.2515577,100.81178
1.2458836,105.826164
1.2609111,109.3208
1.4514947,112.980896
1.4639019,114.90831
1.6175976,122.16713
1.6135674,126.78507
1.6678567,121.353905
1.7297246,126.41886
1.7710944,131.13281
1.7470205,131.63953
1.7352718,133.4364
1.8095486,137.46942
1.8442018,136.80952
1.778229,141.17697
1.8838322,140.98524
1.7952904,141.41441
1.894092,141.352
1.8850121,144.09584
1.7790983,141.9801
1.9368244,141.16536
1.7789422,140.99112
1.7658044,144.24907
1.714923,145.11902
1.7019627,138.77402
1.7623012,140.82343
1.7713937,140.70525
1.6920729,137.47368
1.7100601,135.1108
1.6140711,133.69348
1.6353142,135.42667
1.5344009,129.38086
1.5291108,130.59444
1.5129107,130.69753
1.4551734,126.83735
1.5295527,124.654015
1.4685841,125.36432
1.4140894,120.21637
1.4721544,122.55592
1.3963253,118.48281
1.524157,118.55947
1.3613317,113.952644
1.4018999,114.89114
1.3988566,113.80996
1.2597085,110.62363
1.3353039,107.56806
1.3592738,105.25013
1.3488853,100.22676
1.2769544,103.660904
1.2893814,100.97985
1.2360668,100.25364
1.2120819,99.43851
1.2213781,92.36121
1.1605463,92.25313
1.0348675,90.975914
1.0699579,90.703224
1.0642028,88.754456
1.0160843,84.22425
0.8646152,83.71109
0.970242,80.916084
0.9956749,80.88393
0.9613083,77.39948
0.9570439,76.711845
0.97337204,77.204895
1.0161319,73.963394
0.91468817,73.25477
0.9255466,68.13598
0.9283162,68.95876
0.8952269,65.47104
0.89670426,67.27339
0.9252869,62.25665
0.85711485,65.74898
0.81253475,66.6067
0.76276904,64.638176
0.76274633,59.3901
0.72945124,59.143166
0.69241476,60.87273
0.73427874,64.40488
0.7569221,61.813343
0.7755717,64.053246
0.6135722,60.620335
0.54526556,62.364975
0.592274,65.7338
0.5069082,67.4362
0.5637398,66.74593
0.48699945,69.13877
0.6600141,74.28193
0.6709716,70.53596
0.6584202,73.87506
0.73453164,78.545425
0.7321648,81.16997
0.72303975,83.05687
0.9663777,86.374535
1.0151769,90.36986
1.0341462,92.91928
1.0532174,99.21148
1.2827135,99.699776
1.3494388,103.33059
1.4101393,107.45254
1.4676318,109.862915
1.6532881,110.03795
1.7138325,112.85286
1.6811453,119.68172
1.8063728,118.065475
1.7306762,127.62088
1.8602955,128.76318
1.9082454,127.45044
1.9224603,129.24567
1.9428424,136.46591
2.0032995,133.05247
1.9609475,139.17993
1.9191188,138.50536
1.9315759,138.4414
1.9544853,140.31851
1.9622805,136.94833
1.9622402,137.69052
2.0505297,142.61937
1.9264585,141.38579
1.9142646,141.92143
1.8025663,142.3135
1.7867367,143.82217
1.8393935,142.06853
1.7275157,139.23984
1.6975764,136.28758
1.7562395,138.35637
1.6463172,140.75873
1.6652064,133.33807
1.735603,134.36078
1.6241615,132.8412
1.6315461,130.5931
1.5295035,128.27754
1.6169598,127.53494
1.5624403,124.33797
1.5980418,125.92255
1.5235738,119.52944
1.4822023,124.949905
1.491056,119.30481
1.5427663,117.89129
1.382295,114.785614
1.4040798,111.246025
1.4382396,113.82858
1.3812149,108.99243
1.3551685,105.56569
1.3581579,110.11822
1.320507,102.66724
1.3018905,101.940285
1.1461309,101.873985
1.2794442,101.79018
1.2280005,92.79514
1.1265783,96.36309
1.113312,92.63368
1.0070779,93.08445
1.0229006,91.43633
0.9839572,84.89247
0.9712245,87.40719
0.9977983,85.604195
0.91936314,81.16232
0.9301406,82.797005
0.7226459,79.475845
0.92646027,79.758026
0.9004567,77.335175
0.82333094,75.21966
0.81141025,72.80622
0.7906544,74.30972
0.7551407,70.250534
0.705849,65.45832
0.77514017,64.6581
0.74202996,63.887974
0.7360323,65.01608
0.7637808,63.166702
0.7553954,62.178787
0.5513999,65.529976
0.6666524,59.316086
0.5383132,63.056683
0.5521556,63.234467
0.5099554,62.02077
0.39817074,61.68199
0.43907958,62.557568
0.4270571,59.799248
0.36838078,65.349976
0.4131186,64.12266
0.44212338,64.24218
0.3788167,69.8407
0.33659303,74.92171
0.35635197,73.17519
0.48356164,77.19897
0.5479479,76.2395
0.61073697,77.31115
0.50878024,82.94098
0.7205256,88.970665
0.7191194,87.69306
0.8358378,89.212296
0.9298694,93.730446
1.0778345,98.86991
1.1458099,97.7504
1.1535554,105.691154
1.2743793,107.256905
1.3182387,111.85887
1.4515523,113.97382
1.4099576,120.68365
1.48244,119.23093
1.671399,122.58523
1.6980151,119.684654
1.6479776,125.96624
1.6269454,128.01111
1.5782392,129.50291
1.5932966,135.33298
1.6656983,137.00073
1.703656,139.41351
1.7039888,140.40735
1.710397,139.73709
1.7159189,139.91661
1.7389226,139.61232
1.7576368,144.42618
1.6416938,139.97078
1.6671847,141.41791
1.5693003,144.69173
1.6308597,143.08409
1.5153635,141.09387
1.5675101,139.7421
1.6192539,138.55074
1.3260789,136.9464
1.4430581,136.05266
1.4191126,139.31143
1.5823737,137.21983
1.3001995,132.96164
1.3753657,135.53249
1.2329084,132.2114
1.2597256,129.38615
1.2873315,126.99067
1.3159744,124.89543
1.1741595,118.00572
1.143616,122.45798
1.155421,115.08523
1.1909539,118.65105
1.199253,115.79649
1.2166799,114.30234
1.1144378,111.89982
1.089361,111.55476
1.0127554,111.98214
1.039131,105.26286
1.0338672,102.17757
0.96288997,104.04885
0.9475796,102.525955
0.9155308,98.80437
0.7935937,96.5378
0.7990255,96.776306
0.85632026,95.65791
0.7120491,97.85762
0.75692207,89.65668
0.5979251,89.60103
0.6046566,87.99907
0.60115165,87.01948
0.58484477,86.36097
0.4997709,83.55657
0.42959926,80.20819
0.43464655,78.63739
0.44968447,76.89633
0.43099344,74.858505
0.4206201,70.17708
0.46363062,72.096405
0.4520881,71.53504
0.3991435,65.37954
0.423585,70.35773
0.3298231,66.90893
0.40047222,64.5192
0.5101256,63.101524
0.31297132,60.595192
0.29996568,64.24741
0.31324363,61.476543
0.29190582,61.059105
0.26449448,62.07362
0.3558998,59.719315
0.07639843,62.55054
0.16597265,58.37533
0.11329238,64.798935
0.04543956,64.32557
0.08385151,63.529068
0.016569367,69.926605
0.13062043,66.28931
0.029779937,69.05861
0.040244598,67.33216
0.07814793,72.5306
0.23879258,76.790054
0.26646346,78.86076
0.3436663,78.379776
0.42043138,83.61989
0.38506916,89.31118
0.49410507,91.55935
0.5621962,92.576454
0.5940523,99.29123
0.82937884,99.054306
0.74624985,104.62518
0.93575245,104.74212
1.1380204,114.077415
1.0931256,111.4674
1.115513,115.11945
1.1611146,119.96099
1.2358025,123.632614
1.2385136,123.56346
1.3612878,126.93472
1.3704948,132.94893
1.3099474,127.20394
1.3080498,130.47012
1.4037913,137.67627
1.374006,135.79266
1.4391186,141.0425
1.4049729,138.52484
1.4016117,141.42552
1.4375303,140.98381
1.2935933,144.5812
1.3057059,140.55234
1.3701497,140.72578
1.3359816,140.19354
1.346158,141.91628
1.2539595,142.49838
1.2835757,139.49214
1.1646981,144.44847
1.2474477,138.97371
1.2027854,140.31335
1.2004839,134.69292
1.1759045,132.19203
1.1238117,132.28781
0.9405969,132.03706
1.0229743,127.63514
1.0299773,129.59914
0.9139009,127.367
1.0942862,125.75395
0.95319146,125.27001
0.79642135,125.44903
0.9271857,120.21956
0.90635127,122.01145
0.86998993,117.44593
0.9207573,109.85155
0.89632964,112.98875
0.8710758,115.33676
0.8499555,110.215904
0.82309437,107.54234
0.85345566,110.840965
0.8056433,105.32928
0.6707277,101.32843
0.7064519,99.8191
0.6578003,97.08845
0.686453,99.27791
0.66925585,94.33002
0.5583526,96.29753
0.45456928,93.41301
0.42328176,92.18304
0.3990248,91.85855
0.3017646,88.43929
0.32914174,86.87615
0.2522018,84.40047
0.3806401,83.309944
0.35546672,80.00337
0.31298068,74.43258
0.25019002,75.98003
0.3073547,74.68006
0.3608494,69.29194
0.35500184,73.21754
0.28077203,66.64222
0.3939932,66.964745
0.33200338,64.352066
0.4167424,64.622284
0.29997352,60.08519
0.23314494,66.25612
0.31317306,61.594902
0.16198742,61.29824
0.15093169,65.13287
0.21578526,58.86632
0.085484,59.369396
0.034618393,63.19851
0.055810984,63.49708
0.07137247,58.853226
-0.019840064,60.857903
0.09305969,61.80699
-0.035694946,66.604805
-0.04788321,68.90011
0.0062317746,70.62003
-0.040163253,70.0721
0.10450165,75.37319
0.026067065,76.93443
0.13152504,76.05391
0.14314902,79.678955
0.17587839,81.5579
0.45840806,84.31255
0.5054707,89.3257
0.42402273,92.30526
0.7179197,100.21761
0.76012236,98.120186
0.814373,101.17542
0.9539949,104.43881
0.9925429,110.01163
0.9916693,108.17656
1.1064258,114.303154
1.0870514,118.255264
1.3255059,120.31367
1.304522,123.65267
1.3416529,128.63354
1.4563407,127.63052
1.5113442,129.273
1.4632757,134.54402
1.4023721,130.23048
1.4801164,131.16882
1.4725753,138.06412
1.3736159,137.03218
1.3751868,141.84273
1.5068027,139.0587
1.500966,140.80556
1.4582233,141.67249
1.5034229,143.77559
1.4173479,142.91734
1.5319688,142.84991
1.4575564,142.60806
1.3671378,142.50104
1.3464277,139.38701
1.2254405,138.52162
1.3088485,141.01979
1.2843076,138.54486
1.2858764,137.3641
1.3103968,134.33464
1.2042552,135.90723
1.1740476,130.44626
1.2166227,129.22107
1.022914,126.64411
1.1466562,130.38557
1.1837864,123.25118
1.1815073,121.69988
1.1451492,122.47085
1.0762254,120.49981
1.0007623,117.25534
1.0565495,114.20643
1.1742469,110.445724
1.0862827,113.47624
1.0958433,112.835144
1.038835,108.361916
0.8788603,109.82036
1.010612,107.73559
0.8978109,101.506584
0.98068315,101.223946
0.81480646,101.95713
0.9389154,97.82908
0.9127399,92.94248
0.7500902,94.179924
0.7320994,91.05887
0.73364025,85.40906
0.69631636,86.050644
0.68519384,86.84787
0.6163682,88.373245
0.6923348,83.74262
0.62889695,81.61299
0.64485145,79.942245
0.6802801,80.74758
0.5649383,79.52586
0.49018753,70.892685
0.5281038,74.74675
0.5331534,70.06045
0.4867975,69.266556
0.5630057,66.72839
0.6555207,66.52206
0.5348803,62.502934
0.51410216,66.06064
0.5449591,64.11643
0.48439023,65.232475
0.52053106,65.14277
0.51809174,60.988678
0.4951087,60.542923
0.4706012,61.110893
0.30995363,61.994843
0.35079712,62.13069
0.38136235,59.54717
0.2895538,63.90094
0.21154724,63.992577
0.23816349,64.580864
0.32700235,67.74209
0.2868362,66.90717
0.31030723,68.27358
0.29820147,65.624
0.33910066,76.677414
0.45364434,75.44192
0.4892505,77.02122
0.53678256,82.17054
0.5447098,83.20832
0.65629,89.67446
0.86465627,92.67047
0.93264115,96.397484
1.0506791,96.2701
1.0765424,101.18705
1.1767254,100.94357
1.3604895,107.21348
1.3399733,111.26199
1.4040247,117.77525
1.5724211,119.202515
1.440466,120.382515
1.5017182,123.822815
1.673227,124.967636
1.6581483,125.00867
1.636316,129.58264
1.6912789,134.83047
1.757082,134.93704
1.784602,133.74246
1.7868158,140.87477
1.8290545,138.19978
1.7413695,136.08372
1.8360888,141.81837
1.8459762,142.32843
1.8258368,142.02179
1.8193929,141.33447
1.7016827,141.32271
1.7813611,141.16617
1.8152503,141.24577
1.709245,138.61885
1.8058425,138.3348
1.6631701,142.18736
1.6463357,137.19695
1.6245818,138.1617
1.5446199,134.52342
1.4799854,136.33046
1.5196617,131.52693
1.4488373,134.38193
1.4232213,125.062515
1.5306003,126.47006
1.5071462,127.698715
1.3740314,127.43152
1.4227828,122.74113
1.512853,121.43532
1.5105584,123.61787
1.3734329,116.8324
1.4477344,122.091446
1.4456556,115.64768
1.442908,110.4656
1.4175504,110.0655
1.364536,106.739624
1.3466891,108.047104
1.3962429,107.27363
1.2786282,102.342
1.2380852,102.19472
1.2218707,101.95369
1.2030698,99.57574
1.1568537,97.48004
1.1510909,95.42965
1.1548657,93.43961
1.1041435,93.33488
1.004587,91.22478
1.1127571,87.31685
1.0260397,85.4399
0.9516542,83.579735
0.98109263,81.42239
0.9056201,79.5685
0.8345717,79.90613
0.89688367,73.60036
0.8766954,75.41143
0.9186499,74.055824
0.9439959,71.55685
0.89453787,74.600365
0.89247555,70.41368
0.87638634,70.64372
0.97426903,68.81376
0.8739991,66.80842
0.8186435,64.982216
0.8162361,60.82436
0.79410493,59.944458
0.9319158,60.880493
0.7220179,61.087524
0.71302503,59.053196
0.62818253,60.799786
0.63019204,60.270897
0.5962753,61.476818
0.6205297,61.210896
0.56487215,62.65598
0.6782121,64.1936
0.5381021,65.77156
0.64960724,65.71593
0.56896377,70.2614
0.5446935,69.37909
0.70352197,74.03096
0.6323278,73.46838
0.619156,78.46484
0.78099966,79.06219
0.8712676,81.85123
0.92407,86.97054
1.1072356,88.86919
1.0923034,94.76489
1.2147189,97.936516
1.316564,102.44755
1.2856044,104.02886
1.4121941,106.58311
1.4952334,102.90324
1.5508791,112.070564
1.6573464,116.45621
1.6593374,117.23527
1.8434482,120.80396
1.7546194,123.85368
1.9362192,126.422714
2.001682,131.73993
1.8702277,131.61783
1.9946417,130.38452
2.0032659,134.29308
1.975514,136.71605
2.0226402,137.65346
1.8945379,138.4323
2.102474,139.76357
2.0184293,144.31853
1.9275398,139.37436
1.9607322,140.48416
1.9087194,140.5835
1.9295998,140.08946
1.922476,144.01282
1.8198341,143.32584
1.8963999,139.95773
1.9281064,137.32735
1.8200202,140.3953
1.6834288,137.23482
1.7054448,137.75792
1.7765048,135.19759
1.696987,134.41112
1.6413616,133.95847
1.6256404,134.39545
1.7093554,130.82124
1.5401323,128.8133
1.5357249,128.71216
1.4491581,123.69008
1.4970562,122.990166
1.5033046,119.74742
1.5313529,118.33504
1.4568923,116.14896
1.5270399,113.56167
1.4816628,116.799545
1.401607,109.81182
1.4701802,109.67087
1.4640307,104.49874
1.3325936,107.27102
1.3949587,102.65971
1.2817991,105.76942
1.2906693,99.84882
1.1672148,99.95079
1.2524818,90.13261
1.1779766,98.12212
1.2010853,89.50646
1.0299802,91.35419
0.9298468,90.71753
1.0610563,85.22442
0.94036216,88.977486
0.94000787,86.12855
1.0470154,86.58989
0.8333747,80.93508
0.9388964,79.95819
0.89666647,78.68337
0.8789665,73.29229
0.8560366,73.96504
0.88120294,74.57624
0.89034116,69.50891
0.9404531,70.32938
0.9327525,70.080925
0.8409927,68.05717
0.91669095,65.30911
0.8254834,64.51082
0.75748044,62.53497
0.6734494,61.650875
0.7083604,61.65623
0.6126588,59.178432
0.7423851,61.38703
0.5483836,65.03921
0.47802925,64.17827
0.5462274,63.59879
0.57614565,64.337395
0.5015012,60.712048
0.3916424,62.633755
0.41824004,66.30331
0.53375804,68.49649
0.43145728,66.71684
0.4102747,71.947975
0.51102084,69.78071
0.48464832,74.21266
0.48712295,74.91916
0.5722704,80.74749
0.67021275,83.09701
0.7843846,84.68651
0.89003986,85.764084
0.9206291,91.66418
1.072607,96.79313
1.1295033,99.4681
1.0135689,99.49501
1.1398062,102.46725
1.2731115,103.188484
1.4291719,110.525665
1.4494514,116.65108
1.4696914,118.24756
1.4933512,124.18554
1.6196951,123.00058
1.7199398,122.149284
1.4984887,130.07791
1.6553458,133.96762
1.7684187,133.42729
1.6573231,135.09349
1.7881786,136.0739
1.7636207,135.96008
1.7891269,137.49661
1.7385515,139.13593
1.7656283,142.7858
1.6822245,140.81868
1.7410623,138.66695
1.6621228,142.46243
1.707169,147.10999
1.6128092,140.88986
1.625279,141.93831
1.7036943,140.12794
1.603566,138.8396
1.6205276,139.65752
1.5405946,135.11252
1.4220344,136.57434
1.4754299,136.27863
1.3297765,137.1519
1.3358418,133.17543
1.4481397,132.34393
1.2872775,127.338196
1.311964,129.71162
1.2359029,129.30853
1.2621856,125.38635
1.218526,124.04856
1.2454145,116.47391
1.1640098,116.53566
1.186113,122.64833
1.1975309,115.15858
1.2754971,116.67636
1.1831363,109.63419
1.0912644,109.769936
1.1270462,109.5189
1.1140503,105.80892
1.0884151,105.32387
1.0809038,104.66147
0.9368469,103.617584
1.003382,102.42632
0.9277634,102.379654
0.80247116,94.511444
0.8275401,94.96544
0.8460529,94.33011
0.6518949,92.34792
0.60074925,91.20563
0.7358543,87.639694
0.73024654,85.145164
0.54124653,83.3696
0.5973879,84.559654
0.5063068,83.10571
0.54190594,74.61571
0.5828486,78.75717
0.6190985,75.90902
0.5752517,78.23658
0.446568,74.91794
0.49223554,69.80618
0.5571246,68.81634
0.51375836,69.5814
0.49099967,65.21328
0.4755009,65.75668
0.42695415,65.31737
0.383645,66.8751
0.40249246,61.740425
0.39862755,59.92464
0.31318572,62.456303
0.23056924,61.69848
0.26753914,61.173973
0.19341871,59.3397
0.19396941,59.29577
0.1442514,61.697258
0.07666947,62.327633
0.12996234,66.579315
-0.03973905,65.75819
0.18402338,73.16409
0.118638314,68.65638
0.1592536,72.79473
0.15475102,73.67782
0.27214703,76.75889
0.3034944,76.64301
0.26993135,78.7087
0.33259943,83.30891
0.4318771,87.34234
0.5104708,87.942184
0.6593581,95.24054
0.6576727,94.29136
0.8221839,99.96686
0.9115145,100.94819
0.95204276,103.67382
1.0708148,111.93332
1.1093781,112.348465
1.1937454,113.217865
1.1761065,121.593834
1.2604785,120.55842
1.3174548,123.64072
1.300818,124.288414
1.4641653,129.65227
1.3327729,129.49518
1.3996007,132.26642
1.4394212,134.5952
1.4387594,137.66354
1.3413945,137.55626
1.4110217,142.2711
1.4436275,137.40466
1.3470211,141.36029
1.4230164,143.22394
1.4605459,141.84386
1.4574119,143.82184
1.3509084,143.9144
1.3053099,140.44423
1.2948544,141.01245
1.30948,139.62149
1.3187361,139.57303
1.2046406,141.02411
1.246648,138.02853
1.2524877,138.41008
1.2241132,135.17226
1.1597661,134.71706
1.0529273,131.83487
1.0506204,128.71796
1.0480036,129.53612
1.0390313,127.76143
0.9385325,124.59131
0.9896494,126.15655
0.970924,121.83701
0.9911835,121.63146
0.88852257,116.70023
0.96056217,118.007935
0.79718167,113.43741
0.88523227,116.313225
0.8612267,111.18136
0.9255833,108.65405
0.7593419,107.38464
0.83070856,106.43011
0.7907524,104.20868
0.7443176,105.9571
0.76154065,97.76448
0.68691725,100.18285
0.5700073,100.651825
0.62530065,96.44998
0.5231225,95.74706
0.5714715,89.062164
0.44977358,91.34077
0.48167396,86.029015
0.31621775,85.282936
0.4074203,87.793434
0.36618492,82.986755
0.47507885,81.7532
0.4303068,81.371956
0.24961866,76.82409
0.42101806,75.04265
0.2682717,74.975006
0.16290079,73.53571
0.26725405,72.016304
0.28307387,72.445915
0.35000274,69.16413
0.31858137,66.73622
0.30942193,67.22428
0.39748415,61.00506
0.30174512,61.838657
0.29831964,66.39481
0.12899663,60.886143
0.20310622,56.1131
0.13827233,59.059658
0.16457571,56.696026
0.025333643,63.853035
0.006186669,62.96316
0.010152819,59.47658
-0.044424657,66.21705
-0.11551797,61.68704
-0.059004135,64.33214
-0.14259897,63.297363
-0.08952322,66.60797
0.04972531,72.165855
0.027413052,75.15115
0.12703414,73.28271
0.16764864,81.11553
0.14512832,80.89235
0.33292475,81.2094
0.38211724,83.30026
0.40544903,91.36339
0.5357054,91.405045
0.60162103,94.32006
0.6620551,99.88541
0.70272416,103.53692
0.9502599,106.20737
1.0188552,104.48481
0.94244385,112.83474
1.079817,113.324936
1.1182512,117.27828
1.1015799,121.752846
1.2389085,121.328926
1.4010509,124.649506
1.3717029,125.25637
1.4349264,130.69295
1.3122377,131.49149
1.413642,134.713
1.5363643,138.7037
1.4906114,136.1301
1.3317653,138.2969
1.4392926,139.46738
1.4042242,141.32172
1.4384452,143.43768
1.3665141,141.33044
1.4876447,141.76492
1.433466,140.78052
1.2816902,140.14143
1.305158,141.75621
1.3399713,142.70412
1.4016134,139.5935
1.2988555,137.432
1.2055808,140.14954
1.2227975,137.95581
1.178452,138.00334
1.1234378,135.02191
1.1478487,129.2746
0.9766216,132.84851
1.1569868,134.44174
1.2003348,127.11439
1.0455648,128.24965
1.0136902,121.37269
0.9466898,123.42773
1.0041456,119.24419
0.9967661,120.72615
0.9480844,118.223366
1.1285009,115.773
1.1091915,115.960846
0.97230846,111.483376
1.016907,108.03414
0.97033936,107.885925
0.7761592,109.329384
0.8353832,108.182495
0.96633077,105.556755
0.95177877,104.9022
0.799873,101.97631
0.76808065,98.13483
0.7156413,95.78241
0.8140547,95.66821
0.6632551,95.04164
0.75018775,93.74867
0.60772073,92.22539
0.62741625,88.19607
0.6317768,81.89929
0.62036514,83.06067
0.51174206,87.584755
0.5424071,81.667244
0.5658655,80.407166
0.5034598,75.52106
0.62558,74.134926
0.48770496,77.0035
0.55323243,73.96246
0.608989,70.69507
0.50213856,69.53303
0.5986232,66.487724
0.46405056,61.292957
0.48445114,63.2692
0.47543183,62.931114
0.53834367,64.43906
0.4663358,63.05064
0.46937093,63.67198
0.45834076,61.065285
0.41139424,62.40253
0.21250542,64.67965
0.26610422,64.69685
0.33266547,65.51176
0.26483357,64.78887
0.23323031,63.51665
0.13491696,64.58223
0.24605463,68.138695
0.2676914,68.129105
0.2320647,70.057335
0.3878176,69.80897
0.36264527,75.862885
0.41939342,78.82665
0.31483665,83.339806
0.48446655,80.54461
0.63429505,78.29159
0.6006475,89.01427
0.7785639,90.8819
0.8761543,94.16603
1.0280395,98.43919
1.0750015,100.42164
1.091463,104.56754
1.1756991,105.80056
1.2561103,109.668884
1.4079082,112.437836
1.3793604,118.26961
1.5114226,118.94912
1.5517049,119.34074
1.4772455,124.7304
1.6857636,130.53485
1.5422884,129.5852
1.7118442,132.05563
1.7350812,134.72185
1.7338462,135.2457
1.7592667,134.86382
1.726397,137.68767
1.7391068,140.83264
1.7500591,142.9979
1.809803,140.72432
1.7949945,143.59943
1.6947293,147.21745
1.7159585,142.86827
1.6709187,144.50165
1.710956,143.67432
1.6691047,140.48631
1.5739714,138.74358
1.5290821,138.0566
1.609483,140.13622
1.6605748,137.70256
1.566831,137.23393
1.5549648,132.10138
1.4563298,136.34804
1.4150541,132.58662
1.5606074,127.026024
1.3481467,132.32306
1.3770938,126.89411
1.5001452,126.51473
1.3672328,124.61933
1.4003558,119.429016
1.430545,119.67288
1.3425534,118.56931
1.3660126,115.04623
1.4649769,113.70902
1.3912097,114.63245
1.2439055,114.026375
1.32041,112.180115
1.2368212,106.605484
1.3259753,106.99036
1.2754965,104.900955
1.2867819,104.018394
1.3044472,101.46205
1.2376505,97.19311
1.1027056,96.70086
1.0209277,94.98715
1.1864978,94.26639
1.0759895,94.22097
0.9964723,90.80225
1.0068074,93.24227
0.9359057,91.20731
0.87545794,83.39991
0.88669926,82.101166
0.84785205,79.723465
0.8469355,80.62974
0.85303515,79.73496
0.8044199,77.4541
0.7771143,75.74486
0.84039783,70.23825
0.87794155,68.1925
0.78878313,66.17616
0.831889,67.96737
0.8316852,66.04218
0.85404575,67.058304
0.798707,66.25632
0.8080989,66.742065
0.86367863,63.98841
0.7979114,63.435814
0.6584817,61.95895
0.608663,62.286007
0.6745977,65.513756
0.668126,60.504288
0.50871193,62.32632
0.66118723,63.366768
0.47642943,62.35165
0.4672298,64.65764
0.49853086,65.99217
0.36184186,67.55305
0.6125716,67.27146
0.5638995,71.74058
0.66888,75.63309
0.64898556,75.38699
0.82284707,78.21346
0.8914574,83.52641
0.7996381,81.60454
0.88810253,84.73027
0.9135011,92.46909
1.0533212,89.65722
1.161675,96.312096
1.3683063,99.35028
1.3069149,100.72947
1.5378034,105.62351
1.4222493,109.46079
1.6463492,110.29334
1.6490601,114.73373
1.6732522,119.25196
1.7333473,121.33853
1.8030534,128.5422
1.8150344,127.412735
1.811272,129.53806
1.8330382,131.82962
1.9313353,133.91743
1.9131064,135.19069
1.9901521,137.05301
1.9841802,134.95149
1.9245514,141.85172
2.0388014,142.74791
1.9786361,140.0955
1.9807194,142.94717
1.9655776,140.93672
1.9935707,141.35136
1.9047418,140.63412
1.8942133,142.99689
1.791124,140.73218
1.8436007,141.08484
1.8222871,137.3116
1.8757461,140.08
1.8450451,134.89656
1.822449,138.98106
1.6598138,136.34396
1.7521394,139.45818
1.729252,136.17151
1.5523101,131.4452
1.6090326,130.09277
1.6373764,131.09335
1.5516914,127.01314
1.5739169,122.10737
1.5323983,121.88311
1.7004889,122.36527
1.5188172,119.450035
1.4721769,116.58188
1.5139918,117.478836
1.5149949,112.29992
1.408611,109.2866
1.4083021,109.549614
1.3523347,109.12526
1.4422144,108.526276
1.4120682,109.81566
1.347046,103.477936
1.2734663,98.95448
1.2899077,100.25834
1.3019333,99.6284
1.1241118,94.99607
1.1662905,94.13744
1.0968987,92.814766
1.1440309,88.55463
1.0471109,89.84227
1.0829277,88.48101
0.9545071,85.24124
1.0309969,83.3672
0.9435315,81.323364
0.7975424,80.33674
0.8890686,76.73949
0.89030254,77.38338
0.9392565,73.62275
0.887347,70.01077
0.840701,68.937256
0.886486,68.64185
0.97176343,63.888046
0.8926658,65.6204
0.8832272,71.32245
0.86911124,66.091255
0.84377134,63.691315
0.9020315,63.655483
0.77573025,62.449173
0.73346186,63.04934
0.71914124,62.140167
0.70490724,64.03873
0.6383884,63.618286
0.597677,61.21208
0.45801455,61.532856
0.52857864,65.56263
0.41209042,62.6502
0.43974423,64.59218
0.40852028,68.39531
0.50554717,63.490116
0.44520003,70.271736
0.43956673,68.5569
0.51891184,74.14657
0.49677962,76.75715
0.7072803,78.5119
0.6127028,85.558075
0.84788203,84.8351
0.944802,87.37115
0.96775156,91.09273
1.0104676,91.980865
1.1065238,100.479385
1.1828349,101.21811
1.2581909,106.06375
1.2923938,106.15721
1.5106549,110.22635
1.5065101,114.00249
1.4904656,113.69522
1.6086189,116.705086
1.7364131,123.45103
1.7733891,126.21643
1.8125814,129.80702
1.8005686,130.20166
1.7709832,134.65205
1.617535,134.17216
1.8689092,139.68239
1.838623,142.09183
1.8387573,139.14127
1.8006033,140.25034
1.7638264,141.9464
1.7754661,140.28877
1.7054178,140.21344
1.748749,141.9615
1.6977934,143.01048
1.710224,143.30276
1.6920762,139.5173
1.6385666,142.0488
1.6916554,138.042
1.6001924,136.31566
1.5312736,141.00858
1.4900298,139.68614
1.4602286,135.13882
1.4245131,133.37631
1.5150542,131.2055
1.345668,131.3579
1.3851106,127.08917
1.4044715,126.55607
1.2772558,127.042915
1.1947681,124.591
1.2447721,123.5032
1.2815301,119.69065
1.301614,118.154945
1.3032426,119.52007
1.2962518,113.40696
1.1425235,117.903885
1.1574478,109.001114
1.1467286,112.74581
1.1411431,108.721825
1.1172688,105.93448
1.0871328,106.10059
1.0528616,102.24146
1.0021976,102.58662
1.118547,101.958755
0.9754491,98.96287
0.97287214,101.67371
0.9230695,93.78668
0.9243327,93.82098
0.8121074,90.12713
0.6937388,91.74267
0.6617236,85.45296
0.65459996,85.46079
0.5944067,83.42536
0.6091908,81.21576
0.57451177,80.40899
0.5864976,74.90942
0.62259793,76.142784
0.5885767,72.94077
0.49799186,76.69598
0.5929852,69.94816
0.6250923,70.07736
0.5457576,71.34115
0.53361195,64.92682
0.57257736,65.47786
0.48740935,61.683887
0.55613786,64.632965
0.50069165,64.06399
0.4779311,63.73817
0.38081914,61.828342
0.45002702,65.35455
0.27029935,62.791126
0.29315966,59.777897
0.21168333,56.32354
0.1322786,62.310726
0.08303852,61.729095
0.1647382,63.191757
0.2528017,65.28222
0.058194663,69.61639
0.11016735,69.16558
0.21166636,67.02356
0.1700459,72.354485
0.15777268,74.08657
0.20167895,74.98141
0.20190302,75.42718
0.30581957,81.73726
0.45941395,82.45847
0.33363998,89.320915
0.6036435,90.442696
0.6728542,94.75791
0.70410466,94.709236
0.8076924,95.814026
0.8245584,100.24629
1.020938,105.93829
1.0596932,108.34391
1.1940131,110.48013
1.1848689,113.94249
1.2427036,118.48477
1.2674295,122.951065
1.2498065,124.58295
1.3987614,127.17294
1.3195959,126.023026
1.4062974,131.30328
1.4402926,132.30989
1.474679,133.57251
1.4482037,140.08301
1.4123125,138.07164
1.5370463,137.98671
1.427004,142.44481
1.4657363,139.37819
1.4501799,141.38579
1.505946,142.89789
1.4422323,141.59845
1.3725733,143.69595
1.3601183,141.24187
1.3538495,139.59512
1.2758576,140.25441
1.3086686,143.33133
1.2844688,139.76915
1.2024312,136.58878
1.2918544,138.31534
1.1989057,134.95105
1.0238378,134.77872
1.167862,133.21628
1.0560509,133.59853
1.0409771,127.60313
1.0008272,125.83009
0.9864763,128.16435
0.8961196,127.31541
0.96577716,124.1351
0.94191575,120.60094
1.0096403,115.7362
0.9024509,116.13478
0.93053335,115.20775
0.9818326,111.06153
0.78972465,112.621666
0.85093033,108.31681
0.86247236,107.67032
0.87419546,108.82041
0.77550405,103.80276
0.88550663,99.522385
0.71872276,97.62873
0.702535,98.70771
0.6043744,100.85742
0.6365272,94.46381
0.5432289,94.69872
0.4800017,88.959885
0.5170091,90.68753
0.5071304,88.03731
0.3764527,85.10613
0.40530762,85.31373
0.3262996,86.265656
0.38248834,79.942924
0.3483721,79.96081
0.39432174,77.17294
0.32775953,74.95907
0.37384126,72.38295
0.3764826,73.49194
0.31499445,69.13825
0.3335625,68.39693
0.27893636,69.11464
0.3015137,65.3107
0.2397706,64.46021
0.38712636,65.07697
0.3426611,62.702644
0.17799686,60.382835
0.23616177,61.648388
0.16588426,62.385387
0.14252986,59.036823
0.005155194,64.49277
0.07531222,63.031326
0.064174384,63.07971
0.0225279,66.34212
0.05754862,63.966244
-0.10296123,66.47921
-0.048642024,64.076294
0.06762717,67.222885
-0.041680083,68.61194
0.06355612,70.22545
0.027064841,70.13393
0.10370016,74.14831
0.0757506,80.70426
0.19291824,78.85717
0.31685227,82.221695
0.28160998,80.975
0.3880143,84.53272
0.5689935,92.92179
0.47921765,101.191666
0.70936686,97.57758
0.65761954,100.05735
0.9428589,106.640625
0.8355724,107.266975
0.9983135,108.453705
1.0587448,114.50476
0.9625968,115.64317
1.1438822,119.58414
1.2887207,122.144745
1.2885439,125.5322
1.1926074,126.50052
1.3019812,126.898506
1.4843272,133.77454
1.339596,135.48686
1.3952627,133.69904
1.378404,140.65582
1.3562857,141.57516
1.4221117,137.76065
1.4269618,141.15433
1.39139,140.61444
1.4448475,143.42694
1.3276218,142.75858
1.4149905,141.14983
1.3189282,140.04247
1.2870233,143.4392
1.2897123,138.8509
1.2754645,139.16908
1.1932615,138.16109
1.2102236,139.55902
1.288177,136.40161
1.1892426,136.51793
1.0731708,137.93611
1.1555601,135.94092
1.1111013,130.26201
1.207879,131.84196
1.106728,128.20198
1.1054399,124.08791
0.94839054,123.64398
1.019517,122.01616
1.0890514,117.43387
0.97653246,119.86917
1.0214583,119.687614
0.93522155,117.64777
1.0093338,118.40867
0.9770471,111.748474
0.95525473,110.129974
1.0549318,106.84873
0.8835833,104.75808
0.9590991,109.40478
0.94841605,106.0984
0.80190814,99.43075
0.84820676,102.83966
0.84082663,97.516815
0.66984516,94.932396
0.7766327,91.51488
0.615221,87.978134
0.64068556,95.483986
0.704061,90.61586
0.66103786,85.53092
0.55559254,87.10753
0.5440623,83.6543
0.61882913,83.238335
0.49627927,80.3076
0.5121478,78.96054
0.5233326,76.91668
0.4212984,72.85362
0.37664813,72.73849
0.46962887,71.29742
0.5272025,66.25622
0.44415957,67.14014
0.46415982,62.57153
0.51961046,65.002495
0.42118868,63.594143
0.35430196,60.947678
0.47883132,61.629208
0.42863476,64.83305
0.33929846,61.140865
0.33074534,59.383327
0.51538324,64.54243
0.1976675,58.594093
0.33951968,62.645817
0.2026902,60.666496
0.2328213,62.148643
0.1335476,64.27529
0.13619666,63.31058
0.122967824,69.076
0.14026825,67.9824
0.18230632,71.54519
0.2666582,70.99159
0.28442717,75.97669
0.352152,74.68749
0.38571858,78.15641
0.472439,84.209465
0.4083908,85.97117
0.6269738,89.73138
0.6757489,93.48041
0.81285846,92.95204
0.85224575,94.81429
0.95210886,98.505035
1.0306162,104.5936
1.1356561,107.324066
1.2249255,109.80348
1.3542541,113.08896
1.4042554,117.2877
1.5304203,118.64226
1.480851,122.11779
1.5510865,126.834724
1.5478798,131.78639
1.6852136,129.77527
1.6055026,130.94554
1.7117499,129.88876
1.7294728,138.15875
1.7625346,136.88515
1.7398677,138.23763
1.701016,142.2526
1.755943,144.23009
1.735239,140.09442
1.7706847,139.24684
1.6109986,143.15018
1.657022,143.98692
1.7987434,139.64163
1.6732054,142.26405
1.6227974,141.27231
1.683132,141.14345
1.6578999,137.3905
1.654977,138.60684
1.5285672,136.04965
1.4496776,135.71964
1.5228634,135.32729
1.3522052,134.88872
1.4440662,130.67374
1.4629072,133.34386
1.3243189,127.06685
1.3847138,128.28603
1.3930084,125.655304
1.3578668,125.24568
1.4034023,124.10702
1.2949471,122.40004
1.2790669,119.10091
1.256508,117.762115
1.3263462,115.38981
1.1860584,113.77546
1.289928,111.244255
1.3257012,109.27095
1.282155,104.87209
1.2568908,105.716324
1.2606353,105.607765
1.1237698,100.27226
1.2070593,102.31101
1.2016871,99.519966
1.0626882,96.25317
1.0428678,96.25823
0.9608844,92.878265
1.0658228,92.63619
0.8848541,88.19097
0.9443538,87.444725
0.88025683,87.71597
0.9153452,84.52984
0.93347484,86.60532
0.8467795,80.29344
0.8981209,80.70354
0.8565319,76.96889
0.91394037,73.56799
0.8771615,72.355965
0.81866974,72.49648
0.76724046,72.78548
0.77595156,67.41259
0.7406036,68.27287
0.8882166,67.079666
0.82130444,66.96887
0.8204873,62.00791
0.8448385,65.86112
0.7531182,56.52931
0.6881104,62.216324
0.6161685,62.10158
0.7018158,59.69667
0.7382055,64.37504
0.6828164,66.764084
0.45370358,61.279366
0.52013177,61.188904
0.46841857,65.832924
0.44387075,63.881443
0.58710575,63.413597
0.42929614,63.564243
0.55750364,67.28024
0.5668171,68.94183
0.65912735,70.34359
0.65559584,75.33348
0.6909843,76.941475
0.70781356,81.675934
0.8101003,81.21074
0.9266033,89.78917
0.992878,88.62782
0.98875856,92.27917
1.192153,95.463646
1.2818269,99.281906
1.3452172,104.33715
1.4547335,105.83583
1.4374942,109.89447
1.6183044,112.87829
1.6396966,117.17059
1.5969125,116.5937
1.7694721,123.13472
1.7829443,123.45715
1.8677275,126.25887
1.9434674,127.64626
1.8907074,134.63611
1.8754042,134.17369
1.9699475,134.75096
1.9653736,138.1747
1.9229964,140.69289
1.9492452,138.74527
1.9756697,140.28835
1.8548019,138.56499
2.0097878,142.02437
1.933806,142.6735
1.9729708,140.36633
1.7915199,142.01996
1.9537984,141.90654
1.865553,142.00407
1.8010485,139.47543
1.7698897,139.6114
1.8157804,136.13686
1.7905418,142.22517
1.7391415,139.04427
1.7791964,137.8783
1.6937966,131.95775
1.6506131,128.6108
1.5791023,131.78966
1.5856637,131.56319
1.4594749,127.55613
1.553416,124.9823
1.5285654,127.24755
1.4665279,122.22544
1.560763,121.99447
1.5298847,118.032326
1.5179567,117.13202
1.5223198,114.6081
1.5375539,113.89154
1.5202366,111.59745
1.4900999,107.123566
1.3967174,109.02387
1.4426432,101.48714
1.4084096,103.43057
1.4134443,103.39271
1.3109437,101.9617
1.3282875,98.96357
1.3104042,100.78637
1.2500143,95.84974
1.1951311,95.31842
1.1516439,92.89939
1.0698676,92.466156
1.1138084,87.955795
0.87304777,83.154015
0.9890172,84.60427
1.0357592,81.6934
0.8121452,78.99344
0.91989565,77.74743
0.9725579,75.44396
0.9087392,73.87962
0.92588556,74.38264
0.9096579,70.90719
0.9863564,70.27902
0.9193412,68.348755
0.89474994,70.222786
0.83550763,63.348145
0.81201094,65.5957
0.88160014,63.64543
0.9916064,64.732635
0.73816067,65.67353
0.69854915,66.08437
0.7555503,63.54312
0.77393234,59.42765
0.7538466,57.54311
0.64175195,59.65036
0.5378993,63.051353
0.56881213,59.12187
0.46374977,67.73304
0.56364787,62.415016
0.3927443,66.384056
0.51630074,67.145744
0.44586512,69.482086
0.5273031,72.835686
0.5067808,74.44685
0.6108397,77.397194
0.6198266,74.32919
0.7160759,78.36967
0.8425154,79.52697
0.8691089,85.8872
0.77855486,85.85242
1.0008825,87.81953
1.0501643,93.51952
1.1856014,98.3158
1.2055784,99.93794
1.2752723,104.43085
1.3665243,106.626724
1.4744195,109.67928
1.5321099,112.4019
1.5807447,112.5065
1.4573274,122.18799
1.6627136,125.61238
1.6974425,118.20813
1.7879889,128.05795
1.7696697,130.44707
1.7834002,135.76212
1.7873263,132.097
1.8596559,136.21729
1.8454713,139.25787
1.8260237,137.82138
1.6784962,139.13573
1.8802716,143.28464
1.7834542,141.64232
1.9584289,138.92986
1.7588677,145.3405
1.844803,142.18361
1.7723913,142.03091
1.6544297,138.04538
1.7265404,141.84848
1.6790512,138.31569
1.6481093,137.31068
1.6657519,135.74251
1.5525144,136.84282
1.6148632,135.54517
1.475789,134.4412
1.4807341,132.88028
1.50667,130.43764
1.4218502,125.70682
1.2778774,127.16524
1.3430918,132.50998
1.4652638,126.34357
1.29087,122.16977
1.3331268,123.30616
1.299654,119.88771
1.2839184,116.207275
1.3590751,118.22108
1.1983184,116.46941
1.2187383,115.24164
1.2458786,114.28662
1.3163989,106.360016
1.192799,105.81721
1.2000556,106.23081
1.0559945,104.090576
1.1522452,100.19279
1.1682868,101.318954
1.0719993,96.894806
0.94897,96.2251
0.96685874,94.00398
0.9205864,94.3789
0.8601354,90.57248
0.8574913,89.526566
0.7884001,89.40782
0.81574404,85.03496
0.68010014,82.17006
0.6930904,81.30811
0.61650145,82.08107
0.4984671,80.28185
0.6811367,77.59068
0.6066536,74.58746
0.55584145,71.91708
0.52189183,73.93958
0.5954866,73.403564
0.55690247,70.95188
0.67783433,68.65339
0.53854734,63.708633
0.54600465,66.0904
0.64417565,65.579956
0.55638045,64.5301
0.51192653,58.732445
0.43715662,63.339214
0.41299415,60.112694
0.38553843,61.823368
0.30679977,57.40362
0.26103076,62.161503
0.18085971,62.377678
0.17611313,66.666504
0.12767544,61.52416
0.13331856,62.98107
0.25303996,62.31044
0.24188243,70.60756
0.14105581,67.16888
0.12118559,73.222786
0.22711688,74.33143
0.23946668,77.21078
0.3504678,76.96795
0.36058712,80.264435
0.35951588,85.62352
0.5673703,89.10808
0.5812256,88.34318
0.68642765,92.795364
0.8236208,100.6597
0.86601204,97.927574
0.9155212,101.070816
1.0115176,103.21727
1.082066,110.24837
1.186919,110.89067
1.2651435,112.914314
1.3030914,119.32397
1.3028344,123.30389
1.3268771,123.03971
1.3477288,132.17577
1.4050874,132.64946
1.4471053,134.47737
1.4727124,134.69263
1.5162258,135.843
1.5161042,135.68434
1.5497544,141.34906
1.4923267,138.91682
1.5011686,141.54771
1.5064461,145.03853
1.4432071,139.85252
1.3900628,144.07849
1.5175965,145.72343
1.3912213,143.66267
1.4309999,141.57303
1.3190633,140.31096
1.3268796,138.50044
1.2947073,137.23105
1.3197072,139.41647
1.2765901,138.88147
1.162625,136.69951
1.1540346,132.60156
1.1004405,133.78043
1.1699258,132.5253
1.065414,132.69836
1.047473,129.49733
1.0094001,126.098274
1.0117967,133.4211
1.0578185,123.450096
0.96110255,117.847336
1.0123906,117.93384
0.8909197,123.20684
1.0297816,117.49865
0.97396374,119.53169
0.912773,114.31787
0.8649244,112.83059
0.84228665,107.40541
0.9076451,105.17361
0.8850568,104.674416
0.77096677,105.72685
0.799209,101.80364
0.8416588,95.950264
0.70355237,98.36914
0.5978548,94.3393
0.49797007,96.15035
0.614994,96.820114
0.64618546,90.7449
0.59208006,91.96243
0.39310282,91.649414
0.4936372,90.14574
0.32687902,87.05823
0.33336076,81.80481
0.32031393,82.025055
0.4390056,77.18534
0.35597715,75.05732
0.27759767,74.21899
0.38451672,72.90541
0.34519437,73.863434
0.33123705,68.30282
0.33911374,70.49987
0.29112384,65.22395
0.3041246,66.30746
0.27328685,67.751144
0.21966209,65.08865
0.28839514,67.490715
0.35108802,61.95983
0.2601161,63.16409
0.13097389,63.112
0.13908471,62.344917
0.004359286,62.68027
0.025620282,63.44827
0.036102735,60.439972
0.016738314,62.3977
-0.061136052,62.039173
-0.022334607,66.16557
0.017883752,65.05939
-0.022308838,66.14047
-0.026787614,66.936386
-0.02086214,68.4597
0.10291959,74.56421
-0.0048406045,74.426094
0.11679436,74.621346
0.18566696,82.641205
0.20952083,79.43879
0.3434213,82.18675
0.402234,88.23286
0.43087852,87.32101
0.6508164,95.06951
0.7544052,96.08608
0.6988467,96.779236
0.7424959,106.42206
0.85996145,106.25854
0.99636906,109.34102
0.94954175,113.78363
1.1144478,119.061485
1.1013031,119.33671
1.1739447,124.36348
1.3053352,126.00804
1.3487504,132.97137
1.3730159,130.98694
1.3463044,132.38744
1.2445922,137.43149
1.2809651,137.57523
1.388134,137.8435
1.4649711,140.3782
1.3079528,143.47847
1.352241,140.67274
1.4980094,141.68756
1.4205573,138.21477
1.49565,142.08
1.3248038,143.84062
1.3830477,141.25137
1.3658949,140.55034
1.2840098,141.23697
1.2498682,143.81662
1.2738868,144.19699
1.2306973,135.14491
1.1951236,142.19365
1.1330138,135.92955
1.2169294,135.24796
1.1269553,135.82712
1.0549743,134.52904
1.0924952,133.35081
1.1482335,129.30168
0.89159477,125.030975
0.9972091,126.400215
0.9841015,122.95427
1.0281109,123.096
0.9391226,121.80866
0.87429637,117.377716
1.0619824,114.530754
1.0358315,115.66589
0.9044235,114.358864
0.8713856,109.64754
0.87386185,108.0086
0.8093834,108.95427
0.9539323,105.827995
0.7987197,107.12798
0.7829247,103.162796
0.7254511,97.74887
0.7217997,96.06852
0.70158553,96.70946
0.6790536,96.138954
0.6348713,91.92241
0.65894693,92.73141
0.5728743,89.798805
0.4023566,90.54216
0.558094,84.27316
0.5405453,83.163956
0.51897794,80.22416
0.53786194,77.97133
0.4489552,78.964165
0.48371872,76.441635
0.43610013,70.96916
0.5658758,69.95638
0.35194305,73.86282
0.4457506,70.548195
0.53501123,67.3792
0.533912,67.97863
0.40544438,67.95741
0.3684049,60.782692
0.40807116,64.0423
0.3831604,65.52049
0.3991283,60.96979
0.4225543,63.793232
0.3374985,59.11739
0.28258696,61.94974
0.26686925,63.212654
0.26953757,58.99571
0.19574068,61.288795
0.15285315,62.298782
0.18743142,63.594936
0.04781116,66.72895
0.13568519,64.25549
0.18356563,69.20705
0.12330811,72.309746
0.15957704,72.86732
0.29021546,73.41132
0.32661074,76.855896
0.30385625,80.69674
0.47667694,81.067604
0.52900666,83.08601
0.5494867,88.21111
0.65384704,89.32817
0.69637287,94.853905
0.8256306,97.6686
0.92496717,99.952225
0.9832963,100.43574
1.0545369,109.87226
1.1774349,109.06957
1.2908742,111.018456
1.3485993,113.30772
1.2860271,119.45471
1.3784506,122.339195
1.588922,123.688034
1.5691365,126.147835
1.4917747,129.55939
1.6326213,134.6564
1.559963,135.01375
1.5745664,134.96451
1.6127732,136.22476
1.6197712,135.43826
1.6343716,139.75659
1.6954511,138.3782
1.7059449,144.65446
1.6362365,145.05486
1.7158571,141.05302
1.5853901,143.1467
1.5879006,142.85515
1.596636,141.59308
1.6819183,134.27603
1.4818643,141.2563
1.5984513,143.40727
1.4844129,141.23148
1.5029762,137.51073
1.5690255,142.08562
1.4065323,137.29193
1.4705199,132.7123
1.3746644,132.78899
1.2992877,131.51581
1.3229983,125.23462
1.3028939,127.745926
1.2152582,125.06035
1.3807309,121.69196
1.3902693,121.63613
1.3872674,122.72649
1.4030329,118.07408
1.3549242,116.328064
1.2114403,113.61195
1.22349,111.75565
1.2474413,112.06261
1.2222859,113.66514
1.2008715,110.63872
1.1927336,106.64829
1.1235083,105.0359
1.2072889,104.078766
1.2007134,98.81043
1.0890985,95.57103
1.0777653,96.78284
1.0764346,95.497536
0.8800988,93.62099
1.0505583,92.38713
0.88480204,88.900856
0.9509347,90.542786
0.7981871,82.928665
0.87975717,80.9466
0.8841609,83.876625
0.8286771,80.31522
0.80522704,79.951584
0.87543285,81.67547
0.88790226,74.428154
0.9052462,73.73845
0.84161526,72.51689
0.83707356,68.77115
0.8178004,67.5983
0.7639091,66.568
0.78945297,63.831947
0.7721869,63.888943
0.7737312,65.70746
0.77759075,64.83835
0.775119,61.307003
0.7777628,60.167965
0.70741254,63.384785
0.6068978,62.695263
0.69609916,59.74788
0.66592026,57.879723
0.548505,64.255936
0.45750177,64.04356
0.4457793,63.80881
0.4458934,61.21974
0.51898897,66.59527
0.41476887,66.80375
0.48256898,69.4874
0.47857895,70.49183
0.5332852,72.25066
0.54748636,75.48755
0.7104065,78.92324
0.7966266,80.061035
0.9509915,82.593765
0.9719116,83.38981
0.9872882,88.96697
1.1360431,92.978775
1.120415,97.07433
1.2838318,98.45833
1.3028505,103.42217
1.5001271,105.82793
1.3973353,112.62797
1.5183706,113.48112
1.6411806,112.90253
1.6337488,116.089
1.7243338,124.69243
1.7614563,124.65683
1.7761068,129.18008
1.8583204,130.70978
1.8090885,129.42542
1.895692,137.35687
1.8856711,137.43591
1.9611487,139.53166
1.9376955,137.84552
1.9053601,140.64224
1.9338912,139.32565
1.9169159,139.86
2.0400734,144.03285
1.9449853,139.86967
1.8673486,144.75139
1.851843,140.83586
2.0232234,140.11249
1.781161,139.87209
1.7783335,140.62619
1.853972,140.90344
1.7391312,141.46353
1.8097636,139.97697
1.7086619,134.65042
1.664065,133.44876
1.7029765,133.50577
1.7498633,127.34157
1.6645705,129.01779
1.686083,130.91162
1.6063238,128.01224
1.4790883,126.145966
1.6865569,124.44571
1.5071393,120.23903
1.6453447,120.51712
1.4153379,120.18615
1.3993148,115.76108
1.6164242,113.85016
1.4397537,113.92802
1.535619,111.70507
1.400588,110.46935
1.3910532,107.06552
1.4117252,105.12822
1.4151876,103.6873
1.3871286,102.32811
1.2730268,102.571396
1.2871904,100.09409
1.3216803,94.905815
1.1052724,95.59971
1.1839823,96.92688
1.168637,90.61368
1.0939163,90.54496
1.1374234,86.987755
1.1783878,85.163345
0.98699206,86.727295
0.95093274,79.23023
1.0475249,79.66797
0.805064,81.32924
0.9975989,78.888084
0.8996558,75.46616
0.9032998,77.721176
0.88367987,71.7671
0.8953905,74.30882
1.008387,73.05369
1.0079412,66.107635
0.8446179,64.77369
0.8538,65.49163
0.9595578,66.547134
0.8554188,64.75116
0.7364542,65.691025
0.7759724,59.416298
0.7880206,60.480476
0.6748639,58.328815
0.66320354,61.110886
0.65743643,59.774048
0.70949274,60.862617
0.63417774,63.22522
0.56258446,60.37728
0.5433795,62.932907
0.5152081,61.11292
0.5199932,66.293015
0.47216868,67.77952
0.5092609,68.35652
0.47611332,69.839035
0.5800116,75.29926
0.63039875,74.12749
0.6844323,77.1453
0.8098218,80.28003
0.7945292,85.234856
0.9057419,85.32242
1.0651671,87.81942
1.0454304,96.378334
1.2461302,98.3864
1.2690244,99.98118
1.208256,107.32188
1.4373842,108.24067
1.5005683,114.807465
1.5222261,110.7902
1.5433708,117.51189
1.6768332,119.58089
1.7132115,119.187996
1.6754975,125.59019
1.7222041,126.505844
1.7014668,129.44485
1.7391942,131.13327
1.8461354,138.20506
1.93794,134.30602
1.8778989,134.57988
1.8724254,138.09256
1.8821033,141.91591
1.8623688,144.58699
1.8628606,143.49474
1.8342704,141.02736
1.8496263,143.71684
1.7713069,143.61626
1.7678094,138.61949
1.8338709,142.9883
1.8070983,142.12166
1.7984458,142.13658
1.6332006,139.84038
1.6193045,136.639
1.5388508,137.54115
1.532495,141.62749
1.599595,135.21545
1.4548019,135.93967
1.5268791,131.80731
1.5491813,128.32213
1.4988142,129.3365
1.3321652,126.38286
1.411848,122.91888
1.3776212,125.63545
1.3334996,122.036705
1.2741805,118.050255
1.3062977,115.22705
1.3707522,116.56126
1.3978173,118.976036
1.3862917,109.60197
1.3294077,109.66394
1.1926463,111.33193
1.327092,103.884926
1.2686161,108.57567
1.224553,102.09259
1.0288211,102.23193
1.0975018,100.91494
1.0859089,97.51716
1.0228612,100.76792
0.9100731,91.8976
0.9411126,94.52079
0.93702984,90.73378
0.76075727,88.76805
0.9215719,91.50308
0.7122337,89.91155
0.7924597,86.11215
0.64181995,83.80136
0.7369377,79.82677
0.727144,79.6922
0.66507524,75.92586
0.7117121,76.00466
0.6180577,74.13948
0.7208042,71.6311
0.67436534,67.92635
0.6296198,64.15025
0.68777376,67.51833
0.70666015,66.815285
0.52155143,63.866196
0.63712543,64.40029
0.64663696,63.457027
0.39756963,64.91132
0.46825904,60.077007
0.49821192,62.277367
0.4996997,62.48591
0.38451177,62.792206
0.3460206,61.797478
0.35481554,66.1433
0.37272814,63.86672
0.28377476,62.759888
0.25883126,64.526634
0.20574284,68.62264
0.17428099,63.25719
0.14846358,67.416916
0.40495726,70.22792
0.29958594,74.23439
0.33796003,75.535904
0.33383438,79.11285
0.46180215,78.408646
0.570565,84.79018
0.6101721,90.01425
0.62986153,88.87887
0.6566273,91.42257
0.78945214,92.56551
0.9099882,100.72233
0.9378082,103.744446
0.94028246,107.1825
1.0982635,107.0807
1.1951216,111.53345
1.2896166,113.924126
1.2143122,117.39781
1.3464011,124.08915
1.419752,126.012825
1.3726019,125.65226
1.5000105,125.9383
1.5262022,134.31178
1.4879186,136.6948
1.4271382,135.68832
1.6333061,135.50658
1.4992324,135.65181
1.5863798,142.97258
1.5198883,142.66203
1.4422057,143.38606
1.5361724,146.98427
1.5309453,145.09428
1.4457004,143.84909
1.4510251,142.13019
1.4491537,140.51949
1.4150363,140.4151
1.4198849,141.45581
1.304315,141.05156
1.169935,137.70967
1.195263,143.14308
1.2049824,138.6217
1.3343086,133.82474
1.2189898,138.25041
1.1380645,130.57108
1.1013938,131.52661
1.0583205,124.786674
1.0303419,125.193954
1.0267079,128.4825
1.0262101,124.00424
1.0493938,120.9115
1.09683,119.60712
0.961368,119.862305
1.0812159,119.05146
0.9414601,116.7258
0.97556907,113.91764
0.8652008,108.892975
0.9193542,111.30223
0.85408443,106.902275
0.93603647,105.70329
0.9090806,101.84447
0.87491935,99.87183
0.7423072,97.266464
0.7846755,101.77636
0.7246823,94.44692
0.6064005,96.46378
0.62870365,92.77093
0.568454,94.44251
0.55098784,86.08913
0.5393133,86.08033
0.55376166,89.533134
0.37537476,82.08083
0.3749769,85.32372
0.39336094,81.92177
0.34704956,77.4908
0.41418454,79.82458
0.461016,75.92033
0.29416433,76.77919
0.35576358,75.36217
0.4397839,68.216705
0.27291125,70.73001
0.39443088,69.99366
0.34471974,66.814865
0.228059,63.002377
0.4477068,65.12976
0.40007797,58.741035
0.031938028,63.69907
0.15676224,60.220016
0.2096231,59.931095
0.160498,62.740383
0.10310401,65.273964
0.027340306,61.862392
0.13394968,59.28378
0.1012744,62.329784
0.0033490376,66.02104
0.04007629,64.554306
0.0015163929,62.64036
-0.10677172,68.886894
-0.030931724,68.92092
0.06701927,69.91114
-0.083222695,68.816956
0.073680684,69.16144
0.15749083,81.02815
0.26172435,80.78514
0.17254002,83.13402
0.3209012,85.97206
0.30391207,87.38455
0.5574005,92.90283
0.6127596,97.13181
0.70449483,98.69116
0.8070243,100.47644
0.77339035,105.190445
0.9525871,107.39682
0.94966817,108.75593
1.0399872,111.27999
1.0707426,116.60508
1.2484586,121.37813
1.0939982,123.51951
1.1464214,126.84998
1.2335153,125.99798
1.2833589,132.86761
1.283964,131.3979
1.3549061,137.06415
1.3345883,134.74158
1.4057218,136.86884
1.4368922,135.61322
1.3903625,143.42084
1.4233942,141.94223
1.2303668,138.70671
1.354642,145.70256
1.2958212,144.06998
1.2778921,146.55511
1.2748928,139.22275
1.3118157,144.13023
1.2889246,139.213
1.2605883,141.33969
1.2103655,140.41847
1.1472259,142.49838
1.096344,142.41751
1.0625701,133.91965
1.0887929,134.46704
1.1032063,134.31334
1.0822372,131.02206
1.0713538,130.18002
0.96470624,130.29123
0.95656973,122.138985
0.8884377,125.832054
0.987338,122.46671
0.9966685,118.49185
0.9983424,120.07964
0.84292775,117.08015
1.0863246,115.76151
0.86841184,112.1794
0.9001708,112.51145
0.8216427,111.34183
0.82083815,106.87796
0.7850596,105.30155
0.84026515,102.52701
0.8253694,102.69709
0.758192,102.965904
0.7629854,101.96417
0.5908576,98.88543
0.65897787,93.95475
0.72940344,93.868385
0.5868548,92.55315
0.59790164,89.648
0.4631803,89.02424
0.4734714,89.816925
0.45503092,84.368065
0.47623706,81.645454
0.34965864,83.91621
0.40241992,83.634
0.48937932,77.737816
0.42826885,74.399185
0.28979382,76.697784
0.42330748,77.29795
0.44416118,74.911255
0.42295355,65.59813
0.45027223,66.30834
0.37518996,72.72939
0.3516786,70.183464
0.37650415,61.92289
0.3736032,62.668053
0.23763712,64.006836
0.37135163,62.829956
0.24391007,61.684914
0.27586836,58.708733
0.2017234,62.52143
0.22298165,66.765594
0.20527323,63.618965
0.0864553,64.32112
0.13681385,59.275272
0.11183798,65.94276
0.048433095,66.06303
0.037961148,66.20287
0.10472531,73.88977
0.08767359,74.47156
0.08985916,70.02506
0.21668017,72.23459
0.27016443,75.19113
0.25232297,77.43387
0.26879522,82.90064
0.362457,83.023026
0.5132733,88.03645
0.52689666,93.94702
0.697599,92.56678
0.7922074,99.07487
0.89310515,98.30332
0.90215755,107.30165
1.1277983,109.434235
1.1807938,110.05419
1.1439375,111.255394
1.4004705,116.71056
1.391223,119.96099
1.4289707,122.83142
1.4271591,126.054375
1.5678997,126.93213
1.615076,132.6027
1.4861759,129.93689
1.5286746,133.40453
1.6460146,134.68422
1.6168159,138.50182
1.5536938,139.67581
1.5969871,141.59253
1.566508,140.62271
1.5276973,143.02588
1.4568962,141.5135
1.5902389,141.83589
1.6199749,143.2268
1.5424104,141.62085
1.5803945,143.73337
1.6808006,140.50941
1.5018559,138.88269
1.4553138,139.47888
1.4465137,141.55705
1.3531326,140.64374
1.3942451,139.61612
1.4972768,140.28447
1.3828238,135.10384
1.2535361,135.8061
1.4134294,127.75331
1.3595939,124.4673
1.3477592,128.2925
1.3008139,124.60763
1.2686789,123.430405
1.2256141,125.26698
1.1529995,117.89311
1.2559564,117.52491
1.2418787,116.996765
1.2177882,116.41878
1.2097021,113.376686
1.2217944,113.825005
1.2279369,111.057365
1.1815295,107.38987
1.1609101,106.12064
1.1872061,103.09226
1.0765142,103.112144
1.1103555,105.6332
1.0441699,96.21652
1.1055874,99.41328
0.9011198,95.39924
0.98046625,95.07046
0.87672794,91.715324
0.84876347,92.899765
0.9136604,89.04107
0.926558,89.907616
0.7211042,84.02947
0.74742204,83.65847
0.92621696,76.35323
0.8121239,77.648056
0.8664145,76.33018
0.7436343,78.224144
0.7903773,70.826385
0.6884064,72.629906
0.7709014,69.88876
0.79246974,71.00806
0.68706304,72.9075
0.64290434,69.119026
0.7553661,68.675995
0.6935491,67.652176
0.78290755,59.187267
0.69907755,63.469982
0.7545835,61.66054
0.59428495,61.866993
0.5380568,62.440502
0.6170828,61.319126
0.4165146,64.4649
0.48300758,60.211796
0.5402298,65.88663
0.47061145,64.94905
0.39409173,63.25129
0.41773927,66.73689
0.3984463,66.89466
0.38347876,65.01274
0.5199903,71.64578
0.5027691,73.27186
0.62670946,74.3394
0.55493355,77.730156
0.6741713,80.526955
0.7982892,81.733505
0.9194294,82.02784
0.87321156,88.69222
1.0153799,91.507744
1.0209718,94.18676
1.1897016,98.65446
1.3073146,101.51309
1.3988435,102.849754
1.5061045,111.42109
1.5055562,112.58387
1.5813037,112.95192
1.5945228,119.02413
1.7485461,124.07408
1.7277857,125.21582
1.8320838,128.38472
1.7489792,129.63411
1.8168082,129.61661
1.7203679,132.98685
1.9357799,132.08075
1.9730684,137.3526
1.9782801,138.2604
1.9242557,141.56844
1.9909853,141.79034
1.9219621,143.5894
1.8144766,144.3432
1.7921945,141.33347
1.8573104,143.66505
2.0308847,141.18016
1.8121455,141.13963
1.8365446,140.01576
1.7412579,139.5458
1.8176854,143.93199
1.8280092,139.71678
1.7681414,139.57399
1.794514,137.80107
1.7480752,135.08336
1.666629,131.32468
1.7132431,134.42348
1.6096169,126.94471
1.6277287,131.14984
1.6202439,130.37137
1.5814213,126.097755
1.524606,125.41778
1.580092,125.99124
1.5546262,117.259224
1.4678754,117.904144
1.477003,116.35046
1.5726087,115.27341
1.4192579,116.98975
1.4726425,111.53082
1.473871,114.85389
1.467578,104.571625
1.3677411,105.35568
1.4291689,104.945984
1.337573,104.43292
1.3964621,106.356705
1.3097028,98.81414
1.3294708,98.237404
1.3023438,90.655876
1.1918119,91.176674
1.133774,92.10225
1.0895474,87.05505
1.0148115,88.57146
1.0212477,85.626595
0.9689921,83.65749
0.9584662,81.8062
1.029637,81.51402
0.94999665,78.751854
0.9336951,79.014114
1.0156138,74.81133
0.914921,73.27649
1.0150514,75.00301
0.93500006,72.33835
0.84976125,68.94842
0.84101707,66.42263
0.96599513,66.034966
0.8818661,66.65474
0.81424147,62.07524
0.8514765,63.271667
0.83666784,65.07315
0.75551236,62.371735
0.7496551,63.203846
0.88456607,58.47758
0.78647107,58.67931
0.6414217,62.691692
0.5829768,63.085712
0.6295084,64.771805
0.6391003,63.296246
0.639655,63.23176
0.50256824,68.612335
0.49075893,66.03269
0.51527065,68.95378
0.58158374,68.9043
0.601832,72.642654
0.61708874,72.25924
0.60803646,78.92587
0.72977334,79.05307
0.73537654,81.27329
0.8668824,87.04066
0.98803395,89.29481
0.9315305,90.87914
1.0934613,94.63354
1.1096289,91.33669
1.2433082,103.04025
1.489429,103.28456
1.4603738,106.314186
1.5924921,111.0529
1.5790513,112.5086
1.646117,117.5055
1.6777444,122.03021
1.8482819,124.18691
1.7388287,124.86037
1.8411541,126.676025
1.9186391,128.19289
1.8318913,135.52882
1.9103727,133.41693
1.6967568,136.79305
1.8937398,137.47064
1.8657789,137.9234
1.8691467,138.1339
1.874052,139.05406
1.9302101,142.50975
1.9639841,142.05461
1.8515227,142.1492
1.8081319,139.94774
1.8790681,142.7475
1.8643383,146.01048
1.797715,138.91725
1.6668633,142.50487
1.7734858,142.46147
1.6171956,136.96518
1.7665725,137.53366
1.5489949,136.40836
1.5586221,132.87996
1.5755966,134.50522
1.5776216,136.44856
1.6510477,128.8392
1.6151669,130.05171
1.4790393,128.30528
1.3579575,121.44879
1.4304576,123.74796
1.3980653,120.0933
1.3540078,117.396484
1.3498448,118.7847
1.3662057,115.56181
1.4345407,109.957085
1.327735,111.22355
1.299376,110.05943
1.3488823,110.853424
1.2611953,105.234634
1.1750598,103.303444
1.2416122,104.792496
1.2773663,104.149506
1.2030472,99.45198
1.1652299,98.81811
1.1065335,96.963
0.9633703,92.26539
0.83602226,92.95203
1.0182412,94.4259
0.790699,90.68917
0.8617474,84.12316
0.84920233,85.021904
0.9161162,87.47294
0.7846003,81.53478
0.8028049,81.3992
0.7145845,75.052666
0.65982616,77.287346
0.8110285,74.09591
0.76439834,74.81517
0.7374028,70.92766
0.7416539,71.16622
0.7859644,70.07977
0.73218894,71.5253
0.60807955,64.09925
0.608149,64.94643
0.6442846,63.756573
0.6350462,61.671734
0.60212433,63.632744
0.591838,63.428417
0.5409498,63.88032
0.4375793,62.956776
0.41633847,61.494682
0.4159038,63.016846
0.32016924,64.73938
0.3866196,59.041817
0.23623122,66.62962
0.26054692,64.79244
0.24219857,69.64335
0.24981579,66.04265
0.23557322,73.6907
0.3164371,71.518616
0.32600644,74.36706
0.29626352,75.28368
0.4402742,77.51058
0.5133246,82.21349
0.48656097,85.6618
0.57526755,87.977745
0.7794703,89.170685
0.8166039,94.768196
0.87261134,94.338234
0.90599275,99.8847
1.0309222,104.13317
1.0940175,104.25576
1.0740293,112.92707
1.3090731,109.47144
1.3264014,116.0111
1.3742108,121.26253
1.4087781,119.22297
1.4599235,126.16878
1.4818269,127.36657
1.5797178,130.08334
1.5802503,131.39665
1.5487427,137.8448
1.5162865,134.32922
1.5022218,137.0126
1.5533555,138.67697
1.7382207,140.83731
1.5646434,140.24689
1.4306455,143.43553
1.5460345,142.50766
1.5280722,141.78181
1.5306492,142.05026
1.4348905,142.93022
1.4850745,144.14113
1.3567476,138.22235
1.3171659,143.57022
1.3933253,139.73698
1.2866676,136.05936
1.3418051,133.51291
1.3075991,137.35545
1.3107085,135.44644
1.2706897,134.59547
1.2844043,136.9278
1.1743659,135.59604
1.1376861,129.3058
1.1579163,129.51889
1.0419886,122.70232
1.081251,124.66086
1.0684434,120.406975
1.0828652,118.03741
1.0619177,119.25692
1.0870675,117.262276
0.98976034,113.15355
0.98243356,115.971016
0.9993159,111.35545
0.9518068,111.49708
1.0365227,108.64581
0.90997624,103.523094
0.937103,109.0831
0.9766041,99.475266
0.8051193,101.30907
0.77893925,98.16011
0.6965151,98.98766
0.7179452,93.21987
0.68408877,90.2772
0.58908236,90.481544
0.5855201,90.58347
0.5715211,91.13861
0.35673332,91.26762
0.49667504,83.80409
0.5008631,81.665825
0.39433137,82.943924
0.4367002,76.93554
0.3298063,78.58719
0.29202226,76.88741
0.44812256,74.54376
0.2915191,75.023476
0.3972674,67.63024
0.44976592,65.05435
0.3918795,70.81736
0.40646148,69.48837
0.3530216,65.3726
0.29765388,62.578102
0.24160735,63.958645
0.29943806,60.84931
0.30874595,61.82771
0.27563348,57.655228
0.24329421,59.090412
0.13849396,64.9215
0.09480727,58.514915
0.13467075,62.57941
-0.002848523,61.846146
0.038193014,62.86931
0.019514712,69.42608
-0.07018972,65.388374
-0.040025815,67.67684
-0.100898266,69.879135
0.062401295,72.68137
0.0038465078,72.293976
0.061686438,73.73187
0.12935646,77.56978
0.107809395,83.81494
0.2970991,79.85688
0.28343543,85.089806
0.3626488,84.84057
0.46067703,93.245674
0.48282173,97.54467
0.70169455,95.37449
0.7591782,103.999275
0.78931725,102.0577
0.8305788,105.91436
0.9769924,110.381256
1.1538374,115.7177
1.1636478,119.748375
1.1323462,123.248665
1.1347783,127.030624
1.1944354,125.162575
1.3296316,130.72101
1.3641578,132.52617
1.327692,132.06801
1.3959106,129.04492
1.3716935,136.08781
1.377251,138.09044
1.3409635,133.61899
1.4073371,136.28928
1.2806517,141.54942
1.3917376,140.333
1.325401,144.0575
1.441781,142.55629
1.2810887,139.14583
1.3363965,139.68579
1.3296357,141.72697
1.3235162,139.93437
1.2158899,140.79036
1.2974284,139.56201
1.2114127,138.22227
1.1358646,139.44653
1.0717293,134.02501
1.1076276,138.37471
1.0069231,131.2644
1.0015104,129.74591
1.0201099,133.07939
1.0545963,126.92999
0.94534874,126.66303
0.9264997,126.59757
0.8917724,122.95342
0.929771,119.89389
0.8534106,118.2506
0.93432325,116.27437
0.9263259,115.326614
0.94037265,116.75103
0.95054626,113.66724
0.86549395,110.46261
0.79092497,104.92682
0.8533451,105.38975
0.85324246,104.397484
0.7814327,102.00344
0.76324767,99.02524
0.74895984,98.95771
0.7305207,98.26724
0.6107697,92.75581
0.5360394,96.06047
0.52483845,92.69647
0.5907083,91.778885
0.5392835,88.21817
0.49581397,90.84652
0.48754197,86.35051
0.47296885,83.74299
0.41570342,80.1749
0.37248346,78.52946
0.43880004,76.67821
0.35471535,76.17155
0.41945076,77.14813
0.34957516,74.78907
0.440902,70.84984
0.41714245,65.6347
0.40061232,68.60385
0.35362244,68.61166
0.4117711,69.07343
0.33157516,67.439865
0.3193941,64.9363
0.3998593,62.393227
0.31225634,63.47315
0.29561892,66.215515
0.30310154,67.26049
0.21120885,57.210114
0.13699414,65.90934
0.26583385,60.188286
0.057010457,62.884098
0.019434066,59.674717
0.13180986,61.916508
0.01353532,63.209915
0.002226963,69.540695
-0.059666015,65.11295
-0.032949913,73.33346
0.061799403,71.6097
0.056923073,74.90593
0.22107963,78.28403
0.24226972,81.88986
0.37663823,78.792595
0.48891997,86.15832
0.48126975,86.617165
0.50320673,91.81799
0.7100969,96.66066
0.70195866,97.817635
0.93264514,99.64331
0.9518699,101.70541
0.9134002,110.32214
1.150567,110.373535
1.2151119,113.98827
1.2505199,116.10645
1.2542437,124.01694
1.4303801,121.865845
1.3802654,123.65545
1.4800199,126.34039
1.394425,130.91258
1.4385118,129.23149
1.4604211,134.41765
1.3964852,136.91827
1.5114491,139.83218
1.4458888,140.02756
1.5671053,141.43988
1.6537238,137.7327
1.5991354,141.90033
1.6585827,145.31033
1.6305401,140.38785
1.5196381,143.16586
1.5579798,145.57971
1.4924415,137.15163
1.4256036,141.38254
1.4612067,140.71458
1.3749169,141.91232
1.3096759,138.90094
1.4907401,140.49197
1.3527405,131.00154
1.3440654,136.36798
1.2947485,132.82611
1.252999,131.43784
1.263528,130.81035
1.2394282,129.86996
1.2439698,130.636
1.1629356,127.549324
1.1454431,123.17678
1.2084394,126.07314
1.175541,120.544106
1.2443424,122.02412
1.0804554,117.77337
1.1829427,118.643745
1.1441536,113.08863
1.2066813,110.70543
1.0862371,107.15357
1.0325465,103.91973
1.1191721,106.025406
1.1040862,108.39562
1.0928006,101.66678
0.99015373,101.61568
0.95262355,96.3017
0.99442214,90.28007
0.9366746,96.34721
0.85805357,96.63974
0.82706314,92.04176
0.87735844,91.95444
0.796236,85.46817
0.8416653,86.01088
0.7251601,85.9235
0.6497564,85.56706
0.5770436,83.39225
0.7195935,78.42733
0.7280728,78.706
0.7293671,73.07017
0.8266025,74.07286
0.66976,72.76985
0.77256304,74.24467
0.6774625,67.53888
0.74310964,70.57685
0.707526,69.55339
0.69702566,65.6415
0.6494703,63.133545
0.6477345,62.680153
0.77658683,60.544155
0.7328583,65.071205
0.588081,60.519466
0.5945611,59.297657
0.6381018,62.396164
0.51992255,61.76826
0.49274376,64.174324
0.34343964,60.79757
0.3533688,61.51935
0.4878915,66.57815
0.38543537,67.022705
0.3535335,68.70473
0.37893525,69.320045
0.4782639,73.982574
0.49126512,72.51067
0.51590556,79.25662
0.62117565,73.298386
0.5617818,79.80632
0.75447583,81.80722
0.8136095,90.707504
0.8847842,86.76611
0.94347626,89.49745
1.0459657,96.176216
1.1807446,104.213326
1.1829225,101.42304
1.4405131,101.787636
1.3721169,108.02315
1.5455593,116.62199
1.6200686,117.17214
1.72798,121.05278
1.5885674,121.4405
1.7131847,125.726685
1.6835368,123.48898
1.8114433,129.20117
1.8456233,132.35034
1.8525835,130.71025
1.8488972,136.73126
1.8594996,138.13716
1.9125943,138.79338
1.9385842,138.81189
2.0219436,142.58688
1.9462874,142.05482
1.936874,139.67569
1.8102895,141.50043
1.8499613,146.3366
1.8669863,146.47789
1.7867904,140.06357
1.8194331,144.7489
1.7736185,136.77687
1.7807264,139.21687
1.7274158,138.44238
1.7458302,139.73598
1.6332942,136.61928
1.6591792,139.60548
1.6881324,133.68164
1.6263734,130.33046
1.6644168,131.6425
1.5838734,126.60704
1.5871196,136.99002
1.53707,124.39747
1.560335,124.66738
1.5132225,123.62102
1.4617548,122.15755
1.5362443,121.17653
1.4346007,121.257904
1.4259185,117.08937
1.3614389,116.278625
1.567659,112.840515
1.4290023,114.56709
1.4625794,109.65125
1.4482485,109.984566
1.4031308,104.47318
1.313018,99.40211
1.3840376,98.503075
1.2896979,101.31272
1.2963126,96.880226
1.2401748,98.68229
1.1194824,95.413605
1.1597106,92.68636
1.1619558,91.44727
1.0496981,91.96669
0.9952468,88.54428
0.9188277,85.61464
0.95997286,81.98862
0.98975414,79.8575
0.939356,78.666565
0.9507551,76.93344
1.0327046,78.55281
0.89185476,72.19773
0.96602714,75.26905
0.81049645,70.187904
0.9077663,71.50965
0.82570636,67.51199
0.9367143,65.009384
0.929075,64.92228
0.91917187,66.21748
0.8662215,65.041214
0.9008343,61.758877
0.87874997,62.790436
0.81844145,64.78305
0.7817539,60.734158
0.7418237,60.580185
0.7616491,58.642994
0.60531324,62.801025
0.59777766,60.922188
0.5625892,65.08945
0.56222653,66.3548
0.57947713,62.86827
0.42699504,67.50538
0.5668305,65.02377
0.4772177,73.02108
0.5971641,72.831055
0.6422304,74.34394
0.63727486,72.647514
0.7820209,78.599686
0.80363184,83.82457
0.85623926,81.37803
1.0154982,88.082794
1.0353826,90.41342
1.160178,93.01652
1.2112783,98.914986
1.3319626,100.443085
1.3600976,105.55098
1.4372293,107.498566
1.5393068,105.66527
1.6734798,116.91613
1.7113662,115.66786
1.7129819,120.969284
1.8031257,123.88075
1.7082912,123.47793
1.9949687,125.90607
1.893089,126.9495
1.9568621,135.16914
1.8998927,132.7796
1.8748056,136.36269
1.8346153,137.28464
1.9651425,140.00325
1.9974502,136.89915
1.9152863,142.57932
2.0094786,137.70094
1.9622089,142.95969
1.9086678,142.18108
1.99251,146.07819
1.7854918,145.74794
1.7486161,143.35007
1.898651,142.01224
1.950127,142.80957
1.7579296,135.8899
1.7464889,137.49918
1.769632,139.09377
1.6435513,133.32
1.6037552,132.88788
1.5003141,131.20192
1.5395637,130.77145
1.6090837,130.70003
1.4890463,129.27274
1.5491424,128.92114
1.4636335,125.74285
1.4404181,123.20542
1.4425403,123.44626
1.3959996,119.95763
1.3789897,119.40093
1.4527329,115.84256
1.3622024,111.797
1.4190274,112.470604
1.3975751,108.54423
1.3641047,113.18502
1.2861625,110.08531
1.3328514,102.59631
1.3084257,105.16126
1.2256844,102.973915
1.1570663,101.63383
1.1768949,98.24121
1.2030289,96.04507
1.1235291,96.3066
1.0537016,86.94204
0.9755409,90.31754
0.9420251,89.06386
0.9281967,85.43438
0.844053,85.14284
0.9147395,82.14622
0.7998323,84.39145
0.8860754,80.98678
0.7864379,78.355774
0.75413734,78.05842
0.8131871,74.96053
0.71048355,78.863914
0.6685211,71.491745
0.67893565,73.476685
0.7643929,71.18091
0.7298893,67.86588
0.7079775,67.18048
0.7341356,64.49963
0.7855259,66.45883
0.6797039,62.656033
0.60009974,63.117504
0.64947265,63.513042
0.6199683,61.988464
0.53944355,66.78716
0.50750947,63.8909
0.4504366,65.74268
0.39669535,63.910007
0.35563478,64.65209
0.3372624,61.404755
0.24734035,61.235085
0.354163,63.444336
0.22429399,66.26339
0.3057783,69.9931
0.490809,68.503525
0.48890063,74.36475
0.4086036,74.64165
0.39612412,80.054886
0.5397236,80.70112
0.53369164,87.11382
0.6509829,87.97788
0.7198782,91.47088
0.8128525,93.14538
0.9815723,96.393456
1.0547068,102.521515
1.0735084,101.03701
1.259451,107.56141
1.2249271,109.625786
1.3912644,109.30797
1.2912167,115.09409
1.4880588,119.604065
1.4117141,120.947174
1.4696294,124.83376
1.5525515,127.96209
1.5319546,126.78988
1.5226734,133.47614
1.6166091,132.8684
1.6512928,132.0607
1.6550597,145.0153
1.6342932,142.35863
1.6476588,141.38786
1.635597,142.67638
1.6658926,142.30608
1.5481375,141.04378
1.5720749,143.2738
1.5699233,142.41624
1.6216695,141.66899
1.502326,143.75897
1.5074275,143.9156
1.5223304,138.88193
1.4543242,140.33232
1.4544154,135.59068
1.4028224,136.3023
1.3045186,137.58356
1.291517,136.95473
1.3099241,131.49712
1.2902229,137.37794
1.2197956,128.60165
1.1701999,132.04141
1.1067106,127.48856
1.079007,127.64593
1.1065252,121.26214
1.1748763,122.034836
1.0966414,119.67216
1.0866005,119.61667
0.9795418,119.15948
1.0864848,117.38171
1.0161457,113.63213
1.0057455,110.726974
1.1386939,108.38563
1.0703385,109.00328
0.86890775,108.26836
0.8148139,104.91122
0.8198335,105.29887
0.9213461,101.306564
0.69752395,99.71543
0.7217173,99.2789
0.6937827,93.31759
0.64121807,94.8233
0.60588074,90.74181
0.6104435,84.92985
0.515996,90.88237
0.47631866,89.59607
0.5799735,83.598274
0.41835308,86.553055
0.45784032,81.16329
0.44013628,75.888405
0.43986788,78.36566
0.4374237,77.2749
0.45003924,72.39811
0.35474545,73.73457
0.4354661,72.63601
0.35843647,66.569756
0.4014376,67.41521
0.37372386,71.542755
0.31584945,64.68891
0.33585832,62.65155
0.3573541,63.50387
0.31640297,62.6964
0.24551718,65.52757
0.23313269,60.544624
0.20105536,65.274025
0.16224864,61.226086
0.1222159,61.101025
0.13435209,62.866302
0.14878903,60.674774
0.022708029,60.70593
0.044169307,66.67375
0.0029336233,68.1512
0.01536081,69.38456
-0.05887117,69.828964
0.04746458,70.65189
0.025296064,71.1872
0.09905092,75.37807
0.111027405,75.538055
0.22136028,76.211105
0.30872163,84.30034
0.3682377,84.29772
0.43763033,88.031044
0.57840955,96.593575
0.6056287,94.831184
0.7018345,97.8768
0.6950428,103.55801
0.86076546,102.92793
0.85606813,111.94625
0.95549506,111.17249
1.0609213,115.921936
1.1513443,118.73353
1.1833849,119.56194
1.3338827,118.21236
1.2089264,127.57837
1.2922194,126.13717
1.3487179,131.5245
1.3236895,131.73671
1.322198,137.33942
1.391104,136.06563
1.4548767,140.06071
1.2694064,141.20041
1.400764,136.91402
1.3533074,141.67218
1.433932,139.92125
1.3913112,140.15872
1.3643315,143.22853
1.347834,143.41713
1.4129045,142.70694
1.3391105,144.52
1.1799998,140.38538
1.2693968,138.20857
1.1972498,137.27869
1.1489635,138.89157
1.1710441,140.12494
1.1551213,132.44571
1.0726367,131.81255
1.0872132,132.03636
1.1739964,132.66098
1.0493187,130.04207
1.0267246,126.06195
0.9868669,128.83766
0.9402747,122.82491
0.9713976,125.35384
0.9213807,120.279236
0.92348695,120.39607
1.00854,118.531944
0.92351043,114.86915
0.8522901,116.06474
0.9101809,116.3511
0.83096594,109.61299
0.9236263,112.65626
0.80019575,106.86446
0.81366605,101.08083
0.7995726,104.889305
0.71515095,101.580536
0.691619,102.67032
0.68202096,99.66348
0.6813603,96.694954
0.62472045,93.434105
0.58626246,92.41191
0.47954223,90.34428
0.53108877,88.868965
0.4159336,92.18078
0.425507,86.213715
0.4745612,84.98168
0.3375573,81.83044
0.33463937,82.8477
0.30319974,75.524086
0.32072446,77.792145
0.48294157,75.30378
0.27631077,71.02344
0.37036878,69.70227
0.31751978,74.71079
0.3229008,70.44932
0.34925294,66.98628
0.35691744,67.42739
0.35772926,65.84902
0.23192778,64.41545
0.30739337,62.48293
0.22171745,60.97321
0.33231393,63.977688
0.18079661,63.687515
0.2657822,54.57336
0.10604093,57.478138
0.0847539,64.96926
0.14927734,62.18028
-0.037683018,67.3011
0.07808263,60.60262
0.07070099,62.139763
0.015029991,65.45057
0.08799263,66.97097
0.072833635,63.92439
-0.009354954,69.4746
0.1133064,72.00853
0.15102561,78.37218
0.18682337,78.99874
0.29946336,81.603935
0.35349458,80.9927
0.5085534,87.06244
0.5175959,89.17615
0.6416369,92.94284
0.60393417,100.76071
0.76413536,101.58094
0.9613899,100.56053
1.0071609,103.362045
1.056806,108.980515
1.1440363,113.350914
1.0976897,115.523674
1.2926917,119.048256
1.360385,124.34055
1.3491902,123.38027
1.39463,125.874214
1.3656676,130.27785
1.4532393,131.8227
1.4187828,135.46948
1.5101577,133.98831
1.558749,139.79573
1.4881698,142.5817
1.5460162,141.81544
1.501985,143.33232
1.515462,142.58037
1.5634736,141.35379
1.5351013,138.9962
1.491395,143.2015
1.4808791,142.21753
1.4394718,141.27739
1.4348377,141.50934
1.4332689,139.01624
1.3832455,138.97496
1.3474373,139.20357
1.4293413,139.6628
1.3193438,138.49165
1.3709537,134.0613
1.3264827,135.1722
1.2291225,132.11325
1.1353844,133.03467
1.1608487,129.93095
1.2176309,128.81616
1.1443698,124.05313
1.1890595,124.59305
1.175299,116.3526
1.2184079,122.04945
1.0824288,117.11646
1.0376452,119.72848
1.2267767,115.65435
1.0637926,113.20673
1.0735887,109.010826
1.099265,108.00269
1.1431361,107.609886
1.0089898,107.43747
1.0564301,105.442535
0.9860266,105.61838
1.0617126,102.8272
0.9580488,98.46615
0.8649524,99.021416
0.8153231,94.868904
0.7863597,92.248215
0.77112204,93.55731
0.8161669,88.16016
0.80248475,86.514046
0.77361566,86.53262
0.6741296,84.77996
0.67052996,85.07825
0.7606204,81.68148
0.59548694,82.21456
0.6739869,76.24041
0.6742812,80.57958
0.72726035,74.71095
0.7337018,73.23035
0.7655529,72.56138
0.5671205,67.92256
0.60244143,70.32737
0.59605587,65.356865
0.58978623,63.828503
0.5903713,65.81624
0.66573733,57.187683
0.5417712,63.08696
0.5386816,58.829506
0.42350376,59.971962
0.60864544,59.405415
0.51863945,63.99196
0.4328919,59.933186
0.5731568,61.847336
0.35257822,62.439754
0.3593728,62.2963
0.46067965,64.656784
0.24999008,65.71546
0.20554939,68.52739
0.37284324,68.477264
0.4628916,71.0513
0.43532762,76.02482
0.4058693,76.96063
0.5662203,77.66979
0.5916328,84.75812
0.6352073,85.97786
0.684513,87.445244
0.85834444,86.76949
0.9216078,93.96747
0.9450924,98.75222
1.1361479,100.15809
1.240081,105.558235
1.1992817,100.87084
1.3755361,108.458984
1.3564749,109.657196
1.4343855,112.77771
1.5822062,116.20955
