ppg,abp
1.0890387,84.66135
1.1120553,82.17182
1.2266047,87.49692
1.3089986,84.421555
1.2922204,89.66601
1.3537875,88.07528
1.4458919,86.78648
1.5024252,93.30253
1.4763081,90.50635
1.6615672,90.82744
1.5443394,94.30254
1.6999089,93.981514
1.6578618,96.31231
1.6445119,96.14599
1.7115775,99.0956
1.7559868,97.83099
1.6597357,97.6344
1.7640326,99.958
1.7877334,97.74344
1.6519504,100.02077
1.7787517,100.8703
1.7064633,101.51708
1.743122,100.69697
1.786593,99.759964
1.6219492,100.28406
1.7366927,99.64965
1.7567149,101.88782
1.6824241,99.46493
1.6505889,102.05894
1.5569421,100.85738
1.6628484,99.8526
1.5135986,97.76983
1.5349107,96.32698
1.5827724,94.10716
1.4567354,94.04416
1.4725751,99.11083
1.4691868,97.775764
1.5170575,94.897224
1.3639352,95.93924
1.4688103,95.13555
1.444838,93.05905
1.375791,91.35218
1.4137645,91.91125
1.315879,92.895
1.4500442,90.09427
1.295683,91.98996
1.4532614,92.34961
1.3753412,87.50073
1.3649786,86.03078
1.3246791,85.45682
1.3775687,89.36908
1.3642336,87.72755
1.2843536,84.23325
1.3578295,85.32522
1.2614655,85.17805
1.2453278,84.74605
1.2726475,84.22446
1.2049543,84.16549
1.2422496,83.19269
1.1868614,82.82381
1.1719832,83.718864
1.1277043,79.35923
1.1182328,78.88601
1.0546511,79.08179
1.0497643,81.99687
0.8772008,77.79664
0.9376707,78.80701
0.9505248,77.58799
0.997253,73.609604
0.92689055,76.88853
0.96026653,71.396324
0.8543915,75.56919
0.982704,74.37927
0.91491973,74.28678
0.8371661,74.266884
0.9632167,73.659355
0.8147869,70.584175
0.93187934,69.08711
0.88983834,68.417435
0.8148785,69.6631
0.96162254,66.89359
0.8688374,67.89082
0.9289875,66.754425
0.83215374,66.46138
0.8548721,69.1535
0.75849247,65.7475
0.6930021,65.6786
0.66627485,69.26849
0.7289581,64.21228
0.72596955,67.11894
0.7068899,67.25036
0.64746016,66.6069
0.57598704,68.86696
0.5527625,67.92169
0.5622569,67.26467
0.5053893,69.3559
0.51824194,68.52652
0.5578022,69.28178
0.6107695,68.81504
0.58009213,68.99552
0.530905,70.39508
0.62608624,69.49731
0.6610397,72.08259
0.714317,74.8371
0.7234077,73.80253
0.7782648,72.34339
0.908653,75.57854
0.97150373,76.29709
0.99632293,78.7671
1.099566,80.38541
1.2434338,81.83874
1.1709027,81.54812
1.3050065,84.50496
1.4177963,86.05243
1.4898205,82.623055
1.5581009,85.78011
1.6708533,91.548225
1.7924074,88.816574
1.6490608,92.81822
1.7833369,89.91995
1.8542043,96.20501
1.748186,94.49339
1.83688,94.61202
1.9675258,95.26879
1.9573617,95.212296
1.9445392,100.08566
1.9703968,97.40905
1.9390496,97.0058
1.9804119,99.42194
1.9825099,102.98207
2.0064356,97.10891
1.955088,99.38586
2.0320148,95.16057
1.9223615,99.39281
1.9647295,99.033585
1.8957013,101.57635
1.8918865,100.66282
1.9428225,101.301315
1.8467684,100.00716
1.904461,104.24085
1.8255746,98.45774
1.8828256,100.43269
1.7433412,99.87739
1.774248,100.537964
1.7216078,98.614456
1.7120794,96.97431
1.7064183,97.79239
1.5688443,97.46037
1.6349503,95.984566
1.6045398,95.20837
1.5036709,95.021355
1.5634412,96.886
1.5112866,94.26769
1.4853323,92.85637
1.5209913,94.08515
1.5407461,90.10349
1.4979862,93.759186
1.4710498,92.889404
1.5413499,89.54469
1.4420931,86.98184
1.3495274,89.222084
1.5185508,86.08585
1.449564,89.995514
1.4086074,92.00243
1.3708394,84.157394
1.4062369,83.776054
1.3461866,86.57018
1.3300064,82.31985
1.3175156,81.81901
1.1921108,82.58484
1.2175605,82.33853
1.1807066,83.610725
1.1718199,81.28986
1.1446102,81.65401
1.0969368,79.457405
1.0592108,78.89076
1.0313257,78.47288
1.0652888,79.071625
1.0089986,77.68612
0.95752126,75.98971
0.9752375,79.516754
1.027227,74.12773
0.8682331,73.17113
0.908594,74.24852
0.8432836,74.76488
0.8934301,73.04691
0.8790569,73.30864
0.7895738,72.517105
0.8729064,70.09597
0.77769285,71.3568
0.8598426,69.26077
0.8242862,67.94987
0.7909775,69.72562
0.8639722,69.4883
0.7657855,73.04763
0.78340876,68.56846
0.7910721,69.56353
0.69581693,64.56289
0.7268326,67.29825
0.59255993,69.83878
0.6773917,66.24276
0.6724401,64.362366
0.49690253,66.4152
0.43765035,64.44913
0.4249281,69.4341
0.43543673,68.900635
0.40335265,70.51549
0.40625358,68.5503
0.3832316,70.712944
0.34329417,70.06833
0.35245326,71.067825
0.40168047,72.48405
0.35463056,68.85258
0.45697454,70.86107
0.46466845,70.55978
0.5063312,72.61938
0.58299387,72.54956
0.6235036,77.66013
0.75976396,76.35271
0.82857066,76.27968
0.8025286,79.8656
0.9410751,81.42704
0.9220659,85.496414
1.0804307,81.91577
1.149898,84.07266
1.1906809,84.644684
1.2279266,87.95249
1.3534708,86.04417
1.3733928,89.48699
1.4790736,87.41016
1.5015752,88.40329
1.540151,94.14699
1.5299994,90.14887
1.5997086,96.33059
1.6499788,95.6959
1.6743423,94.89778
1.6721141,92.74165
1.6259434,92.32422
1.6413484,96.84393
1.7669567,99.428314
1.7027984,95.6674
1.633957,98.76328
1.6776891,100.13742
1.7587605,99.55862
1.5619987,97.54378
1.6709378,100.87247
1.6422883,96.80881
1.6962047,102.62759
1.5869747,100.21952
1.6648313,103.13457
1.5432795,101.4986
1.5569042,98.317986
1.488807,99.27159
1.532588,100.660446
1.4951278,100.533516
1.461619,95.85697
1.4634355,98.85494
1.3730283,100.64137
1.3860129,93.10563
1.2798126,95.57682
1.3186104,93.96592
1.3130732,92.94569
1.2286769,93.77336
1.210287,95.61154
1.2756425,93.554405
1.2546078,91.74391
1.2106988,91.723656
1.1083655,91.53813
1.1825868,92.803154
1.1856383,92.00121
1.1362592,88.851776
1.0950848,86.16096
1.1443658,88.313614
1.1041582,86.04669
1.0925479,82.11672
1.1184345,86.76462
1.047928,87.44741
1.0034062,87.8216
1.0385252,81.39932
0.9287075,83.17908
0.95475066,85.70834
0.9059577,82.47358
0.83395046,80.42982
0.753669,81.1011
0.7823346,84.139305
0.72036284,79.12722
0.70136845,79.452034
0.72436273,81.2012
0.6751565,80.2167
0.6207534,76.704575
0.6138051,79.21486
0.60960996,76.98502
0.4961953,78.14927
0.44994515,75.30922
0.4407637,73.40296
0.4169035,74.58324
0.47321814,73.88984
0.42577687,71.62068
0.44982588,72.76379
0.48341894,71.20201
0.46352676,74.216064
0.39430845,70.78821
0.47377712,72.310616
0.45399007,72.6229
0.34764433,66.38573
0.37988898,69.74901
0.38534614,66.05467
0.36648902,68.815445
0.40087804,66.28792
0.34820652,66.84688
0.28273767,68.08735
0.28194982,66.06846
0.18966252,66.652084
0.15826078,69.53499
0.13338068,68.21745
0.15799432,66.621925
0.09017639,68.681885
0.03150527,65.70839
0.06883253,66.8882
0.10218703,71.80415
-0.011112316,68.90062
0.033136226,68.43696
0.0027106039,70.62468
0.020618897,71.63189
0.1104472,68.75763
0.1157958,72.513176
0.18850584,71.45819
0.25146562,72.27352
0.230372,78.583084
0.30688715,78.48569
0.26683104,74.77064
0.4228893,80.56171
0.44558975,80.84888
0.53325444,79.0936
0.54537165,81.83259
0.7228333,83.434525
0.7896271,81.8314
0.8470726,87.16111
0.94404083,85.07345
1.019727,84.30293
0.9287776,85.363014
1.044238,91.63447
1.1887109,90.75054
1.2349125,88.727745
1.2195436,91.92507
1.2987716,94.25593
1.2107127,94.73748
1.3941468,96.17679
1.3517456,95.64435
1.2910527,100.99006
1.2661903,98.571884
1.430564,98.33714
1.4052131,100.36562
1.3920426,96.61069
1.4291682,100.26514
1.464576,99.994835
1.3274196,103.591286
1.3694545,100.79711
1.3662535,99.76698
1.3138967,98.92134
1.4047672,101.23665
1.2546225,98.39834
1.2479192,100.587006
1.2352862,99.637115
1.1831888,99.07744
1.2250657,98.67462
1.1280773,97.502045
1.1719866,101.26281
1.1552416,99.550995
1.1499877,96.03489
1.0774888,95.55811
1.0474383,96.309326
1.0158255,96.02541
0.98821086,95.41349
0.9704315,93.77348
0.96319664,94.384346
1.0437242,94.40275
0.88531,92.09579
0.88463575,91.49293
0.85763866,92.33691
0.8606137,90.19691
0.98841685,91.76028
0.9058622,89.54321
0.8801353,90.741104
0.9662074,88.567184
0.7890237,88.4682
0.9009112,83.80401
0.9048954,88.208916
0.8489512,87.65013
0.81087667,85.85204
0.74543303,83.07272
0.73306566,84.12016
0.6491073,83.30672
0.74916995,84.50631
0.7213769,82.443115
0.6749459,79.476135
0.6283502,79.40222
0.6737504,76.54315
0.59073764,80.24155
0.5634255,79.52937
0.5056675,76.10239
0.4680907,77.06236
0.3913957,77.51253
0.41180193,73.78779
0.36730972,78.18984
0.4076354,74.45616
0.40589616,74.235954
0.32232714,74.14353
0.4502182,74.71362
0.3552813,72.102615
0.32137677,73.17425
0.38494766,74.546364
0.32723948,69.9462
0.36903182,67.255
0.302423,71.121765
0.33271185,66.80793
0.3598334,69.392365
0.3101202,65.252205
0.25482926,66.10051
0.3559293,67.41247
0.22668004,66.19689
0.31164107,68.54196
0.21921854,67.66235
0.15338914,69.772865
0.23864734,67.15474
0.10606345,68.03519
0.096684605,69.079765
0.07388586,64.21959
0.10526821,65.68837
0.078446046,70.56464
0.05568847,69.18506
0.033169825,71.18121
0.0022254142,69.62004
0.05942205,66.76297
0.082189895,72.67358
-0.009947381,71.52825
0.11970282,73.19366
0.09325549,70.5665
0.15411213,72.733116
0.22162916,74.79738
0.2925767,77.46676
0.28244203,77.53817
0.43256566,79.92127
0.5417739,78.028534
0.5916126,76.02118
0.66371846,82.00363
0.7022758,79.25411
0.8819225,84.59885
0.8939173,84.51181
0.93795025,86.36235
1.039182,85.70181
1.1047498,88.11835
1.1560587,86.82219
1.221611,88.95435
1.2838254,92.59226
1.2471637,92.52356
1.3932198,92.413795
1.3949314,91.68045
1.4356529,96.2627
1.3749713,93.81835
1.5266732,95.63534
1.3856106,95.06404
1.5586724,97.38541
1.570072,97.72374
1.6548733,100.50928
1.598178,99.91562
1.5546081,100.69294
1.5189505,100.57169
1.5871373,98.560394
1.5847944,99.21171
1.5221221,99.29788
1.5369642,99.158424
1.4826522,102.482635
1.4738268,98.668045
1.5269599,98.5713
1.4862881,97.17392
1.3482426,97.41683
1.4635104,102.87568
1.4018183,98.94881
1.3880786,98.444855
1.3627831,97.64277
1.3094499,97.5668
1.313684,99.590546
1.3494974,98.99358
1.3332916,94.67272
1.3325756,96.620285
1.2234178,98.090324
1.2552816,93.267204
1.2502999,94.97697
1.2274262,91.39931
1.256151,92.46121
1.187688,93.11805
1.2457578,89.281784
1.1906027,90.57324
1.1215433,87.89462
1.1418742,87.4019
1.1412098,86.8899
1.0828652,86.74268
1.2360988,84.14179
1.1606898,86.82931
1.1075728,87.15864
1.1371626,86.91678
1.0821335,85.28962
1.1017501,85.996506
1.008251,85.270935
0.9742857,83.58277
0.9424078,80.95996
0.97656834,83.19438
0.92093945,80.93346
0.8626113,79.01431
0.8748913,80.54126
0.84912616,80.3096
0.7798202,78.55249
0.91769475,80.58371
0.82622766,76.98408
0.8451884,74.44456
0.68319446,75.98563
0.74864024,76.81513
0.68820053,70.56959
0.7117077,72.898224
0.64513427,73.36324
0.75101346,70.14911
0.7559045,74.158035
0.63117766,70.08554
0.7212377,71.112686
0.72326165,69.58206
0.74291795,69.203026
0.7584505,70.632195
0.73628825,69.84357
0.72371465,67.00684
0.67166704,68.88917
0.7353639,66.76666
0.6568077,67.12568
0.72101736,68.03972
0.6259776,65.98419
0.5814952,67.60451
0.5906792,66.75415
0.49691796,67.16138
0.49576178,66.61924
0.45772403,69.173454
0.49407837,64.70318
0.43260744,72.13572
0.38276392,68.98654
0.47018754,66.771416
0.33479103,68.6983
0.39030913,67.67936
0.36210835,74.27101
0.4473039,68.445175
0.45709,70.31426
0.5203779,69.89582
0.62436366,72.70723
0.6936621,76.40529
0.5954219,73.68963
0.77118224,77.48787
0.8322893,78.49896
0.8790758,75.95031
0.8871623,82.71569
1.0183876,83.30768
1.0742908,80.02327
1.219255,82.59235
1.2761704,85.785286
1.3694617,85.553055
1.4914169,83.0112
1.4882592,85.57279
1.5331651,89.102486
1.5856382,89.808815
1.6978259,93.25353
1.698143,92.89174
1.6621385,92.34228
1.7360493,91.952324
1.7479684,94.11703
1.8837037,94.977425
1.7519377,96.2012
1.9383441,98.15994
1.9502507,97.327934
1.8288536,97.68634
1.9418732,97.309685
2.0282876,99.7296
1.8703451,98.18739
1.8718005,100.693474
1.9330375,97.21626
1.9132067,102.63629
1.8649735,96.39301
1.8578608,102.22623
1.8910878,100.08635
1.8149846,101.29538
1.7753297,99.53263
1.8438021,100.356316
1.8169216,103.16109
1.8410373,97.06753
1.7725564,100.29886
1.7327493,98.53423
1.753812,97.92884
1.6875064,97.22368
1.6581631,94.11638
1.7182351,99.43136
1.5391971,98.018875
1.607751,95.75841
1.5778098,95.67101
1.5198362,95.46695
1.5472573,94.13327
1.4914943,94.15476
1.5046746,95.08939
1.4624944,90.09518
1.4972681,93.461655
1.4604942,90.767784
1.4702024,89.61337
1.5026379,89.19568
1.3766097,89.41933
1.4452336,87.06721
1.5092214,87.603836
1.4649915,86.44497
1.4993676,85.34602
1.4188877,87.93139
1.3940631,86.3927
1.3426484,81.4482
1.3337963,86.10847
1.3219539,83.697685
1.2866169,80.84593
1.2376685,77.72018
1.1845763,80.19523
1.3195289,80.29347
1.0772257,81.50517
1.0658549,78.298454
1.004087,78.404434
0.9682338,77.01098
0.95815927,78.59053
0.94218695,77.655174
0.89745766,76.68882
0.9746683,74.8939
0.97732574,74.9203
0.9226303,73.59203
0.9341225,69.40359
0.9420982,74.11344
0.92046267,72.7269
0.9953777,71.31068
0.8970805,72.211494
0.9086174,69.11102
1.0027986,72.09804
0.89500386,71.76731
0.8942248,68.52655
0.9406298,65.064316
0.9124703,68.81414
0.78031695,70.5317
0.85332257,68.53079
0.81741285,65.40719
0.7983361,65.53172
0.65068984,67.4482
0.6998128,70.23332
0.7121565,68.69498
0.67732257,67.70674
0.53117347,67.25033
0.61605054,66.69048
0.54606706,68.042786
0.573893,66.312294
0.51977956,70.95098
0.553107,67.08926
0.5550576,68.675934
0.5465504,71.80275
0.6008543,71.29055
0.617938,71.39347
0.6220902,74.17231
0.67389333,74.733696
0.704047,74.97992
0.76867396,73.53661
0.8186451,77.59132
0.8062137,75.9108
0.9654419,80.14401
0.9672102,80.78814
1.0995072,80.1538
1.1482025,82.03547
1.2033992,84.30001
1.3969872,84.4666
1.4528872,87.281624
1.5349864,88.073425
1.458032,89.26482
1.59055,88.38596
1.6365081,88.842804
1.6637276,89.54476
1.7862895,89.81386
1.767451,92.73079
1.8163614,96.084785
1.8372778,96.78753
1.8068709,96.71045
1.7623765,96.46872
1.8084147,98.881996
1.845796,98.14036
1.828406,98.948746
1.8928121,97.51254
1.8429621,98.08401
1.9397055,99.993
1.8708917,100.10905
1.8129414,102.72819
1.8251672,100.54043
1.8318714,102.872925
1.7805785,99.08222
1.8041301,101.833305
1.7860645,97.89523
1.731845,102.580475
1.6758533,100.789795
1.7002215,100.11939
1.6679196,97.299995
1.6110169,100.91996
1.6848572,96.75137
1.6171641,98.22612
1.5585023,99.80003
1.5431813,94.95739
1.4506577,98.79086
1.4664776,93.80962
1.5061918,94.68367
1.4612583,93.65599
1.4389272,92.51878
1.3738493,95.57252
1.326117,92.79005
1.3866209,94.37381
1.3948642,93.15386
1.3004286,89.24614
1.3199391,88.25417
1.3487501,91.817444
1.2580193,88.52037
1.2920808,88.70025
1.2610475,87.56815
1.2451098,88.41231
1.2301985,90.910255
1.1630198,89.37185
1.1573157,85.45659
1.1567771,82.27973
1.1051105,84.81849
1.0978234,85.22599
1.1097443,83.6322
1.1334698,80.56293
1.0242083,81.563866
0.9715801,79.9482
1.0623736,77.36916
1.0034,80.10587
0.8528307,80.59644
0.8001016,79.11872
0.8914021,79.9694
0.77880454,75.97399
0.7402794,77.79423
0.7698461,77.676056
0.6969124,74.78575
0.64125514,74.25491
0.69207364,77.6783
0.60201424,74.544586
0.61439973,70.8873
0.62690127,73.91062
0.65734494,70.47952
0.64514995,70.1828
0.5904026,71.92386
0.6374689,68.39139
0.7064597,66.80173
0.6118968,66.00108
0.5344651,68.30506
0.63814324,69.3706
0.53130263,73.15995
0.5453738,66.801
0.5394066,64.462494
0.42115444,68.33771
0.5178,67.34361
0.36416623,61.5979
0.30011836,69.73816
0.2435813,66.75792
0.27333796,64.105064
0.24822338,66.3116
0.24240217,70.88889
0.25487912,67.85733
0.21963504,66.23548
0.20062087,68.13349
0.17777863,73.623604
0.17341258,74.08309
0.26203874,71.880104
0.28986007,72.10733
0.26830596,72.83263
0.24031058,72.11191
0.33498403,76.4721
0.32159424,71.14616
0.44850245,75.70489
0.49991277,74.58227
0.64494747,81.263016
0.6420296,79.50449
0.763008,81.520226
0.8180299,84.146385
0.85775506,81.455414
0.97406083,80.793785
1.0481766,85.162384
1.0592226,87.53263
1.1383793,89.780334
1.2006563,88.49108
1.2093335,92.374
1.3993251,90.11558
1.2980636,88.770996
1.4004397,93.029144
1.333287,93.44998
1.4701523,95.07909
1.3769155,96.539055
1.4961907,99.257576
1.4624394,96.04604
1.513076,97.19447
1.4723157,96.65803
1.4687308,99.47426
1.528436,98.37225
1.5414742,97.8432
1.4298316,101.16057
1.4220878,98.67418
1.4881139,103.413315
1.405605,100.91973
1.4946643,100.65671
1.519275,99.48875
1.4701933,99.17628
1.3693231,102.31604
1.2777394,97.67488
1.3248456,101.308586
1.3824115,97.45398
1.3062961,96.65208
1.2519968,97.74963
1.2422074,100.85187
1.1950568,100.90246
1.1190337,99.39428
1.0216223,94.95707
1.1614951,94.88655
1.0768039,91.18411
1.0725749,92.918205
1.007822,95.53906
0.99530995,95.16095
1.0354211,91.58755
1.0052999,93.67984
0.9198066,93.86103
1.0129573,91.98633
0.9681764,92.17966
0.9882085,92.31681
0.92226213,88.02124
0.8842585,90.000114
0.9017184,83.75384
0.8656652,87.3301
0.902363,86.75378
0.8539827,87.04475
0.81786627,83.15818
0.8792187,86.26335
0.74370944,83.09342
0.72848886,86.005264
0.8028567,82.23386
0.76305974,81.92352
0.787399,78.46459
0.59141254,79.91306
0.59347147,80.097404
0.58034396,79.45406
0.5658764,78.92614
0.4220997,74.38434
0.5347381,75.75671
0.49353203,75.97256
0.33102232,80.03729
0.36201113,78.86614
0.43328017,74.48387
0.43366495,73.838875
0.3916646,76.4803
0.36710116,74.28574
0.3633596,71.54533
0.34528762,70.188034
0.3591204,73.37813
0.33133933,71.14143
0.31762186,68.57488
0.24942361,71.48393
0.2369146,72.08131
0.28058127,71.55018
0.3175121,67.944664
0.33069637,66.92618
0.29222718,69.05486
0.23666094,66.449455
0.2624967,69.17259
0.19490306,66.971466
0.20435861,67.5807
0.102417,68.03785
0.1697007,66.955986
0.043806057,67.10306
0.027848033,62.90975
-0.0024128878,67.42896
0.091543935,70.49131
0.0036264823,67.38426
-0.08041976,68.693954
-0.11212073,68.90664
-0.0073367083,72.39989
-0.035738274,68.89444
0.020971444,71.8624
0.080944814,71.82087
-0.012477445,73.01415
0.106467575,69.93985
0.163079,76.07931
0.23096903,75.8254
0.36911875,76.95416
0.34246185,77.81446
0.2998716,77.65709
0.5648858,79.816284
0.60916984,82.07498
0.632407,84.82904
0.74033886,83.471344
0.78444695,84.95827
0.7851859,88.70289
0.8903953,87.84997
0.93123657,85.87774
1.0614171,88.55301
1.030615,88.05568
1.1898769,95.74187
1.2252364,92.12238
1.2510059,89.52612
1.2578868,91.19989
1.2795278,90.56968
1.3934141,95.84105
1.2878743,96.254745
1.2939785,96.401794
1.3333555,98.449036
1.2781295,97.0188
1.391837,96.41263
1.3982122,98.68994
1.4019499,98.26128
1.3688911,102.43981
1.3772948,100.107994
1.3479087,102.81896
1.4227968,101.91358
1.4118197,100.74598
1.3778986,101.331825
1.2932221,100.8042
1.3383679,95.703896
1.278071,99.86681
1.2758547,97.77241
1.315254,96.88818
1.2866064,99.689804
1.286021,99.26217
1.2322502,96.808075
1.1001314,100.428055
1.2067782,97.060776
1.1428144,93.742874
1.1326873,93.41942
1.0692606,92.46977
1.0970846,95.12783
1.0597792,93.08808
1.1034851,93.62076
1.0054926,91.37498
0.92371166,94.83999
0.9938452,88.3443
1.0020853,90.87623
1.0145447,89.2268
0.949182,87.80172
0.99586815,87.727196
1.0427928,86.25477
1.0195849,88.763954
0.9392222,88.502655
0.963258,87.52721
1.0367352,87.98271
0.9541883,87.09213
0.8902895,85.60449
0.80407816,83.461205
0.90614986,79.7402
0.84916884,82.83041
0.79421264,82.724014
0.8058034,80.42032
0.7845978,79.50235
0.8181905,80.30456
0.7256951,80.09224
0.61409074,74.09078
0.63945824,76.09298
0.6476841,81.926346
0.606769,73.68348
0.49824432,75.3255
0.5883692,77.630226
0.6390739,76.15492
0.47978714,78.42131
0.45030963,75.09011
0.45935485,71.05756
0.5023902,75.00936
0.51212144,72.82002
0.50367326,67.81254
0.50411177,72.58782
0.5393827,71.494415
0.49221992,67.49811
0.5265466,69.70277
0.51617277,66.68879
0.56377923,70.620865
0.5523184,68.98963
0.46366692,69.04306
0.45426768,70.351456
0.48835346,66.765274
0.5087924,66.70985
0.40056843,64.68652
0.417391,62.84576
0.36283672,67.87007
0.24283756,67.23843
0.27793777,69.32213
0.22223876,66.38054
0.19255859,69.923355
0.28200048,65.71623
0.14304732,67.6425
0.18454988,69.48366
0.13331847,69.94798
0.21411729,69.95582
0.24747245,67.06918
0.28633985,72.622345
0.2947295,70.60513
0.47209617,71.05755
0.38234088,74.41285
0.47719193,76.99056
0.60166085,74.990395
0.6461255,78.03968
0.7477188,77.94181
0.77664053,78.10479
0.83956623,80.55577
0.9683213,77.655846
1.1167127,83.63873
1.1866312,82.65273
1.2081254,86.03835
1.2663648,85.0573
1.3511181,83.096436
1.4065269,86.44981
1.41655,88.83262
1.5023588,90.7745
1.5892909,90.12309
1.5445849,94.77764
1.5637451,94.94059
1.6237761,93.06484
1.680636,93.78933
1.6972598,100.8272
1.716717,99.81477
1.7581179,97.052826
1.7166942,99.27771
1.811013,100.119286
1.8470927,99.5233
1.7312251,95.82472
1.7591907,101.52227
1.7385201,100.683
1.7549976,101.66754
1.7126572,101.77479
1.7098377,102.294044
1.8246622,102.42659
1.7493597,100.31416
1.7817235,101.68001
1.6994687,97.482864
1.6337506,98.32622
1.6591455,97.13229
1.6718994,97.20703
1.563761,96.41274
1.6268532,98.73153
1.5101141,98.38997
1.5292002,98.46367
1.6500913,95.76785
1.4451829,94.8415
1.4898343,92.40384
1.5146153,91.36158
1.4645572,92.98238
1.5052457,93.367805
1.4687389,93.8699
1.3782635,93.63541
1.4418443,93.06655
1.468119,89.496284
1.40598,89.37885
1.4001361,88.789734
1.3405771,88.502075
1.3849239,90.3331
1.3187239,86.426575
1.4123148,88.04296
1.3575507,87.37606
1.3424575,86.189865
1.2773546,85.63809
1.3591372,85.79692
1.2474457,86.26937
1.2510732,83.02064
1.2630664,83.08926
1.1682702,82.66114
1.1897595,82.55904
1.0009221,81.95412
1.105452,77.55186
1.0998192,82.20806
1.0167985,76.22694
1.0195687,72.51565
1.0073862,73.5375
0.93638724,74.47562
0.8620448,77.05175
0.9456391,73.94846
0.8882788,75.732185
0.95730996,75.98268
0.93373597,73.7932
0.8228339,74.02212
0.9212416,71.0809
0.89994925,71.67865
0.8550011,70.213196
0.8472492,70.29016
0.88389456,69.84051
0.8619693,72.76489
0.8030437,68.80797
0.91961455,68.82077
0.85656106,68.5344
0.85477805,69.501656
0.812946,67.39484
0.7585565,62.816257
0.8318955,65.87554
0.7361049,65.17691
0.73512685,66.568756
0.7060755,68.80648
0.6688438,67.35885
0.5803048,68.06394
0.56737083,66.76548
0.65682745,69.47919
0.54069346,68.1039
0.62140495,67.92403
0.55173486,69.427124
0.5901753,69.48188
0.5861259,71.62383
0.60006654,68.21575
0.514609,68.56849
0.69673806,70.74264
0.6305475,70.30057
0.6497705,76.71081
0.7852306,74.49444
0.86878663,74.098335
0.9057268,78.32869
0.93399715,74.974655
1.0485641,79.5255
1.2065037,81.44075
1.1418786,84.51346
1.2036856,82.42033
1.3330969,84.52099
1.431334,83.88351
1.5343657,84.34924
1.521103,87.86406
1.5977186,87.57433
1.6999245,89.014244
1.7815423,87.24374
1.7285734,91.78915
1.8317797,89.5586
1.82577,94.262344
1.8292391,94.447205
1.823933,94.473076
1.965717,95.7124
1.8837495,100.34583
1.8978825,97.315056
1.8701153,97.41335
1.9013009,97.41515
2.0386608,101.4854
1.9054897,96.61607
1.9990298,101.18767
2.0172575,98.887115
1.9797423,101.81136
1.9954164,101.53201
1.9756895,100.72148
1.9619399,102.90187
1.9140441,101.50421
1.8241326,98.374146
1.9096868,99.9053
1.848444,99.169556
1.9019547,97.74209
1.7930447,99.10569
1.7342639,98.12781
1.7859459,97.12635
1.7031976,95.66079
1.6963656,98.09277
1.6036797,95.56459
1.5950563,97.54226
1.6706595,94.18755
1.6087501,95.95714
1.5311038,95.00483
1.4851278,94.24438
1.5453544,93.64657
1.5401641,92.054115
1.4535763,92.62377
1.5148491,93.885605
1.4409183,93.377014
1.4788274,90.799355
1.4684296,90.07284
1.4920112,89.75396
1.4025242,91.99834
1.4641525,90.01889
1.4059442,86.48809
1.4109364,83.85307
1.3971366,86.822105
1.4234989,86.73588
1.3507777,82.694435
1.3184874,84.13056
1.2993877,79.38515
1.1471603,82.9014
1.2019101,81.39541
1.1364005,79.64631
1.148004,78.282326
1.0686179,81.12337
1.0350099,79.43513
1.0802238,78.84916
0.9206209,77.725296
0.98689175,77.45104
1.0210128,78.461784
1.0173262,75.14721
0.84595215,76.65931
0.8518885,74.24762
0.806673,75.04957
0.8303991,71.98896
0.9030059,74.35046
0.7536395,71.11213
0.7221877,71.39052
0.79663,73.02431
0.75140846,70.0618
0.8596559,70.290054
0.7615465,73.78059
0.8274704,70.48481
0.7748348,68.96463
0.76355606,69.26278
0.65987587,66.89656
0.66487247,68.58857
0.71868795,66.02186
0.7081779,66.88663
0.7028647,66.84909
0.62128896,68.40135
0.58671105,68.32301
0.5612829,67.15859
0.47891617,68.88382
0.4461651,67.6248
0.45215985,65.379005
0.34300515,68.15633
0.38054174,67.58209
0.36382905,68.936104
0.32633454,68.78412
0.3521969,71.884705
0.42546797,69.53593
0.41108575,69.507576
0.3555027,72.944756
0.47895417,72.11086
0.4688701,73.087456
0.5997705,73.06724
0.57429475,77.68664
0.6129898,75.52124
0.80503917,78.43196
0.70983446,79.21841
0.86689603,80.72894
1.028048,82.442635
1.0271709,84.39507
1.0183089,82.16401
1.1332933,83.83892
1.2346046,84.73269
1.297457,85.91797
1.4294382,85.46926
1.4701658,87.12188
1.4840052,89.674095
1.4718149,90.785904
1.4889263,89.25161
1.6629878,92.40253
1.6427113,93.05268
1.6248411,94.16649
1.6411254,92.367355
1.6853725,98.051216
1.6670035,95.87581
1.6596814,97.87025
1.7401551,96.984955
1.6955816,98.96551
1.6692152,95.36206
1.6882062,98.93911
1.7076712,98.38627
1.6570826,98.9445
1.6646888,98.086334
1.6822015,100.32071
1.6150494,98.771286
1.606295,100.651306
1.472678,98.6648
1.5040715,99.97645
1.5464317,101.53252
1.522104,96.88962
1.5356613,101.73846
1.4771389,99.0279
1.4492909,95.22599
1.4498825,96.5935
1.3677434,97.980865
1.3225713,94.10978
1.3393606,95.00894
1.3247072,97.35095
1.2038258,96.17162
1.0982053,94.18245
1.2023722,94.04148
1.1769298,90.199585
1.1886967,90.84059
1.0677555,95.03762
1.1408786,91.00956
1.1047001,92.27967
1.1708034,90.17786
1.0000515,89.4483
1.137898,92.45228
1.0996859,86.22856
1.0932349,86.9438
0.9254893,85.44114
1.0415043,87.22921
0.9856989,83.25358
0.94651765,86.53957
0.8864916,86.63155
0.91453075,88.7077
0.84763885,82.74641
0.8725802,76.96302
0.80213416,82.510414
0.87295693,84.91427
0.7812027,80.79958
0.7916813,79.24692
0.6673831,79.49741
0.6461402,80.87722
0.6043937,78.84163
0.47820038,78.08576
0.535244,74.37043
0.49189305,76.72764
0.47798598,77.80022
0.49668384,72.27034
0.5498927,72.39593
0.57648164,73.274
0.45749602,71.520966
0.36357087,74.965324
0.33220088,71.13431
0.45689544,73.88541
0.3944747,71.21983
0.46386993,71.131584
0.3840801,66.93523
0.4397099,66.17048
0.4485795,67.70434
0.37714544,70.40166
0.39306897,70.3166
0.37981537,68.46364
0.2836083,68.019394
0.30722848,66.33788
0.3096867,68.38706
0.23455998,63.377132
0.17269334,66.4535
0.035143018,65.00857
0.09625793,68.569786
0.059143454,69.7545
-0.06925221,66.713745
0.0075152214,65.9676
0.11324281,67.99188
-0.022342049,68.621254
0.069394976,70.4664
0.0029437372,68.61344
-0.01631438,69.64081
0.066035055,70.92604
0.0017494021,74.6093
0.16624787,69.45206
0.14793198,71.631454
0.1432104,76.90407
0.16362672,76.78466
0.25694078,78.71587
0.37737578,79.76277
0.48086777,78.13231
0.59252465,79.14425
0.5097227,83.64563
0.7147735,83.27804
0.81740093,81.93546
0.8437528,86.1542
0.9413255,88.943474
1.0067967,87.91582
0.94712144,87.401184
1.0173868,89.75061
1.1335007,94.167465
1.1643213,88.66163
1.1468797,93.81725
1.2047256,91.87157
1.3421706,92.29236
1.2789085,96.372246
1.2707297,97.499626
1.377448,97.488525
1.3724129,97.36695
1.3669796,97.15157
1.3829564,99.684265
1.42028,98.5667
1.3342601,99.00926
1.4291081,96.57263
1.4200394,100.557846
1.3898256,99.55633
1.2478567,98.00081
1.3797656,100.86478
1.3495249,98.60129
1.31462,97.051384
1.2625695,97.68847
1.2574358,98.166435
1.317192,100.24504
1.2365313,96.74421
1.3218105,98.34747
1.194565,99.477646
1.1251483,98.55308
1.1220614,95.87516
1.0693134,98.513466
1.1003088,97.276535
1.0208117,96.07343
0.9787066,97.16671
0.9773857,93.24131
0.97060704,93.68092
0.95652676,95.36729
0.955115,92.689316
0.92513573,90.36126
0.9500263,91.22994
0.9293016,92.779434
0.8922134,90.718346
0.8522109,94.351776
0.8654316,88.1059
0.93473977,85.10682
0.7891857,87.23465
0.8852788,85.71234
0.84946626,86.27031
0.8051797,84.09329
0.8797098,85.27615
0.7845802,85.75717
0.833769,84.378494
0.80192703,84.48672
0.79714656,84.46618
0.7142992,80.55302
0.6814347,82.751144
0.7207474,79.20108
0.7200527,81.21062
0.5963173,79.25409
0.5713246,78.62731
0.5035523,81.61295
0.510118,76.54605
0.39000463,78.24333
0.47839385,77.6974
0.46432495,75.83811
0.4071767,74.15852
0.42033288,72.0762
0.42065823,73.53285
0.3858126,69.831665
0.35819185,78.180374
0.3515415,71.99157
0.4245474,69.49374
0.3924833,70.39489
0.35263312,72.53664
0.41398445,71.51732
0.45278746,69.44117
0.3805773,67.3786
0.3346414,69.54808
0.31292424,70.53273
0.36687583,72.98038
0.32740036,67.67341
0.26926607,68.21699
0.22807792,67.863014
0.21276557,67.5004
0.18563318,68.71697
0.2040847,68.36127
0.094645664,66.89053
0.156791,67.74578
0.10442326,65.53603
0.05268265,66.63843
0.07103278,66.449196
0.07128165,66.06137
-0.045812283,69.68257
0.033916596,68.21987
0.11197094,72.08343
0.07580732,69.967766
0.084327154,67.28089
0.012862852,75.30682
0.1993675,72.01725
0.16723059,76.26322
0.33331856,71.20779
0.3206109,76.43117
0.42044756,77.159195
0.49053672,79.49149
0.61457413,83.900665
0.5744273,78.031395
0.74942166,79.92561
0.82000923,80.18972
1.0431013,82.06264
0.89547384,79.689575
0.94956803,86.54992
1.0500168,85.24841
1.0774475,86.41025
1.2345312,87.974144
1.2659233,90.27981
1.3583411,94.67896
1.3441992,92.16114
1.4497741,93.970665
1.3984245,94.08707
1.4766492,94.24191
1.4040738,96.081825
1.4693772,95.16102
1.5842954,97.61839
1.6120268,99.81462
1.460977,96.4277
1.5570014,99.85113
1.5631292,99.05011
1.6254911,102.525925
1.4565555,102.900085
1.6260915,103.20826
1.5601827,100.083954
1.5264702,101.75835
1.478442,101.692245
1.5083772,101.3227
1.4942684,99.30769
1.4584163,99.85239
1.4987068,98.997665
1.468919,100.47284
1.4993218,97.55576
1.4246333,98.75984
1.3892595,99.27351
1.4777031,103.173035
1.3502784,95.95796
1.3544518,99.322975
1.2866164,93.95176
1.2610422,93.11986
1.3064243,97.08386
1.2319233,99.006134
1.2831447,91.90996
1.2873242,92.12726
1.252653,92.331055
1.2908881,90.5538
1.1332308,88.91165
1.2382914,86.80077
1.2080674,85.912926
1.2060404,87.94292
1.2158781,89.11048
1.1932851,84.63491
1.2083427,86.59488
1.18304,85.80182
1.2161958,87.08973
1.1452054,84.400795
1.1391941,82.82534
1.1557178,85.74496
1.1558055,82.00822
1.1433036,85.11572
1.0322806,79.83949
1.0647312,80.09945
1.0429978,83.14549
0.9531091,82.50228
0.93708616,82.23465
0.8340175,80.87169
0.94963557,78.493645
0.7603063,79.006
0.8524596,76.71174
0.76684004,75.859436
0.75517064,74.303665
0.7980797,78.91251
0.7840632,77.726295
0.7061885,74.67721
0.73472166,73.79111
0.7322574,73.438324
0.70969325,71.60631
0.789543,73.37956
0.7620184,73.175804
0.83598274,68.165535
0.67958754,71.1547
0.7185766,73.67802
0.77076,65.64245
0.7040754,66.009
0.72465914,67.917564
0.6888442,67.333534
0.7127379,66.15782
0.66990167,65.65259
0.6296976,67.44981
0.66438454,68.883446
0.55379087,67.82959
0.6587728,68.4369
0.5061573,66.0011
0.5009126,69.378716
0.5921101,69.633644
0.43743274,63.683136
0.44563675,66.466995
0.5083877,67.71565
0.45511556,68.51321
0.43455,72.6997
0.37273383,69.61753
0.4621154,68.92989
0.4619361,68.85735
0.4649853,70.5346
0.611221,74.37383
0.6468421,74.31254
0.6556821,75.6907
0.6973191,76.97307
0.8157445,75.25769
0.8351888,76.94839
1.0254532,80.43401
0.9835624,83.60072
1.1467183,81.93068
1.1999198,86.687904
1.2832029,81.170975
1.3215334,85.79256
1.4989221,85.635796
1.5525632,87.76632
1.5874894,85.59893
1.6716044,92.56427
1.6614509,91.050476
1.6590345,87.70058
1.66456,91.266556
1.7680613,92.45383
1.8295135,96.63896
1.781438,97.682434
1.8754288,93.56685
1.9088007,96.64292
1.869834,96.598885
1.9362555,97.47782
1.8740966,99.91418
1.946706,98.28874
1.916653,100.66991
1.8434922,99.18028
1.9572654,98.35405
1.9869233,98.11232
1.8722097,99.10718
1.9561666,97.88374
1.8598739,99.02439
1.8731794,98.52934
1.906251,98.091225
1.7823325,99.167336
1.9018203,101.29748
1.7699176,102.83251
1.805924,100.31132
1.7907051,98.996475
1.6757365,95.34119
1.6804222,96.05706
1.6263736,98.358795
1.6318487,97.9753
1.7143478,97.34235
1.6094413,93.54356
1.6453838,95.71132
1.4517987,92.57857
1.5779229,93.90691
1.5422214,95.316986
1.5507163,91.069084
1.5241262,94.98548
1.5371946,92.763275
1.5241534,92.57916
1.4795948,92.94965
1.5039291,89.713974
1.4990479,88.1095
1.4833845,88.14789
1.5527219,88.95952
1.4628916,87.66672
1.4277754,87.45884
1.450976,85.461655
1.471394,89.56388
1.4336002,84.57899
1.3207053,85.51042
1.3072438,84.94288
1.3608528,83.41375
1.2151598,78.909225
1.270927,80.93219
1.1910417,80.841324
1.1626985,77.35585
1.1257579,83.290665
1.0737315,77.52755
1.0440553,78.601494
1.0354061,77.268654
1.0569109,75.63809
0.993474,73.753296
0.901928,74.13574
0.98087436,75.144844
1.0328174,73.49842
0.91266084,71.0732
0.8794139,73.312645
0.9351439,72.26062
0.8362956,75.30891
0.91979754,69.82326
0.9419755,68.88534
0.9482357,68.79814
0.9647845,66.844124
0.923966,70.97293
0.9327242,67.010124
0.91320854,68.760765
0.8192309,66.739174
0.8426975,71.83408
0.82358193,67.29846
0.73122126,68.51477
0.7101351,67.06276
0.8087709,67.734505
0.6730144,65.08499
0.707326,67.02372
0.63164264,69.26508
0.6851503,68.70924
0.6199118,69.73522
0.5171909,66.35009
0.5728475,68.12595
0.5562276,70.76694
0.52837145,68.900566
0.4335915,67.963326
0.5426717,70.88454
0.567364,72.043495
0.49421018,71.95018
0.61897486,71.223694
0.5562731,74.49699
0.77938944,76.804405
0.8078418,76.81412
0.91349095,74.40639
1.0204619,77.62955
0.9804616,79.61744
1.0769219,78.41151
1.1569333,82.65402
1.1830446,83.89856
1.2325152,82.29026
1.3295557,84.40414
1.4153826,86.27969
1.4760576,85.85462
1.4419742,89.111694
1.5611567,89.97549
1.6150764,88.35804
1.7628745,89.37892
1.8227221,93.044106
1.7219318,92.67945
1.7296176,94.91346
1.7656711,93.08974
1.7260954,95.286964
1.8604164,95.748
1.7999557,98.56832
1.9335105,99.26524
1.8253738,97.10843
1.8532771,101.41879
1.9035957,100.31554
1.8484732,101.9248
1.8896649,101.56463
1.8179659,99.07442
1.8351275,99.11167
1.7988932,98.495766
1.7815601,100.67021
1.7931981,98.527596
1.7628921,100.2013
1.7611469,100.379005
1.6568984,98.54373
1.7991652,97.61868
1.6985505,100.433495
1.5677295,101.121475
1.6054946,99.11008
1.5325351,98.75741
1.5505236,97.38393
1.4712628,94.29765
1.4848953,96.15695
1.4285952,94.64779
1.3997123,96.67987
1.4362925,93.03471
1.2837029,90.82251
1.4008733,92.980606
1.3627768,93.7717
1.4174447,97.13891
1.4052404,91.39878
1.4402623,89.442375
1.2875793,90.335045
1.2937342,88.55821
1.3247908,88.04698
1.268133,89.0037
1.2471327,87.267975
1.2086612,86.70746
1.2353514,82.58793
1.1568476,86.517204
1.0873693,84.09025
1.051077,83.89991
1.0672606,83.25391
1.0194297,85.48654
1.0395746,79.24498
1.0087014,82.65766
0.8981244,83.52953
0.904525,80.566055
0.8837906,79.05297
0.9452627,79.637794
0.7886058,78.78332
0.72979504,76.68027
0.7506569,76.13416
0.71923876,77.45977
0.6968897,76.269394
0.7289623,73.887184
0.76103604,77.00399
0.6140164,76.31162
0.6652371,71.712975
0.6326383,76.50925
0.5948334,74.750084
0.5980347,70.76454
0.5801947,71.27894
0.5469603,71.99004
0.58792543,70.36278
0.63068295,68.98641
0.57862806,69.330536
0.5155655,67.958626
0.5704756,63.999928
0.5047195,70.19232
0.4475014,69.110756
0.45146593,66.14852
0.4616948,66.802895
0.33290768,64.46559
0.397814,69.315445
0.4047216,65.54687
0.3140576,67.183914
0.23650523,66.26648
0.2532777,67.05494
0.21642311,64.30675
0.19079238,67.63414
0.1870201,66.52631
0.22118795,64.67707
0.15943567,66.98737
0.1594125,72.08167
0.24012628,71.19459
0.2009066,69.42884
0.13730267,71.87145
0.23287202,70.327515
0.31189138,72.91675
0.36754328,72.932755
0.38015503,76.126816
0.5234892,77.4346
0.5147562,76.06576
0.6561851,77.06896
0.6192334,78.39108
0.8236778,81.37846
0.9011989,83.562454
0.86084306,86.58413
0.97424763,81.882164
1.0072626,87.314415
1.0526891,87.14444
1.2677308,87.13952
1.1536986,89.778786
1.2981575,90.55549
1.3162503,94.12831
1.3208289,94.01339
1.3769703,97.555214
1.3587815,93.50414
1.317411,95.78835
1.4245573,92.73433
1.4143428,97.29579
1.4302332,97.98143
1.496141,97.702255
1.5553367,100.93967
1.4710878,96.845764
1.4222422,98.69052
1.4090596,100.227005
1.4274867,101.93474
1.4266913,99.68273
1.5019013,100.443405
1.4595288,96.74144
1.4175175,100.74043
1.3877895,96.9887
1.3872098,100.413315
1.3545979,99.81918
1.2829288,98.17748
1.267667,98.45975
1.3192359,99.842384
1.2508819,98.69537
1.2248071,96.16203
1.2188103,97.81913
1.16028,99.53627
1.165946,94.33196
1.1480331,95.30054
1.0874088,96.97779
0.9841103,93.47337
0.98618466,96.07842
1.0414997,90.85129
1.0287871,95.4829
1.038848,90.72514
1.0254574,90.98797
0.9198811,93.16773
0.90217435,91.14439
0.98753387,91.25518
0.9894454,90.79562
0.8359845,89.07363
0.93395317,89.97603
0.9174982,86.437805
0.8595887,82.79673
0.8293955,86.89643
0.8181694,85.07988
0.79580873,85.201675
0.756246,84.96154
0.73867893,82.97533
0.73191327,82.24292
0.6986016,80.91096
0.71767807,79.96904
0.55618775,82.12295
0.59668887,81.951416
0.68973494,81.07254
0.57148856,79.295334
0.45863912,79.65291
0.52419436,78.48527
0.474958,77.116615
0.47684017,75.45526
0.3306844,76.50284
0.43152863,77.76163
0.3333384,74.9181
0.43636024,76.08712
0.28944016,75.59738
0.30139023,71.29262
0.37254432,75.31442
0.38289842,69.325325
0.29006046,71.43644
0.339262,70.21423
0.2986082,66.50742
0.29955712,69.88394
0.35559055,69.263824
0.29398888,67.36248
0.27999836,68.32624
0.20987356,66.64493
0.240515,70.3371
0.29538295,66.204216
0.18631631,71.432686
0.0851996,67.77754
0.10289176,62.775486
0.08491563,67.11129
0.11638696,65.81718
0.120859265,66.00021
-0.080719054,67.248924
0.004169233,69.85974
-0.012917308,67.86263
-0.06576952,66.36195
-0.024779439,67.33989
-0.019332932,69.20306
-0.048567977,68.02605
0.041759342,68.691315
-0.0010255584,71.945656
0.033313185,74.01794
0.10443084,73.32677
0.18232906,76.03375
0.18471727,75.482475
0.29073545,74.963196
0.36661923,75.40392
0.40434408,76.35325
0.42858455,80.04051
0.51921046,76.23162
0.57954174,80.877884
0.6771525,78.3739
0.781875,83.29001
0.8633639,84.223976
0.8793024,84.469025
1.02326,88.01406
1.0067447,87.79082
1.1727484,87.92357
1.1567988,92.45909
1.1773605,89.20523
1.2504582,93.124725
1.2855479,94.71271
1.3138936,94.27184
1.4051205,93.07565
1.2953392,96.3844
1.4740839,93.486496
1.3978301,95.42266
1.415777,95.41713
1.4162061,96.16039
1.2981532,96.934326
1.3660281,98.210594
1.3846468,100.81914
1.4934343,102.21557
1.4560342,102.55545
1.4425468,100.397026
1.3068757,100.597404
1.3927362,97.91988
1.4652265,99.40657
1.3592316,102.87906
1.3561265,100.56441
1.2719501,102.78076
1.3179014,99.13805
1.3132505,96.54172
1.2590389,99.470184
1.2248355,94.773315
1.1359822,99.250595
1.0777771,97.41832
1.1868541,94.35443
1.1449052,95.73097
1.084458,96.0776
1.2203116,97.5363
1.0780835,95.985634
1.0238243,92.3564
1.055283,90.783485
1.0636072,91.05303
0.9824501,91.089745
1.0273868,89.61587
0.99567145,87.9089
0.986876,92.881454
0.96894276,90.78899
1.0064737,87.572655
0.97855556,85.15785
0.96791816,91.121796
0.9638183,84.9806
0.9571037,85.95475
0.98205894,84.98917
0.9458279,83.56888
1.0037847,82.39959
0.881979,81.81064
0.87443036,85.23594
0.8691909,83.243614
0.80513835,80.45971
0.8060792,80.320015
0.6874413,82.2657
0.6754658,77.565056
0.70199233,77.08923
0.65203565,75.83072
0.73627204,77.243774
0.69905186,81.1841
0.6424852,78.741165
0.52311975,73.48621
0.59798926,74.84425
0.48269823,72.95412
0.5232635,75.85399
0.61004883,74.74587
0.59151214,72.20671
0.47895426,71.02593
0.4709546,71.62588
0.5477782,71.18565
0.61152416,71.99811
0.6797904,70.96545
0.58325684,69.05444
0.6280675,68.0197
0.59926945,71.066574
0.46244502,69.88043
0.47991478,66.10581
0.5133291,69.45119
0.42809376,66.47024
0.4082865,66.836075
0.5270437,65.42752
0.42525685,66.596565
0.37672684,68.13637
0.33873275,64.61754
0.31712592,64.46241
0.37124905,67.15205
0.23904833,71.306564
0.16526233,64.69835
0.26289845,67.34966
0.27886775,68.93884
0.19072002,69.89033
0.26857007,67.69767
0.2985546,67.82376
0.35150003,71.69305
0.32626787,73.55438
0.4032534,73.93561
0.37962538,72.72833
0.3718576,72.17805
0.6207119,74.50091
0.6711005,76.2832
0.71972173,78.45435
0.7301647,75.1803
0.8755702,79.47294
0.916103,79.768776
1.0785594,82.40567
1.104748,84.76523
1.1741548,80.953476
1.3608202,86.14397
1.3630941,83.90702
1.4288905,89.73732
1.4337286,88.23639
1.533999,89.423874
1.5168638,94.22592
1.6231004,96.41123
1.6785287,92.30557
1.6914049,95.85413
1.7074683,93.9381
1.6774033,97.286156
1.7899748,100.237595
1.6664603,95.35246
1.7402991,98.11328
1.8220576,101.12468
1.7914293,98.63028
1.8758512,96.99027
1.812615,99.43516
1.8339653,101.31781
1.7097293,100.73883
1.7680407,100.71375
1.7962135,100.38466
1.7883381,98.59834
1.7233571,96.70726
1.7914757,100.6297
1.6433591,101.92484
1.7324122,101.17166
1.6846789,99.24899
1.6319166,99.34253
1.643578,99.55651
1.5619298,100.89244
1.5836982,101.58221
1.5133483,96.83984
1.6176059,94.14674
1.5557809,95.492775
1.5664902,96.52709
1.4740019,93.103294
1.4566557,92.807045
1.4507276,92.86224
1.4356468,93.38114
1.5249895,94.86552
1.3877921,92.581894
1.3607938,88.793785
1.4076473,89.30719
1.3683057,87.38506
1.413717,93.808235
1.3514389,90.85462
1.4324143,88.31502
1.3951255,85.31258
1.319602,87.718254
1.3941272,90.95249
1.314797,86.980354
1.3164767,83.31305
1.2719477,84.243935
1.2516811,78.3826
1.2413286,84.82032
1.237723,82.19343
1.0964545,84.00862
1.1085626,81.98872
1.066704,78.420815
1.1073227,79.01008
0.99567795,78.7222
0.95260257,78.52184
1.057844,79.773384
1.0028355,75.92028
0.9298905,79.648705
0.9569453,76.86996
0.8537529,76.99347
1.0048196,74.4973
0.87692714,75.76564
0.7722157,72.20016
0.9091181,72.30502
0.8749462,72.8816
0.91662544,72.56701
1.0286798,70.84142
0.91454285,68.516266
0.9333521,69.458664
0.9845521,67.37351
0.8521185,67.37512
0.8760325,70.80265
0.866035,67.57475
0.87604827,64.74322
0.8896742,65.35811
0.8693488,67.72899
0.764709,67.09901
0.67364407,66.8792
0.679746,65.82753
0.7616053,62.80796
0.60976857,65.94049
0.68652105,65.10266
0.6417486,65.673805
0.45149878,65.81105
0.572586,65.9291
0.6015705,67.083954
0.49972624,66.69832
0.5577165,69.47676
0.53108996,69.84418
0.5341963,72.26608
0.5848989,72.40748
0.59516245,68.071396
0.6755662,70.41133
0.7448677,73.90044
0.77981555,73.05663
0.8230026,76.83498
0.8711832,79.53005
0.9396614,80.30963
1.1406559,81.73284
1.1550744,79.40515
1.2323314,79.33782
1.2855154,79.85479
1.3458939,85.78481
1.361879,80.67821
1.4794055,85.24658
1.5483571,85.0286
1.5899625,89.61394
1.702702,92.33313
1.6525475,91.43438
1.8000803,91.36551
1.9575973,92.701706
1.9057934,96.75386
1.8292488,93.209946
1.8118675,94.77294
1.925396,91.416824
1.9425344,95.06447
1.9488614,95.32185
2.033496,101.49638
1.9589124,95.480804
1.9789991,96.18253
1.8940028,95.45516
1.8611152,98.13221
2.0172694,99.48085
1.9137607,102.91551
1.9410694,103.16574
1.8395038,99.59426
1.9463477,100.42074
1.8571652,102.899994
1.9702437,99.260666
1.7708787,97.94432
1.7813315,101.1602
1.7529246,99.58478
1.787419,97.12122
1.7165512,101.225525
1.7477411,97.88436
1.6490428,96.144226
1.6830943,93.421295
1.6480335,98.07183
1.6137247,96.830444
1.5417197,95.43513
1.5598143,92.53951
1.5207344,94.362206
1.4658365,93.49114
1.4539427,93.17197
1.5081422,96.842224
1.457408,91.15054
1.4878376,90.41232
1.4513646,90.93557
1.526934,91.59336
1.4695747,87.45969
1.4165702,91.07415
1.4846282,88.704544
1.371341,85.64096
1.402513,88.79578
1.3872778,84.5367
1.3278067,83.338356
1.2628231,87.241516
1.321222,84.073395
1.2527115,84.43207
1.2556301,82.21375
1.2359055,80.42526
1.2468756,81.568016
1.0395328,79.52173
1.0804278,80.19124
1.036327,81.256744
1.0144058,81.72735
0.9675169,80.16648
0.9460632,74.340225
0.9937777,79.50301
0.90804815,77.09106
0.89733434,75.187325
0.82587075,79.31015
0.7989595,74.63618
0.8436456,71.89878
0.8298083,75.850174
0.7965734,68.50557
0.8114938,67.635025
0.7685748,71.46817
0.85854876,69.19377
0.7600803,71.806046
0.71758735,72.38964
0.848809,66.395775
0.6893,66.7405
0.77675563,70.471924
0.7660601,69.049385
0.7671791,66.47824
0.66702694,71.082954
0.65504885,69.748695
0.558236,69.6463
0.5795077,68.9684
0.54305035,65.59006
0.52158004,66.59099
0.4114947,64.05534
0.44438446,67.45843
0.36961377,67.8822
0.44416562,68.904785
0.37330806,68.8368
0.38390437,69.35261
0.3672616,70.252846
0.38986978,68.42518
0.376698,67.9825
0.36700767,70.25415
0.40110227,70.36537
0.3453724,72.813484
0.46095017,70.40002
0.57357013,74.28966
0.57644,74.50762
0.67368674,76.872665
0.7130058,77.628525
0.66148394,76.705315
0.79431015,82.377884
0.8774142,78.054726
0.9564699,79.83743
1.0525451,80.8954
1.0632508,84.10459
1.1700647,82.89638
1.1856246,84.97551
1.2930547,90.09301
1.235523,88.334045
1.3687547,88.36327
1.4496518,91.764336
1.4614385,88.83784
1.4729263,90.1549
1.5808505,90.56424
1.6236159,92.359695
1.612042,94.887566
1.7044615,95.82662
1.6197667,98.86962
1.6895066,99.479866
1.6807159,100.155945
1.6255753,96.31602
1.7133428,99.89886
1.7167364,98.35624
1.64103,100.19447
1.5842855,100.909386
1.5890254,98.28212
1.6099346,102.08099
1.5632168,100.93455
1.635187,101.3838
1.5563443,99.80706
1.584744,100.174675
1.5576633,102.419655
1.5660121,99.96372
1.4153304,99.20479
1.5001236,99.939995
1.3452584,100.54946
1.329358,95.13066
1.2840482,99.3127
1.3387041,97.17088
1.2768273,92.814644
1.3010355,96.87719
1.2692955,97.75187
1.2088093,96.44424
1.2171224,95.144066
1.2015378,93.68218
1.1584898,90.11438
1.1757897,93.27218
1.118954,89.35299
1.0901542,93.038414
1.0951777,86.93331
1.029849,89.77899
1.1229172,89.76247
1.0238701,88.237335
1.071723,86.96936
1.088761,88.107704
1.0603669,87.66059
0.93226117,84.75581
1.008792,86.043465
0.9944485,85.775215
0.91356367,82.20883
0.86094046,84.16523
0.89042133,85.370514
0.7930525,80.23985
0.7807776,79.34357
0.6985395,80.6287
0.6732957,81.371254
0.67247784,78.29729
0.5625082,80.29225
0.5503232,77.07146
0.46778265,77.07403
0.55270875,75.85733
0.46742973,75.09178
0.4829203,74.93368
0.53178984,75.46875
0.38132566,76.97522
0.54358315,75.40427
0.40831754,73.01788
0.46503994,73.44079
0.28473607,72.188545
0.43032277,72.68186
0.29559165,70.69584
0.45799384,70.66051
0.33841327,68.959366
0.40353504,71.84818
0.37940037,71.23207
0.4381975,69.07315
0.36299267,65.17998
0.28305766,66.013794
0.22974826,70.88103
0.31159502,69.17099
0.25745028,67.836784
0.24706581,68.86836
0.14583868,65.48362
0.097186744,65.99847
0.090979405,64.847015
0.09706481,63.73035
0.04446812,65.08129
0.06948687,67.111694
-0.02037081,66.90942
0.014700072,65.635345
-0.09884838,69.70094
-0.026365908,67.43965
0.00062692096,70.51555
-0.06142884,71.156075
-0.063628316,70.40777
0.15045062,73.00013
0.11129975,71.04881
0.19425032,74.01215
0.20449466,77.79442
0.2877192,74.82902
0.4242449,77.80676
0.36834842,73.805984
0.50190884,80.69025
0.52402467,78.68565
0.63604987,82.42989
0.71269107,81.42306
0.8103163,84.49946
0.90614,81.551994
1.0662324,87.57966
0.98817015,86.77176
1.1661705,86.81563
0.9893752,88.442024
1.116786,94.64475
1.1668663,91.40204
1.2535897,92.32335
1.2219056,92.643166
1.3507246,96.145386
1.2680051,94.90487
1.3870227,95.52802
1.3740897,97.63525
1.330799,98.49931
1.356255,97.31806
1.3603762,94.318565
1.4147061,98.870964
1.3920012,104.961
1.3235134,99.12882
1.2687666,101.88545
1.4025505,99.115166
1.3894233,100.32396
1.3259628,100.04967
1.2971061,100.801346
1.2715224,99.68521
1.2899718,99.42197
1.302089,97.53375
1.2647289,94.46814
1.17864,97.99424
1.2748077,97.81116
1.139634,98.453804
1.201178,98.90663
1.053618,97.34851
1.1117254,100.58535
1.104366,96.23685
0.95032656,94.456566
1.0038465,93.256775
0.9699263,97.251366
1.0244817,92.74132
1.009893,94.33562
0.954479,91.840706
0.96394354,90.58433
1.032956,95.78471
0.87990856,92.858505
0.920216,93.22423
0.9293409,88.987144
0.8962499,88.598206
0.9124084,91.3331
0.9332893,88.69004
0.85084444,87.45919
0.8743371,84.69251
0.8450249,88.32272
0.83400685,87.17912
0.8022276,84.7302
0.82635856,83.40536
0.79950875,85.603516
0.73833185,83.39301
0.6956269,82.98703
0.66319937,83.3596
0.65570813,83.55879
0.62699085,79.99414
0.604983,80.07321
0.6260485,78.88733
0.5265596,75.965096
0.48351568,78.90696
0.40250206,76.37461
0.44387233,76.460976
0.40751344,73.72447
0.36341152,73.99381
0.4693367,73.39623
0.39829126,75.23386
0.40526578,73.23355
0.4026476,68.523315
0.42566928,72.649925
0.28748125,74.07536
0.38790193,72.96864
0.36153334,70.909065
0.3387779,67.22813
0.3997807,69.43479
0.332619,69.04882
0.32776687,69.89937
0.3311711,65.37351
0.3807556,67.548386
0.30536252,66.534294
0.27649894,68.34126
0.2681517,67.30701
0.29507765,63.03839
0.15576196,66.34749
0.18328065,69.48636
0.18039116,67.92867
0.17277837,64.93787
0.21537602,69.500015
0.08004782,68.47766
0.035136737,71.41767
-0.011051986,68.71265
0.011935018,69.49174
0.084078856,70.448845
0.04997382,70.18015
0.04038729,70.66408
0.15492623,72.08395
0.20672232,73.44615
0.19017851,73.394135
0.16798139,73.12529
0.25874835,72.11274
0.47704566,78.31432
0.44652858,77.18117
0.42167062,78.65226
0.5612549,82.94961
0.7005328,81.943726
0.7473557,81.91888
0.88577276,80.875465
0.8453528,84.45026
0.9926321,86.72928
1.0955113,87.66959
1.0718564,87.9035
1.1794262,87.36254
1.2279748,89.42873
1.2715955,90.99626
1.3731622,91.64082
1.4715421,89.69486
1.4588866,93.714676
1.4485308,93.54256
1.5982391,97.87963
1.4711906,95.297585
1.4922785,95.80273
1.5101002,97.07375
1.5517002,95.78828
1.6341598,99.41464
1.673496,100.15223
1.6749729,99.47348
1.5917734,100.67142
1.6066741,100.38968
1.7065712,100.8536
1.5702763,100.164185
1.6290327,98.35039
1.6055931,100.83668
1.5676591,100.65554
1.5456878,98.01211
1.5307695,100.166954
1.5342456,99.14997
1.5616344,97.81197
1.4283022,98.947815
1.44564,99.60549
1.493874,97.16089
1.3623801,99.00939
1.2562854,98.531006
1.3108661,99.36846
1.3372513,96.07889
1.2880363,94.3935
1.3182914,95.87991
1.2873222,90.94898
1.2977506,94.655624
1.2652699,92.017296
1.2582048,91.956375
1.2072299,93.74751
1.2861571,90.47157
1.2641764,92.535904
1.2926606,92.279526
1.2205248,88.46383
1.2194915,89.83233
1.1668252,90.64004
1.2426941,83.56468
1.2390625,86.27435
1.181686,84.11981
1.1314453,83.58897
1.1548152,85.22795
1.100691,87.24039
1.115521,82.13619
1.149396,83.07924
1.1501418,87.098
0.9444274,82.078735
1.0448537,81.65523
0.9081582,81.28115
0.9024391,78.97336
0.9677057,75.84367
0.8977603,78.979485
0.8405548,78.93384
0.8025114,74.482056
0.77618,76.241455
0.8806675,75.22987
0.77357936,76.69177
0.8111273,76.80667
0.62923294,72.55027
0.76078147,72.72833
0.7779143,74.86966
0.78691745,73.114105
0.8040621,69.85654
0.68245393,75.54841
0.7393889,69.91741
0.7777495,73.35431
0.7079032,69.19671
0.76388764,68.78716
0.7393447,70.75985
0.7969579,67.99275
0.79363704,71.02279
0.73515904,67.87277
0.7439626,66.726974
0.63919884,66.79779
0.68185294,69.05377
0.63500214,70.17151
0.64612526,67.70319
0.5974327,69.11038
0.42372847,66.63479
0.5358874,65.87647
0.52875036,68.75414
0.46197936,68.83261
0.41709352,68.09801
0.42085043,66.825806
0.39794204,69.41077
0.5125054,70.79364
0.5350004,71.03814
0.5430405,70.47905
0.6100295,72.7075
0.65681595,70.65673
0.6143122,73.87621
0.70091957,77.10499
0.85135543,73.47158
0.82822114,76.76271
0.93256474,76.1709
1.0750048,80.509125
1.1058421,82.246635
1.205886,81.98859
1.2857182,82.01981
1.3080626,84.82823
1.4122754,84.63182
1.4306649,87.978745
1.4924297,86.557526
1.5795902,90.15567
1.6180291,89.88333
1.7143229,89.68848
1.7233117,90.38247
1.7348934,92.06909
1.9008424,94.489914
1.8537444,93.73508
1.9365834,95.98332
1.8775991,98.256035
1.8701682,99.43669
1.878278,94.93487
1.9415565,99.183716
1.9177285,99.52944
1.9665623,100.76833
1.9144808,98.5812
1.951158,100.594215
1.8982643,101.303955
1.938232,101.731544
1.9733392,101.48084
1.967834,97.12793
1.9180714,100.37214
1.8414196,104.21381
1.8350729,99.28176
1.7940161,98.6712
1.8052658,99.98669
1.7998221,98.687256
1.7492527,101.179634
1.771369,100.701256
1.7026103,96.816025
1.7289058,96.35867
1.7029247,93.905716
1.6621442,96.72003
1.6873664,95.2193
1.6250117,91.17913
1.5843325,95.468025
1.5852516,92.78413
1.6217406,92.05823
1.5261075,91.80967
1.4365144,91.71842
1.6275897,93.421326
1.5352559,89.48074
1.474707,90.80461
1.5096271,87.97418
1.4795088,88.57001
1.4159766,89.28473
1.4842337,87.56346
1.4320129,87.62129
1.4260932,87.06083
1.4223588,84.56288
1.3883872,86.98224
1.4091398,86.1625
1.3475809,86.13982
1.4087871,85.20596
1.2408959,81.35963
1.2919405,83.591255
1.1792154,83.06667
1.2170223,80.81297
1.1730793,79.035965
1.1296953,79.735695
1.1230153,78.57483
0.9835035,77.698654
1.1112843,76.27938
1.0197513,76.164406
1.0090511,73.50688
0.9413676,73.83298
1.0026057,71.63055
0.9947974,73.76628
0.8761724,73.28726
0.9600097,75.66251
0.86387485,72.0034
0.96985567,73.34962
0.8945888,70.09295
0.8653418,66.59697
0.8882721,68.16417
0.9667715,67.908585
0.93424404,70.26468
0.9430994,68.26664
0.80941457,66.9564
0.8916512,66.74063
0.8193726,66.18816
0.8036551,66.75666
0.8532167,68.29321
0.7574066,64.92207
0.7684803,64.668465
0.64871234,65.555565
0.72614247,64.59642
0.59532815,67.585945
0.5859296,64.52341
0.5901909,66.0826
0.55000955,67.455345
0.45136568,67.02346
0.52481145,71.03776
0.3972218,67.73616
0.51541543,67.83065
0.52151704,73.670265
0.5777358,72.17993
0.5404968,71.36231
0.6250443,74.847595
0.5787066,70.13804
0.73762274,73.903656
0.75224215,75.53635
0.7224642,77.278336
0.9326541,74.220535
0.9280025,81.07877
1.0023162,78.67763
1.0946298,82.53019
1.1030382,82.20085
1.2987838,82.1617
1.2450721,85.04568
1.3731343,86.23445
1.4226675,85.768585
1.5404209,87.07182
1.4773787,89.29391
1.5521998,89.411064
1.7038951,90.36846
1.6313382,93.16576
1.731695,92.99198
1.7244145,91.635506
1.7683501,95.22479
1.8315139,94.22646
1.8619576,98.88801
1.8513176,99.62634
1.8390437,94.548676
1.8166904,96.68625
1.840941,96.48691
1.8638511,98.506905
1.7863182,98.558174
1.7830104,100.95096
1.8502176,99.452065
1.7892796,99.71023
1.770087,100.19963
1.6986859,103.01959
1.7581469,99.226234
1.7731285,98.21779
1.768224,100.91853
1.7682819,103.06229
1.6835024,97.59192
1.7017453,102.00291
1.6029755,99.65242
1.502323,99.0382
1.5413558,98.42871
1.5100105,100.265076
1.5067103,96.97346
1.4618062,99.11999
1.4368953,95.33622
1.4555029,95.063095
1.369471,93.0425
1.3145856,95.63568
1.377593,93.30073
1.3084104,92.918106
1.3137348,91.228035
1.3417591,91.979935
1.3401537,91.81017
1.3393278,91.6234
1.2477231,89.86646
1.3134614,89.07802
1.287987,86.56507
1.3378054,86.72916
1.1777608,85.77207
1.1791296,86.75726
1.1456531,85.47855
1.1604526,85.32936
1.1161209,82.99871
1.1447811,83.476845
1.0416948,84.53339
1.0236386,81.34107
0.919128,85.01798
1.0820187,79.91046
0.8805632,79.20776
0.9079323,80.538925
0.8338392,80.54432
0.7861461,78.62552
0.73707,74.72045
0.7470136,76.68946
0.71272033,79.46293
0.74591756,75.35407
0.71503466,74.03452
0.6046432,74.86611
0.5924079,75.58919
0.60052747,75.30419
0.62703925,71.197174
0.5239097,68.491035
0.59811854,71.152695
0.5855067,70.952286
0.5706666,71.16472
0.68069327,71.528
0.504487,71.83958
0.51246035,70.65767
0.51187694,71.71781
0.50745785,67.60399
0.49435875,68.25027
0.5679798,65.721535
0.5302876,67.311874
0.40465155,66.96192
0.4168901,69.2539
0.31325352,64.476776
0.27548036,66.12117
0.22514571,65.44117
0.26131317,64.925545
0.20267303,67.01129
0.20959409,69.27765
0.1530537,67.14915
0.16345768,68.49242
0.13228105,68.16811
0.15757577,65.88981
0.14526552,72.406136
0.0754421,68.474976
0.12852594,74.43015
0.11824362,74.04946
0.24837083,73.19262
0.192948,73.210365
0.37122068,73.96844
0.3570331,74.23816
0.42372373,76.362755
0.5055489,78.99488
0.60303277,76.50975
0.6309231,80.01016
0.74127644,81.38974
0.79384005,82.62427
0.8429454,83.40945
0.97312266,82.774376
0.9573131,84.09737
1.1063205,87.605255
1.0447726,87.46418
1.2233883,89.33903
1.213426,88.97001
1.3020657,92.66037
1.3114253,89.83455
1.3225787,95.03634
1.3647165,95.07872
1.4016598,95.12858
1.3229152,96.14451
1.4525737,99.956024
1.3889794,96.55324
1.4070654,97.72196
1.3742596,96.18752
1.4103329,94.67878
1.3895649,100.43611
1.4041212,98.52825
1.4054848,99.37302
1.4460874,100.66572
1.401346,101.449265
1.5135127,102.75052
1.4017472,100.09689
1.3302621,101.245766
1.3510195,102.45524
1.3601508,99.832275
1.3096846,97.371155
1.2550863,100.20245
1.0988493,99.94277
1.2534204,100.03204
1.1915563,99.59114
1.1564763,99.46673
1.160104,96.270294
1.1486996,99.01504
1.0643337,94.5331
1.0841004,96.03789
0.96214134,97.37018
1.022159,94.41768
1.0609816,94.66532
0.9555285,94.768974
0.89235306,95.87183
0.99298483,87.479866
0.9209384,92.44789
0.96484137,93.03856
0.8871081,89.37996
1.0134658,91.297165
0.9167664,87.94571
0.84841585,88.7324
0.9087376,84.661316
0.8357857,85.33458
0.87329423,87.516106
0.85633504,85.42619
0.86630356,85.36189
0.8650999,82.647194
0.73542494,84.682915
0.7678211,82.002235
0.7506121,79.78486
0.68794674,80.83525
0.65024245,81.06589
0.63388723,81.703384
0.5667058,82.47064
0.4691653,78.587746
0.44966018,76.0411
0.5221306,74.939964
0.44803178,78.762634
0.36805788,77.918945
0.43985978,77.39329
0.38519788,74.0631
0.24747175,76.310616
0.38729468,74.72922
0.27783614,73.87881
0.42128116,74.442154
0.24137953,71.07215
0.32052216,71.230705
0.2751408,67.67627
0.28609326,73.779144
0.26845255,70.4574
0.39730725,71.42594
0.29963583,69.44786
0.26713827,65.46609
0.24242938,68.43164
0.37543136,69.52377
0.2194146,67.24639
0.25993556,70.28019
0.25205123,67.731995
0.19937724,65.67906
0.15359597,66.44285
0.12093275,71.46236
0.10652451,69.11462
0.13994005,68.99879
0.051139686,66.01256
-0.027436238,65.7032
-0.07728384,67.7047
0.011254705,70.4548
-0.051480524,67.2047
-0.003727031,68.157394
-0.016132407,71.874214
0.057540786,68.598656
-0.03532635,73.91649
-0.003851663,67.24879
0.096021615,69.15199
0.112004004,76.928665
0.21901603,75.21997
0.20941478,75.98157
0.25846738,75.48096
0.3948515,77.42195
0.39200643,79.94796
0.4848808,78.38269
0.52860296,78.812485
0.66807824,81.89041
0.71552825,82.40612
0.79090816,85.240036
0.75481224,86.99832
0.85757786,87.576225
1.0337979,87.263054
1.1372182,92.6195
1.0624372,88.71239
1.2267776,91.80806
1.1866828,94.092155
1.3131185,91.67644
1.2871877,93.82639
1.349788,94.85042
1.313803,94.69218
1.4064015,97.70566
1.3430254,96.90325
1.4132385,97.71952
1.4434125,97.672905
1.386066,98.46624
1.353664,96.23352
1.5098292,97.92438
1.5162942,95.565414
1.3646679,100.3074
1.480548,99.41942
1.4641196,100.264755
1.4302026,102.92693
1.4457849,98.46076
1.3615756,99.10208
1.392442,97.1995
1.4002929,100.910645
1.3616085,99.377525
1.3252758,100.42068
1.2427368,98.27663
1.2742344,101.39972
1.1953403,97.527855
1.2142832,98.48287
1.1661009,98.9079
1.1649145,96.979866
1.1345766,97.153336
1.2222271,95.81755
1.0957099,91.759514
1.1015501,94.406006
1.026971,92.89387
1.0693682,92.18955
1.0729023,91.74202
1.0275041,93.493935
1.1117486,91.16024
1.0777947,91.25143
1.0513749,88.09695
0.99509674,91.81297
1.0587674,89.67548
1.0793796,87.03073
1.0775286,87.35212
1.0526464,84.271454
0.9976372,87.284424
0.986188,86.72798
0.94602215,86.176865
0.9281382,81.64581
0.8688564,83.729355
0.86545306,81.64764
0.83232963,82.78026
0.8336068,80.41485
0.85775816,80.77976
0.68966174,78.46908
0.7526562,80.40085
0.7619838,81.74068
0.6635189,79.4813
0.73635,75.53283
0.64040977,78.184975
0.57340324,75.68414
0.5171875,74.34672
0.5294502,74.61406
0.6053764,74.10659
0.53265595,74.33405
0.5727597,72.16013
0.56573254,70.22015
0.5691647,71.15587
0.62479895,70.35407
0.57269806,72.42824
0.5762642,68.29924
0.5399352,71.32785
0.63640636,69.78149
0.48400423,69.07447
0.5517047,65.26656
0.6034363,67.56664
0.53192353,66.313934
0.49429113,65.54668
0.4664146,70.70245
0.5308353,67.32387
0.47273925,64.34175
0.45215026,68.70018
0.3148937,68.230606
0.28376478,70.555046
0.29669246,68.82988
0.27844012,68.61662
0.23097055,67.90697
0.23035948,66.2025
0.21498951,70.7527
0.28538552,72.608315
0.34494984,71.09391
0.31792712,69.73013
0.32911402,70.81437
0.3687518,74.209526
0.32820562,69.86392
0.41240248,75.17795
0.47024375,74.20578
0.59763366,76.23492
0.5756469,75.18331
0.65021104,80.01371
0.7745345,79.60579
0.7683991,81.04629
0.979244,80.096176
0.9501798,80.78308
1.0605959,84.03886
1.1541519,84.427246
1.2062283,82.176605
1.3095138,85.16526
1.3063146,85.39608
1.4198816,86.97212
1.47381,88.72114
1.6340988,89.07757
1.6394086,90.76703
1.6452054,95.70232
1.6483235,92.817665
1.7442915,91.34831
1.7357551,93.56553
1.7656507,98.37666
1.7456601,97.398254
1.7603757,96.08162
1.7473898,100.88985
1.827251,98.949684
1.7763951,99.92658
1.7294717,101.26947
1.8033453,99.796425
1.8100013,104.92476
1.7679566,100.407135
1.8293924,99.634254
1.8033254,99.92905
1.8369433,100.86579
1.8294457,97.35816
1.7017778,98.84155
1.7839903,96.49733
1.7147319,100.47339
1.7268013,100.303024
1.6883414,98.798615
1.7339095,96.81841
1.6402651,97.21105
1.6131349,99.29249
1.6227988,97.16993
1.6271946,97.67385
1.5172043,97.549835
1.532782,97.049644
1.5187894,94.40964
1.4867474,95.879196
1.3412634,92.766365
1.4440094,93.71208
1.3698788,88.63438
1.5368389,88.434906
1.5167128,91.43809
1.4171321,92.105675
1.4407204,87.89554
1.3308593,92.38147
1.4318091,89.943436
1.4463788,87.72915
1.3407929,87.44313
1.408703,85.564095
1.2959247,86.84714
1.2909797,85.143234
1.3330225,83.055084
1.3493296,83.34747
1.2928882,84.05734
1.1921928,86.30193
1.1256603,83.97765
1.2223254,85.333275
1.1907864,81.261734
1.0826102,80.81312
1.0682135,82.09661
1.0482885,80.42785
1.0115949,76.17297
0.9750616,74.94441
1.012098,75.637726
0.9360222,75.03801
0.87745655,73.506645
0.9862469,72.305145
0.9793706,76.910484
0.8820863,74.655304
0.94572276,71.688934
0.9506244,72.064865
0.96480304,74.34061
0.902347,74.729546
0.8999417,68.10247
0.9161168,69.41114
0.9352158,70.99535
0.8785936,65.5434
0.91728354,70.02876
0.92199534,64.38808
0.8734801,67.83348
0.91121155,66.09352
0.8305797,68.81416
0.7992801,68.71619
0.79943913,65.89789
0.70108557,70.55618
0.73748964,68.16256
0.71096957,63.379158
0.65062976,68.07031
0.6082911,67.12254
0.53193676,65.689354
0.5880108,67.988556
0.47386587,70.91049
0.59621257,70.248665
0.52669907,68.81322
0.50384897,71.075966
0.54798824,70.67397
0.65180683,74.06897
0.68197227,76.08701
0.7088455,74.36359
0.686557,75.67125
0.84043944,78.77876
0.81467676,78.00822
0.8987744,72.28071
0.9193757,79.87448
1.0213575,76.25993
1.0720869,80.597084
1.2385564,82.8094
1.261864,84.546326
1.2820837,85.65232
1.3985672,86.38721
1.5039014,85.79295
1.5810053,86.40633
1.5603365,88.458534
1.6599237,85.196075
1.6330413,90.2076
1.7831017,91.804016
1.7814457,86.300255
1.7940584,91.33751
1.9238739,93.67379
1.9125081,97.17984
1.871405,97.06565
1.9657539,97.637856
1.8865882,96.134895
1.9762315,95.669
1.9212904,100.52244
1.9619102,101.01077
1.8975915,100.63848
1.9373131,99.47603
1.8666067,100.4058
1.9032823,101.0665
1.846973,100.25307
1.8876879,98.2895
1.9061093,100.16676
1.8096331,100.35706
1.879318,98.49005
1.8515917,100.106804
1.8266847,98.03622
1.8620385,97.977005
1.8210382,96.1282
1.7913253,100.434814
1.664773,99.71805
1.6941161,97.60129
1.6816732,97.66404
1.6418589,96.088585
1.5833147,94.517166
1.6529125,96.96213
1.5650856,94.16997
1.5539708,92.97483
1.5179389,94.70245
1.4795617,95.59409
1.4741393,94.96755
1.4437404,94.38118
1.4797357,89.8205
1.5257095,93.48805
1.4878036,91.12471
1.4941818,87.91098
1.479135,89.05516
1.4349602,89.98902
1.3390484,87.78128
1.2872005,84.37627
1.3787296,83.69763
1.3833593,89.99791
1.239512,85.47119
1.3284789,84.96178
1.273986,83.60997
1.1895472,84.775314
1.1911385,80.93425
1.1768479,82.47346
1.1543995,81.70646
1.0355533,82.06023
1.100618,80.9639
1.003082,78.17904
0.93551695,75.32883
0.9278688,81.44601
0.90230495,76.113625
0.91360337,76.30742
0.79430735,76.756256
0.78938335,73.11918
0.8499484,75.29725
0.85200655,73.4776
0.7807169,73.09522
0.8249379,71.60813
0.7707115,68.30253
0.83356047,73.53543
0.83354884,71.12039
0.7664616,71.24455
0.73890233,71.929985
0.7730662,70.1156
0.7976513,69.46825
0.6492091,71.70077
0.5708391,65.89033
0.65699255,68.5376
0.5313567,69.79385
0.60210526,66.31308
0.5529854,65.5025
0.5360209,68.45752
0.55447596,64.34732
0.36551428,68.52023
0.47581425,64.60012
0.43638557,67.789246
0.38351586,67.75329
0.32989928,66.988075
0.33533454,67.2328
0.34484357,68.36776
0.34660184,69.79384
0.30317944,67.99675
0.2920949,68.92348
0.2840915,68.83994
0.36635676,74.42415
0.41989255,71.35913
0.36335042,71.818924
0.41066787,75.81392
0.50060153,79.04826
0.54346937,76.60192
0.6389356,75.24333
0.77610046,79.25667
0.71381575,77.193375
0.76212853,80.89607
0.8820624,80.909256
0.9862827,84.4074
0.99457765,81.129585
1.0833399,83.14288
1.1479783,84.6463
1.2752045,87.01423
1.2817899,86.93179
1.3518734,88.63344
1.3916817,88.09545
1.454975,93.4457
1.470491,89.963646
1.545451,93.50558
1.5848758,95.22506
1.5774825,95.183334
1.5691378,95.19706
1.637515,100.77336
1.6230638,100.10429
1.5958718,96.86839
1.6327106,100.041405
1.531537,96.57423
1.6570944,101.88945
1.5572559,99.48844
1.643509,100.537125
1.610323,99.40503
1.5442826,100.75669
1.623885,99.077614
1.6601557,97.46688
1.5013396,99.55313
1.4836131,100.79094
1.4866552,101.479256
1.5510381,99.29715
1.4424453,97.46735
1.3965892,99.058426
1.3762133,96.95362
1.3343521,97.69891
1.3685073,97.20069
1.2364068,99.92538
1.261794,93.898224
1.2567992,93.90579
1.2611675,95.74059
1.2354527,97.68946
1.0552537,92.26538
1.206429,93.11253
1.1339885,95.741
1.0398213,94.335144
1.1057532,90.832596
1.0821879,90.19408
1.1244234,87.92482
1.0591087,91.82683
1.0565666,90.00665
1.0167217,87.99346
1.0601517,88.1773
0.9799791,87.5235
1.0092252,85.17312
0.9510489,84.78773
0.9710367,83.13795
0.9279692,85.613045
0.8657303,80.92474
0.88548654,87.32249
0.86712474,80.77458
0.800586,81.3673
0.71806973,82.828766
0.7895072,79.06088
0.63083935,81.52264
0.61294305,80.81706
0.667199,77.879616
0.6128628,78.86921
0.520777,80.02048
0.60164595,77.61822
0.4870061,77.957726
0.4894678,74.41443
0.4422863,76.13586
0.4583628,75.84583
0.4391347,74.11121
0.39678088,74.60491
0.37140313,73.03768
0.35537624,73.23224
0.37787777,72.80832
0.3724945,69.386536
0.38748944,68.53675
0.44417173,68.80715
0.34549826,67.314095
0.35437563,66.62123
0.35087943,65.54369
0.35583845,70.136734
0.33516905,69.968735
0.31225148,66.81065
0.33718625,66.17093
0.2735649,66.80028
0.17854987,67.541504
0.17862366,66.04119
0.18397473,66.20287
0.051996175,67.2812
0.028442772,67.17428
0.04671518,65.540596
0.06990938,66.36933
-0.056367833,67.42898
-0.057048794,67.28002
0.0054625184,69.59191
-0.07078045,67.861694
-0.05213662,68.62883
-0.014727934,69.08254
-0.0013879132,71.95584
0.050617717,74.657936
0.09366082,70.50279
0.16592471,77.302345
0.13520595,76.01931
0.24392672,76.27967
0.333006,76.02552
0.3963708,75.94564
0.3040308,78.28526
0.48650342,79.14014
0.59202987,83.21248
0.6423386,82.71455
0.7559739,83.2045
0.8168651,84.52232
0.8087619,86.50528
0.9738861,88.55651
0.97612673,86.25171
0.99847996,89.10322
1.1014471,89.4737
1.1951381,91.01753
1.2052529,93.20032
1.1871288,93.240875
1.3073964,93.946526
1.2651896,96.846725
1.2849673,100.8523
1.4157535,98.19302
1.3913518,94.91472
1.3333865,99.373566
1.31912,100.97422
1.4009149,101.295815
1.3589648,101.08099
1.3812991,101.09541
1.3840277,100.15751
1.321726,102.493095
1.3372786,101.38802
1.3019966,98.8228
1.3198594,100.201805
1.3303629,100.20178
1.2592076,99.26114
1.2679316,102.69011
1.2949264,99.12975
1.2889621,101.79473
1.1270727,101.91358
1.1752278,99.07819
1.2394389,94.32716
1.1550258,99.149376
1.0709105,95.33595
1.1324552,96.35329
1.0593586,95.37227
1.0292331,96.081436
1.0879645,94.78751
1.030647,93.81308
0.99373955,94.897285
0.8857718,89.29944
1.021772,91.72015
0.9674501,91.5106
0.92072994,92.14569
0.9073228,93.70052
0.91624445,88.75532
0.9628547,88.83388
0.9155211,87.85631
0.90893376,86.30097
0.8963299,89.27526
0.80825526,87.53044
0.891965,86.59544
0.8432978,84.95391
0.7939709,85.2837
0.78201777,86.087074
0.8177964,83.479614
0.7572343,84.330734
0.75110215,83.543495
0.74310815,82.35344
0.7050101,80.14948
0.6364431,82.26466
0.59022677,79.35561
0.61534286,78.759766
0.6241413,81.23028
0.5830131,80.545555
0.5664524,78.70636
0.43073145,75.89634
0.4428493,76.43692
0.4176958,75.825874
0.45163307,74.4128
0.3970678,71.308556
0.4310327,74.39785
0.4657912,70.959175
0.4254626,71.768166
0.39429417,70.57306
0.37447995,74.05158
0.39935964,69.800385
0.38553667,70.13632
0.49605247,69.71707
0.37284487,70.48287
0.44266978,67.01767
0.32534522,65.72275
0.43195695,68.58957
0.36571288,68.02564
0.34122378,68.57652
0.43293706,67.85243
0.3001328,67.59817
0.25006902,66.84668
0.317147,66.24526
0.17273867,68.149765
0.246877,66.61438
0.12259846,68.2917
0.2285054,68.25509
0.13962959,65.27411
0.08245032,69.84349
0.06730717,66.91053
0.109725766,70.28109
0.18196419,72.14153
0.21628529,73.64584
0.12377298,75.84983
0.23498665,74.42434
0.23181525,72.221504
0.22867312,74.85939
0.29615533,74.3302
0.41432506,77.215485
0.4692869,74.82277
0.49488583,76.912445
0.6588853,79.23272
0.7117283,78.94746
0.7333066,82.08876
0.9195672,84.188576
1.0515596,80.85435
1.0131955,86.264404
1.1002644,85.06039
1.124194,88.05624
1.2208581,88.66286
1.213438,92.05547
1.3879892,91.62949
1.270148,89.51085
1.371941,90.36686
1.4593328,92.93559
1.52221,95.8294
1.424592,95.34771
1.521067,96.11012
1.6344072,95.06339
1.6489818,95.73017
1.6587805,97.81783
1.6245189,98.94778
1.5690435,98.22851
1.5943342,99.98866
1.6570995,97.78225
1.6166767,98.930664
1.5712507,99.58457
1.6048491,100.04058
1.581193,98.88967
1.6492208,99.657326
1.5547949,101.28039
1.6065891,96.069016
1.5483408,103.95748
1.5772223,101.61417
1.4604626,100.63377
1.5690423,97.70335
1.5248688,98.31872
1.3478961,101.7245
1.5059241,95.4268
1.4209293,97.62226
1.324093,96.45263
1.3606257,96.73329
1.3576854,97.014435
1.4368421,94.33287
1.3801007,96.9305
1.302677,93.67161
1.221618,93.66487
1.3011413,91.82595
1.3080024,93.56559
1.3152366,90.35331
1.2292795,91.47174
1.1992284,89.683556
1.2572937,88.61893
1.1940757,87.971466
1.2601839,87.09396
1.1921719,86.29873
1.1840874,86.0842
1.2689742,85.014175
1.0786744,82.65592
1.2458241,85.26587
1.0733551,85.233864
1.1335162,81.735794
1.1074218,85.50695
1.1195669,80.90498
1.0686553,82.62307
1.0142558,82.968506
1.0425719,82.06237
1.038035,81.40778
0.9746129,78.554214
0.98499006,78.909966
0.8935097,77.58447
0.8921855,76.551346
0.796824,75.34681
0.8159228,74.2829
0.9164044,75.32806
0.7170233,73.42882
0.81961733,76.25976
0.7891596,76.78995
0.85386187,72.92588
0.7925646,71.94348
0.7583386,73.292
0.8440456,73.94283
0.8640001,67.80182
0.82828563,70.15546
0.7901291,69.88232
0.7735215,69.63606
0.7846464,67.6679
0.7505925,66.07612
0.84764624,67.058685
0.73526263,67.77688
0.5999314,66.73466
0.7175308,69.847916
0.68981045,67.128426
0.6720169,66.08264
0.61205065,66.0094
0.61794585,71.38199
0.5985971,68.344345
0.5716518,66.84982
0.4906894,69.39699
0.56139725,69.45359
0.52239525,67.714485
0.52977425,70.7045
0.53185344,68.240234
0.4737289,73.35983
0.47838813,69.28942
0.41295177,71.112526
0.5472061,73.54186
0.5426334,75.22524
0.7098167,73.21658
0.72818756,75.332985
0.78267324,75.118706
0.84663427,77.86541
0.83974993,79.23419
0.94416636,78.97779
1.1107892,81.206535
1.2363085,82.42909
1.1493758,79.10134
1.2837851,83.56354
1.3363531,86.4693
1.4525895,85.24392
1.5142361,84.41173
1.6250706,88.40158
1.5747781,88.30602
1.6882071,94.04759
1.7526453,90.10124
1.7333329,90.29872
1.8486763,94.034805
1.8842771,93.860085
1.9238524,95.065926
1.9441458,95.89853
1.9480217,93.443954
1.8692751,95.90091
1.9438986,97.19765
1.8673034,99.56878
1.931311,99.554375
1.9635017,98.53555
2.0069118,98.85799
2.0064921,102.756065
1.9282479,102.54194
1.9548404,102.990456
1.9280108,99.16992
1.9325596,98.7348
1.805236,102.97298
1.8788518,97.4641
1.9508402,100.12074
1.8679758,102.32034
1.8074129,99.892715
1.820926,99.1423
1.7414372,102.01897
1.7583454,95.606094
1.7514875,100.47844
1.6749126,96.09162
1.6247789,95.327126
1.5932955,93.41884
1.6340443,97.2205
1.6695658,97.020454
1.5624876,95.25445
1.5758417,93.823524
1.5377789,91.709496
1.5251046,96.14782
1.4833704,89.9673
1.4767103,87.399345
1.5215297,90.16904
1.4938321,91.49982
1.4935488,87.15132
1.5194058,89.832405
1.5023409,85.348114
1.419863,86.20199
1.4192064,87.24793
1.432009,84.31996
1.3161174,84.00598
1.452662,88.15022
1.415705,85.368
1.3954586,82.092964
1.3031044,84.15633
1.3354771,79.42832
1.2758429,82.06015
1.3988264,82.493416
1.2046468,82.491005
1.1672393,80.09354
1.0949929,80.09766
1.092064,78.62398
0.98530173,78.42557
0.99386865,79.0608
0.91523445,75.25559
1.0317383,76.003296
0.92769873,75.5228
0.89380604,76.302704
0.9442133,75.623726
0.8578608,72.72674
0.8560409,75.93257
0.97107595,69.64831
0.9152969,72.206474
0.8568402,70.42765
0.9354376,70.34417
0.88784295,70.12068
0.82699645,72.39398
0.9086498,67.46717
0.80228794,68.35707
0.79079586,67.339096
0.8258791,68.596855
0.75322217,68.56452
0.7620486,66.764244
0.7483486,64.622375
0.71514136,64.38931
0.6779879,69.13856
0.7160521,67.99966
0.6900901,69.219635
0.5819449,67.4531
0.58102566,71.73777
0.4724242,67.66189
0.5206351,65.05203
0.48974735,70.81061
0.43376052,69.52946
0.43915236,68.957535
0.5293466,69.20237
0.4480811,71.5219
0.5098988,73.01833
0.53789026,72.805115
0.60758954,73.29686
0.64593184,74.43514
0.6451668,78.378204
0.7631765,75.27065
0.82376254,76.992546
0.90662754,77.651085
0.9947794,79.59198
1.1145229,78.56555
1.1408019,82.64644
1.0750525,81.09743
1.2380426,86.17404
1.3836716,85.14627
1.4135338,83.75446
1.4586861,86.34807
1.4705404,88.840996
1.4244021,89.70039
1.5839298,90.19848
1.6453847,89.264
1.7348577,90.64904
1.7853041,92.737434
1.7109532,100.52952
1.7895099,94.41076
1.8386972,95.44448
1.7611233,96.176056
1.7864755,97.74762
1.8675451,96.305565
1.8009125,100.61752
1.8506196,100.12017
1.8535393,100.51439
1.798951,102.1218
1.796979,96.545334
1.6507089,99.22816
1.8070027,97.64365
1.749921,103.19914
1.7936211,102.590126
1.7594064,99.17499
1.7371101,101.13192
1.6997876,98.834114
1.5853606,99.75928
1.6474549,96.30497
1.5780143,98.047554
1.594159,98.52298
1.5216706,100.34806
1.4855577,97.273834
1.4796326,96.67335
1.4377443,97.08767
1.3312496,97.263855
1.4631687,97.70173
1.4095519,97.74207
1.3541852,93.00095
1.3261384,91.268776
1.2974212,93.32802
1.3177323,93.18961
1.3150775,92.61088
1.2665368,91.635704
1.2398473,88.34463
1.2150542,90.16333
1.1317424,89.085594
1.3113596,88.20902
1.2087826,86.35043
1.1946969,86.30046
1.1947755,85.01281
1.0925546,87.32986
1.0945182,89.47679
1.2087649,87.04133
1.1063919,86.793335
1.085339,85.2431
0.96985763,88.838425
0.98775405,83.84718
0.9694075,84.64686
0.89192116,81.56524
0.9197462,80.221085
0.8135106,81.63599
0.83325166,81.335396
0.7558369,79.67867
0.7663125,77.4824
0.7053758,76.993904
0.7453844,80.317924
0.67423165,78.53852
0.66200924,73.94949
0.62112075,74.26812
0.5352855,74.401596
0.56626284,71.32861
0.5130886,71.97039
0.6154036,72.98925
0.6088458,68.56943
0.51885563,71.9945
0.59634596,70.091866
0.56123877,68.527596
0.6058553,70.796234
0.53698653,69.30614
0.4285196,67.34168
0.4846246,69.89839
0.4493029,68.21476
0.43288237,67.29963
0.40232626,68.28803
0.35578465,66.51945
0.40618667,68.849266
0.36378267,64.91578
0.3806457,70.833
0.19148624,67.637436
0.14433989,69.92773
0.12940767,68.470474
0.15313107,64.308266
0.19761851,67.17237
0.07459153,69.0209
0.1528934,71.75493
0.06575195,69.6351
0.20887032,70.716675
0.009315325,73.02369
0.18167089,69.02821
0.2462659,68.673515
0.16993618,77.12641
0.3291551,74.68061
0.30226544,71.55372
0.31575572,73.492355
0.44928104,75.20132
0.41021013,79.780045
0.5311209,78.74608
0.63877094,77.44164
0.6732824,82.88514
0.76363593,83.41639
0.8404827,82.81678
0.89059407,84.00889
0.97634065,83.72237
1.084488,85.21859
1.13743,81.477425
1.2376266,90.706
1.2439564,93.41605
1.2359828,94.84388
1.2236599,91.12776
1.2776526,94.841446
1.4558356,93.28215
1.3624315,94.23064
1.3571303,97.635635
1.4057851,97.402855
1.4751039,95.57482
1.3821583,97.93427
1.3760893,99.31118
1.4772762,101.19083
1.4956102,99.75997
1.286799,102.18031
1.4594897,100.1485
1.3469969,98.86374
1.4078592,99.49339
1.3544371,99.24133
1.4006282,101.4302
1.3805813,100.496315
1.3107232,97.57302
1.2980598,101.09134
1.3228341,101.80174
1.2716813,101.25639
1.2586689,100.48486
1.2510142,98.1851
1.1945747,100.97866
1.1449776,95.73055
1.1173283,98.13549
1.1378869,96.64606
1.0986294,90.90952
1.0436746,98.67791
1.0413845,94.63968
0.9536966,96.874054
1.0319419,94.57995
1.011152,95.53536
0.9081169,91.87093
1.061239,92.01367
1.0029331,90.654564
0.9105833,90.4211
0.99440277,91.56549
0.8655668,91.16816
0.9207271,88.52632
0.9562401,87.290474
0.85715276,90.46652
0.8560341,84.80778
0.90960723,86.19233
0.8092305,87.41883
0.8614025,83.29911
0.7424789,83.79977
0.7886741,85.10983
0.7854117,85.366516
0.68857366,79.66699
0.6853784,85.01441
0.5384171,80.9931
0.6013972,80.72521
0.6176282,78.870125
0.5309504,80.81786
0.53648746,80.416985
0.5059046,75.17601
0.45479864,78.76578
0.44748884,76.19084
0.35096306,76.96415
0.3921106,76.03627
0.36844522,73.02455
0.4042692,75.79954
0.35954535,72.09627
0.3382593,72.197876
0.28758067,70.07405
0.46400738,72.34684
0.31458455,71.10012
0.34122783,66.67942
0.32237747,68.98965
0.31811178,71.47555
0.32891855,68.02065
0.37197635,65.86838
0.29870698,66.0058
0.22656615,69.212425
0.18280926,67.640274
0.32234946,68.67373
0.22715943,68.12661
0.18223165,65.085686
0.06876919,68.51544
0.18935637,67.18953
0.07955444,67.72033
0.016754238,63.779144
0.07265259,65.889206
0.07822673,65.34799
-0.04396253,69.50812
-0.010604371,70.39916
-0.11203402,66.17949
-0.11645717,69.47761
-0.14513856,71.302414
-0.025904227,71.561424
-0.039685104,72.60105
0.074213184,73.385284
0.04083878,73.58617
0.038367234,72.190895
0.23809059,77.35481
0.23222232,81.426384
0.37364456,76.96036
0.45000416,80.502075
0.48463124,82.68926
0.5727302,82.313126
0.630233,80.0741
0.76206136,81.97776
0.7358084,82.06847
0.8792067,84.278046
1.0142775,86.26535
0.98409605,88.832825
1.0243798,86.887886
1.1268988,89.427635
1.1815878,90.96737
1.1916125,92.82861
1.3149803,90.93852
1.3416709,93.67743
1.343772,96.44654
1.2126365,94.418335
1.3455093,94.59203
1.3404393,95.074974
1.460897,97.44095
1.4200091,97.02545
1.35838,102.155334
1.4366591,98.58981
1.4954851,101.31861
1.5152711,100.594025
1.4868224,99.30421
1.4225742,99.44853
1.3672222,99.89158
1.4400132,103.283195
1.3860451,98.60992
1.3641533,97.73163
1.3762138,99.89278
1.387518,100.81928
1.3037182,102.989975
1.2368203,98.42772
1.2478855,98.1871
1.3130391,97.52852
1.2842276,98.59767
1.2822223,98.06799
1.1773187,101.39757
1.2364645,95.36807
1.2172306,97.70477
1.1396227,95.99468
1.1642618,95.679504
1.1027981,95.272026
1.218557,90.98728
1.0794445,95.77866
1.0199653,92.567635
1.0366708,89.36269
1.045243,89.05044
1.0103797,90.59733
1.0109694,91.27807
1.0489577,89.90931
1.0759437,87.85533
1.0559046,86.44223
0.9690314,87.54668
1.059629,85.206345
1.0163615,86.89218
1.0209924,85.04957
0.94539696,84.8024
0.8785561,85.26876
0.9750185,87.136185
0.89875615,84.79307
0.84725755,82.071495
0.8207237,79.4499
0.7897138,81.83004
0.7555196,79.63631
0.7307966,78.667755
0.8361547,79.6945
0.71613723,77.836655
0.69754845,76.74585
0.65340453,77.737495
0.63854325,76.78742
0.66982734,74.54367
0.57546943,72.36603
0.65841484,77.491714
0.62970257,73.008316
0.5603998,72.646194
0.5589081,71.25714
0.646174,69.826836
0.6122129,70.85097
0.5906608,69.31314
0.60387075,70.90499
0.57645905,73.2269
0.6006232,68.96168
0.5717529,72.54479
0.61738,70.08047
0.54131746,68.73468
0.68678015,69.0537
0.53991646,71.87977
0.5408174,66.77085
0.5245503,68.94576
0.529501,66.71445
0.42864358,69.01488
0.42036662,66.05548
0.40106806,64.492966
0.36602113,69.11419
0.29186192,67.12791
0.38949007,67.76286
0.37679216,64.53946
0.28212905,66.35292
0.31022757,70.56126
0.28800803,69.68741
0.3320508,70.699524
0.39174587,70.896736
0.31814808,70.943825
0.33998516,71.6917
0.4822589,76.43527
0.51851976,76.54766
0.6020997,74.351875
0.5844697,72.32872
0.6893851,75.564896
0.81514186,80.64445
0.88860047,82.30978
0.8857115,80.782326
0.9782625,83.34181
1.124049,79.80604
1.1953077,83.87863
1.2721959,88.98675
1.4052166,90.40301
1.357706,88.47764
1.4841056,89.24899
1.484024,92.30253
1.4990089,90.45115
1.6175369,91.36289
1.580026,92.463486
1.6896714,93.85394
1.6338362,95.63124
1.8407284,95.6845
1.7314082,96.844406
1.6977602,99.8876
1.8631687,99.10558
1.8673174,96.56092
1.8563882,98.10022
1.7812449,100.084015
1.8785634,99.4632
1.8672967,99.80629
1.7802669,98.57489
1.8002377,101.44196
1.8544391,100.204926
1.779905,99.300545
1.8668272,102.11173
1.8378288,99.00906
1.8003374,97.53623
1.8059704,100.86043
1.7335066,101.56553
1.7089777,97.823364
1.7153256,99.1457
1.6506805,99.5631
1.598412,96.430016
1.6340929,97.83392
1.6699805,96.26912
1.6239262,95.134514
1.5630171,99.003174
1.4970645,95.73335
1.5191653,94.99665
1.4865093,96.86567
1.5628359,94.11078
1.4530097,93.67558
1.53961,94.24168
1.4151481,92.63533
1.4671111,92.408
1.5192727,89.61555
1.4906418,89.747246
1.4991353,91.57207
1.3966265,85.66747
1.4096253,84.69562
1.340654,89.10053
1.3791559,87.93871
1.3933085,86.954605
1.3342123,84.74978
1.2695862,83.97179
1.3735557,82.28695
1.3098801,85.88313
1.3515421,86.42637
1.1673506,82.0931
1.2345676,84.933235
1.1854097,83.45398
1.188915,82.85273
1.1462208,80.826584
1.1470057,76.64638
0.9938921,80.7856
0.9554993,81.30457
1.0284183,77.17312
1.0281074,78.7108
0.9352021,76.92914
0.91358346,75.54656
0.9983721,74.546745
0.8970017,68.89914
0.9162821,75.025444
0.92957425,75.54159
0.8684705,72.765305
0.7519654,74.813324
0.96158445,71.89656
0.8847423,70.219734
0.94928443,71.44817
0.8981001,69.7208
0.8513169,68.92454
0.887334,69.078514
0.92027533,70.2975
0.85381126,64.96848
0.781332,67.87832
0.8527488,67.23171
0.8479547,67.24266
0.7930253,65.374825
0.7046097,67.0672
0.64362615,67.989914
0.74971837,68.26811
0.62672055,69.30931
0.64660877,64.85366
0.59461904,64.93509
0.5959001,71.40579
0.5173607,69.63206
0.5742905,66.98588
0.59023464,70.16496
0.5642956,68.19334
0.5670374,74.499565
0.6023156,74.327225
0.699047,74.794235
0.689217,71.05301
0.7507856,74.380646
0.84765446,74.97047
0.87379664,76.049164
0.88862944,75.20288
0.901606,75.86939
1.1039358,76.05622
1.1046915,80.31074
1.188996,81.38095
1.2947017,83.67631
1.3342819,83.01507
1.3875474,86.58501
1.546728,86.58023
1.5837246,86.12432
1.5810882,93.22827
1.6121787,91.07788
1.6911458,91.119545
1.766723,93.86214
1.7978096,90.895096
1.8371702,92.688934
1.816396,94.00885
1.9008107,97.47497
2.0420415,96.068756
1.8828491,91.920845
1.9302987,98.89446
1.9810305,96.17546
1.9768349,96.50585
1.9529831,97.45735
1.8731425,98.71035
1.9013265,99.470436
1.9608983,98.83997
1.8519627,101.26893
1.9436147,101.20528
1.9253943,103.910904
1.8886476,103.50865
1.89311,100.49834
1.8049909,98.85687
1.8235,100.23855
1.8379003,99.17368
1.8088187,100.45395
1.7402527,102.37912
1.5851283,94.81678
1.681727,95.03144
1.6982296,99.29951
1.6050967,95.95593
1.6614355,97.586044
1.6112356,96.809006
1.5305579,96.50691
1.4217231,93.03866
1.5572692,93.4977
1.4786617,95.4529
1.4853019,91.69863
1.5097933,93.93655
1.3950447,89.9147
1.4794948,93.79561
1.3923508,90.32555
1.4403561,94.12246
1.3933287,90.288414
1.3792826,87.79393
1.3851482,88.13397
1.3074756,86.89487
1.2089005,86.37608
1.3622371,86.22905
1.301037,85.30045
1.2688286,82.98838
1.3051969,84.88805
1.1586905,82.98523
1.1884832,80.62834
1.1434035,81.21755
1.1275021,80.45468
1.0978029,83.32489
1.1319549,78.8172
1.0619999,80.6367
1.0174608,77.482056
0.96257377,77.71044
0.92834014,77.585556
0.8585578,80.1977
0.77611643,75.49894
0.91883993,78.62414
0.7685522,75.79563
0.77834004,75.1841
0.8341223,73.874756
0.7930148,70.73783
0.7699858,68.85295
0.78669685,71.313194
0.75849503,72.314255
0.79366046,72.69668
0.7051387,70.92479
0.7674066,71.23334
0.6503629,70.232635
0.69063884,67.1918
0.7811381,69.56393
0.65333056,68.93631
0.7646317,67.18777
0.6833687,67.278145
0.6436102,66.316956
0.5259012,67.48743
0.5664615,67.23216
0.491108,69.51959
0.4489333,65.93077
0.4003019,65.821465
0.35002217,67.41184
0.3737076,68.76422
0.3320415,66.53059
0.4154741,64.22854
0.2894644,67.06028
0.27062875,71.43335
0.3534525,69.54134
0.2040103,66.08047
0.29832467,69.67865
0.25677437,69.59073
0.36517265,73.65542
0.45530027,71.03015
0.40914556,74.87856
0.4976449,72.39819
0.6596065,75.23277
0.6810145,78.33964
0.80421096,78.16636
0.8225972,83.16499
0.7589979,80.63853
0.9077962,79.76798
0.9353517,84.27009
1.1148174,82.62808
1.169433,84.23147
1.2783383,91.180855
1.2065449,86.107666
1.3352805,89.59327
1.3297523,91.90062
1.3529261,84.259285
1.4213339,94.40558
1.5059617,94.52504
1.4763391,94.18818
1.5709425,94.561516
1.4776852,93.4603
1.5726347,97.907234
1.6029401,98.22605
1.6028452,96.01849
1.5717125,95.82887
1.5815943,97.01608
1.5187571,101.327286
1.5401268,99.91472
1.5162548,99.65425
1.5412005,101.963646
1.5492423,97.95363
1.5341665,101.21496
1.5479989,101.11117
1.4820985,104.428764
1.4444451,100.1878
1.4097483,101.368484
1.4647115,99.481094
1.3428335,100.20103
1.4274757,98.90882
1.3293943,100.44819
1.3398608,101.05342
1.3303479,97.797615
1.236845,100.9246
1.2163467,100.15868
1.2954229,95.664894
1.2206372,93.9657
1.169982,94.20832
1.2181464,97.29773
1.1491994,93.293144
1.0688195,92.28422
1.1779908,94.81685
1.11769,92.93664
1.0802543,88.45963
1.1234063,92.845085
0.9896935,87.619225
1.0357841,89.66687
1.0269696,88.65553
1.0183421,85.08766
0.96389467,88.87494
1.030909,87.34533
1.0308012,87.76669
0.9801988,88.09428
0.87395364,86.94473
0.8415612,83.70606
0.8714635,82.05315
0.8241197,84.80788
0.8493399,84.23952
0.7535333,80.71224
0.749447,81.098
0.6829193,81.51116
0.65159243,77.82997
0.5905849,80.924866
0.61664784,76.311
0.58176583,77.63266
0.45787054,79.14849
0.49148533,73.163826
0.46096113,78.742065
0.4527605,78.88366
0.4064233,75.36014
0.47271398,74.894
0.30486724,74.91207
0.39683527,71.26864
0.32519323,74.11306
0.3949724,71.94249
0.39813018,72.12888
0.38954026,71.88356
0.34988803,73.87274
0.3265535,70.039055
0.3350942,71.9781
0.4115821,69.12475
0.34523213,70.2612
0.21767814,68.23253
0.24190748,64.423645
0.3520784,67.03771
0.24728326,64.25841
0.24582778,67.950066
0.18779999,67.21365
0.20439056,68.79887
0.13073437,65.35116
0.09835495,68.932076
0.06754779,63.519753
0.004528588,64.70983
0.06157635,64.64219
0.004515486,67.78091
-0.09252829,66.63618
-0.032767285,68.76371
-0.026155306,69.19111
0.008080358,72.7312
0.012474929,69.5535
-0.0075097084,71.62592
0.093095325,74.359634
0.09905929,74.19687
0.18239807,75.17066
0.17985298,77.12574
0.32121146,79.28678
0.2923601,78.15939
0.41208732,76.40876
0.40978065,76.367874
0.5448587,80.67132
0.5529363,82.72456
0.8285442,85.12984
0.78694993,84.18488
0.9026053,86.97706
0.8657028,86.95272
0.9261596,85.838684
1.0841316,89.101746
1.0039424,88.943054
1.1555552,90.56084
1.2341734,90.66154
1.1903787,94.695816
1.2070916,94.62516
1.3113133,95.54879
1.3449352,95.941734
1.2983814,96.10018
1.3324609,97.16361
1.3412287,96.45672
1.3046252,101.50627
1.4015268,96.99006
1.3633426,100.70487
1.3290951,99.57047
1.3283538,102.638016
1.3705972,96.52817
1.3997344,99.88953
1.3438003,101.207596
1.4113321,100.83408
1.2636256,101.463104
1.3093082,102.341805
1.2474204,100.64669
1.3803345,100.60491
1.2796129,103.11672
1.2406169,102.633995
1.1961988,98.88002
1.1645526,94.03431
1.196638,97.5641
1.1059874,101.27763
1.161513,97.40496
1.0964022,97.82193
1.1056342,97.855286
1.015369,94.15062
1.0298991,90.96464
1.023768,96.69258
0.9332512,93.27574
1.047765,91.77115
0.94034976,91.76487
0.94487524,88.84117
0.8786449,92.43893
1.0006596,92.10281
0.9691632,93.69028
0.90301454,88.19303
0.76669353,88.6953
0.9104739,89.03403
0.9752526,88.45175
0.9377472,86.15802
0.89419043,82.7725
0.88306326,85.27482
0.85705805,83.54606
0.8452799,82.558205
0.8792173,82.880974
0.74665374,80.96444
0.8452304,80.559296
0.8439508,82.17122
0.61868906,79.085045
0.572417,83.15178
0.60034823,81.722725
0.5384018,81.50249
0.55482525,78.35997
0.5951109,81.20136
0.4365211,80.028725
0.4227732,76.68391
0.49197075,74.53911
0.4718212,74.289566
0.4283729,71.37685
0.4304911,72.877655
0.48147,70.18872
0.38480818,72.70354
0.3417429,72.44084
0.38434294,71.950676
0.45504466,73.21489
0.46612126,69.760445
0.46517444,68.9336
0.35905474,69.8079
0.30538157,69.17767
0.41447666,66.67972
0.37347138,69.75023
0.33461407,69.109726
0.3664022,69.92269
0.35199985,67.61467
0.27510497,66.214935
0.37919158,69.611305
0.2644159,68.73899
0.40958926,66.90123
0.14132136,65.79572
0.19556113,67.27163
0.08164467,66.09524
0.1530887,67.31734
0.030733949,68.643776
0.12348416,72.32334
0.17133847,68.455444
0.069302395,69.05936
0.12424844,66.40947
0.11015012,73.46153
0.15400162,71.30889
0.18893984,73.47814
0.31445697,74.63845
0.25314358,72.53593
0.3956327,74.499344
0.43377817,75.173775
0.5469924,76.74577
0.6215761,78.77468
0.62662977,79.48656
0.76493376,79.21249
0.80827934,80.31905
0.9021975,85.13271
1.069165,81.956726
0.9910017,87.08717
1.1731684,88.34315
1.1805009,90.40097
1.2997504,87.7249
1.4312116,89.16192
1.3588327,93.22523
1.4399588,93.55448
1.5319513,89.620026
1.5126661,95.30014
1.5358388,93.08711
1.5271041,97.22293
1.6022409,98.03467
1.6005652,97.04884
1.584457,99.71089
1.6326095,99.19015
1.5998304,96.03221
1.615638,97.46953
1.6074836,101.63576
1.6600223,101.53442
1.6140363,100.59972
1.6015242,100.05455
1.5818877,100.21648
1.6231984,97.29387
1.6682565,99.31021
1.648676,97.27815
1.5514327,101.946335
1.625105,100.37289
1.6246799,99.28701
1.5400841,101.46922
1.5924821,98.997894
1.4778675,100.85383
1.5089736,96.23045
1.4083265,97.41468
1.4156345,98.382126
1.4101588,95.67865
1.3811893,95.898186
1.3987135,92.2138
1.3436408,92.84321
1.3134378,93.82218
1.34732,90.19312
1.3592044,94.67097
1.3399292,92.82321
1.1698427,92.50256
1.3609729,88.71307
1.3233318,89.06321
1.3326414,92.99663
1.28068,88.32957
1.3428624,87.13747
1.3276793,88.826416
1.3219337,88.42778
1.1902645,89.78161
1.1284057,83.70569
1.1890055,88.94291
1.2286334,82.11031
1.1502111,84.34585
1.0687889,82.92403
1.1455843,84.642166
1.1009201,81.41065
1.0718439,81.49418
1.0124092,80.72749
1.1476862,80.9521
0.996934,78.74826
1.0348531,75.56914
0.9539132,76.64306
0.97928315,75.354065
0.8341313,73.764565
0.87972456,75.48584
0.8260443,72.22693
0.7238832,74.26233
0.8259501,78.09284
0.82438415,75.393555
0.7720488,77.74028
0.73223656,73.251495
0.82556915,72.14421
0.8812487,73.154396
0.7907585,71.14769
0.82687235,72.36703
0.77859354,67.43155
0.85962594,69.61145
0.7885117,68.49292
0.8754033,66.473
0.8446641,69.006836
0.71001524,66.19151
0.7458907,70.22546
0.7676379,65.44222
0.74730265,67.88258
0.75946563,66.170586
0.6588474,68.07961
0.6072933,68.038605
0.5695888,68.067184
0.48963946,65.32675
0.52248895,66.379974
0.45712,69.6413
0.5350651,71.3938
0.55632424,68.93837
0.43204206,73.475075
0.47857407,70.24908
0.50170434,71.68758
0.6143084,72.975266
0.57363296,71.17227
0.61964893,72.38769
0.6723018,72.50612
0.70062566,72.15098
0.7109013,73.00798
0.8662734,75.77175
0.97459024,77.65377
0.9612263,77.17306
1.0116253,78.39178
1.1330392,80.48288
1.0793954,81.69661
1.2720522,82.34877
1.2895101,84.42787
1.4151411,83.78433
1.4885073,85.67712
1.5435491,86.46791
1.5558299,90.265884
1.6634238,90.36257
1.6908928,93.839165
1.7502435,89.87855
1.7852416,93.50945
1.8701354,91.479126
1.8655742,96.58315
1.8696337,94.54248
1.8885928,98.18425
1.9569948,95.30429
1.9164999,97.371445
2.041979,98.41426
1.9511018,100.40584
1.9466469,98.058105
1.9761631,101.450066
2.0040643,98.59484
1.9068745,101.74867
2.0242898,98.872955
1.8784758,100.689735
1.9433882,98.42888
1.9410102,97.80226
1.8965304,99.071724
1.8709917,99.51458
1.8780203,102.76208
1.8545666,100.16515
1.7592533,96.232605
1.7769446,98.32426
1.6910285,98.80014
1.6844635,97.859184
1.720745,99.86245
1.6624658,97.79053
1.7215093,95.70466
1.681417,94.98568
1.6166229,96.98409
1.581556,91.268326
1.7053555,97.85681
1.5931853,93.704025
1.511279,92.110825
1.5359719,93.48155
1.4204177,91.55148
1.5730808,92.9627
1.5349696,90.27291
1.4909627,90.99498
1.4198235,91.18612
1.5786633,91.915375
1.441098,86.65163
1.4703336,86.36855
1.3572778,85.26436
1.438026,86.63955
1.424335,85.35598
1.4437934,79.19603
1.3703424,82.16306
1.400765,82.332405
1.2690763,87.71302
1.2674778,80.652245
1.1807969,80.46783
1.2795925,81.70458
1.1691736,76.386856
1.0337968,80.794945
1.1714966,80.894295
1.0535039,79.00751
1.0649711,77.414085
0.9646733,75.87323
0.932057,75.769966
0.886717,75.2211
1.0138493,77.188484
0.9452527,77.623215
0.94951963,73.59283
0.8654378,70.62041
0.96338785,71.97299
0.8255009,71.64964
0.88924485,71.528725
0.88456655,69.74959
0.7692336,75.85309
0.94217277,68.35265
0.8937038,71.63773
0.9344272,67.848595
0.88982654,67.03341
0.77606094,70.67524
0.7257668,67.56761
0.7449496,67.29353
0.7963427,65.78562
0.68477684,68.374725
0.73774105,64.85074
0.6037032,66.96557
0.56505,66.366104
0.6120728,65.08052
0.5873041,68.988525
0.5499611,69.25906
0.48494145,70.15627
0.5302866,69.505325
0.47904047,66.29271
0.49678582,66.93242
0.4885388,71.072975
0.53669083,71.44334
0.50939924,69.869995
0.50764793,69.2705
0.586444,71.018845
0.5664256,72.84561
0.5457378,74.15356
0.6946159,76.31115
0.7740055,76.82674
0.78897387,76.972374
0.9335584,79.64741
0.91162694,81.102135
1.0502664,77.464806
1.1060922,84.857796
1.1615337,83.94458
1.3027833,82.66011
1.3296144,86.31186
1.4365582,85.65211
1.3862734,85.89157
1.5695221,88.550934
1.6074666,90.26918
1.6726819,90.81605
1.678416,89.75888
1.660297,92.99948
1.7754663,92.03376
1.7595576,96.568275
1.6822565,96.59995
1.6793144,98.03567
1.75749,98.906815
1.8554832,98.094215
1.7538414,100.16555
1.819355,101.403625
1.7640728,99.237854
1.7810786,96.314445
1.7605027,101.438034
1.8232102,100.68039
1.7452996,99.99416
1.7085805,100.04302
1.838943,99.81907
1.6654569,99.026825
1.7030778,97.25615
1.6486102,96.40244
1.6282175,99.18287
1.6558882,94.88788
1.5696378,96.9833
1.5809042,97.36132
1.5347537,98.63119
1.4740059,101.71813
1.5130559,98.176384
1.4606669,98.93074
1.4281812,96.66965
1.3578423,96.32717
1.3940281,97.59054
1.312962,95.76875
1.3140236,94.764595
1.2457247,96.8533
1.2510471,92.95483
1.3094695,93.68772
1.2602535,90.78297
1.3233643,91.76647
1.2714181,88.600426
1.2777438,88.719666
1.2016819,88.79023
1.1426556,93.55526
1.2414799,88.63962
1.1745042,83.46249
1.1082511,85.471756
1.1421807,86.532196
1.053521,83.24515
1.0151619,84.93659
0.9716517,82.54536
0.9722482,80.12055
1.0814124,78.95859
0.92842376,81.3284
0.8566041,82.39015
0.8635573,82.728455
0.78811514,79.743225
0.79131097,81.39052
0.6569741,77.867615
0.65487945,77.58446
0.7179657,78.01214
0.7016698,77.1361
0.69373196,75.01425
0.56585556,78.805145
0.60205233,74.028114
0.53729236,74.21148
0.5504277,73.574455
0.5617341,73.83515
0.56920606,72.49991
0.5811664,69.90257
0.54800147,70.084175
0.48743245,69.49034
0.5898864,69.08422
0.50508285,68.03278
0.50787514,67.47284
0.53956455,70.20411
0.467286,68.858795
0.52618474,69.511475
0.49087238,65.911995
0.40854248,70.60751
0.41714045,69.2507
0.2819546,65.36044
0.3133178,68.777565
0.28052816,67.02323
0.1915367,65.98342
0.21396674,66.48592
0.15687452,66.482086
0.07451973,67.94458
0.11614976,65.96142
0.04832284,70.26023
0.03878059,68.73887
0.027333641,69.99268
0.070766315,68.71045
0.11530602,71.13327
0.07697011,74.719604
0.0627691,68.89265
0.21485633,72.34022
0.1012514,74.44846
0.21258937,72.96351
0.32566866,78.61617
0.34890664,75.406685
0.45713773,79.15466
0.49496475,78.18782
0.5557438,80.89139
0.65921813,78.88744
0.7099431,83.84242
0.8660082,84.849846
0.8380459,83.29468
1.0051471,86.0859
1.1083394,85.87568
1.0956075,85.549095
0.9984292,88.18857
1.1826615,89.79799
1.190218,91.32514
1.2901765,93.03686
1.3409547,93.93011
1.3069996,93.397896
1.3186753,96.87325
1.4642781,97.15313
1.3546996,95.7942
1.4557263,96.00382
1.4101766,99.73392
1.4148221,100.521194
1.420315,98.99763
1.4242817,100.00872
1.3361675,97.76296
1.3420242,98.45371
1.47689,98.75438
1.3090643,101.95627
1.3844727,97.3955
1.4224474,102.485756
1.3389405,101.76092
1.36245,97.327446
1.289054,100.52376
1.336413,100.16521
1.1883612,102.72215
1.2504042,100.811844
1.2126402,97.81155
1.1520848,96.49159
1.1579237,96.225815
1.0461885,98.831276
1.1004095,96.470215
1.068287,95.50675
1.0153729,96.51379
1.0640985,93.639595
0.9831501,95.499596
0.98720366,90.030815
0.9410938,91.82938
0.7878612,96.53916
1.0010427,94.55864
0.98725957,89.20756
0.9419617,91.410675
0.93768156,88.82024
0.8373057,87.352455
0.88971424,90.687355
0.85550505,89.62322
0.80914456,84.010994
0.82650214,89.42644
0.8241791,84.88892
0.8189059,85.240456
0.87124264,87.19047
0.84573275,82.5627
0.76314783,82.69393
0.6836957,82.92949
0.7139752,83.17324
0.67153716,81.944374
0.62507707,80.8511
0.58667266,82.19908
0.6050444,79.01576
0.6349124,78.446915
0.40335873,79.94435
0.44822085,78.591156
0.36661908,76.3621
0.4629478,78.30833
0.3967856,73.63313
0.37228772,75.13937
0.34017208,72.58741
0.41040623,74.9191
0.343958,74.90135
0.30926606,74.39405
0.31780654,73.01846
0.3442559,75.15906
0.3331185,73.11279
0.3499617,67.836655
0.2803834,68.18157
0.33018968,65.794495
0.24275555,66.5429
0.34048408,67.59263
0.34171787,65.88942
0.3196419,68.14646
0.2435148,69.56909
0.24383916,68.92284
0.20114195,68.52024
0.1347988,65.32955
0.17518754,67.61753
0.064739734,61.461987
0.21779265,66.633286
0.09745731,67.34668
-0.050641477,67.2233
-0.027467536,69.688225
0.018671203,66.69003
-0.015451521,70.89836
0.034360196,65.96294
-0.016982043,69.176865
0.013586075,71.552376
-0.010784155,68.2262
-0.037877183,71.56174
0.026129033,73.483284
0.15265132,74.45037
0.14611264,72.73069
0.17528886,73.16383
0.23204894,75.97585
0.2885988,75.60999
0.43859932,77.46978
0.45088437,76.50352
0.56700534,79.520935
0.64300567,80.17851
0.72771263,83.85926
0.7613864,81.90323
0.8393958,86.50985
0.9841584,83.4247
1.1126219,86.60774
1.0922015,89.98828
1.0937318,89.252464
1.1495317,86.86374
1.2567483,91.61977
1.3132901,91.79076
1.2786701,94.37702
1.3748918,91.73655
1.3437284,92.788956
1.3562819,94.103325
1.5062982,97.20302
1.4104452,97.31188
1.4364281,94.86591
1.4965194,100.8306
1.4392835,96.40242
1.4525304,98.982735
1.4392095,96.98792
1.4892956,99.16687
1.4029628,96.16504
1.5443087,98.93605
1.4300388,99.912254
1.5080011,98.54712
1.4649366,101.52089
1.4254185,99.652626
1.3710902,99.87096
1.3544724,100.028755
1.3901752,98.854416
1.2602757,97.87555
1.2457509,100.10966
1.3219653,102.14097
1.2885804,98.493805
1.2127804,99.431335
1.2552168,96.28298
1.2358625,95.59923
1.1466242,94.33954
1.1603044,97.17151
1.1993535,94.44539
1.1344821,93.20528
1.0737547,93.46871
1.2594539,95.3846
1.1908976,89.65669
1.0337409,93.39671
1.0487782,90.888725
1.0729628,90.54046
1.021311,90.423294
1.0384333,89.17583
1.0898846,87.071785
1.0986922,86.3268
1.0902724,86.67016
0.99934673,87.058586
1.0558465,84.612114
0.992014,85.01971
1.0882128,82.407936
1.0625203,81.98676
0.9684161,80.602684
1.0080067,82.61976
1.0108846,82.7948
0.8840479,81.41743
0.8220903,79.69663
0.7534747,80.55735
0.735505,78.26354
0.78342295,82.19183
0.7013267,76.16622
0.7210377,75.78539
0.68464744,77.48318
0.6762341,76.311104
0.71456057,74.96505
0.7288142,77.59152
0.63664234,75.28333
0.61792666,69.934784
0.58668655,74.041595
0.680511,72.700554
0.6238437,74.9411
0.723959,68.163055
0.65755177,70.945145
0.616732,70.02222
0.599598,69.70852
0.65931904,71.064674
0.6011797,70.62415
0.61249495,69.1944
0.6248074,65.92599
0.63974404,69.81424
0.679194,67.636635
0.5886494,67.49105
0.48730308,68.99149
0.5708061,70.1022
0.49214193,67.64582
0.4699207,67.982086
0.4411326,66.12231
0.34566388,67.09935
0.30538082,68.7653
0.34559497,68.7861
0.3633663,68.851295
0.2942796,66.58898
0.31753966,68.13077
0.27609625,69.42339
0.31597164,68.98067
0.43711314,71.62575
0.41417363,66.88645
0.4038176,72.468765
0.40439108,75.894264
0.5892854,74.35369
0.71004456,78.25763
0.75291526,76.14473
0.69543934,77.05097
0.88667506,78.32116
0.92486006,79.468445
1.0015676,80.43189
1.1640003,79.75414
1.2085403,82.85688
1.2630404,81.71692
1.2955064,86.13407
1.4474899,86.90302
1.4387108,87.3342
1.5435222,91.5018
1.615689,89.03502
1.5348955,93.104675
1.678332,91.78191
1.6985302,94.298904
1.8424511,92.63362
1.7372503,94.26791
1.8783579,98.95203
1.8728018,96.90856
1.824251,95.82609
1.8156598,96.28333
1.8188324,96.195885
1.8698295,97.971344
1.9257758,102.89303
1.8765752,100.36363
1.8736761,101.07368
1.9678164,102.24396
1.8889097,101.47464
1.8220865,97.61823
1.863497,101.14179
1.7725148,100.12016
1.7720687,102.823524
1.8511803,100.99018
1.796083,100.225525
1.7524838,97.67112
1.621299,102.34133
1.7401376,101.30326
1.7228171,96.73047
1.7743932,98.82479
1.609097,93.39126
1.6557926,96.686554
1.5241525,96.79221
1.5143178,95.25316
1.5993809,97.02744
1.509571,99.996895
1.4670483,92.16679
1.4908357,93.18311
1.4362873,92.628815
1.4769272,94.874374
1.5184127,92.937325
1.4646473,93.68584
1.4458772,90.77962
1.4596266,88.694954
1.3825871,88.19219
1.4579351,87.9647
1.4565135,86.49393
1.3604579,87.40843
1.4215779,85.87698
1.4209743,86.20694
1.419163,85.363556
1.36108,82.644264
1.371955,84.200836
1.3250581,83.45149
1.2662306,83.12529
1.2916114,84.79925
1.2705362,80.763336
1.1666096,80.522644
1.0790619,78.39052
1.0933758,82.83125
1.0883645,74.334045
0.99560755,75.6255
0.9933742,79.001526
1.0784158,79.09523
0.89293057,75.26996
0.9527641,75.83101
1.0016994,77.017525
0.9604461,71.27835
1.0300683,72.6211
0.95938116,73.65207
0.9729384,74.696915
0.8587759,71.55769
1.0834244,71.37286
0.9785241,72.07894
0.8882383,70.5139
0.92283756,67.18156
0.8519333,70.4477
0.84257966,69.879234
0.96995795,68.83896
0.8134492,67.61964
0.8680473,67.57999
0.8741948,68.225494
0.7839033,66.44974
0.69390994,68.85381
0.72386545,63.88654
0.67651594,65.32191
0.66742635,63.18941
0.63613856,67.03693
0.64965975,68.88673
0.5692251,65.014656
0.5519546,66.35776
0.5537848,67.37284
0.5791899,71.046074
0.5199663,70.36425
0.54863906,72.05283
0.63364464,71.35715
0.58655,71.860756
0.6505152,72.525536
0.68149316,70.09859
0.7841394,77.11875
0.7194691,72.99068
0.7801671,75.272934
0.92657214,73.491104
0.9353572,78.2273
0.92992556,84.03482
1.1330289,78.87834
1.2451775,83.50839
1.2748964,82.98276
1.359571,84.39009
1.4336138,84.9558
1.4690951,88.77738
1.506712,85.30843
1.5785241,87.039
1.603469,87.07208
1.6922328,91.482254
1.7095834,90.475235
1.760371,93.9591
1.7855887,92.683205
1.8531041,90.91734
1.8672054,92.81021
1.8939873,98.32596
1.9104007,96.730095
2.0203862,94.39057
1.9253438,99.99607
1.9254359,98.99099
1.9345316,96.67858
1.9504044,99.32133
1.9476293,99.15062
1.9423314,101.09538
1.8849528,98.57566
1.887674,102.36685
1.8831762,103.5196
1.7826844,99.61736
1.9152172,100.445145
1.8635316,100.6517
1.8948566,100.327095
1.7369088,99.888115
1.7379903,100.67481
1.7637287,100.95126
1.6681932,99.32426
1.6495125,98.7558
1.6250654,98.184265
1.6210924,99.37099
1.5431933,97.10429
1.6300373,92.54084
1.4595838,96.88087
1.4175196,96.05698
1.5320268,93.62381
1.4344963,93.48219
1.5055343,95.72844
1.4183756,91.91681
1.3936777,92.028946
1.3898202,91.036835
1.4538835,90.15709
1.3645841,91.31517
1.3927144,86.95652
1.3600994,90.043594
1.394475,86.967445
1.268523,87.9533
1.3138298,84.570114
1.2834477,85.534874
1.2916238,84.972755
1.2370026,85.18268
1.2474253,82.72625
1.1606649,84.11168
1.1073174,82.89157
1.0992179,82.795525
1.0370955,79.27597
0.94769627,78.34715
1.0635524,84.13503
1.006746,81.196785
1.0383826,79.97994
0.91191715,77.83828
0.91725856,75.2546
0.8536919,77.341545
0.84422797,80.1131
0.88446206,75.154724
0.7718336,78.46853
0.7802343,74.2035
0.7862306,75.45904
0.72930104,72.800575
0.7890923,71.674934
0.7478866,73.17672
0.6767529,70.19261
0.78805476,67.829216
0.764168,70.65763
0.6624195,69.72729
0.6828415,65.797226
0.75487316,70.68048
0.6847523,72.57221
0.67372864,67.8042
0.65652174,67.052826
0.63894457,69.692154
0.56321454,66.80775
0.5643584,66.79806
0.57848024,60.39066
0.4908399,69.60387
0.48500252,68.22221
0.46908408,65.2815
0.33979493,64.405945
0.3104855,65.317764
0.35418317,66.49961
0.29317832,67.597855
0.27832794,69.01495
0.22030038,67.47948
0.2388108,67.06645
0.27297762,71.99533
0.33109483,69.08736
0.33854333,70.07292
0.31176507,74.809074
0.30991742,72.712654
0.389599,71.80544
0.48886088,72.083565
0.55199695,74.96353
0.5611588,78.23041
0.678437,76.65195
0.7864696,76.96264
0.8091647,78.10305
0.8800702,82.43887
0.92475843,80.520706
0.95190644,82.76714
1.034696,86.62923
1.0731252,87.30486
1.1290761,86.995445
1.1808306,86.920166
1.3930291,90.70592
1.3671874,91.7165
1.3687593,88.6807
1.3919935,90.75667
1.4545702,93.93172
1.5157077,93.01112
1.5618943,93.112686
1.4820795,99.17427
1.5407672,94.33233
1.5258943,96.78964
1.4900274,97.61595
1.5157831,95.243744
1.5384536,98.469185
1.5746459,100.20883
1.5852529,103.013535
1.5908401,97.46315
1.5692402,102.91034
1.6270931,101.47771
1.4803959,100.45395
1.4807746,101.90312
1.4963118,99.918526
1.4410285,100.88073
1.4653324,102.68722
1.4362122,101.57286
1.3180795,102.13722
1.3840668,100.79073
1.2845738,95.43169
1.3380138,100.55908
1.2795255,99.0142
1.2514777,98.8575
1.1576962,95.92423
1.1876972,94.26932
1.1266444,95.84262
1.1220484,93.78251
1.1410741,95.20783
1.1028688,90.66492
1.1279615,93.09164
1.1077203,89.93746
0.982129,90.56813
1.0094117,90.95172
1.0533148,88.38631
1.0905036,87.379654
1.0473068,89.029045
1.0129789,90.013916
0.96562564,90.49823
0.9897782,89.1304
0.88024426,85.8805
0.9046665,88.560234
0.86096555,88.10392
0.9594385,84.61627
0.8849275,85.27612
0.77989244,81.92734
0.8271649,81.52866
0.77078336,81.22703
0.6873612,79.02771
0.69406056,81.0385
0.5694005,82.00885
0.6080616,84.28834
0.5937962,78.43058
0.5470507,82.56926
0.524401,79.14278
0.46059337,79.37231
0.43152022,76.268105
0.49535412,74.41675
0.33946455,75.636345
0.5150283,77.103195
0.463247,75.78215
0.41785797,73.94723
0.3770024,70.497604
0.45269322,72.37734
0.33737713,70.70135
0.4201622,69.258415
0.3275135,75.67304
0.34275305,70.33847
0.39541286,67.00771
0.3863027,67.60606
0.3624873,69.26234
0.23825629,70.8043
0.32068348,69.28891
0.2506518,71.33482
0.2618597,68.81661
0.23039137,70.0851
0.14810988,66.087494
0.1679876,67.991875
0.12694503,66.07851
0.15437871,63.046318
0.05960083,65.769005
0.03493858,66.76029
-0.0063620214,62.24739
0.019734748,68.40992
-0.0016922426,68.192535
-0.020424495,66.88346
-0.05364513,68.94885
0.04904479,73.149475
-0.06280015,72.26556
-0.059849635,70.62928
0.07712235,71.69992
0.06015149,77.73428
0.14438282,74.08293
0.1298333,71.60854
0.20403998,80.5883
0.25038123,79.033875
0.46013793,77.96412
0.41276255,79.07673
0.52594405,82.30098
0.5369723,82.24447
0.6433694,85.75589
0.7337763,83.532166
0.7657215,87.0301
0.8124002,84.35708
0.87894,86.01263
1.0630654,86.41574
1.1002212,86.84068
1.0825741,90.433365
1.122657,92.19784
1.0834209,93.61758
1.1946083,91.32456
1.2778691,95.05856
1.2202815,97.02634
1.2800622,95.73014
1.3861336,97.82109
1.4554162,98.77132
1.3276808,99.52421
1.3666134,101.41595
1.3640217,101.790016
1.3741523,99.76251
1.3271552,98.94287
1.46085,101.44205
1.3541604,97.22784
1.3122555,101.1092
1.2384539,99.82571
1.3116417,102.106636
1.3727674,101.77295
1.341546,98.41435
1.1706845,100.93608
1.3220142,100.94895
1.2473867,100.42505
1.1744367,98.52053
1.1581953,95.84584
1.2342427,98.54594
1.201183,97.89797
1.1630856,96.70424
1.0574586,98.85092
1.0599607,94.58854
1.1403525,93.339516
1.0113235,97.76125
1.0155437,90.69019
1.0084983,94.69126
0.92629504,96.09001
0.97296685,93.39499
0.97280806,92.04666
0.9757937,90.13029
0.93350655,90.84303
0.9320183,85.78175
0.92136925,89.4472
0.93594396,89.17877
0.91950864,88.176735
0.93105316,86.730255
0.8965589,86.63142
0.95640993,85.97628
0.8714413,86.42269
0.88745624,84.22175
0.89383495,87.1364
0.7955464,83.91585
0.8025848,85.03592
0.6777772,81.80799
0.7711996,82.16912
0.65601385,81.800644
0.66606337,80.19327
0.6726398,79.33431
0.5722785,78.777855
0.5884832,80.96643
0.6133637,78.04095
0.5762217,74.803604
0.5402116,75.13341
0.38586792,74.7797
0.41672468,73.4922
0.42830703,72.738144
0.36404398,72.360916
0.4366628,72.89094
0.41812328,74.106155
0.44066125,74.97597
0.41424316,71.550644
0.4710354,72.41342
0.42026415,69.264824
0.48251885,72.266846
0.48692012,68.638885
0.43712598,70.03834
0.43432012,70.46364
0.46450007,66.41487
0.47873357,68.01501
0.29616007,68.047356
0.31231242,64.22314
0.34124,62.50986
0.3008902,66.10107
0.24873152,67.3918
0.32454413,66.38442
0.2927642,71.02027
0.16170207,65.79005
0.17472383,66.81483
0.17090173,68.72721
0.1696924,68.099045
0.055458296,72.5837
0.073950864,70.25544
0.19116268,69.08814
0.11982196,71.131256
0.2083553,68.876495
0.15879963,68.91127
0.18408258,71.5457
0.25737777,71.38257
0.33298117,71.3765
0.43985847,74.729034
0.45099223,76.31773
0.5481932,75.73788
0.69380045,81.22287
0.67629766,78.286934
0.78433454,77.694046
0.85738355,78.06083
0.9342981,80.400276
0.9858813,82.15886
1.1146646,83.58818
1.0348161,85.44182
1.1393422,85.0822
1.279817,86.0272
1.3968767,88.1235
1.3502187,91.0293
1.3454328,91.17779
1.4930484,92.10804
1.560129,90.83352
1.5087831,91.794945
1.5879171,97.125946
1.5613446,94.59606
1.6432186,96.98447
1.5972718,98.89238
1.6816703,99.05928
1.7441474,96.70298
1.7256268,98.985344
1.6014564,99.17326
1.7668122,99.04364
1.7077098,101.56912
1.7129091,99.52939
1.6161716,103.13426
1.6698015,101.09337
1.7171154,95.96919
1.6982672,99.80228
1.6683636,98.43311
1.6191858,100.93299
1.6345661,97.87736
1.542211,99.54374
1.5766585,97.29333
1.5524901,97.70522
1.5632126,103.953125
1.5133346,97.02556
1.4992448,97.80454
1.5193473,97.29952
1.3723661,99.13356
1.4123904,96.070786
1.4184054,95.41098
1.4292725,95.861626
1.3658749,93.55968
1.3076608,89.97322
1.4220455,92.765625
1.3538243,91.20251
1.37026,92.14178
1.3122215,87.72876
1.3328794,89.697136
1.3686334,90.586655
1.3055767,90.73635
1.2592344,88.32491
1.2813325,88.322655
1.279408,86.99443
1.2662891,87.08399
1.1932063,86.8299
1.2253422,86.29318
1.2657595,85.7026
1.1782894,85.49078
1.0908686,81.63542
1.2526863,82.83403
1.1819993,82.59774
1.0550005,83.11112
1.1165214,81.81127
1.0712435,78.51651
0.9238867,76.23762
1.0225047,79.57692
0.9635122,74.51988
0.87114006,77.58534
0.8712742,72.50943
0.86057776,78.68926
0.87272185,73.502365
0.80035967,77.16066
0.85530317,71.8649
0.79988843,72.27355
0.83095217,76.68023
0.81308585,75.60398
0.75515014,70.12159
0.87565404,68.674904
0.89174896,74.85359
0.84313416,70.11933
0.865924,71.661095
0.8440435,71.895706
0.84110516,68.499886
0.8478721,71.52166
0.810301,70.3714
0.74506557,67.5667
0.7644239,64.86156
0.73734105,67.932236
0.66446024,66.26679
0.7336567,67.45273
0.63728744,65.47487
0.674046,66.25834
0.6330466,67.75908
0.5533606,67.20618
0.4846823,65.69552
0.5361951,67.29939
0.51733625,68.11849
0.5267773,71.95977
0.42969906,68.99916
0.4690622,68.23413
0.5328437,72.02773
0.5735603,71.1964
0.58543,73.19532
0.6051391,73.557465
0.66502154,71.88981
0.75366867,73.38617
0.8565675,76.59716
0.81571835,78.831215
0.9720578,78.17183
1.0423528,79.98307
1.1655816,79.95697
1.2710314,80.58732
1.2799039,80.74543
1.2510321,83.558334
1.3872607,84.74265
1.5265564,88.18963
1.5277256,87.674164
1.6165828,87.94406
1.6791778,85.22528
1.6867441,91.39991
1.8072253,89.457504
1.7754983,92.67543
1.8521616,94.502785
1.8934094,91.321724
1.824702,93.53516
1.8778588,97.802574
2.0238106,101.16113
1.9107953,94.96353
2.0297916,98.209465
1.935124,99.90955
1.9603176,94.97817
1.840946,100.7112
1.9470208,101.10518
1.8990386,100.565865
1.9750978,99.95097
1.9794507,100.91946
1.8737842,99.14862
1.8671875,99.907875
1.922329,98.40026
1.8705009,99.64687
1.9451727,101.70339
1.8356516,103.22307
1.8107947,98.8177
1.766672,101.28574
1.8155799,96.31976
1.7550591,96.06081
1.7631699,96.40479
1.6981992,99.22546
1.6813192,98.78857
1.5999179,95.902756
1.5895522,93.746704
1.5923578,94.51029
1.5854677,93.78967
1.5227629,94.484344
1.4934582,91.55768
1.5623659,92.082275
1.5492964,95.02648
1.5477887,95.43262
1.4348894,90.60842
1.5069524,92.13628
1.4350063,90.17069
1.4837493,85.64682
1.5070746,87.07139
1.4184326,87.36081
1.406143,88.00917
1.2463536,86.3965
1.3599565,89.2678
1.3453515,84.68186
1.3044993,84.93625
1.2866135,86.52327
1.3578172,82.871
1.221233,82.67789
1.2246803,80.70321
1.1784908,81.76172
1.1770153,78.478676
1.0899762,78.715385
1.157686,83.21166
1.0628297,79.38267
1.0619678,74.50368
0.9887288,78.799225
0.98592955,78.97674
0.9658389,75.70956
0.86880237,74.41991
0.9242779,74.77777
0.90759516,75.558395
0.92513365,72.099434
0.9004775,72.33481
0.80075836,71.07184
0.9425487,71.602936
0.8720382,68.07387
0.8478759,70.0257
0.8056156,71.98135
0.81558764,69.84029
0.86806494,69.59792
0.8351479,67.67896
0.79068524,67.284515
0.8476312,70.189095
0.76510394,69.04742
0.7570698,68.117615
0.6609345,66.565094
0.68478924,66.89111
0.6400614,67.307236
0.6718299,67.18167
0.6348114,67.83512
0.50158244,66.113945
0.59767514,66.12684
0.5358714,67.103226
0.40162775,64.793274
0.4790962,66.8488
0.3932409,67.609856
0.49463016,68.92244
0.4105154,69.787476
0.43223494,70.213295
0.500556,69.41755
0.49694034,68.758965
0.5752835,72.21471
0.55960363,71.563324
0.5998565,75.70386
0.749153,76.62903
0.7768536,77.14745
0.86097264,79.18009
0.90948594,77.17467
0.9915192,78.36855
1.0725689,81.18101
1.1669339,85.204285
1.1899341,84.336365
1.2957655,84.34685
1.3956281,82.93987
1.3831843,82.89754
1.377499,88.15716
1.4809607,87.5081
1.5330368,89.180374
1.5845915,91.05592
1.6404271,91.638794
1.7045934,96.355835
1.6475892,94.89271
1.6883477,94.292145
1.7145977,96.091385
1.7282692,97.06072
1.7535497,94.95324
1.7796054,97.24426
1.6824958,97.32483
1.7162093,97.21751
1.7345006,98.01377
1.7055705,100.20596
1.8214643,99.10682
1.6676047,95.21045
1.642439,99.482956
1.7673659,100.61259
1.5721359,99.646515
1.6170162,97.136635
1.535327,100.21328
1.6081898,98.99845
1.6274297,99.0031
1.6387521,96.95804
1.5143015,97.83429
1.5139791,99.62931
1.4717572,98.28388
1.5104975,95.5511
1.381033,95.84828
1.2735114,98.24592
1.4376353,95.08374
1.3628268,96.76239
1.3922218,96.65529
1.2629249,96.1589
1.1663483,92.44744
1.2350619,96.72044
1.235025,91.03366
1.2033617,94.18934
1.2287513,91.41624
1.1835904,92.6041
1.1649765,91.500145
1.1871372,90.97337
1.0953358,90.331184
1.1335015,87.78151
1.1804649,87.951126
1.1190194,88.11341
1.064755,82.08876
1.0498736,85.310326
1.026057,82.28508
1.1189884,84.94472
0.8957133,82.75508
1.035023,83.848724
0.8422731,82.34362
0.7908154,80.77241
0.7918695,82.14057
0.77189386,82.77911
0.76550657,80.55483
0.7011682,80.24948
0.69637454,75.97438
0.66429734,78.28934
0.6293962,77.0288
0.62018555,76.4141
0.56184727,75.041145
0.5651737,76.5531
0.55808914,74.173965
0.49431065,76.469666
0.47974405,76.15477
0.5147518,71.15967
0.457272,69.93962
0.5169823,71.63763
0.49346536,66.86785
0.5525487,68.3933
0.52962434,71.904495
0.47650787,70.37443
0.4182201,66.97117
0.51456475,71.55246
0.47120625,69.821815
0.42961776,67.125046
0.42667693,68.38886
0.33681512,68.43329
0.40116647,65.1941
0.30202675,67.27499
0.32855156,67.60067
0.15679498,70.357155
0.14074755,67.30932
0.1291892,68.330086
0.11921417,65.003
0.13842937,66.06523
0.12423499,70.3889
0.008743247,68.06209
0.059086267,68.68356
0.061068222,66.10869
0.037586994,67.90342
0.05693082,71.86471
0.13079403,72.08655
0.2848231,72.32308
0.19310717,73.29302
0.28119096,73.143425
0.28629568,76.58344
0.28557453,73.79164
0.28241035,77.028725
0.4701117,77.782036
0.4945947,80.696335
0.5444094,80.630005
0.7497633,83.67199
0.81796265,82.40434
0.9111904,81.92459
0.9264169,83.50215
0.92268384,86.69866
1.0805937,87.01177
1.0808454,89.34506
1.1916683,90.051956
1.2219331,88.54828
1.1936047,92.558784
1.1872606,93.49989
1.3565464,92.28283
1.2885935,96.222885
1.2817185,93.41006
1.4520801,93.20834
1.3793087,96.936584
1.4165286,98.539055
1.3358331,96.58265
1.3481083,99.36312
1.4381559,99.3176
1.4581903,102.54077
1.3798629,101.573006
1.3309088,101.080826
1.3360499,98.99703
1.3056225,99.69608
1.3954198,98.82566
1.3390284,100.62175
1.3549196,102.17989
1.2930386,102.685646
1.213964,97.15606
1.2030418,96.597
1.192501,99.31387
1.2304733,97.27102
1.2173154,98.547356
1.0435878,99.45617
1.1831677,97.73825
1.105604,95.03973
1.0083077,99.22153
1.1007214,98.00274
1.0742797,97.56452
1.0218483,94.93515
0.94524384,96.6647
0.98204386,94.25001
0.89276826,90.37935
0.9179246,94.78384
0.8842976,90.38808
0.9542968,89.831024
0.91692096,91.22392
0.86632377,91.4717
0.8596714,86.13076
0.9062374,88.67545
0.91426545,87.93791
0.8578484,86.76226
0.88484997,89.4738
0.8832614,85.05056
0.8025966,85.12976
0.7116196,82.74121
0.7441349,84.40171
0.7387423,84.86096
0.73872626,82.2025
0.70930755,83.233574
0.58298653,78.00341
0.6454015,81.34295
0.54155,82.64602
0.5766317,79.29288
0.5545761,81.81168
0.53884953,75.61035
0.43199834,77.78935
0.39179963,75.9752
0.40183148,78.68436
0.39547017,73.14068
0.3912362,74.62575
0.37721634,71.38219
0.3374461,74.64918
0.3858151,74.85151
0.2883801,71.62126
0.42289022,73.05944
0.40776035,71.44765
0.24500944,70.2449
0.27545953,70.04434
0.39989042,70.44811
0.34451735,65.39186
0.3057082,70.16158
0.33848444,66.984985
0.2354304,68.308945
0.27687708,66.98874
0.18316208,69.11536
0.34191012,66.453224
0.2948478,69.47255
0.27987924,68.02177
0.21407896,68.19082
0.07470432,62.662056
0.11923724,68.854126
0.026204228,67.118484
0.03714221,68.2534
-0.031683985,71.65495
0.046861563,67.060684
-0.008301008,66.85747
-0.026962573,70.11815
-0.035595663,66.809204
-0.057864286,70.4917
0.022439033,70.376785
0.020245265,71.393425
0.13227656,71.98891
0.04345567,71.92272
0.100370385,72.51759
0.23119318,73.85702
0.26771915,76.49726
0.3977689,76.55767
0.43759662,76.6948
0.5475988,79.5953
0.6462155,81.02903
0.7227293,81.21577
0.7652717,82.85706
0.8522641,81.09927
0.94970644,84.98332
1.0824567,85.65724
1.0767049,85.11386
1.1986387,87.82768
1.1529127,91.59789
1.2079937,87.56723
1.2481965,88.492546
1.3607452,91.147095
1.3263088,92.414276
1.3578671,95.603485
1.4622128,96.61492
1.3317239,98.670265
1.4510915,96.031235
1.52261,96.02923
1.465632,94.76913
1.5242921,97.20469
1.4413146,101.00124
1.4669698,100.225555
1.5488853,97.947174
1.6183027,100.34683
1.51732,99.96429
1.448095,102.27933
1.403008,101.97097
1.477548,101.477234
1.4583099,98.44796
1.3538196,96.52969
1.345409,98.43869
1.3603051,103.04462
1.3613415,100.64629
1.4022082,99.48074
1.4011031,99.90832
1.3537346,101.646255
1.3350208,98.23812
1.3281146,99.56569
1.3220606,98.887726
1.2880809,94.039825
1.1543065,96.025276
1.2611856,94.04751
1.1779988,96.39874
1.1473076,92.0806
1.1482215,93.79689
1.142494,89.30771
1.1857191,93.01229
1.084347,91.10756
1.1997805,87.156624
1.1839943,87.93467
1.145212,92.78921
1.0772539,89.72204
1.1063161,86.475784
1.0605947,87.48796
1.0554514,85.42557
1.071481,86.35489
1.0678189,85.98769
1.0076233,84.03276
0.9972953,83.75557
0.9919219,84.333595
1.0087636,85.373535
0.92514205,80.473595
0.9036618,82.32279
0.88517684,77.1022
0.9490282,82.456215
0.8550549,79.21342
0.7568755,78.9205
0.80612624,75.796936
0.7692268,78.761345
0.7494714,74.81939
0.7267194,74.82427
0.69122976,75.886314
0.60652995,76.16798
0.6394131,75.05283
0.5718955,76.412
0.722458,75.94589
0.6516593,73.94386
0.6924775,72.331924
0.68391645,69.85519
0.71959066,69.03983
0.75070477,71.315674
0.6583602,72.27306
0.65180993,67.16704
0.64979225,70.53447
0.6542958,68.929665
0.61475,66.84386
0.61637133,67.953316
0.6387494,67.15073
0.5897032,65.19737
0.5397466,66.44995
0.56172794,66.88375
0.5803411,67.56043
0.46322495,65.00718
0.51035345,67.55766
0.41267496,68.34813
0.4046885,66.66617
0.42073876,67.65412
0.3925955,70.75369
0.38997278,68.745285
0.24640447,64.624176
0.34024766,73.56625
0.274894,68.73773
0.34796587,74.39545
0.46583825,71.93607
0.51323116,72.59664
0.44066915,72.19105
0.573151,74.98469
0.6621236,73.00902
0.6393094,76.99151
0.72931385,73.45871
0.83970183,79.96689
0.95848244,76.12527
0.98122656,79.04681
1.0758985,82.82756
1.1802906,82.21688
1.3022059,81.939674
1.2731119,85.37753
1.2791824,85.252815
1.4333627,90.24757
1.4702541,83.8108
1.4916259,87.27773
1.5173948,94.27214
1.6819322,90.38272
1.7607121,93.153854
1.7879602,97.15553
1.7621068,94.69104
1.8144249,95.951645
1.7809099,92.94555
1.7874657,98.03562
1.8823708,98.99773
1.9089433,100.091805
1.9146304,98.87548
1.928774,98.27759
1.835357,100.75941
1.8991483,100.99522
1.8692619,99.67358
1.9054325,100.86662
1.9388653,99.69693
1.8580412,101.80272
1.8657235,103.56933
1.8795109,100.21029
1.8875403,101.94062
1.8445905,99.97192
1.8664056,100.08256
1.7405673,99.94817
1.6756692,97.103134
1.6923807,97.80326
1.656443,97.972916
1.7069083,92.52686
1.690537,97.13733
1.6813564,94.7584
1.6011502,94.98457
1.5712113,93.46389
1.6274614,92.63866
1.4688662,92.970955
1.5463736,96.37488
1.4958702,92.1391
1.5515122,88.957535
1.5334812,93.0608
1.5591133,89.170456
1.4919876,91.84914
1.5475466,89.31419
1.4881963,89.41876
1.4927088,88.768105
1.4057229,86.85443
1.4211985,84.54202
1.4184641,89.090416
1.5468502,86.11907
1.4321516,87.49365
1.3005304,85.15324
1.4082894,81.749306
1.391284,83.39991
1.3003141,84.887985
1.2808188,84.1449
1.2470363,83.10485
1.2780144,80.158844
1.189156,82.65633
1.1310809,81.739075
1.1166489,80.241936
1.02818,74.82523
1.0314919,77.36813
1.0325215,76.27051
1.0565865,75.38808
0.9599011,75.3011
1.0082335,77.639046
0.8999073,71.861046
0.91156,72.46692
0.86192816,71.78911
0.9016694,74.30757
0.89310306,72.9132
0.9635391,69.94979
0.90085167,74.741974
0.8906366,69.076805
0.87720364,70.516655
0.9112225,69.07352
0.8613573,68.04236
0.88795936,68.685036
0.8934012,69.237526
0.8770107,67.09219
0.8720463,64.51272
0.79574096,64.9745
0.7822672,68.862045
0.72935736,67.40314
0.71310544,66.50249
0.78257257,66.74234
0.69894993,65.55878
0.6441586,68.0971
0.56121373,71.05126
0.6135953,67.19563
0.54387087,70.21676
0.5363559,66.61851
0.6168632,69.11016
0.538537,70.436485
0.48093122,66.639084
0.67174447,70.442856
0.516939,73.87656
0.56613874,72.83387
0.5520033,73.89282
0.7516496,76.68853
0.73922783,73.34116
0.82525253,74.41052
0.9208946,76.90796
1.03775,81.55024
1.0372125,78.90869
1.2042754,83.2381
1.2056777,80.818115
1.3199209,83.74183
1.3522012,82.84151
1.3980812,84.74492
1.4934145,87.11068
1.5221739,86.09504
1.5820647,91.83919
1.6508425,91.20391
1.7180855,91.889946
1.7688985,91.31844
1.7179784,92.24846
1.7802038,97.49135
1.8331089,93.33326
1.8952053,95.73251
1.8950788,99.55171
1.9421974,96.51613
1.8518741,96.08925
