ppg,abp
1.1202092,90.45553
1.1577573,91.56212
1.2266628,92.538185
1.2992426,96.34572
1.320993,94.53293
1.3904527,98.02139
1.3921943,99.5836
1.5600743,99.091324
1.5303253,99.35421
1.559978,100.799675
1.6434706,103.753006
1.702736,100.372665
1.6645374,102.280624
1.7011575,103.03142
1.7481976,105.675644
1.7278416,105.22539
1.6891365,103.41413
1.6626245,106.75892
1.680236,104.43552
1.6610022,106.70384
1.7000663,103.37308
1.6444232,106.27012
1.7596972,106.96585
1.6521099,108.47143
1.6030902,107.62676
1.7635399,104.08681
1.6301574,106.00864
1.5446647,102.9676
1.6533473,106.26298
1.5917212,103.69125
1.4818559,104.6349
1.5423946,102.11974
1.4665198,104.12472
1.4513823,101.68933
1.5021907,104.031364
1.4707228,102.378914
1.3632532,106.67764
1.4036909,103.16639
1.3651946,100.20325
1.3820754,99.93897
1.4005003,100.67981
1.3179897,99.19535
1.3428216,94.4094
1.3295116,100.104965
1.4425775,95.34039
1.3689426,96.3206
1.3018909,94.98275
1.3032349,92.92214
1.3237137,97.72863
1.2406098,96.834885
1.3434994,93.49333
1.1999218,92.349625
1.2429911,93.17041
1.203128,96.01214
1.1634486,92.7493
1.2265244,91.645096
1.0664874,95.50169
1.1005607,89.59299
1.042386,88.104515
1.0629708,87.26597
0.91401094,86.57443
0.9881062,87.60895
1.0259053,88.74557
0.9762648,82.851135
0.86957,84.51358
0.8840261,83.13825
0.8847628,86.00696
0.8732784,85.26031
0.8689815,84.102684
0.76988184,82.38012
0.85928774,81.19764
0.896369,81.16261
0.87461734,77.38566
0.8061956,80.437004
0.8121753,78.49353
0.93724525,80.86206
0.7916182,78.55851
0.797162,79.33241
0.8135584,79.76626
0.7438812,78.04245
0.65894437,79.76141
0.6335063,79.86577
0.75160986,79.36902
0.6711889,76.637955
0.4227889,79.61769
0.651525,75.52058
0.5436687,80.66118
0.5805066,81.00785
0.5455765,81.29271
0.5714501,78.36164
0.46581605,82.43445
0.5379042,76.54836
0.4991839,78.35526
0.5599507,83.44498
0.5070198,83.49509
0.636087,84.1538
0.6756732,85.799385
0.80435157,83.30864
0.8725357,82.92496
0.92032915,89.50676
1.1022426,86.95969
1.1495581,88.39105
1.2274328,93.20952
1.2595879,93.70212
1.301445,90.45956
1.3535882,92.13895
1.5085667,94.24228
1.5360588,94.803314
1.6458495,96.78526
1.6524056,98.63327
1.6544485,97.7994
1.7525139,99.72089
1.8757577,101.08344
1.825843,100.30498
1.9435539,101.94889
1.9854724,99.7097
1.8598667,103.11074
1.9210718,105.07493
1.9644814,106.248245
1.9582608,104.97076
1.9905444,102.20539
1.8319384,105.525826
1.8722738,106.133995
1.9446405,104.8664
1.8927646,107.30761
2.0014908,108.209755
1.8929466,106.96169
1.900408,106.764496
1.9357125,103.661255
1.928055,108.37875
1.7934245,106.22562
1.8328588,102.39113
1.7788905,104.86909
1.7109642,104.809044
1.7591244,104.191216
1.6991221,105.70857
1.7129301,106.51601
1.8093693,99.10725
1.6702931,103.321365
1.5742458,104.22929
1.6187729,100.127174
1.6070138,103.53453
1.5293577,100.83967
1.4908355,100.816246
1.4753418,100.95791
1.4679484,99.28248
1.4842107,100.09277
1.4813162,99.1268
1.4708828,99.46302
1.4811436,94.0154
1.4101396,94.90645
1.4415998,96.37473
1.4846085,93.91654
1.5013787,90.89804
1.396736,93.83995
1.3756949,91.14582
1.2998933,91.82119
1.3743566,93.11023
1.3446915,93.29862
1.2956426,90.89998
1.189175,89.59976
1.145471,87.97154
1.1688304,87.67876
1.0546262,85.800156
1.0732583,90.58108
0.9388915,87.342735
0.9066336,83.282845
0.97457343,87.33325
0.9160062,84.86247
0.8673573,84.8359
0.85161865,84.25584
0.8615808,84.2473
0.76682556,84.93823
0.8156929,82.022575
0.97652906,83.460434
0.8201488,81.30926
0.96458167,79.06827
0.89735776,79.894875
0.9867192,81.75711
0.7190009,81.03924
0.81620026,81.03661
0.74484414,80.42402
0.7151212,79.968445
0.6980979,80.984886
0.61854607,75.342514
0.7093306,74.571075
0.71636313,79.66258
0.58907473,78.80779
0.51905036,78.50482
0.5808065,77.49853
0.45279083,79.50676
0.50264895,80.497086
0.4567462,80.8425
0.36246607,79.38346
0.40867236,78.487625
0.4904885,81.89696
0.46429178,75.19093
0.5627316,85.702324
0.5342324,78.933174
0.45982787,81.500374
0.65778214,87.33603
0.7414745,86.56188
0.77228177,83.525566
0.83429706,84.224556
0.7563493,84.93561
0.9253866,86.58944
1.004574,87.86225
1.0279392,89.06902
1.2221553,92.50566
1.1780074,94.64566
1.3798105,90.30516
1.3825927,97.59278
1.463538,97.64578
1.5321277,94.93831
1.6167479,96.634926
1.5950993,101.62899
1.6844859,100.141495
1.6329768,100.02627
1.6123165,101.84478
1.7340832,100.82106
1.7309204,103.82141
1.622942,104.79414
1.7758466,104.18321
1.7109395,104.391014
1.9017451,108.04879
1.7700591,108.64981
1.7246197,109.28799
1.6787461,105.816315
1.7604821,103.07817
1.7073437,111.01269
1.607585,105.64557
1.7480675,109.33432
1.6898214,106.11418
1.6978805,108.120155
1.6769363,102.57645
1.5180218,106.99645
1.5994152,107.183174
1.5263914,103.30604
1.5743282,105.79344
1.4148593,102.66897
1.5790093,103.29971
1.3608267,100.28713
1.3981508,102.59829
1.2693752,102.53869
1.3179648,104.702736
1.2291021,100.23345
1.2175243,98.2643
1.181152,101.076904
1.2470984,100.84899
1.287144,97.10367
1.2468992,100.36222
1.2476372,95.1634
1.2298629,96.669
1.1109649,97.09127
1.3244755,95.52497
1.1090275,96.43946
1.0628334,94.83052
1.1126809,96.32359
1.1055598,91.60583
0.9875796,89.69424
1.0578341,94.22239
1.003961,90.3648
0.9372919,91.80084
0.98239577,91.81816
0.8715515,90.41959
0.8307196,85.753685
0.8685329,91.16165
0.79329216,84.6085
0.61676687,88.76732
0.6679694,88.477
0.5973083,89.61609
0.5368889,86.50718
0.5795057,90.844864
0.5364445,83.82752
0.590632,87.77038
0.5631172,82.26407
0.472983,83.84719
0.5126329,83.36971
0.5625792,83.12324
0.4790523,81.964516
0.46163252,82.455345
0.5361987,77.446815
0.6108011,83.19877
0.44217613,78.6325
0.53447443,79.48355
0.34427673,79.33885
0.4789347,80.26657
0.41855752,79.345314
0.4516014,79.44241
0.4736245,81.5873
0.38241294,77.61095
0.1833741,79.30678
0.20236954,78.26844
0.16668485,75.36372
0.16516279,77.62294
0.08870933,78.297935
0.0826534,78.96302
0.16301678,80.1647
0.10220434,81.55273
0.0054256725,80.9785
0.09054959,79.556725
0.14457121,81.70266
0.09547988,85.67555
0.22702578,80.88318
0.33237094,85.0732
0.276276,82.96392
0.34801996,85.78611
0.38590378,85.812584
0.5541317,87.06611
0.5220106,85.48082
0.65681946,85.3271
0.55155677,88.78657
0.76466846,89.59584
0.8609644,91.310616
1.0949516,94.04189
1.0018476,95.18975
1.0178112,95.72889
1.2089744,97.27936
1.201187,98.5867
1.2112907,100.46913
1.237398,99.43091
1.2856996,98.90535
1.2584095,101.09196
1.4049017,98.93735
1.2927216,103.47252
1.3453063,103.981926
1.4079036,107.14751
1.4874746,103.91549
1.4633267,103.269745
1.4474576,105.99768
1.3808553,102.33822
1.4004334,104.34832
1.2762141,106.48374
1.3436741,109.01014
1.3678869,106.589
1.2137481,105.4174
1.3091768,105.85371
1.323887,104.03596
1.3153853,104.642815
1.3029344,106.1196
1.2910779,103.86895
1.1281737,103.459816
1.1616349,102.23366
1.172976,105.04006
0.9851071,105.67536
1.0442617,103.63005
0.8994711,103.46367
1.0421996,97.51267
1.0066377,101.27093
1.0091361,99.52862
0.9497493,98.092926
0.98168176,96.75533
0.9349955,99.67704
0.9837572,98.68679
0.94267213,98.94875
0.8678549,99.26422
0.9317451,96.66919
0.9276653,94.0301
0.9142018,95.78252
0.9685901,93.462006
0.8712177,94.13944
0.79651725,98.27619
0.83492905,93.35303
0.8631588,94.848915
0.7379657,94.52709
0.6861234,93.688416
0.7521719,91.4228
0.5899291,91.382256
0.6535673,91.87975
0.67110425,86.32067
0.4897863,89.17684
0.55739707,87.275
0.42497873,89.20383
0.46037355,86.39166
0.46741813,86.469
0.46058148,87.67734
0.27003205,81.70604
0.34057587,86.610985
0.29441112,83.72001
0.39132598,84.92521
0.3695322,79.345146
0.30789816,82.26499
0.4678049,82.475624
0.40429565,78.491684
0.3738854,79.71638
0.33493432,79.91173
0.3185585,80.35269
0.3073804,80.454605
0.39878488,78.16924
0.29691082,77.69519
0.32005996,78.35111
0.34770274,75.80493
0.2507213,81.697365
0.12546803,78.98764
0.12509936,78.05315
0.1378729,74.10799
0.16051054,74.953606
-0.031431653,78.63862
0.087399244,80.6158
0.030284464,83.19937
-0.08653836,78.92772
-0.073390834,81.55081
-0.071041994,75.89245
-0.034378506,78.69308
-0.049515698,78.47451
-0.036964126,80.12771
0.015439909,83.245575
0.08968519,86.08509
0.18134314,86.74327
0.13485189,83.70954
0.24793102,83.19191
0.40334335,87.37558
0.39122865,89.110596
0.4991411,85.90738
0.62021846,89.86231
0.6505382,91.7618
0.7035397,88.00052
0.87569284,89.39455
0.9238697,92.75775
1.019102,94.41295
1.1144519,94.67096
1.1391813,97.70209
1.2406486,98.93826
1.15345,97.57209
1.246687,97.161606
1.2699594,102.659256
1.345093,105.00866
1.3363638,103.70116
1.3362015,105.27878
1.3742851,100.22611
1.4213018,102.56305
1.4677117,102.64305
1.4666677,105.302574
1.3391681,107.38858
1.4257361,106.795364
1.4391541,106.06994
1.380368,102.12955
1.4633659,106.62094
1.4127713,105.68864
1.4240123,106.906204
1.3515353,105.76793
1.3652682,106.63721
1.3879491,105.91386
1.3235639,106.668915
1.3002295,104.25312
1.3320392,104.43709
1.1932617,107.09714
1.227811,101.5271
1.2256626,104.62614
1.2723145,102.8623
1.1288416,101.94195
1.2612314,105.66654
1.2336878,102.72582
1.1413411,101.92056
1.1703588,99.714516
1.1364855,98.60171
1.0605505,97.9467
1.0163382,98.670685
1.0506108,101.25064
1.0817975,95.48837
1.0223533,94.97216
1.0129822,96.499344
1.048222,94.777596
1.1045915,90.753654
0.98798317,93.38305
0.97795904,93.58734
0.9694758,95.82794
1.0004796,93.875854
0.8248515,91.17298
0.9160462,86.886086
0.9078991,95.01412
0.82746315,93.11561
0.838524,87.06851
0.8008711,89.079865
0.62420577,91.87071
0.6602685,88.89925
0.6900412,87.87217
0.66736114,86.77494
0.585259,85.39599
0.59791446,84.300735
0.6599391,85.140045
0.58959764,85.13225
0.56108445,83.8968
0.6142368,83.072624
0.5396889,80.152
0.51727724,82.33249
0.5901536,85.10388
0.5583773,84.31595
0.53517514,77.17375
0.49152476,80.7813
0.67166823,78.965546
0.6575949,77.14161
0.5676923,78.37589
0.5695357,77.292564
0.5024303,75.55104
0.559709,77.798744
0.39809147,79.322
0.52880806,78.57982
0.414378,75.839096
0.38599634,79.588295
0.33155787,80.40215
0.3932423,80.75619
0.25256273,79.86723
0.29583028,78.238625
0.17076886,81.68323
0.34364122,79.33503
0.318167,82.90909
0.3177509,76.88074
0.29858595,80.31055
0.24750638,81.805046
0.3808684,81.45639
0.35784203,85.18329
0.46877655,83.81779
0.4365929,84.95441
0.5015617,83.555016
0.5598139,86.31493
0.67954415,86.619194
0.7819718,88.90073
0.87774414,86.6625
0.92694443,89.58849
1.0264804,92.26623
1.0539306,96.064896
1.16275,92.40661
1.1467363,94.41689
1.397497,94.165726
1.4897839,94.08413
1.5484778,94.65642
1.5974603,97.69325
1.4772944,96.49744
1.7283096,95.07793
1.7106253,101.33832
1.7999747,100.1732
1.6700857,100.860435
1.7379277,103.43241
1.7570984,102.7605
1.913458,100.856834
1.7473571,105.58861
1.8031939,103.36006
1.8495597,104.888824
1.7093699,105.10292
1.7809788,104.8873
1.7904769,109.72776
1.8561627,102.9652
1.7930416,104.32686
1.7257388,105.05925
1.778464,107.4546
1.6940017,104.68958
1.7245708,105.52027
1.7866923,105.14676
1.7577242,103.86237
1.5959795,105.96853
1.6427836,106.31881
1.5538898,102.24107
1.5887636,104.12171
1.5916402,97.75746
1.6026245,103.16859
1.5450977,101.64791
1.5126126,102.374466
1.3844316,97.48496
1.6011473,98.89762
1.4289119,98.82062
1.4677253,97.533
1.4769231,96.54258
1.4168602,99.43977
1.4427407,97.62708
1.3910811,100.038574
1.5043396,94.91062
1.4794937,92.982315
1.4292215,92.07459
1.4584922,96.50753
1.364091,91.93571
1.324523,93.24
1.3579296,93.347404
1.1841209,90.96245
1.3434409,88.605385
1.1851747,93.43263
1.1885506,93.05591
1.2028968,90.39493
1.1850826,90.97534
1.1326139,88.31438
1.053182,85.08745
1.119941,85.3399
0.92931914,89.20769
1.047476,86.04056
0.9251812,82.976166
0.8630653,87.34065
0.82574916,85.42149
0.9342448,85.76963
0.8638117,86.22513
0.8908432,77.853874
0.8227044,81.32437
0.8962004,80.84234
0.9784451,81.62274
0.9240814,78.90963
0.8792681,78.00269
0.8692098,80.285324
0.87708515,78.75366
0.82236445,79.04762
1.0282382,79.423546
0.8074959,76.80745
0.7760789,79.61186
0.80687183,79.355644
0.7718607,77.45765
0.61652744,79.793884
0.7588918,80.253075
0.5755114,79.241936
0.60888135,80.290985
0.6798792,76.81579
0.6176077,78.409996
0.5750129,81.90821
0.43748897,78.91501
0.52744085,80.195114
0.50481075,82.598366
0.48069158,81.31279
0.5369113,81.86077
0.62673795,80.24574
0.6947544,82.760704
0.82999676,85.53301
0.69597274,85.70165
0.8703727,84.74147
0.94094557,89.51268
1.0151081,86.39466
1.1034862,86.4268
1.0853897,93.37895
1.1984451,89.44948
1.5015445,92.57405
1.3895919,94.09641
1.5819678,93.93997
1.4969594,95.46944
1.6665173,97.82486
1.6589184,99.34429
1.7630891,98.259315
1.7540082,99.2362
1.788361,99.19592
1.7734181,98.40323
1.9032594,98.34962
1.9262673,101.32237
2.0245798,105.42714
1.9469165,103.076
2.0028865,105.24144
1.9637159,107.33709
1.9273496,107.062515
1.9023843,105.33167
1.9919666,108.87108
1.8999058,109.29268
1.981025,105.474846
1.9319289,107.47969
1.94177,108.604256
1.9909937,106.08609
1.9792236,106.53171
1.7257982,101.98459
1.8627673,105.06937
1.8458358,108.936386
1.7517322,106.253136
1.6762977,106.727394
1.6843852,104.2243
1.6025096,100.89053
1.7890338,103.83205
1.5331165,103.93021
1.6222948,104.079704
1.615597,102.95533
1.6782686,99.43593
1.5257523,101.19891
1.6500034,100.46435
1.5372092,101.94857
1.5460966,99.08423
1.5065616,99.04865
1.4935935,98.27091
1.5672252,99.633705
1.4771943,100.789276
1.4624115,96.34161
1.4170905,97.96657
1.4903246,98.063805
1.4252701,94.00926
1.3056186,95.62156
1.28995,94.34531
1.3432335,93.746475
1.3077645,87.47537
1.3215369,93.95094
1.2318447,86.838905
1.1293547,88.76692
1.170708,92.516685
1.0628239,87.33314
1.0164449,91.08935
1.0374056,86.02603
1.0355929,86.37205
0.9782119,88.229546
0.8436556,84.48835
0.8577365,81.57458
0.88912153,85.9713
0.8107821,88.57857
0.90125024,83.39227
0.7279657,81.19685
0.9166331,83.54105
0.81630075,84.165184
0.81232643,85.07138
0.8034606,83.2754
0.8375666,80.984
0.82592005,83.36992
0.78609127,80.15546
0.76906776,77.48439
0.72834325,81.15865
0.72352904,80.27941
0.8190639,80.47964
0.70626175,83.847115
0.57486284,78.033394
0.60311216,80.40977
0.67804736,77.71189
0.6217412,74.02881
0.59894,75.49701
0.5537677,77.37184
0.48358685,79.91187
0.4692316,79.221115
0.35053715,80.247314
0.28827026,77.24872
0.34786445,79.461105
0.40303728,80.03994
0.34481382,79.718895
0.3719128,83.294495
0.4305208,86.82901
0.6463691,83.355545
0.50295043,83.71677
0.5422754,84.40974
0.66427064,86.00063
0.75714004,82.632645
0.9183374,89.65962
0.8679753,86.776566
0.90112585,92.21603
1.022343,92.554985
1.1203793,88.22259
1.121062,92.45286
1.2612033,90.32066
1.3706286,94.769936
1.2975997,97.64182
1.4647161,93.64802
1.3033763,96.90269
1.5216599,100.9379
1.5763007,99.548645
1.5979133,104.541145
1.6625253,99.4938
1.6461543,101.22885
1.7178103,104.94314
1.702371,102.63125
1.7880813,104.138985
1.6544157,104.70277
1.7979578,105.26102
1.7453628,107.03925
1.6893222,104.76284
1.7217153,102.7846
1.687114,107.19138
1.6086338,106.74129
1.680288,102.50739
1.5482708,108.864365
1.5642602,105.04109
1.5568153,104.66263
1.5568953,104.72332
1.5966405,109.75627
1.4878522,103.71771
1.3880014,105.98435
1.4244788,104.438805
1.4034638,103.15219
1.4415992,102.85575
1.3865899,103.70049
1.194521,102.47213
1.3418466,101.822945
1.1504402,101.15384
1.245445,102.169815
1.2804289,95.96206
1.1324531,98.66336
1.1807482,98.94308
1.1670059,97.37532
1.1196334,98.13717
1.1847452,98.26076
1.1358435,97.78667
1.0300373,96.91295
0.98946613,93.82489
1.0888205,92.81773
1.0775199,92.69878
0.9977876,94.837296
1.0251567,93.390526
0.97981113,93.85324
0.8481489,92.20238
0.99791336,89.49184
0.9031001,89.57252
0.8525782,91.35142
0.8027584,88.516174
0.7354932,90.225655
0.76547056,87.19444
0.68289214,85.07573
0.693973,88.528755
0.537427,87.59578
0.5114485,88.90143
0.45805314,87.52553
0.4884652,81.03058
0.5063433,83.50127
0.5654901,86.46427
0.5720611,80.43153
0.5200122,81.53114
0.59391433,79.99572
0.47772804,83.40183
0.48665437,80.03672
0.47656077,80.71252
0.37829798,82.12147
0.3686643,74.77317
0.4099004,76.58911
0.3639934,78.903435
0.3355303,77.295334
0.41811824,77.7895
0.40568793,82.54837
0.21158624,78.01908
0.29008195,81.34663
0.2874261,77.44959
0.23995546,78.50935
0.1100635,73.6537
0.1489718,77.79461
0.10983965,81.41883
0.02143955,75.318596
0.11812498,81.6088
0.017433122,77.22123
0.06793182,77.69881
-0.019807236,81.16363
0.044432357,80.73013
0.08309205,80.875824
0.02406924,87.083145
0.33153683,81.54583
0.29545596,85.28888
0.24424051,85.61737
0.37873453,84.205315
0.2823924,88.6697
0.42218506,86.65304
0.46697447,91.15198
0.6165172,90.37491
0.6994376,90.18087
0.717767,90.24454
0.84813195,94.30537
0.970839,89.140396
0.95011765,93.826
1.0939963,95.1904
1.0851218,96.42255
1.1269326,97.926544
1.2153025,96.3614
1.349649,101.980354
1.3917825,98.397934
1.2935297,101.66436
1.4235535,103.4371
1.4414995,106.17067
1.3953301,104.256485
1.3576546,103.31392
1.373998,104.948784
1.2829684,104.441475
1.3555309,104.3571
1.4063616,107.5058
1.3229319,104.92736
1.3884537,105.71873
1.4190102,106.86068
1.2028081,105.40167
1.3318235,104.5504
1.311929,106.533264
1.1961789,105.83
1.3109869,106.69807
1.1892138,106.60912
1.1199749,106.361084
1.2149954,107.45469
1.1559832,106.09227
1.1148996,101.730545
1.166484,104.724655
1.1609575,98.85876
1.0603105,101.30845
1.0705476,105.149895
0.97729087,103.00051
1.0043173,99.08862
0.913208,102.30175
0.89461786,100.87506
1.0086094,95.89667
0.94931036,97.655846
0.92463326,97.815094
0.9429469,97.75874
0.87090343,94.150635
0.8162819,97.56063
0.82969487,92.28951
0.89603263,94.793755
0.8755653,90.61433
0.78929675,95.32051
0.8093961,93.22987
0.9037383,93.06079
0.79102385,93.0778
0.6832472,95.15689
0.638966,91.27018
0.721441,93.58689
0.6932471,89.29267
0.65924937,87.615326
0.5634526,89.13034
0.5470384,90.15328
0.53351927,87.07773
0.42804065,89.27174
0.47970638,93.379005
0.33771303,84.16632
0.42518643,84.7494
0.3466072,83.40102
0.34989765,85.72248
0.39505237,86.78837
0.3029581,81.45617
0.43072367,83.27521
0.3738871,82.157135
0.31597477,82.87072
0.30962214,80.433876
0.4400203,80.26069
0.3440917,78.16841
0.26009953,79.59358
0.30647734,78.27847
0.24188451,81.514114
0.28497258,81.58442
0.2639882,77.97424
0.31677255,81.092255
0.3274717,76.77266
0.2752895,74.646515
0.09084757,76.49121
0.18708001,80.66501
0.04960715,77.946236
0.040848244,80.642296
0.054655008,77.494896
-0.040392447,80.11512
-0.00208209,77.84586
-0.051622808,79.104385
0.017755441,80.10287
-0.019132378,80.51396
0.010025086,78.32408
0.13146845,86.03242
0.070796505,78.45628
0.09613768,82.70374
0.266183,88.30286
0.32642114,84.1401
0.41544944,85.50986
0.4709637,86.32414
0.582431,89.7599
0.67258584,89.25283
0.7449993,94.24654
0.7771174,90.79413
0.8419636,97.347404
0.9733724,94.77343
1.0188682,92.66617
1.0283216,92.01881
1.1819333,95.00477
1.2076963,99.71901
1.2335511,96.416855
1.3137835,101.26767
1.2808852,102.92278
1.3810536,99.02267
1.4728454,101.25915
1.478805,102.21592
1.5788372,103.39741
1.5632324,102.27839
1.4404645,104.18974
1.5501484,102.628914
1.4136591,105.64546
1.4863086,110.361275
1.4507658,102.79558
1.5348,108.09803
1.4410192,106.02758
1.414704,106.690834
1.4657423,102.89292
1.419615,106.8144
1.4087833,104.34751
1.430589,108.6694
1.4483951,104.9901
1.3793551,104.41244
1.4790381,106.992
1.3442158,103.99443
1.3716208,104.58764
1.2505162,98.89546
1.3314043,101.192795
1.160098,99.69406
1.1595944,101.905426
1.1662695,100.769554
1.1118938,102.48047
1.155562,102.09873
1.0616349,98.05336
1.175232,100.11332
1.136494,101.031204
1.1909337,99.50012
1.0980012,94.30462
1.157309,97.63806
1.0613906,95.628365
1.1383251,96.676056
1.1011782,89.82933
1.0352842,95.60458
1.1629999,89.11171
1.0778933,92.730446
0.97012776,89.83732
1.0157053,94.80145
1.0103002,90.891495
1.0520375,92.16857
0.9978785,89.34174
0.81323075,93.43235
0.9414569,90.380974
0.79222107,90.92814
0.75568664,90.00257
0.8421065,86.087395
0.78542906,86.83135
0.7749765,87.29167
0.7234058,86.96712
0.7147224,87.07399
0.6733486,87.513855
0.57757986,83.237045
0.8302039,82.8269
0.6951468,85.16763
0.6653831,80.752045
0.61821884,83.42486
0.69478554,77.32027
0.53533846,82.88256
0.56836534,80.88821
0.73945355,80.474144
0.61520505,79.41552
0.6792069,79.03236
0.7003154,79.2009
0.6741133,81.545906
0.5330341,79.31418
0.60811615,76.56633
0.4543544,80.846695
0.5946897,82.07653
0.43614447,76.53972
0.3487643,79.79823
0.5156058,74.22302
0.43624133,78.40206
0.42789274,78.48172
0.38373464,80.32478
0.37170303,80.513176
0.4155305,79.362045
0.369191,80.341866
0.3166212,79.30791
0.2567584,83.403946
0.39216265,82.254364
0.5503446,82.15492
0.37586817,81.086494
0.6329259,83.3727
0.57788956,85.81385
0.7343188,83.28969
0.8356029,89.00482
0.9330461,86.03769
0.9903051,89.12437
1.0628471,89.60165
1.230724,91.746216
1.2043067,93.22346
1.2449031,94.15901
1.3413124,93.87978
1.3766375,96.62295
1.5052582,96.997986
1.5108967,97.047935
1.6832967,96.9613
1.6753898,98.53414
1.7383173,98.096
1.6808196,98.009895
1.8062426,104.24534
1.8209459,102.995575
1.8327855,103.421295
1.8516818,100.96849
1.8947643,103.31799
1.8341056,104.99931
1.8584455,104.60219
1.8750381,104.871056
1.8407122,105.03779
1.8752383,109.6412
1.94871,104.83016
1.8240169,104.57798
1.6998838,107.61167
1.7961426,107.68611
1.7393498,109.86984
1.7433196,105.834885
1.7708391,103.30577
1.6841114,106.31641
1.5651408,102.95104
1.7526213,103.5981
1.6597456,108.6018
1.7602873,104.3449
1.691351,103.90547
1.550369,101.56772
1.4944317,101.91405
1.5848186,104.08524
1.5696597,101.21334
1.5961926,101.22335
1.525807,101.97092
1.411758,98.08914
1.5896722,101.89188
1.3512868,100.32249
1.475831,100.75421
1.4646508,96.39303
1.4416722,98.113174
1.4339516,94.667694
1.4679058,95.101326
1.4808294,95.0255
1.4039078,94.666214
1.3879784,92.92299
1.3903841,93.98968
1.3283157,94.83599
1.2966454,94.29392
1.3168409,90.98064
1.0965539,93.35306
1.1821822,87.89413
1.2026833,91.407005
1.0833122,88.98346
1.1073649,89.60869
1.1083081,82.144226
1.0818502,86.40759
1.101056,89.76672
1.0620155,88.68183
1.1143715,82.65373
1.0341327,83.5779
0.998146,83.63517
0.8446505,85.021866
0.91378975,80.001854
0.8865577,81.79679
0.97332335,83.769226
0.97248816,78.797104
0.9343187,79.79217
1.0024706,77.76221
0.9888688,82.837425
0.8506973,80.97158
1.0043287,81.5095
0.85502005,78.96685
0.8056692,77.94156
0.8292212,75.880295
0.8399809,75.06662
0.8896015,78.943634
0.80064064,81.6371
0.77491695,79.36391
0.67887455,79.857635
0.5919561,79.95474
0.6581796,78.3406
0.54126835,78.797424
0.4834741,78.42501
0.5356241,83.561905
0.6247793,77.89587
0.5305485,79.8967
0.57524407,79.43322
0.58719635,80.308044
0.5166081,79.468735
0.5550128,82.132675
0.71359646,84.401054
0.7408279,82.809586
0.7435255,85.745605
0.832457,85.15614
0.9282852,83.73729
1.0174841,87.221504
1.1000763,90.956764
1.270609,89.28931
1.1475887,91.4581
1.3315164,92.66743
1.4837698,95.90163
1.4834117,92.381805
1.6076958,95.15213
1.5777363,96.291275
1.6932046,98.8104
1.659706,99.38473
1.7874641,96.60471
1.6893198,98.25822
1.8267077,100.37709
1.9102194,101.88355
1.9183557,102.61825
1.9291435,103.2598
1.9661219,102.38893
2.056624,103.59238
1.9471734,102.35118
1.913833,107.24198
1.9547662,103.64629
1.8580725,107.629814
1.9495543,108.28622
1.9600375,105.69885
1.9460536,110.53781
1.8807632,105.41736
1.8340774,103.83165
1.9291682,107.87581
1.894866,106.13287
1.7766823,102.960976
1.8437318,102.47402
1.8427635,104.83107
1.6461986,103.781204
1.6050198,103.58719
1.6265678,103.33805
1.5686469,98.44757
1.6392359,102.189674
1.5678246,102.4705
1.3975972,99.207756
1.6153487,100.8265
1.5250936,99.07671
1.5171806,99.82539
1.4575708,103.51954
1.4418349,100.12883
1.4043097,102.9147
1.5102895,96.86913
1.4415407,98.56655
1.4184903,99.04572
1.380663,99.21061
1.3791893,97.824814
1.3072104,98.590866
1.3460954,92.87823
1.2738097,92.994125
1.2870811,91.38425
1.1456659,93.77315
1.3170869,90.10955
1.105429,92.33571
1.1461711,93.61007
1.2407064,87.15243
0.9994677,84.39178
1.045878,85.72831
1.0100342,87.9801
0.9413096,86.05919
1.0064956,91.37426
0.891202,85.23013
0.9212013,86.58927
0.8195118,85.5728
0.8221822,86.06162
0.7608386,86.46732
0.7079678,80.429695
0.7390184,85.56586
0.8554229,85.03954
0.7609333,79.357666
0.76279926,80.60907
0.6782161,82.47079
0.70248055,80.85436
0.713203,79.81041
0.675734,78.021
0.724016,80.26796
0.7506759,78.07785
0.6217319,77.03717
0.60184854,78.38628
0.5884803,80.18142
0.5261893,74.94094
0.5815497,77.78318
0.48042184,78.126976
0.53587776,75.31631
0.49728036,78.920784
0.35972786,81.12626
0.29631284,77.9747
0.31241193,81.875
0.33628523,77.78871
0.25422618,79.146675
0.28480774,82.13689
0.24388333,81.02561
0.25167078,81.304634
0.36634073,82.15489
0.38691244,82.25858
0.42101863,82.755325
0.43338543,84.82665
0.59288955,87.27844
0.58065045,87.012764
0.58250606,88.73412
0.6987757,87.32205
0.9702188,86.8892
0.94224405,89.37774
0.89983267,91.56999
1.0760235,90.91839
1.2426491,95.2234
1.2671527,91.84007
1.3153585,96.6684
1.3108763,96.71966
1.2177737,95.33348
1.4484628,96.03953
1.4212373,97.537025
1.4973984,102.45522
1.524741,99.92791
1.6079284,103.80212
1.536414,103.650764
1.5203798,104.038284
1.6115445,101.85366
1.5642208,102.905045
1.5644796,106.377914
1.5174959,103.968575
1.5745779,107.107796
1.5936966,102.82385
1.6053612,108.63008
1.5918235,105.24962
1.4215465,105.28649
1.6105347,101.25126
1.5765293,105.81008
1.4649493,107.39739
1.4821686,106.40285
1.6010141,109.10939
1.3476533,105.995224
1.3940601,108.01877
1.2888939,104.7817
1.3728688,102.19149
1.3221906,101.4075
1.2401403,104.7436
1.2718387,101.29998
1.1938314,101.40896
1.2400094,100.4471
1.301636,100.16676
1.1842505,98.76362
1.1886942,100.2754
1.0975393,100.252655
1.1880068,98.95486
1.1465473,96.563515
1.0053325,99.36623
1.1168557,94.59416
0.97982866,96.709206
0.9625976,93.892105
1.0923395,95.13432
0.9577279,91.82811
0.9478267,95.50805
0.94750357,95.90454
0.9959259,94.74674
0.94814944,89.77233
0.8790879,90.729576
0.89929676,91.58355
0.69211745,90.384995
0.7432471,89.04424
0.7811633,87.610176
0.66764265,86.807594
0.6779561,88.629944
0.57530206,89.77405
0.50618666,86.53222
0.49073476,87.93316
0.40354064,87.526344
0.47137487,87.77778
0.4855248,83.89432
0.48242673,87.54056
0.34418064,83.958084
0.38452235,81.369
0.44446117,82.83954
0.42703,79.74746
0.3635359,80.2606
0.36574227,79.77525
0.35453543,79.90089
0.31648946,81.935776
0.3522334,79.398705
0.33976868,79.69091
0.3473306,76.439384
0.2639564,78.94633
0.33508453,76.282364
0.30663174,80.30706
0.27780822,77.47894
0.0882141,81.920944
0.18827637,80.97537
0.17826432,76.53599
0.13522185,73.36313
0.014074747,81.26707
0.011630924,81.68871
0.02923796,79.8896
-0.013850391,77.93961
-0.029417321,81.31037
-0.019152323,77.32819
-0.07377463,83.85993
0.11557782,80.86211
-0.008357416,84.57995
0.051002245,82.32425
0.112727694,85.43191
0.11230891,88.8737
0.18608657,87.82566
0.25917733,85.9174
0.2839076,84.69013
0.40515435,90.038536
0.49092364,86.50807
0.5681356,90.793015
0.59086144,92.903435
0.74172634,91.006004
0.8101894,92.6535
0.9720052,96.496704
0.96633625,95.79348
1.1265607,96.587456
1.1486276,97.37208
1.099506,100.63986
1.1500591,98.39509
1.292561,103.19573
1.2081628,100.20369
1.2838775,104.87863
1.2332377,102.59007
1.3491576,106.15044
1.2789205,103.691315
1.4152957,103.557
1.2486998,104.97926
1.3608539,103.99171
1.4461895,102.051735
1.4098641,106.427025
1.3185594,107.20624
1.4031541,104.71509
1.3434508,105.52001
1.387199,105.652176
1.3967129,106.228325
1.3286875,103.589355
1.2167453,99.0816
1.2908708,106.50021
1.1665113,105.14036
1.2311541,103.8917
1.1921457,105.60698
1.1075658,103.2805
1.1034408,104.14956
1.0361661,105.76331
1.0788785,100.68643
1.0596572,105.474724
0.9910293,95.522224
0.99415773,103.73734
0.97009474,100.86243
1.015361,103.61004
0.95711946,99.50353
0.81148803,99.17006
0.9941895,97.82949
0.9869053,97.78939
0.8777362,97.44077
0.88177544,98.21061
0.9533792,94.75582
0.865005,95.98952
0.7861787,93.956
0.92115676,94.91337
0.8049342,95.419464
0.91313636,91.48316
0.83257896,89.96117
0.8243337,94.4432
0.7983417,93.471
0.79484785,89.9337
0.63746804,93.70471
0.7453634,88.25512
0.6033984,89.073814
0.515002,87.69643
0.608579,92.447136
0.5300302,84.45946
0.494887,83.780624
0.49397832,89.5179
0.41708773,86.94082
0.4446722,85.267334
0.38043216,86.45137
0.40975502,85.373985
0.36864698,82.58861
0.4855297,80.84165
0.33999202,80.53287
0.42762586,81.217026
0.4536511,82.8891
0.26686618,82.29398
0.32506862,79.587204
0.34813586,79.51913
0.3802292,79.619545
0.26942286,78.025085
0.3455168,77.24021
0.43191016,77.253494
0.30479026,78.24172
0.1832278,76.438736
0.28820616,79.555786
0.29674292,79.75728
0.19087966,76.252716
0.09130325,77.52245
0.092547596,79.062775
0.14902793,77.2096
0.11418932,76.51622
0.06265863,79.56146
0.13643807,80.402504
0.09328957,82.96365
0.12015121,78.39868
0.117314935,78.12984
0.10858139,80.15623
0.03997841,81.1158
0.20571679,85.546555
0.27165905,81.830795
0.25078607,82.94363
0.3814082,85.73154
0.46554866,84.70812
0.58909905,86.79207
0.6411222,88.03988
0.6898416,89.19134
0.77452767,92.18098
0.91611624,93.96455
0.9346597,89.51166
1.0123929,93.762596
1.2253698,91.9627
1.1729047,96.87694
1.373797,97.319984
1.3620954,95.955864
1.379208,98.60551
1.4134808,102.29232
1.5422325,99.019325
1.4432467,101.476685
1.4444573,104.32986
1.4768009,101.53418
1.540576,107.42286
1.4472214,107.1574
1.4936705,107.84492
1.5234222,104.37379
1.6757685,106.41537
1.6653954,107.02267
1.4356931,108.71913
1.5550314,103.953964
1.4651263,106.60141
1.5220906,104.34123
1.5949665,105.24899
1.5921519,107.04184
1.5563494,105.50944
1.5192811,106.732895
1.5084132,108.742546
1.4351532,105.07556
1.4371333,106.21857
1.3852139,102.43923
1.3637131,99.65777
1.3384042,106.9689
1.3731956,101.98469
1.3029896,99.21929
1.3106279,102.175255
1.2779678,99.25172
1.184974,101.248886
1.3934039,103.38047
1.2959969,96.12205
1.2708187,98.675125
1.1966323,96.66503
1.2084556,97.04435
1.167183,98.686935
1.2435079,97.152214
1.2400744,97.08844
1.1088036,93.54074
1.1645753,95.81191
1.1148148,93.295906
1.2339146,95.23088
1.1276014,90.58553
1.1895047,92.005226
1.118275,92.63011
1.0828398,92.23969
1.0226896,89.72667
0.9923625,86.18582
0.98582333,90.32362
0.9049332,90.125374
0.8707781,89.8823
0.8527134,87.40464
0.823721,91.77389
0.80903655,85.058
0.81120485,87.532
0.7890102,88.09499
0.7733991,81.268364
0.80660933,84.70417
0.79237247,83.52607
0.6677656,82.74439
0.71297723,82.57945
0.73853135,83.9133
0.7623365,81.241196
0.72891766,80.75507
0.6706608,82.85864
0.71043324,78.655365
0.7025181,77.4016
0.7530313,77.525566
0.66066945,77.18388
0.71052414,77.091896
0.6802149,76.03926
0.65701276,76.67524
0.5714977,76.841576
0.5918175,75.73755
0.57952857,76.70797
0.51467633,82.505226
0.56640124,77.543495
0.6035521,78.4966
0.4629476,80.14997
0.47969666,77.96808
0.38486534,79.03431
0.29283664,78.12163
0.38424394,76.48415
0.4750646,79.018875
0.47580525,83.38572
0.44976246,83.59406
0.53162026,79.58231
0.5057236,83.433365
0.5690402,83.61792
0.5186038,85.185776
0.73928434,88.4483
0.81861407,88.58026
0.9786828,85.84038
1.0995413,89.43567
1.0767264,89.83377
1.1577625,88.74402
1.1722517,90.52656
1.2932957,91.16439
1.4174876,95.535324
1.4238664,93.164215
1.5375896,94.373375
1.4342039,95.873505
1.6126832,97.949905
1.6353246,98.64589
1.7122538,98.13628
1.7239518,99.21448
1.7409533,102.95126
1.7581531,104.04657
1.819775,102.36213
1.7993649,103.67618
1.8508078,101.76159
2.0016732,103.50939
1.9068274,102.60868
1.919124,102.295395
1.9033296,104.526146
1.848954,104.4873
1.8724074,104.40842
1.9036375,106.83989
1.8776625,107.207596
1.9569699,107.71816
1.8915722,104.7962
1.814589,108.34503
1.8096519,105.1411
1.737432,106.839836
1.8243629,106.08138
1.7030176,104.79714
1.6904621,104.1995
1.6327583,102.85658
1.6416707,103.29017
1.589313,104.626114
1.550286,102.21383
1.5089167,101.46228
1.6276343,100.419556
1.5529263,102.41156
1.5643802,97.70172
1.5629357,103.08008
1.5903858,101.04889
1.6022578,99.1287
1.4780976,96.75494
1.5226575,95.92297
1.5924491,97.0261
1.4964033,99.52741
1.5007147,92.72071
1.4093702,93.25818
1.3859481,94.49217
1.3846053,95.38992
1.426686,93.30645
1.3998504,92.14839
1.3777472,91.567726
1.2654172,87.41745
1.3401043,92.218796
1.3004557,88.57061
1.153851,92.196045
1.255692,89.25703
1.032067,89.58612
1.0879335,84.32609
1.1058732,87.16107
1.0288163,90.46315
0.9904708,87.52405
1.0241828,82.71295
1.0250791,85.26978
0.9343697,84.55988
0.8110815,85.15559
1.0168197,83.093666
0.9197401,80.084496
0.9124063,81.83244
0.90505445,84.250725
0.91605586,80.62981
0.94593656,83.02512
0.9464647,79.32735
0.82682866,74.33933
0.9044948,78.85654
0.87817407,79.97657
0.8229962,78.03178
0.83832276,80.2538
0.8268281,78.95841
0.8475545,79.91803
0.7392289,80.42293
0.6896012,78.68727
0.62752396,78.786736
0.61389047,76.256996
0.5757895,76.73325
0.65005046,76.881935
0.47881708,78.705826
0.6632764,81.25404
0.47729293,81.66573
0.50380087,78.515465
0.49195254,83.739456
0.48676378,78.898056
0.5893394,81.03361
0.6255474,83.34291
0.6247968,84.090294
0.7424374,83.98157
0.6635264,86.70487
0.7770918,88.603096
0.8400363,86.74491
0.96991587,84.264725
1.0071933,87.45563
0.9583171,89.96837
1.0891151,90.15892
1.1877968,95.50486
1.4110217,93.02716
1.337189,93.92617
1.4360962,95.361015
1.5870653,96.2841
1.4983814,97.05395
1.5904424,99.776085
1.7521076,95.816956
1.7553455,99.240074
1.8004081,99.220856
1.7826407,99.38079
1.7532262,102.87284
1.8161185,102.45547
1.8780352,99.16497
1.8836782,105.52448
1.8705155,101.04044
2.0028667,103.97747
1.7842256,104.08668
1.9805607,107.631165
1.8011022,108.18688
1.8388095,106.60782
1.8625351,106.12244
1.7778174,106.63961
1.8122059,101.8255
1.8753569,106.15133
1.8266845,102.3764
1.6508282,104.91182
1.7656705,108.78066
1.7067285,103.6222
1.766852,104.34285
1.6316098,104.89206
1.6091398,103.78255
1.5992564,101.52635
1.5192268,100.40764
1.4846483,101.23462
1.5317416,103.28176
1.5247291,103.415375
1.5229352,101.29587
1.4468318,101.06211
1.4753,102.19118
1.4785892,97.162796
1.2955406,97.98655
1.2756577,95.87338
1.3946298,97.66058
1.3439094,96.38376
1.2986734,93.69677
1.3177133,92.68366
1.3257116,94.84336
1.1467264,94.9244
1.3267924,94.07602
1.3061553,94.04696
1.1610444,96.18353
1.1342542,91.4972
1.1185551,91.48703
1.2481271,90.66277
1.1170732,89.46061
1.1631187,89.55377
0.95870125,90.54301
0.91955817,92.22254
0.9009081,87.802124
0.8053677,90.5867
0.85217625,86.84133
0.780613,91.33347
0.68991506,87.4715
0.7967232,83.68856
0.76913303,85.54238
0.752811,84.84358
0.68914604,84.44296
0.73949236,83.02153
0.6461438,81.84578
0.63422316,83.56594
0.7325565,82.16507
0.6447624,79.48814
0.68956244,82.36871
0.58128846,78.81738
0.7451743,77.030914
0.7273389,80.18882
0.539679,80.46146
0.683105,79.28432
0.5604988,74.37296
0.49327394,80.61686
0.56642616,72.942474
0.380594,77.1712
0.45032996,79.62649
0.47406885,80.0069
0.40630758,79.10503
0.25621268,77.11206
0.2107314,78.21922
0.27819705,80.17861
0.24231434,77.28448
0.18295312,78.8093
0.18439485,78.534546
0.16192292,80.784134
0.15359902,82.698555
0.3173238,83.85218
0.3050451,81.78495
0.35657257,79.78382
0.3725817,81.51414
0.51997375,84.50158
0.49186838,87.48509
0.5676887,87.69913
0.68890464,89.456245
0.7206082,89.3286
0.8657066,87.913536
0.8199593,91.92988
0.95634556,90.61482
1.0920783,94.4446
1.1603409,95.21961
1.1829399,94.34821
1.2164651,95.95859
1.3032873,97.45506
1.3189788,97.84892
1.4428536,99.089294
1.5452015,102.78686
1.5314885,98.07101
1.4539725,100.530396
1.5115587,103.27508
1.4427413,103.46977
1.4776477,106.94485
1.5738093,103.80333
1.4715503,104.57735
1.6221346,103.03316
1.5085812,105.130516
1.5498646,107.89125
1.5343089,104.91726
1.6243021,104.226585
1.4769123,101.93528
1.3592058,104.39881
1.4086885,105.66717
1.3655082,103.534615
1.4867619,103.69124
1.3174824,103.86538
1.295225,103.878586
1.3482032,105.30301
1.2887257,103.6282
1.237353,106.21077
1.1109023,104.57205
1.2654406,106.245544
1.2083191,102.45541
1.071632,105.78298
1.1541895,100.77472
1.1102269,99.879196
1.1025647,100.07801
1.1079118,101.85552
1.0435724,99.120636
0.98318124,97.14862
1.0330137,99.24876
1.0796311,100.829956
0.9970551,96.8803
1.1109457,99.132324
1.1051322,96.475845
0.9268061,93.42262
0.9443206,92.46443
0.915708,96.58729
0.932843,95.53323
0.8764495,93.09842
0.94776654,92.818474
0.8269248,91.82493
0.7683502,90.154564
0.69802314,90.806885
0.68520427,87.55517
0.7993123,91.023224
0.68633395,88.580956
0.64408493,87.10725
0.5181071,83.8165
0.5460733,87.76081
0.51020837,87.51235
0.3350616,86.82181
0.45451927,84.846054
0.4917397,84.36004
0.36473063,82.88197
0.37922603,84.84004
0.34069157,83.1094
0.419939,79.84097
0.24202074,83.24395
0.3454446,81.30287
0.31543714,85.58798
0.31463677,79.03168
0.38430396,81.87935
0.37106398,80.416695
0.36212015,82.507805
0.4257725,80.845634
0.4063778,77.52221
0.21033254,78.936516
0.25706857,77.568695
0.25160182,76.5296
0.24044986,76.20436
0.22557852,78.7677
0.118917316,76.829865
0.09667328,81.231346
0.037088007,74.69763
-0.011989551,79.15077
-0.06806513,76.67695
-0.042749617,80.88707
-0.0046269842,80.88357
-0.06374404,77.79726
-0.06254275,76.65059
0.06492729,81.85004
-0.12949373,80.72669
0.018429931,83.99068
0.050195318,83.4443
0.13109909,88.44698
0.2082455,85.08752
0.31601742,84.17162
0.32970357,87.25625
0.56032616,88.5383
0.48141518,89.009224
0.5802497,89.194145
0.6584166,91.751
0.7794347,93.946335
0.765805,96.78015
1.0111483,95.04745
0.94333124,93.936264
1.0500271,98.39357
1.1359779,97.53317
1.1526079,98.02948
1.1056844,98.06065
1.230921,102.560135
1.297335,96.64768
1.3143841,99.548
1.2734286,101.00286
1.4154303,99.45793
1.3526695,99.26806
1.4244552,102.94259
1.3304247,105.95513
1.365735,104.62868
1.3434547,107.02129
1.4019697,104.87605
1.3556854,105.08802
1.3808658,109.83899
1.3627467,103.607666
1.3638663,105.8509
1.3127831,108.40649
1.2951113,106.932556
1.2599741,103.517555
1.2156278,106.01469
1.2668612,103.744995
1.2486502,106.33099
1.2573233,106.13904
1.1292328,107.47573
1.1296748,102.16955
0.9902989,102.945526
1.0680084,99.075294
1.1212816,106.19496
1.0280892,106.19835
1.0034024,100.04971
1.0965415,98.246765
1.0251666,100.3955
0.95905125,98.53434
0.9353604,102.37103
0.9094218,99.006065
0.9793242,98.30166
1.0506264,101.83915
0.9032002,96.9452
0.9695712,93.91465
0.85258293,97.105515
0.99733084,94.91669
0.94762814,95.81422
0.9604104,93.24133
0.9163306,95.57791
0.81783336,92.441666
0.80156034,95.208786
0.7266044,89.824776
0.65428156,90.919365
0.82544774,91.69993
0.5596635,90.911644
0.6470833,88.93037
0.5938018,90.99815
0.53805435,86.99504
0.53342956,86.82604
0.44993114,85.15159
0.5291829,86.520004
0.4863623,88.701996
0.44375652,85.91433
0.5046014,85.74746
0.43021616,81.00623
0.44358677,79.48804
0.4706386,83.784164
0.41684884,82.95186
0.4863919,81.0608
0.36138505,79.94313
0.41006476,80.06231
0.37118408,81.16742
0.44955838,83.76519
0.40949166,79.10622
0.48302615,77.245926
0.43747348,77.756645
0.4010259,79.583786
0.45187256,74.49956
0.32463828,77.336525
0.25258535,77.30147
0.17931476,75.66713
0.15123829,76.74633
0.30830604,80.70815
0.16791928,75.30099
0.22385974,76.8183
0.17371185,79.28152
0.15906759,75.443474
0.15796812,77.43213
0.08664848,80.68769
0.073128894,80.79069
0.22504705,79.5594
0.09009382,80.717735
0.14260739,84.41468
0.254155,82.17524
0.2678778,84.29567
0.411805,85.64474
0.425418,86.51139
0.5440312,84.21504
0.61830664,86.82353
0.6207273,86.92206
0.7191546,89.77661
0.8275028,89.99083
0.9522934,87.47961
1.0113424,95.154724
1.027637,97.36814
1.2455516,94.93258
1.28025,95.340546
1.3766432,101.77806
1.4038213,95.91396
1.4181713,96.35832
1.5428491,101.36285
1.559599,100.766624
1.4642526,100.777336
1.6660677,100.451256
1.6226872,99.65599
1.5629438,102.12923
1.6217166,103.54999
1.604752,103.36501
1.5876406,106.944855
1.7317597,103.48256
1.7079484,105.237946
1.6627071,104.28719
1.6511885,105.840614
1.8025035,105.49625
1.5079135,106.39611
1.5739024,106.83972
1.6141618,106.339836
1.5730859,104.77384
1.5772653,104.10283
1.5346341,102.196045
1.6061713,109.64486
1.5561676,105.3531
1.5535165,104.25884
1.449132,102.33557
1.279026,100.32926
1.3788782,104.99351
1.3923401,102.02004
1.3881615,102.86261
1.2547263,99.53534
1.285695,102.27688
1.4160254,99.39724
1.3694017,100.46318
1.2789587,99.28298
1.3487891,99.04207
1.3525194,100.15471
1.3178614,95.150116
1.3214228,98.39144
1.2501487,93.08073
1.3138293,92.467514
1.2987617,95.95989
1.2594997,95.03326
1.3535935,93.915375
1.1852345,96.11786
1.2642269,93.4246
1.102741,90.084366
1.1249553,89.48615
1.0837582,91.67791
1.1687307,91.69892
1.1023455,91.60476
1.0521028,86.56391
0.9645653,87.36472
1.0021455,85.56889
0.94611365,92.77818
0.850309,87.8711
0.8640148,85.6823
0.8062296,87.76927
0.83100885,84.51167
0.82967615,88.91795
0.73670214,84.879
0.79714763,82.99671
0.7677133,84.10574
0.70025444,82.064804
0.9335854,78.334625
0.8138534,84.420525
0.8536547,79.754906
0.7466616,78.5994
0.8079215,80.00747
0.7419856,81.19501
0.8180703,78.358894
0.8283156,80.89257
0.8188612,77.22526
0.73647445,79.09122
0.80944735,77.95498
0.68219626,75.916306
0.5398841,76.84077
0.6242617,77.66704
0.6183342,76.68269
0.56135136,79.44797
0.5997777,78.50225
0.45641991,77.756226
0.52748555,77.98798
0.48251334,78.34754
0.4820207,79.80378
0.5364914,82.24357
0.4714381,78.345436
0.6093558,80.554665
0.53041416,85.364456
0.62212956,84.219826
0.6326238,83.42467
0.6315552,82.68188
0.82598406,86.57782
0.7732129,83.776024
0.9874784,85.314186
1.0180817,87.44328
1.0857047,87.65018
1.1829306,94.08871
1.3596755,90.29939
1.3377522,94.697075
1.4507823,93.11309
1.4123596,94.85204
1.5120317,94.61959
1.6477345,98.84805
1.6966636,98.87374
1.7306278,102.37605
1.7478806,100.03629
1.8565797,98.651695
1.9471688,101.50586
1.8916869,100.05686
1.8330745,105.19062
1.9838717,102.5183
1.9456244,106.2593
2.0808856,104.41192
1.9436553,102.38766
2.0028925,107.169876
1.8657162,107.59699
1.9749461,104.341
1.915367,104.58778
2.017533,104.0959
1.960959,104.216354
1.8878502,104.65448
1.9310272,106.65445
1.8568583,102.58902
1.8236145,105.36913
1.8297102,106.43253
1.7873816,104.34407
1.8103455,105.74709
1.6294659,106.469124
1.7395183,105.08112
1.6495581,104.00648
1.673518,102.904625
1.6236374,101.66378
1.5176443,103.26603
1.5517721,104.169785
1.5356815,100.81819
1.5625067,99.55231
1.5591389,98.91387
1.507492,97.94777
1.3928897,101.13376
1.535733,100.76118
1.4717106,96.523315
1.5866907,98.49659
1.4903952,97.82944
1.4282815,97.95451
1.3937726,94.50795
1.5377797,92.94286
1.4631335,94.96959
1.2998164,94.39235
1.3701123,90.97894
1.3576404,92.1198
1.323704,90.92572
1.2523929,91.44617
1.3664943,93.397255
1.2179108,90.63954
1.1482449,91.56821
1.1859288,89.533
1.175598,87.16939
1.0372928,87.30642
1.08585,87.54786
0.9933596,86.53136
0.96008545,86.20024
0.83908933,83.50893
1.0062587,86.55972
1.0328151,83.03351
0.98069423,85.80897
0.8985144,83.08567
0.8738185,80.14205
0.91114944,79.15539
0.94248515,80.71733
0.93009955,81.79271
0.8375369,81.59527
0.86033905,80.73883
0.85405105,78.596054
0.8410113,81.563835
0.8350271,78.303406
0.95065576,77.87661
0.7881837,80.38846
0.80781966,76.50019
0.8081392,79.10037
0.74113226,77.65992
0.6198967,80.24556
0.5817752,78.373276
0.55839026,76.33823
0.5730259,77.29684
0.44887066,79.819405
0.50553304,80.49483
0.5368073,77.2963
0.5463767,78.69868
0.43411562,83.15654
0.58847463,80.36193
0.5908375,78.52134
0.58905786,81.87174
0.5535688,82.967285
0.5396906,83.35653
0.5621616,84.4819
0.81730014,85.47275
0.83745587,88.24518
0.79363346,85.44274
0.96237093,90.71694
1.0531179,89.96939
1.1490141,89.56203
1.1909837,91.06591
1.2207081,92.90947
1.4363718,91.76069
1.4342028,92.94449
1.4801278,97.1891
1.614935,96.555984
1.6146393,94.57229
1.703649,98.642685
1.7990015,99.357025
1.7037176,102.959435
1.8124226,102.24546
1.9187788,102.63083
1.7656449,101.95869
1.7625961,103.7843
1.8659382,104.42294
1.8592855,105.980095
1.8226398,103.93119
1.7459935,105.27903
1.8828402,106.66639
1.816071,106.42868
1.9126744,107.38382
1.799521,103.67868
1.7488312,104.28015
1.6924257,107.03465
1.7270845,105.46679
1.8117443,106.31097
1.790516,104.49947
1.6477983,102.34332
1.6134566,107.38534
1.7202137,102.75409
1.6328219,104.222946
1.5484872,100.998924
1.5454602,101.315384
1.5068411,105.65752
1.5174583,102.88449
1.3841726,102.08952
1.4043087,101.885315
1.3465645,98.245895
1.2646028,101.858116
1.3802277,99.9987
1.2984221,96.93966
1.2500176,97.17426
1.3312566,101.90521
1.1911203,94.58353
1.2521889,96.16344
1.3494148,96.09865
1.2313447,95.75843
1.2545688,92.62274
1.1987787,95.56484
1.117711,94.980484
1.2466797,90.6312
1.1793462,93.85042
1.1594944,93.74689
1.145529,94.95681
0.99385923,91.22823
1.0206136,93.18842
0.9866218,89.346565
0.9963131,89.57906
0.81370175,87.56645
0.8037282,89.4856
0.8242577,90.5995
0.78950673,89.45566
0.7324866,88.787056
0.67213875,85.695206
0.7170187,85.456894
0.62838054,85.331055
0.70066094,88.73644
0.6437173,83.28048
0.6176975,80.685104
0.60561043,84.74108
0.6029424,79.350204
0.6624697,83.063385
0.5543845,83.71173
0.5571721,80.68345
0.5910272,83.7702
0.5327187,76.55511
0.4880343,78.39235
0.43349072,76.49145
0.527159,78.88638
0.44742176,81.12485
0.5223686,79.26036
0.4722104,75.2769
0.39980254,78.61063
0.32661253,77.48377
0.2707288,78.469536
0.1534539,75.123
0.17160575,75.6045
0.14622925,77.879
0.20630719,78.29566
0.2683895,77.45342
0.15956767,76.535995
0.18301901,79.29394
0.118102774,78.36586
0.1867386,82.2765
0.2548068,86.08181
0.25399995,83.910164
0.3437714,85.56331
0.26960516,80.69468
0.3597593,83.82188
0.5160473,82.1792
0.5271235,86.5466
0.6754005,84.66585
0.76070017,86.73201
0.8486033,89.91863
0.7971465,91.572
0.9909022,90.331535
1.0280448,94.46632
1.048238,91.466
1.0863222,95.86701
1.2153386,93.19067
1.2633799,98.05642
1.2947905,96.0413
1.3764857,101.71873
1.3879503,99.10668
1.4019046,102.371994
1.3536586,103.02323
1.4215122,103.04688
1.3558781,98.80338
1.459616,103.699684
1.4063257,103.78137
1.5405309,104.44044
1.481075,105.1794
1.4607173,101.46896
1.4699782,103.559296
1.3998419,110.59971
1.2806545,107.19044
1.4746088,108.34216
1.3488384,106.837074
1.4247049,109.70706
1.3299104,105.67498
1.2374465,105.526054
1.3015159,107.514694
1.2774045,103.4172
1.2460239,105.4878
1.2391851,104.508644
1.2469727,105.47153
1.157314,102.48012
1.2008936,104.30233
1.1035783,103.12749
1.0257108,100.088066
1.128021,102.05842
1.0161935,99.9767
0.9501844,101.71076
0.9991006,102.71256
0.9225806,99.5203
0.9607251,99.04191
0.92038274,100.96088
0.9145825,95.51845
0.9025752,99.063644
0.930632,96.07235
0.94164133,99.1382
0.88339806,95.96951
0.891165,92.26979
0.9880512,92.04149
0.8401804,92.15731
0.7794472,94.686134
0.77249503,92.290276
0.81996846,91.146614
0.69863325,93.00552
0.7640964,91.92943
0.69787484,89.97732
0.67246634,88.22884
0.630589,85.137886
0.5418486,87.64641
0.42300096,86.82987
0.46820736,87.36926
0.49436995,87.47259
0.46876636,88.31357
0.38194343,86.98134
0.41393325,86.8125
0.30619398,80.822815
0.3658357,83.43191
0.32984254,84.666336
0.31843844,83.83243
0.3904275,83.91344
0.22869255,80.88358
0.39332277,79.365005
0.2701951,81.70221
0.322994,83.62786
0.224996,77.92079
0.3685144,81.195984
0.26565143,76.33307
0.25749418,81.54083
0.38217515,78.12461
0.19713172,79.79899
0.17301153,75.22976
0.026812155,81.04644
0.1319768,78.18725
0.115469284,78.32413
0.08756771,71.81306
0.04671159,78.758705
-0.15356742,77.438545
-0.08547575,79.38895
-0.086439244,77.04551
0.0048534847,77.78885
-0.17137004,79.75779
0.011254685,80.168976
0.056142364,83.28897
-0.036840197,84.59432
0.07283126,79.78288
0.1652853,82.40159
0.18430667,85.47055
0.26144364,82.35986
0.2640558,86.43552
0.46641442,85.22204
0.422846,91.10369
0.56274796,86.7909
0.6573751,90.105606
0.71177995,88.06605
0.71441066,91.25795
0.8424227,91.57869
0.872347,94.03037
0.9968037,98.23406
1.0519617,94.11047
1.2191794,96.60547
1.0809289,98.62688
1.2097152,95.76134
1.1654865,99.484535
1.34274,100.141396
1.3873525,98.096535
1.3143303,101.51313
1.3622321,100.7711
1.3303674,104.00632
1.3093135,103.66647
1.391667,107.86001
1.4144368,107.84091
1.3685858,105.77779
1.4392024,104.68836
1.4190677,104.853874
1.4186422,108.156425
1.479399,109.97943
1.382315,104.898125
1.3496277,105.7308
1.2705729,105.89936
1.2774867,108.817924
1.1222445,104.920204
1.2298168,104.243904
1.186895,103.06064
1.1930709,102.46432
1.3075798,106.12884
1.1293069,104.56683
1.1298794,98.372116
1.1078017,102.16599
1.0011946,98.405624
0.99753696,102.74467
1.0842592,104.18305
1.0291339,100.23543
1.0290332,100.93194
1.0319902,100.92077
0.9909353,99.42359
1.0360008,96.817894
1.0116408,93.64033
0.978599,100.83254
0.9754345,98.943634
0.94429207,97.27228
1.1510069,93.62742
0.9692991,94.90772
0.90911686,94.626755
0.8931432,94.19741
0.8647604,90.41022
0.89467144,92.48532
0.7763416,93.99357
0.77006936,91.894455
0.7514933,91.622215
0.73282677,91.11388
0.7055414,89.37424
0.66506326,88.76709
0.602618,88.472015
0.56512314,86.5701
0.56039,85.559944
0.6086082,88.69579
0.578867,85.28141
0.46428958,85.263435
0.5344191,83.06691
0.5569196,85.727554
0.46410397,83.04552
0.4817855,88.03073
0.50855505,81.27297
0.4687007,79.02956
0.50105727,83.76806
0.54332477,77.15708
0.49846438,80.03872
0.43758586,78.43429
0.4425262,79.19769
0.40762445,79.36525
0.4580374,78.5028
0.47613662,80.74073
0.44916365,75.38862
0.3796204,79.31612
0.38468453,75.780556
0.38510597,78.65522
0.32900688,79.6175
0.23121239,77.802765
0.41449118,80.181946
0.338533,80.86595
0.2550818,79.09295
0.22319467,74.69302
0.2121578,78.211845
0.21478125,79.402794
0.21133392,80.30193
0.122187875,82.31451
0.3262736,79.24981
0.23573981,82.4931
0.2332068,83.40855
0.30524048,84.34836
0.38728982,79.99702
0.47452,89.01972
0.5802086,84.110275
0.64809537,89.726746
0.7149003,92.045135
0.7099279,91.615395
0.8773211,91.001724
1.0476518,91.75626
1.04032,90.79902
1.1510193,96.76047
1.2106011,91.08354
1.2198915,94.14847
1.2348942,95.84477
1.4125525,94.50457
1.4399921,98.78588
1.5476909,98.62371
1.5350537,102.77643
1.6364758,101.03716
1.6825657,101.023285
1.6756641,103.295784
1.7363065,102.53747
1.731397,105.781166
1.8459601,100.88881
1.548228,103.61445
1.6576844,107.09799
1.67822,103.05722
1.7087303,104.80172
1.6015621,106.127045
1.7273471,106.797295
1.8836901,105.50848
1.6416035,106.992546
1.7187774,107.087685
1.6914968,107.44561
1.5832702,106.22826
1.5679765,105.3647
1.6744779,106.64854
1.5133942,105.63169
1.5379586,106.27328
1.5505581,105.84602
1.5417664,103.34883
1.5427024,102.61934
1.5035615,104.14623
1.4640379,102.44548
1.4117987,104.926605
1.3975589,101.306175
1.3381627,97.53359
1.3537539,103.92879
1.3928761,99.400696
1.4247534,99.110725
1.3786834,97.57272
1.3470062,98.742935
1.3534564,99.43686
1.3179313,100.27927
1.3624055,98.30378
1.3556153,99.47563
1.3592087,95.73427
1.2989624,93.9979
1.2726231,92.71571
1.2345093,93.18962
1.1439342,97.77281
1.2393146,91.91919
1.3268292,93.75498
1.168839,91.22232
1.1215507,92.888725
1.1554766,90.80708
1.0341125,91.335175
1.0397229,89.039276
0.99278605,85.90381
1.1171349,88.80151
0.9127187,85.75453
0.893556,88.4633
0.9604868,86.27713
0.9760351,89.13059
0.8702559,79.87724
0.8750513,80.18526
0.83595276,82.703606
0.9085532,81.505775
0.8781684,83.48849
0.8472215,82.12188
0.8516413,81.3935
0.7867237,82.47379
0.95912015,79.455734
0.92379665,78.447296
0.84133375,76.416245
0.81998944,78.25841
0.8311331,78.95054
0.8083265,79.67994
0.82030064,79.06979
0.7235614,75.43633
0.6656359,74.22828
0.74778056,74.743095
0.7457238,75.82148
0.59896195,82.35383
0.6189876,79.230415
0.5533929,77.73851
0.5479388,80.79211
0.4660114,82.65829
0.51591146,82.67366
0.46226016,81.91538
0.48684275,81.83232
0.37919945,80.01302
0.5021847,82.14232
0.54759747,82.96139
0.5460608,80.065125
0.7461507,80.886024
0.790197,84.00168
0.8635411,88.127655
0.883239,86.92954
0.9928263,87.09864
1.1504956,86.21272
1.1463299,85.88501
1.2681332,90.82315
1.2772589,93.422356
1.4313427,94.303986
1.4545407,96.868286
1.5546407,99.77212
1.6932386,96.10284
1.6570913,95.302444
1.7720602,100.18825
1.8220606,98.99504
1.7702383,98.163864
1.8762459,101.891846
1.9766171,99.975105
1.9308335,104.27885
1.851335,101.88239
1.9803573,100.93339
1.9657047,105.6448
1.945826,104.107185
1.8539838,106.00132
1.7772096,107.87836
1.9718804,104.37318
2.0093744,106.559845
2.0060723,108.29303
1.9048721,105.09302
1.837437,106.71569
1.9701271,104.23579
1.8722621,105.6047
1.7895279,104.68021
1.8549459,103.56026
1.7769184,103.513
1.7740923,106.440994
1.606936,104.54356
1.7136521,106.44616
1.7342674,102.93174
1.6379825,104.56547
1.5788958,101.02665
1.6252627,100.75466
1.5927608,101.959206
1.5410904,103.10424
1.7399046,101.605385
1.5376827,98.82697
1.5272762,98.555244
1.5670459,99.32231
1.5398947,97.24881
1.4873264,99.897964
1.4132447,99.32285
1.4332691,93.77954
1.4581141,93.51694
1.4521475,94.24225
1.427232,93.837
1.559425,96.97739
1.4292617,93.29871
1.4192259,93.30726
1.3315239,91.12058
1.3809847,94.06092
1.2667246,89.34875
1.3292652,88.333405
1.2214353,87.035446
1.1625783,92.92628
1.1098002,95.22846
1.0797858,84.39658
1.0391864,89.18951
0.99893427,87.252365
1.075432,91.55353
0.9678521,83.70703
0.9778587,84.69975
0.9785923,85.426956
0.82355326,89.31787
0.8670257,82.85332
0.8608025,85.18911
0.91482335,83.13036
0.8905817,83.8854
0.8068102,81.42967
0.8737227,80.49353
0.90851784,80.780914
0.83772707,80.0006
0.857493,78.79651
0.8990959,79.91392
0.8212573,78.725204
0.75440866,82.60448
0.6311488,78.83234
0.79692376,79.197395
0.8043758,77.84602
0.69534904,74.380135
0.61544836,76.41343
0.7105885,78.14896
0.5592829,79.44103
0.522204,78.87843
0.42931932,80.82181
0.46955404,78.68388
0.49799904,80.67817
0.4394641,81.80718
0.4139832,78.232864
0.4122138,80.677505
0.4975868,79.75626
0.4691333,81.975525
0.48361212,83.29042
0.59154946,82.98978
0.49923044,83.88072
0.63753057,85.564835
0.79536414,85.403015
0.8001556,89.462265
0.7985647,88.95684
0.9628081,89.88831
1.0290556,87.31154
1.0043935,88.751656
1.1598297,92.14887
1.2219702,94.23668
1.3170129,93.926346
1.422949,92.517395
1.3868529,94.3488
1.448746,100.80216
1.5699708,94.27119
1.5597472,97.70184
1.6682326,101.11754
1.7227857,97.929924
1.7227008,103.08435
1.7345023,101.88444
1.6471494,102.98675
1.8489746,103.53836
1.7102592,103.601074
1.8020204,101.473434
1.6830095,103.15109
1.7639304,106.10994
1.7257283,106.38835
1.764511,104.74956
1.8626508,107.710594
1.6867131,106.70776
1.7392452,101.82902
1.7742053,105.284904
1.7102818,106.3271
1.6761695,109.085335
1.6201653,106.10007
1.5555434,102.73968
1.5559229,106.051476
1.6232241,107.19922
1.5043875,103.17842
1.4276655,99.44819
1.4805405,101.643105
1.457585,102.63505
1.5096141,98.73939
1.3923192,100.84901
1.3222433,99.72558
1.2997205,101.58318
1.2462041,100.211334
1.280731,98.02799
1.2489252,100.08646
1.0915037,97.04101
1.1914477,96.52715
1.2053945,97.51641
1.117272,98.610695
1.1458223,97.37454
1.2164254,96.98296
1.0601666,95.57325
1.1142108,96.62159
1.0606583,92.840385
1.0368085,93.221375
1.0587488,92.427444
1.0562681,91.061745
0.93278927,91.9129
0.89503014,92.53989
0.89404964,92.22203
0.90368634,88.995224
0.7905274,86.21759
0.75113654,89.74349
0.8149616,88.14805
0.83549654,88.97684
0.63157326,87.43585
0.60836315,89.84398
0.61081827,85.77144
0.58755153,85.20155
0.51083463,84.857506
0.5963314,82.81052
0.48357144,82.51457
0.5067494,81.63587
0.49397856,83.91406
0.502564,82.14367
0.5037488,83.158
0.4417143,77.88743
0.53491414,78.850876
0.4130316,81.18851
0.5029355,82.53544
0.543101,82.09115
0.43580073,77.2337
0.5045559,75.89248
0.42812225,78.41609
0.39780554,78.19284
0.3144249,75.04011
0.3329213,76.44488
0.19505213,78.94524
0.22612719,77.78056
0.14813556,79.093285
0.21267806,80.14903
0.02396186,77.12596
0.06876276,76.6825
0.077232376,77.48502
0.1456959,73.08719
0.080635734,83.58477
0.09013309,84.161514
0.050770186,81.68824
0.18289979,82.7267
0.2749139,77.176544
0.17192365,81.04041
0.24641943,85.07669
0.380423,89.36457
0.39517394,83.82309
0.4309919,86.13847
0.60712457,89.56566
0.5812789,91.23085
0.7715034,90.46094
0.8616449,92.28662
0.76863563,93.524574
1.0414487,93.381775
1.0154104,94.019356
1.0603501,94.01388
1.1601069,96.619026
1.1588937,98.92065
1.2046618,98.868576
1.2706118,104.16566
1.1970885,94.87892
1.2147522,101.58492
1.35835,99.22812
1.4933735,99.27538
1.3542734,105.241005
1.5108645,103.608635
1.3764472,101.71069
1.3420397,105.19962
1.2955356,106.39252
1.4232969,103.77341
1.5147637,104.79272
1.4163988,107.55315
1.3788716,109.97975
1.3340559,106.02596
1.3505135,105.7331
1.3249224,109.8919
1.355026,105.85548
1.3333355,105.86254
1.2617748,106.95786
1.1608528,102.89793
1.2413139,104.543495
1.0971136,105.69623
1.0940752,104.16703
1.115485,101.69087
1.1346387,100.54989
1.0398514,101.8245
0.9313804,102.51354
0.9726626,100.95152
0.990385,102.84076
0.979778,99.54073
1.0098846,102.09667
0.9635755,103.047516
1.0659792,98.87623
0.9080908,96.21576
0.87509257,100.07423
0.93829614,93.38468
0.8963724,95.07787
0.7872683,94.044426
1.0167965,96.49848
0.8880332,94.92833
0.79885,92.50974
0.73446834,94.33813
0.7147168,94.2436
0.7952175,93.16488
0.7199444,92.54753
0.6352389,92.93508
0.617237,96.148254
0.6754857,88.09641
0.5785092,89.8565
0.474226,89.64027
0.58185434,89.12117
0.52271795,82.47322
0.41328728,83.671776
0.40903804,82.51256
0.41522318,84.55171
0.36055306,86.3876
0.3599359,81.39862
0.36057147,81.016106
0.18567213,82.851135
0.44531786,79.081764
0.2991191,80.37156
0.3297083,81.181656
0.30724987,83.18478
0.25124282,84.1013
0.3621146,78.175934
0.25276005,81.52731
0.14497295,80.250626
0.42651087,78.69955
0.17270286,80.43023
0.2057645,75.446
0.26228964,76.96384
0.22976306,79.21559
0.13273105,80.65716
0.25417694,78.586685
0.110600434,78.3632
0.0804814,79.28524
0.07371389,81.27084
0.074271195,75.3429
0.03552195,75.25711
-0.095642075,76.5825
-0.009167891,78.819695
-0.01222584,77.63237
-0.09790355,79.98591
0.0759941,81.70928
-0.025274599,80.72581
0.03341081,84.474266
0.06869418,80.52949
0.07377706,83.82986
0.20805553,83.94028
0.22626574,84.61935
0.3947428,84.43475
0.4244789,85.53752
0.45274898,89.18969
0.5555323,92.27787
0.7576966,90.22495
0.69092226,92.31308
0.82293415,90.92862
0.8995508,93.590164
0.90280575,94.33792
1.0959152,98.1248
1.0813949,95.66776
1.2289706,97.362045
1.1724639,94.33822
1.2338728,98.619835
1.3650345,98.13698
1.512095,99.94827
1.3642342,103.180405
1.3311976,99.308205
1.2762191,101.28021
1.4026287,98.89588
1.3502042,106.4443
1.4767644,104.97761
1.4056876,102.276695
1.5194963,106.33947
1.4089597,106.35326
1.5624466,106.105736
1.4812652,105.57894
1.4639888,112.50437
1.4195817,109.19565
1.403912,106.66604
1.4517878,105.76657
1.4215273,107.35673
1.3209417,105.839455
1.2214097,105.030205
1.262883,105.11359
1.2217214,105.98434
1.2530675,102.300934
1.2258183,99.77056
1.2980317,103.195206
1.155258,101.76435
1.1681478,104.56824
1.1553352,103.86011
1.1401182,98.08106
1.2037108,102.384476
1.0231013,98.086296
1.0444672,99.18649
1.1114491,98.92108
1.1429197,99.82647
1.0379075,95.15742
0.94216466,94.4166
1.0586785,94.618324
0.9921599,100.83534
1.0882254,93.7887
0.9692453,91.79958
1.0478015,95.72627
0.9990045,94.744705
0.97212756,91.95715
0.96699715,90.580414
0.90851253,92.226204
0.99072975,91.3635
0.9462687,90.18383
0.76959443,92.08387
0.79167837,88.95336
0.7246151,89.35586
0.68555343,90.95497
0.65071505,86.45132
0.6508895,86.553215
0.65708977,88.75293
0.56422913,85.24131
0.6070641,85.015205
0.7086644,85.11222
0.57234025,82.370346
0.575973,86.116264
0.65455157,80.75603
0.54998595,79.41102
0.5966466,83.193565
0.65160424,80.82995
0.65225875,80.72475
0.55088645,83.49782
0.64285034,82.64203
0.6461065,80.22224
0.6316723,78.98039
0.51955324,78.413864
0.48117965,80.07742
0.55068135,78.84563
0.54507625,80.20586
0.44973412,77.42645
0.46846607,77.99596
0.5367568,75.88427
0.26299846,78.72879
0.35325682,76.84713
0.26675186,80.2034
0.32502222,74.68152
0.2790864,79.532104
0.28979543,78.266945
0.17379154,81.25056
0.2890317,80.46806
0.27215263,78.643166
0.29445776,83.193565
0.24364533,83.412544
0.3811126,87.23619
0.46306768,80.56278
0.5049136,81.107155
0.61156046,88.11268
0.6616337,86.12312
0.6496099,88.779564
0.899508,88.59289
0.88152295,93.96141
0.9748523,87.06471
1.2209387,93.50659
1.1524959,92.72545
1.2120465,90.27844
1.3044224,96.56388
1.2721102,98.03246
1.4061929,96.56027
1.4939308,95.996735
1.5012183,99.75105
1.5728936,97.318565
1.6290126,95.91127
1.6534215,98.45622
1.7048367,98.30439
1.6245608,102.64163
1.8115697,99.91187
1.7605104,104.04535
1.8391173,98.54781
1.721082,100.015724
1.8759725,108.02887
1.8193078,106.50203
1.8595301,107.826935
1.8614262,110.29255
1.8768793,107.518745
1.778941,107.81039
1.8425491,105.432335
1.7879301,105.06708
1.6848396,105.91744
1.6937296,106.05993
1.735903,102.769135
1.6393116,105.856026
1.7201294,107.96927
1.6352117,104.87519
1.576199,104.58785
1.6556035,102.87336
1.5593406,105.19053
1.582241,101.968605
1.5061644,101.82137
1.6054081,103.44447
1.4848275,98.21592
1.4440538,103.17229
1.4057953,98.98602
1.4002641,100.78796
1.5104702,97.11916
1.5074822,96.717186
1.4062682,97.49355
1.4396316,96.209206
1.4115129,96.88571
1.3531308,96.822235
1.4385679,95.75392
1.4251721,93.048065
1.3022797,95.47165
1.393028,94.7169
1.4545618,94.42168
1.2546433,92.73758
1.2972107,90.85605
1.2046423,87.385025
1.2737799,91.86264
1.2404134,89.727974
1.267696,94.49453
1.0779438,88.24063
1.0978309,87.20046
0.99977475,87.58428
0.898152,91.593475
1.0721941,85.8283
0.9307363,84.884384
1.0039234,84.2961
0.9281033,83.722404
0.8719671,84.2438
0.9241857,83.82354
0.9642639,85.56523
0.90107346,85.8281
1.0137023,82.973114
0.94007844,81.92877
0.9047499,79.79461
0.89220285,80.32902
0.9590852,81.702774
0.82330453,79.60803
0.9630134,82.6985
0.8388277,78.69389
0.8782639,77.77308
0.8596579,76.971016
0.8808839,75.44892
0.79743946,78.09768
0.73299444,80.09494
0.64458853,74.963135
0.69308,78.61929
0.6334335,78.98446
0.61244684,80.51807
0.6332807,75.50927
0.6155496,77.88658
0.5838315,76.25002
0.49386328,78.759895
0.63904184,80.96416
0.4668316,83.66765
0.6425932,79.74431
0.5579599,79.822945
0.6467956,84.469475
0.6770262,82.36345
0.68588966,83.6912
0.74850494,85.77815
0.90217984,87.973885
1.0082984,87.54964
1.0265809,88.324
1.1610367,90.98584
1.1512045,92.63727
1.2494378,92.42014
1.3114092,90.33523
1.4427714,93.58863
1.5149078,92.078545
1.5885222,93.40429
1.5979731,93.13723
1.6520483,98.10608
1.642785,98.45426
1.7842121,100.206245
1.8581461,100.48564
1.792963,100.31485
1.8600758,105.84703
1.9397086,99.46653
1.8968134,104.126015
2.0113115,105.2203
1.8754103,104.2259
1.927073,103.280334
1.9157591,107.280174
2.0156412,107.458336
1.9487231,101.91659
1.8758118,105.32282
1.882988,107.98296
1.8475544,105.74252
1.7893548,105.936165
1.7842022,102.90965
1.8920393,107.160545
1.9122183,105.46032
1.9441761,104.01351
1.8483921,105.575554
1.8383108,103.59014
1.6367306,107.45249
1.6795548,107.72052
1.7242233,100.51751
1.6814973,105.25936
1.6488895,103.8305
1.6750318,103.47103
1.6765951,102.353096
1.5685973,101.28565
1.6676075,98.0094
1.5067685,98.80033
1.4705878,98.592224
1.410326,96.451805
1.4729584,99.5376
1.4142131,96.05459
1.3939666,95.59903
1.5829672,98.86582
1.3878932,97.042206
1.432458,98.836426
1.478685,94.37455
1.4131761,93.22224
1.3099948,94.40281
1.324474,94.30261
1.2813616,90.55825
1.2908623,93.729965
1.2375603,92.449165
1.176816,92.47731
1.2127043,90.26059
1.1401633,92.15648
1.107604,88.576805
1.184011,86.36037
0.9432807,87.50267
0.9834852,85.09476
0.8903511,87.21927
0.9156137,85.8417
0.8493779,80.63329
0.9174962,84.86802
0.89653194,85.943665
0.8288678,87.06425
0.81679696,85.34566
0.894606,82.760864
0.91228014,83.55856
0.80188686,78.68479
0.84277433,83.21842
0.7637229,82.477554
0.78894395,78.271255
0.7668948,81.008804
0.73108447,81.75475
0.72807807,78.45522
0.7346356,82.70771
0.7916635,81.13739
0.57020915,81.59203
0.72228974,78.55627
0.66184986,78.601814
0.5566647,76.53857
0.53801167,78.389145
0.49679285,78.26117
0.5103148,76.98648
0.48656377,81.341286
0.43337286,78.493454
0.41140935,79.26315
0.39973667,77.000656
0.2830262,76.64811
0.31912372,78.94696
0.4178807,79.14281
0.3996952,83.74044
0.47072014,81.16327
0.58014387,83.93291
0.63128644,84.248085
0.5389975,78.69983
0.67370105,79.473595
0.86057895,85.51611
0.7159822,89.86004
0.81602645,89.473
0.90589666,88.70437
0.9895261,95.898094
1.1439517,89.48113
1.147917,93.90396
1.19791,97.704445
1.2726086,96.70074
1.4046934,94.651474
1.4160253,94.19366
1.4924487,94.46072
1.374859,100.799355
1.4988909,102.53126
1.5790409,101.81786
1.6968184,102.18107
1.6586554,102.79883
1.6556133,101.69795
1.6710746,101.97331
1.6713619,104.04501
1.6632783,105.212494
1.700938,103.183754
1.8798574,104.604126
1.6525062,102.42555
1.7145619,106.034584
1.7302809,105.19982
1.7186261,106.83828
1.6546627,106.243095
1.5445054,105.63778
1.5873276,110.18184
1.6187437,104.77146
1.5866537,108.68403
1.5078585,108.32565
1.4854363,106.8352
1.3587518,106.171455
1.3327048,103.91308
1.277707,105.650055
1.2546853,102.367096
1.2578232,104.05655
1.2673465,100.65085
1.2920729,99.3319
1.3226709,103.85609
1.1055881,102.07511
1.3198062,102.05507
1.133996,99.83199
1.2214053,99.23273
1.1751713,98.2974
1.2112881,98.221214
1.2029084,96.59232
1.2666601,97.3978
1.131384,95.4968
1.0927098,99.001686
0.98455626,93.95649
1.1807708,95.0481
1.0247827,93.517204
0.9861625,95.225426
0.9456645,93.28783
1.001579,90.35006
0.8775058,89.869934
0.9573646,90.408714
0.9372213,91.38448
0.7531537,88.004616
0.76211107,87.881454
0.7328502,86.93347
0.7066724,91.16038
0.70074815,89.06475
0.6959359,86.26654
0.6960364,87.36746
0.6444319,87.17303
0.50977623,87.0641
0.5598802,83.300514
0.41277727,82.054375
0.45045564,84.693405
0.5278204,80.77404
0.38769814,82.33073
0.4456732,82.99891
0.50025094,84.209045
0.31488153,77.001884
0.5180454,79.40305
0.43998346,76.38601
0.36529747,80.34225
0.47337323,76.0495
0.32593971,76.5047
0.39150873,77.37592
0.32911178,77.2118
0.29338485,73.59307
0.3311322,79.115265
0.17099822,78.24085
0.2502345,78.316086
0.12548871,77.026375
0.099840105,75.37607
0.18742244,76.80662
0.15618059,75.969574
0.09398695,81.177795
0.022286113,79.858826
0.009317508,80.25396
0.11438072,77.76648
0.01964962,82.584465
0.06242108,81.59241
0.095438905,81.41312
0.11141335,82.67116
0.09092387,84.87853
0.31348234,87.89489
0.2869897,88.49877
0.43720508,84.87964
0.49864966,86.96437
0.48542553,89.48861
0.526466,88.62479
0.6336735,90.47584
0.8534701,93.404755
0.85035306,93.608086
1.002511,92.30044
0.9870823,96.08095
0.9979545,95.189575
1.0911839,94.47802
1.3005884,95.51272
1.2149125,99.50841
1.2873113,100.36049
1.27795,95.618645
1.3191301,101.56209
1.2646629,98.72381
1.4018123,102.22734
1.4719489,101.57354
1.3399361,101.90701
1.4569364,105.01276
1.4518653,106.85042
1.3884027,104.68047
1.3071266,107.57128
1.3976943,102.37917
1.4094344,106.37567
1.3925804,102.73265
1.2871985,107.159454
1.3444312,105.96706
1.3052369,107.819595
1.3056705,107.92149
1.2151657,102.617165
1.0952377,106.44652
1.2489927,104.57757
1.1642758,103.57069
1.2343844,107.027214
1.1639231,102.388916
1.0819277,102.87583
0.97686625,104.06524
1.1708062,104.33202
1.0825206,101.55658
1.1327871,102.41306
0.93775827,102.610954
0.886063,101.153244
0.99210846,97.40216
0.87136614,101.114426
0.9507176,95.384575
0.887576,102.592766
0.92179537,97.658165
0.87794995,95.75321
0.7768585,95.86836
0.7953761,96.55674
0.9734782,98.80755
0.7680935,94.68648
0.75511366,95.4663
0.7545127,93.97014
0.79711163,95.95133
0.76534396,93.13096
0.7114494,89.17156
0.7598994,91.17517
0.6177175,90.491516
0.63465786,91.31557
0.54421735,94.39351
0.5698159,88.92573
0.48283964,86.28374
0.48637345,89.16206
0.46066773,86.88852
0.40736762,85.98624
0.31652445,89.00944
0.39336136,85.370155
0.3378936,86.03818
0.40131795,83.39601
0.44601554,81.455345
0.27756667,82.02275
0.41047844,83.92202
0.28510135,84.31044
0.31545812,81.01922
0.36158526,83.021126
0.2821505,78.15719
0.31983006,79.50829
0.34026083,77.176025
0.28259748,79.53003
0.2600843,77.905495
0.3387863,81.2513
0.2765114,78.08943
0.1870118,80.18147
0.21285677,79.74331
0.098721676,78.633446
0.1969475,78.4431
0.140344,75.355804
0.07922286,78.14693
0.09897422,77.233376
0.074371554,78.72672
-0.021222895,78.80927
-0.08281273,80.52732
0.0729259,76.71529
0.087721564,80.23679
0.12887114,74.88784
0.05111584,78.3738
0.0094280075,82.47532
0.19282071,84.81738
0.14852484,84.23906
0.2975494,83.333
0.26758447,86.50578
0.38977376,87.19749
0.4995285,84.988205
0.52576613,87.32316
0.54875374,87.88264
0.6296449,88.45404
0.75301427,90.26192
0.8340111,92.938545
0.96975255,96.513885
1.023814,91.84151
1.1390282,97.370895
1.0706948,95.72392
1.1794981,97.6267
1.251313,99.15813
1.4099188,97.332275
1.3209491,102.27171
1.4268646,103.21629
1.3596652,103.342415
1.4117886,104.13544
1.3855538,99.866234
1.415766,105.25071
1.4339429,104.269325
1.4524112,106.86338
1.5923518,104.11488
1.3737918,106.60124
1.5238255,104.944885
1.5248247,105.03761
1.4853237,106.75613
1.5023494,107.24186
1.4611411,106.94499
1.4514918,102.604126
1.4285061,104.46919
1.4725865,106.894295
1.4642773,102.93579
1.3320669,103.909874
1.381594,104.594055
1.302088,102.8175
1.2655915,103.18754
1.2999824,104.277466
1.2642671,103.41774
1.2484353,103.91877
1.2380016,103.627625
1.2813135,103.684685
1.3177375,100.54165
1.278656,99.22542
1.134525,97.5266
1.1084703,99.08952
1.2164645,97.85683
1.0745345,96.55348
1.0923449,98.69109
1.1340668,99.362755
1.2337452,97.28096
1.2265433,97.1079
1.1537791,92.75657
1.2259231,92.131325
1.0594276,96.87469
1.0357805,92.866684
1.2150177,95.575485
0.93754655,92.879036
0.97640944,90.94552
0.93377197,93.206535
0.9431866,91.598015
0.96200055,90.70347
0.87729967,90.780815
0.84372294,89.9566
0.81268054,92.8676
0.7845039,87.0826
0.8232423,85.94511
0.68953604,88.43634
0.64388156,85.42625
0.72054756,88.81196
0.6807328,83.41512
0.6867307,84.58738
0.6742911,81.198616
0.6975331,85.72565
0.74484825,82.75198
0.7505505,82.74823
0.6546387,78.88069
0.672051,80.96781
0.5651011,81.475784
0.656067,80.62008
0.65575904,81.34153
0.7659258,78.976494
0.6409643,82.0825
0.6217573,78.249756
0.6138515,78.35359
0.5911202,76.78936
0.5839071,78.79756
0.5482952,76.35949
0.49125847,75.05275
0.46899778,78.10346
0.48429692,78.932884
0.44243854,73.73926
0.30801728,76.38257
0.36009085,81.26096
0.37562448,82.00099
0.36072457,84.638756
0.37521842,79.72702
0.41547132,81.0463
0.4186666,81.90927
0.2958995,82.261444
0.36138237,81.48529
0.635419,82.98101
0.55799645,84.97997
0.6375178,85.39506
0.77162284,87.43364
0.698264,86.17415
0.98217416,89.21954
0.9209989,90.81255
1.0602688,91.02725
1.1036847,89.35931
1.2759763,93.369484
1.3389912,96.01051
1.311114,94.456825
1.4315547,94.635605
1.4669458,92.234924
1.5944076,95.12574
1.7670844,97.61378
1.5869956,97.901955
1.7722601,100.62854
1.7004232,100.2043
1.7201959,99.41252
1.8893661,102.681175
1.8664792,106.11888
1.8276327,102.64387
1.8096093,104.12653
1.8044114,108.18589
1.8406553,106.96249
1.8932241,103.54772
1.8933346,107.86396
1.9494298,104.83556
1.8557246,105.75052
1.8218408,105.77564
1.7444526,102.794655
1.8305473,108.58429
1.8897077,102.665016
1.8644257,106.67181
1.8352175,103.68777
1.7772267,107.13976
1.7657902,101.34053
1.6595924,106.31116
1.6337054,103.92562
1.6115586,101.16109
1.5212553,102.08452
1.5958856,103.388016
1.6111482,103.182884
1.5573934,103.97287
1.443625,100.64399
1.6271063,101.70493
1.4554241,96.94442
1.4180236,103.65159
1.4329056,98.426674
1.4516326,96.94768
1.4615672,94.85568
1.4477327,99.2611
1.3421205,94.28205
1.528511,97.66875
1.4150684,94.72602
1.3281611,93.12742
1.3718972,94.54324
1.4248416,92.94558
1.3436431,90.91092
1.394878,92.68046
1.2805595,94.138084
1.3111081,92.20858
1.183549,87.2728
1.3175921,89.44387
1.198131,90.582634
1.1397129,86.88958
1.0953023,86.327385
1.0079781,85.334175
1.0381095,87.47019
1.0648229,87.0987
0.9599201,85.341225
0.9860776,86.88403
0.9759573,86.78988
0.9706067,82.69064
0.93111026,82.72901
0.92631644,87.58054
0.88362545,81.16758
0.92896503,81.21616
0.8618821,80.624
0.84004146,80.71107
0.82270557,81.717
0.9975098,79.02848
0.8809878,82.82203
0.82938176,83.11426
0.90890807,79.62511
0.85063136,81.84122
0.78315353,80.212
0.8106365,78.53314
0.80623925,78.779175
0.78374517,74.71746
0.7080795,77.82429
0.675743,79.727974
0.6144852,79.15871
0.5199836,77.77166
0.49037063,80.96353
0.5657522,74.532394
0.5945322,80.851295
0.5597072,78.2338
0.41924244,82.432304
0.6088567,80.78068
0.53859425,79.10889
0.54139704,82.05211
0.5703926,86.30926
0.6018481,83.03675
0.63262594,85.08559
0.8630906,85.67894
0.8999644,86.59296
0.96880287,85.180885
0.9217041,86.11886
1.1678394,89.13414
1.2831978,90.6237
1.3071835,89.15356
1.3283418,93.06381
1.4145808,88.7257
1.4139347,94.78333
1.596638,92.798004
1.6678535,100.25044
1.6981249,99.917175
1.7000545,99.85394
1.7209651,97.22537
1.7481955,102.19859
1.9309125,100.66293
1.6936382,105.725235
1.8392941,99.36934
1.8665925,103.12855
1.9326288,106.042404
1.8687471,103.7999
1.9415814,106.564865
2.0393076,104.03279
1.9259682,106.15787
1.9063016,105.690346
1.8691641,102.7372
1.8739753,105.63093
1.9134924,109.15545
1.8403187,105.6546
1.7796799,104.78007
1.7556194,105.3813
1.7764579,107.65316
1.8213174,105.21951
1.7507424,103.792175
1.7972227,107.29562
1.6553417,103.6911
1.7836982,105.129074
1.5881783,104.988945
1.5735635,105.291176
1.538127,101.66692
1.6145916,100.39003
1.5394359,104.37881
1.4328166,104.59461
1.480671,101.967354
1.4336836,99.03386
1.4514173,101.863304
1.4199382,98.30049
1.5263907,100.07004
1.4659256,96.45131
1.4529556,95.45909
1.3716927,93.28314
1.4259543,96.26711
1.2977524,93.71658
1.37446,97.44759
1.2401441,93.921295
1.3961685,90.662544
1.2950184,90.8871
1.2595282,92.06723
1.1586697,90.24754
1.1552714,88.70655
1.1586087,89.72976
1.1436323,89.66599
1.0760307,87.65952
1.0900759,88.956024
1.056475,90.02872
1.0017353,85.8435
0.96643794,86.614716
0.8866736,81.98627
0.8141153,85.49355
0.76502764,83.928215
0.80487317,86.393585
0.8221088,86.81666
0.7846126,84.87611
0.7771945,83.19353
0.7727721,82.67561
0.71378005,83.996635
0.6676247,81.935196
0.76420516,81.028046
0.83866507,83.734085
0.6906622,79.99591
0.66789377,78.87987
0.7902654,80.21268
0.584817,77.1535
0.7233624,76.268814
0.771089,81.81063
0.61557037,79.75481
0.63880384,77.11077
0.43701234,76.85027
0.51960236,78.33859
0.44529697,75.577965
0.48384845,77.54378
0.32648796,78.88582
0.40155864,78.4269
0.42270723,80.00514
0.3137915,79.34219
0.26078364,80.63412
0.30841866,79.57921
0.37657666,79.004555
0.32811993,80.63874
0.40340388,81.50732
0.37243366,82.78013
0.43735164,85.693115
0.5018809,83.47582
0.5549743,87.240005
0.6276593,85.12546
0.6429544,84.77367
0.7072076,88.13516
0.8781853,91.092926
0.8053257,89.98027
1.0850428,91.03027
1.1181256,96.2864
1.2428496,96.10114
1.1871258,94.39114
1.2386553,92.83972
1.2114794,97.50941
1.4226453,98.58833
1.4431127,100.4048
1.5513726,96.550415
1.5722888,101.5024
1.5468051,102.13653
1.5795113,101.805435
1.5803483,102.07937
1.5638782,101.90197
1.5363528,104.11895
1.6031611,103.30125
1.618936,102.122574
1.5621446,107.77399
1.6485485,107.03856
1.6122725,109.63669
1.5949123,106.96091
1.4988956,107.99935
1.6157535,106.03223
1.5469587,107.14333
1.4332498,108.84577
1.4000621,104.98499
1.5045279,99.59765
1.4409277,107.25402
1.4323497,104.80058
1.4620353,104.75742
1.2741064,104.50383
1.3092592,103.064865
1.2854111,103.91744
1.184141,105.03754
1.2587639,103.67352
1.1750143,101.78584
1.191514,102.05237
1.1972755,98.350334
1.1116064,102.36816
1.1570698,100.81679
1.0365968,95.505066
1.0478686,97.707504
1.0337445,96.28245
1.1039569,99.13324
1.0654685,98.094666
1.1211318,98.69538
1.0470558,93.00552
1.0136133,95.38296
0.8658158,94.39527
0.84394765,92.68388
1.0607648,92.81996
0.95849055,93.588104
0.8820317,92.333046
0.9081583,89.82119
0.8379539,91.98924
0.7103875,91.070786
0.7375245,90.18249
0.7144919,92.47653
0.6674171,91.92717
0.6472422,85.71855
0.5477757,86.354614
0.56510717,91.77776
0.566817,85.15315
0.5743239,85.02329
0.45585787,85.67394
0.41706365,87.40822
0.40459067,84.72966
0.3566194,87.03809
0.5434095,85.551414
0.3977847,82.88297
0.44999763,84.10189
0.503534,83.56102
0.45394155,83.18406
0.39036095,77.26417
0.38222456,80.42619
0.30992582,81.01417
0.43829244,83.463844
0.43136162,80.600136
0.32310128,78.412315
0.30464533,78.92989
0.30097657,76.22187
0.17366813,81.45481
0.13058536,79.14033
0.18559669,76.03234
0.24440047,79.60194
0.11194725,77.038055
0.04461311,75.805046
0.07624519,79.144745
0.08188701,79.217735
0.06648276,78.39601
-0.014055029,80.75692
-0.052124634,76.7243
-0.04242621,77.479836
0.011311544,81.96238
0.05205246,80.1088
0.013498114,84.33875
0.078898534,83.63992
0.20283137,84.96452
0.14739233,86.37492
0.23414454,84.54612
0.3318685,87.5645
0.4138851,89.12562
0.5207748,88.25773
0.6010591,87.581406
0.6063733,93.87252
0.7688097,92.14599
0.827027,93.59531
0.8225971,93.72321
0.905501,93.857925
1.006369,97.35708
1.0138624,97.648254
1.1317304,97.675766
1.2792673,99.50287
1.2191056,100.7873
1.259737,97.42874
1.1725534,97.87061
1.3917298,104.08363
1.3603764,100.77732
1.344286,103.73441
1.280719,103.20558
1.2992727,102.67448
1.3866595,106.28839
1.3873795,104.498764
1.3881806,106.51222
1.3389488,102.76314
1.3227003,107.81955
1.2752957,104.38462
1.2375997,106.197136
1.4173839,111.70198
1.3598629,104.27852
1.2092708,105.25241
1.2385068,104.78217
1.1860658,102.06912
1.1893641,104.4047
1.1131495,104.23934
1.0939052,102.3867
1.1505954,106.74221
1.1703959,103.3095
1.0471622,104.556564
1.0211108,105.12879
1.0043094,102.330475
0.9509077,102.76182
0.85151625,97.95242
1.0018238,99.59665
0.96358216,101.62335
1.0272138,100.48364
0.98238665,97.62925
0.81372637,98.09864
0.8912752,99.61542
0.97253776,97.737236
0.85378236,95.710884
0.8196357,93.38455
0.85947084,97.607
0.8272433,94.848816
0.86264724,92.582054
0.875974,93.63931
0.8667776,90.14166
0.7467464,89.054504
0.7075155,90.66427
0.7499191,88.840546
0.7019592,88.93667
0.7208708,92.18885
0.55477095,88.19312
0.60964215,88.15479
0.6773981,85.886215
0.484407,84.99622
0.5376444,88.03487
0.3563918,86.58289
0.40280804,85.84858
0.37380832,85.56506
0.3859332,83.303604
0.4090301,83.544334
0.41342938,82.117256
0.37664407,81.08144
0.37222624,83.00732
0.3985074,84.73706
0.28952876,77.48106
0.42462522,82.26953
0.3876588,81.1243
0.36482897,79.08074
0.28588957,78.326996
0.3089721,78.83472
0.41815415,77.039474
0.27331656,80.42366
0.39488924,76.68535
0.35476828,78.963745
0.29257146,77.92386
0.16030319,77.82975
0.19683678,81.17619
0.15369833,80.04034
0.048293013,76.30097
0.08256362,79.6514
0.073894285,83.29634
0.064465806,77.47764
-0.03496755,79.51138
-0.013681185,75.563225
0.078256145,81.90295
0.21319896,83.52461
0.046801474,80.49903
0.08080924,84.45482
0.1613982,81.866
0.33705905,88.535446
0.2835061,85.835724
0.4552332,88.16512
0.46325004,85.847786
0.68396956,89.76052
0.5681228,90.490295
0.73702943,90.0708
0.8673366,91.924324
0.8379962,93.72736
0.8713724,91.54353
0.9825528,88.835945
1.1453311,94.2409
1.2459344,96.19991
1.2336042,100.287125
1.3056931,96.22484
1.3122686,97.21718
1.4331723,96.506195
1.4082261,100.726776
1.4038863,100.9499
1.5200477,101.65969
1.5084243,101.29108
1.5605979,105.18163
1.5195414,104.62231
1.5744584,104.242424
1.4473794,109.59471
1.5643979,105.2541
1.6689793,108.15046
1.5936029,104.44239
1.6391164,106.70895
1.4493442,109.92377
1.48804,106.66036
1.5573795,105.82205
1.5150088,108.21537
1.6902763,108.244385
1.536392,106.1022
1.4364448,109.742546
1.4347246,103.99503
1.4438846,106.738396
1.3445828,104.037186
1.372738,105.25443
1.2239946,102.71088
1.369015,103.73803
1.3265384,104.88732
1.2513331,100.51744
1.339614,106.65014
1.162952,96.007515
1.2128663,101.42719
1.2585462,98.820694
1.1948272,99.65914
1.1643687,99.77595
1.201738,98.01459
1.1257187,99.79221
1.1749746,94.59452
1.2109435,95.47453
1.1523378,93.15804
1.2247999,97.87008
1.1822256,97.5869
1.2577823,96.17768
1.1567976,95.27136
1.087204,94.35128
1.0368863,90.424644
1.0818614,91.56913
1.0173157,91.522484
1.0593892,91.15321
0.91022795,91.71019
1.0031204,91.607834
0.8647356,90.28627
0.910381,89.10908
0.8588617,89.11361
0.82793427,86.40665
0.7054452,83.79635
0.78300416,86.582344
0.66506547,82.30744
0.78826624,86.627846
0.711145,86.85584
0.66493326,85.78038
0.7319304,84.11747
0.72880733,81.689476
0.72744983,81.906235
0.6719152,79.50566
0.7280928,83.864555
0.6398975,80.4749
0.69927,80.820435
0.63199663,82.68808
0.6966462,81.950485
0.6721185,81.5821
0.73322964,75.46855
0.6392196,77.24537
0.6981975,76.495674
0.56106114,82.0909
0.63329095,81.17116
0.5379021,81.25144
0.4723644,79.43163
0.53182805,81.32769
0.39260167,77.09101
0.4652477,73.9198
0.29225484,78.4946
0.4261265,77.77294
0.4242546,81.15558
0.48478165,80.84164
0.4356385,82.8768
0.45799267,79.97911
0.52337587,81.97125
0.57631487,82.4705
0.53764915,80.818
0.58214295,87.38802
0.7743961,82.72303
0.8954669,86.95437
0.8689278,85.255646
0.98835295,90.734566
1.0045027,89.28593
1.0548625,90.55659
1.1851598,93.37841
1.285995,95.95979
1.40119,91.36485
1.5379454,96.743324
1.4889091,99.56677
1.5611489,97.198875
1.5926572,96.473114
1.720564,97.01114
1.7633548,98.223434
1.8143152,101.17981
1.7925962,100.54016
1.7702663,102.05408
1.8566189,102.480125
1.9890469,106.98791
1.7937192,106.32836
1.8411771,102.76829
1.8971962,107.20435
1.9111087,101.460365
1.9608077,104.460236
1.8685387,105.617584
1.8955437,107.3389
1.9444996,107.790344
1.8604819,106.47422
1.7968832,105.9087
1.8289514,106.21528
1.8966349,104.65376
1.8370388,102.97544
1.8308407,104.29097
1.7091718,106.53806
1.6543559,106.87624
1.6307638,104.11087
1.6959611,105.247696
1.702566,102.441925
1.6604532,104.14846
1.5286325,102.24237
1.7017292,98.97815
1.5952183,102.086266
1.5711683,102.477
1.4870563,103.6245
1.6217912,97.58294
1.5845503,95.01243
1.5033829,98.67301
1.4405097,94.86571
1.5555327,95.870514
1.4374769,96.848885
1.4513184,95.3462
1.5013076,92.20422
1.4000473,94.01998
1.4023727,93.50828
1.4320468,92.93359
1.3146329,92.73012
1.3410765,95.0912
1.3208903,91.02432
1.3758041,90.09884
1.2042974,90.06924
1.2980877,93.74159
1.2569618,87.100174
1.246497,89.92215
1.1631943,91.36164
1.1422845,90.996956
1.059407,88.375244
1.0338985,85.1155
1.0391786,88.00522
1.0803477,88.24034
1.0062972,86.36877
0.93081564,88.04631
0.9533028,82.27825
0.9265508,86.6715
0.9477113,81.58395
0.90621066,82.25834
0.96387935,82.56802
0.82967365,83.922844
0.8165973,82.79448
0.997501,77.817444
0.837013,79.85937
0.9827673,79.80873
0.7951847,79.66503
0.91358167,76.14744
0.8469332,82.05785
0.6923263,74.49918
0.8973507,77.94316
0.7436647,80.789474
0.75570315,80.11541
0.58990777,83.30726
0.6433505,78.93208
0.5359808,80.20189
0.62253726,77.25432
0.5442474,83.12969
0.50636834,77.68135
0.5353588,82.9488
0.5333268,81.79688
0.5678168,78.44745
0.5932719,79.667625
0.607923,80.96472
0.57238615,80.163025
0.5074092,84.82745
0.7425767,84.44874
0.65012527,83.98456
0.85582066,81.791016
0.79435164,81.852165
0.7854744,88.70984
1.0147821,89.89745
1.0373967,92.20269
1.1607466,90.398285
1.2419981,87.60535
1.2704943,92.97256
1.4680606,92.68503
1.5037789,89.79918
1.6138052,94.601456
1.5262896,99.737595
1.5080591,97.695435
1.7270373,101.6765
1.7424563,100.89277
1.811169,103.56615
1.849324,102.973946
1.860654,106.28035
2.0155811,102.26863
1.8147398,107.08356
1.8497834,102.83979
1.8457249,107.32313
1.9161388,104.892784
1.7790782,106.95313
1.8592397,107.31546
1.8839604,104.89614
1.8782943,105.53074
1.8857028,107.535255
1.8422543,108.419395
1.8444984,108.817154
1.808586,103.71913
1.9697535,103.28743
1.8582474,103.82689
1.7630465,106.10649
1.5642681,105.398926
1.7829099,102.87955
1.673753,103.480675
1.6295036,102.00449
1.5841697,101.859146
1.5716532,103.08789
1.5408273,104.3383
1.3899235,100.899284
1.4697443,105.064064
1.3745351,96.149506
1.4299178,99.394905
1.3760548,98.98245
1.477378,101.13756
1.3866887,98.53777
1.3362547,97.4441
1.3438987,97.97064
1.3598735,97.09418
1.2763337,97.810104
1.3878167,97.677864
1.3290361,94.287674
1.3029877,92.46435
1.2587035,95.98961
1.3487153,94.91728
1.102559,97.156075
1.128346,90.56512
1.2053105,93.44676
1.1042993,94.814926
1.1270763,88.99457
0.9448175,89.981926
1.0202894,89.52339
0.96057135,87.04461
0.9671363,86.14786
0.8886026,87.30352
0.81283015,85.734
0.80676085,87.53717
0.76395273,86.255035
0.7743021,85.90984
0.754035,86.28586
0.729185,82.85962
0.64656204,82.690094
0.6930794,83.26055
0.78173524,83.61985
0.70777726,83.523445
0.62133276,81.95814
0.7244711,84.34047
0.5957739,87.0875
0.6203736,78.84279
0.5542451,81.72258
0.6981521,81.01398
0.6215691,81.20276
0.55589545,80.33517
0.6205198,77.94087
0.55022216,78.772545
0.51665276,80.069046
0.5250044,77.43713
0.3825249,77.31612
0.44849527,77.46104
0.34997052,77.5048
0.22399566,79.41656
0.31269294,79.901794
0.22274801,80.88893
0.23591419,78.9846
0.20961992,78.299904
0.3593946,77.39242
0.12880005,79.38441
0.31516543,82.7158
0.3029373,80.24562
0.17952836,82.723694
0.42480236,81.8958
0.48591095,84.51815
0.47473004,84.60142
0.6033325,83.52771
0.49130526,91.3509
0.61633956,85.04998
0.7411874,87.33322
0.8765908,92.13557
0.8267184,96.10896
0.9502375,93.406235
1.0980452,91.63503
1.1881084,96.44193
1.2756315,93.727455
1.2243694,94.52134
1.3602052,101.203865
1.3913893,93.654305
1.39523,100.2202
1.3697498,101.49021
1.5420297,103.2626
1.556201,103.220184
1.380044,101.27582
1.4431288,103.314896
1.4845302,106.25541
1.6095532,106.19375
1.5843105,107.350494
1.4334021,102.02111
1.5581717,107.81395
1.5680411,106.75509
1.5963595,103.73673
1.5732864,107.27134
1.55334,106.10689
1.5010307,108.86199
1.3987151,106.33833
1.4385673,108.00732
1.4009863,105.38489
1.3090247,106.06095
1.3689028,107.304276
1.3474163,106.754425
1.2877377,102.77363
1.208037,104.31494
1.2346855,106.61184
1.2606357,104.84001
1.2531098,102.74779
1.0163453,99.761925
1.1663874,97.5824
1.1440476,103.1587
1.0760442,101.43842
1.1064636,100.733955
1.0440716,103.45068
1.0837822,99.32049
0.9446247,101.016594
0.9902873,96.53216
0.991772,97.65555
1.01696,97.473915
1.1228595,95.180695
0.9674149,94.069
0.91423666,97.34268
0.84642375,94.278854
0.9153606,89.15187
0.80761015,96.68459
0.8889026,92.423874
0.9273819,97.16366
0.793342,91.0589
0.75914425,93.228004
0.68516177,93.77007
0.6663918,90.25615
0.6546742,93.16018
0.5504633,85.85174
0.6234221,90.10224
0.5253048,87.00299
0.4423522,86.90605
0.36976394,85.03368
0.5103705,88.215706
0.40352282,86.00121
0.43966565,86.682785
0.36857757,84.3851
0.40661007,81.02679
0.36547086,82.10548
0.3120135,84.060326
0.4170812,79.82986
0.3917515,81.576355
0.3949485,78.52299
0.28787825,77.796616
0.35037783,80.383766
0.32059395,84.17148
0.33264044,81.56043
0.34327662,76.04975
0.3357237,78.588165
0.16340026,75.12749
0.21499616,76.11638
0.18552722,78.37095
0.15120733,78.591805
0.105472684,76.542244
0.09020837,76.03156
0.1398743,76.85154
0.049490098,82.35186
-0.07247436,78.6193
-0.12681943,80.540825
-0.009735399,80.50336
-0.026229853,82.64684
-0.023158913,83.042854
0.05249565,81.368355
0.027154958,81.8149
0.07905327,82.96824
0.07323408,83.30608
0.16145732,86.33797
0.15744394,87.89565
0.29387283,85.95007
0.38944098,84.26426
0.44906762,86.49756
0.45584944,89.4257
0.6279236,91.9503
0.5881958,94.27417
0.6918951,89.48542
0.73735315,93.91121
0.8295774,93.33315
0.9483804,93.733864
0.99434227,96.51734
1.030105,92.60839
1.0783163,100.24597
1.1324025,101.26247
1.201879,100.561066
1.2358344,97.94894
1.1970952,100.69847
1.2186639,101.85458
1.2421913,101.44837
1.4031472,104.48241
1.423071,107.83739
1.3213742,106.28865
1.3192385,107.6531
1.2760013,106.25623
1.489941,108.66627
1.4531292,102.378456
1.3817068,107.709465
1.3394908,103.69747
1.3114241,108.70589
1.2552842,108.13008
1.2671268,104.65821
1.201877,108.56525
1.2906364,103.79352
1.2449524,105.68461
1.2470735,105.85526
1.175925,106.340996
1.1480325,104.36543
1.2074022,105.00292
1.2156321,103.933975
1.0185864,99.71567
1.0697917,102.75703
1.0380157,100.86529
1.0998639,99.76122
0.9489425,102.05938
0.9956294,98.82223
1.04924,101.10306
0.9720707,100.36184
0.9926034,96.68188
0.9248244,96.86639
0.85667944,96.38979
0.89414126,95.75797
0.96796966,96.80341
1.019388,96.54221
1.0332936,93.572655
0.8797657,95.56939
0.9259459,93.94409
0.8894883,95.26716
0.7938128,92.22525
0.785464,90.4761
0.82263976,90.165855
0.9260352,89.97065
0.78782356,89.952034
0.77309394,89.243866
0.6629987,85.8722
0.7033939,88.52815
0.54816866,84.815056
0.541648,88.05409
0.5010286,86.651276
0.51806504,86.74684
0.5161032,85.94433
0.39457563,83.23283
0.52268606,89.05852
0.38424078,83.90101
0.4329865,81.5638
0.3413731,83.79834
0.41279075,81.26644
0.48415768,84.266785
0.39107722,83.73158
0.3723515,83.710815
0.56954944,80.2435
0.4634564,80.961205
0.5094878,79.77436
0.43066725,82.662384
0.2957867,76.87853
0.40188408,79.910706
0.28753868,77.944534
0.2872316,76.827354
0.37771252,77.18427
0.33323032,75.732315
0.16980144,75.54511
0.27340448,78.71291
0.18670252,78.173904
0.14540477,79.239975
0.07950911,77.071465
0.12406828,80.60992
0.15045178,77.75151
0.18565074,78.16151
0.16991696,79.362755
0.1994704,83.5627
0.15011199,83.42292
0.18247014,83.98417
0.3002667,87.36321
0.30207723,81.420456
0.38840157,88.238655
0.5448519,87.05816
0.5325407,87.21678
0.49063262,87.226585
0.6329405,86.21409
0.84254503,93.30973
0.83018816,90.23641
1.1123359,97.90272
1.0885139,96.07531
1.077891,93.78434
1.1162789,93.23793
1.2044288,94.46273
1.2769685,97.536255
1.2790021,98.199
1.4374747,97.77689
1.4545532,98.11358
1.5666145,96.58768
1.6417652,101.72191
1.5482471,102.8654
1.5448363,107.50623
1.6265197,104.84016
1.6603106,104.68812
1.6921977,104.67431
1.6734964,105.495186
1.693601,106.35256
1.7465807,105.61834
1.6159447,104.43428
1.5315498,104.45675
1.5934385,105.64783
1.6174201,109.1611
1.5933028,103.049805
1.5874767,104.60699
1.5898539,105.82472
1.565213,104.0541
1.6319984,105.07243
1.5558158,104.7157
1.5194625,102.27505
1.462333,105.024086
1.45567,101.870026
1.3912573,105.93086
1.3819139,101.511246
1.375523,104.23088
1.390034,105.00467
1.426286,105.9853
1.3130467,101.60035
1.3589727,99.30485
1.424487,101.515366
1.3684641,99.69411
1.3558975,99.31206
1.328913,98.49354
1.2732841,94.95706
1.2773601,96.27487
1.2946348,96.53975
1.1798302,96.44101
1.2518796,93.158195
1.226718,94.25982
1.3140739,92.360374
1.2251871,92.74073
1.2427918,92.69882
1.082531,91.93052
1.1293002,92.14188
1.0900826,89.35971
1.0748711,90.8276
1.152521,88.97047
1.0471233,86.917244
1.0176147,86.47754
0.8857918,87.43344
1.0170174,89.67794
0.8634158,87.06428
0.8368619,86.04415
0.8501253,83.97801
0.8291952,85.24647
0.76793563,87.63575
0.88274163,81.45904
0.7164117,82.91422
0.8804009,83.45851
0.788508,81.87775
0.809256,82.66498
0.6888986,80.70281
0.7739316,80.64783
0.7749296,80.14706
0.7336711,80.215866
0.81010896,80.569084
0.7820284,82.79174
0.8658407,81.67788
0.7256101,80.67343
0.72870517,79.53509
0.7375523,78.77281
0.75710946,75.76293
0.6012898,74.56676
0.5525594,77.63208
0.6005697,77.645386
0.61752963,74.41847
0.4394543,78.37704
0.50516486,79.67243
0.43840536,77.37346
0.44495773,81.982506
0.49871466,80.43744
0.56732607,75.860596
0.48736972,83.34976
0.41239983,83.13072
0.49701607,79.59618
0.6227187,81.77142
0.5712415,85.52931
0.81757396,82.42262
0.8324436,85.82288
0.9390853,87.19844
0.9084614,90.836754
1.0485994,90.88288
1.0347555,90.80677
1.1989036,91.238686
1.2379559,92.31021
1.3221711,99.11691
1.4838604,94.98079
1.5315181,95.47896
1.632008,95.52896
1.6037025,102.205826
1.6158988,99.13481
1.695807,100.432396
1.6994468,95.33133
1.7490757,97.563446
1.8555423,102.179825
1.9440178,99.90705
1.880214,101.69609
1.9321133,102.618095
1.9231013,99.12534
1.9698899,102.0886
1.8949604,104.34837
1.9809272,102.990776
1.9755654,102.79716
1.9567947,104.89185
2.0033653,106.18811
2.011849,104.29337
1.9814386,107.79144
1.9124447,106.55489
1.9276851,103.58763
1.8694776,106.05278
1.9420516,104.80495
1.809673,104.08466
1.8607945,107.84657
1.8091654,104.001915
1.868006,109.4222
1.7816489,103.314095
1.7088212,100.37077
1.6319044,102.7221
1.5789695,103.41102
1.6586524,102.32919
1.6008952,101.83979
1.5228373,100.62142
1.497854,100.567795
1.619828,98.428604
1.5279729,99.83212
1.5985073,97.238754
1.5824234,97.32124
1.519498,99.20179
1.4784327,98.21543
1.3705372,96.690926
1.587384,96.43971
1.5279926,95.24489
1.3560573,94.34867
1.4738744,97.72687
1.3683338,92.08019
1.2935523,92.22895
1.3567816,90.027016
1.3448242,91.58035
1.3275332,91.809616
1.2365597,88.418076
1.2932411,89.76211
1.2411423,90.72993
1.0036907,88.73787
1.0938443,87.15039
1.1520377,86.58298
0.96685416,83.36568
1.051545,85.69079
1.0613465,81.82607
0.92864656,82.878975
0.9480179,85.05618
0.9564503,79.43082
0.9222269,82.04038
0.8982738,83.8644
0.8526486,84.50226
0.8740296,83.525024
0.91312426,77.51599
0.931888,80.95154
1.0319288,84.330635
0.8739818,79.39731
0.8420662,74.33743
0.88301927,78.74237
0.966588,78.433266
0.8799946,74.42328
0.8281049,76.45309
0.8471935,76.68894
0.6555631,76.61347
0.6618579,84.43165
0.6727114,74.55709
0.6468433,77.38413
0.55387086,78.01614
0.5328029,78.579346
0.5362549,81.25933
0.6557631,80.51646
0.4668731,79.72881
0.5490748,80.21481
0.53044915,80.573456
0.5554679,81.08292
0.5437978,81.75285
0.46769643,80.441185
0.5870164,77.32645
0.649513,83.39465
0.63668126,82.944046
0.7026233,83.82827
0.8632347,86.83181
0.82244134,84.72286
1.0208348,88.27363
1.1397426,89.381
1.1500447,87.77799
1.2032042,90.04699
1.332779,93.130486
1.4649732,92.558
1.4961792,95.50074
1.4453319,92.49
1.5047519,95.95448
1.6553605,98.02242
1.6645814,97.12605
1.6499418,98.986755
1.7855421,98.63406
1.6633011,103.12
1.6993557,101.740746
1.7988696,99.67367
1.8626618,103.84595
1.7417661,104.013565
1.8371086,107.15101
1.8482928,104.598595
1.7843847,102.996414
1.8421983,108.17059
1.7346982,104.39161
1.8009276,110.612045
1.7623369,104.91849
1.7944418,107.97223
1.7976457,104.964386
1.7135569,106.812584
1.6163479,105.6832
1.7031059,108.69846
1.6357889,104.67051
1.6202322,104.90792
1.6556339,105.27693
1.564929,105.1007
1.6296672,103.44717
1.4414759,105.45106
1.4947497,101.91733
1.4597095,98.164986
1.470178,100.935524
1.4529151,106.321465
1.3684728,97.43996
1.4028857,98.58156
1.3874674,103.27853
1.3612903,100.28411
1.372459,98.95307
1.2838445,100.34086
1.1825049,100.60774
1.2739527,98.67116
1.2686176,98.813545
1.2777193,96.79965
1.1809748,93.60332
1.2874035,95.148285
1.2465956,92.169426
1.1598971,91.40781
1.2111819,92.13929
1.1713866,91.161934
1.0563906,92.8384
1.0010028,90.85522
1.1512315,90.59886
1.0136452,89.48221
0.88174516,89.41088
0.9275264,87.89585
0.8741472,87.19155
0.7787467,85.52402
0.81903577,84.929405
0.7452548,85.340454
0.70736945,86.35676
0.6512292,82.17267
0.56069714,85.67452
0.68049824,81.528854
0.6879434,88.28152
0.7093394,82.4941
0.59857106,82.56991
0.45050722,82.30973
0.6002463,84.40953
0.6512065,77.11151
0.48330227,78.5228
0.5517673,82.0098
0.56005275,79.28504
0.57330805,77.76459
0.5335614,78.19191
0.49470174,79.97014
0.45965946,77.167336
0.48032966,80.65422
0.43813273,78.97653
0.44343022,76.34725
0.39702544,77.29753
0.40282527,77.608604
0.3069183,78.45707
0.14862308,80.09863
0.17393316,80.48077
0.29112622,79.95648
0.17800322,81.69276
0.101685986,78.24568
0.28411356,79.212776
0.062867515,81.425026
0.12983586,82.72634
0.3137353,80.024086
0.2878228,83.33623
0.28128284,84.84577
0.3653038,82.67634
0.28783685,86.05171
0.40598148,87.033485
0.4370155,87.10481
0.5756768,85.80926
0.7165073,90.08116
0.77580833,87.62148
0.89378834,90.77075
0.953278,88.28675
1.0948024,95.43852
1.0995741,93.84843
1.1330049,94.22218
1.1790044,95.898
1.3139355,97.46819
1.3430246,96.13783
1.3187181,101.5264
1.3230667,99.000824
1.3815958,99.246475
1.40197,99.86113
1.3772776,101.01269
1.384962,104.489525
1.4850681,104.33876
1.5575186,103.70608
1.459498,105.55113
1.4147863,102.0763
1.497828,106.398895
1.4789878,104.570694
1.5121497,104.694046
1.4537848,106.871346
1.4964312,108.787315
1.3612415,105.88697
1.3918025,107.553894
1.3861059,105.59925
1.3128165,107.796455
1.3170005,108.08945
1.2120855,103.9179
1.2067314,104.729324
1.252434,107.30862
1.2718135,103.95249
1.1831372,103.07244
1.0964192,107.71925
1.1199062,100.43932
1.1092211,108.38435
1.0097833,104.09946
0.98772997,100.70805
0.99484587,101.384514
1.0330299,100.48524
1.093192,99.81576
0.99309206,98.63201
0.9281969,98.50376
0.93169135,95.816185
0.8979613,98.23038
0.9247602,97.3748
0.88703245,98.6511
0.83440655,94.455086
0.9347364,90.3254
0.82457405,91.36428
0.94793206,93.483345
0.7882199,89.62565
0.8414721,91.74544
0.7798146,90.39622
0.62662184,90.63474
0.6433749,96.00614
0.625038,89.173256
0.5458747,89.78711
0.5932173,91.48703
0.5080027,86.27399
0.53875846,88.27072
0.50325143,89.79885
0.55808717,82.52891
0.38435918,88.23968
0.42669004,84.51841
0.25672665,85.70716
0.37311354,84.92191
0.26064563,85.83814
0.36358458,87.036964
0.33525547,78.89393
0.26272625,80.935005
0.3368736,77.02189
0.27372044,82.59032
0.43411267,80.30718
0.28889242,77.51619
0.13006844,76.6657
0.23861799,80.47666
0.27456743,76.03629
0.38288885,78.773224
0.2883811,81.1178
0.27421224,74.93891
0.13163005,79.08136
0.09849585,77.35753
0.15298766,82.06755
0.117439255,74.65979
-0.030987324,75.57423
0.06860806,76.35099
-0.015836267,76.3962
-0.03630436,80.75549
0.036637425,78.35273
-0.04348437,78.89554
-0.010930218,78.87442
-0.0574881,77.93068
-0.048062835,78.31847
0.012432709,79.6799
0.12830773,83.20251
0.11464175,83.961624
0.22270468,84.43868
0.13331361,82.1384
0.23039474,82.45207
0.43045488,87.169525
0.5281709,88.697174
0.5709216,90.26625
0.58492404,92.98388
0.8309904,92.22033
0.7443359,88.46147
0.82879907,93.41703
1.0379256,94.24503
0.9764083,96.00606
1.039736,94.924835
1.1492295,98.30079
1.2128068,98.09125
1.2580662,99.18895
1.2429241,100.4581
1.3294132,101.05568
1.3511261,101.731186
1.2301952,104.34839
1.3900818,98.892044
1.4254328,100.83177
1.3392991,104.666275
1.4154227,104.90091
1.527568,103.69117
1.432449,106.829865
1.3702099,105.59142
1.40262,104.04662
1.424612,104.28661
1.3468474,106.93824
1.4119617,108.3378
1.3835368,106.94936
1.2567512,106.344925
1.3837878,105.06822
1.2762898,107.41731
1.3152587,106.571686
1.2160807,106.01437
1.2793072,101.9029
1.1727513,100.69231
1.152824,106.83474
1.1500621,102.116425
1.1132379,108.58458
1.0788368,104.214516
0.9995569,105.843544
1.0412115,100.71346
0.96930045,98.63675
0.9718172,99.62084
1.0692421,100.61938
0.96337056,100.48717
1.0433064,95.71945
0.96544147,94.92509
0.9983525,97.82555
0.9287824,94.23652
0.9306381,94.95687
0.9990896,94.28278
0.97211796,95.81226
1.0118855,93.562996
1.0099006,93.47664
0.89802474,93.49501
0.913446,93.49256
0.7538796,92.22797
0.85009223,91.40973
0.7496812,95.44266
0.82905716,86.16604
0.7809897,89.55373
0.6523416,91.57459
0.7655545,89.21097
0.7337265,84.27152
0.643987,84.46883
0.5644502,87.566536
0.6124332,89.34741
0.5459932,83.06299
0.58218426,80.86012
0.46939814,84.821335
0.44364667,81.67108
0.524194,86.63678
0.5930015,83.937706
0.3952574,82.465004
0.48377067,79.01745
0.53649485,81.85323
0.3871037,82.371185
0.5260726,80.466415
0.48864415,78.870285
0.4791694,79.24158
0.5063402,76.78512
0.40249765,79.44941
0.507906,74.2876
0.47001204,78.99552
0.44837505,77.22349
0.35251945,74.38139
0.38649425,77.90001
0.3456283,76.847786
0.25863144,74.89229
0.18169667,78.368385
0.21192054,77.96754
0.2361299,76.74892
0.17578192,77.14781
0.17753609,77.02075
0.15535678,83.55705
0.13055143,80.40699
0.30483574,79.933105
0.28603747,81.07892
0.27238175,80.22394
0.33719385,82.906746
0.39816096,82.849846
0.31940284,80.80839
0.5027375,87.88086
0.62923765,86.70827
0.6766431,89.033936
0.8621022,91.28483
0.95472765,87.968254
1.0803462,87.699394
1.0706612,92.04056
1.0334342,87.97508
1.2382308,91.32989
1.3417152,93.10389
1.3081942,94.68738
1.5570307,97.50332
1.5337511,97.64656
1.5797411,95.58558
1.546897,98.624214
1.6851676,103.9206
1.607836,103.39898
1.6805894,100.80173
1.6189259,102.67612
1.6980286,103.55989
1.7289624,101.3484
1.7842247,102.679016
1.762386,103.55357
1.7488744,106.99531
1.7090486,106.62872
1.6980469,105.03946
1.7576479,105.532234
1.6639676,102.40447
1.7302694,104.90503
1.6990086,107.647514
1.67835,104.88579
1.6130217,106.19332
1.6470255,102.94649
1.5997825,105.84752
1.5626636,105.93161
1.6484731,104.35291
1.5488443,103.56035
1.5123744,99.64615
1.5100558,102.28586
1.5157399,102.23189
1.4144304,105.20619
1.4550753,101.27227
1.3794575,102.06937
1.2626251,101.25419
1.4366581,97.67304
1.3441621,94.85166
1.4146518,100.50713
1.4049629,98.55896
1.3900551,98.42165
1.3164811,95.97965
1.3375463,98.45895
1.361421,97.191315
1.4492307,95.17513
1.3665781,89.972916
1.3040442,94.84738
1.3318024,92.73901
1.1277816,97.42091
1.2515343,94.044304
1.224413,93.21912
1.3152673,89.80565
1.1409022,90.18228
1.1405396,90.15769
1.0793228,93.10026
0.97877157,89.92126
1.0741516,89.1429
1.0128809,87.931656
0.91563284,85.530396
1.0907292,85.91259
0.9284005,87.27517
0.90949905,87.425064
0.9105535,89.58696
0.9315441,80.31242
0.809701,85.91856
0.77220213,88.86178
0.88085276,79.214516
0.8499538,84.00985
0.8345818,78.339226
0.8326548,81.86253
0.9180437,78.21188
0.8942551,80.33514
0.7979474,81.76426
0.9470668,81.914375
0.92990106,80.194214
0.8984382,77.566864
0.86370236,78.561516
0.7501808,77.58588
0.72462314,79.036514
0.6460551,77.392746
0.7274649,79.26003
0.6869463,76.32516
0.59446466,79.05137
0.5505916,80.98049
0.60008794,79.88931
0.5094596,78.545425
0.49950483,78.6577
0.45829847,75.152
0.6190889,79.080246
0.54343885,80.68837
0.5620876,78.911446
0.51806295,82.84952
0.5202106,82.96614
0.5815736,81.269875
0.7873344,84.37878
0.7848555,86.98016
0.875104,88.77371
0.95279306,87.52776
1.085034,89.54139
1.0190831,87.56285
1.175863,89.69108
1.2941573,89.47868
1.3136514,93.940796
1.4016546,93.61177
1.5650256,93.74245
1.5576751,91.79117
1.5952458,97.17978
1.7192086,94.38072
1.7251265,99.05304
1.8549122,98.98341
1.8839724,98.104355
1.7552963,102.19691
1.8321582,102.10596
1.8955702,99.9532
1.9630587,104.568924
1.9375507,103.198715
1.9837481,102.0825
1.9619867,104.88249
2.0272532,106.806595
1.9691962,107.82434
1.9791812,100.6924
1.9804957,107.12316
1.9224069,104.221756
1.9285363,104.26326
1.944274,108.47148
1.9427212,108.10856
1.8695825,107.576096
1.8744204,104.245636
1.7712206,106.95922
1.806245,104.47938
1.7300978,104.13997
1.7781675,105.330696
1.7050834,103.07
1.7782887,103.43687
1.6118695,102.62841
1.6871665,101.58848
1.672232,103.09924
1.6933781,104.48928
1.621803,98.62149
1.5872031,101.75192
1.5741311,99.7766
1.488534,100.16705
1.4729635,102.95615
1.4984157,97.91972
1.5556349,99.80292
1.4660513,97.01208
1.5155274,98.64239
1.4594198,95.378525
1.5305899,96.35049
1.4298637,95.12659
1.4767867,90.88921
1.3705564,95.1567
1.3803493,92.233215
1.333637,90.87203
1.3416203,93.62764
1.326857,94.19328
1.2545537,90.413925
1.2218717,95.701294
1.2549944,91.04182
1.079899,91.902405
1.151863,87.607994
1.0970253,87.56284
1.0154588,88.68419
1.0314686,85.23229
0.96277666,82.24149
0.9826686,84.849
0.93251824,91.281044
1.0279566,81.2528
0.8403097,85.10799
0.76638144,84.079094
0.7743689,80.713684
0.9553845,84.27629
0.9018173,82.43575
0.9084774,78.818
0.87406045,81.003815
0.9610508,81.18606
0.8286519,79.343445
0.8261992,81.08431
0.8828671,78.95
0.8006196,77.83494
0.7873862,77.44919
0.7308641,77.8583
0.7031788,81.14199
0.73327965,80.76888
0.53591824,77.454636
0.7196296,78.31522
0.498466,78.03998
0.6414844,78.21832
0.5276607,78.22547
0.5337277,79.99373
0.4364856,79.00364
0.54876226,77.7778
0.4779401,77.86941
0.3925534,82.423416
0.49832165,80.42697
0.49563947,79.5032
0.53071856,82.89203
0.59981966,87.3404
0.6029,85.769424
0.63088274,85.18187
0.7331991,85.698746
0.78634536,84.55769
0.88965803,86.34758
0.9999352,87.66141
1.0120493,91.2402
1.0454328,91.21966
1.1625277,91.441185
1.1898525,94.087585
1.3235269,96.98352
1.3198364,94.4012
1.524915,94.06207
1.4254645,97.89716
1.5819772,98.49291
1.580401,98.1862
1.5517092,99.88445
1.7530278,99.74468
1.6742679,104.34717
1.7137216,107.05781
1.6631962,100.12057
1.7758727,108.83888
1.6805123,103.60069
1.7945071,102.185425
1.7576634,106.04205
1.7943197,104.77682
1.7275193,104.75478
1.7744199,106.74593
1.7559296,107.53422
1.7239166,106.63962
1.748317,106.22475
1.7843068,104.43834
1.6242881,104.420715
1.6424233,105.349045
1.5766093,103.19707
1.6299789,106.27301
1.6015518,106.61596
1.5901356,110.26807
1.4027516,102.93408
1.5011346,106.14758
1.4589386,101.60613
1.3498076,103.35887
1.446465,103.60869
1.2412558,101.9478
1.3461854,104.11377
1.2935694,100.182526
1.2361921,97.84892
1.2768716,98.68026
1.2820837,97.389595
1.2136279,101.71436
1.1240368,97.92639
1.2171878,100.97986
1.2503519,96.334984
1.1588682,97.057884
1.2075412,94.94052
1.1619818,93.37784
1.210461,96.781395
1.1311325,92.47943
1.0480895,95.09729
1.0672929,93.89916
1.0335416,92.86598
0.9381587,90.11466
0.98345304,92.56759
1.0889832,90.22225
0.874522,91.53366
0.79945505,89.729546
0.87039214,88.298645
0.66696143,92.89047
0.68072814,90.118645
0.76593727,85.931725
0.6749997,88.95336
0.62171423,85.88847
0.59138286,83.97381
0.5315012,83.37676
0.66208315,82.89802
0.5544276,82.84686
0.6048569,83.23536
0.50799733,81.49704
0.6154095,80.33753
0.45832828,77.692894
0.44269457,79.604004
0.47199652,79.23023
0.41121358,79.94392
0.55149555,83.089905
0.4867444,79.65346
0.5145327,79.200935
0.40457118,76.99356
0.34320018,78.75737
0.3654364,82.26043
0.365469,77.41327
0.30390376,79.36748
0.26246345,78.61982
0.1653307,75.95587
0.10326949,80.65922
0.06785974,78.48017
0.1146261,79.30374
0.09624038,78.65043
0.12610705,78.011955
0.12591814,79.6919
0.068221085,81.44913
0.047878023,79.51816
0.07458382,80.05548
0.19409887,82.153824
0.16354421,83.57593
0.25028676,85.27387
0.29685062,84.1545
0.32771233,83.29511
0.44380915,83.22309
0.56870633,85.15397
0.50659114,88.588684
0.60800797,88.903984
0.6443574,89.56839
0.8196826,88.19795
0.8634568,94.483925
0.998647,95.81603
1.0857217,96.89007
1.0968606,94.25839
1.0997139,97.30642
1.1996297,98.575905
1.236612,99.25594
1.1560527,100.918625
1.3860621,100.04585
1.3269827,101.27312
1.3101289,102.960304
1.4389459,101.65164
1.3821452,104.51324
1.3428372,103.049225
1.4087658,106.37458
1.3967779,106.87472
1.3999838,106.22203
1.4879,108.19186
1.3711845,105.7744
1.3706193,105.71139
1.468892,107.91178
1.3584539,105.294975
1.3052137,109.9698
1.3670682,104.47803
1.2896019,107.07156
1.3086554,106.18649
1.2364522,106.05697
1.2242396,106.898964
1.3043386,102.21672
1.2197282,106.706215
1.0678923,106.20371
1.13919,102.8246
1.0781043,103.76594
1.0243745,102.546104
1.0174923,99.49699
1.0029322,103.3701
0.92006344,97.338165
1.068109,98.40003
0.95394284,97.28769
0.9594184,99.03803
0.9213799,99.80856
0.86220044,98.1539
0.93263465,99.80411
0.92675245,97.92534
0.8960683,93.52154
0.8732322,98.534164
0.86010295,95.856285
0.8216468,95.30408
0.8153755,94.37021
0.93298787,95.87911
0.75036377,89.871635
0.76829034,91.02177
0.72860885,90.60697
0.5852007,90.86913
0.6572781,92.852646
0.58924925,89.23354
0.62042713,91.43178
0.64107084,89.640274
0.44480154,88.55611
0.60551393,89.83265
0.3451914,87.68339
0.4409223,84.514694
0.42674828,87.1654
0.33274782,86.640175
0.36263388,86.01875
0.26796207,84.948395
0.35112685,84.60893
0.32108697,84.867874
0.3780412,80.416985
0.38752478,79.9552
0.35446644,79.481804
0.3280717,80.984856
0.3524371,80.87361
0.253907,80.6117
0.33801496,78.09869
0.30992678,78.39448
0.36611584,79.71148
0.27155805,77.66277
0.26829,78.93502
0.20331419,78.21377
0.11182071,77.32224
0.24031176,79.062904
0.120965034,79.34848
0.10423474,81.66335
0.06496754,78.446815
0.15197276,78.74812
-0.06806571,79.653824
-0.06501831,82.199104
-0.06944505,77.56709
-0.024389379,73.23889
-0.029834755,79.85254
0.021646498,79.55866
-0.10487556,78.990814
-0.004282125,79.71163
0.03943446,83.62304
0.16187787,84.24082
0.22569062,87.32825
0.3002633,88.92355
0.22857594,82.382614
0.3874473,86.69558
0.41043952,91.46453
0.56869745,89.30803
0.53464997,90.50004
0.6605027,89.5454
0.8267996,93.67752
0.8206446,88.78752
0.8963272,89.8513
1.0441053,91.37948
1.0670094,96.69328
1.1382208,96.84914
1.2585671,99.65248
1.2148855,96.25212
1.2784048,98.88979
1.3315213,100.793686
1.3127619,100.179825
1.3871223,101.45991
1.3470707,104.005745
1.3024372,102.69292
1.3662243,107.689476
1.4399266,105.023346
1.4460338,104.62507
1.4900557,105.15498
1.4365344,105.53876
1.463542,104.746376
1.4501783,107.74184
1.4089257,106.80545
1.4628713,109.06836
1.3432124,107.71996
1.4273757,107.058464
1.3994379,105.4777
1.3915536,108.55343
1.3160908,102.9858
1.3330468,102.33882
1.2935554,102.606094
1.2624296,103.502556
1.301732,104.656105
1.2020053,101.8198
1.2122127,102.690865
1.1179339,100.75715
1.1602564,100.975655
1.153103,103.5245
1.1292809,99.85693
1.0919659,102.254105
1.091261,103.01032
1.0303941,100.6034
1.0949073,94.462006
1.0847164,99.573296
0.9890316,96.2518
1.0388107,97.149124
0.9563815,95.622345
1.0482677,93.78389
1.0635847,96.345474
1.0574555,93.00256
0.99034333,88.53392
1.0489199,93.61735
0.9857865,91.40332
0.9404347,91.613106
0.90825856,88.11043
0.96110433,87.794876
0.83011615,90.72714
0.8680659,87.763
0.75234884,89.01359
0.71103936,88.77767
0.70462614,89.21654
0.67705715,88.92133
0.6912281,83.88829
0.66396046,83.02152
0.5926185,88.878494
0.5800869,83.07837
0.55466914,84.35052
0.56740624,83.96866
0.4423373,83.51425
0.59920007,82.505936
0.5812885,82.52272
0.5634784,82.27736
0.5791499,82.302025
0.5494252,76.71003
0.55083376,79.969574
0.6255933,77.08132
0.46809143,79.72907
0.5501091,76.09579
0.43582243,76.2656
0.6033715,76.92003
0.4934492,76.67413
0.44792512,77.97671
0.4756321,79.380775
0.38440323,77.53575
0.39405417,76.7623
0.3431482,78.62862
0.39125547,78.15312
0.22278757,79.18273
0.30727836,81.16147
0.2878051,81.570206
0.20449579,77.44317
0.22291109,76.78006
0.3301188,81.61729
0.4304872,83.70072
0.368909,82.05081
0.40556297,81.615234
0.37495384,83.887
0.59352535,83.05542
0.6136018,83.46915
0.5938173,86.3912
0.68081534,89.47064
0.9366342,90.48532
0.87735856,90.13282
0.9379812,92.11742
1.0156672,90.33985
1.0670409,90.09802
1.194969,91.03782
1.2659365,92.86323
1.3099928,96.609955
1.4172796,97.807625
1.4600259,97.61254
1.5696939,96.61096
1.5320257,103.16089
1.6302884,98.58377
1.6502733,98.18592
1.6847366,95.17924
1.8064455,102.70239
1.7849326,101.04626
1.6846796,103.13224
1.8314143,105.613914
1.8077377,104.83805
1.8090054,106.597015
1.814331,104.419815
1.9595612,106.396965
1.8082073,103.925125
1.8209411,105.04347
1.8617094,107.6868
1.6773149,103.13942
1.8909341,104.75945
1.7643514,105.53083
1.6848128,107.60411
1.8220359,103.64538
1.6853613,105.504105
1.695188,105.11432
1.7177991,104.47116
1.5918282,103.75446
1.5786256,104.202324
1.5582939,104.108345
1.5680416,104.10347
1.5713719,105.02149
1.4859066,102.25289
1.4755448,100.66362
1.5766573,100.90607
1.4652593,101.419304
1.478434,97.603874
1.3484297,100.593796
1.3810978,96.47027
1.393604,95.07637
1.4089898,96.110634
1.3766313,94.3584
1.4265447,93.37417
1.557513,96.64851
1.4227853,91.29325
1.4456886,96.557076
1.3484927,97.37738
1.2848614,91.189766
1.2866106,96.41497
1.309582,90.49547
1.2198846,87.76856
1.3474852,89.034935
1.2369851,93.229385
1.048735,89.85235
1.1792845,87.05125
1.1158407,87.24437
0.9589553,85.7302
1.0814723,89.88516
0.93953234,90.16994
0.97363025,85.02325
1.0094984,84.58995
1.0475003,83.49891
0.91208917,84.05174
0.9734836,83.643936
0.7973167,85.263565
0.9313017,77.680435
0.8189732,83.70995
0.79610586,85.51811
0.8138904,81.970726
0.8293192,80.72702
0.9503471,77.66562
0.9017686,78.19437
0.8913874,80.50853
0.889408,79.69148
0.8792808,77.7599
0.8249912,79.55507
0.7494157,78.69882
0.6667768,76.346245
0.7562365,77.47754
0.703755,77.11332
0.7035262,75.77324
0.7613123,83.48293
0.609078,78.34643
0.60280794,79.72222
0.50809026,78.04825
0.58749354,78.4881
0.6071803,83.66041
0.4791575,81.07848
0.49584186,83.52945
0.5083519,81.89473
0.50369614,82.498764
0.62371415,84.57007
0.6775335,82.613556
0.7743969,84.58651
0.81953645,78.5867
0.90712965,86.14657
0.8760587,86.7743
0.99228257,92.17322
1.0838531,87.25798
1.1690533,90.64335
1.1848563,90.55696
1.366719,91.017365
1.4908837,88.33754
1.5424188,92.889366
1.5873388,96.192505
1.6714816,94.93038
1.6273831,97.9323
1.783863,95.26374
1.764567,99.33894
1.9194984,100.50875
1.9060982,103.901146
1.8901955,99.95918
1.8645157,102.53923
1.9072012,100.988884
1.9999726,104.47261
2.0582402,106.74308
1.9748508,108.326645
2.0155113,104.2574
1.9487692,106.06389
1.9846882,105.489586
1.9397105,107.1197
1.9327102,109.379456
1.9184173,107.67956
1.9965004,106.7429
1.9240837,107.12288
1.8414683,107.77279
1.8273885,105.96772
1.7107495,103.50334
1.7551026,104.29515
1.7959292,105.6501
1.7001313,104.62128
1.7006539,103.7312
1.7018797,101.57245
1.7758017,105.09298
1.6664613,101.49126
1.6677169,101.07268
1.5879171,101.86507
1.581204,102.88661
1.6135206,101.48653
1.4974569,99.01152
1.5885019,99.387985
1.4717084,97.809006
1.5708497,97.70339
1.5321326,96.71573
1.4311403,97.94646
1.4187924,98.20911
1.476475,98.88785
1.4450403,95.819756
1.470278,96.09673
1.2807715,93.932884
1.3491273,92.38937
1.3353705,93.17245
1.350511,90.977005
1.2911631,94.70397
1.2518841,89.60629
1.0362585,91.69364
1.2651099,88.75139
1.0854338,89.761185
1.1217456,87.03367
1.016493,90.14623
1.0080291,89.696754
0.9401064,89.41616
0.87516415,88.54548
0.90088236,86.79485
0.8956653,85.4248
0.80610156,85.71409
0.78774214,86.97096
0.9291447,85.442444
0.81690156,84.30685
0.7373889,84.37486
0.8337961,81.486786
0.78125024,83.521164
0.73759335,80.17535
0.8533338,82.427055
0.7412261,78.532364
0.87820435,81.78117
0.7610208,78.476974
0.6639652,76.68032
0.763181,76.527725
0.88563144,80.43864
0.73138565,77.099976
0.5524989,76.5613
0.61294144,76.76665
0.5292574,77.996544
0.4595695,80.80247
0.5820779,78.56564
0.43237403,75.682365
0.45178682,78.361496
0.3890745,79.40723
0.4755865,79.4098
0.3402976,79.28389
0.3660606,80.49045
0.27502993,79.93168
0.35651022,80.66295
0.51102525,79.06117
0.3869178,84.28182
0.3812094,84.2158
0.51595116,79.999756
0.6270679,87.71465
0.7706868,81.83911
0.7649558,84.98783
0.85380894,86.69521
0.8498838,91.93053
0.92638695,91.73237
1.0695629,90.402824
1.1409684,92.40497
1.1565545,93.001076
1.3202105,92.78079
1.2845699,93.83104
1.3858683,96.025154
1.4662796,96.78122
1.4310262,95.069695
1.4436741,100.173836
1.5182668,101.42261
1.5062531,98.87406
1.6913173,99.85976
1.6783929,101.8499
1.7378887,100.07919
1.6873178,104.44619
1.6350974,102.876785
1.671423,101.05826
1.6993585,104.55853
1.6561215,108.36593
1.6997404,108.8881
1.6281679,106.56526
1.7009474,103.86134
1.6308612,106.184715
1.6173122,104.96921
1.6678816,103.10998
1.6352284,105.93711
1.5227118,104.92968
1.6203121,108.25669
1.6038392,107.65633
1.357872,105.76546
1.5115831,102.827415
1.4268912,101.08639
1.4777508,104.719826
1.3948224,99.50042
1.3378335,104.23848
1.3510948,103.10993
1.1650511,101.63668
1.28099,100.2615
1.0438787,100.19051
1.1172246,99.69929
1.2205653,101.10056
1.1331164,100.003914
1.134702,97.09067
1.1706636,98.81719
1.0609171,95.68528
1.1548758,94.6138
1.1344675,95.71268
1.1134324,96.52894
1.0203062,96.7362
0.95196265,92.39938
0.8433877,93.53086
0.9594396,90.730484
1.0082214,94.80965
1.0481083,91.55812
0.91649437,93.64045
0.865034,89.436485
0.7749017,88.46308
0.8606037,91.445854
0.6828073,90.52193
0.8104342,92.04692
0.7109876,91.85981
0.6954729,88.34656
0.51514846,86.57677
0.59342647,85.23503
0.4941912,87.60485
0.43969312,82.67289
0.59471625,85.22329
0.43577972,81.61079
0.45767877,84.26321
0.42477238,85.323166
0.4672518,85.16864
0.5122683,80.34991
0.47653276,82.73339
0.4339916,81.47386
0.48996606,77.70784
0.54655236,81.8479
0.38639924,79.73798
0.45736092,80.322655
0.34211624,80.63714
0.41192928,76.06241
0.22786747,76.51564
0.29131493,78.98768
0.30481637,76.37886
0.2761367,78.48114
0.1490249,77.3178
0.21976228,80.425354
0.12446241,76.86116
0.13053393,77.817924
-0.015820056,79.18213
0.08582323,79.8121
0.05031248,81.690834
0.016439222,80.91284
0.04290084,82.97133
0.08840256,82.516235
0.06793717,80.09208
0.17309408,79.82961
0.08365873,82.22897
0.20546491,85.22607
0.33928555,88.073715
0.30431122,88.5073
0.35904792,83.93062
0.5165951,86.36425
0.5514698,88.85069
0.6555576,91.87121
0.64351535,92.38769
0.73000306,89.862625
0.8281489,92.81527
0.87861323,95.14246
0.9843499,93.36487
1.07829,93.000824
1.1299223,96.382706
1.2588769,96.372665
1.1830981,102.606255
1.1714274,100.267586
1.2196835,99.2408
1.3522642,103.31412
1.4172089,101.51982
1.38277,104.282036
1.2663999,99.64195
1.3429362,103.34574
1.4526707,106.56891
1.509654,100.833176
1.3601209,105.168076
1.4855217,105.66932
1.3689679,108.28299
1.3348492,103.13771
1.3963147,104.19419
1.3508476,106.20734
1.3825514,109.53498
1.254172,106.31327
1.3117133,105.4466
1.2719133,107.42623
1.1940718,104.49048
1.1554353,105.6291
1.1380144,105.11946
1.1794429,102.21343
1.0584139,102.786896
1.0636028,102.35676
0.9940095,102.75159
1.1098018,102.518074
1.1239231,101.408936
1.0462948,98.6498
1.0951881,94.61753
0.9330193,100.95897
0.9136987,101.022
1.076836,99.341576
0.9771181,101.12139
0.8932703,98.122444
0.9532865,94.65808
0.7752097,95.84156
1.0191805,97.55595
0.9885663,95.654854
0.86420375,95.79246
0.8025348,96.960724
0.8850695,89.422455
0.84837645,89.9325
0.72809833,93.55966
0.7970427,93.5523
0.7838856,94.10527
0.6980699,87.08587
0.684774,90.59434
0.6416203,90.269455
0.5733751,95.26355
0.54100204,89.34966
0.48234156,87.79815
0.49136055,90.06382
0.4748175,89.031906
0.40175205,83.58616
0.43112147,85.92928
0.47404048,83.171
0.33744225,86.65134
0.39946812,83.2228
0.35588384,83.23921
0.33948863,82.75297
0.3508243,83.783966
0.3585639,78.35343
0.34952027,79.731255
0.34398964,79.50305
0.39639175,81.22829
0.3205876,78.89142
0.2276024,76.930534
0.37967563,80.7673
0.2945969,78.73534
0.26139086,79.405525
0.27896735,79.567474
0.22558713,78.717125
0.26790324,75.09645
0.2344032,75.22981
0.18037412,77.480804
0.07616026,77.61604
0.091179,75.74158
0.053451285,75.06852
0.041090515,80.23047
-0.050074775,78.04591
-0.0159686,83.12688
-0.02572445,82.09377
0.044870976,77.2087
0.03594483,82.37048
0.008613823,82.412766
0.060407806,85.34243
0.13552764,82.031
0.12436427,84.42302
0.30113825,82.514206
0.2956899,85.6517
0.4155377,87.55224
0.50772953,86.314545
0.5688053,89.25851
0.60947764,88.29864
0.69131905,93.61387
0.7842129,89.14221
0.8301335,90.83686
0.9221855,92.26347
1.0398564,93.50562
1.1816695,94.71935
1.0247953,99.53445
1.2621251,100.27657
1.3117194,97.11037
1.2925341,95.33424
1.364425,99.635925
1.4386241,97.957756
1.4250191,101.97622
1.4589001,102.59641
1.5048202,105.08393
1.4100213,102.52716
1.5217916,105.315956
1.4841928,105.84669
1.5747377,102.916405
1.4928297,108.33578
1.4359207,104.74708
1.5703963,105.36266
1.4116855,107.54202
1.5469403,104.3383
1.530039,103.80591
1.5001688,107.36303
1.5243821,105.81174
1.3890252,102.416916
1.3934964,106.407135
1.3999907,104.359085
1.2661581,103.97335
1.4595509,102.45787
1.3191153,107.53379
1.3209671,103.29762
1.2626958,99.60958
1.2241602,100.58649
1.2817725,98.26873
1.2698933,96.76958
1.1397505,102.88964
1.2509882,105.52585
1.1844037,99.05678
1.1673203,97.11486
1.1235723,98.631355
1.0414971,99.50827
1.1067218,95.53093
1.1071752,98.32779
1.1527778,98.202736
1.1102027,98.97427
1.1640455,95.661026
1.0204666,92.32771
1.1099874,94.43937
1.1758187,93.904785
1.1293095,92.482445
1.0919417,89.23014
0.9695599,93.68783
1.0411575,88.69215
0.875653,89.527145
0.8305302,94.36924
0.7806623,89.36134
0.8399375,87.81872
0.8099097,90.207886
0.79175156,89.423615
0.7918946,87.858925
0.7656024,87.10548
0.7543991,84.738144
0.7554565,85.45978
0.6838989,84.81278
0.70521146,81.80976
0.6250359,84.59613
0.7508474,82.649704
0.6496089,82.50223
0.6275103,79.51164
0.7046671,80.902626
0.61640924,83.019905
0.617739,73.70299
0.60620856,80.560585
0.7314119,80.05562
0.67912585,75.86685
0.6512299,80.29825
0.63035,79.560295
0.57780194,80.96013
0.596387,78.95663
0.6276674,77.439354
0.45429942,78.51361
0.4019884,77.44383
0.44896716,77.58609
0.42313138,79.592445
0.44405606,77.79623
0.41253063,80.39137
0.4228455,79.43901
0.39689982,79.31594
0.301111,81.797676
0.45085087,80.54135
0.2950248,78.52306
0.45350292,82.62442
0.46234864,86.23132
0.37919396,83.794785
0.39748222,79.92977
0.5331091,82.44881
0.6935653,85.6312
0.73698217,89.12671
0.73889893,89.381004
0.95862526,85.28123
1.0459136,88.86242
1.1841621,90.36514
1.174026,94.07185
1.247802,91.17204
1.3563042,89.904495
1.3866967,95.71748
1.4161514,95.85678
1.5123411,92.98551
1.5076971,96.34388
1.5272592,98.79772
1.6391616,99.45075
1.6797827,100.4977
1.7699586,102.46314
1.7506826,100.658005
1.7821758,104.02802
1.8635728,104.87878
1.9103476,103.92937
1.8746936,101.62585
1.9020942,107.15488
1.8214092,105.091705
1.8786066,105.64565
1.8447809,106.72899
1.9263581,108.68936
1.759439,106.00057
1.8368587,106.7802
1.7028481,104.33258
1.8218036,106.866394
1.8488529,106.01235
1.7580135,110.04345
1.7922467,107.804825
1.6822839,102.57809
1.7626095,107.018524
1.7248956,105.56012
1.6952482,103.30419
1.7438883,101.17126
1.5283285,101.08371
1.5271508,103.3644
1.592796,101.90211
1.5537022,102.41834
1.5183384,95.38968
1.4871857,100.52352
1.5734478,102.16564
1.53711,97.83213
1.4485798,99.260185
1.3232224,96.76901
1.3796489,97.68291
1.4637427,95.02947
1.4580389,95.20966
1.4340715,96.944374
1.4155984,96.68928
1.305722,99.036514
1.4106846,96.892
1.4048079,99.07504
1.3866204,91.01943
1.2990981,93.29117
1.4302124,91.25959
1.2497448,93.4393
1.3159796,93.24093
1.3004351,89.49043
1.172972,88.06796
1.1991225,89.177864
1.2155617,88.62852
1.1226076,88.499725
1.1444309,91.76316
1.0990114,85.29061
0.9946721,80.95942
1.0185692,85.95419
0.9124305,85.75264
1.0127771,82.20656
0.82828796,84.40348
0.88619804,85.19502
0.8461208,84.37289
0.851467,79.57658
0.9333306,81.53869
