ppg,abp
1.0779119,94.05809
1.1129185,97.90298
1.2061124,101.869484
1.3164332,97.554405
1.3237967,101.81571
1.3304564,100.68873
1.4136568,101.23067
1.5377086,104.55546
1.4923671,110.52156
1.6283053,106.852905
1.5540667,106.98863
1.6189014,108.04794
1.6164608,109.36571
1.6512355,111.58005
1.6599067,109.9711
1.7352737,115.058655
1.7248479,114.37422
1.74015,116.83346
1.7732736,114.12357
1.8165109,114.20853
1.7672657,113.24764
1.7055038,115.179726
1.6816642,116.46418
1.7822819,117.02645
1.6290905,118.50406
1.6787305,114.71225
1.6637334,114.69344
1.6673269,116.89561
1.5725971,112.9996
1.662492,116.24755
1.707496,114.49738
1.5546546,113.799515
1.5915203,112.86871
1.5703132,112.848
1.4259789,115.61308
1.4343842,112.24723
1.4519763,111.70507
1.5004522,109.75106
1.4794984,110.70822
1.4972366,109.90683
1.449202,107.25637
1.3709537,107.17518
1.4264787,105.94441
1.3763407,105.773865
1.360799,105.5806
1.4010416,105.765305
1.328437,104.82785
1.4121584,102.944496
1.3826784,101.892914
1.3274472,102.226105
1.2622108,98.37906
1.3210207,97.93578
1.3379896,97.55915
1.3490798,97.692726
1.2858427,96.3079
1.2662851,99.09835
1.2275693,93.60374
1.1781886,93.75086
1.1422752,92.93773
1.1794436,92.845726
1.1310122,88.2435
0.97272086,91.402855
0.98200786,90.37094
1.0547807,88.54521
1.0085294,88.69558
0.99194324,85.32319
0.9521315,87.34216
0.9509769,83.129456
0.9068191,83.608635
0.86601794,82.953606
0.9189102,81.75247
0.9063168,83.625885
0.8904787,79.926735
0.9176878,79.626564
0.8808253,79.498566
0.8132236,78.20158
0.94306993,78.320015
0.8450405,77.68261
0.9159407,75.64784
0.8592475,77.252914
0.86396366,75.40354
0.9015374,72.81122
0.8289143,72.650406
0.82816464,73.08294
0.8220187,72.3524
0.83066434,75.23464
0.68480223,70.52236
0.72352123,71.39608
0.6891135,75.427605
0.63346225,72.12963
0.6497064,75.25135
0.5688165,74.8853
0.5587254,70.84689
0.59894377,72.253
0.5089199,72.48357
0.5450112,75.5397
0.51749915,76.65567
0.439361,78.03094
0.5267894,77.55868
0.58338404,78.57738
0.63639283,77.5393
0.63625604,81.20312
0.6890668,85.048584
0.75082326,82.57568
0.7561938,82.17057
0.85925144,83.74495
0.89321077,84.95913
0.9378542,86.06527
1.1204768,90.95058
1.0980197,90.88691
1.164281,93.08067
1.3523747,94.48704
1.3048531,96.13061
1.3794832,96.86725
1.5173397,99.866394
1.5639027,99.77182
1.5623422,102.60452
1.6643369,103.42028
1.7271376,103.47592
1.7395556,106.269295
1.8137616,107.53955
1.8262889,105.520706
1.8330735,109.751274
1.8976463,109.452034
2.0380068,113.753624
1.9052397,113.38825
1.9981786,114.078926
1.9516146,112.623726
1.9013326,112.995
2.01159,114.98422
1.9644588,114.66456
1.9150293,114.46795
2.0437384,116.8544
1.8920898,116.86596
1.9097624,116.3317
1.9712318,116.91754
1.9392526,116.8924
1.9503335,117.56211
1.944732,116.97601
1.8388517,116.92436
1.8284199,116.669334
1.8255894,115.11016
1.7650769,118.17968
1.7046876,117.726715
1.7871879,114.637985
1.6641493,113.42576
1.7201993,113.35193
1.5906448,111.043465
1.6870948,111.18493
1.6294168,111.96498
1.6091136,109.48587
1.550646,107.57455
1.5543339,108.730255
1.5398993,110.60358
1.4707735,106.509674
1.5521989,106.08477
1.4791617,103.720695
1.3791076,103.959076
1.4211651,103.889275
1.5318881,99.309845
1.4287664,102.46903
1.5065411,102.11182
1.4611244,99.18638
1.4132226,101.261566
1.3725231,98.612755
1.3538281,99.564735
1.4928328,97.82515
1.3032213,95.236176
1.2290177,95.95521
1.1986705,93.59615
1.2364856,93.60969
1.2208378,93.15021
1.204808,90.61572
1.1476178,91.67664
1.1382755,89.0527
0.9916652,89.38926
1.0207951,88.20366
1.0284414,87.360565
0.89856464,87.72384
0.94018006,86.84135
0.9111901,82.86909
0.9089212,86.06903
0.9668619,84.87766
0.84389716,80.26834
0.85991424,82.08521
0.92023605,81.96553
0.85062134,79.38312
0.8247469,78.468254
0.86366504,77.095955
0.91923887,76.675476
0.8107729,77.20212
0.81603545,76.43727
0.877042,76.68596
0.7714026,74.61782
0.8109508,74.23338
0.8231351,75.31993
0.7092864,74.225174
0.78389597,74.92091
0.63361603,71.63242
0.62183404,71.99154
0.650079,72.788956
0.561313,74.3441
0.525835,72.87437
0.5169543,75.80326
0.55765885,73.55792
0.48205766,69.47797
0.46227178,73.32132
0.34719115,74.59715
0.50556314,74.83101
0.34175563,75.723816
0.38818878,76.959
0.3964936,76.257034
0.4855672,79.89051
0.5006269,80.16781
0.48168612,82.40641
0.4708724,81.971436
0.52772653,82.52312
0.6843695,86.13259
0.7338014,86.16772
0.84425926,87.79409
0.8638115,89.41473
0.89133525,91.56196
1.0010306,89.39393
1.0508418,93.82862
1.1553488,92.38337
1.230916,95.721695
1.2883598,97.55905
1.4058198,100.954796
1.3322685,100.539085
1.4940602,101.313095
1.6113347,101.56179
1.508276,103.52909
1.5616072,109.0453
1.5840577,107.091835
1.5559981,108.43918
1.6348451,111.34736
1.7213196,110.8478
1.6480376,113.27324
1.7427886,112.26258
1.7111166,113.26089
1.681539,113.418236
1.6512485,115.32117
1.8146678,116.76102
1.6953748,117.83763
1.7072655,115.33678
1.6545937,116.287636
1.7701524,115.63334
1.6862748,115.85752
1.6678747,118.187805
1.6044863,116.45065
1.5404847,116.733574
1.5839322,117.75836
1.5058463,114.94886
1.486813,114.68726
1.4741371,115.82936
1.436241,117.121704
1.4203359,115.55661
1.3316386,111.38275
1.3898491,113.618675
1.3016293,111.283516
1.2793226,113.10262
1.3143609,112.3503
1.282266,107.43536
1.1992981,107.57267
1.2246162,109.47358
1.1641043,107.36255
1.1409404,106.06105
1.1845899,105.45041
1.1665144,105.02505
1.1555201,102.3843
1.0244114,104.01926
1.1578411,103.289116
1.0867991,103.9352
1.1599422,99.29411
1.0712565,101.70032
1.0505702,99.11929
1.0777184,99.35055
1.019742,98.32529
1.0124115,97.33224
1.0438778,94.1975
0.8916601,94.12351
0.9196141,95.106674
0.93304056,94.21366
0.7723043,92.03005
0.85838485,91.21572
0.733543,89.47728
0.6981135,89.78802
0.62840253,91.856316
0.5598975,88.23912
0.6781657,87.15757
0.5726017,85.49367
0.51035553,88.60521
0.5471985,83.14132
0.58267194,82.54688
0.54610616,84.088196
0.43649873,81.08931
0.4371599,84.37753
0.46144515,84.10924
0.49383497,77.825966
0.4466825,78.86778
0.46308577,77.842926
0.44784188,78.11409
0.45655614,77.06844
0.4829727,78.034615
0.4230246,74.40773
0.41175762,74.41306
0.32275614,78.40246
0.41464803,73.97169
0.26050267,72.753914
0.34620953,73.94772
0.25116882,72.39036
0.2136245,73.16744
0.23035765,71.24749
0.18683177,74.02136
0.123954006,73.10146
0.11567082,72.15914
0.12106404,72.01581
0.0020707326,74.94281
0.021489011,72.46069
0.008835039,72.02219
0.047091857,78.67057
-0.05445868,75.33548
0.03429814,75.77551
-0.046822153,80.07014
0.100856856,78.23764
0.0759104,81.90553
0.13316931,82.181435
0.21089554,81.79785
0.26924214,86.28218
0.27308187,84.11866
0.3925202,85.55918
0.41947725,85.67452
0.41755876,87.108864
0.56236035,91.082664
0.58223474,91.2924
0.7532863,93.22145
0.78225344,94.87459
0.875934,96.862274
0.9192298,98.65327
0.967757,98.718834
1.0400836,104.63498
1.0722785,102.30422
1.1161168,106.60042
1.1475285,106.38094
1.1544359,107.90414
1.2828063,106.81187
1.2496835,110.6691
1.3433553,107.91572
1.2854497,110.58668
1.3654656,114.557816
1.4500952,112.72773
1.3925084,114.924835
1.4032365,114.94406
1.4500502,115.25121
1.3528816,114.66143
1.3737674,114.88096
1.414938,117.13315
1.297588,118.42498
1.2839907,117.95856
1.4163355,115.93317
1.319475,116.15181
1.264541,117.87028
1.3239698,115.86864
1.2933815,117.58384
1.297018,115.74703
1.1730917,114.239235
1.1364846,115.54027
1.2082704,113.998024
1.1326061,117.09661
1.0582583,115.30516
1.1136144,112.9235
1.0942411,114.461334
0.92065233,112.84633
1.0126729,108.797134
1.0984278,110.66915
0.96105254,109.248856
0.9574038,108.17944
0.9059723,107.74183
0.95794326,106.97783
0.86098963,106.734604
0.87811,105.740456
0.94743115,103.20637
0.8113388,103.61558
0.856629,100.81679
0.8095101,102.8173
0.84542686,101.45312
0.9110902,98.286026
0.83119017,97.18136
0.7615338,98.68347
0.9398602,98.42492
0.82218313,96.08387
0.8961629,95.74145
0.80914974,92.30793
0.6883378,95.16121
0.6414805,91.1456
0.6536017,93.59953
0.6028936,93.37751
0.6040081,87.79882
0.62408775,91.05369
0.5361141,88.79832
0.5158264,89.37095
0.43835968,87.39721
0.4060061,88.95557
0.41351575,85.06067
0.42654425,85.50604
0.37422797,84.04666
0.39120933,83.32664
0.37949872,79.17111
0.37595117,82.63178
0.3372899,80.07165
0.40007332,78.43464
0.34258902,76.19351
0.35862193,79.80903
0.31669044,77.5989
0.36406597,75.341675
0.38692096,75.06333
0.34880832,75.71968
0.38669804,77.396255
0.3025581,73.38084
0.25496623,73.09816
0.29292265,73.11462
0.28370595,72.973946
0.22698545,74.0778
0.21292777,72.89958
0.12835273,72.47518
0.15072422,72.803955
0.11294766,69.639786
0.14356999,74.757545
-0.0028760415,73.18257
0.054830004,74.34632
0.002973391,73.61729
0.09130026,73.954544
0.035027456,78.33925
0.07258413,74.86231
0.019523066,77.24453
0.031685278,76.598
0.018656889,76.80057
0.08640841,80.635284
0.18956842,81.85909
0.22250101,85.09674
0.25963148,82.190575
0.32713506,84.45644
0.3710325,88.05402
0.5340382,88.18988
0.4908354,91.807594
0.59459996,90.20182
0.7584688,90.16692
0.85784876,92.88081
0.88919264,94.09395
1.0135734,97.130165
1.0330347,98.68281
1.0957115,99.63757
1.1558034,103.34635
1.1822953,103.345116
1.2935283,104.69758
1.2705323,104.53493
1.3620908,108.85513
1.347021,108.377846
1.3176739,108.107025
1.3669815,111.304535
1.4475472,109.60982
1.4522762,112.73578
1.5473073,115.62158
1.4434472,112.579605
1.5259167,115.32933
1.4800643,118.01931
1.6336877,115.532524
1.5298891,114.98576
1.5999707,117.84598
1.5105125,117.72769
1.5553273,116.36306
1.5147594,116.51581
1.554166,115.251854
1.5509871,116.54721
1.4678109,118.22816
1.6007794,116.76886
1.4285505,115.78954
1.3689544,114.483604
1.441718,114.224396
1.4218901,115.84688
1.4060954,113.347084
1.3560265,113.99003
1.3037565,115.2311
1.281117,110.074066
1.2738894,111.65984
1.174795,109.40552
1.2865872,112.230064
1.1874344,108.68339
1.2006217,106.90959
1.1344008,107.55394
1.1236317,106.94824
1.2539912,105.42002
1.2968371,106.28013
1.177415,102.965675
1.1571773,100.41664
1.221016,103.62624
1.1504354,100.899155
1.1532148,98.089226
1.232997,100.03058
1.0639756,97.340614
1.1283911,98.393776
1.0398916,98.076485
1.0437694,94.187
1.1458907,97.050255
1.0399592,95.47709
1.0876433,91.19901
1.0914567,94.951706
0.92555046,93.37368
0.9464872,90.46946
0.979229,92.44265
0.8630489,89.68604
0.8089156,87.82489
0.88395387,86.69838
0.77286303,89.50082
0.80515903,85.28521
0.7591109,86.66933
0.75154376,83.92642
0.79260904,84.28228
0.6994328,82.61385
0.6941645,82.05306
0.70080286,80.00077
0.6307884,82.52865
0.6562451,79.49488
0.694176,78.95031
0.6884642,78.337204
0.6560365,78.259926
0.7343272,79.6146
0.7275095,76.75151
0.7427878,76.69829
0.68785816,74.29924
0.7200084,74.073235
0.62147766,75.13257
0.7280931,74.51508
0.5939665,71.807365
0.6117581,73.58623
0.6658512,71.440384
0.47052133,70.35777
0.55256027,72.30526
0.45646286,71.04456
0.48000154,73.144615
0.4188105,70.57632
0.34261656,74.87036
0.43257836,74.43123
0.4291874,74.047295
0.4258346,74.132935
0.4750736,77.873566
0.3554564,74.28723
0.47582734,79.75666
0.46408814,76.5222
0.45697504,81.31874
0.57652605,79.91085
0.63250476,83.40246
0.71957153,85.35561
0.7973718,85.12663
0.7527348,85.00897
0.8884311,87.47729
0.9713903,90.37978
1.0113784,89.559456
1.255289,93.409706
1.2325357,95.654434
1.2705138,96.73218
1.3396327,96.53367
1.4051329,98.14426
1.4722608,100.95038
1.5605329,101.320595
1.6766768,103.480865
1.7038628,104.26428
1.7213085,104.79739
1.7439247,103.75586
1.7235696,106.82086
1.7533175,108.40034
2.033981,110.78606
1.8157935,109.882645
1.9647281,114.20903
1.8968768,114.400314
1.8782513,114.926956
1.922955,114.5112
1.9988331,114.48994
1.943004,115.74932
1.9429445,117.368805
1.943873,114.88046
1.8658884,115.33829
1.9472507,114.895905
1.8629212,115.01218
1.8761,117.94777
1.9021957,116.30059
1.7946416,114.34424
1.8606312,114.92484
1.8079684,114.563675
1.7088171,118.916595
1.7369074,115.88503
1.7271957,114.45723
1.6514739,114.33062
1.6203619,112.56954
1.6727892,112.603226
1.6660525,113.99633
1.6369276,110.95221
1.583156,110.9293
1.5809605,112.90919
1.5785737,109.753586
1.5971199,108.61911
1.4614892,108.955025
1.5983744,108.093636
1.487907,106.1686
1.5106746,103.909904
1.4886043,103.29952
1.4749721,102.47038
1.5755774,102.46584
1.5074953,100.68215
1.4445013,102.24277
1.4417561,99.8396
1.3484694,98.92118
1.4469562,97.39082
1.4237729,96.70592
1.3430405,100.42734
1.3564683,98.00069
1.2663535,95.61795
1.2402023,92.559784
1.2297661,92.67876
1.237908,94.93951
1.129139,94.504265
1.0864947,92.30128
1.1509116,91.453835
1.1389233,86.19819
0.986792,87.675354
1.1068195,86.06369
1.0284171,86.089455
0.9971667,89.287575
1.1103328,83.79694
0.9616475,83.59683
0.9387747,82.603935
0.8643632,82.8714
0.96845186,81.95405
0.95674294,80.4422
0.8900094,78.81522
0.95047265,79.813324
0.9635616,79.43721
0.96601814,78.25313
0.96748024,76.11481
0.89040285,76.08103
0.9073383,73.007835
0.9198601,74.53352
0.8445948,72.61668
0.8090651,74.26097
0.8067663,75.40275
0.81492823,72.58183
0.79456145,72.63788
0.7171122,74.18628
0.7399272,73.154495
0.6336829,75.68103
0.6220344,72.73826
0.62493956,71.87681
0.54336834,74.282776
0.6250742,72.28936
0.53518,73.00138
0.47586796,74.67149
0.5322543,76.32894
0.51376224,77.54068
0.50013304,75.074425
0.5836035,78.304085
0.59422374,80.20987
0.61798453,80.21789
0.7097571,83.600685
0.6839082,82.48177
0.8074026,82.22364
0.83546203,87.290474
0.88721085,86.26146
0.94856596,88.56081
1.0995106,91.77662
1.1021452,87.51205
1.1226443,92.20238
1.2217053,92.92427
1.4489135,96.167336
1.3901584,96.75314
1.4455471,96.84021
1.5098239,101.12029
1.6003984,100.147415
1.5878984,103.454185
1.6190232,103.81197
1.668621,106.03463
1.8199791,106.42651
1.8120703,109.75814
1.7374572,108.20359
1.7796112,110.920746
1.8287141,113.50861
1.8700726,114.48301
1.9134007,114.45088
1.8598423,113.85495
1.8668144,113.61396
1.8945298,115.49464
1.8410001,114.937325
1.707559,117.70575
1.8339468,114.615166
1.8769331,118.41321
1.8442478,115.290665
1.736406,118.772606
1.754346,116.80396
1.763969,117.83405
1.8096102,116.73148
1.6641421,117.961464
1.7831827,113.076324
1.722213,112.88358
1.6850837,117.60754
1.6632773,116.04898
1.6040394,113.93623
1.5459511,112.5584
1.5139369,109.387825
1.4957726,113.81804
1.5249581,109.67376
1.5092198,109.57087
1.4132313,109.111984
1.4806471,107.6887
1.4278005,107.64467
1.4361315,107.35112
1.429367,106.64681
1.3418981,105.25864
1.3067544,104.32943
1.3837872,103.90312
1.4089996,100.29997
1.3313944,100.82957
1.2652241,101.275246
1.1996421,103.90561
1.3049586,101.13058
1.2314519,99.1046
1.2076784,97.44206
1.1816884,95.844086
1.2134895,98.306114
1.175587,96.10468
1.0808706,93.60123
1.0897607,93.24505
1.0464866,92.0607
1.0143074,91.94749
0.96900123,91.7841
0.89477307,90.75247
0.9071175,89.50625
0.85884625,89.909744
0.7804008,90.2768
0.7349983,88.15503
0.805879,86.296265
0.7244061,86.189514
0.6414438,84.44369
0.6050211,85.20589
0.7044367,81.33566
0.68026114,83.5127
0.6287129,83.44259
0.67624307,80.59839
0.57861227,79.734665
0.67134386,78.88473
0.64712703,79.19763
0.62863815,77.89045
0.58046675,78.46491
0.54379463,76.98764
0.60188967,77.62866
0.52400273,74.91765
0.5060599,75.33453
0.5383924,72.577225
0.5605195,74.30556
0.48694295,73.024765
0.47689807,71.6984
0.38871422,74.28949
0.38866574,69.90129
0.40248263,70.954384
0.37225008,71.2576
0.2639021,74.252625
0.2453415,75.596634
0.24079762,71.194084
0.110765815,71.58086
0.14394504,75.32823
0.11537429,74.859604
0.1414655,78.00797
0.22146791,76.29494
0.21608812,78.54296
0.34091714,79.93311
0.19198999,76.50837
0.26413426,81.195435
0.36353096,82.7236
0.35792908,85.91218
0.43223536,86.25764
0.51148605,85.62202
0.5793812,90.97273
0.5918868,88.63108
0.7543042,90.683136
0.8292639,90.49813
0.9608339,92.77265
0.93649983,95.6733
0.98496443,97.76465
1.122644,95.36005
1.1433965,99.37717
1.2344192,98.19564
1.2004901,104.00637
1.2776026,102.58315
1.2874689,105.4511
1.3467956,108.3389
1.4398981,109.51778
1.4947643,109.00968
1.4505134,108.921616
1.4717307,111.779274
1.3691655,112.990265
1.4713675,115.38544
1.45627,114.01273
1.5442468,113.39271
1.4210924,115.24731
1.4640385,116.56575
1.5207388,114.477066
1.625212,115.14854
1.537446,115.55473
1.4130584,116.87113
1.4634486,115.784294
1.4278033,116.92413
1.4039755,116.32314
1.3166072,116.25294
1.3730961,116.2718
1.374726,114.37257
1.2542495,116.38892
1.3322815,117.46587
1.3174942,113.350815
1.213713,111.4614
1.1627256,113.9674
1.138552,114.524734
1.1694206,110.387886
1.1430502,110.64751
1.060505,110.163345
1.1495739,109.845505
1.1571091,110.26166
1.0190946,109.16177
1.010175,108.4096
0.8775351,106.48164
0.9009974,104.071686
0.94273823,106.013374
1.0116358,103.41092
0.9723144,104.855995
0.97496027,101.36499
0.9039122,99.905075
0.8754324,100.65789
0.8381142,97.22666
0.918015,98.65243
0.8681165,97.355576
0.8957799,97.30536
0.7238275,99.16227
0.79209894,96.53488
0.8689659,95.162415
0.65043914,93.82958
0.6450052,93.089096
0.67370814,90.31595
0.58627045,94.17386
0.5024999,92.104614
0.50745463,89.24443
0.59786725,89.08962
0.37750313,87.96605
0.47368875,87.87085
0.4846613,88.627495
0.42908677,87.79465
0.38675588,85.74361
0.3740535,83.82761
0.30488887,82.34614
0.44038978,80.72172
0.3566955,82.53791
0.35828668,80.565285
0.30675647,81.52126
0.33729807,75.68936
0.31916735,78.02164
0.38552,74.82355
0.30323145,76.69825
0.31887087,76.1425
0.293211,77.06162
0.315929,76.67348
0.26439464,74.06921
0.24437188,75.45885
0.22362933,73.86289
0.1978805,71.40965
0.11830156,73.17246
0.14061557,73.6965
0.097426735,71.31779
0.02128912,73.206154
0.09440005,73.793785
0.061213706,71.57954
-0.07059319,72.19344
0.0061045354,71.99676
0.021716839,73.93325
-0.07012515,75.8222
-0.14299938,75.65893
-0.028813586,74.181404
0.09869276,78.08657
0.03577171,77.71038
0.007328225,80.38868
0.035798144,79.92159
0.08420987,82.83779
0.20399424,83.323364
0.25242102,82.64896
0.3043092,86.49027
0.41096637,88.120346
0.31493175,87.95288
0.49100256,90.814644
0.59715694,92.555275
0.7055524,89.16763
0.6933052,95.07825
0.74214554,96.892586
0.8897002,96.84587
0.9351729,99.63935
1.0730098,100.966515
1.079599,102.62805
1.0589099,105.019485
1.1514317,107.10015
1.2178662,103.569595
1.2321776,107.70024
1.2940319,106.7057
1.3525358,111.03567
1.3642839,109.72438
1.3679181,111.50188
1.2851034,114.841286
1.4355783,113.81871
1.3646255,116.53744
1.4019686,115.41553
1.4185343,116.74745
1.3607179,114.70641
1.4669755,114.74474
1.4204545,116.64593
1.3694699,113.6411
1.4365155,117.84999
1.3936082,116.66491
1.3759174,115.85946
1.3778933,116.57296
1.3856003,115.05996
1.297513,115.282196
1.3223636,116.916626
1.2772715,114.31837
1.241358,112.36212
1.1313349,113.353676
1.1669796,114.58662
1.1814474,113.49632
1.0954219,113.52242
1.1832815,112.3369
1.1417205,108.87336
1.1094635,110.310844
1.0295212,108.3013
1.0164034,108.269295
1.0760546,107.936844
1.0280021,106.69502
0.980143,108.33232
1.0061433,102.305984
0.9999986,106.0348
1.0098156,101.79429
0.9583533,101.230095
1.0722264,99.74465
1.0153637,101.91564
0.9531745,102.03737
1.023126,99.90126
0.8994723,98.7811
0.9837347,96.6445
0.9714336,98.695854
0.9345624,95.27516
0.9174858,94.21685
0.87147003,93.147156
0.83143586,93.63513
0.8462643,94.36344
0.81139493,93.34268
0.8150622,89.802246
0.7517001,90.79356
0.65714604,88.0587
0.67729086,85.32958
0.64556175,88.41177
0.6143815,88.67912
0.5486786,86.07163
0.58742744,86.7353
0.56129694,84.09619
0.53165716,82.29445
0.5114785,84.184235
0.58410674,83.39966
0.52010214,82.11025
0.54629225,80.79616
0.59427965,80.818115
0.53281593,76.01558
0.52674913,78.13011
0.55586624,77.74602
0.5977812,75.29456
0.5043882,73.690216
0.5036999,75.72809
0.6244483,73.929405
0.45956823,74.99734
0.49969134,74.68245
0.45850435,73.52898
0.44560823,72.75337
0.470213,72.7975
0.34265888,75.661125
0.38536876,71.656586
0.29901758,73.092766
0.31691897,74.03105
0.1992792,72.13834
0.28646255,74.57924
0.18619616,75.71783
0.2019544,72.159065
0.18142007,78.0405
0.20547654,75.5461
0.22096683,76.39771
0.19005902,76.78012
0.2644341,77.353645
0.3264605,78.98151
0.3539,78.42044
0.40592036,82.44815
0.5344404,84.91751
0.5401432,82.396065
0.5365531,87.79129
0.72434914,85.770836
0.74266773,88.68527
0.8327665,91.632866
0.9281305,95.845604
0.9692133,96.72116
1.1261054,96.23896
1.0905762,94.09732
1.1437987,98.2114
1.2769378,98.68276
1.3617144,98.40051
1.4192511,98.92103
1.3402429,102.86353
1.4816836,104.243034
1.501717,105.10689
1.6477163,108.75247
1.6597021,108.64227
1.657171,107.89342
1.63439,113.226166
1.6710087,113.225204
1.6917459,112.772156
1.8095636,111.162445
1.8165176,113.56928
1.7557167,114.371735
1.7581215,114.56787
1.7528306,117.49993
1.7658252,119.86064
1.8002509,117.76374
1.7507135,116.82165
1.714973,116.30364
1.666825,117.85732
1.7544445,117.51059
1.6862419,118.2365
1.663176,114.287964
1.7054213,119.35377
1.6251348,118.90487
1.7039305,115.05693
1.6684333,115.51972
1.6121463,113.84423
1.561438,112.32227
1.5319804,112.65672
1.5169467,110.12233
1.5248178,110.8128
1.4945077,110.18747
1.407231,112.401505
1.418338,112.533585
1.4791839,108.39276
1.4643099,108.1962
1.4238839,104.76432
1.435393,106.524025
1.4496474,105.8654
1.3678473,105.18731
1.4661059,103.637825
1.3149143,104.83754
1.3790731,100.749725
1.3989441,102.309265
1.3612682,104.5438
1.3389246,98.17478
1.4769577,96.7686
1.2938756,96.46277
1.356875,98.42552
1.2953378,96.76335
1.3173909,94.27318
1.2510372,93.60835
1.2605462,93.48823
1.2459978,91.99082
1.2059754,92.3566
1.1165968,90.79163
1.0123218,92.11703
1.0615464,90.6272
1.0406767,89.37638
0.9730738,88.87722
1.0218419,86.154305
1.0606899,85.73003
0.9173729,83.93828
0.82831436,86.050186
0.90484816,82.98344
0.8948779,80.658646
0.89370745,83.180786
0.8404008,83.9637
0.90563464,78.2158
0.93316156,77.96672
0.9830569,81.21267
0.90687287,76.62959
0.9568305,78.74794
0.9378446,74.41808
0.93486416,75.607796
0.8992175,74.63839
0.88745403,73.87513
0.8097847,75.11553
0.86764693,72.56986
0.7818856,73.3114
0.7278419,75.06787
0.69932574,76.00915
0.780935,75.46956
0.72813815,73.74546
0.767813,73.71898
0.6297456,74.37365
0.6819991,71.258156
0.57054913,74.03859
0.58614725,76.82812
0.55708736,77.59611
0.5931115,75.797195
0.5541955,72.372826
0.5194084,77.38882
0.58791286,77.64288
0.5846746,79.94369
0.64899904,78.86462
0.60101753,76.8187
0.6760794,81.39304
0.69278574,83.474144
0.8190998,84.376144
0.8622157,86.15219
1.0158359,87.977356
1.0579071,87.879875
1.1143122,88.97567
1.1827306,92.140236
1.2486287,94.1628
1.2593737,90.49625
1.3245357,97.68185
1.4882733,95.93292
1.4805142,97.630035
1.5924325,99.72991
1.6474756,98.56755
1.6365365,101.17757
1.740611,106.83525
1.7517456,103.65246
1.8297039,107.33976
1.8114916,108.53045
1.836247,111.43531
1.8879498,109.97582
1.8366921,111.798256
1.8850566,111.14189
1.9848969,113.16239
1.9595745,115.769455
1.9317456,113.5819
1.9756186,116.30976
2.0510178,117.072716
1.9613059,116.18959
1.9285278,121.36926
1.9285555,115.53806
1.9513682,118.61342
1.9295218,115.141235
1.9024141,119.09238
1.8801728,118.81116
1.8942165,117.16672
1.8247265,117.41507
1.8511473,116.999176
1.7962897,114.74233
1.7205787,115.59068
1.7998171,114.076996
1.7352716,112.37457
1.6765136,114.49868
1.6160719,111.44056
1.6575396,112.71915
1.585534,111.1717
1.6471099,109.83662
1.6362735,108.34375
1.5916406,104.89711
1.5090232,109.63531
1.5781868,105.23746
1.5743479,107.02322
1.4566065,107.60303
1.4523865,107.1944
1.5148519,106.753395
1.4682024,101.46352
1.4160917,100.145386
1.3818731,101.0365
1.449669,100.30559
1.4414015,98.29226
1.3169414,99.11973
1.4113544,98.85772
1.3372152,95.68378
1.3134058,97.60068
1.2772214,94.443665
1.2244924,97.27604
1.273878,92.84543
1.1461129,93.39396
1.1462111,92.45141
1.0989628,91.48377
1.0915793,91.77994
0.985443,88.971016
1.0625408,91.00261
0.97322786,86.050995
0.9429243,83.884674
0.93022764,87.2946
0.8610968,86.70477
0.90465105,84.01985
0.9394155,82.49215
0.8404314,81.376205
0.8370435,82.73747
0.7737273,83.37004
0.8317737,83.071335
0.83011276,80.416214
0.7639174,80.2395
0.8697523,81.31553
0.813748,74.96657
0.79901505,78.31125
0.78243846,73.52988
0.8154369,74.772385
0.7797886,77.004135
0.7495646,76.63689
0.8063859,72.60446
0.74440634,72.38539
0.69068843,74.19287
0.6585545,73.96384
0.63045627,74.85728
0.61498624,74.20182
0.5565139,72.41345
0.52470046,72.57431
0.43940806,73.28188
0.4716765,76.497955
0.3774181,75.472694
0.3905791,74.69276
0.39891574,74.729294
0.37424102,78.153755
0.42177075,75.34633
0.36680493,76.61655
0.45118693,80.54076
0.41769233,78.988434
0.4938181,81.89795
0.5560148,82.93743
0.5575271,86.175934
0.6083251,84.80546
0.66043824,84.0139
0.671292,87.38912
0.73349845,88.3254
0.7951253,90.31035
0.90265495,93.135826
0.9978788,92.36203
1.0742536,95.682556
1.1318618,94.89
1.2516305,98.23251
1.2506475,96.21464
1.3878255,98.472565
1.3805479,103.00545
1.4576178,105.52685
1.5525959,104.42774
1.5608397,105.95858
1.5286744,105.90345
1.6739616,109.404625
1.5654325,110.435875
1.6353297,110.21124
1.6339225,112.30539
1.7378398,112.77357
1.7026883,115.644005
1.6955796,112.95004
1.6921566,115.23303
1.6468917,114.909424
1.673208,115.59463
1.6315098,116.650185
1.6478032,116.37637
1.5826409,115.185394
1.6688848,118.16312
1.6483809,115.34407
1.6723948,116.65354
1.6474603,115.031975
1.5456738,118.31454
1.5035633,116.87767
1.4541694,117.18422
1.5318269,116.0217
1.5157835,112.110825
1.4146669,110.46216
1.4231955,114.74158
1.3215743,113.164505
1.3465687,114.300644
1.3064188,110.87117
1.279004,110.810455
1.1928319,110.73409
1.1844375,108.6528
1.2405407,111.71191
1.1757154,107.31081
1.2145631,106.162
1.1242294,106.987236
1.1255143,105.688156
1.0855726,103.67065
1.0931351,101.72388
1.1150315,101.50789
1.0465677,103.6147
1.0617405,99.640114
0.9919662,100.50604
1.0483407,100.867645
1.0182071,95.97876
1.0057338,97.89403
1.0119386,97.60098
0.9568889,97.10533
0.9348654,94.37927
0.8802684,94.60802
0.91305697,96.26111
0.77530223,92.64232
0.7431326,91.32407
0.80979025,90.19254
0.67945606,89.494225
0.66759086,89.600136
0.68788636,88.84941
0.5495546,86.89586
0.6012412,86.40635
0.5737704,84.917015
0.5322143,85.463974
0.5248903,82.32773
0.50566643,83.52465
0.48366487,83.83478
0.36066926,83.51411
0.49518895,81.83042
0.43624482,80.60712
0.45241198,81.215126
0.48114374,79.29149
0.42248917,76.53297
0.5032054,78.015274
0.45063958,77.24088
0.444391,75.865715
0.41011548,76.26013
0.38935456,74.75575
0.35018742,74.3047
0.33766457,71.43957
0.28852355,73.68805
0.28376907,74.19262
0.22929026,75.714424
0.25889942,71.85779
0.19201234,73.74647
0.117604166,72.25233
0.16709481,73.751305
0.1401213,72.44608
0.07283743,71.675606
0.021980556,73.2851
0.025064271,76.24032
0.06220924,77.018654
0.01693581,76.17853
0.0076388638,75.9757
0.0846594,75.905914
0.018104764,77.077156
0.062807806,78.645065
0.113888785,81.71047
0.13521823,83.41882
0.20785066,82.190605
0.2209418,84.93513
0.30629593,86.843735
0.31348678,88.12658
0.4625982,87.87601
0.5352028,91.56896
0.6195741,91.56227
0.6342341,93.6718
0.7971777,92.84916
0.83690405,94.38757
0.9301773,99.179405
0.92162234,98.67398
0.9081195,102.907104
1.072439,100.62494
1.082264,103.00496
1.1897405,105.233185
1.1204003,107.005974
1.1740409,106.89108
1.2216798,107.404076
1.3291734,109.522446
1.3217154,111.44795
1.390054,110.62642
1.3204464,114.44163
1.3306144,113.90212
1.3259877,114.300285
1.3196799,114.17989
1.415904,114.562874
1.3823452,115.46226
1.2722619,116.38813
1.308495,117.99747
1.3972522,115.368614
1.2977402,118.72027
1.3315786,116.61387
1.2799566,120.042046
1.2491192,115.90107
1.2520919,117.18534
1.32107,115.67248
1.2377894,116.77744
1.2021705,111.935646
1.1811564,114.44962
1.142914,114.19129
1.1445477,114.792206
1.1466707,112.13127
1.0612662,114.401375
1.1035794,110.95244
0.96388876,111.72075
1.00707,109.9391
1.0173917,110.799934
1.0093673,110.235504
0.9401695,108.010414
0.9095069,108.226265
0.97723776,108.05226
0.9592938,106.62337
0.90168524,105.97193
0.9502879,104.00319
0.93908364,103.55262
0.78475314,102.896324
0.89985824,101.55559
0.88806176,99.57473
0.9214149,97.70546
0.89001507,99.12892
0.8538352,101.00043
0.84708637,98.22767
0.7340385,94.550735
0.76705575,95.9655
0.7184765,92.33378
0.7213351,93.129166
0.6401079,95.58643
0.6348423,89.65873
0.6355855,90.18467
0.5995258,89.82142
0.61196953,86.99387
0.5037842,86.945854
0.46011734,87.38509
0.4952134,87.19238
0.50307375,87.29449
0.40216663,84.97341
0.42645904,81.478165
0.44167253,85.175964
0.47119915,85.32095
0.40566275,83.819725
0.34431466,79.16986
0.28556317,78.21585
0.36960924,78.3919
0.3808903,79.88208
0.29248655,75.1727
0.33362466,80.0248
0.4104485,75.70205
0.43483916,74.543724
0.42785627,74.92925
0.34971997,75.49654
0.19793192,73.51935
0.3022351,71.97818
0.39016527,72.025536
0.26382774,74.585014
0.23776871,72.787926
0.18440202,72.012535
0.16106099,74.75309
0.183931,76.58152
0.09393434,74.31775
0.10430655,71.99951
0.053630713,73.05315
-0.0056166532,74.46475
0.06998958,74.717186
0.042782918,76.32615
-0.070442416,74.208176
0.07291795,77.09819
0.0859138,78.01066
0.12190827,79.32474
0.17350943,77.9153
0.24874155,81.55115
0.29754448,80.58474
0.27560386,83.45245
0.42958668,84.16258
0.4544932,87.19368
0.5141752,88.77775
0.464642,90.55425
0.63409644,92.696106
0.6493159,92.69868
0.8141194,92.79768
0.9452754,93.84702
0.9107583,94.11079
0.994476,99.48139
1.0566633,97.49503
1.187303,100.632126
1.2685462,101.57355
1.2947185,104.58153
1.3337154,103.80534
1.4307578,106.90504
1.4389948,106.87294
1.4471368,105.840935
1.4562496,110.44809
1.4951415,108.691124
1.5886663,110.63085
1.5104251,111.335396
1.5212595,112.11443
1.6150074,115.29355
1.559515,114.59029
1.5024493,115.84593
1.516567,116.806694
1.5598413,115.171295
1.5489211,116.979744
1.6244012,114.33983
1.482652,115.813286
1.5321705,116.51631
1.5868322,117.80288
1.5984409,116.75968
1.55552,115.73054
1.6012841,116.64979
1.5282112,115.55224
1.4820951,115.65809
1.388646,113.588295
1.4687665,115.20021
1.3608156,112.07989
1.3808858,112.94654
1.2832026,109.73308
1.32639,113.23546
1.2422444,109.49446
1.4009997,108.85863
1.2021102,110.34324
1.2400063,108.759254
1.3079685,107.99044
1.2218177,107.422
1.1685631,107.02508
1.2435908,104.717766
1.2651716,103.43279
1.2312148,103.20251
1.250289,102.420364
1.1986364,98.6841
1.2234269,100.909744
1.1994112,102.834435
1.2419991,98.21796
1.2139392,100.231
1.1192912,97.76031
1.1104895,94.98023
1.1557088,94.184074
1.0704573,95.184586
1.0937983,96.341774
1.1099716,94.05072
0.9471421,91.03548
1.0016448,91.719765
1.0220346,90.64065
0.91996956,91.5818
0.94476813,89.88564
0.84744304,88.09178
0.8428219,88.15595
0.86247665,88.75668
0.88384694,87.377716
0.72504216,86.560715
0.70845246,84.05063
0.7307727,82.519424
0.7384265,83.04094
0.6659671,82.89762
0.715112,82.4789
0.72314906,83.15989
0.7100657,78.75742
0.6396117,79.96229
0.6887745,76.22922
0.69691634,75.75427
0.7226601,80.60838
0.7528045,75.59229
0.7157409,77.48016
0.70964897,74.07638
0.7442693,73.0466
0.725161,75.28678
0.5812994,76.11121
0.6026651,73.306625
0.6622502,73.13715
0.5584419,71.03615
0.603193,72.48115
0.53805435,74.95759
0.5453401,71.68218
0.4471454,74.08884
0.45833877,72.573746
0.43573636,72.27172
0.51157784,74.40158
0.50094646,75.63592
0.46432656,76.54857
0.478995,75.382996
0.46411443,77.30496
0.4077018,80.056915
0.5894375,81.335
0.58031136,82.63094
0.5772765,83.80785
0.5810451,84.917885
0.71706384,84.272606
0.7784658,88.062
0.8036836,89.00931
0.90362126,89.513374
0.94714624,91.364586
1.1375914,93.76326
1.1589931,91.49776
1.2711283,95.72428
1.3590535,99.23615
1.3797737,96.756615
1.4477211,98.736015
1.5711583,99.06098
1.5952929,101.66577
1.5851507,102.10116
1.6961226,106.37887
1.7481284,103.0678
1.6782118,107.3732
1.819878,109.24164
1.8924772,110.88675
1.8468412,110.190254
1.920355,113.20709
1.926147,115.565704
1.9096426,111.782715
1.9269079,115.11032
1.8317239,116.71185
1.9953439,118.33543
1.9233254,113.2886
1.9080236,117.25958
1.9856054,116.23866
1.9267472,116.04707
1.966486,116.44628
1.9541463,116.68723
1.9357234,119.48296
1.8077441,117.38596
1.8658355,114.77469
1.9158578,119.03786
1.8733785,116.80494
1.7360933,114.30047
1.7140368,114.30449
1.7668002,115.4469
1.6660886,113.55971
1.7053374,113.682335
1.6934288,113.1545
1.651648,113.39438
1.6195042,110.619545
1.5180854,110.82102
1.6060917,111.25962
1.4766548,108.88956
1.5598029,105.974174
1.49503,108.74848
1.5390202,102.56707
1.4871855,105.23448
1.4827778,104.33024
1.4979633,102.18569
1.4454664,103.72842
1.6458579,104.38796
1.4892145,100.43973
1.5222201,99.85276
1.4485363,101.183304
1.4054664,97.80718
1.4698942,98.28518
1.389211,98.34941
1.4144624,94.810974
1.2885269,92.67787
1.3055921,94.00077
1.296383,92.40287
1.2382537,92.87292
1.199915,91.033875
1.2330927,91.67765
1.1505649,87.36536
1.1275978,90.2606
1.1109607,87.530266
1.1467618,88.123024
1.1729494,87.92683
0.95674974,85.445175
0.86244935,83.87461
0.9122096,83.984024
0.9627864,83.99342
0.8788964,81.818474
0.932598,83.57804
0.9028103,81.94932
0.92439514,81.11927
0.9165412,79.859505
0.92021525,78.83134
0.9620458,75.86181
0.8862292,77.48267
0.86901826,74.97291
0.9512947,75.67032
0.85558647,76.02425
0.8899686,75.709435
0.8586324,74.88479
0.8414191,74.70776
0.87875503,75.37575
0.8033494,73.70501
0.6866829,71.80861
0.69508916,73.123795
0.6401806,72.94678
0.6732144,72.08185
0.62482464,72.346375
0.62474054,74.25136
0.5932737,74.15124
0.5213529,75.297554
0.6068782,72.77379
0.5094722,75.39711
0.5212329,74.85601
0.48171228,75.78723
0.57556945,77.65214
0.49324954,80.19782
0.661391,82.87027
0.6504456,80.52644
0.64898604,83.16632
0.75292605,83.26549
0.7792185,85.39813
0.8133028,85.92468
0.9261216,86.45254
0.8861881,89.17303
1.057148,91.571556
1.0905592,92.51064
1.2327065,96.504456
1.4004822,93.88058
1.2530494,95.450264
1.4423162,96.8788
1.4415431,98.01872
1.4960532,99.385574
1.6257472,104.80733
1.6027359,102.11111
1.6681657,103.83444
1.705905,107.69242
1.6616603,108.36147
1.735845,107.65075
1.7924275,110.72995
1.8330162,111.013145
1.8228817,112.399086
1.8457829,111.81522
1.8141295,114.82306
1.8505942,113.5768
1.8390886,116.26806
1.839551,113.05006
1.8867178,117.65808
1.8792518,118.9554
1.7980819,119.332825
1.8393118,117.46764
1.7672517,115.98234
1.6906323,118.351166
1.77265,115.97946
1.7076259,115.50976
1.6773769,117.34862
1.7168667,113.66857
1.6496613,115.42373
1.6411389,114.541855
1.58585,115.32056
1.7178092,114.35942
1.5779693,111.73958
1.4906145,112.85215
1.5511492,112.301155
1.5114934,111.91082
1.407862,110.30397
1.5018423,109.94735
1.3464752,111.56459
1.3836677,109.55322
1.3559068,109.517845
1.359631,108.07879
1.4167528,105.5386
1.3598846,103.71944
1.3665569,105.410194
1.3412582,102.42696
1.2776705,100.45106
1.2298244,101.161194
1.1957328,100.51398
1.3653337,101.82342
1.2648027,101.144
1.2281125,98.13494
1.1946114,99.45232
1.1415989,96.79162
1.1584715,96.69555
0.9843511,94.00424
1.0591053,93.99172
1.0527709,94.04821
1.0199878,90.80913
0.9605609,91.70475
0.94499356,91.471405
0.9395239,90.977356
0.82792234,89.27961
0.808801,88.63926
0.8290679,88.83169
0.7646501,89.870926
0.75137067,84.80045
0.6723764,83.509575
0.7561922,83.95486
0.7240015,84.543106
0.6957253,81.111855
0.652743,81.73104
0.59656197,79.3758
0.49881417,80.87354
0.55001336,81.261345
0.57616085,78.14526
0.5465795,78.97025
0.5652809,75.72143
0.5790006,77.62811
0.58099276,74.63668
0.5956872,73.74836
0.5263107,76.44009
0.5645509,76.820694
0.54343355,74.37612
0.42637783,76.35377
0.4768162,72.61904
0.40795615,73.72841
0.37637442,72.65015
0.19229127,74.98791
0.30934,70.85754
0.26914737,74.35122
0.20531566,71.12566
0.31740373,74.13341
0.2604287,76.040215
0.13739419,75.26565
0.22799043,74.68715
0.19484754,77.097496
0.21404485,75.64524
0.12439758,78.73531
0.20033951,79.092514
0.20916459,81.99312
0.32161704,81.204636
0.314394,83.34872
0.33653194,85.13496
0.36087582,83.60116
0.51896083,85.91262
0.60630244,86.57264
0.5821259,89.47014
0.6746766,90.53994
0.8025313,91.14282
0.8830184,92.744415
0.8754296,91.9479
0.9587047,96.67862
1.0993727,98.76625
1.1162906,97.835014
1.2083594,99.290565
1.2577467,102.036575
1.2958722,101.68602
1.3028277,106.14083
1.3029917,103.98191
1.3681898,104.92083
1.3754661,109.99538
1.3426381,109.00262
1.4873198,110.85659
1.353455,111.747894
1.3945787,111.936745
1.39302,115.57593
1.4373567,110.7224
1.4311067,114.03177
1.4925172,117.01407
1.3992251,116.35522
1.4342386,114.8814
1.395021,115.684906
1.3409678,118.14632
1.4502586,117.78783
1.4282614,117.29604
1.3769789,114.671234
1.4210863,114.35687
1.3379567,115.77702
1.286605,115.989746
1.2956338,114.44394
1.3277847,113.128334
1.2084863,113.43107
1.2122741,113.35505
1.1810114,114.75469
1.1925943,112.99631
1.164241,111.40934
1.0859221,113.65125
1.1195685,109.245186
1.069135,107.09281
1.0217515,108.9035
1.1197021,110.05933
0.99623895,108.95277
1.0058104,103.0013
0.97969943,104.45613
1.0108407,101.49838
1.0165945,105.58435
1.017552,100.572075
0.9661937,103.02569
0.88035595,102.00251
0.83402777,101.06166
0.97390467,103.288
0.91658354,100.85689
0.88584447,98.428825
0.8571514,96.256615
0.8717329,96.57325
0.86646223,97.31531
0.74945927,97.79225
0.7702037,93.719604
0.66654795,95.18044
0.65698117,93.86496
0.63999796,91.86399
0.6490338,88.09858
0.56446356,88.77869
0.5105498,90.09495
0.4978809,89.11652
0.43935645,86.70435
0.32592046,86.02595
0.40813765,86.16412
0.4409386,87.2201
0.3330378,83.26938
0.3611626,84.6599
0.30930048,85.68572
0.3632244,80.033775
0.3186041,80.01321
0.33132085,80.815994
0.37098297,77.637955
0.2955489,79.88278
0.42217752,78.15443
0.26666135,76.64426
0.27994674,78.8
0.34893396,77.9167
0.2865136,75.80616
0.29476818,74.15128
0.2588631,76.81447
0.2540312,72.61326
0.24402395,72.07827
0.13594052,72.61336
0.25703597,73.54886
0.14858235,73.049614
0.117579795,72.36608
0.03908372,74.90649
0.057412256,73.934044
0.08609278,72.10157
-0.06324148,73.759155
0.0018968743,75.19477
-0.0557584,74.90652
-0.08648444,74.120964
-0.02687725,74.365005
-0.09086698,74.86742
-0.044624135,79.488655
0.07701894,81.045135
0.0026076392,81.07094
0.047481414,79.15186
0.12244582,82.73977
0.10354573,78.67203
0.2319306,84.117134
0.35496378,86.84871
0.38269562,87.09403
0.4801608,87.89377
0.4879362,89.344284
0.5882201,91.34324
0.730754,93.409615
0.6494842,96.06141
0.80646604,96.06527
0.93680143,98.38859
0.93202263,99.11495
0.9796657,102.45368
1.1439195,102.91317
1.1833624,103.75283
1.2594079,103.80258
1.2881038,108.98576
1.2138,108.859764
1.3857391,108.0015
1.3056113,113.06534
1.356117,110.62113
1.3798746,111.838615
1.4287403,115.08931
1.4403615,113.580536
1.413748,113.05622
1.4434124,118.19816
1.3617368,115.9469
1.4468787,117.75696
1.4380305,118.989655
1.3367469,119.24908
1.3917898,117.963554
1.4235373,114.86537
1.356161,118.178
1.3425809,117.57681
1.3495649,116.43723
1.3869156,112.85437
1.3749515,116.19905
1.2799867,116.48104
1.2879514,117.34942
1.2975541,114.49333
1.2501848,113.38033
1.2082295,112.67246
1.193525,113.16851
1.1738217,111.52384
1.1415194,109.40061
1.1140165,110.83733
1.1585407,111.883354
1.0933427,108.46931
1.0339895,107.04402
1.0977538,106.58992
1.074517,106.50247
1.0106823,106.50705
1.065326,104.03667
0.9903798,103.8299
1.1567711,105.099976
1.0350999,101.37063
1.0763686,101.54496
1.0000328,101.132034
1.017286,98.48231
0.9624394,98.98761
0.9263747,97.404
0.9746604,96.72868
0.943155,97.41958
1.00301,93.528564
0.8571709,97.138626
0.8565214,93.44448
0.83047193,94.29997
0.78870034,94.251274
0.7681825,90.43907
0.8193718,92.41558
0.6111108,92.20643
0.65911275,90.70126
0.7240705,88.70442
0.42344394,87.3502
0.6165754,85.87267
0.6100609,86.31315
0.6216923,87.21093
0.6714794,83.55519
0.4162954,85.35728
0.53759336,82.71785
0.60605437,81.50875
0.54321915,80.49467
0.55155367,80.03779
0.5172693,79.620865
0.50442487,77.77493
0.53173196,74.78213
0.55290884,77.33833
0.5128236,77.351395
0.5203375,77.2642
0.55803305,74.83461
0.5083769,73.19679
0.46485257,76.43503
0.4177691,72.34627
0.50989693,73.65139
0.44150463,71.5073
0.40094244,73.12211
0.3688579,71.868225
0.42254332,72.437675
0.31281227,73.77854
0.3138733,72.91
0.33976945,73.33195
0.24003144,72.74516
0.26193526,74.26931
0.24533847,75.30477
0.23120077,74.45414
0.16549905,78.03188
0.30069983,75.62416
0.2947865,78.318794
0.3737024,78.178154
0.4372319,81.38181
0.27281803,79.827255
0.47857124,82.72357
0.567511,83.35649
0.61931396,85.16036
0.6491063,84.285774
0.82355255,87.149635
0.7868519,88.301056
0.994849,92.11643
1.0073196,93.86113
0.9646239,94.2691
1.1813148,97.62137
1.1816227,97.638885
1.2286155,95.59991
1.2587692,99.874405
1.4321817,101.813
1.4025923,103.29738
1.5151756,104.26924
1.4628882,104.63653
1.6153184,105.527466
1.5923868,103.5128
1.6820817,107.54019
1.6748501,110.951065
1.7837391,110.82754
1.683024,114.67393
1.7204196,111.392845
1.8591332,112.66052
1.7509359,117.36243
1.8006113,116.143326
1.8231229,114.85738
1.7987891,114.62611
1.8142486,116.03865
1.7716131,115.45438
1.8075086,116.686195
1.8285071,118.05033
1.7345562,117.557396
1.766528,116.887566
1.7397346,117.125854
1.7265023,116.80203
1.730257,116.58377
1.6658154,114.365456
1.6911607,115.4588
1.5999607,109.65659
1.5915489,111.71518
1.5157887,115.33752
1.6220719,115.878006
1.4850335,111.27769
1.4660106,114.86642
1.4939151,112.34108
1.4779743,105.97083
1.5340693,108.2446
1.4401156,108.26787
1.3908027,105.30879
1.4463826,105.59765
1.4445604,106.39302
1.4025562,103.241615
1.4553198,107.18822
1.4747713,104.47876
1.3923047,103.05621
1.4410737,101.86741
1.4662145,98.63162
1.4461162,97.81899
1.390518,97.17713
1.390647,99.7681
1.3602355,96.82498
1.3542856,96.34174
1.3250494,95.34037
1.2122066,94.18358
1.2320611,95.37718
1.1596826,93.16422
1.1791953,95.2024
1.1710749,91.969635
1.1261473,91.94898
1.0364621,91.82024
1.0702691,90.73988
1.0510242,88.430084
1.0686566,87.11127
0.96364295,88.46575
0.96557164,84.66327
0.99099195,84.558266
0.9537713,85.86707
0.8795991,81.70807
0.90625095,81.42075
0.94912046,81.669205
0.9186891,81.51959
0.8970874,80.1098
0.9785399,79.12238
0.94658214,77.92333
0.9243819,77.023575
0.8459224,76.70118
0.9571366,77.88066
0.9137369,74.55174
0.8828585,72.66622
0.8769253,76.81533
0.89060843,75.41139
0.7864499,72.19835
0.8274958,72.91831
0.793779,74.75323
0.76252705,75.840195
0.74302477,75.371704
0.61991966,75.73277
0.65719515,73.19738
0.6674086,73.46728
0.5086508,74.85082
0.5683137,74.938354
0.60210687,74.09931
0.5653111,76.000404
0.5242421,75.43706
0.5442815,76.66516
0.5925153,76.38617
0.52538365,80.22849
0.63551587,78.155785
0.59527755,79.62181
0.6637856,78.80222
0.7595497,83.170586
0.6990202,84.71018
0.7906665,85.20454
0.91063005,86.982445
1.0716761,87.38012
1.1090779,89.09267
1.1519536,90.07384
1.14158,91.35943
1.2881122,93.31442
1.4290473,94.673546
1.3151886,97.70289
1.493978,100.57717
1.6083331,100.75276
1.5921433,101.34681
1.6638558,102.58365
1.7256058,103.54505
1.7917675,106.61135
1.8257171,106.77272
1.8398871,104.98939
1.938678,106.93009
1.9195737,109.94398
1.859505,111.189514
1.9373194,111.36152
1.9062222,110.58396
2.009881,112.4032
1.941956,113.69953
1.8946619,114.15447
1.9537762,114.38749
1.9634621,115.631775
1.9566109,115.9849
1.8971409,114.10722
1.9399931,118.74346
2.0023956,118.57874
1.8725743,117.498665
1.939575,115.83525
1.7594348,115.278694
1.8283643,114.802956
1.8219799,118.79625
1.789957,116.55652
1.8866287,116.40914
1.7323648,116.36063
1.6714302,113.81393
1.7079079,113.926796
1.7244693,111.73811
1.6587067,114.52499
1.6508812,112.79501
1.475915,110.932236
1.624746,110.558174
1.5116423,109.082306
1.4424822,107.04942
1.5198264,108.224014
1.4727051,107.489296
1.451483,106.938255
1.51168,104.27443
1.4607633,103.009346
1.3980051,101.95908
1.3882995,102.67451
1.414296,103.44507
1.4382781,97.630165
1.3555305,101.89417
1.4284877,99.271
1.3795217,97.69055
1.387049,96.80545
1.2881294,97.410126
1.2396936,96.69878
1.2976439,92.85427
1.2131553,94.43191
1.2154588,92.99737
1.2044892,91.583015
1.0302925,92.7101
1.1421496,88.08751
1.0286496,88.95033
1.0168754,86.4999
1.0002909,89.43796
0.9356478,86.53299
0.92745054,88.05197
0.92814785,84.196815
0.9067042,86.57525
0.8526222,85.22088
0.8829803,83.984764
0.8372048,82.79137
0.7459845,80.27675
0.72451276,80.07388
0.84005386,82.36472
0.7747057,76.866806
0.79083496,78.37547
0.8749171,77.1802
0.8200685,75.47809
0.74865204,76.2832
0.8103152,74.63806
0.74613893,77.41409
0.73896366,74.77233
0.7181712,73.26988
0.66774935,73.94644
0.6285944,72.42503
0.6556235,71.99536
0.5903651,73.54206
0.50665236,72.28145
0.5777587,70.4678
0.49755174,74.31442
0.47801533,75.61332
0.38609907,72.15232
0.34023413,74.73395
0.40901956,73.89418
0.24542159,76.94556
0.36136934,73.63202
0.34070408,76.542786
0.40251288,77.47223
0.4282949,76.94284
0.41894093,76.98131
0.41444808,77.51414
0.4795902,77.941124
0.5100502,80.64706
0.57619643,81.151695
0.67280895,84.23678
0.7057634,85.95918
0.7092961,88.54571
0.7264487,90.86973
0.9163456,93.31181
0.9974287,94.41554
1.0744967,92.16976
1.1062512,97.23794
1.250369,96.36522
1.2956265,98.94667
1.2753131,96.2567
1.3645225,101.27585
1.3839095,105.57577
1.5003614,105.20389
1.4446745,102.72502
1.5131328,106.11701
1.5814621,108.22537
1.636724,111.11077
1.6876804,111.01497
1.6455423,112.327576
1.644016,111.77075
1.6707896,114.18174
1.6376805,114.26784
1.6674137,112.77929
1.5995001,112.79568
1.5679178,114.696205
1.6893395,116.46784
1.5799581,117.96912
1.598505,118.808304
1.5710717,115.86455
1.6227152,118.41136
1.5669518,115.36373
1.6004921,115.25358
1.506457,117.1939
1.4693514,115.27977
1.5129784,118.159386
1.4800767,113.968575
1.3956097,115.34369
1.3746783,117.46438
1.3852947,113.514656
1.3291097,111.63855
1.2683595,112.805214
1.3245822,111.83329
1.2296641,112.78631
1.2711713,109.96315
1.2299912,107.97611
1.1557853,107.11538
1.261999,108.609985
1.119273,105.956406
1.1082402,108.82699
1.1314173,107.59568
1.0947077,109.33894
1.1195691,104.277626
1.1350546,105.48814
1.1072761,101.76963
1.008712,98.16714
1.0411047,99.38713
1.0296042,98.92594
0.9340864,99.262146
0.95538723,100.17838
0.96990675,95.55831
0.9828598,95.19782
1.0058486,94.19959
0.9533524,95.74758
0.8152866,95.15648
0.79220504,90.979485
0.87340933,91.62494
0.7585446,90.711586
0.6466807,90.22606
0.75939846,89.01791
0.65660155,85.748184
0.6719091,88.772545
0.61430216,86.740906
0.54389507,87.47861
0.46877456,85.04006
0.46599454,84.69084
0.527272,83.94789
0.5081903,85.06921
0.38333085,84.62285
0.44520313,81.172005
0.43344516,80.45912
0.39654067,80.086494
0.37190896,79.849396
0.36256593,76.32216
0.26589307,77.827995
0.31905589,79.77881
0.41417935,77.31127
0.35174647,77.0512
0.319789,74.204094
0.33556104,75.02024
0.3424216,74.160164
0.26568472,73.42557
0.31887245,77.26899
0.24911897,75.06178
0.18716396,71.68158
0.16956103,75.44064
0.1618201,73.766914
0.05742712,75.08085
0.07397461,75.333084
0.022618879,72.676346
0.04243321,76.465454
-0.014386036,75.59582
0.020066736,75.15703
0.023840241,75.29615
-0.0022802867,74.44204
-0.0043782685,77.35107
-0.025700497,78.46678
-0.0017112119,78.72016
0.054893766,79.050316
0.13963509,83.263824
0.13439079,82.74721
0.24321519,83.72084
0.34391692,83.58621
0.35717306,87.36695
0.38125324,88.22592
0.39815024,89.15604
0.60627884,92.09428
0.6010469,92.31132
0.68850696,96.275
0.79648614,95.49106
0.8056374,99.46297
0.91265434,93.69308
1.0101383,101.19207
1.1261623,101.54085
1.1565342,102.12227
1.1024513,103.486496
1.1929674,105.37168
1.1872586,106.21642
1.2438333,106.894875
1.2883102,105.93693
1.3379637,107.743164
1.3118255,107.822624
1.3971524,112.945595
1.2468967,112.84622
1.3501798,112.632835
1.402207,115.21053
1.3753321,115.96362
1.3896949,116.34033
1.3968277,117.464325
1.3269776,118.372665
1.4394969,115.44783
1.3501436,116.41375
1.3116368,117.90847
1.3371024,117.52898
1.2862071,116.17723
1.3589212,118.63176
1.2829465,118.08377
1.288986,115.88767
1.2529474,115.90822
1.1283115,116.50929
1.213684,114.8661
1.047534,115.5717
1.0458765,112.492294
1.1051377,113.4306
1.1365832,114.24259
1.0997502,113.44959
1.0130361,109.75128
0.98981833,109.711006
0.9449426,108.71395
0.98812205,108.79841
0.9027973,108.65023
0.9952102,108.853676
0.9597048,106.149826
0.8848138,102.673065
0.92687786,101.76695
0.91792005,102.92199
0.87355125,102.577614
1.0133355,99.8048
0.8652672,99.50222
0.81539106,99.21689
0.7873967,102.16453
0.8247387,95.218346
0.84649605,97.28174
0.8196557,97.24887
0.761592,98.06057
0.7983621,94.67851
0.8245874,91.19531
0.78536665,92.87707
0.70577335,90.980316
0.68715227,90.79415
0.6401204,90.27168
0.6063588,92.05566
0.6001457,87.03351
0.5399577,90.36296
0.46933374,86.776276
0.5115,86.112175
0.5041651,82.90492
0.32425493,84.79244
0.33088323,84.12899
0.37334716,82.600525
0.40508315,81.533394
0.4111645,84.09902
0.4317528,82.51266
0.38660523,77.958885
0.4402473,81.01439
0.38036162,78.917206
0.47703487,77.58782
0.42252842,77.583786
0.39152125,76.3337
0.43866077,77.28702
0.32691458,74.89295
0.35422707,74.33876
0.36293682,70.157135
0.36064067,71.40755
0.36134726,72.7087
0.25379336,71.419754
0.26666623,73.84817
0.21293522,75.338974
0.22049652,70.861465
0.24422275,74.696175
0.09407597,74.66204
0.17501502,73.546074
0.11386574,75.290276
0.08456403,73.95327
0.027287105,75.8464
0.081928924,77.06421
0.1460523,79.47237
0.12206379,77.494255
0.084226966,76.81757
0.10400501,78.2907
0.15419939,82.18159
0.2286441,84.51183
0.24850574,81.88254
0.37329713,84.13569
0.37170294,86.57681
0.49583456,87.21624
0.43660787,87.684105
0.615367,91.618225
0.61566556,91.79715
0.79354346,92.2861
0.97001576,94.016594
0.97658676,93.63958
1.0311309,97.21395
1.1453803,102.13938
1.1496693,100.26783
1.207868,101.07566
1.2911227,104.01894
1.2425692,104.439255
1.3878665,107.23466
1.3354694,106.036194
1.480858,107.53253
1.4628646,112.10729
1.4873455,110.02555
1.5546831,110.642044
1.5326698,114.55139
1.6037123,112.268394
1.5715517,112.62513
1.5400269,115.99099
1.5146143,112.94083
1.6095357,114.29799
1.6386406,117.222534
1.5915941,115.4173
1.594638,119.26828
1.6213773,118.87009
1.5727965,116.3557
1.5784116,113.806816
1.5205871,118.456635
1.60304,115.910355
1.5407972,116.36417
1.5367811,116.32794
1.4907509,114.4249
1.4204938,114.54852
1.4925907,113.55055
1.4024212,111.285866
1.3568654,111.839
1.3863972,112.96972
1.4090204,110.69609
1.2970059,112.166145
1.324199,113.5028
1.3531508,108.468575
1.2901756,109.53407
1.2545012,107.612465
1.3687685,106.185715
1.2576987,106.99671
1.3290794,108.35734
1.1858953,102.90273
1.1847965,106.322716
1.1528813,104.60462
1.2078398,103.442665
1.2272643,103.18259
1.2599745,102.35717
1.2480942,100.09826
1.1802714,95.43954
1.2436132,97.30828
1.1068106,97.45754
1.088692,95.87889
1.1777606,97.67971
1.1405602,96.00115
1.0465989,95.28841
1.0755943,93.84022
1.0523897,91.027916
0.9175645,91.17403
0.9978964,92.010124
0.90609485,88.888466
0.90122914,86.83729
0.8451708,86.52875
0.83397305,86.9854
0.7283647,83.99471
0.8417577,84.551674
0.80028844,85.822655
0.82214934,84.14636
0.7477634,81.70236
0.77574277,81.74595
0.85572433,81.665695
0.6872508,79.691505
0.7051669,77.74824
0.75639355,78.17327
0.69168246,78.23251
0.8121824,74.78666
0.788027,74.423134
0.74979293,78.06289
0.77387476,76.11442
0.731706,76.64802
0.7381632,72.709656
0.8008257,72.12214
0.6881224,73.89315
0.64199483,75.935455
0.6591066,74.997955
0.6179824,75.520905
0.5830195,72.41541
0.57638603,75.98599
0.5428662,73.6865
0.5655604,73.29926
0.540793,75.04155
0.51354617,72.819374
0.45156014,76.20932
0.5433868,74.1441
0.4572737,74.1919
0.46429828,76.94973
0.48974597,76.88468
0.54166615,77.61095
0.5821839,78.573395
0.604907,78.92862
0.60554457,81.341965
0.6742219,81.16714
0.7084876,85.31602
0.74461097,83.24232
0.78441805,86.32705
0.94104016,88.91248
1.0397526,90.35038
1.026891,89.65624
1.2192502,95.440956
1.2468872,97.240616
1.2938844,96.604836
1.3297251,98.34292
1.3931704,97.541245
1.5449477,100.72322
1.5518332,101.91374
1.6692863,104.05678
1.7596896,106.23452
1.7651919,103.48569
1.8123126,107.58628
1.743639,110.24312
1.8536495,112.50833
1.7946478,110.191986
1.9418344,109.52612
1.8944268,114.278305
1.9442041,113.54305
1.9372841,112.37569
1.8427144,113.98936
1.9944515,115.286354
1.9243982,115.66053
1.820421,113.99858
1.9798306,114.231255
2.0326114,118.61484
1.9260718,118.73318
1.9777702,116.26613
1.933844,116.84965
1.8609145,116.19355
1.8654748,115.062706
1.8660587,115.650604
1.8531259,116.04383
1.8127842,116.41622
1.8294883,114.47436
1.7755853,115.35373
1.6761732,111.969215
1.6868209,111.5268
1.6318477,112.248566
1.6938579,111.08942
1.6595031,114.120445
1.6021404,110.78851
1.6428689,110.79567
1.6171083,107.066795
1.5831192,108.76911
1.4895295,106.901855
1.5240991,105.646965
1.5440314,105.60584
1.4838598,104.73731
1.4446923,106.31978
1.4713051,101.79218
1.4587836,100.619385
1.5781701,100.77675
1.5059799,100.382774
1.4086108,98.435005
1.4436582,98.53023
1.5003569,98.37769
1.3121964,94.68958
1.3920884,98.29699
1.3678792,97.61985
1.3573515,93.84902
1.3598287,93.64555
1.2652857,93.07619
1.2115585,91.704346
1.2003726,90.8986
1.2237642,89.36152
1.0958167,92.55701
1.1086565,92.3965
1.129881,87.696335
1.0418631,87.624435
0.94856405,86.16774
1.0068307,86.446335
0.96523213,85.974205
1.0003288,85.540886
0.99154115,84.224724
0.9354514,83.3182
0.8976803,83.39214
0.9362488,78.86454
0.9881032,77.58189
0.86252266,77.51643
0.87530917,78.535255
0.9419051,77.58914
0.88845897,78.00869
0.8460588,74.434616
0.9049483,76.77726
0.8419582,75.55454
0.8539223,75.18991
0.87204224,74.421875
0.77455944,75.98171
0.7245101,75.20049
0.72397,72.8509
0.6951627,72.81551
0.6776961,72.10824
0.6617187,72.797134
0.6469211,75.219124
0.7025422,73.403206
0.48643738,72.994225
0.55594456,76.67795
0.5786333,75.14691
0.43966976,73.088585
0.406762,74.25194
0.46933565,79.50823
0.49378318,78.51867
0.5438894,78.65793
0.46255752,82.21081
0.55161685,80.494644
0.6541857,81.09293
0.61159855,83.44727
0.64061856,81.585976
0.7788218,82.59481
0.91637176,85.9126
0.9207401,87.9617
0.9402902,89.90407
1.0762361,92.96673
1.1600543,94.59222
1.2229651,93.738846
1.4020952,94.206764
1.3167257,100.241714
1.4683849,98.22335
1.4174858,101.4695
1.5093817,100.83628
1.5128438,102.1077
1.5495062,104.08983
1.6804364,105.67126
1.638629,106.90728
1.7091143,108.32793
1.8197613,107.909546
1.7610493,108.98871
1.8124012,110.92472
1.8338237,109.39225
1.8524848,113.61479
1.8499658,114.659325
1.888794,114.0808
1.9331138,116.445854
1.8658587,117.56345
1.8268645,115.81959
1.8650191,116.484024
1.8177863,117.37407
1.86686,117.76711
1.8082649,116.11314
1.8360581,117.43977
1.7207974,115.24849
1.7227571,118.95242
1.6442572,114.20921
1.6838763,117.199234
1.6495178,115.05211
1.6593621,115.05246
1.6120697,115.245605
1.4795456,113.52181
1.4663775,115.56157
1.4834795,115.032196
1.5259448,110.6754
1.4481701,111.772026
1.380906,111.13392
1.3915437,109.053505
1.4188063,107.32878
1.3550702,105.03841
1.3041328,107.846954
1.3061198,106.20544
1.2911702,104.93812
1.210777,106.65321
1.2858936,102.991394
1.3131598,101.88561
1.2498916,100.02786
1.2148831,101.4774
1.1941593,100.28821
1.2393502,101.982574
1.207305,99.2592
1.2289165,97.790565
1.0450433,96.11451
1.0621132,96.967636
1.0979177,94.737686
1.1570234,96.80981
1.0803031,94.97854
1.0541291,94.78596
0.9429988,92.02884
0.92849344,90.53716
0.89353466,90.61685
0.8469618,91.220535
0.8750685,89.08342
0.7998443,88.13361
0.7730263,90.68961
0.6834439,88.12092
0.6637119,87.5836
0.6248913,86.63899
0.6590234,82.62078
0.59868425,85.35182
0.63058585,83.513885
0.4914021,83.00236
0.5695266,79.18449
0.60604864,77.36195
0.6305113,78.32548
0.544853,78.51014
0.58677924,77.08145
0.55828005,76.90142
0.5493675,76.73042
0.51280177,74.61857
0.50376135,71.841774
0.5765512,74.936005
0.5974881,72.95951
0.42351127,73.775566
0.4225565,73.7075
0.36926115,71.84667
0.28258914,72.59273
0.3957558,75.58459
0.3115183,72.590034
0.20594105,76.36623
0.23996559,74.771484
0.14209883,76.37999
0.17491718,77.262024
0.15764081,74.62362
0.121663846,74.57798
0.14067073,72.18281
0.16233145,77.243454
0.13544494,77.363144
0.09745743,78.86831
0.24420181,79.50888
0.1869465,81.82891
0.22679101,81.73549
0.29085585,78.07379
0.33836764,84.62759
0.42455122,87.37588
0.4299312,84.35863
0.55066425,88.169464
0.58788645,89.36485
0.6673451,91.747375
0.66600364,94.00849
0.84031194,97.98946
0.932,97.39852
0.97013175,96.42845
1.0392728,101.15199
1.1008993,99.05492
1.1331728,103.21789
1.2260159,104.99881
1.2605029,107.87603
1.2782824,103.982285
1.2613716,105.24679
1.3309412,108.49421
1.3897383,111.46611
1.3169695,111.57935
1.3585626,111.229935
1.4617144,111.591995
1.4340252,112.55098
1.4477706,114.50427
1.4999859,115.81392
1.4596957,113.07667
1.3993083,117.01325
1.3471856,113.88321
1.3979899,116.71676
1.4556618,115.550224
1.451397,115.884384
1.3559027,118.31472
1.359598,117.757545
1.3511462,116.28678
1.2574917,116.77151
1.1736821,116.62575
1.2551436,115.3552
1.381954,117.50322
1.1892179,112.14707
1.1798238,112.9593
1.1518545,116.09331
1.1445289,111.77834
1.1510131,112.789215
1.0525596,111.61211
1.0606974,112.33616
1.0571914,109.5599
1.044153,111.731766
1.0009575,109.15157
0.9428876,107.87076
0.934076,106.948944
0.8878807,104.725235
0.98813796,104.73792
0.931137,107.23475
0.90223265,103.21919
0.9263315,102.735664
0.9432201,102.18073
0.96674234,101.659836
0.8895036,99.22324
0.7852091,98.17152
0.931101,98.91041
0.8809054,97.67158
0.85774434,97.96326
0.83326554,96.16094
0.7492838,93.41225
0.7310514,93.93239
0.69756603,95.975044
0.68417966,91.98086
0.5553962,92.82187
0.5050793,92.24883
0.5723328,92.6537
0.49230438,89.12802
0.50864977,88.164055
0.42790422,87.279884
0.42377985,87.07456
0.44656795,87.84942
0.44501188,84.746086
0.36485356,83.607765
0.3254323,84.12847
0.39631423,84.420975
0.31154338,83.58402
0.23879986,78.92301
0.41016713,80.00192
0.38607642,76.6956
0.2888234,78.3383
0.28480363,79.04491
0.29067928,79.50925
0.2718507,77.02006
0.24894147,77.57345
0.23757799,78.177605
0.2992568,74.6483
0.26683924,73.8027
0.13294782,72.81414
0.21202925,73.3522
0.2060119,73.04952
0.12751316,74.81791
0.17726363,75.06972
0.17786954,73.63107
0.08730398,71.92709
0.019348895,75.17855
0.021225676,72.93927
0.0013137836,72.0936
0.046576783,76.661674
-0.10995304,74.73003
-0.03470377,75.75513
-0.015193404,76.53891
-0.12062738,76.77076
-0.025869561,77.16268
-0.09412865,79.90536
-0.002319937,77.8884
-0.013178006,80.25504
0.10034943,83.67092
0.094097316,82.55704
0.309311,82.97804
0.23799445,86.124275
0.3539402,89.24729
0.52424526,87.35886
0.54789907,88.21027
0.58287174,93.40043
0.73043007,93.12267
0.8263241,94.216125
0.73062074,96.26086
0.80551136,99.16174
0.9934371,98.74284
1.0231414,100.568184
1.0916857,103.02656
1.1392871,103.39908
1.2051156,104.69955
1.1932381,106.60568
1.2734642,107.205
1.2905725,107.3548
1.307015,108.90507
1.366366,113.46548
1.397723,111.64339
1.349669,113.88301
1.3970841,114.676414
1.4757588,112.51234
1.3711282,117.76219
1.3759145,114.53889
1.4771594,116.60614
1.4549229,117.96373
1.3990673,114.75154
1.4916787,117.47083
1.3272371,117.2238
1.3812991,117.47957
1.4041941,117.26562
1.3983568,114.76193
1.3456018,116.79666
1.3514516,117.77945
1.431058,116.01952
1.261916,114.08789
1.2603273,115.36243
1.315394,113.48524
1.2192975,113.91912
1.2279284,114.2209
1.2263061,112.33043
1.1799314,110.994484
1.1263816,109.1524
1.1040846,109.68809
1.1553254,108.80463
1.1678863,111.8634
1.1351494,110.03612
1.0357752,109.64056
1.1220868,104.974976
0.9985762,106.622665
1.1369812,101.881035
1.09132,102.37536
1.0156438,103.92724
1.0077815,103.09466
1.0787857,102.263596
1.0797336,98.57386
1.0648358,100.345764
1.0089324,99.57772
1.0059335,95.65941
0.92253804,97.237366
0.978678,96.64727
0.98038363,92.81479
0.92402583,93.635475
0.78415453,94.28823
0.8791117,94.161255
0.8339983,97.04547
0.78818226,91.23972
0.7078897,90.619576
0.76826054,90.16902
0.68983316,88.523575
0.6722302,88.372574
0.688063,88.57943
0.65916014,83.8018
0.5769583,83.02058
0.64723766,81.77328
0.57960624,83.236496
0.51448506,82.124275
0.5022155,82.343864
0.5674907,80.559296
0.56459117,80.68076
0.54151654,79.953995
0.5314124,78.835686
0.60396767,80.67467
0.62237537,77.315384
0.5748831,75.91794
0.6110424,76.41288
0.5362735,75.156204
0.51663625,74.6414
0.52966285,74.838295
0.50566584,75.32923
0.5398029,72.36326
0.48280695,74.73417
0.44791862,72.06856
0.4237567,74.75065
0.4663061,72.835396
0.43750986,73.83041
0.4382336,74.86382
0.27535775,74.46172
0.30191207,74.37364
0.17284435,74.29834
0.2843709,74.72108
0.21168016,75.290764
0.21175438,75.95072
0.22584085,80.08249
0.30890375,76.16446
0.35144895,79.53723
0.4332552,80.82387
0.40126094,80.76775
0.504935,82.992065
0.5222022,84.148
0.59231025,81.50965
0.61164516,87.06215
0.7211901,85.60009
0.70255744,88.47604
0.8185818,88.91645
0.9472675,91.78788
1.0644978,90.49394
1.2379155,92.02623
1.2214806,94.83809
1.2847891,98.38263
1.3525001,100.72722
1.4112448,101.258965
1.4036229,103.21256
1.4965634,104.46901
1.5396112,107.94865
1.6288851,106.446495
1.671281,108.735344
1.7059399,109.05306
1.6545422,108.15881
1.796706,112.13599
1.7748616,111.598526
1.762222,112.012566
1.8112137,115.229256
1.7632703,114.419846
1.7884561,115.78646
1.8746917,115.4498
1.8809123,116.66681
1.7862242,114.96176
1.8666395,116.656166
1.8583443,117.53658
1.8110695,118.06165
1.7684904,116.611305
1.7425327,118.50273
1.7891935,120.08695
1.8048304,116.69043
1.7537473,117.07453
1.7112255,111.70425
1.5981427,115.921165
1.5379012,115.36142
1.5629909,113.61182
1.6395098,112.06646
1.5143796,114.73827
1.5508244,112.68478
1.4746819,110.809395
1.5638062,108.69843
1.5271356,111.15955
1.5577694,107.78105
1.4805083,110.932945
1.5464995,107.72667
1.5168285,109.17591
1.4632291,106.28216
1.472475,103.31013
1.3894209,103.80733
1.5127583,102.73556
1.4872873,104.12812
1.4440997,101.24768
1.4267433,102.25157
1.4068762,98.31161
1.4021453,95.730545
1.3790978,99.25229
1.3982695,100.03855
1.3612379,98.657814
1.3325014,98.267815
1.3604832,94.61716
1.2847465,95.06863
1.2337344,93.7295
1.2682556,92.269485
1.176261,93.040726
1.1856169,88.56434
1.0662113,90.478615
1.0658177,90.479195
1.0426965,90.09255
0.98750234,86.843376
0.9392346,85.34713
0.9910244,86.87025
0.88096577,86.66158
0.9758299,86.078636
0.8672852,86.95206
0.8585798,85.022255
0.9263912,83.15427
0.99139655,82.282974
0.8720291,82.93054
0.91913795,77.96355
0.86697966,77.55104
0.86068636,78.485245
0.8793216,79.29816
0.93361,78.91545
0.83917814,77.76042
0.8709691,79.22895
0.9645135,71.728096
0.897598,75.79367
0.78843504,73.67463
0.81473213,73.49265
0.8083,72.96621
0.74558336,73.064964
0.7467795,67.82108
0.6420853,72.44225
0.69082516,70.63486
0.6069671,72.88384
0.559537,74.073586
0.59025866,75.3712
0.6372494,73.38425
0.59662944,75.12465
0.5432152,74.531555
0.5128863,77.49973
0.5430039,75.21365
0.63748455,77.96616
0.6215445,78.06813
0.60955733,77.54153
0.66477156,81.19735
0.64091814,82.3386
0.74368405,80.53068
0.7856803,83.39451
0.8591811,86.030685
0.9516237,86.51881
0.9921831,86.514984
1.1109561,88.7892
1.1738862,90.68475
1.2803168,93.9775
1.3213699,93.794815
1.424732,96.27025
1.4584934,96.30975
1.5066118,100.78606
1.5928687,102.55861
1.7102131,104.85225
1.6206697,102.715996
1.8448242,101.878235
1.8855224,106.83062
1.802817,106.823616
1.8895482,108.535385
1.8989975,110.82521
1.883298,111.34139
1.9458404,111.60747
1.9984226,115.32771
1.9558209,111.51261
1.9252944,114.639366
1.9276117,115.4509
1.9784908,117.50277
1.9424801,117.66059
1.9504206,115.83071
2.0311658,115.663025
1.923538,116.140274
1.9408637,114.06904
1.9176801,115.04718
1.9530109,116.69155
1.786392,116.6973
1.8503816,116.63541
1.8594975,115.73138
1.7972739,115.33715
1.756422,114.893616
1.7370076,112.73307
1.76114,112.49039
1.6824138,112.09326
1.589968,112.132774
1.6346306,113.15821
1.634917,110.82681
1.6685414,112.9608
1.579145,111.00659
1.4576497,109.75127
1.4483659,108.29739
1.550833,107.173004
1.4690175,107.05208
1.4681134,105.104195
1.4346802,106.985985
1.4587902,104.790436
1.4149935,100.80209
1.4360465,102.21174
1.4113737,103.5105
1.3908963,99.819214
1.429191,99.357834
1.3198888,100.116135
1.3884555,96.930855
1.3761735,98.2702
1.2579557,98.45862
1.3226037,96.374115
1.219837,92.67611
1.1953624,92.914024
1.183731,91.33156
1.1187806,92.56115
1.0949569,91.6628
1.1401025,92.92466
1.0162107,90.46923
0.99145377,90.59122
0.91593504,86.78291
0.9247638,87.04428
0.9145578,84.677795
0.821698,84.26004
0.84906936,85.48576
0.85975367,84.44109
0.8351734,83.001434
0.83199644,83.03271
0.7723793,81.717735
0.8367834,83.00939
0.8085443,78.27626
0.67404664,81.50426
0.7820296,78.82697
0.74929285,78.141716
0.737173,78.91518
0.7522363,75.39792
0.81030107,75.42635
0.65366757,74.464714
0.6731622,78.518234
0.6073677,74.183426
0.62625563,74.86811
0.63984567,72.82042
0.56432825,74.64194
0.53614676,72.94078
0.560159,71.87328
0.47283933,74.70762
0.48368326,74.57501
0.43051317,74.44946
0.34432447,74.504265
0.44994476,73.78883
0.32226163,73.923485
0.3386854,74.476425
0.3497955,74.01146
0.2773048,76.572495
0.34054205,73.289986
0.30032748,78.63776
0.32222208,80.96608
0.34643838,80.948906
0.3959931,82.47437
0.44584304,78.553894
0.59523576,83.75191
0.5560891,83.70982
0.6845751,85.828
0.63262355,86.3277
0.6523711,87.86
0.88820106,90.20548
0.93469197,92.78452
0.8933033,93.85383
0.9705715,93.04985
1.1141832,94.77182
1.1303335,96.1338
1.1440008,99.72402
1.2936788,100.64518
1.3394909,100.9734
1.3064015,104.081566
1.391021,106.70329
1.540177,108.49465
1.5217868,106.534966
1.6486386,108.388245
1.4699007,111.51848
1.639292,112.01158
1.5759672,110.43238
1.635097,110.861145
1.536423,113.22502
1.6209568,113.93726
1.5856797,115.78742
1.6517087,113.26678
1.5439881,115.048996
1.5402918,115.10402
1.6233537,113.35581
1.5477258,116.78237
1.4850421,119.83312
1.4811586,115.55063
1.5603651,115.71965
1.475408,117.37938
1.4450773,116.61872
1.4396983,120.543625
1.428345,112.84787
1.3803507,116.160904
1.3699138,113.854324
1.3532503,115.211426
1.3474739,112.998245
1.2571574,112.38292
1.3305229,113.713295
1.1676322,107.63411
1.2569286,110.26806
1.2397184,109.65607
1.1661438,110.586975
1.1706235,106.97844
1.1454352,109.245384
1.1659801,106.6385
1.0672278,106.00327
1.08706,103.61633
1.0486189,104.42097
1.0015736,101.41916
1.0184658,102.29237
1.0205573,102.19903
0.9775574,102.32999
1.0145257,102.3999
0.93506604,101.834724
0.94610494,99.024
0.98059976,95.88577
0.97818756,97.58378
0.94700557,96.438965
0.86322093,92.74425
0.82028097,96.16795
0.7500587,95.165794
0.7960313,92.558395
0.8085327,92.857475
0.66944313,91.17463
0.6340233,92.25358
0.70576835,90.29713
0.6463606,89.32928
0.549159,87.235565
0.5188315,84.16599
0.46577278,84.69049
0.47786167,83.48639
0.42744127,82.97797
0.4180254,81.16657
0.45919356,80.22038
0.3480756,82.97047
0.36913788,80.725655
0.45708546,80.52195
0.35777074,79.547
0.41086462,80.807594
0.45867762,78.50178
0.3236507,76.04103
0.36159354,75.50444
0.4030994,76.94749
0.31598043,76.84973
0.37392303,78.757126
0.29087427,72.59264
0.27412677,72.00485
0.31892967,72.6825
0.28604642,70.97647
0.2809821,75.22297
0.17669019,72.42351
0.17092416,73.771034
0.18296126,73.9675
0.073723294,75.31794
0.014274475,75.490135
0.045084603,72.13248
0.014240449,77.15824
-0.0032106012,77.019714
0.0020682616,75.24255
0.0041486085,75.11313
-0.04800313,77.59271
-0.07674654,75.89458
-0.023712272,78.21885
0.04251278,77.04012
-0.010605756,78.59504
0.13684888,79.43998
0.21145643,83.470726
0.20286436,85.305214
0.2510824,84.80984
0.40324342,87.33737
0.37567857,87.92445
0.5701321,91.781425
0.61706424,90.091705
0.65539956,95.03346
0.7437966,98.38595
0.8292996,96.80681
0.8552989,96.364235
0.8767866,102.63668
1.0236075,101.593506
1.0866778,102.06496
1.1453103,104.4704
1.1073732,105.94129
1.196302,105.5226
1.2309082,109.3221
1.352711,109.288414
1.3917218,108.071495
1.2869099,110.786224
1.3507873,113.819466
1.3510396,113.2124
1.3097383,113.73944
1.3701104,114.062485
1.3994277,114.67539
1.3568244,119.989395
1.2793177,114.58666
1.3986434,117.16755
1.33352,115.03081
1.3471538,117.21516
1.4077555,116.29394
1.3818792,119.87483
1.252167,117.691895
1.2679297,115.55005
1.2950811,113.14787
1.2422671,117.41869
1.2940863,113.90449
1.2891823,114.58955
1.2353357,112.371574
1.1384939,113.750275
1.1683064,114.86111
1.1431049,113.04261
1.1032468,112.06374
1.0273956,109.61671
1.096403,107.97489
1.094113,109.0829
0.9765521,109.045265
1.0028106,108.64155
0.9095332,110.7574
1.051857,105.37279
0.99552554,108.50588
0.8808284,105.14364
0.94286954,104.37819
0.94897294,104.73755
0.91403353,103.48591
0.95284224,101.86382
0.94521016,100.63641
0.8965874,99.35575
0.8608717,100.876274
0.86564773,98.45643
0.9262953,97.47793
0.8475589,97.4964
0.8011687,95.20609
0.74380016,93.97081
0.7593897,94.18161
0.7750289,91.75486
0.72071,92.60061
0.6930778,91.21741
0.677088,90.23873
0.56139016,91.757706
0.63858616,90.757614
0.5621291,88.39044
0.4885027,85.72735
0.5150507,87.53836
0.4282639,86.178375
0.42592213,86.42466
0.4294843,84.54531
0.41144496,84.03988
0.41922575,84.44661
0.34361362,82.2306
0.3549938,80.59323
0.4363045,80.74095
0.45354852,79.38128
0.49805683,78.4978
0.47608754,77.43818
0.4283062,77.879364
0.4280252,79.630165
0.30783176,77.28386
0.45679837,74.6708
0.38912258,78.006645
0.36291996,75.82166
0.36696246,71.3012
0.3522699,74.718636
0.32874852,71.379845
0.29256248,73.27028
0.24532142,71.075096
0.24247426,74.195496
0.17617135,73.83168
0.159135,72.611595
0.14999707,72.14522
0.109787256,72.89922
0.15468611,74.144005
0.07704825,75.54373
0.09166679,77.14786
0.064320356,80.07218
0.14020383,76.14526
0.14348796,79.836754
0.2103633,78.25057
0.1595261,80.10073
0.18108244,81.89683
0.26850945,79.71896
0.310797,81.953575
0.3224502,84.041725
0.46866304,85.762024
0.5137973,88.80015
0.59679,89.45713
0.771632,93.64946
0.7537438,89.623146
0.87730163,93.59959
0.9132875,95.249886
0.962089,97.054924
1.0446136,97.0435
1.121915,99.79883
1.1260527,99.76904
1.2715561,102.46008
1.2938005,102.5666
1.4269756,103.34718
1.3930342,106.36124
1.395582,107.35312
1.5200057,106.9105
1.4568714,109.13805
1.6035163,110.2131
1.5851357,111.51865
1.5559726,110.949295
1.5723934,112.71891
1.6919339,116.064545
1.6805761,113.463936
1.6499301,115.75128
1.7060815,117.652916
1.6389401,117.935036
1.5958037,117.47702
1.7003301,115.736946
1.5959529,117.383385
1.6174599,119.68802
1.6856775,118.924255
1.5951041,117.492035
1.4972987,113.57397
1.5238189,117.60656
1.4314852,114.94133
1.4797642,112.40739
1.5936071,114.721565
1.5593151,116.13834
1.5043048,113.36156
1.4149275,112.51535
1.364717,111.85282
1.404861,108.63816
1.3281541,109.75105
1.3211654,109.41573
1.3100028,108.61845
1.3392214,106.96325
1.2644678,109.17755
1.2861673,108.41615
1.2466155,106.543015
1.3215971,105.13322
1.3599623,104.750824
1.2877369,104.572136
1.2728837,102.68378
1.3113803,102.51871
1.2223791,104.09745
1.3678039,99.677444
1.2535217,98.715485
1.2710956,97.45834
1.2656755,96.895645
1.1919976,96.81907
1.1582931,96.56261
1.1170721,94.79515
1.1676489,95.02277
1.0429969,93.872444
1.0683025,91.61042
1.0320299,88.724724
1.047012,88.55101
0.9346521,91.79735
0.9399811,88.25128
0.9508115,88.72107
0.8835237,85.62734
0.845691,87.57622
0.9206286,87.17873
0.851972,80.74196
0.8512491,86.10304
0.7395269,84.96771
0.7630943,83.02482
0.8136523,81.76794
0.84568465,78.60694
0.8537039,81.277435
0.8079075,80.8461
0.6962711,77.78857
0.7994587,79.119644
0.91202635,76.04777
0.77616256,78.26217
0.73588103,77.32557
0.8670047,75.49534
0.81664973,76.47714
0.8498864,77.40189
0.7711456,74.42796
0.7469772,71.33479
0.7234422,72.02496
0.5866973,74.378174
0.601623,73.20915
0.5831822,74.17251
0.56577224,72.94475
0.53689814,72.882195
0.5936651,74.68763
0.40053543,75.97922
0.5073725,76.54412
0.45810083,75.79
0.42360535,74.34383
0.5240932,78.745056
0.48674268,77.128174
0.41999093,76.901405
0.530636,77.22877
0.47689733,78.889206
0.57496315,81.36813
0.68149304,85.63971
0.69177365,82.04759
0.7992049,82.79944
0.7932908,85.32226
0.8763741,86.37453
1.0185621,90.44163
1.0332316,89.11115
1.077901,91.050606
1.2589098,94.228935
1.3095833,93.98392
1.3518763,97.087234
1.4358561,96.276566
1.4894211,101.07565
1.6459688,102.1943
1.6647379,102.00469
1.7266759,106.254196
1.7741386,107.02517
1.8299221,106.54444
1.8025917,106.4189
1.9248291,106.498215
1.8452082,110.338326
1.798527,109.58348
1.9256676,111.23789
1.8534281,111.456406
1.9364136,115.86225
1.987101,114.80107
1.8995862,114.31475
1.93513,113.77235
1.9861283,117.21576
1.8761156,117.28328
1.8599936,119.536964
1.9307364,117.61566
1.8464895,115.74035
1.8913265,115.119644
1.8615785,116.99545
1.9063532,119.01943
1.9105927,117.19423
1.8366989,119.588066
1.7906991,113.55436
1.8370947,114.45146
1.7695092,114.87431
1.7057587,113.96867
1.7005022,114.42542
1.6870916,113.76259
1.76507,112.61991
1.6907865,112.20874
1.6327448,111.18202
1.574931,112.37785
1.6004763,107.15773
1.5875677,105.15743
1.572564,105.90283
1.5185492,106.737625
1.5369226,107.22077
1.4743468,105.67063
1.6598486,103.82985
1.5540645,104.39649
1.4913687,101.11977
1.4943902,102.71346
1.4434303,101.00029
1.5028398,99.01885
1.4825523,97.82149
1.4611163,101.18066
1.4420155,99.51777
1.4125106,99.5734
1.3606174,96.00302
1.3554068,92.39825
1.3215114,92.22729
1.2783611,93.650894
1.2572596,91.81877
1.2663218,91.57665
1.154793,91.74361
1.2064486,89.78622
1.1126518,90.72678
1.0618414,87.675644
1.1014624,88.486176
1.0247611,86.55607
1.0338275,87.99282
0.9540118,86.33689
0.9237435,85.16575
0.96228963,84.091095
0.98396367,82.82416
0.99471456,84.32069
0.9726952,79.12428
0.8142969,79.98466
0.9557834,79.286385
0.7585891,80.29506
1.0133294,80.2818
0.7834991,76.4382
0.8602476,73.68693
0.90737927,77.422165
0.8254012,74.75286
0.8847881,75.89612
0.82560366,74.63304
0.8787685,73.17277
0.7761554,73.496284
0.76562804,74.04044
0.6005187,72.1513
0.7029756,74.68439
0.69780463,73.92968
0.72180563,72.77908
0.6663103,73.24896
0.64394075,72.50658
0.501462,72.66683
0.4932401,75.074326
0.63703954,74.41442
0.48418486,75.305176
0.46012184,78.08672
0.48212406,75.54879
0.43871912,79.10024
0.58781105,82.338036
0.53700125,80.78082
0.5768596,78.80365
0.6653399,81.31814
0.7153994,82.63214
0.76954174,85.96836
0.7951545,84.076904
0.9331474,87.98878
0.9239764,88.51526
0.9961329,90.48058
1.1378529,91.36351
1.1750337,93.188156
1.2967726,97.12008
1.3294754,100.00135
1.4478911,101.571846
1.4828913,98.77923
1.4255328,99.66405
1.5880526,100.80053
1.635294,104.87618
1.6396255,107.71432
1.7180613,108.334785
1.6400685,107.31865
1.7454255,110.808945
1.7320504,111.58921
1.7925205,109.13441
1.7921704,113.27004
1.7662288,111.28085
1.8743354,112.60433
1.8337009,115.75155
1.8140835,114.84535
1.8488262,114.03449
1.7913519,116.24489
1.7944272,114.685455
1.8361725,117.59742
1.8096896,117.71072
1.6730835,116.59378
1.7849308,115.81981
1.7533963,119.79484
1.7056047,116.48998
1.6483678,117.15441
1.654767,115.33521
1.5880513,115.46129
1.6142422,114.35069
1.4959192,114.19311
1.5649961,112.40085
1.467999,111.90797
1.4619035,112.575645
1.513727,109.402
1.4820725,109.54748
1.4186662,112.27705
1.4085914,107.53239
1.3416942,109.358536
1.3250117,108.67576
1.2337145,105.10847
1.2896436,110.268196
1.3301678,106.97009
1.2492806,104.02321
1.2287894,105.960434
1.3911827,103.52409
1.214215,100.592766
1.3383545,100.32824
1.1411195,101.47635
1.2191551,97.486984
1.1941497,102.328575
1.1387497,97.23671
1.1419401,97.34499
1.0264373,96.60201
1.0626252,94.29126
1.0706705,98.53182
1.0194708,93.17861
0.97930586,94.45828
0.90924937,93.19975
0.8989379,93.62557
0.87234807,89.66979
0.784039,91.90672
0.8275094,89.63478
0.6455351,87.605484
0.72870475,88.0009
0.704896,87.663246
0.6592213,84.98395
0.6068639,81.653625
0.6177046,83.42658
0.5918423,81.71188
0.5805323,81.344955
0.51586246,80.95769
0.6342668,81.8093
0.5077678,79.99773
0.5735397,82.04411
0.6043884,80.3088
0.52744377,75.34868
0.61673856,79.39249
0.50286466,77.6778
0.5028708,74.45654
0.50447464,76.13958
0.5429583,75.22112
0.55987203,76.34747
0.42108965,74.841736
0.48679978,74.43678
0.35951945,72.006035
0.3425299,74.875885
0.33458185,72.99505
0.21696477,75.45332
0.30159882,72.64872
0.21477911,73.38481
0.15276144,74.99383
0.075840406,74.74924
0.12561513,71.42028
0.01566855,75.43601
0.13105795,73.64875
0.04193276,76.695946
0.056832008,77.3609
0.13274054,78.819336
0.05869027,78.90823
0.1684154,78.29777
0.15312739,82.11298
0.25084656,81.68999
0.34867406,84.227745
0.4452532,84.100296
0.5145621,87.945435
0.47104523,88.54844
0.5541167,87.668
0.646318,88.86783
0.72828203,92.0201
0.8479873,93.363144
0.8197852,93.13763
0.85888064,96.32379
1.0252694,97.05133
0.95287615,100.7936
1.1719159,101.38794
1.1673807,103.548225
1.2208402,106.38515
1.25651,103.26733
1.3041394,106.866646
1.348118,109.8668
1.431164,109.99747
1.284395,107.610535
1.3634118,111.508865
1.4316468,110.81642
1.3482676,115.27207
1.4657851,113.1046
1.436362,116.2329
1.4595224,114.0818
1.4352778,114.79465
1.4944334,114.23138
1.386641,113.67947
1.3429013,117.114555
1.3642567,116.08776
1.351773,118.97188
1.3534433,118.22949
1.350535,118.134415
1.2645545,117.67489
1.2969126,116.405174
1.3131176,116.20137
1.283983,112.31942
1.2647865,116.08882
1.1748133,113.62488
1.2677189,115.27919
1.2163577,111.21883
1.0950537,113.388794
1.1294597,113.22383
1.041053,111.20994
1.0781815,114.07194
0.95936567,110.10495
1.0229049,108.6421
0.9594988,107.43424
1.0520908,108.090805
0.97466373,102.337105
0.9753891,105.357216
0.9216796,102.35734
0.9349546,102.76831
0.8562159,103.64686
0.97242814,99.650406
0.8666207,102.42145
0.9277709,100.32695
0.8555408,98.048546
0.8378357,96.05266
0.8547902,94.894165
0.8498449,96.1458
0.8932833,97.37255
0.7252183,97.17452
0.7090802,96.52932
0.6266769,94.5147
0.67855066,94.123215
0.6449077,91.3066
0.74660367,89.94504
0.6161886,90.65413
0.51372766,89.62198
0.5432979,89.28058
0.5297787,87.67644
0.38439795,87.503044
0.45546758,86.43148
0.40099654,86.87356
0.38195547,86.54139
0.36426896,83.84109
0.38015,85.32198
0.3493277,82.93252
0.32354435,83.63466
0.3478993,79.3416
0.33314207,81.29937
0.34888858,78.45794
0.3204922,78.333466
0.34045997,77.606026
0.28813747,78.4617
0.28529203,74.346115
0.30122268,75.351456
0.28896332,73.83061
0.2215353,74.42817
0.26274696,75.229065
0.25172618,73.57177
0.24949816,72.69958
0.17768116,73.58644
0.09026115,73.155685
0.20859762,69.60554
0.14579967,73.04474
0.11558335,74.01254
0.044722043,72.930214
0.0012585943,72.73067
-0.00137103,76.945435
0.055352893,76.527054
-0.06575573,76.47159
-0.10062303,75.87919
0.027594917,77.174995
-0.039777152,75.20267
-0.027922,76.51228
-0.002012393,78.86142
0.08655114,82.43033
0.035002362,79.87566
0.07643747,81.08624
0.14231016,82.118
0.26675484,88.61995
0.36038044,85.3431
0.5186854,88.3078
0.5114103,89.644394
0.59947383,89.67701
0.61980546,96.32108
0.7895368,91.95349
0.7782674,96.54285
0.95588154,92.70887
0.8860118,98.10579
1.0622623,99.78751
1.0285305,98.21483
1.0847154,101.79899
1.2755437,104.80324
1.272524,105.226944
1.2838954,106.78612
1.3207027,108.83233
1.3177085,107.747406
1.3201296,108.69581
1.408707,111.02588
1.2843192,111.90139
1.4443101,113.96182
1.3876469,115.955284
1.4908227,113.98952
1.418503,110.69128
1.438972,115.55464
1.4213866,118.59023
1.4386839,116.26192
1.4944439,118.44635
1.450705,116.064186
1.3911673,116.916855
1.3597881,117.83623
1.3709092,115.58938
1.3429726,116.78837
1.4238173,115.62935
1.311184,117.753235
1.3380998,113.23191
1.3029052,116.2978
1.2637448,114.95663
1.2579553,113.15275
1.2709147,113.68017
1.1661831,114.31018
1.2748446,111.84779
1.2172233,110.93033
1.2142656,111.35892
1.1942036,109.06547
1.096162,110.782364
1.1577321,107.58165
1.1223558,107.60792
1.0925446,106.73499
1.2051249,105.90053
1.0428317,106.95461
1.0752876,104.46092
1.1975578,105.48847
1.0815343,105.177505
1.0003188,103.885956
0.9788364,101.92542
1.0594705,100.41765
1.0559031,101.759926
1.043173,99.495766
0.92076945,97.944435
0.983567,95.54539
0.89928,95.5333
1.0370737,95.07774
0.87629753,95.33301
0.92804945,93.85625
0.7654306,94.23892
0.8432185,91.6
0.70471567,90.42117
0.8665937,87.449104
0.70613694,85.59242
0.6697249,87.80857
0.7093285,86.76798
0.726863,85.94045
0.5658461,87.60534
0.63202465,84.29814
0.66925377,86.242004
0.56299806,81.66085
0.5802839,79.8801
0.63431644,83.758736
0.61835724,80.49797
0.55159587,77.93479
0.5814607,79.40415
0.5985074,78.04686
0.5727663,81.15226
0.6627031,78.43636
0.6308707,74.9841
0.6650272,75.74367
0.6094297,76.74555
0.50903684,74.98793
0.4951173,74.91526
0.59619415,73.091644
0.5704641,72.488556
0.49510193,72.56709
0.45231327,74.75724
0.44182488,73.56174
0.47797695,74.048546
0.3602332,73.33309
0.31666997,72.07773
0.3727908,78.95516
0.27943406,73.187546
0.30152026,75.48159
0.4170049,74.22869
0.29579625,76.62088
0.35697272,74.75177
0.42004025,74.45785
0.2961265,75.120445
0.3605221,77.51728
0.34129846,77.79929
0.4024746,82.705635
0.55693996,80.521225
0.50245315,84.546394
0.56132686,85.5421
0.6808229,86.69298
0.79599905,87.4301
0.74258834,88.74175
0.98009574,94.02987
1.0815593,90.62485
1.072957,92.63328
1.2460926,93.230896
1.1706754,94.33182
1.2934079,99.65497
1.370473,103.47209
1.4543228,101.2501
1.4764225,105.5546
1.5979195,103.30013
1.591969,107.94203
1.6105727,105.78437
1.6971277,106.35994
1.7646766,109.352936
1.7186857,109.47804
1.8006749,111.91732
1.7492564,114.14571
1.7393612,114.17796
1.8269271,115.08168
1.7799925,113.28657
1.8696892,117.186714
1.8279772,115.32418
1.8606158,115.85722
1.7932185,117.02735
1.8571322,113.35291
1.8914936,115.782974
1.850486,115.85571
1.7483541,117.547874
1.8196226,116.37536
1.799032,117.86289
1.7700351,118.0249
1.7428997,116.242134
1.7392602,114.85163
1.7215862,115.03735
1.7292267,114.5421
1.701017,112.18686
1.6228311,115.77262
1.6614152,112.09068
1.5884086,114.88873
1.4983691,111.46194
1.485427,113.037796
1.5659397,110.496544
1.6032976,108.84149
1.4778866,107.20238
1.6053321,109.64346
1.4334623,106.41502
1.4614074,106.92915
1.5079163,103.878395
1.5074344,106.77986
1.4558533,101.85296
1.5159321,102.66317
1.4633672,101.380936
1.4495149,99.68595
1.3813636,101.38889
1.440748,100.22929
1.3618839,97.389595
1.3048953,97.121895
1.4285266,93.66076
1.3540173,95.8352
1.26709,94.8512
1.2969654,95.96262
1.1800327,91.609085
1.2021124,92.652756
1.2715161,93.113266
1.1344908,90.29962
1.1297116,85.3912
1.0242326,87.52934
1.0985725,86.926605
1.0779256,86.53913
1.0368813,88.511665
0.96183485,86.53684
0.9914642,84.81696
0.94162357,81.78488
0.8808963,84.10313
0.85823536,81.10621
0.88324034,81.67487
0.93249184,82.21469
0.85090446,78.90049
0.90715116,76.95691
0.8858438,74.50777
0.9278245,76.09807
0.93025255,76.53797
0.8377193,77.87516
0.8673647,76.23055
0.8636482,75.95148
0.8912437,75.29231
0.8811665,75.70639
0.77223724,72.997765
0.81114507,71.453804
0.7952203,71.18559
0.8230499,72.164
0.68389225,76.47776
0.6076298,71.22209
0.5648309,70.25892
0.62168264,74.593155
0.6474508,72.54583
0.5994806,75.9312
0.5993745,73.612495
0.52965325,76.81119
0.5298841,76.01366
0.54456514,78.530304
0.5643947,76.0206
0.6920098,79.386185
0.5250574,78.658844
0.6047049,79.72269
0.6555538,83.956535
0.6908381,82.826904
0.7126121,84.83896
0.8591726,84.8536
0.9095643,86.58771
1.0466216,88.32507
1.066819,91.7363
1.0927099,88.63515
1.2662724,90.45399
1.276317,91.68026
1.3119237,97.1581
1.4694624,95.954926
1.5869579,98.278114
1.57403,101.48449
1.605698,100.88573
1.7089992,102.99244
1.7192909,104.9546
1.8470963,106.87437
1.8108263,105.78918
1.7644293,108.8526
1.8667147,109.16436
1.7205322,111.64196
1.8624971,111.49852
1.8418275,109.97247
1.9207681,112.25202
1.9465215,115.40693
1.9910326,112.108444
1.8443682,116.33664
2.0342455,117.028564
1.9650316,116.895676
1.9530432,117.100334
1.9930401,116.2938
1.9525886,114.865746
1.7852414,117.17148
1.9000508,117.98581
1.849254,115.24412
1.8175018,114.329155
1.8590639,116.18714
1.8403747,114.61319
1.8054843,116.6703
1.7312908,110.88935
1.700192,112.840775
1.7569436,114.69599
1.5965858,112.70035
1.5859994,114.45273
1.6605161,111.14097
1.6236053,111.19618
1.6237168,109.37751
1.6264154,109.54393
1.4756538,111.5289
1.4867158,107.55701
1.506481,107.845634
1.4934025,107.13571
1.3817207,106.46784
1.4384767,104.02543
1.4246042,105.93583
1.488636,103.613655
1.3809602,101.8215
1.3709618,101.362946
1.4097645,99.104225
1.3120604,99.715096
1.295606,99.78853
1.3050847,96.5014
1.3649241,94.817474
1.2948667,94.45771
1.2277735,97.54458
1.2120205,92.89081
1.1664875,94.81866
1.2100729,94.09415
1.0731126,92.27092
1.0934224,92.61162
1.0406322,91.88896
0.9660622,87.94812
0.93899655,89.033585
1.0008043,87.43732
0.9257908,88.41325
0.8975703,86.48366
0.84907657,86.37386
0.8656037,81.64567
0.7654582,83.30374
0.8182439,83.86493
0.73559463,78.685745
0.7563415,81.76953
0.7172302,81.833496
0.7588137,77.516716
0.7795118,76.08376
0.72893506,79.910446
0.76956165,78.23785
0.73495024,76.75154
0.73932326,76.5659
0.7435364,75.03417
0.7302205,78.0446
0.6794587,76.293175
0.6332788,75.68139
0.6164888,74.613304
0.5698587,75.01484
0.5392481,72.52742
0.52633184,72.497284
0.49672836,74.48998
0.44730592,74.81821
0.43772185,70.86946
0.41472045,72.74481
0.43305236,72.587975
0.3550097,72.85515
0.3685898,73.795616
0.28915894,74.51225
0.23710856,75.171265
0.30800286,78.664
0.29163203,78.072365
0.33285215,80.75397
0.38112044,79.50305
0.35417366,81.053635
0.41106954,80.58584
0.45754388,83.23585
0.53884226,82.88583
0.5698576,83.06063
0.61946446,83.45868
0.6640131,87.63977
0.7909849,89.83969
0.8998313,94.85141
0.91718954,92.55315
0.9998979,95.82329
0.9813346,94.20709
1.1761359,95.4237
1.1274401,99.723755
1.1088033,100.10033
1.3734616,100.36434
1.3847351,103.16428
1.371846,107.348015
1.4478132,105.2118
1.4470514,107.504166
1.4846915,107.85688
1.4731383,110.26218
1.5271679,111.58772
1.563447,109.83234
1.5014429,113.013466
1.5425025,113.24393
1.504671,112.96027
1.5847738,114.14468
1.5649394,112.68708
1.577206,115.63633
1.5532757,113.79598
1.4752511,117.12708
1.5102326,118.75187
1.604393,118.440865
1.5037915,113.32931
1.5541992,117.02664
1.5023779,115.523445
1.4771299,115.23721
1.5133575,114.90724
1.4423695,114.53323
1.388752,114.66668
1.3371958,114.61556
1.3248527,111.27291
1.2559832,114.32941
1.2423031,112.89756
1.2840294,110.54499
1.1499188,113.53345
1.1791271,112.05644
1.254803,112.14692
1.2179377,111.96339
1.2274512,109.482254
1.1749411,110.12709
1.1334754,105.72071
1.0236939,106.91825
0.9567226,105.55865
1.047044,106.707306
1.0815747,105.54046
1.0755172,100.14936
1.0487517,103.14374
1.0545889,100.71735
0.97315854,100.148026
1.0299752,102.45684
1.0158473,101.44414
0.97273934,99.332146
0.89879483,98.381966
0.8594088,96.989944
0.814082,95.028984
0.87848157,92.91875
0.7362313,92.531746
0.6750005,92.0362
0.67980134,92.44187
0.640719,92.78932
0.6018952,92.81698
0.70743287,89.42269
0.64016175,86.70046
0.55757815,86.16941
0.48684135,87.70315
0.53700864,85.61815
0.5927097,85.896194
0.52045137,82.76711
0.3480148,86.43006
0.3561086,85.780075
0.38306865,83.0847
0.3210473,81.74324
0.33630803,85.593735
0.33353207,77.09669
0.3271002,79.64508
0.24996202,76.62736
0.38887462,75.159195
0.41418865,78.52202
0.29570746,77.104256
0.3868871,73.60429
0.3600863,72.4452
0.3205757,73.994
0.23766772,72.40582
0.264445,73.809265
0.2655921,75.24387
0.3034447,72.54368
0.23096088,71.45737
0.1620981,75.012665
0.07243024,71.51024
0.05512134,72.32898
-0.026368933,73.63629
0.012503803,75.16572
0.08369317,72.89967
-0.02650752,75.121056
-0.061301716,73.1095
-0.09860853,74.140724
0.02081776,75.41748
-0.043844167,78.43251
0.016414193,77.54679
0.025794309,79.49103
0.06325785,80.24769
0.083769254,82.521904
0.16067961,84.05522
0.27613103,80.22565
0.3018215,84.86335
0.35055274,88.70924
0.38943356,89.541824
0.5058137,88.87674
0.51540136,95.000175
0.5797955,89.29138
0.72762185,93.00153
0.7695933,95.42466
0.8719317,94.7538
0.84814054,101.601654
0.95286703,98.28145
0.9665901,102.32492
1.0379163,101.24407
1.1740359,104.83362
1.082916,103.6596
1.1533155,108.27715
1.235419,105.28195
1.3130382,107.12766
1.2378691,107.402466
1.2911357,109.28585
1.4154669,113.30838
1.3212603,116.93376
1.4366515,115.22131
1.3450272,115.2575
1.3827403,114.19459
1.3989748,116.92113
1.4782629,115.35724
1.3539859,114.52656
1.3843329,116.07902
1.3046778,116.96235
1.2434125,117.33533
1.3781781,118.74572
1.3533304,115.05501
1.2953659,115.414566
1.2179037,120.08294
1.2928728,113.8694
1.2771683,115.010735
1.1951488,117.754036
1.2565609,113.45638
1.1117289,114.45145
1.1740221,111.62898
1.0436672,112.96083
1.1059774,110.051506
1.0635555,111.166466
1.0311562,107.52789
1.0502765,113.41289
0.9584346,108.65199
0.981165,107.10931
1.0307683,108.19557
1.007199,107.67461
0.9547435,104.74195
0.9766684,107.04746
0.9945696,103.14265
0.9101875,100.27782
0.86021066,99.52284
0.90508634,100.87375
0.9134835,97.62158
0.9412477,98.65694
0.8939393,101.32145
0.8712661,99.039085
0.8455664,96.553894
0.8821275,96.03003
0.7879878,94.863014
0.8133826,93.506874
0.75951695,95.902794
0.6094159,91.31126
0.6296711,94.46335
0.6448067,91.56152
0.67100656,89.82351
0.54272395,91.14078
0.55179226,87.48879
0.43578023,86.693405
0.49654123,86.44385
0.5116044,84.71434
0.44623622,83.940674
0.35460895,87.067024
0.42622688,86.93618
0.43235162,83.65512
0.37515566,82.52142
0.398414,85.76366
0.41033396,81.267334
0.4090502,80.85751
0.4537285,77.632965
0.41238284,75.65073
0.39668173,76.46191
0.524392,76.29463
0.43087035,75.975235
0.3871749,75.35043
0.40954813,74.06269
0.27997643,74.56963
0.3054651,75.303825
0.33285135,73.35475
0.39635783,71.75095
0.2530008,75.67824
0.28197235,73.195724
0.27969652,73.43363
0.22103949,72.69036
0.21287708,72.999115
0.1335317,72.574425
0.18947752,73.402725
0.101655014,76.376976
0.16746934,76.24307
0.114944674,74.39133
0.052551188,75.971306
0.15428801,76.79242
0.07431171,78.5709
0.2019353,78.531105
0.16863772,79.17831
0.20314588,81.37541
0.23493081,83.34718
0.38101822,81.07205
0.45133755,84.272484
0.48017016,83.927155
0.5251096,85.684906
0.5639269,90.16916
0.67353565,88.060394
0.7491458,95.112785
0.86573356,93.32265
0.8529673,93.54816
1.0427383,94.58001
1.0556706,94.350426
1.1507772,101.13663
1.1131071,101.24555
1.2189233,100.48623
1.2718495,102.72618
1.500324,103.630844
1.3958615,105.65041
1.5136447,107.660774
1.4599522,108.696335
1.5386047,111.28305
1.4596833,110.388084
1.5966818,110.92259
1.5741283,111.77146
1.5996855,113.702225
1.5955508,114.828735
1.5643337,113.92311
1.68454,112.663376
1.5994136,115.05156
1.6357673,115.69486
1.6886157,115.64871
1.627836,117.28634
1.6181368,115.54323
1.6086866,116.425125
1.5857667,117.34423
1.6978954,117.547516
1.5453264,116.248405
1.5976648,115.28577
1.5610044,112.95651
1.5561059,115.05351
1.5414735,114.34717
1.5070226,114.15265
1.4574142,112.98399
1.4506512,113.46367
1.364851,110.82673
1.3532406,113.81748
1.3360486,110.319725
1.3511032,110.348946
1.3837026,110.61445
1.2450782,107.618095
1.3104838,108.55548
1.2954975,105.87553
1.3463186,107.04015
1.3689198,105.34689
1.2929372,106.094345
1.3558831,103.6638
1.2999103,99.63779
1.2612549,102.044136
1.277534,99.008896
1.2761954,102.57252
1.263478,99.51163
1.2851057,100.37831
1.2194734,99.37983
1.2613298,98.090126
1.1639194,96.982475
1.1757445,95.97212
1.2900438,95.25759
1.073325,97.7013
1.0990986,93.04608
1.1420738,92.600075
1.0668187,91.47116
0.9811959,92.80373
1.0307189,90.51203
0.9681863,89.23653
0.8510796,88.06873
0.9473081,88.71327
0.9238304,86.25348
0.91404253,87.11531
0.81677794,83.917595
0.86478907,85.758804
0.81576455,82.548035
0.9251052,84.61089
0.77869576,82.13
0.81794286,80.89955
0.83163756,77.60147
0.85055065,78.472595
0.90713,80.19819
0.8299203,75.13192
0.7961843,77.141136
0.78203785,76.7823
0.79414856,74.35901
0.8343804,74.9825
0.8867454,75.196365
0.76071256,74.954956
0.7471408,75.62866
0.8297931,75.55913
0.6213997,71.16544
0.6289894,72.9574
0.6643583,75.58852
0.64695716,74.25713
0.5285815,75.414825
0.58089,72.729546
0.6242047,73.59982
0.5276356,75.3053
0.5641658,74.91334
0.5188819,75.663155
0.42498443,76.86707
0.5205544,75.539116
0.45124558,78.506004
0.5161984,77.11932
0.49770716,80.64158
0.555739,81.150894
0.60164213,81.38111
0.7056017,83.76666
0.78213024,83.39131
0.82285887,84.267235
0.8765022,85.33791
0.9667151,86.77471
1.058552,89.005875
1.1214274,88.54846
1.1237372,90.57492
1.3040956,93.139114
1.4021158,97.13828
1.4205555,94.82443
1.5459168,96.41594
1.4942452,102.11907
1.6085731,100.50608
1.6884074,103.69371
1.6943091,106.58139
1.7876812,109.10337
1.7670183,108.51266
1.8152107,108.87254
1.828024,110.33735
1.9437214,110.457214
1.9087539,110.439674
1.8729204,114.84759
1.9115924,112.59788
2.0351305,113.0741
1.9885392,114.16499
1.9712379,117.65568
1.9341972,115.084145
1.9139323,117.005775
1.9098624,116.42005
2.0106533,116.0135
2.0785391,116.65753
1.901513,118.70621
1.8770368,116.642685
1.9148943,117.69351
1.8536662,116.87149
1.7853281,117.479164
1.9012682,114.39745
1.927788,115.99404
1.740742,115.126625
1.7324014,116.10047
1.7458295,116.38691
1.6578687,114.102005
1.757802,112.87984
1.647182,114.29258
1.7146622,112.68275
1.5329996,112.77158
1.6763922,108.31742
1.618743,107.74395
1.6092284,107.93672
1.518507,106.50376
1.62506,106.08811
1.5691358,104.35854
1.5075878,103.9365
1.490441,103.0815
1.5167059,103.066414
1.4337529,100.45051
1.4669807,101.98931
1.466596,102.40551
1.4231488,99.29509
1.3921027,99.63275
1.3613713,97.488686
1.3707846,97.828636
1.4225973,97.20778
1.3058583,95.23603
1.2753596,94.523315
1.3674731,93.241234
1.2516874,92.583786
1.2458205,91.994
1.1980189,92.33166
1.1593008,88.99429
1.1261183,90.827934
1.0500706,86.954155
0.9888538,92.37261
0.98319083,85.77088
1.0194978,88.27259
1.0103233,86.13692
1.0004096,86.75743
0.89230645,82.75984
0.9312765,83.69183
0.90512174,80.9557
0.9382903,78.64579
0.8934464,78.36691
0.8925439,78.07211
0.90978926,79.28445
0.8714948,78.43358
0.8254051,76.45647
0.9052714,78.37223
0.8753873,76.86637
0.92535925,74.56459
0.9006866,73.257675
0.8412633,74.90004
0.76773804,71.83072
0.6802963,73.00134
0.86941224,73.824585
0.8272801,73.99824
0.70507705,71.632324
0.6807189,70.63892
0.66273797,73.034065
0.6065687,70.650116
0.5739394,74.290436
0.4700282,72.92687
0.4912367,70.37717
0.5219949,73.81528
0.44940823,75.41758
0.4283119,75.14453
0.43633553,75.13955
0.43339917,78.14228
0.5799448,77.324524
0.555885,79.476326
0.5701357,82.51216
0.6399763,81.747475
0.6664827,84.20691
0.6703004,84.55011
0.7653946,86.83579
0.8715664,88.9924
0.8670468,89.89685
0.9449448,93.765175
0.97998846,90.68116
1.1613518,93.83989
1.1967908,95.093185
1.2489357,94.88852
1.3621976,95.723305
1.3891361,97.9923
1.4271172,100.04057
1.4307646,100.991974
1.5571524,103.76499
1.6331967,105.82686
1.6694857,103.52031
1.6776749,107.58806
1.7177324,108.16366
1.7782056,107.10713
1.6652443,110.28591
1.7317393,111.53682
1.7493331,114.27331
1.772985,114.871284
1.8020537,113.736565
1.7941035,117.683395
1.7609379,115.52141
1.7395306,115.65636
1.7552245,116.21267
1.756422,116.7306
1.7718238,117.6815
1.7888973,112.62675
1.6972702,117.529625
1.6918602,119.50651
1.6807641,115.03682
1.5858859,115.53443
1.643623,118.53733
1.5388006,118.161934
1.6635432,115.17931
1.5366234,114.765976
1.4755634,113.91254
1.5098532,115.64466
1.4432155,112.32997
1.4577131,113.515465
1.360472,113.33214
1.4444306,111.55757
1.3660587,110.2961
1.4602096,107.26346
1.3284702,107.78
1.263629,107.53582
1.3033193,108.50543
1.273337,107.57286
1.35539,107.06599
1.2099129,101.44291
1.1813036,103.932335
1.2081023,103.890976
1.2776759,104.33167
1.155559,101.95181
1.2585081,100.4304
1.1189787,100.229935
1.0822574,97.79541
1.0883902,98.56055
1.178822,95.12558
1.0368015,94.568535
1.0326465,96.07109
0.97265,93.686165
0.9678777,90.392075
0.93730754,91.039085
0.95630544,91.431366
0.75081617,91.415115
0.8759201,92.15826
0.74376523,88.821884
0.7418579,86.58552
0.8192399,85.745415
0.6784793,90.26744
0.6022897,86.97172
0.6558359,85.74362
0.58518857,85.019165
0.7146446,84.0655
0.5512401,83.00637
0.6154517,82.91261
0.513363,81.836914
0.535309,80.368996
0.5466474,77.1749
0.46342182,81.11845
0.5645859,78.12447
0.5410612,79.56018
0.54667497,74.75228
0.52007174,75.52573
0.51741487,72.38674
0.50389886,75.53409
0.4682394,75.14878
0.40022635,76.73342
0.38044184,73.96892
0.45131785,74.60081
0.40477633,71.20999
0.33904028,74.62373
0.22412634,71.81177
0.24551727,71.51431
0.21622445,69.83264
0.12625706,72.51916
0.15517594,72.640884
0.10146478,73.89065
0.111520514,77.21106
0.15436567,76.23364
0.0728839,76.84483
0.027265273,76.44261
0.05104667,78.27242
0.07280186,79.17625
0.10971613,78.43172
0.08451159,81.339615
0.1859446,80.587326
0.25702775,84.600174
0.41343623,84.19362
0.3967235,85.27672
0.49149504,87.56203
0.5183159,91.23589
0.54757833,90.71009
0.6285262,90.73128
0.6349722,91.935974
0.75425225,98.17892
0.8660117,97.364685
1.0108393,97.06234
0.9359274,97.47227
1.087349,99.36553
1.102733,100.71069
1.1850927,102.82985
1.2245177,104.52998
1.3066903,107.82367
1.2856194,108.4088
1.3500494,109.05895
1.319114,107.788574
1.3153977,108.9674
1.3673472,114.210365
1.3432916,112.61512
1.3527056,113.82376
1.4095553,113.944756
1.4316701,114.46579
1.3224066,114.27655
1.429977,115.2225
1.3857278,114.17678
1.3694574,115.6546
1.4086109,115.94907
1.3958306,113.7288
1.2811909,117.922905
1.3715432,118.01221
1.295966,117.015236
1.3226295,115.13207
1.2730483,114.0609
1.2635258,117.90422
1.2551197,112.7345
1.1629887,114.87456
1.1954379,115.21561
1.2316624,115.372406
1.1139423,112.09812
1.1952794,113.501854
1.1010827,110.736046
1.0394226,113.90915
1.0635664,110.28668
0.9790509,111.374115
1.0321854,106.848
1.0516124,108.555084
0.94352776,107.54233
0.8922347,107.06391
0.9416272,104.28095
0.86069906,103.700645
0.88868475,105.76966
0.92254096,101.942535
0.82469857,99.44126
0.92428124,103.00876
0.809924,99.99756
0.93236464,101.39821
0.85236377,98.26212
0.8289705,97.065994
0.81038415,94.9269
0.8391392,97.322624
0.7740633,96.87345
0.7538622,94.00867
0.6787855,93.77531
0.5834739,90.61832
0.6367359,93.018394
0.63644654,89.831825
0.53002983,90.12774
0.5229881,90.77852
0.51395655,87.1593
0.46060407,87.702065
0.43030837,87.63094
0.38746402,87.581314
0.34938163,84.24385
0.42420563,83.556984
0.33286116,83.27114
0.44181457,81.085754
0.35358912,84.74195
0.28417614,80.301544
0.32797968,79.028564
0.3357784,78.002205
0.30547222,79.978905
0.30018684,77.943405
0.29989156,79.21667
0.24183762,78.78901
0.24920475,76.96756
0.21059208,74.16051
0.23506957,76.499115
0.28342834,74.29114
0.2482936,71.807465
0.19697678,73.21985
0.16619423,73.32731
0.16826965,75.73078
0.15644613,74.29964
0.18555191,74.56156
0.15441637,75.03623
0.093949445,74.27069
0.073348075,73.13022
0.07850961,73.3307
-0.021401312,75.42626
0.016374175,74.65639
0.036926616,77.25238
0.022350587,76.25455
-0.012008095,76.59419
0.031185482,78.48421
-0.047938287,78.34801
-0.014532276,80.07576
0.17152303,78.36042
0.1593697,83.59571
0.18690006,82.9588
0.30171308,82.74702
0.26744664,84.87025
0.45628047,88.954765
0.45588824,87.32754
0.52820885,91.056915
0.6259375,91.92369
0.6563673,92.41906
0.8081625,95.01916
0.79927623,98.499344
0.8817844,96.39561
1.0278962,94.9583
1.0666715,102.7108
1.1459643,99.61544
1.2349056,103.00385
1.2656758,103.3982
1.2865295,107.86835
1.2133518,107.42922
1.2830912,107.626785
1.3601044,108.606026
1.3522272,111.716934
1.4068397,112.531685
1.3655864,111.778656
1.4385982,113.021164
1.440924,112.79548
1.4234601,116.59061
1.4889828,115.551575
1.5648739,117.53118
1.4663237,114.83726
1.411177,115.943245
1.4460815,116.11208
1.5234426,115.34143
1.3920492,116.48844
1.4606359,116.28843
1.5067598,115.796524
1.3604529,117.97828
1.3701209,116.06434
1.3252027,114.62114
1.3211219,115.71043
1.3039519,114.45186
1.2935143,111.363495
1.2482535,114.84837
1.3324858,113.46453
1.2546971,110.204605
1.2035645,112.049
1.2631221,110.55916
1.2546958,108.115746
1.1425198,108.77135
1.1278441,107.70554
1.0948415,106.06254
1.0772749,108.48651
1.0528619,105.23391
1.083649,103.76317
1.1068269,104.838524
1.0475053,101.25957
1.0836661,102.929955
1.1084646,101.4416
1.107406,101.64979
1.1303369,101.66797
1.0770062,100.50178
1.035676,99.5637
1.0974312,97.9604
0.96094817,96.96365
0.97046906,98.90304
1.0864245,97.08694
0.8885383,92.500145
0.9824219,92.502525
0.8907361,92.2631
0.8698069,92.139595
0.77422035,94.55781
0.8660283,92.95796
0.7473163,89.52786
0.76142603,88.557304
0.6981706,87.836075
0.7999293,87.120514
0.7390047,85.67354
0.5966272,84.273506
0.60494864,83.68949
0.6569174,83.13136
0.6796247,82.847275
0.60046417,83.2527
0.62082505,83.00401
0.6344526,79.55406
0.57389927,82.172424
0.65816844,77.21313
0.6770885,77.876564
0.6182961,75.74545
0.57680976,78.230865
0.7241331,77.32279
0.62435836,74.97074
0.7222007,78.25228
0.5454043,74.49315
0.63930357,74.24053
0.5581968,71.74261
0.52823293,74.10383
0.49558255,75.66519
0.5400732,72.013885
0.4383266,73.72569
0.5288203,75.116196
0.43005964,75.146515
0.35767764,73.13477
0.38301817,77.1146
0.31038997,75.1852
0.33304873,74.49226
0.3085827,73.49131
0.3077426,75.058784
0.3555315,76.0694
0.37000558,78.16783
0.33033794,78.67541
0.35257602,80.367905
0.46249184,80.760056
0.563298,81.41761
0.5216885,83.68942
0.5674343,85.731064
0.75553834,85.33903
0.7959909,86.40935
0.8358902,88.12689
0.9108364,89.93174
0.97781545,92.28473
0.96467423,92.89771
1.2373412,93.40256
1.2537688,95.82873
1.2981464,98.5817
1.3653392,98.562584
1.4987657,102.08964
1.4976902,103.537994
1.6015602,103.98118
1.5331683,104.964226
1.6809853,106.102806
1.753653,107.301636
1.793704,108.43195
1.6964903,109.597916
1.779097,113.64535
1.7614262,111.90548
1.8876109,114.859474
1.8327526,112.16535
1.8776867,112.24287
1.8900154,115.20374
1.8502983,116.63136
1.919738,118.62611
1.8881903,114.032074
1.8222203,118.22634
1.86919,116.691185
1.7956492,116.57011
1.8804483,117.14581
1.8070476,114.23066
1.8258487,114.271385
1.7682421,113.76325
1.7477672,120.10817
1.791885,115.23049
1.6653007,119.22533
1.6927212,116.83614
1.6843116,115.569046
1.6310289,113.74201
1.6334606,112.08254
1.6080531,113.07917
1.634139,108.982574
1.5364885,109.36562
1.5751879,113.74287
1.5592344,111.24776
1.5068051,109.23682
1.5442472,107.835815
1.5081863,109.14566
1.5496368,105.801636
1.4993141,103.34425
1.4747503,104.51204
1.4607888,100.78661
1.4275552,104.28212
1.4919059,103.310646
1.5023808,101.93444
1.4540513,97.22939
1.4395556,99.25359
1.3581789,100.53116
1.3425778,98.704315
1.3341826,96.3098
1.3989273,97.4545
1.4123518,96.04664
1.2953807,93.43944
1.2729357,93.04175
1.3024951,93.95281
1.2394382,92.82733
1.2007997,89.867645
1.1874803,88.87505
1.0680364,91.41244
1.0732299,90.749016
1.0636182,87.24776
1.0235776,87.74615
0.9664142,86.19948
1.0720481,85.06191
0.9951317,86.48645
0.9353091,85.56448
0.8579521,82.295525
0.89712095,80.75759
0.9324556,81.98557
0.9297036,79.1592
0.92091614,79.525
0.9413917,78.47749
0.93429494,72.82724
0.9013665,77.666176
0.9069271,80.86916
0.86348134,75.79872
0.9689976,77.03777
0.8264794,74.07838
0.9073344,75.90633
0.95041734,76.37285
0.9173889,73.81101
0.849101,74.27076
0.8167155,74.18613
0.6714361,74.47444
0.62959474,71.51128
0.7114598,73.06089
0.5825024,73.37324
0.6499545,73.933586
0.56783366,72.7983
0.58272374,73.47858
0.6468818,72.13995
0.53842914,73.74825
0.5305733,76.41346
0.5763194,77.298615
0.51495713,77.15859
0.56802326,77.57978
0.61577123,81.26944
0.6009295,82.38619
0.7133581,81.25614
0.72739583,81.6076
0.84307563,84.07096
0.9192454,83.69725
1.0415463,85.90704
0.99865574,91.22361
1.0011569,90.16021
1.1899688,93.28726
1.2128994,92.50391
1.2886851,93.68914
1.368894,93.523705
1.4076794,96.81847
1.5419638,97.17139
1.5879198,100.50824
1.5651337,102.522995
1.644781,102.17104
1.745726,104.84487
1.8202589,104.750374
1.7354698,107.46857
1.8811293,109.250725
1.9404904,112.62791
1.9607692,107.89167
1.9018321,109.93569
1.9509962,112.30882
1.8821143,112.559975
1.9404887,117.5283
1.870187,112.86081
1.951041,117.08051
1.876367,116.06832
1.9422183,114.9802
1.9254779,116.20144
1.8431022,114.69697
1.8636515,115.098465
1.8831838,119.22843
1.8911165,119.046295
1.858594,116.56673
1.7831736,117.12112
1.8232278,116.97717
1.8671721,115.95502
1.7206614,118.36988
1.7094516,116.683586
1.7243063,112.91157
1.6441728,113.81269
1.614869,114.62485
1.6545709,111.00156
1.650981,113.00496
1.554817,110.721634
1.5176313,110.119446
1.4222065,108.2968
1.4634647,111.40076
1.4721869,108.908035
1.4777876,108.55432
1.4517543,104.97212
1.3398366,107.528404
1.4158034,104.67656
1.3223118,102.05236
1.3863398,103.2753
1.3611543,105.04895
1.2881318,100.90927
1.4545233,98.698
1.4128585,96.97156
1.3012075,95.84158
1.2990923,100.599686
1.2984177,95.880455
1.1971301,94.970924
1.1411014,92.29908
1.1993935,95.44396
1.0604743,95.69476
1.1037465,94.6209
1.0713656,88.34807
1.0193532,91.57904
1.0417489,88.17805
0.95742023,90.36312
0.9432221,87.78376
0.918729,87.45656
0.8785555,87.50649
0.7727315,87.902275
0.858388,83.67982
0.7259476,84.08349
0.65693706,82.37031
0.7427314,83.51613
0.8031441,80.43414
0.74823385,81.443596
0.7137593,80.998146
0.7878039,79.79157
0.6992245,79.33324
0.7109187,74.77528
0.7278073,74.63385
0.78148,78.30064
0.6493423,76.837296
0.7065546,73.08982
0.7169339,73.86186
0.6834894,75.31296
0.59221315,72.18961
0.5558068,71.843575
0.6215472,72.56509
0.51770186,74.093094
0.5859663,72.65124
0.41771528,72.5754
0.3671157,73.120026
0.36765745,72.10713
0.31101096,71.32692
0.23609997,74.78163
0.24882929,72.18329
0.27928123,74.55951
0.23969157,76.74102
0.2680148,78.68346
0.23816873,78.00699
0.24395992,79.517975
0.29676902,81.97274
0.42204386,78.53393
0.36382043,80.912994
0.39238542,82.869125
0.44599283,82.36044
0.56767863,84.35796
0.617282,85.32969
0.68510836,84.730835
0.7167892,85.464775
0.7747783,90.09357
0.8576393,92.00323
0.921667,92.07153
0.9690522,95.192764
1.0796171,96.71634
1.1596472,97.521706
1.1152669,97.833374
1.3328829,100.535835
1.3535419,101.19628
1.2929586,102.43321
1.4229412,104.379395
1.4445871,108.18415
1.4546127,104.40361
1.4759892,106.61785
1.4949468,111.43571
1.500456,113.72139
1.5501893,112.82101
1.5769624,113.72715
1.5156004,113.45397
1.5522766,114.52076
1.5312998,115.99713
1.5703868,116.28377
1.470898,116.41118
1.4986644,115.688126
1.513805,120.48951
1.5767137,117.64274
1.5983294,115.2581
1.5086008,119.64093
1.4213958,115.15595
1.4204417,112.917336
1.5680966,117.22439
1.3710357,114.72156
1.3571417,114.35638
1.3453281,114.57476
1.2929927,116.60476
1.2933364,111.4925
1.225576,111.69604
1.3207517,114.248146
1.1804866,112.72528
1.1428068,115.4449
1.1208205,109.110954
1.1918336,109.29725
1.1297175,109.209465
1.1722031,105.96031
1.1093793,105.81895
1.0533901,105.18156
1.0373352,105.744026
0.988243,106.58725
1.0117354,104.82644
1.0018424,102.25965
0.9005207,104.263725
0.9249636,102.75577
1.0043904,101.34667
0.9864356,103.09879
0.9205064,101.39499
0.95664066,99.84709
0.857171,97.46919
0.96486145,96.44713
0.80155015,96.25503
0.75529975,95.7182
0.85824823,94.95326
0.8092161,93.22018
0.7405662,90.15246
0.63751465,89.60517
0.6716988,93.087456
0.6145674,93.09839
0.543951,87.5851
0.5450605,89.061356
0.5933945,87.39942
0.35584414,86.79761
0.4731107,86.77745
0.41693696,87.77512
0.4370393,83.4606
0.4364839,82.24218
0.38053918,82.72236
0.37210461,83.08451
0.4152519,79.41305
0.33658746,80.46296
0.3051054,79.04339
0.3186378,79.17914
0.3163618,76.26258
0.28833252,76.58371
0.35447493,77.08816
0.40035045,75.612274
0.33575955,74.910545
0.3387864,73.69342
0.2839826,73.692764
0.28132132,76.325165
0.18573736,73.68005
0.19384421,73.774315
0.19160455,71.953735
0.2386619,70.17106
0.11905937,73.45718
0.08586437,71.829216
0.112969376,73.0312
0.09545163,73.50913
0.035485156,70.99372
0.05206267,72.56321
0.0023001677,73.35563
0.013833407,77.12488
-0.031806637,77.54455
-0.0076309796,78.206856
0.015255353,77.05606
-0.064113185,77.71559
-0.07297846,78.8481
0.027207816,80.3115
0.13446398,84.5309
0.20301554,84.24072
0.24084409,84.44418
0.40358,85.35862
0.32216746,86.892586
0.45059493,86.85312
0.5773406,90.820854
0.60940266,92.07455
0.6142704,91.78558
0.7568973,95.569046
0.8500755,95.63515
0.8207042,99.734604
0.8627981,99.359665
0.97759426,101.33018
1.0171322,99.74467
1.1257517,104.70691
1.1264544,105.98265
1.1992102,107.69647
1.2110226,105.72033
1.2937825,109.443596
1.3031313,110.75801
1.3248768,111.23614
1.3471109,115.346504
1.3393927,114.554085
1.3705415,111.87677
1.3862892,114.90429
1.2924489,112.15557
1.3907318,116.7055
1.2373139,115.874596
1.4503217,118.47526
1.338124,115.58649
1.3788443,118.093575
1.3777846,116.29715
1.3441266,115.98745
1.3547891,116.27189
1.2307175,116.65538
1.2812716,114.524414
1.2036427,115.37704
1.2105795,115.062805
1.3286161,115.67157
1.2203913,114.34235
1.1690304,115.334755
1.2091817,113.47489
1.1323504,109.672386
1.0520158,113.174416
0.9420762,110.62405
1.0991685,112.40143
1.0806309,111.4163
1.0399443,106.22369
1.0752327,108.73408
1.0037295,108.58784
1.102081,105.003365
0.9881832,106.42101
1.0304614,102.20212
0.9646506,103.51699
0.99212,104.28561
0.9660734,102.971176
0.8949392,100.035194
0.90854454,101.17654
0.8807226,99.43099
0.8706865,99.57845
0.94064254,96.45772
0.87353736,99.034424
0.80958146,95.938805
0.9109463,97.95026
0.8929043,94.67409
0.81432396,95.520195
0.7483065,92.74858
0.75089407,89.89609
0.74037904,89.39295
0.70150924,95.78181
0.63361883,90.22809
0.5834064,90.917015
0.54287714,86.138725
0.60664064,85.6628
0.4396878,86.802765
0.5223933,84.559265
0.5374179,82.0457
0.45039874,85.24966
0.5009238,80.01944
0.48454195,83.8892
0.43353415,77.30892
0.4481669,80.60442
0.36022726,81.19319
0.4976519,79.459236
0.42420524,79.06263
0.4123503,79.73141
0.45667657,74.448166
0.4930556,76.82562
0.39822102,78.645615
0.48947275,73.51745
0.40720585,75.4584
0.4575345,73.68701
0.42740896,75.45056
0.43984196,73.959984
0.35171887,74.304405
0.28169757,73.38458
0.27969798,73.03809
0.22526951,71.36931
0.21842976,73.7799
0.19712521,73.55955
0.26921687,70.46962
0.20554252,74.449554
0.13136679,73.006775
0.116594076,71.6294
0.08731672,73.928795
0.12346635,77.406975
0.13486707,76.527374
0.20083548,76.0343
0.23466244,78.14867
0.17529961,79.36812
0.25879443,83.25144
0.31080306,82.60883
0.26923877,85.15006
0.44121838,86.43755
0.5432775,85.44067
0.5888665,87.880455
0.5598632,89.746475
0.74955827,91.5506
0.85462284,91.92751
0.89786714,93.73986
0.972237,96.33743
1.0652596,93.74197
1.1049343,96.476654
1.1905024,101.184845
1.2354225,97.54017
1.3204104,105.22477
1.4024497,102.09311
1.3348877,106.34991
1.4760185,108.115746
1.5609744,108.444626
1.469134,109.58008
1.6400404,111.110825
1.6282403,111.65402
1.587497,110.015076
1.5841763,113.20283
1.6306926,116.278656
1.6320194,116.41589
1.6203253,115.14275
1.6173664,112.83754
1.6884763,118.36144
1.6336771,116.747055
1.6885265,118.36702
1.6700315,121.22206
1.6974629,116.9624
1.7312937,117.0763
1.6672018,118.33249
1.6273794,117.70189
1.519857,114.264
1.6281073,115.88435
1.6595753,117.49929
1.5329992,112.9739
1.5988464,116.85729
1.4876208,114.025604
1.5369172,115.40684
1.4586558,113.34799
1.4760042,114.23156
1.4959191,111.73185
1.387514,110.70417
1.3706937,109.21741
1.3701829,108.40666
1.4017998,107.21845
1.41809,107.835526
1.2646809,109.01844
1.3497616,105.42159
1.3820148,104.77483
1.3358481,105.94469
1.352863,105.19089
1.3443016,100.848015
1.3061407,102.45241
1.2591633,99.7863
1.3016669,99.43207
1.2658117,97.30986
1.3131248,98.98873
1.2891016,97.48302
1.2681668,98.407684
1.1541708,94.71015
1.234151,95.46642
1.1865082,94.50412
1.1533021,92.66948
1.1624788,92.78549
1.0341071,90.86709
1.1427553,91.319916
1.1078311,88.89597
1.0506388,88.562035
0.9157596,89.61145
0.87913173,87.662025
0.86509967,85.59704
0.8122093,86.58002
0.96770084,85.93743
0.88161415,83.39352
0.9875764,82.79192
0.817728,81.95122
0.7704362,82.09146
0.77622986,78.96918
0.9268221,81.2113
0.90872234,77.44465
0.83500355,78.49339
0.8708177,78.72163
0.86908823,76.156586
0.7287443,78.12594
0.8305188,75.2567
0.7988313,74.74464
0.82360685,75.49466
0.8757056,73.31071
0.7740733,73.56356
0.7936402,72.889084
0.7011873,72.95114
0.6358926,73.50846
0.72391224,75.105576
0.6259836,73.79203
0.5538199,71.816
0.6325132,73.82966
0.49784145,72.96382
0.53455955,73.39107
0.5609217,73.71318
0.45741528,75.63933
0.43393546,74.69482
0.43439695,76.88674
0.54727304,76.38917
0.55101466,77.86246
0.5746296,77.22457
0.5641161,80.27094
0.6865345,82.215034
0.6803789,83.42895
0.7327826,84.70286
0.7552116,82.08101
0.8781966,86.15036
0.85340357,86.58329
0.99223465,87.56345
1.2020094,91.099976
1.279083,93.574425
1.301405,96.030304
1.319116,96.262344
1.4275076,95.38264
1.537665,100.16422
1.5713115,99.66657
1.6653206,102.896996
1.6859,101.216446
1.7431859,104.686386
1.7045703,101.36524
1.8416001,108.19022
1.9439701,108.02485
1.8541269,109.72302
1.8497366,107.74178
1.9211863,110.10433
1.9345429,112.07302
1.9169567,113.48639
1.966965,114.47033
1.9424077,115.934586
1.988096,117.248184
2.0280247,118.42885
2.0645823,116.04888
2.007306,117.11835
2.0171568,113.67909
1.8768102,116.17946
1.9678103,115.33007
1.9197522,116.772
1.917911,117.44943
1.8424128,117.026596
1.9334806,118.013794
1.7918648,115.255295
1.8152809,116.978874
1.8092269,114.75901
1.8284359,113.20237
1.8695511,114.32002
1.7006707,113.904274
1.6835791,114.395966
1.6336718,110.0826
1.6251526,114.22355
1.6151053,110.08028
1.5401926,110.69877
1.629351,109.9107
1.5214698,109.67457
1.5610813,108.4478
1.5388149,109.058105
1.5165578,106.92857
1.5064752,108.192505
1.4989386,102.90409
1.5121886,103.26595
1.4617543,102.60327
1.4455782,103.14355
1.522069,103.3356
1.4757948,98.18397
1.4886515,97.77783
1.4976007,97.956116
1.396997,95.51314
1.2962501,98.15429
1.3123862,96.12945
1.3714168,95.67959
1.2404706,93.37142
1.2965859,93.998024
1.2681754,90.87342
1.1658989,91.508125
1.1575836,94.42231
1.1481439,88.51967
1.146084,89.929695
1.0877042,89.27095
1.0045327,84.733376
1.0197333,85.06079
0.97684646,86.88129
0.90699494,85.3844
0.98064405,84.7633
0.8686467,85.79911
0.9245211,81.404564
0.8571974,80.07824
0.8570339,80.332245
0.8553135,81.53234
0.83126503,79.25956
0.9629029,80.10252
0.8630981,79.02044
0.8711578,78.476006
0.75311524,76.89238
0.8477611,73.361465
0.8160052,76.06377
0.8543457,76.19398
0.7279255,75.737206
0.69416285,76.10044
0.7872904,76.43954
0.80914617,74.249954
0.7192584,75.7467
0.673804,72.900345
0.63461566,70.78125
0.6602171,72.94085
0.59503025,72.566185
0.53480816,73.87727
0.5203492,72.519966
0.49404258,74.35222
0.49996132,74.66667
0.4401399,74.466125
0.3018577,76.89207
0.3662505,75.23629
0.3685705,77.02519
0.45225966,76.57777
0.6036414,78.05708
0.47743672,78.80765
0.5293286,83.5928
0.6922765,82.93105
0.7967575,85.130196
0.73520297,89.43642
0.7946511,88.359314
0.8811916,89.93922
0.98564214,91.27549
1.0381505,90.288536
1.046314,91.46933
1.2185873,93.261116
1.243526,98.63447
1.2699448,98.71826
1.3872194,98.498474
1.5045291,99.03588
1.5076956,102.3335
1.6296995,104.51124
1.5283757,105.15853
1.6230469,107.51873
1.6876314,107.704865
1.6733575,108.67252
1.7049996,112.30939
1.6606289,110.949646
1.7435805,110.07302
1.7158943,113.156715
1.7985458,114.87833
1.7292958,115.012405
1.7665586,116.01769
1.7751858,118.86762
1.7787868,115.99906
1.7575408,117.19828
1.748212,115.96971
1.7569609,116.882484
1.6588874,114.83145
1.7011858,116.49322
1.667759,117.68552
1.6802503,116.466995
1.7080817,115.111435
1.6069199,114.32136
1.5532868,115.3917
1.5261168,112.62251
1.4556786,114.92635
1.4838431,113.95176
1.5166113,110.88295
1.4066868,115.105545
1.4226711,109.30912
1.4168437,110.64065
1.3916359,111.009964
1.349774,108.78257
1.2630703,108.05966
1.318946,107.73238
1.2164532,108.07471
1.250113,111.08258
1.232813,104.5295
1.2007092,106.79707
1.3138622,104.06644
1.1543903,104.62153
1.2281469,100.19438
1.2408509,100.70151
1.1543901,100.995224
1.0495658,102.31993
1.2060581,99.01778
1.2711928,99.91741
1.0339559,95.30581
1.0854158,96.03518
1.0690637,96.55189
1.0252119,92.9961
0.98852146,95.19335
0.9389702,91.16067
0.89286244,94.91118
0.8365069,91.05107
0.8594215,91.22258
0.7339671,88.90961
0.6747194,88.74829
0.71642494,85.88782
0.6242518,89.08545
0.5997104,86.88227
0.54031664,84.13326
0.5163419,86.45698
0.6080818,84.3762
0.5275392,83.847244
0.5285671,82.64147
0.4851983,82.068054
0.52039015,80.90156
0.5442748,79.255455
0.5023499,81.42548
0.51322496,78.05026
0.5678374,78.62219
0.47988853,76.42679
0.4149539,77.61992
0.48018187,78.06438
0.47221816,73.85696
0.4268886,73.2935
0.4304081,75.28714
0.38612258,72.20261
0.41100103,74.29122
0.40418708,72.751144
0.30319944,71.82779
0.2913479,76.68587
0.28256485,73.78552
0.16513294,73.29389
0.14016964,73.9024
0.086072244,71.40014
0.12474286,73.26459
0.08770755,75.75271
0.073054954,74.07607
0.025603142,74.158066
0.06801089,73.422104
0.03573233,77.563324
0.022067582,79.0553
0.1370629,76.47512
0.2175852,78.44895
0.061382808,81.27262
0.2465053,79.72679
0.25561464,84.505135
0.31408378,85.73557
0.45572525,87.911354
0.45725933,90.53252
0.5097534,89.11178
0.6118185,90.57436
0.59139377,92.143364
0.72675145,93.328926
0.804415,93.500725
0.8881674,95.44195
0.9455234,101.14054
1.0294722,101.97609
1.0818619,100.96506
1.124176,102.35577
1.1088986,103.947075
1.2320362,104.977356
1.2562301,106.35668
1.2829834,107.520256
1.2537472,109.11207
1.3813499,111.19841
1.3828089,112.65814
1.4362872,111.458626
1.4298301,114.240944
1.3362507,116.36823
1.385975,114.49473
1.3596314,113.25901
1.3268846,118.352005
1.4458845,117.708496
1.3057015,116.69687
1.3720691,118.11571
1.3448112,117.55957
1.3397318,116.62247
1.3552097,118.28758
1.3142358,116.72888
1.3680586,118.81294
1.2714416,114.79828
1.2100894,117.29437
1.2346454,117.83822
1.2294296,114.71663
1.1070948,114.505066
1.1940929,114.27036
1.0981303,115.741394
1.0941868,112.91061
1.163494,110.04194
1.1038715,112.05974
1.0331376,111.3193
1.1042372,112.45094
0.977338,110.91582
0.93673325,106.92017
0.980176,107.536194
1.0243345,106.512856
0.8972635,105.222786
0.8701098,105.861115
0.90168446,105.1424
1.0091363,104.39158
0.86476684,104.9546
0.8713394,100.134224
0.9450389,99.66323
0.9361353,102.99673
0.90276235,99.65664
0.87693983,99.38535
0.79515135,95.58053
0.80250365,96.81985
0.84881437,96.83956
0.6671896,92.49369
0.6963247,94.33018
0.64391,94.057655
0.6175873,92.41304
0.5577919,90.05059
0.5981869,87.2404
0.48953208,90.44791
0.4673116,87.02855
0.4771878,87.57414
0.4755849,89.275024
0.45154697,87.21457
0.4085715,87.73705
0.39653602,84.83913
0.36181587,86.17902
0.29637504,81.942696
0.40691528,84.36614
0.34880352,79.08601
0.4401341,80.31848
0.3403393,79.21408
0.27360678,78.9469
0.3431834,79.16868
0.3631717,77.78946
0.3501644,78.73609
0.32774788,75.23633
0.29497185,75.92816
0.28563038,78.155
0.26301712,75.65648
0.29917303,71.11421
0.2653134,73.69792
0.3078407,74.01403
0.18596745,75.004486
0.23059113,72.78592
0.15888725,72.771965
0.12705223,73.64238
0.17637685,72.476395
0.09551837,75.08242
-0.0451253,72.34048
0.06342143,75.14803
-0.032581586,73.990715
-0.010267869,73.01926
-0.024518408,76.604546
-0.029915743,78.66856
-0.029327318,80.84735
-0.0035253668,79.14199
0.035910204,77.74093
0.042622887,81.19722
0.2386417,81.63466
0.19801818,82.11635
0.27577627,84.98675
0.2784778,85.90699
0.36045972,87.853264
0.45556313,86.842804
0.5409563,89.35172
0.60022473,89.695915
0.6971341,92.72078
0.8010788,93.59586
0.8671743,95.99673
0.89923024,95.276886
1.0176522,98.01303
1.0436002,97.45426
1.1435812,98.77
1.2444865,100.71836
1.2135985,104.45297
1.1957613,105.412025
1.2670188,104.81691
1.333467,107.59929
1.3843448,107.92568
1.4239568,111.240875
1.4629302,112.68359
1.3940219,113.78345
1.4396311,113.37301
1.4540633,113.84746
1.4444546,113.67105
1.5245032,115.55116
1.5010232,115.54397
1.4376066,118.04237
1.5219578,116.210785
1.4692492,115.91393
1.3630089,116.42758
1.4517728,118.18577
1.4423455,118.92076
1.4328884,118.45089
1.3732829,118.38824
1.4365286,117.50058
1.3977705,116.29913
1.283947,115.644165
1.3957816,115.56971
1.3553976,115.702484
1.4439324,113.421875
1.2744794,113.05155
1.227278,109.06238
1.2620208,110.07928
1.2968184,113.3651
1.2170602,109.792114
1.0992411,109.56301
1.1476667,105.53611
1.1092794,105.897415
1.0823463,106.28099
1.1638544,106.41495
1.1260846,106.75026
1.1895474,105.24576
1.0606508,105.21734
1.139741,102.94392
1.1016996,101.026566
1.1058218,99.768875
1.0789553,99.64298
1.079022,99.8314
1.0724208,96.40834
1.1769763,98.96439
0.99831814,96.13206
1.0370382,99.45995
1.0785575,96.33306
1.0228456,96.0185
0.92969626,92.840485
0.892336,91.02229
0.8818543,93.77499
0.8954474,91.406425
0.83876544,88.32932
0.81651896,88.6922
0.8008656,88.986336
0.80319846,85.622154
0.7898571,89.093124
0.72198343,85.07325
0.7630891,85.259605
0.6433321,86.185814
0.7143752,85.57043
0.73614925,83.22367
0.63680047,82.05437
0.6381225,81.18995
0.6395902,80.36004
0.58246696,79.41409
0.665101,81.14584
0.69114524,79.403755
0.6769057,78.30901
0.6656508,76.54262
0.68274266,77.28416
0.5823614,74.00693
0.60858345,70.6442
0.6079851,73.46467
0.5684347,75.79059
0.62240803,71.481445
0.6023395,73.26839
0.52916324,72.51143
0.55590427,71.05003
0.42102087,74.46956
0.5330111,70.549385
0.4964696,75.59158
0.35976905,74.91851
0.44607088,72.768684
0.40993235,76.38498
0.40456843,75.77878
0.35906863,74.176155
0.36803052,76.64084
0.35499802,74.4489
0.4311753,76.02561
0.51329404,78.20702
0.45086724,75.58202
0.4868197,83.037575
0.5019104,81.318726
0.5912483,83.92809
0.6383706,82.71666
0.7498638,86.68835
0.8185835,87.07791
0.8651525,88.48884
0.9390042,90.44452
0.93269,93.410736
1.075766,95.1431
1.11237,94.10473
1.3118192,92.68356
1.2923193,97.80022
1.3415744,98.896614
1.478729,99.75259
1.5218085,102.33226
1.5500948,100.5057
1.5657322,101.136925
1.6395694,108.22481
1.6559004,104.92796
1.6790237,110.072296
1.8452126,108.97645
1.7947192,108.91346
1.8035331,111.971535
1.8417377,113.367615
1.7441654,112.01352
1.9231833,114.68369
1.9489186,115.24317
1.9139218,115.04616
