ppg,abp
1.0813876,92.89469
1.2001843,94.49213
1.1411921,100.252815
1.3440206,103.94707
1.3745608,112.69031
1.3941596,117.63232
1.4834625,117.58875
1.6884048,126.20825
1.5778682,125.871826
1.611416,130.33342
1.6826985,133.37439
1.652997,138.10146
1.6444297,136.33444
1.774159,145.03969
1.6401129,144.20436
1.725213,144.69215
1.7248262,146.66052
1.6870548,147.7752
1.6606332,148.89925
1.7173504,152.90459
1.7350398,149.2141
1.7593285,149.88547
1.6518064,151.65712
1.6345191,152.95047
1.7343667,148.69827
1.6101121,149.16899
1.5936171,149.37035
1.648811,147.22443
1.4755044,144.75887
1.4724752,145.40079
1.5805035,140.67381
1.4531273,139.51692
1.4334592,133.98625
1.416616,129.86327
1.4044375,131.13095
1.3809508,131.11174
1.3982124,126.491844
1.4441329,123.606575
1.3290359,119.52177
1.3325394,117.34135
1.3583087,116.331726
1.4316946,114.32559
1.3291796,114.94535
1.29062,106.56387
1.2235274,104.784325
1.276443,102.235985
1.2559001,102.34691
1.2206578,96.68682
1.2634623,90.94182
1.2204189,93.602554
1.2781949,86.432625
1.1836334,88.66594
1.1900631,78.96624
1.0933896,83.39524
1.0205593,79.46723
1.0618138,78.202415
0.93733424,71.96452
1.023145,73.24268
0.896205,69.19744
0.9480141,66.20889
0.90870214,61.013863
0.82323974,62.508842
0.9240658,58.756393
0.953165,54.742332
0.8116316,54.40408
0.815278,48.844505
0.8530437,51.12642
0.8953525,45.09205
0.9143677,44.60113
0.83179975,41.421524
0.8536644,40.0
0.82116103,40.0
0.80650973,40.0
0.78426045,40.0
0.7205426,40.0
0.80995876,40.0
0.741507,40.0
0.78263515,40.0
0.71239537,40.0
0.61476356,40.0
0.5431695,40.0
0.6675925,40.0
0.45772064,40.0
0.5076209,40.0
0.49601984,40.0
0.47596115,40.0
0.47178644,42.914616
0.4696352,40.679096
0.52297187,51.31395
0.5963583,50.822617
0.66381866,56.18588
0.6797663,58.58605
0.74686766,59.55803
0.79514396,64.23799
0.93794656,65.26116
1.0163839,75.92646
1.120486,79.608604
1.1608024,86.25532
1.2286465,86.434494
1.3590919,93.872025
1.4677896,100.219406
1.4713807,101.05822
1.5552982,108.5928
1.5889001,111.78847
1.6494595,115.05297
1.7328385,120.11935
1.7622184,125.72281
1.8849868,127.86718
1.8773999,130.01505
1.9675139,132.83568
1.9892943,137.70515
1.9408592,140.6915
1.848957,143.30217
1.9808704,142.61903
2.0237088,145.82622
1.9982408,147.32462
1.9811621,151.87357
1.9446907,147.01794
1.8878393,150.19495
1.9687034,151.59286
1.9112548,149.30763
1.919284,151.1027
1.8520297,148.4034
1.9618483,150.23418
1.8454717,149.09744
1.7861308,145.9392
1.7184165,146.69325
1.6754543,142.57343
1.7499613,140.20053
1.6589363,141.38261
1.6378165,139.40393
1.6067216,135.49457
1.5541815,133.28113
1.5736408,132.01938
1.5721775,128.03996
1.5006107,125.042175
1.5551434,122.94599
1.4625524,118.92391
1.4919304,117.26457
1.5233618,113.45164
1.4939278,112.30359
1.3994797,107.66904
1.328485,108.52525
1.4871349,103.60473
1.4765648,101.84007
1.443338,98.2678
1.3852974,97.84829
1.356723,94.2144
1.3328978,92.07669
1.334156,87.88281
1.2599802,86.48226
1.2469528,86.21185
1.2550578,79.96901
1.0969433,76.522606
1.0974518,74.60647
1.0247728,78.69161
1.0134094,68.91564
0.9966028,69.55587
0.9286623,66.419075
0.86687446,62.363277
0.8643203,58.907314
0.93994075,59.873165
0.8720267,53.492695
0.8878576,51.936287
0.896757,51.056858
0.9374336,44.80402
0.8728078,46.0206
0.89600134,43.466587
0.8188494,40.0
0.8597867,40.73719
0.80477923,40.0
0.83056587,40.0
0.8224084,40.0
0.77708375,40.0
0.7363286,40.0
0.73733276,40.0
0.6653408,40.0
0.62600905,40.0
0.5543609,40.0
0.59759706,40.0
0.53560805,40.0
0.4843427,40.0
0.43341163,40.0
0.5932662,40.0
0.31255248,40.339874
0.43420205,42.717945
0.4644138,44.217648
0.56361353,48.22403
0.53764063,49.395847
0.6111371,54.807602
0.63632566,56.83796
0.8195998,61.679337
0.8173589,67.25161
0.84115064,72.92022
0.9922149,76.19636
1.0263997,79.54803
1.2167022,83.74554
1.2742946,89.94649
1.2991264,92.98693
1.3470522,98.40099
1.3968093,104.22411
1.5394843,107.30825
1.6270492,111.38324
1.5888281,114.81865
1.6719844,123.51998
1.7133257,126.670944
1.7653118,127.42372
1.7055877,132.29688
1.7893488,137.5768
1.8978236,139.3853
1.7982558,142.26816
1.8235872,145.08665
1.8227453,144.83237
1.8311427,148.0753
1.7389426,149.19203
1.8967656,148.15562
1.7858543,151.3819
1.7950604,150.19177
1.7547281,150.97348
1.7789717,151.37582
1.6817832,152.31117
1.6148711,149.88405
1.6483418,149.53891
1.6492105,148.24605
1.5751662,144.23775
1.5258708,142.9174
1.5453734,143.12572
1.4466934,143.94324
1.5127629,139.46376
1.4153224,137.59314
1.4279819,136.06943
1.3156674,131.06035
1.4208739,133.5015
1.3535167,129.08919
1.3417302,125.02064
1.2266527,121.09016
1.2394754,117.26058
1.2746506,117.33819
1.1955714,116.63183
1.2059665,113.567696
1.2632437,111.9537
1.1775697,101.78066
1.2101837,104.50646
1.127525,101.37134
1.1769677,99.038086
1.0604997,97.00211
1.1174527,93.762245
1.1634407,92.29099
0.98640585,88.87489
0.93941545,86.01329
0.9899832,83.18459
0.8915721,80.666725
0.7850642,75.40975
0.82107294,75.46887
0.7751153,73.317345
0.6947135,70.95663
0.65978825,66.4882
0.71041965,65.1929
0.5905416,62.612392
0.5511651,60.12812
0.56649727,55.994884
0.6394773,50.127758
0.57292575,52.198444
0.551001,48.934177
0.5713303,46.077015
0.5947164,45.018883
0.6422306,41.151287
0.572511,43.259296
0.6434858,40.0
0.5642628,40.0
0.4908564,40.0
0.5270527,40.0
0.48435283,40.0
0.4777059,40.0
0.41876402,40.0
0.3473725,40.0
0.27650124,40.0
0.2686018,40.0
0.14788595,40.0
0.18238133,40.0
0.10210156,40.0
0.16574016,40.0
0.1728552,40.0
0.14347205,40.0
0.12658775,45.46197
0.1388891,46.868984
0.24505937,46.896454
0.27428058,52.9317
0.21909118,56.190033
0.34637418,61.117397
0.4172997,64.253784
0.46370295,69.65802
0.4824859,71.06724
0.5286894,76.65061
0.72656125,80.00626
0.713338,85.30697
0.8547432,90.91258
0.9949915,96.62817
1.0548624,100.08592
1.071168,106.360016
1.2106184,110.134964
1.2477919,113.80785
1.2451792,120.53
1.3917795,122.44253
1.3751665,124.97633
1.3404154,130.43701
1.2996199,132.11893
1.4364659,133.82791
1.4135835,143.08015
1.4509286,141.16972
1.4438484,146.4752
1.3452349,144.02881
1.4424101,150.53682
1.3962841,149.71648
1.419331,150.12283
1.404959,151.07858
1.4242777,150.12263
1.4195983,150.64864
1.4081584,149.78645
1.2382741,152.09717
1.4099562,150.54341
1.225256,148.40108
1.2794169,147.46597
1.2067872,146.26726
1.2332417,143.88406
1.0920253,140.64566
1.2347817,140.2654
1.1060635,139.65536
1.1215303,133.74374
1.0276495,134.20505
1.1300225,130.92093
0.95185417,127.471436
0.8677436,128.05759
1.0568311,120.40169
0.91151434,119.42247
0.9558275,117.05148
1.0282375,119.17975
0.91605854,116.98075
0.93910366,109.24102
0.9553917,107.49257
0.90085506,105.21165
0.94978935,101.455246
0.89950633,101.001114
0.7940919,99.23441
0.85126626,95.65537
0.78160584,90.73768
0.74833274,88.63475
0.73058605,86.80346
0.7222658,86.26679
0.58518475,81.49561
0.6615364,79.41661
0.6183487,74.41913
0.48315486,76.22027
0.5702992,70.707344
0.43795565,66.40928
0.44727156,69.32396
0.36978498,65.32181
0.41592675,60.953148
0.33542857,58.08429
0.35545823,55.728485
0.2047959,53.38213
0.31078064,53.039413
0.30320024,46.313385
0.23287793,47.50345
0.36758366,42.26514
0.30426157,43.544456
0.22404566,40.0
0.33887815,40.0
0.35004368,40.0
0.2684689,40.0
0.17446406,40.0
0.12763119,40.0
0.13020094,40.0
0.11615602,40.0
0.21079458,40.0
0.07552003,40.0
-0.015064121,40.0
-0.013906071,40.0
0.044708293,40.0
-0.00397684,40.0
-0.044685062,40.0
-0.061380934,41.56825
-0.048181154,43.788452
-0.025398891,43.682205
-0.017530156,49.892864
0.034593,49.944187
0.061240148,52.74026
0.08986251,56.12134
0.18637043,60.22849
0.2904217,63.202763
0.31533638,68.44817
0.45825392,72.99253
0.56566024,79.28635
0.627751,83.85468
0.66778666,88.907745
0.78603816,93.19167
0.8698573,97.47374
0.9484786,102.233826
1.0857968,108.75705
1.0140907,112.33984
1.1427407,114.20148
1.1632085,121.955215
1.1648594,124.833244
1.2031332,127.65875
1.3460834,131.11336
1.2558582,133.07991
1.3658066,138.78146
1.3746912,141.263
1.3369142,144.82591
1.4334941,146.08069
1.3351641,143.89468
1.3699634,150.03197
1.3409578,151.08986
1.4323554,151.29756
1.4465679,149.15823
1.3879662,153.00728
1.492585,151.58333
1.3684025,150.10078
1.3589882,149.91876
1.3567821,150.59875
1.2466364,144.86159
1.2769666,149.17274
1.1795226,146.18698
1.1341947,144.20316
1.2311112,141.14389
1.1043102,143.74127
1.1319945,136.37735
1.1827427,138.0529
0.98360807,133.2734
1.091193,134.4089
1.0398375,127.184006
1.0232853,123.25018
1.0183752,121.19073
1.0067055,118.46539
1.0248759,117.11726
0.9368258,115.14513
1.0102237,111.32036
0.9190783,111.57432
1.0771327,107.03799
0.95281875,105.88931
0.954312,101.91153
1.0199752,98.40282
0.8689674,96.151726
0.8848254,91.13529
0.78572756,95.1276
0.7781487,89.11935
0.72180843,85.94555
0.8013613,81.95624
0.7534758,81.14991
0.66531396,75.545975
0.62624615,77.22221
0.66868556,71.896355
0.58742553,73.50364
0.5154998,70.54186
0.59207535,64.055405
0.51053137,64.15372
0.53834444,63.327877
0.49720764,61.177177
0.59467125,57.21312
0.47443664,53.826916
0.38162088,49.750614
0.47491315,49.198498
0.50231606,43.629894
0.5134598,45.857304
0.5307523,45.30046
0.4555758,40.0
0.55881137,40.0
0.5163476,40.0
0.4571572,40.0
0.39380032,40.0
0.50375944,40.0
0.4131959,40.0
0.31878456,40.0
0.38348588,40.0
0.28968626,40.0
0.32481927,40.0
0.17561613,40.0
0.18572235,40.0
0.2508316,40.0
0.13673729,40.0
0.1589486,40.0
0.04188736,43.429783
0.22588402,44.57561
0.2967628,47.708298
0.23328239,54.34906
0.3576064,54.494045
0.36993358,56.085754
0.39166167,60.293488
0.5312475,68.21227
0.6023955,71.04477
0.72630787,75.091965
0.79375285,80.40475
0.9685457,84.52232
0.95978504,90.821724
1.0680708,93.22625
1.1693809,100.22619
1.2317735,104.66875
1.2784542,108.74498
1.3740969,111.65124
1.4573479,118.914185
1.528859,123.37504
1.4191377,122.2261
1.5938298,129.49644
1.5665126,130.80544
1.6889936,135.4466
1.7003778,138.70105
1.7184293,142.11015
1.6548404,143.73096
1.6234426,145.21376
1.7674024,148.13744
1.765401,146.71428
1.6018963,149.57394
1.7727705,150.4574
1.7138196,149.79895
1.6928614,148.32672
1.6311967,151.47873
1.7104675,149.2564
1.6164201,148.0406
1.5956762,151.71573
1.4869723,146.66862
1.5345147,145.2674
1.4964434,146.74507
1.4147226,141.49777
1.5763475,140.28664
1.4645703,137.04301
1.3737955,137.86516
1.3756468,134.03915
1.3756275,132.15935
1.3575426,129.39705
1.4148201,124.542404
1.3475175,123.51517
1.3566045,122.65561
1.3299229,120.12546
1.3968979,114.42139
1.4020828,114.46042
1.3182822,113.629
1.2696843,109.15236
1.3044764,106.27201
1.1392428,103.24713
1.3021333,103.444626
1.19907,97.90115
1.2372046,98.08685
1.2487102,94.37989
1.1673152,92.17019
1.1432629,87.2844
1.1457458,84.78175
1.0684896,83.55277
1.1087707,82.92076
1.0649227,74.29847
1.0193571,73.773094
0.9247068,71.45268
0.9567146,72.7001
0.86249983,66.97497
0.8740784,66.07364
0.7250149,61.853146
0.90723574,59.400974
0.9276454,56.280605
0.8451016,53.65013
0.7499589,50.761524
0.82035434,50.082897
0.8364621,45.393764
0.83483475,46.864655
0.9649844,45.050564
0.81922686,40.817963
0.7966397,40.0
0.8253665,40.0
0.7956937,40.0
0.74579644,40.0
0.67038447,40.0
0.77147406,40.0
0.6583501,40.0
0.6177988,40.0
0.593588,40.0
0.5262216,40.0
0.60361964,40.0
0.56877995,40.0
0.5291336,40.0
0.5404063,40.0
0.51893425,40.0
0.52933633,41.206284
0.60573286,40.47777
0.5857761,41.9068
0.5786142,49.97906
0.56647,52.263233
0.58740985,55.156128
0.64315,61.297348
0.85462904,61.95095
0.8556119,68.73922
0.97178394,72.92416
1.0050839,75.23223
1.2557821,84.41944
1.1373249,85.08632
1.3229861,90.198006
1.3802055,97.90266
1.4781603,100.45804
1.5339696,103.10322
1.5718778,111.292244
1.6211077,113.86163
1.8385531,117.06449
1.7652729,118.73746
1.8393829,126.55624
1.7745308,131.73811
1.7766739,131.82115
1.8745931,136.99774
1.9732014,139.46849
1.9439005,138.8414
1.9247019,143.76126
1.9809228,148.11151
1.933079,148.18289
2.0316217,149.97853
2.0296807,150.47513
1.9196141,148.65794
1.8988904,147.86794
1.9215825,149.5051
1.9307661,149.62485
1.8752179,151.0287
1.9211117,146.87184
1.856421,146.12825
1.8723702,147.83641
1.7305175,145.64212
1.7289032,142.23647
1.7576456,145.14426
1.703882,138.84888
1.6633261,139.14442
1.6195042,136.39476
1.6258795,133.82089
1.6724273,130.72784
1.4752133,131.58824
1.5533762,124.65779
1.5405316,124.33182
1.4771655,122.3898
1.513968,114.4359
1.4274763,117.0699
1.4722537,109.98067
1.4786144,111.365456
1.4811839,107.05739
1.5652323,103.21127
1.4111756,101.75237
1.3665155,104.47141
1.4639443,97.39469
1.1572099,93.76333
1.3259685,92.49624
1.3083239,88.03133
1.2408447,86.25214
1.2463375,85.72065
1.178142,82.577385
1.0815299,80.51411
1.1631868,78.45133
1.1266165,73.038826
1.0056322,69.87123
0.9955155,70.306885
1.0897481,65.36252
0.99219674,65.3723
0.94857407,62.524582
1.0158386,57.791096
0.8370033,56.166622
0.80747044,53.266193
0.91528696,49.365334
0.94627726,50.108925
0.8118893,47.33977
0.82973,45.329914
0.9326873,43.774975
0.8249801,40.57169
0.8601979,40.424316
0.8690744,40.0
0.8877156,40.0
0.7982492,40.0
0.81042075,40.0
0.6882029,40.0
0.746321,40.0
0.63106793,40.0
0.5680681,40.0
0.7079026,40.0
0.6606758,40.0
0.5432156,40.0
0.5904606,40.0
0.47656536,40.0
0.47771335,40.0
0.47678852,43.579075
0.45048988,41.585094
0.39930895,49.75168
0.5375752,50.383842
0.6645382,50.288456
0.6653344,55.983074
0.7555415,61.688316
0.8037312,62.076675
0.81571794,70.118355
0.9523213,74.22018
1.0052183,78.854866
1.0513278,83.561005
1.2364998,84.26227
1.2026911,92.718575
1.3133103,95.1682
1.5342026,101.74553
1.5233151,104.829796
1.5608882,110.74788
1.4908656,115.850044
1.6447427,117.28426
1.6321616,125.283806
1.7231005,129.01648
1.7461799,130.31508
1.7350415,134.07591
1.857561,139.40038
1.8595192,140.51097
1.7610863,139.89798
1.904989,145.4143
1.7656837,148.13626
1.9082206,151.54974
1.8057866,147.33745
1.7869577,149.96002
1.87208,149.76793
1.7715201,152.40558
1.8181033,154.14969
1.6731079,152.28331
1.7174398,149.51006
1.7136936,150.11287
1.7219392,148.27757
1.6662465,149.03528
1.5997856,146.59166
1.5890675,143.71126
1.4942112,141.16153
1.5303637,139.55675
1.4924474,139.03908
1.3979713,133.95029
1.4166456,132.92328
1.4246961,132.50453
1.4880991,124.30973
1.4030432,124.59679
1.3357451,122.31043
1.3230917,122.29298
1.2868037,119.0385
1.2868664,113.39678
1.3082181,110.96484
1.2935133,109.812355
1.2356684,105.69341
1.1666477,107.47124
1.1928213,101.32462
1.1381423,101.041084
1.0923983,95.4387
1.1565465,93.12267
1.1095628,92.99979
1.0076922,91.36819
0.99882233,83.43123
0.9897833,86.67689
0.944451,80.55236
0.9107416,81.21283
0.80648017,72.84636
0.8235711,72.541954
0.7646629,69.18524
0.77231055,68.213104
0.7573694,66.01585
0.8319431,63.580334
0.72175485,62.350574
0.64361465,58.237675
0.6220644,54.37216
0.566081,55.109245
0.5602183,51.521053
0.61557645,49.07281
0.6120279,45.28163
0.7284901,44.502365
0.54539275,41.41146
0.5295028,40.0
0.57102305,40.0
0.513657,40.0
0.536526,40.0
0.4642625,40.0
0.44183663,40.0
0.4428535,40.0
0.3529382,40.0
0.3234886,40.0
0.32914442,40.0
0.26566714,40.0
0.19487388,40.0
0.1724671,40.0
0.22697447,40.0
0.17315438,40.0
0.13160875,40.753494
0.19803408,41.969795
0.18978712,44.22656
0.2619857,48.098152
0.27352014,52.415874
0.33405057,53.61093
0.3120228,61.38327
0.34778255,60.524467
0.5044499,66.71676
0.5815384,71.41957
0.6163276,74.66076
0.6505364,82.39479
0.8031579,86.770905
0.889257,91.5928
0.8785947,93.80598
1.0433242,99.07232
1.1539416,105.923325
1.0919014,106.546936
1.2456232,113.87174
1.3381205,119.52368
1.3869872,119.07378
1.2588028,121.29791
1.4443227,127.28923
1.3991063,130.87708
1.4146277,134.83064
1.5826911,139.21301
1.476426,140.55171
1.453028,144.07771
1.5177332,143.01643
1.5636119,151.81624
1.4824892,149.4135
1.4396076,150.28229
1.4621866,150.05649
1.5009624,148.2342
1.4129404,150.30234
1.4664515,149.25905
1.381329,147.7948
1.2687012,149.15425
1.415892,148.49231
1.3261089,146.5127
1.3327999,146.91293
1.2626419,145.77232
1.2170517,143.8677
1.221285,141.2975
1.1442786,137.63364
1.2158564,134.33682
1.0928645,133.76962
1.1623988,134.10468
1.0765954,128.80887
0.9021324,127.235695
0.9558096,123.40087
1.0349635,121.63888
0.9302066,119.510056
0.89545655,116.24889
1.0201362,111.29159
0.8608093,108.79654
0.97070396,110.37096
0.89837515,104.24135
0.9375622,103.44107
0.8965764,100.56047
0.75420326,97.46258
0.81944925,96.53228
0.79412115,95.0869
0.7953388,92.031975
0.7551301,90.08243
0.6880168,87.08554
0.6023676,82.95552
0.6448699,82.77702
0.624324,80.439514
0.55692405,73.36465
0.49107128,75.62823
0.4487379,71.25374
0.38966286,70.19809
0.4231027,67.865715
0.39806485,62.994045
0.41374832,60.124935
0.32541147,57.68618
0.35441238,54.176407
0.2744161,50.68092
0.321007,51.01323
0.30706993,49.452477
0.38815275,47.0147
0.41818678,41.02646
0.26412347,40.0
0.36290032,40.0
0.33871755,40.0
0.25848374,40.0
0.22653009,40.0
0.1998251,40.0
0.18958783,40.0
0.15697668,40.0
0.13167247,40.0
0.076306425,40.0
0.107602485,40.0
0.057863913,40.0
-0.00792831,40.0
-0.05200248,40.0
-0.07157394,40.0
-0.029596101,40.0
-0.049582522,40.06986
-0.03214006,41.429035
0.022811916,47.123184
0.0077389693,47.641685
0.123862304,50.589077
0.0029644186,54.948086
0.10051594,60.630375
0.33173716,62.972878
0.29476348,68.65837
0.41233903,68.95306
0.5467931,75.17106
0.5866817,81.07182
0.7027802,86.1359
0.7726081,89.87001
0.8737101,95.98319
0.9264768,102.70873
1.0116357,103.482666
1.0111332,111.51048
1.1287249,113.21904
1.1539028,120.60095
1.199153,123.469315
1.1583447,124.995636
1.2582439,130.70926
1.3023862,130.91476
1.4134887,134.57265
1.3380692,138.39378
1.38172,142.1228
1.4486217,142.23291
1.3208272,142.61935
1.3682112,147.04933
1.4332857,148.38248
1.5119985,147.42752
1.2761295,149.9903
1.3629515,152.23619
1.3889204,149.57011
1.3845059,150.98654
1.4387285,149.87164
1.268981,148.6804
1.267064,144.43826
1.1703216,149.25294
1.234422,146.60608
1.2268648,142.70367
1.280725,144.87874
1.2334331,141.4685
1.1973778,136.87999
1.0585172,138.11916
1.0933737,132.86554
1.0708542,129.61263
1.0568349,128.85599
1.015177,126.26267
1.0627967,123.99548
0.9756027,120.55465
1.0021768,119.65575
1.0526054,113.66686
1.0817904,112.6166
0.92102844,110.9211
0.9840511,107.15486
0.9693115,106.56387
0.996566,104.31985
1.002711,100.90728
0.8827893,96.07532
0.873916,92.86048
0.855816,92.425705
0.84755874,89.86789
0.83340126,90.3037
0.73703974,84.318665
0.81613725,82.61517
0.5896578,79.51209
0.58623743,75.489914
0.6443337,74.37759
0.5721419,74.06996
0.52220315,67.96829
0.5754368,67.57581
0.54682285,66.075386
0.55284137,60.737034
0.42316154,58.722744
0.51069385,55.928646
0.50614023,57.807137
0.41179872,51.657967
0.46660936,48.633125
0.5162561,46.684338
0.5369785,45.97356
0.46032813,41.967773
0.4088817,40.22102
0.5386791,40.0
0.451911,40.0
0.3381325,40.0
0.4040702,40.0
0.45126048,40.0
0.30257192,40.0
0.34084126,40.0
0.2853464,40.0
0.2670687,40.0
0.21423909,40.0
0.23295398,40.0
0.17014414,40.0
0.19597499,40.0
0.13113432,40.0
0.2044162,40.0
0.15394215,41.717392
0.108091004,46.411602
0.15413569,49.14653
0.17745458,50.868183
0.22983776,56.158337
0.2782312,55.78989
0.3581277,58.520054
0.48957527,65.13158
0.6097662,68.481026
0.5883277,72.777725
0.7056373,76.68045
0.8786042,84.022675
0.91863334,86.59042
0.92606825,93.330284
1.1002333,98.493355
1.1964604,102.085785
1.2681056,106.63678
1.4357003,111.195496
1.342773,116.0786
1.4932793,120.99717
1.4837631,122.63035
1.5511986,127.95918
1.5294759,129.69583
1.5586833,132.28827
1.5539843,134.59053
1.5630924,136.96103
1.6892468,141.42877
1.638937,140.59822
1.8059217,147.76242
1.6550786,146.79086
1.7155212,150.04115
1.6818391,151.3735
1.5799166,151.60425
1.5964772,149.71527
1.5768126,151.02367
1.716208,153.55763
1.6905088,150.19339
1.7034636,148.57239
1.4680198,147.433
1.4883659,147.26608
1.5652585,146.91328
1.4689429,143.04333
1.5185045,141.71484
1.4344673,142.9071
1.4049276,137.5557
1.3169037,133.26341
1.3601259,133.41174
1.3906877,129.251
1.3049786,129.09254
1.3463058,127.72132
1.2781291,118.31009
1.2835635,119.4606
1.2801608,116.70147
1.3344522,114.53638
1.3490444,114.60808
1.3933638,110.27085
1.3313633,105.948204
1.3005106,101.76548
1.3611187,101.770546
1.2685187,102.54441
1.2672116,94.99236
1.2623394,94.489426
1.1958941,92.605354
1.1539994,89.30499
1.1166712,84.99804
1.0613444,83.27859
1.0296125,84.91183
1.0738714,74.39554
0.9272496,72.63307
0.9571302,75.00014
0.917632,72.0901
0.8176032,69.14445
0.9103948,64.67717
0.77888554,64.26525
0.7944125,58.572628
0.81788814,59.22781
0.8925978,55.5678
0.8395943,53.525658
0.8282972,53.79994
0.8830223,46.58095
0.8013175,47.13339
0.91877806,43.944595
0.84082717,44.34514
0.8179948,40.0
0.7110794,40.0
0.84219164,40.0
0.8031744,40.0
0.7428965,40.0
0.70282453,40.0
0.80330265,40.0
0.62634885,40.0
0.65161425,40.0
0.6014493,40.0
0.60255325,40.0
0.43850845,40.0
0.5474653,40.0
0.5768544,40.0
0.3858272,40.0
0.43346852,40.0
0.51997066,43.763294
0.5030866,46.862667
0.5750555,45.508663
0.6192426,51.39783
0.6436845,51.962376
0.78365016,56.290455
0.8007516,61.222874
0.7699034,65.798
0.9560978,70.424416
1.0039531,71.71438
1.1216615,79.479164
1.2419302,84.30399
1.3521532,89.68943
1.3578508,94.7261
1.477467,101.96954
1.4544743,102.493965
1.5564288,108.70468
1.6152611,109.64702
1.754913,117.124565
1.8413346,120.55355
1.9607952,122.29933
1.878619,130.06892
1.9239552,130.55988
1.8030688,134.11803
1.8211809,138.60248
1.8849281,142.72923
1.8771485,140.83032
1.976281,146.58974
2.043814,146.02824
1.9559468,149.04858
1.9191723,148.96402
1.963074,149.3691
1.9014696,151.94333
1.8985904,153.02998
1.9015144,151.04604
1.9135988,149.00659
1.7870032,149.1483
1.745088,146.24875
1.7800213,150.1991
1.8241591,146.52948
1.7037891,145.5395
1.8346214,144.30157
1.7551204,140.51302
1.7174208,139.93681
1.6999093,141.38623
1.6524357,134.13774
1.6333226,130.04019
1.6503546,131.34593
1.6195915,128.20827
1.5677594,124.972534
1.6379203,123.86967
1.5312485,120.78875
1.4936687,117.618996
1.4312981,114.05584
1.4611297,112.448395
1.5501777,109.784904
1.4747964,108.4635
1.4873315,103.21714
1.4500011,101.72734
1.3637207,99.13828
1.3870968,96.94512
1.3314849,94.953865
1.321,89.05543
1.2634186,89.557014
1.2970862,89.2621
1.2752984,83.44074
1.1953945,78.460045
1.0511665,79.4535
1.0450289,79.07125
1.1109793,75.03291
1.0045353,68.55613
0.97391754,65.51685
0.98978746,66.17166
0.92355204,61.51974
0.8371606,55.910095
0.885523,55.84167
0.90287983,54.360916
0.88877577,50.6754
0.9494381,52.672577
0.91504514,48.760033
0.9086498,44.305836
0.9635318,42.234367
0.8175622,40.0
0.9694706,40.0
0.96091336,40.0
0.85236406,40.0
0.81587154,40.0
0.87844414,40.0
0.7645503,40.0
0.761722,40.0
0.7207183,40.0
0.6932473,40.0
0.57330304,40.0
0.6164901,40.0
0.5158222,40.0
0.5031356,40.0
0.5614032,40.0
0.47541595,40.0
0.46567026,40.0
0.51647824,43.05506
0.59355855,42.604992
0.6772036,47.784595
0.65195215,54.500427
0.7011987,53.40713
0.7009294,56.810097
0.901227,62.683918
0.85335636,67.9228
0.92009234,71.769455
1.0237949,80.36414
1.1014814,81.97524
1.1039033,85.068275
1.217835,90.672295
1.3525356,97.247215
1.3672265,102.71934
1.5110946,102.96658
1.5435174,109.123886
1.6475034,115.24429
1.6438227,117.177895
1.7193388,120.93664
1.6389688,126.994934
1.6809764,127.72551
1.7482389,135.6381
1.8259547,138.02487
1.7850003,139.01091
1.8735399,141.35202
1.8625598,145.58511
1.8217522,145.90852
1.8560952,149.25395
1.8174359,151.49869
1.8490207,149.3552
1.7957375,149.53188
1.8285692,148.03418
1.8612522,150.24297
1.7074496,152.32735
1.7124735,150.2652
1.6890622,150.441
1.710821,152.88004
1.7080404,150.07155
1.5437977,146.37256
1.5915481,142.32043
1.5696211,145.02171
1.5809871,139.39482
1.4575796,138.71257
1.5109348,134.81094
1.4598943,135.29587
1.5099412,130.37448
1.507806,128.79787
1.4145788,125.79091
1.3414627,125.22164
1.3637146,121.85356
1.353752,118.77126
1.3375288,116.256516
1.319209,113.34541
1.312038,109.96367
1.3245931,107.68337
1.3680209,106.46005
1.1433505,102.20962
1.282383,97.958755
1.19811,96.567024
1.121878,95.24088
1.0610827,92.286766
1.1110963,93.62602
1.0588559,87.33981
0.960666,86.11599
0.9723179,81.696075
0.9842839,83.399414
0.9680612,76.88387
0.85323334,73.27491
0.81388825,71.97785
0.8034854,72.699265
0.7991301,66.12049
0.7205356,64.975716
0.70564103,63.368847
0.64804214,57.079536
0.64574236,57.41106
0.6100514,54.44388
0.5813955,50.528606
0.5665003,51.809383
0.5789591,47.461075
0.56997496,44.073433
0.626531,42.368473
0.6249723,41.71915
0.5676062,41.052715
0.52935463,40.0
0.6622565,40.0
0.50274986,40.0
0.46449512,40.0
0.3795926,40.0
0.44968975,40.0
0.47711885,40.0
0.33338213,40.0
0.28557727,40.0
0.28065762,40.0
0.24937415,40.0
0.07788971,40.0
0.22016828,40.0
0.2724186,40.0
0.17741999,40.898106
0.17817946,45.00885
0.24486805,44.275364
0.269827,50.196705
0.28559676,51.45652
0.3681193,56.44261
0.4310952,61.573074
0.3965479,64.318375
0.4721727,66.03505
0.54372746,71.33596
0.614045,74.50853
0.81672055,83.52972
0.89927584,90.19983
0.9608953,92.52716
1.1005565,95.73788
1.0716594,101.69777
1.1192639,106.04535
1.2224023,111.263466
1.3297887,113.136856
1.2887578,119.249374
1.4609743,122.60906
1.3925294,127.18959
1.4519143,130.90297
1.4574472,136.6129
1.4469717,136.87706
1.5279086,143.10718
1.311141,143.12122
1.4779618,147.53146
1.5378883,142.78615
1.420129,149.12943
1.4535393,151.01488
1.455753,148.95851
1.4525284,151.82352
1.4237852,151.65558
1.3846043,153.31061
1.412786,148.53032
1.4345442,149.35316
1.3868066,150.07347
1.391863,148.48512
1.2986715,147.49283
1.3426343,145.58347
1.1799992,143.18033
1.2811339,140.89111
1.2381395,138.63179
1.0699196,137.54141
1.1462986,134.302
1.0886999,134.39911
1.0651692,129.85674
1.0520813,126.62547
0.9974342,125.47408
1.060874,124.08721
0.9980328,120.64018
0.92689115,118.90532
0.9710152,114.46891
0.9370119,113.829254
0.98128945,111.318306
0.86871564,108.67082
1.0247135,102.37571
0.9101744,102.16788
0.8196111,98.170296
0.8488012,97.110794
0.8066098,95.92811
0.7592223,91.50665
0.7875217,89.91096
0.8431903,87.25628
0.78511065,84.525085
0.6584048,78.59561
0.56672347,78.92332
0.58095133,77.962944
0.56579787,73.594406
0.50207907,71.21508
0.49719077,69.72438
0.4529005,68.22441
0.42035884,64.55093
0.3232773,62.62384
0.36398792,57.488438
0.4580604,55.760117
0.37724915,53.31857
0.40733963,52.38315
0.44760373,47.000538
0.28062403,45.49378
0.47219533,45.568424
0.38361117,42.26981
0.38584358,40.0
0.28035685,41.150856
0.3369232,40.0
0.23846506,40.0
0.26298726,40.0
0.24381301,40.0
0.18158974,40.0
0.21780404,40.0
0.09472163,40.0
-0.019379983,40.0
0.03592647,40.0
0.08032609,40.0
0.11427857,40.0
0.033887256,40.0
0.007262774,40.0
-0.07194163,40.0
0.07160356,41.9619
0.0042071226,47.346615
0.03324172,45.778866
0.06627075,51.23574
0.022604594,53.065475
0.16013314,53.2523
0.13203873,60.344776
0.32349566,68.750336
0.3777973,68.80489
0.41154826,74.827255
0.5881337,82.8099
0.5982724,85.580696
0.6852068,89.03615
0.8132228,93.50404
0.8644776,100.450005
0.9521595,102.66145
1.0626035,108.68102
1.0345027,110.43804
1.0868158,115.45709
1.1673347,121.68426
1.2196891,122.622765
1.2933552,126.50586
1.3917376,132.19981
1.315376,133.05742
1.3402829,137.99323
1.3210526,138.35454
1.3267802,142.32501
1.4096079,147.26738
1.3812176,147.05373
1.4445666,146.33066
1.4368032,149.68654
1.417638,151.9466
1.2891318,151.65457
1.3881527,152.87025
1.2903265,150.98401
1.2241071,150.01376
1.3125783,150.49017
1.3487544,150.21442
1.2909646,147.6498
1.182721,147.69481
1.3449928,144.80977
1.2151511,141.65225
1.1019193,141.01393
1.0127723,139.64708
1.081781,137.00624
0.9670311,133.29135
0.99327713,131.71089
0.93939066,128.19012
0.9713371,127.71613
0.9685184,126.16677
0.9392394,122.87819
1.0930805,117.00745
0.9567443,117.29767
1.0274931,112.78006
0.9812239,109.20901
0.9334231,112.472725
0.9102447,107.410995
0.99315643,102.20158
0.85604876,101.65358
0.8598054,99.31801
0.8381676,95.45982
0.8505928,94.25959
0.77191687,91.76129
0.83586156,85.997734
0.80921894,82.32657
0.68123114,81.683716
0.7087807,79.65812
0.6016681,79.22474
0.6184994,77.70217
0.63585865,73.78231
0.5500105,69.12178
0.51199853,67.1826
0.6121815,62.979748
0.49425304,62.19683
0.41821256,59.864433
0.4045744,60.6408
0.5638015,53.844368
0.40578356,53.545574
0.40779012,50.331066
0.4466492,45.475136
0.48454064,44.89677
0.38353366,41.404808
0.43170488,43.688835
0.37251583,40.0
0.42552295,40.0
0.46312225,40.0
0.39059734,40.0
0.4831731,40.0
0.31200725,40.0
0.3373026,40.0
0.36140078,40.0
0.31274775,40.0
0.36392456,40.0
0.2133147,40.0
0.12297113,40.0
0.15110096,40.0
0.0881134,40.0
0.13026567,40.0
0.1897647,40.88475
0.17451681,44.584652
0.1564557,45.757915
0.16062781,49.166733
0.25773925,52.476467
0.32346395,54.065002
0.2960553,56.738937
0.38081732,65.85358
0.49780598,67.281204
0.5286772,73.46761
0.5920149,78.02592
0.7220336,79.02639
0.8847693,83.194664
0.95875424,90.613014
1.0161549,94.42599
1.0723242,97.9125
1.2159901,100.0518
1.2839048,109.83548
1.3959585,112.73804
1.2602612,121.090546
1.350841,122.85503
1.5338174,126.206
1.5483319,129.35802
1.6046863,131.03871
1.5377847,138.38719
1.5859432,140.81165
1.5578616,141.97633
1.516918,140.28395
1.654162,147.32518
1.726069,141.64717
1.6472467,146.74158
1.6184658,150.79518
1.5939938,149.90784
1.7022593,152.76712
1.6391437,150.40225
1.6283249,150.02368
1.5319247,148.63795
1.5406845,147.39473
1.6050233,150.7675
1.5172725,148.94553
1.4865165,145.92921
1.624098,142.50804
1.472643,141.62035
1.4346515,138.12091
1.4118121,138.67776
1.3605219,137.74951
1.3702453,132.6659
1.4547304,129.17848
1.3593237,128.61685
1.2417041,125.0435
1.2897668,123.01869
1.3083212,122.8295
1.2178193,117.43304
1.2650999,116.21333
1.2340591,113.744286
1.2573866,111.26248
1.2746977,107.24829
1.2986815,106.104965
1.1924154,102.4571
1.2336749,99.251205
1.2040366,98.79586
1.1887271,94.10107
1.133361,94.369774
1.1451775,89.30481
1.142048,87.480606
1.0114334,82.17065
1.1371021,81.554855
1.0606945,77.725006
0.89540195,78.82005
1.0166937,72.266525
0.9879737,73.75822
0.8548569,70.93403
0.8659469,65.52954
0.8388358,62.63611
0.74651617,60.600327
0.8582392,57.781246
0.7004542,56.507805
0.8080488,53.1325
0.87265605,51.614113
0.7055792,48.656685
0.7791839,48.857765
0.8545137,45.705948
0.8166587,41.162334
0.83661234,41.288437
0.7526337,40.0
0.7298858,40.0
0.75383484,40.0
0.7588456,40.0
0.75256944,40.0
0.7169778,40.0
0.71363986,40.0
0.6361411,40.0
0.5423339,40.0
0.4933391,40.0
0.5714527,40.0
0.55747086,40.0
0.5861903,40.0
0.5956954,40.0
0.51569504,40.0
0.4889073,44.103703
0.46319965,40.924393
0.4655314,43.96187
0.5505846,51.846268
0.58890074,56.335358
0.74956524,54.781807
0.7476054,59.369965
0.7792573,65.81085
0.82556194,71.08534
0.9830021,73.487526
1.0499575,77.70092
1.1081346,79.58904
1.1841209,85.94591
1.3339067,90.42544
1.3674122,96.15331
1.4500401,102.88352
1.5146654,106.66747
1.7525846,109.872025
1.6750996,112.87326
1.6783361,119.65663
1.6353304,122.035
1.7240672,128.55933
1.8280609,130.74094
1.9592894,135.85405
2.013257,138.93318
1.9017342,141.5902
1.9469159,143.66985
1.9296759,143.30402
1.9679224,145.48894
1.9347785,147.59248
1.917774,148.82912
1.9086823,149.81949
1.9719322,152.02292
1.9921367,153.73784
1.8884176,149.87958
1.9326168,152.01344
1.8839264,151.56
1.8342456,148.43416
1.8646998,147.31152
1.8731089,148.0472
1.7336618,144.34592
1.731116,145.72055
1.7946674,141.8882
1.6885911,141.83119
1.6224836,141.24399
1.6463339,136.19836
1.6141386,133.64679
1.6465113,128.73775
1.5708029,129.37218
1.5560151,124.98872
1.5397657,121.29507
1.5390797,120.13334
1.5982461,119.80352
1.5481392,113.74272
1.448099,115.10991
1.5069199,113.02949
1.499609,110.19577
1.4886189,103.88692
1.3777508,103.76889
1.4431723,101.37231
1.3844683,96.09603
1.3109705,96.11934
1.4211768,91.63689
1.311667,90.63764
1.276873,88.485146
1.2982984,82.21866
1.2663977,83.35607
1.161117,79.098526
1.1362798,76.96345
1.0450672,74.519806
1.0133536,71.257195
1.0968474,65.92944
1.0042742,66.4871
1.0281999,61.88138
0.95049113,64.25039
0.9658646,57.080837
0.84364134,58.938816
0.9706,54.75829
0.9201662,51.06137
0.89452726,47.44899
0.9487878,46.445583
0.96467835,43.913155
0.8879255,41.44401
0.83981955,40.0
0.97627616,40.0
0.86406493,40.0
0.7563673,40.0
0.8088692,40.0
0.824678,40.0
0.76432085,40.0
0.7259515,40.0
0.67674756,40.0
0.6350959,40.0
0.5540576,40.0
0.5190463,40.0
0.5752434,40.0
0.5966628,40.0
0.5034884,40.0
0.5824951,43.33617
0.57101125,40.17016
0.5214835,43.442665
0.5859321,47.603863
0.6138896,51.7433
0.6086696,53.274662
0.5791555,58.400166
0.7617047,60.97618
0.86214167,67.40416
0.874616,71.29263
1.0877606,76.405464
1.1210818,80.19197
1.0761993,83.73192
1.2253009,90.600945
1.2728746,90.368546
1.3743285,94.74488
1.499297,105.21886
1.5193303,108.55317
1.5634388,109.85394
1.6516645,117.31831
1.7332988,122.96185
1.7735283,128.32983
1.8009777,127.337975
1.8682299,129.44327
1.8157032,136.43394
1.8193253,138.32043
1.8427707,138.56982
1.8175914,141.78937
1.820933,145.59969
1.9027637,145.64906
1.904862,147.15324
1.7197517,150.72752
1.895329,151.10056
1.8132914,151.13693
1.7863785,152.65945
1.7835388,153.86867
1.7138312,151.0236
1.7459266,144.40175
1.8264673,148.86113
1.6190821,150.44618
1.6999985,148.9101
1.6864293,145.12286
1.6336099,142.28937
1.6500165,140.44482
1.5894933,140.06932
1.542567,133.99268
1.5322465,136.92313
1.5027425,133.38577
1.4089372,128.06848
1.4373034,126.54029
1.3711253,122.94877
1.2992167,121.87732
1.4473819,119.38306
1.31049,116.970856
1.3825802,115.31672
1.340937,111.680695
1.2538188,107.50453
1.2451808,106.66268
1.288657,103.131195
1.2690072,100.237366
1.2060133,98.53544
1.1172816,97.68025
1.2099012,93.59904
0.9839408,93.161545
1.1155329,89.19496
1.1162107,86.931496
0.9208308,82.41253
0.9815587,78.50016
0.91060615,76.74281
0.8983718,77.11119
0.8985149,74.36316
0.7413031,73.68426
0.7652568,70.133415
0.73846763,63.47695
0.62115467,65.68958
0.7303032,60.584938
0.7682176,55.159363
0.7063522,54.01553
0.669267,50.24657
0.70141023,51.556614
0.61965907,49.287144
0.5997048,43.78706
0.66550404,43.24878
0.6427354,42.92843
0.63601583,42.981155
0.5606786,40.0
0.50810105,40.0
0.50816125,40.0
0.4891917,40.0
0.39512062,40.0
0.48837927,40.0
0.35847387,40.0
0.3153329,40.0
0.33099145,40.0
0.25944644,40.0
0.1899475,40.0
0.16590263,40.0
0.24609558,40.0
0.18630043,40.0
0.12010693,40.0
0.2778106,42.245678
0.18159084,44.31525
0.2719644,46.51794
0.27629644,51.354534
0.33436257,53.61539
0.38721418,58.531654
0.38014042,58.713673
0.6386851,68.26935
0.56096363,70.93748
0.72335947,71.989
0.72261566,83.441185
0.7891189,85.86594
0.99798065,87.6828
1.0861793,93.61412
1.1038549,96.532005
1.191564,102.94432
1.1490835,108.515076
1.3051467,113.11289
1.3555256,116.21429
1.3889953,121.027824
1.4890833,126.21493
1.3183556,129.48769
1.4524002,135.86867
1.5583633,133.33566
1.4400536,138.66017
1.5416837,143.66794
1.4898676,148.19255
1.5223243,144.21986
1.4625816,148.08598
1.6295984,149.06998
1.4465568,146.6218
1.4884712,149.78294
1.4682125,152.71727
1.5202873,148.94759
1.4488982,153.08185
1.3416017,150.35017
1.3645957,149.31834
1.2588769,150.19054
1.3446048,150.06482
1.4016576,151.78432
1.2676443,143.78079
1.2630471,143.10297
1.2701352,139.97746
1.146371,139.54839
1.2086407,140.47461
1.2224078,132.61913
1.0065881,130.44504
1.1333253,129.21039
0.9776805,125.27512
0.9960608,120.657005
1.0785115,122.37083
1.0229503,118.98008
0.9702044,119.560684
1.09713,111.50656
0.9531567,110.65422
1.0139256,107.85248
0.9273559,105.84187
0.9500476,102.06688
0.9322677,102.140305
0.88817996,98.16006
0.7844869,93.78916
0.84179467,94.23081
0.76415855,89.689835
0.73390496,88.26682
0.7491315,86.16444
0.70499283,81.40081
0.5976861,80.60233
0.6067487,74.98703
0.5567372,71.88388
0.47363257,73.25544
0.44222662,69.83129
0.4122444,68.64902
0.42557037,60.655933
0.388501,63.511158
0.39756927,58.76494
0.32838294,56.020256
0.35552576,57.304928
0.35322005,51.289867
0.3710168,48.45039
0.42696264,46.219547
0.40354067,42.807793
0.34009275,42.626953
0.25520632,43.60642
0.3011746,40.0
0.3613194,40.0
0.2928155,40.0
0.20801221,40.0
0.23487784,40.0
0.189829,40.0
0.24442953,40.0
0.112662055,40.0
0.12641023,40.0
0.10362286,40.0
-0.030225158,40.0
-0.03528715,40.0
-0.043730494,40.0
-0.032208327,40.0
-0.07894547,40.0
-0.118480176,40.662334
-0.08833016,41.44674
0.0340895,44.95599
0.12548214,49.891563
0.07819622,49.99565
0.17184103,56.435158
0.19736548,57.512547
0.28581762,63.310722
0.36507064,67.90793
0.44366044,71.2342
0.51194423,78.626045
0.58722734,85.01106
0.6449437,81.35849
0.77708083,93.0662
0.84696484,97.89993
0.8608608,100.832405
1.0402503,105.405556
1.0955658,109.17934
1.1135452,114.564384
1.2168399,120.54298
1.2396402,121.61241
1.2191063,125.438065
1.1818036,132.41399
1.2079207,134.73004
1.3908519,136.9359
1.3421458,141.73985
1.3379275,141.325
1.3324189,145.73607
1.3753666,148.79286
1.4214284,148.58289
1.3313386,147.72504
1.3737792,148.202
1.4984484,149.86136
1.444512,152.22507
1.222477,152.06754
1.2275538,150.83904
1.3949374,150.67654
1.3263223,151.02985
1.2588483,147.5888
1.2576393,143.4156
1.1869595,149.3913
1.1410041,145.7677
1.1847911,143.41428
1.1144116,142.92645
1.1372155,139.32062
1.0392182,134.9091
1.0810826,136.35794
1.0396703,128.33568
0.9366605,126.750916
1.0658839,126.38767
0.9043679,124.74547
1.0347104,120.45675
0.98054236,118.405075
0.982252,115.038025
0.9164399,112.12751
0.91513056,110.29977
0.9255547,103.57883
0.8483202,104.389206
0.93124914,100.47273
0.8669588,100.84546
0.75658363,99.360825
0.9398517,91.846664
0.8294579,90.82661
0.8024461,91.28981
0.7170837,86.583755
0.7346418,87.55835
0.7188805,86.87015
0.56905645,81.293365
0.6386457,75.824
0.51806724,72.74986
0.47396344,71.00601
0.46578214,71.31801
0.594253,65.01886
0.505625,63.227776
0.4481795,61.393982
0.52515215,56.23518
0.38240874,56.63453
0.3731517,53.349335
0.3777267,50.0087
0.5224199,47.493355
0.47181633,44.696743
0.3859856,46.701458
0.39176655,41.390297
0.4387705,40.0
0.3590313,40.0
0.39736673,40.0
0.33989957,40.0
0.36740553,40.0
0.38846508,40.0
0.40789157,40.0
0.2061106,40.0
0.28459373,40.0
0.2551346,40.0
0.17599191,40.0
0.12798108,40.0
0.10306051,40.0
0.019489458,40.0
0.14409798,40.0
0.06250073,40.0
0.02376893,42.375942
0.14488654,46.10905
0.1738458,49.509193
0.24168405,50.530285
0.3425383,53.11071
0.3115461,60.089973
0.36331874,60.07214
0.4352439,65.39771
0.5226908,69.87073
0.58651805,74.35998
0.69134706,76.65808
0.7665047,83.67496
0.8393029,87.60419
1.0691782,92.10011
1.1343421,97.37862
1.045527,102.02406
1.2309536,106.85358
1.2781644,113.76933
1.3494416,114.83896
1.3210595,119.651306
1.3479371,123.86416
1.4812611,125.56812
1.5000204,129.29582
1.5201421,133.67726
1.5620214,137.73518
1.6231033,140.60825
1.6528306,140.40797
1.5681224,142.84372
1.5805428,146.89397
1.6381458,146.13383
1.6942683,146.88148
1.6178564,152.82541
1.6308125,152.09032
1.5444609,150.09995
1.4899362,154.44424
1.7077038,150.48422
1.5854714,150.79
1.4989129,149.4699
1.4190036,148.99576
1.5802022,149.94814
1.4321122,144.10703
1.4064509,146.08653
1.3925655,143.24289
1.4114668,139.51381
1.4133389,138.37389
1.3427004,135.208
1.2839406,134.44046
1.4386145,130.72392
1.2797172,129.70102
1.292998,123.95661
1.2049037,121.54177
1.3039172,118.009094
1.3236886,115.8008
1.2173889,117.498085
1.1613287,110.722664
1.2303363,109.27851
1.3401877,107.0849
1.1998318,107.498
1.3509701,103.028564
1.1759403,97.838295
1.0916206,96.647484
1.1365018,91.573395
1.0399342,93.32306
1.0695945,88.281494
1.0939386,83.638084
1.0158798,84.3817
1.0610226,84.14584
0.9409266,77.357414
0.85676193,75.06789
0.90812516,72.865616
0.8624507,70.55856
0.8419445,67.47254
0.7546706,66.5848
0.8156406,63.421883
0.85949844,61.255272
0.71068275,57.845684
0.6743899,56.192238
0.6909906,51.487686
0.769253,51.034943
0.68947494,48.588135
0.7910186,48.88869
0.79358953,40.65164
0.7931896,40.993187
0.9037396,40.0
0.66647047,40.936825
0.6625239,40.0
0.7996029,40.0
0.7397167,40.0
0.74564564,40.0
0.5519161,40.0
0.5549486,40.0
0.6419615,40.0
0.5494748,40.0
0.5940207,40.0
0.476377,40.0
0.4635158,40.0
0.5756561,40.0
0.39524937,40.0
0.4875075,40.0
0.3791837,43.72691
0.4366397,44.363304
0.55150956,49.58304
0.48361528,49.360825
0.6549219,51.35516
0.6610136,56.283627
0.69299364,63.39653
0.81544673,65.69149
0.8737731,70.17841
0.95390487,76.44014
1.0535802,79.50092
1.0960418,84.10087
1.1643621,89.88696
1.2301897,95.120575
1.4462913,97.63123
1.5181738,104.55039
1.5247643,110.06986
1.6224397,113.38263
1.7573572,116.2713
1.7039131,121.73159
1.7660655,128.24495
1.9170891,128.12173
1.868622,132.11455
1.9212188,134.52536
1.9320208,140.09076
1.9377222,142.2364
1.8863063,145.48633
1.8816395,146.46312
1.9710056,148.38861
1.964242,149.16629
1.9469209,149.601
1.9444593,149.5851
1.880901,149.6643
1.8481561,149.79619
1.8561727,149.2859
1.8632165,148.8275
1.8249514,152.96199
1.9134171,150.5713
1.8836048,146.58676
1.8248032,145.52357
1.8159771,141.77109
1.6580883,141.66972
1.7335303,142.6897
1.6671871,138.20428
1.6190387,137.469
1.6037487,133.27257
1.5821131,131.23495
1.5566765,130.49495
1.5272305,127.35999
1.4750731,122.265045
1.4506166,121.3747
1.5416634,116.50204
1.3668433,120.04177
1.6031376,114.09551
1.4620409,108.60094
1.3916303,110.76498
1.499923,104.65706
1.4523252,103.557846
1.3937892,101.53557
1.3929698,98.37296
1.394238,97.5184
1.4272654,93.47
1.2041475,90.922295
1.3227501,87.019325
1.3545008,82.577446
1.189294,82.23341
1.2305292,78.87602
1.1873759,77.12971
1.2116264,76.270676
1.0907464,70.92182
1.0818086,70.52736
1.0710117,66.62208
1.0226613,63.669678
0.92404044,59.45409
0.91619056,57.639412
0.95544285,54.781067
0.9780544,55.329334
0.94548684,53.251606
0.8714801,46.69852
0.9100932,44.868073
0.8490225,46.85588
0.9473131,44.499397
1.0132098,43.59969
0.9292741,41.543556
0.788249,40.0
0.87678784,40.0
0.84825265,40.0
0.7946881,40.0
0.68551433,40.0
0.78102124,40.0
0.7683511,40.0
0.6361446,40.0
0.5983418,40.0
0.5929076,40.0
0.6678024,40.0
0.5376525,40.0
0.4941266,40.0
0.5027697,40.0
0.55249006,41.479805
0.42806154,44.255867
0.540824,45.52619
0.56620634,51.016346
0.6205418,50.85514
0.6422477,56.455322
0.6705415,60.785686
0.85599977,63.950874
0.7884345,69.52277
1.0437542,69.76111
1.0640715,75.7395
1.1656393,79.91963
1.2178849,87.10352
1.3576148,91.64213
1.4036001,95.44153
1.517905,100.64221
1.5636767,104.26988
1.641118,112.229935
1.6036953,113.40664
1.671289,119.10656
1.7354692,120.05503
1.772077,128.9117
1.8326198,130.2156
1.7896265,133.05386
1.8478575,137.97005
1.8954998,139.85797
1.7750005,142.52226
1.9345529,145.19115
1.98807,145.75981
1.8345518,147.77515
1.953599,147.95387
1.8813815,152.81525
1.813219,148.97989
1.8874922,148.93616
1.9276859,149.55356
1.7868649,153.15622
1.7297385,150.17487
1.6439539,149.14801
1.723738,148.0105
1.7097664,147.5632
1.7635465,145.33948
1.7337253,142.26866
1.5711678,142.0751
1.6147408,140.25572
1.482513,136.36104
1.5157377,134.2379
1.4773843,133.1661
1.4133378,131.13983
1.4292065,125.295906
1.4583516,125.098465
1.4533614,119.99718
1.3735262,122.51559
1.3623616,119.20729
1.2590526,114.57916
1.3553697,113.33197
1.314678,108.82933
1.309696,108.53107
1.2736821,104.43365
1.2311922,105.90244
1.2135967,99.58117
1.1987729,96.895615
1.1366493,94.574905
1.1877638,90.758286
1.1659588,86.56505
1.0913717,85.83014
1.06668,86.20535
1.0033774,80.06821
1.0311517,78.29292
0.93260807,76.65121
0.9031107,76.98987
0.8915802,74.18938
0.8135281,69.01144
0.8550084,66.397835
0.7217639,59.02685
0.8222803,59.973873
0.7050012,59.845413
0.6674676,56.36827
0.6097993,54.701332
0.72787946,51.60102
0.6582894,48.82558
0.6794008,44.759846
0.6799242,44.650272
0.6342365,44.724907
0.7049787,40.0
0.6599096,40.0
0.5752119,40.0
0.5278809,40.0
0.61076003,40.0
0.5269791,40.0
0.5403579,40.0
0.45349276,40.0
0.43737128,40.0
0.42754117,40.0
0.26936227,40.0
0.39703184,40.0
0.29737458,40.0
0.14663595,40.0
0.30294758,40.0
0.2748025,40.0
0.21432813,40.986393
0.30687025,43.912907
0.22378884,46.807465
0.28265217,50.053467
0.45334154,55.271023
0.41232318,58.272247
0.50301653,60.132977
0.5583633,65.722855
0.519891,72.75114
0.68601495,76.88156
0.76316047,78.234665
0.89635175,83.19134
0.99460953,86.74873
1.0635201,90.63417
1.0489334,97.10014
1.0708802,98.93074
1.2368187,104.893
1.2665421,110.35901
1.2704984,116.484856
1.3357956,121.253845
1.4090594,124.97132
1.459484,128.0346
1.4455976,130.78496
1.4958894,135.0548
1.510245,137.32626
1.5407366,143.2025
1.4845442,141.38196
1.5031565,145.13391
1.6092547,149.50987
1.5235946,145.36496
1.5553778,146.62308
1.4587463,149.85284
1.5702604,154.09666
1.5528629,151.24228
1.4903773,148.3889
1.421886,151.58963
1.3553276,151.13622
1.519857,149.36742
1.3529382,146.35486
1.269388,144.20135
1.2807188,144.79059
1.2995701,144.65852
1.1821815,142.08119
1.1840557,140.96661
1.1093918,137.66489
1.2288564,134.67331
1.1231878,134.72626
1.028032,130.22415
1.034511,126.743835
1.028282,121.53228
1.0457915,121.396286
0.9828108,120.02554
0.99774957,114.86434
0.9714855,114.98146
0.9183163,115.005486
0.93269134,108.179794
0.9262939,106.36462
0.88740146,105.82781
0.8573583,102.48853
0.87940425,97.34617
0.9294576,96.69212
0.84848267,95.38546
0.6597504,89.87396
0.8402624,89.021255
0.7142428,84.48529
0.7837982,83.391785
0.70988286,79.08645
0.61093825,76.639145
0.5759362,78.620575
0.48824832,72.948975
0.5443786,74.35007
0.56137294,67.32241
0.4119779,66.255714
0.39419892,64.49304
0.5073959,60.939537
0.39502954,56.665752
0.30098474,56.261906
0.30157962,49.69752
0.4545702,50.295063
0.38758674,49.199318
0.30590278,45.068996
0.37351215,40.0
0.30751058,40.943016
0.24285214,40.78421
0.31170136,40.0
0.31248027,40.0
0.21100016,40.0
0.20120504,40.0
0.18429786,40.0
0.19171575,40.0
0.17255324,40.0
0.05383528,40.0
0.060493533,40.0
0.030181468,40.0
-0.067825064,40.0
0.0055841818,40.0
0.0036501768,40.0
-0.024086839,40.0
-0.11206308,40.0
-0.0067680334,42.689907
-0.025651183,43.574524
0.058338165,47.69108
0.07135737,51.194412
0.112155415,53.200275
0.14041626,60.6168
0.27148277,65.12938
0.2375627,66.504944
0.3110781,69.91527
0.6010032,75.334656
0.4451881,80.67799
0.5698695,84.80706
0.7574528,90.360725
0.7143464,94.63716
0.9144163,98.94507
1.01307,100.98795
1.0869337,111.45986
1.0825227,111.03043
1.0736648,116.62368
1.1354314,119.21317
1.2897148,125.5529
1.1641318,132.12433
1.3326012,132.54927
1.2317721,133.81073
1.329185,140.02852
1.3168879,143.32495
1.33689,142.54346
1.4357508,147.61664
1.3421878,148.18198
1.4236684,151.08173
1.3295802,149.31702
1.3737558,153.45311
1.344177,152.04799
1.2674378,152.37195
1.2530941,149.78946
1.2907956,150.21133
1.2630529,151.19957
1.2948443,149.64459
1.1390138,148.65172
1.1649673,149.47888
1.2018746,142.81555
1.1384103,143.18967
1.0479949,140.06744
1.1139829,138.11069
1.1129721,138.01714
0.99348414,130.22658
1.072633,128.88528
0.97253424,129.57104
0.9679835,127.72375
0.94457203,122.31442
1.0123227,120.77193
0.94167894,118.80195
0.98136795,118.92382
0.9087311,114.78555
0.9445045,111.1293
0.861451,108.05023
0.9590428,107.22497
0.87938166,101.96231
0.9444462,100.85495
0.85898113,98.60044
0.8446502,95.54159
0.93196577,93.90178
0.823522,89.65015
0.7630275,90.23722
0.65558183,88.01858
0.64315456,86.87595
0.6853674,83.197075
0.59072304,78.68522
0.56127673,75.78734
0.48238388,74.98329
0.5281934,70.90154
0.4855768,63.916805
0.49406502,65.27584
0.5027804,61.181915
0.44834647,57.4156
0.35537544,58.908264
0.3323546,52.236076
0.44552943,51.493645
0.4139068,50.611725
0.49898672,46.833534
0.41110414,42.853657
0.3207813,41.790405
0.3423451,40.76526
0.3635435,40.0
0.48264244,40.0
0.43942544,40.0
0.3332054,40.0
0.32793397,40.0
0.24068011,40.0
0.20851637,40.0
0.3054687,40.0
0.26261982,40.0
0.16675305,40.0
0.24494672,40.0
0.14519995,40.0
0.11208358,40.0
0.09780364,40.0
0.02573967,40.0
0.13253216,40.0
0.14672676,41.077293
0.13473462,43.375725
0.10034298,48.482014
0.26044402,51.776737
0.16800426,56.153366
0.28651765,58.10886
0.42986718,63.325184
0.45900705,70.118935
0.5140302,72.62657
0.7245601,74.67728
0.80135614,80.885155
0.887474,86.023796
0.9375103,90.65648
1.0069971,94.20838
1.175314,100.13366
1.2350799,105.265274
1.2262467,110.41184
1.4334193,117.48678
1.3438089,119.32816
1.4200723,123.03641
1.5153768,125.381065
1.5002422,131.44485
1.4990783,132.17404
1.5586351,136.15001
1.5600748,141.5822
1.4674741,139.51126
1.6417885,143.8873
1.5670635,144.87016
1.5453663,148.11464
1.6689057,147.71692
1.625222,149.2272
1.6365016,151.3581
1.5876069,152.24284
1.5952512,152.48933
1.5548084,152.06624
1.5097063,148.47627
1.5705873,150.57587
1.5264052,148.40959
1.5798049,148.5331
1.3513975,143.51872
1.5019388,142.66614
1.395489,141.11395
1.3651731,143.90086
1.3956681,139.11923
1.2967389,134.9256
1.2982438,133.06831
1.3332592,129.36266
1.2588022,127.76223
1.2363619,126.37483
1.2250959,122.91481
1.2707098,121.409546
1.1833825,118.33505
1.2784095,115.00621
1.3429935,109.797066
1.2283947,109.977234
1.2438451,106.65518
1.2264462,105.06151
1.1535896,105.137566
1.203859,101.34811
1.1814159,96.644966
1.2400188,94.16923
1.1365961,92.42031
1.1595203,88.99823
1.0863817,89.24988
1.0044558,86.45153
0.93451923,80.47106
0.97578233,82.08763
0.96379143,78.386665
0.88613254,74.05931
0.8265478,72.88387
0.9032898,68.5494
0.7835159,65.80932
0.72668064,62.42764
0.7669871,64.5571
0.7631207,56.661465
0.71417403,55.12987
0.7439228,54.344086
0.6606766,48.310947
0.77112615,46.531017
0.69722146,45.6596
0.73330545,41.06679
0.7182629,42.80521
0.8229427,42.97342
0.72919786,44.307583
0.6913231,40.0
0.82786393,40.0
0.79327875,40.0
0.7200545,40.0
0.67811054,40.0
0.5736349,40.0
0.64136684,40.0
0.5706673,40.0
0.48655313,40.0
0.49675542,40.0
0.44002852,40.0
0.36592165,40.0
0.502612,40.0
0.33544502,40.0
0.54648787,41.989758
0.4413054,44.448433
0.50346833,44.718117
0.54642946,51.358883
0.5171286,53.24774
0.61630005,61.701225
0.6896888,58.741745
0.7390469,66.576614
0.9047941,69.44601
0.8745367,74.95331
1.0352479,76.74601
1.025953,81.65107
1.214771,87.09743
1.2973505,90.26499
1.4695488,97.12773
1.4175807,101.323616
1.5130532,108.1885
1.5758237,111.46438
1.7347325,115.386154
1.6716739,117.61773
1.7595963,123.47316
1.773099,128.5511
1.8145419,134.46794
1.8513906,133.63982
1.9306093,136.68869
1.9673458,142.42477
1.8349291,143.67035
1.956685,143.26709
1.9873309,146.18883
1.942909,147.98077
1.9857609,150.02097
1.856476,150.52335
1.9398966,152.56137
1.9677964,153.49454
1.857642,150.16536
1.8074155,147.52151
1.9134969,150.61726
1.8111694,151.68518
1.7792097,147.18294
1.6863396,147.3416
1.7296658,142.41591
1.6922567,144.06206
1.6073143,142.39276
1.6424595,139.37822
1.7071317,144.2349
1.6387235,134.163
1.5137962,131.04266
1.5976654,132.38951
1.5969632,126.77634
1.5493637,128.37987
1.529059,122.40256
1.4789252,120.43604
1.5318135,117.06792
1.5318158,113.2007
1.507749,111.19199
1.5743016,108.52166
1.4635159,107.65398
1.3946037,104.74154
1.5329869,102.26501
1.3310589,97.20051
1.3860203,95.044304
1.3335366,95.17257
1.3465413,90.84397
1.3122487,90.70172
1.2346456,86.52843
1.3014636,81.48495
1.2007852,79.744316
1.2314855,81.667595
1.070063,77.63359
1.0379649,71.56884
1.00247,72.3731
1.0554856,68.11927
1.0920295,67.778854
0.9639369,63.293
0.8424954,59.104702
0.9726682,59.082405
0.9729576,52.610233
0.87926984,53.627506
0.95806146,49.650177
0.9685587,47.504673
0.8194345,43.628902
0.9800321,43.68461
0.9788665,40.942066
0.89495116,40.0
0.933043,40.0
0.9862581,40.0
0.8304671,40.0
0.8993839,40.0
0.8230451,40.0
0.718769,40.0
0.6479754,40.0
0.7417026,40.0
0.599776,40.0
0.6810121,40.0
0.4857655,40.0
0.57804394,40.0
0.5323197,40.0
0.62159634,40.0
0.5422779,40.050888
0.56772906,40.14995
0.5301236,41.666805
0.57018924,46.542694
0.6714725,50.421196
0.66624093,55.73244
0.67568034,58.119514
0.847793,58.245773
0.948894,67.29183
1.017899,73.371994
1.0891653,77.0225
1.092401,78.66827
1.1410884,83.022255
1.2140036,90.20209
1.288615,95.15918
1.4280926,98.640495
1.5961881,100.52198
1.4859624,107.69584
1.6320703,112.59204
1.6681494,115.23576
1.6708416,123.12312
1.7585729,124.64693
1.8719761,128.16261
1.8451512,134.8302
1.8881259,134.57753
1.9281573,136.91977
1.9055971,140.34285
1.8750216,144.57666
1.9035687,145.21016
1.8438272,143.95367
1.8993564,150.11488
1.8966434,152.53531
1.9489425,149.76018
1.8518986,152.63242
1.8363055,154.1363
1.7562792,148.83983
1.8462356,148.88307
1.7128131,150.7043
1.7361068,148.07663
1.6962893,148.2336
1.7482394,145.78557
1.6957934,145.74782
1.6748556,142.92241
1.6548889,143.096
1.5416422,142.6053
1.4995486,136.66864
1.428911,138.34834
1.4958304,135.08426
1.4249583,130.69427
1.467123,128.08743
1.4847866,125.0228
1.4563524,119.35585
1.4000056,119.85476
1.3845443,118.28449
1.3675379,113.50343
1.4649925,109.25562
1.3121969,110.416466
1.3314409,109.43192
1.3009197,105.193016
1.2499027,101.14061
1.2473605,98.755486
1.2414317,95.50598
1.1483202,94.63522
1.2601658,92.89906
1.1753211,89.2622
1.1542623,85.67708
1.0479397,84.46769
0.99742883,80.71212
0.9598682,79.9721
0.8933639,73.25305
0.956582,73.99748
0.9248108,68.91406
0.84802073,69.03449
0.87821597,66.48405
0.88969314,63.472286
0.84139526,61.799892
0.70639706,59.18667
0.59411895,54.386166
0.74837685,53.460083
0.72567666,46.836464
0.7040696,47.20929
0.68134326,43.72931
0.75664085,41.60668
0.59892416,40.0
0.74597174,40.0
0.7408625,40.0
0.63930917,40.0
0.62157667,40.0
0.5165905,40.0
0.59602916,40.0
0.5729121,40.0
0.5075272,40.0
0.3639079,40.0
0.30488572,40.0
0.3375086,40.0
0.3197737,40.0
0.33920094,40.0
0.2526495,40.0
0.30629736,40.0
0.30570853,40.0
0.27822766,40.0
0.31572655,41.836674
0.27757815,51.197693
0.27897838,52.62346
0.35740077,56.877033
0.4019231,59.025696
0.5733328,63.994293
0.6280854,69.39033
0.55667204,72.1425
0.7514702,78.06806
0.7327763,79.67177
0.85140735,88.64991
1.0309739,93.37835
0.9770714,93.81196
1.0692471,98.4895
1.155234,107.95595
1.1889234,110.070175
1.2536634,114.00113
1.3736356,115.80666
1.3327919,121.83099
1.443402,127.77841
1.4871606,127.78339
1.5501065,133.99889
1.5785611,136.67798
1.4741586,138.98906
1.4867761,144.14603
1.4897146,142.81114
1.6035832,146.08057
1.5791293,147.90044
1.5382543,149.59468
1.4869211,152.6239
1.5450773,149.50304
1.5932311,152.42918
1.5724477,152.3854
1.408966,152.48445
1.5168654,150.87161
1.3592728,148.24298
1.3870106,150.2622
1.3508945,146.89348
1.3599083,148.04657
1.2621061,142.60898
1.2863156,145.3804
1.1928564,142.788
1.2258568,137.68019
1.1190171,135.18883
1.1382506,133.26144
1.1331068,131.53737
1.096752,129.40422
1.1325377,127.29116
0.9544914,124.047714
1.0640393,119.92051
0.9982389,118.51192
1.058701,115.72043
1.0176263,117.73138
1.0597161,108.577446
0.97829473,111.634285
1.0387975,104.400955
0.96575606,101.016914
0.8705459,99.896774
0.87138516,100.00882
0.8555782,97.17342
0.8606152,93.21531
0.8665909,90.58816
0.8142686,89.00704
0.77730083,85.588936
0.6633309,82.882454
0.7054041,77.553154
0.6238323,74.8922
0.6193522,74.28606
0.46454683,69.27925
0.529454,67.86799
0.44399062,67.494286
0.38393182,65.26667
0.46068737,61.50239
0.38804972,58.596848
0.42452034,57.290432
0.33751953,52.807365
0.48628524,49.137966
0.37111032,48.673527
0.3496045,45.976498
0.42108428,42.64283
0.3605499,44.553272
0.52053815,40.758373
0.4065225,40.0
0.30710113,40.0
0.3158221,40.0
0.29126543,40.0
0.20487164,40.0
0.2928559,40.0
0.1689512,40.0
0.14074779,40.0
0.12656525,40.0
0.030877743,40.0
0.05432713,40.0
-0.012792715,40.0
-0.03580422,40.0
-0.036505546,40.0
-0.07414631,40.0
-0.11519993,40.0
-0.013351608,43.477085
-0.11707823,51.14534
-0.081050225,47.992523
0.08215408,52.498356
0.12516648,59.192287
0.21148425,60.347626
0.30355206,61.33628
0.24474974,68.59274
0.39677393,69.713455
0.4899856,77.09402
0.61484295,83.449295
0.6956706,86.20943
0.7461507,92.92896
0.84903437,96.070366
0.9078403,103.42079
0.94484514,107.0587
1.0585201,110.208626
1.002717,113.42631
1.1767464,118.0215
1.2812485,123.9595
1.2286183,127.722984
1.384751,132.02682
1.3359516,134.9935
1.4012245,138.8793
1.362411,138.76878
1.3830845,142.61855
1.3702111,145.39078
1.2865435,145.65498
1.2671164,144.89552
1.3537277,149.56471
1.3296955,149.26306
1.3228245,147.81259
1.2754955,149.51865
1.3831778,150.26607
1.2554389,149.76295
1.2318939,150.74086
1.2676319,149.20259
1.2966021,147.35616
1.2578439,148.54681
1.152744,147.3924
1.1466501,145.24374
1.2133844,141.27954
1.1576296,139.76395
1.1186872,139.25546
1.0678904,136.25464
1.029825,131.83215
1.1072208,130.20512
1.0435485,128.3689
0.97599554,126.42282
0.9937641,123.70498
0.93260366,118.71245
0.85340345,117.279076
0.87508345,117.90844
0.8960656,112.77071
0.8843475,110.19822
0.86457855,107.79576
0.8553903,103.6267
0.94348055,104.21274
0.9533633,99.54519
0.90583444,96.181984
0.7027042,94.44081
0.84153104,95.47471
0.79279304,83.71556
0.71901834,88.57216
0.6593531,82.49768
0.63204616,85.642296
0.66128576,77.609024
0.5933766,76.560196
0.60128224,74.63657
0.54798365,70.90915
0.5512226,69.38547
0.48469487,65.95647
0.3729032,62.27879
0.3331235,60.31911
0.43741515,56.31477
0.42772788,53.980972
0.36111605,54.03972
0.40444386,50.378544
0.36871105,48.748104
0.3676758,46.0123
0.319575,42.258587
0.394336,40.0
0.36122793,41.61795
0.39957368,40.0
0.27769977,40.0
0.38243926,40.0
0.30362317,40.0
0.2496288,40.0
0.2526271,40.0
0.16086876,40.0
0.19459255,40.0
0.1821577,40.0
0.14723901,40.0
0.1380171,40.0
0.060707543,40.0
0.11219514,40.0
0.07571636,40.0
0.10313774,40.0
0.15575759,40.116173
0.010208105,46.175457
0.10127515,47.05346
0.123403944,51.238445
0.3250235,55.547646
0.30735025,56.632698
0.36159682,63.993492
0.48579642,65.70813
0.50777733,68.17287
0.6180914,73.2327
0.65968245,77.77375
0.70255506,89.14923
0.9077384,88.59244
0.8981513,94.217514
1.0685252,96.896645
1.1633081,105.33011
1.0637078,107.15481
1.2989122,110.293144
1.3173997,114.79682
1.3069141,123.24971
1.3133243,122.1704
1.439131,130.11264
1.4674532,130.53893
1.5612873,133.73323
1.5316386,138.52881
1.490906,139.38838
1.4813062,144.11053
1.5794356,143.82942
1.5790073,149.0518
1.6503086,150.94133
1.5571225,149.43298
1.6010469,152.88518
1.5665029,149.38507
1.4248879,149.97388
1.5888207,151.80705
1.514866,151.55482
1.5529817,148.22394
1.5074931,149.18634
1.4254853,147.73985
1.4434686,147.27205
1.4257022,148.20766
1.4111086,142.7085
1.4023798,140.62915
1.3525648,138.94736
1.4172282,134.93188
1.3485742,137.02567
1.3367761,134.47359
1.3106182,130.89178
1.2573037,127.446754
1.2788966,124.273056
1.2957089,124.17502
1.2300047,117.66102
1.2712593,117.75771
1.1444163,115.75904
1.2626202,112.16849
1.1600165,109.522964
1.1247915,105.36405
1.1676785,105.63874
1.1799734,101.0637
1.1704665,95.938896
1.2000593,95.36989
1.0815243,93.67747
1.1680979,90.592155
1.1381816,89.72614
1.0323484,85.11352
0.9435779,82.416595
1.079077,78.96201
1.0040982,75.73336
0.8905025,75.11145
0.7779229,74.07798
0.8503662,69.30933
0.7618592,65.34938
0.81530344,64.949066
0.76456946,60.17224
0.6575126,59.990883
0.67030245,57.52928
0.6870613,52.705463
0.8093076,51.47333
0.6919728,52.009876
0.61025804,49.425278
0.71911216,47.24313
0.7170762,44.11131
0.8113759,40.0
0.8032995,40.0
0.6497188,40.0
0.7248946,40.0
0.72819173,40.0
0.65929675,40.0
0.6485325,40.0
0.6668473,40.0
0.59290105,40.0
0.579115,40.0
0.58411103,40.0
0.45758122,40.0
0.4942116,40.0
0.40816978,40.0
0.47112936,40.0
0.37678427,40.0
0.43359318,40.0
0.4121157,43.255882
0.47754163,44.782597
0.43811902,46.477123
0.5124138,50.15583
0.57920283,56.487797
0.59097385,57.526646
0.6874978,61.558502
0.7134014,69.60841
0.90143716,70.13056
1.0103847,76.6735
0.986858,80.306404
1.0872761,89.85871
1.1856977,91.06133
1.2539829,96.91969
1.4204841,101.085655
1.439407,104.579445
1.5572172,107.22145
1.5687114,114.854866
1.6459856,116.72184
1.7666838,121.11719
1.696764,128.05135
1.7642553,129.92372
1.8457708,136.20306
1.8334472,139.81046
1.8802079,139.43083
1.8866448,139.74234
1.8208088,144.57445
1.9785845,144.10829
1.9058106,151.00836
1.994124,151.40979
1.9270836,149.63223
1.9720016,152.1471
1.9481556,152.74371
1.9470143,150.45374
1.8573983,151.77263
1.9432665,151.44748
1.8064747,149.70772
1.8267142,148.32985
1.827719,145.13663
1.9203752,145.41
1.7859385,141.45215
1.6746948,142.95
1.6881093,140.55185
1.5780811,141.06183
1.6977918,136.74878
1.4373758,134.26012
1.5682935,130.1121
1.6714866,127.393776
1.5812168,124.95847
1.5534959,123.73578
1.4552448,123.16765
1.5754166,117.00806
1.4511144,115.533035
1.4434667,114.216446
1.5503482,114.35854
1.4237243,110.13056
1.3860701,106.31318
1.3982701,102.814316
1.4411246,100.62843
1.3854623,97.94321
1.4812685,94.24572
1.3620287,94.134834
1.2654912,90.79785
1.199215,87.554
1.3055146,84.27933
1.2365853,79.74552
1.2137346,79.47757
1.121915,76.90167
1.1146481,73.94872
1.1330557,67.05276
1.0400499,69.37778
0.9524598,65.31565
1.0248743,62.43655
0.9501816,62.670383
1.00295,56.98044
0.94366133,59.049652
0.9795961,53.63145
0.95704293,52.20925
0.9954758,52.080196
0.9767046,46.52678
0.8581548,45.05535
0.8256842,42.195934
0.912618,42.13654
0.9385357,40.0
0.85696197,40.0
0.89953566,40.0
0.8748631,40.0
0.8232449,40.0
0.76318014,40.0
0.70899624,40.0
0.85279304,40.0
0.5785185,40.0
0.58749497,40.0
0.7513006,40.0
0.5341666,40.0
0.53427696,40.0
0.5814842,40.0
0.56302553,40.0
0.5625518,42.529453
0.6287028,43.68324
0.5250459,46.654354
0.61707467,49.32798
0.6494844,52.588154
0.66101176,56.272266
0.7745743,60.19338
0.8686177,64.445404
0.94651306,69.36085
1.0526028,72.47097
1.0793469,78.62661
1.1145039,84.42507
1.1795495,87.30781
1.3094907,94.27942
1.3425612,93.80775
1.4501077,102.8853
1.4948765,106.705055
1.585008,109.38561
1.7671516,114.33927
1.7187456,120.264915
1.8493398,122.20184
1.8266203,129.95557
1.8036718,128.9863
1.8543056,131.9568
1.7952204,139.43182
1.877987,141.34486
1.8378376,148.01982
1.9424946,142.05095
1.8917419,145.89154
1.8974674,146.7949
1.8871592,149.24928
1.9472994,150.16725
1.8442596,154.04979
1.8268147,150.11064
1.8765929,152.25531
1.8948023,152.11946
1.8329538,149.9495
1.9030353,150.90324
1.7143972,148.42052
1.6212199,148.20425
1.726911,145.2318
1.6620257,141.40273
1.6621218,141.88866
1.6502436,143.48074
1.496802,137.98529
1.5314572,135.73965
1.5492587,136.37617
1.5073931,127.99243
1.4628608,128.27715
1.4902369,123.18302
1.4862362,121.77464
1.3139724,120.58994
1.4872869,120.17745
1.3305213,114.47425
1.4119718,113.32164
1.3515579,109.55267
1.4193288,108.68597
1.3759093,106.27985
1.3505728,104.86881
1.3099297,100.67252
1.2455642,98.07601
1.1933105,94.65034
1.1405123,95.74543
1.1436416,89.99547
1.1841313,86.64917
1.0445722,86.49987
1.1162305,83.28363
0.95840394,77.51548
0.96072483,78.1605
0.9519661,72.29215
0.9436652,72.56137
0.83725125,66.720146
0.8502699,66.12806
0.8101245,65.02249
0.76453376,60.896645
0.70655185,56.760887
0.769494,52.058052
0.73846376,52.843563
0.71341187,51.930946
0.7302884,49.895092
0.7488427,48.315357
0.6272759,43.76366
0.6783817,42.555347
0.6462573,40.0
0.6364544,40.0
0.6241358,40.0
0.69879234,40.0
0.63208836,40.0
0.5265581,40.0
0.5573404,40.0
0.53148115,40.0
0.45090303,40.0
0.36276764,40.0
0.33405548,40.0
0.27247435,40.0
0.43323168,40.0
0.2089533,40.0
0.21625304,40.0
0.2715557,40.0
0.18048985,42.742367
0.2274758,41.74294
0.3165861,45.89356
0.35546374,51.36198
0.41084558,54.638336
0.48096427,55.385582
0.5049189,60.52083
0.5415914,67.85851
0.67640877,69.78007
0.80424637,76.48688
0.84647447,75.41471
0.85280234,83.38892
1.010628,87.29571
1.087008,91.98122
1.069924,96.97093
1.1923501,105.69849
1.2986398,107.49842
1.3881853,108.81774
1.3474383,116.30354
1.3514519,119.582085
1.4920025,125.59517
1.4859527,128.52089
1.538073,131.08815
1.5569646,138.34879
1.5711471,138.72032
1.553853,140.90462
1.6292897,144.00856
1.5423281,143.71434
1.5995995,145.9458
1.6024637,151.08304
1.5654252,148.12329
1.6063234,148.7151
1.5282923,148.83647
1.6543471,150.17018
1.5289128,153.46193
1.5583684,149.6642
1.5154492,152.53854
1.515723,150.086
1.4174858,145.85246
1.4399378,144.60059
1.424638,143.45824
1.3316231,146.13916
1.247984,142.74547
1.3461068,136.84946
1.2218688,136.61232
1.1957588,135.73851
1.1786369,131.20749
1.0998169,132.76462
1.1357883,127.75492
1.116882,126.481895
1.0814875,124.468475
1.0636715,118.9116
1.0422559,120.585724
1.0215845,114.82583
1.06621,112.47525
1.0306827,109.50166
1.0492367,106.50887
0.95776725,102.698875
1.0233738,102.83032
0.9885705,99.05813
0.9039517,95.804436
0.85233533,93.01425
0.88400525,91.0793
0.73516625,89.82632
0.7564319,87.12706
0.75106823,86.78502
0.687209,80.7463
0.59775627,77.16232
0.61660933,76.02817
0.5214314,74.50508
0.55012846,71.541214
0.4839157,68.381325
0.46851128,65.7924
0.40934825,60.84973
0.47223002,60.852898
0.40988392,56.389282
0.3683945,54.68975
0.39249435,52.423405
0.48279762,49.65158
0.4067031,48.532806
0.44116858,44.693233
0.29804122,42.281517
0.36425635,40.992413
0.31323206,40.695698
0.32452157,40.0
0.2939494,40.0
0.37742844,40.0
0.32089043,40.0
0.21378803,40.0
0.19404662,40.0
0.19949074,40.0
0.18828644,40.0
0.15791786,40.0
0.10079089,40.0
0.12892547,40.0
0.030084684,40.0
-0.035337422,40.0
-0.0666505,40.0
-0.08312511,40.0
-0.082376435,42.781036
0.03301032,43.03161
0.109502815,46.377598
0.07300865,51.692593
0.21213691,56.63371
0.17903945,57.596252
0.2767575,65.63342
0.23858342,64.363716
0.44179663,69.90571
0.4504483,72.713234
0.61121863,79.25833
0.71981,83.03159
0.75324136,87.71578
0.840862,93.99015
0.90159523,98.6481
1.0003664,102.93145
1.1300764,109.76243
1.0940343,112.24169
1.1552986,119.57989
1.1019531,122.43333
1.2556969,124.79102
1.2278806,127.23357
1.2863214,132.60559
1.3441288,138.65755
1.2543458,141.73384
1.3752056,139.19153
1.3736392,145.31746
1.4026353,144.11078
1.3356715,146.33609
1.424732,151.14558
1.3787224,148.88708
1.3188741,149.93752
1.2742968,151.64616
1.3033185,150.63727
1.3595004,151.42056
1.3181924,149.43723
1.1626681,151.53406
1.2317524,147.6412
1.2291057,150.75847
1.2932867,146.28357
1.2325485,144.5583
1.1279174,142.5779
1.1176318,142.43198
1.0101165,137.27025
0.91844445,135.61136
1.0087316,135.7462
1.0585725,130.66757
0.9964657,129.53339
0.9314461,126.82287
1.0025359,123.29243
1.035721,120.75867
0.8562721,121.68581
0.9213177,117.515656
0.8882591,115.82189
0.9095935,108.49864
0.8745231,109.68567
1.0309683,107.41821
0.8676973,103.837776
0.8731464,98.23532
0.84679854,101.76375
0.75048876,97.114944
0.79884803,96.48347
0.68240047,87.68246
0.81807053,89.63816
0.7362162,84.673706
0.6228723,81.91455
0.60622793,79.61546
0.630238,78.44825
0.5552402,73.19045
0.4221588,70.39214
0.48512232,68.11499
0.5053818,66.54995
0.30649734,64.12447
0.415734,61.509808
0.35199803,59.832153
0.45109588,58.840763
0.35694665,55.482132
0.3491791,53.13604
0.42007416,48.609287
0.33179682,46.339397
0.38285893,44.76463
0.39224067,41.512375
0.36462653,41.454
0.3010235,40.0
0.3128702,40.0
0.33614862,40.0
0.22572549,40.0
0.3036817,40.0
0.25765115,40.0
0.26944295,40.0
0.24005798,40.0
0.114620365,40.0
0.11234731,40.0
0.06037892,40.0
0.054258805,40.0
0.047368973,40.0
0.1043212,40.0
0.010825908,40.018993
0.09184981,40.0
0.07469176,44.03942
0.15871866,45.93237
0.10608112,49.406136
0.13001008,51.10001
0.23696697,57.263493
0.21334812,60.554058
0.37864736,63.58181
0.48030737,68.803604
0.5930386,75.45944
0.6455979,78.94277
0.70679665,83.11595
0.90327543,84.9268
0.88995206,89.60848
0.91979885,95.43897
1.0520798,98.474
1.0587786,105.36109
1.1326882,111.0072
1.2705449,112.38445
1.2450159,118.46847
1.3302356,122.27896
1.3440747,122.77596
1.4477158,128.21715
1.4343086,130.19556
1.5236541,138.29753
1.5399247,139.21832
1.4654932,141.43875
1.5921679,145.33842
1.5441632,148.71915
1.4947011,150.94086
1.5784807,147.35231
1.6482363,150.93922
1.5424798,153.21349
1.4596647,154.14131
1.5811006,150.842
1.6007428,150.0938
1.4471273,148.59193
1.4424585,149.15979
1.463713,149.48146
1.3388101,145.22595
1.5209562,144.0704
1.3854842,143.97462
1.3644317,141.49695
1.3553311,138.21193
1.2992218,140.25801
1.2631478,132.80281
1.2203842,131.78084
1.1897407,129.34962
1.2555234,126.36673
1.2910033,129.00342
1.2594486,126.44584
1.1869552,119.58249
1.1849785,118.71666
1.272432,115.45919
1.1424134,113.77837
1.0917398,112.47502
1.1836572,106.15278
1.2056973,104.247696
1.0220532,107.001236
1.1561574,97.83771
1.0593833,96.60472
1.0226648,92.491295
1.0554837,95.39329
0.9821561,88.40668
0.9188694,88.89606
0.9818722,82.038864
0.9388594,81.40735
0.81703466,80.212845
0.7980432,72.64068
0.86104375,71.910576
0.8333462,69.00252
0.6420907,68.43531
0.6896077,67.63571
0.7310965,63.224438
0.74233884,55.563698
0.73134094,55.4857
0.7349875,58.05602
0.66405046,54.225494
0.71028686,50.070328
0.6824809,49.91086
0.6761557,47.042343
0.62886006,42.372986
0.7221071,44.79291
0.619123,40.0
0.6375233,40.0
0.7227046,40.0
0.6636521,40.0
0.70656836,40.0
0.61079586,40.0
0.5714187,40.0
0.62811464,40.0
0.51559955,40.0
0.5175816,40.0
0.46282452,40.0
0.44839185,40.0
0.40639207,40.0
0.444861,40.0
0.39264563,40.0
0.37049127,40.0
0.40911418,42.50134
0.33527645,43.77694
0.49715328,48.769505
0.40811804,49.76172
0.50274277,54.762283
0.5744745,56.516556
0.68006104,61.18607
0.827369,65.51172
0.8793991,70.01021
0.83684075,76.52866
0.9558628,77.827354
1.0188673,84.25828
1.1125259,86.306625
1.2352144,91.6344
1.4155174,96.51963
1.413,100.481995
1.4917172,106.20004
1.5753218,111.26975
1.5744244,116.00017
1.6718457,122.5592
1.7342818,126.8533
1.8879901,126.19007
1.8425679,129.94148
1.9078478,134.03244
1.8474272,139.70868
1.8913381,140.48322
1.8914311,142.59402
1.7956556,146.35733
1.7671081,151.54066
1.8387167,145.8355
1.9600943,148.45729
1.8717519,149.58443
1.9251277,146.76158
1.9420089,150.07428
1.7953628,148.95935
1.9212903,152.32199
1.7663164,148.14185
1.794038,148.3937
1.7253093,150.2496
1.767691,147.00734
1.7204185,144.01761
1.7424384,140.63474
1.7254235,140.46275
1.728428,139.57852
1.6599685,137.10556
1.6391097,135.25015
1.552013,133.14835
1.5463182,128.7688
1.5545956,126.888756
1.4599377,123.70012
1.5695575,123.42934
1.4945624,117.73447
1.5027207,114.8982
1.406555,116.5963
1.4582306,113.35931
1.512933,110.5489
1.480151,106.09783
1.4891559,104.40335
1.4140923,100.95137
1.4198885,97.2255
1.3860599,93.192055
1.4001007,92.64348
1.350158,88.17198
1.2845886,89.57118
1.1372763,85.58937
1.2408768,83.470695
1.1073887,83.30812
1.1909696,76.653076
1.1607732,78.86554
0.96445006,73.22826
1.0645894,70.94539
1.0337919,68.0329
1.013538,64.42875
0.9096003,62.182274
0.9811195,59.40836
0.87944865,56.42288
0.97158766,57.44684
0.9533084,53.144566
0.9112414,51.83073
0.9487566,46.82089
0.87690127,46.931664
0.8947992,46.112892
0.9793983,42.582592
0.9701584,40.0
0.8445864,40.0
0.8537498,40.0
0.83683103,40.0
0.8437773,40.0
0.8044839,40.0
0.84515387,40.0
0.82219946,40.0
0.7992862,40.0
0.7809576,40.0
0.5533258,40.0
0.59345424,40.0
0.5409912,40.0
0.51071095,40.0
0.6178921,40.0
0.56458074,40.0
0.46877596,42.04861
0.70278484,45.943775
0.50498426,46.000477
0.62041265,52.412575
0.69348186,54.512417
0.6902823,58.57872
0.84471935,62.924385
0.85909075,64.105064
1.0130568,73.19537
1.0744475,76.33947
1.0098915,80.0798
1.1442207,83.51086
1.3515711,91.06858
1.4095279,96.00856
1.4126208,97.68416
1.5027105,103.787926
1.5985492,104.30028
1.5582706,114.08101
1.832615,119.06281
1.711323,122.20336
1.8031652,122.66696
1.9211289,127.72519
1.853104,130.8142
1.9012519,134.79803
1.8523769,141.28862
1.8858593,145.00175
1.8746465,143.39944
1.9925818,143.29459
1.8929452,144.15535
1.8862891,147.8436
1.8741372,146.44847
1.9289345,151.41379
1.9267199,153.36589
1.7782248,153.09514
1.8660415,152.8165
1.8565544,154.22409
1.8891921,150.5344
1.7270751,148.37166
1.7036532,148.25964
1.7641848,142.34734
1.6966095,142.56148
1.7389534,141.81055
1.6929388,142.35794
1.6196086,136.67712
1.5721421,135.65332
1.5396054,135.10104
1.5205429,132.72784
1.5020603,128.22159
1.5515764,126.0677
1.3552724,123.081116
1.4227848,125.733315
1.4409568,120.33836
1.386637,115.13712
1.3908736,114.24191
1.3706695,110.59549
1.4474379,106.5362
1.3436763,108.199936
1.3111571,102.47952
1.368379,99.736305
1.2770555,97.14787
1.2687546,92.05115
1.189529,92.78209
1.1912842,91.91852
1.1729424,87.56458
1.0696167,85.84408
1.0879835,83.5931
1.0771271,82.09573
0.9057676,77.047966
0.9336673,74.54424
1.0599108,71.778404
0.88179255,70.08488
0.9187541,65.478806
0.8306139,66.03095
0.7914875,61.51662
0.8375466,61.709263
0.8363523,57.627876
0.71764773,53.4049
0.6990362,51.65853
0.6791385,50.23373
0.6994528,49.90714
0.79819,42.834576
0.7349065,44.782497
0.7856173,41.876167
0.6593695,40.0
0.64492255,40.0
0.655851,40.0
0.66613626,40.0
0.6138347,40.0
0.62311316,40.0
0.5713071,40.0
0.53566456,40.0
0.5055382,40.0
0.48708832,40.0
0.26646218,40.0
0.359231,40.0
0.37556353,40.0
0.44164854,40.0
0.29442382,40.0
0.1839602,40.0
0.37868115,44.765087
0.26138502,48.11731
0.37767816,50.92932
0.42211816,52.914436
0.45135003,56.884094
0.39437976,61.22581
0.55286235,60.38618
0.5642713,67.3199
0.7468091,75.09564
0.7591133,78.5591
0.7778732,78.983925
1.0062664,86.5348
0.9846939,90.2132
1.1341156,96.75112
1.162004,101.50711
1.3122041,103.313095
1.371591,113.75697
1.3964169,112.771194
1.4271603,119.67325
1.4519285,123.81014
1.448072,128.51038
1.5092554,130.7698
1.5878828,134.2814
1.6823252,133.42955
1.6245501,138.4237
1.6410713,145.72308
1.6037118,142.56471
1.6376776,145.36278
1.497662,145.11499
1.565577,149.69528
1.6302382,149.53204
1.6192038,150.1023
1.5389565,149.86658
1.4814255,152.13196
1.5241277,152.54115
1.481543,150.32053
1.5259706,147.15361
1.4850509,148.78615
1.4980739,150.10844
1.4435353,144.59254
1.3394163,146.6876
1.3384962,142.3973
1.3927335,139.67154
1.235626,136.81905
1.2351629,136.8694
1.1978242,132.36362
1.1731682,130.52274
1.1041052,127.55891
1.1960238,125.29519
1.0632869,121.99427
1.1904376,121.61959
1.1650184,118.20658
1.0805334,113.6384
1.0553683,111.52687
1.002194,107.934425
1.0319387,109.63034
1.0681391,105.425064
0.9589007,102.36713
1.0484079,99.24492
1.0007559,96.837135
0.91400886,95.19719
0.92844886,93.495865
0.8050158,91.98118
0.8084816,88.781555
0.8875734,85.430435
0.79302657,77.66804
0.7148869,79.9303
0.65102196,79.39783
0.60344577,75.14615
0.5680691,71.74036
0.49526247,66.06337
0.53826517,64.929634
0.5324024,60.529343
0.44409397,60.049458
0.46418217,57.296936
0.38978827,55.951874
0.41462135,53.323242
0.3680187,50.965626
0.39530015,48.86861
0.40923035,48.34326
0.4298675,48.620346
0.36122575,42.93428
0.40878955,41.907825
0.32293525,40.0
0.3723562,40.0
0.44919217,40.0
0.29072726,40.0
0.21134286,40.0
0.29265392,40.0
0.22462907,40.0
0.19518165,40.0
0.19840659,40.0
0.058756713,40.0
0.02566905,40.0
0.058790967,40.0
0.06045437,40.0
0.002948997,40.0
-0.02016004,41.568195
0.0029144667,40.352245
0.037483077,42.084087
-0.050558798,46.55744
0.008332926,49.436687
0.1005949,49.887535
0.19631325,55.769287
0.33694056,59.404514
0.29087767,67.65557
0.38690436,69.509415
0.4217706,71.2846
0.574193,77.546425
0.56887436,82.42675
0.7091927,86.85169
0.7428841,92.26692
0.76148283,99.97685
1.0829822,102.270874
1.0538458,106.732315
1.1164681,112.47382
1.1774479,115.62782
1.2532921,118.94081
1.2309595,123.640396
1.3037628,127.03733
1.2637042,133.49255
1.3055347,135.4301
1.2551105,141.78207
1.3597434,140.15329
1.3328905,143.47546
1.3602915,146.59283
1.4131976,145.75542
1.385947,148.51114
1.4201024,150.52663
1.3300544,153.81628
1.3705387,151.12776
1.3052195,153.3626
1.313429,149.68062
1.2881608,149.77774
1.2304685,149.27368
1.2377391,152.43663
1.2629583,149.81857
1.158507,147.54791
1.1428062,147.00269
1.2118032,140.92557
1.1914669,141.05348
1.1325722,140.01324
1.1501971,135.64128
1.1067181,131.74173
1.0082164,130.62076
1.0941232,130.84229
1.0534662,128.887
0.95347804,125.11779
0.95670813,120.60846
0.8983038,118.81903
0.91771007,117.441536
0.8337387,114.50038
0.8750377,117.83015
0.93704754,110.207664
0.83291733,106.28067
0.8570643,104.88047
0.8868004,105.192215
0.8247295,98.1294
0.8771142,97.32151
0.8539664,95.2059
0.7314381,91.23215
0.7085662,88.88152
0.6985393,82.80945
0.6251539,85.273705
0.7057236,81.06233
0.56228405,78.68983
0.593342,74.605545
0.43398592,76.21607
0.43881336,67.93535
0.39375135,65.69775
0.36073136,65.72735
0.37789032,63.09983
0.40768492,58.10855
0.4564588,59.08698
0.3597406,54.003685
0.37046465,52.900017
0.3823162,50.478436
0.32736298,48.634243
0.36409512,46.138252
0.47252497,42.45412
0.3826696,40.974094
0.46504053,40.0
0.34979555,40.0
0.30336317,40.0
0.37124872,40.0
0.36015624,40.0
0.24274632,40.0
0.25683573,40.0
0.20190234,40.0
0.09980565,40.0
0.06866885,40.0
0.09387705,40.0
0.13473822,40.0
0.095407635,40.0
-0.012831744,40.0
-0.03255613,40.0
-0.019533973,44.290726
-0.013450471,40.034298
0.011646485,46.741997
-0.015120957,48.337128
0.006388437,48.603203
0.05366261,56.016296
0.16843468,61.225174
0.37950334,61.256516
0.5831732,65.86443
0.5847996,74.286255
0.5805404,75.53319
0.6167172,79.92893
0.7237391,81.69452
0.8411769,88.5657
1.0257132,93.10382
0.94941056,101.71412
1.0770112,101.56806
1.1525042,108.67254
1.2073271,112.67361
1.1662252,115.236855
1.3067908,125.54358
1.2960979,127.920074
1.5222417,129.23633
1.4664632,135.86273
1.5218279,133.49164
1.4409611,139.91199
1.481114,137.50104
1.6230135,141.2168
1.5802482,143.40201
1.5553129,148.57184
1.6055536,148.11028
1.636842,150.52542
1.6102743,150.27246
1.5793331,150.04367
1.5744079,150.10599
1.4855173,152.06894
1.4968513,152.1312
1.5034558,147.58148
1.4640089,151.14017
1.4507416,145.37813
1.3931868,144.71255
1.2343526,146.02986
1.3840573,140.04808
1.3290476,140.27962
1.3050703,138.94121
1.3883295,139.64677
1.2715153,134.41652
1.1921238,131.65724
1.2520185,128.2568
1.206561,128.44055
1.2477926,125.212036
1.1499805,121.99345
1.1310927,120.629906
1.1389849,115.900276
1.0721271,113.86597
1.1330469,112.273285
1.2310519,107.64223
1.1036243,105.27987
1.0607858,105.05332
1.090223,100.8726
1.1121625,100.31492
1.0421414,96.882744
1.0603971,89.97469
1.0422958,89.58612
0.998984,87.41219
0.96134645,84.33066
1.0221592,82.03138
0.9048755,81.794395
0.8196596,81.14313
0.8650871,77.99055
0.7910108,72.691956
0.7686674,69.97939
0.7917895,69.25953
0.7874946,66.69173
0.6429726,63.590992
0.7787569,58.134327
0.67829484,56.21896
0.6745701,55.22325
0.62449294,52.686012
0.7161396,50.495594
0.6066122,47.418167
0.7097689,43.8963
0.76806545,41.93294
0.6654187,40.0
0.73279566,40.0
0.67269677,40.0
0.58366865,40.0
0.6438123,40.0
0.6057519,40.0
0.63502795,40.0
0.5402918,40.0
0.55262035,40.0
0.43945047,40.0
0.4834739,40.0
0.43226346,40.0
0.39805445,40.0
0.3853641,40.0
0.35493216,40.0
0.37198988,40.0
0.35880536,40.0
0.3334362,44.3141
0.34226206,44.938972
0.41997036,47.863308
0.47613472,53.32182
0.39469993,55.694168
0.61663944,58.725643
0.8031132,61.39195
0.80547994,69.72567
0.8462004,73.32003
0.9012118,76.620834
0.9452927,83.48044
1.1678693,83.941025
1.2314788,93.23547
1.2302123,96.45406
1.4234291,100.41764
1.4917163,106.716835
1.4825535,112.06968
1.5643861,113.66775
1.64796,117.83441
1.7125987,121.58097
1.6702574,125.90217
1.7922628,129.01244
1.7966924,136.84041
1.876121,137.48886
1.878508,141.19475
1.8580285,140.33119
1.914016,147.01726
1.7969136,145.41824
1.8597711,149.78648
1.8298916,149.38637
1.8490816,149.74757
1.8429273,152.74614
1.7984232,151.70268
1.9008119,153.40372
1.8756293,150.11783
1.7880241,149.8347
1.6797287,147.58449
1.7503967,148.06845
1.7493778,146.93518
1.7957993,146.9244
1.6698956,143.95445
1.7221212,143.66714
1.6187413,140.46536
1.6480033,139.95114
1.6357111,136.43712
1.6012297,132.12386
1.5017146,131.43192
1.5144194,131.55273
1.5480899,127.43816
1.4235388,122.63433
1.5349231,121.06094
1.4227262,116.76254
1.4076508,115.09165
1.4423752,115.00618
1.4266951,107.75467
1.4624093,106.55885
1.4559717,102.81396
1.4324309,100.57114
1.3616487,98.93806
1.4545937,97.118095
1.3719327,95.58406
1.3891943,92.06959
1.1922684,90.84409
1.3042716,86.92176
1.2110988,84.826454
1.242167,81.46293
1.2569417,76.70491
1.0669736,74.96205
1.1350789,72.65038
1.0260372,71.97981
0.9296865,70.390335
1.0469612,67.3815
1.0703064,61.91194
1.0671997,62.90115
0.9602074,59.08659
0.86071205,54.868877
0.9184245,51.967175
0.9202042,49.486507
0.980826,49.780285
0.92227006,46.203865
0.815303,41.34922
0.9518896,40.04983
0.9175974,40.612
0.95142466,40.0
0.9043835,40.0
0.90919465,40.0
0.85183334,40.0
0.8385636,40.0
0.7453912,40.0
0.77697396,40.0
0.7131069,40.0
0.71128446,40.0
0.5895372,40.0
0.6896908,40.0
0.6019097,40.0
0.60752696,40.0
0.5519699,40.0
0.57668734,40.0
0.43361652,40.0
0.55799943,45.797077
0.5477891,47.644207
0.6060499,54.379032
0.7230886,56.219284
0.6447172,59.82175
0.8300782,60.329136
0.8879198,68.34475
1.0081805,72.13171
0.91761965,73.74468
1.1396446,79.515915
1.2079085,81.9512
1.2769678,87.86536
1.4366537,92.35204
1.332552,100.72889
1.5218749,100.39303
1.6368152,109.19353
1.5629271,111.10874
1.7333496,114.514725
1.7688537,118.405426
1.685091,121.34418
1.887715,128.44507
1.8155167,132.63528
1.9674164,136.00806
1.9350418,139.89627
1.9355023,141.821
1.9824598,143.02231
1.9825585,144.2429
1.8379943,146.08974
1.8500447,147.90584
1.9261036,149.98264
1.8704684,151.62617
2.000476,151.98558
1.8498871,148.22375
1.8885928,150.39267
1.893833,149.30551
1.9668756,149.75941
1.8747371,149.82635
1.7538084,146.36586
1.7854817,146.77069
1.7636908,144.83319
1.7282841,143.78189
1.6141087,140.94983
1.7382162,137.00919
1.5404055,133.2596
1.6101152,133.8267
1.5032421,132.33463
1.5448512,129.8188
1.4931777,129.22421
1.4172592,126.566284
1.3403287,119.32205
1.499005,118.59998
1.4115968,118.54757
1.4355512,116.51766
1.5092964,114.91805
1.4362458,109.07917
1.2409734,103.20452
1.3113128,101.75422
1.2609165,101.30869
1.290968,96.78221
1.2945286,94.74776
1.4110067,92.94298
1.2984847,88.33917
1.2289598,89.31689
1.1946704,90.22089
1.1554271,84.935814
0.99859244,82.25691
0.9739572,80.60473
1.0284894,79.483604
0.9654665,74.12668
0.94362164,72.51637
0.97703403,68.941025
0.82895344,66.76423
0.8202717,61.17286
0.83126605,63.730515
0.7144634,57.1168
0.7138754,52.76885
0.8509702,53.842327
0.75900894,51.0738
0.7438119,46.372528
0.77676815,44.11824
0.6727733,40.258656
0.7355389,43.10702
0.711366,40.448444
0.74578106,40.0
0.59962356,40.0
0.6439506,40.0
0.6336975,40.0
0.60030377,40.0
0.64365435,40.0
0.5103714,40.0
0.6694154,40.0
0.5093902,40.0
0.40738684,40.0
0.4284348,40.0
0.40450123,40.0
0.3274004,40.0
0.38705766,41.662266
0.2709443,40.0
0.35507056,41.37996
0.33379984,43.72024
0.37941128,48.85411
0.41237018,50.674355
0.44790432,54.8122
0.604677,59.38067
0.5368624,61.085976
0.5974573,67.50797
0.7101214,70.18954
0.86209816,78.12419
0.87919277,78.738815
0.95616674,84.82672
1.0125993,87.35771
1.0948678,92.064926
1.2498288,97.37342
1.2613368,104.61209
1.3417827,108.60146
1.3505595,114.07305
1.4778826,117.46812
1.5455785,123.692955
1.4729334,123.1707
1.5061531,129.32138
1.535143,135.49037
1.6525447,136.30476
1.5651414,139.77039
1.6078084,144.77208
1.5814772,140.8103
1.7221763,148.948
1.6067936,148.58195
1.715673,147.74254
1.6211005,152.1727
1.5863469,149.27866
1.6391166,152.65018
1.5790249,148.64783
1.6338078,148.62514
1.5272157,150.60129
1.4896407,150.54408
1.4615718,148.00183
1.5191872,145.50774
1.4365643,143.99954
1.3530513,140.36304
1.2840015,145.36987
1.3358941,140.48286
1.2444324,140.8697
1.1707468,133.73958
1.2888457,131.32646
1.1423585,128.08583
1.0894009,129.26688
1.1526338,127.75206
1.1250716,123.93985
1.0786555,120.242744
1.1200237,119.61806
1.0799462,116.25387
1.1957906,114.63688
1.0597715,108.821884
0.99060005,108.748695
1.0565598,106.94986
1.0434899,104.06098
0.9862898,100.88413
0.8943298,97.894585
1.0326521,95.78103
0.8571808,94.62995
0.9335699,91.41633
0.9142773,87.45664
0.7949833,84.67438
0.81473374,83.921684
0.7768459,80.085
0.6294853,80.90274
0.7193797,75.00479
0.6214842,71.237045
0.45688322,71.8251
0.54623616,68.9671
0.47905698,64.59706
0.50719774,62.725307
0.43216786,61.9941
0.41776443,57.55537
0.38619485,54.326313
0.4434375,53.209137
0.4531773,49.76323
0.42192817,46.060444
0.40266538,45.64293
0.41743782,41.632492
0.45937014,42.5639
0.34061223,40.0
0.31071734,40.0
0.29866967,40.0
0.25239,40.0
0.256375,40.0
0.33507538,40.0
0.15300086,40.0
0.18963896,40.0
0.19795467,40.0
0.12576678,40.0
0.13383341,40.0
0.026552396,40.0
0.0041480376,40.0
-0.010371928,40.0
0.026845973,40.0
0.13721776,40.387722
0.0047351276,41.450817
0.01240294,47.421684
0.0054140156,48.78339
0.18590301,52.76332
0.1276043,56.992832
0.1761894,62.413227
0.26567182,60.070293
0.44539398,66.73155
0.40247273,72.80483
0.5132532,74.87384
0.46958327,82.648926
0.73431474,84.98474
0.7519455,90.8838
0.89354175,97.58592
0.9548327,97.56338
1.0008105,106.78591
1.0340322,106.46128
1.1187464,114.96033
1.0981275,118.78011
1.2239456,120.8339
1.279622,127.94117
1.2879714,127.53069
1.3125068,135.15433
1.3010116,136.23729
1.3407111,137.86667
1.3047682,143.44121
1.3414328,143.88658
1.480457,145.07353
1.3796483,148.6198
1.3977855,149.36766
1.3659092,151.75716
1.3620019,148.57774
1.3538281,151.12741
1.3197489,153.7791
1.3450752,153.648
1.2571744,151.71222
1.1946164,149.23685
1.2559052,151.77284
1.2762369,144.22125
1.1565943,145.24092
1.2010413,144.5766
1.1655811,141.97304
1.1819787,140.80472
1.1692196,138.6417
1.0761964,135.91023
1.0152361,133.95023
0.91558695,132.634
1.0292507,128.57703
1.0199325,126.927055
0.9336103,121.5305
0.95252424,122.9341
0.870809,119.84912
0.88344693,114.979576
0.83727914,114.412094
0.91014475,111.687645
0.8655902,108.21929
0.9387245,105.704254
0.8721372,104.24826
0.86095244,100.56011
0.82267123,94.62534
0.8792156,97.382706
0.84479135,90.62197
0.7299009,87.99311
0.72000676,87.8004
0.7411509,85.71995
0.5698129,82.00058
0.60759753,78.95401
0.53608227,79.35484
0.5935386,74.32452
0.5109383,73.725975
0.36322257,71.49473
0.40442613,66.49131
0.47562543,60.42315
0.4312876,64.439125
0.31817675,59.509872
0.312266,56.092678
0.36120373,53.488586
0.35174507,51.006317
0.34061447,47.27132
0.33319712,48.000504
0.32350934,46.827953
0.46840146,40.0
0.32920334,40.0
0.30655378,40.0
0.35495558,40.0
0.3075068,40.0
0.24444298,40.0
0.25380796,40.0
0.23446172,40.0
0.22755317,40.0
0.18743001,40.0
0.08436848,40.0
0.13449293,40.0
0.118228145,40.0
-0.009659203,40.0
-0.014694812,40.0
0.0033654848,40.0
0.01964156,40.0
0.027386319,42.44962
0.028277434,43.411045
-0.015972499,48.16845
0.14819849,47.593487
0.093776464,52.19888
0.27315128,55.584637
0.33122253,59.39625
0.28871506,65.64628
0.4453179,67.09294
0.5827436,71.49444
0.6310955,77.09759
0.6024057,82.97051
0.77645624,88.980034
0.90771496,93.007034
1.0342801,98.43579
1.0190257,100.70075
1.0130732,105.00777
1.278559,110.66874
1.2199377,115.54059
1.3545367,118.20919
1.3141112,118.95638
1.3967053,123.51509
1.3679951,131.44135
1.398318,136.00421
1.5500321,135.68
1.5246133,140.18407
1.4898306,145.65096
1.5505373,146.24203
1.474888,146.61339
1.5138801,148.63568
1.5197481,149.84322
1.472876,150.29482
1.4604673,148.43237
1.4002401,150.94627
1.43594,150.68384
1.5653138,151.18144
1.362134,150.89832
1.4319903,148.52629
1.4195279,149.34529
1.3749197,147.96814
1.4077015,146.4893
1.3226209,142.06416
1.3599689,144.56761
1.3136853,137.81293
1.1913139,140.02586
1.2982028,136.1647
1.201572,134.85481
1.1072522,130.1192
1.2082301,125.38318
1.1561517,123.992584
1.244304,122.82371
1.2083764,120.87938
1.0985837,118.99014
1.1881276,111.6282
1.0977873,112.486534
1.0421946,111.997925
1.0885643,111.35927
1.0423793,108.26738
1.098133,105.23341
1.1831069,99.19089
1.0689569,97.48338
1.0662949,96.10761
0.9648688,93.399185
0.9594834,88.093155
0.9834261,86.11701
0.9177311,82.55409
0.84884274,82.33367
0.9021043,80.21581
0.8228486,76.05127
0.8884035,74.214485
0.7860142,73.02092
0.6665289,69.3164
0.7079433,62.51169
0.62134945,63.257732
0.7726633,60.038498
0.6087782,57.272747
0.71157,54.751713
0.70115757,48.920948
0.6171963,52.504353
0.6712168,48.58691
0.6698368,48.511307
0.7012031,40.924503
0.6672106,40.36206
0.62060565,40.0
0.6771678,40.0
0.66627085,40.0
0.57350296,40.0
0.48230666,40.0
0.60685086,40.0
0.5671611,40.0
0.53896487,40.0
0.551933,40.0
0.49626306,40.0
0.4864196,40.0
0.43196028,40.0
0.37573072,40.0
0.28812486,40.0
0.42199057,40.0
0.33200353,40.0
0.321887,42.067898
0.40692395,44.508423
0.31142768,46.845287
0.41066903,51.099197
0.46938613,55.440876
0.5304814,59.052505
0.7350504,62.63809
0.70906055,64.71058
0.76382375,71.170876
0.8815017,72.881546
1.0173247,80.101654
0.96486175,83.50542
1.157559,91.01599
1.21427,93.71421
1.3335649,96.95279
1.3377792,104.46061
1.4590021,107.84866
1.5264211,112.05319
1.5266237,116.20743
1.7401494,119.92755
1.710894,126.23194
1.7761112,128.30441
1.7435657,133.20389
1.8005018,136.25749
1.7500461,140.13919
1.7968678,141.249
1.7971525,140.4967
1.8684442,146.82736
1.9471647,146.90744
1.9083465,148.20663
1.9544168,153.63239
1.8979955,152.41357
1.8716043,151.62859
1.7921562,150.72993
1.8430432,151.32129
1.7857214,146.82977
1.834065,151.72363
1.69972,147.53496
1.7406414,145.49722
1.7218959,144.64069
1.7866876,143.98271
1.6149651,143.73976
1.7009732,141.12822
1.6569504,137.50397
1.5763113,135.68227
1.5873158,132.45648
1.5322032,133.43982
1.527131,131.06694
1.5490439,129.65376
1.6277452,124.44155
1.5349835,122.28809
1.4886484,120.159294
1.5412285,118.054016
1.3873662,111.14804
1.4323989,110.67896
1.448595,108.33043
1.3819333,103.671715
1.3956039,105.62541
1.3232929,98.38068
1.3245151,96.164024
1.355935,95.135956
1.2945391,92.96611
1.335586,93.226685
1.2954105,91.74609
1.2651134,86.052795
1.18396,81.97743
1.2279911,78.553
1.1602842,79.05701
1.1093123,73.342545
1.0749738,72.29631
1.0203727,71.978165
1.0706908,68.50609
1.0373907,63.70947
0.9399955,63.524433
0.9520764,58.518063
0.91218805,59.358578
1.0525346,53.328873
0.90831137,54.097233
0.98124146,48.242275
1.0570567,48.740005
0.93470156,46.05053
0.82686114,41.667065
0.99047416,44.016098
0.8791311,40.0
0.8589861,40.0
0.97047,40.0
0.79138833,40.0
0.9074191,40.0
0.7927709,40.0
0.67614883,40.0
0.7820728,40.0
0.58423746,40.0
0.6620041,40.0
0.5462397,40.0
0.5833354,40.0
0.61128396,40.0
0.579186,40.0
0.5584656,40.0
0.5995287,40.228462
0.55756927,44.315178
0.5672415,47.566788
0.6248137,48.290485
0.6184095,50.472733
0.74942327,56.910225
0.77021915,60.29798
0.87302846,63.206425
0.9030926,66.60016
1.018952,68.74186
1.1117593,77.01658
1.0592122,81.798065
1.1736343,89.696205
1.3041288,89.94892
1.4070399,95.895645
1.5561618,100.56331
1.5852654,106.4099
1.6543428,110.77504
1.7659308,116.29392
1.8098748,118.92124
1.7328211,123.13385
1.8876356,128.13126
1.8625883,130.23265
1.8578727,133.27754
1.8911232,138.97397
1.8908647,141.25735
1.9426773,141.12624
1.9392711,143.92113
2.0115333,146.28662
2.0481503,149.097
1.9249457,148.15353
1.873034,147.07437
1.9649704,152.14447
1.96667,150.71725
1.9222187,149.15817
1.8047736,148.44403
1.8218063,152.60393
1.8461158,151.76662
1.7803113,149.32443
1.7321788,146.6526
1.864105,145.51746
1.6711208,143.33713
1.7534499,141.30382
1.6814106,140.03183
1.6611898,136.63474
1.659577,134.33983
1.5384245,131.1355
1.5337107,129.15253
1.5512377,127.657196
1.4118845,124.176765
1.5749356,124.9835
1.4808584,120.855125
1.4130582,119.39484
1.5058588,115.52689
1.4426163,112.40277
1.3888619,112.44209
1.4618815,107.11177
1.278618,104.39833
1.4028907,103.86509
1.4285586,99.950485
1.2944318,98.8272
1.2439446,94.549255
1.3007706,89.692085
1.2096088,89.23842
1.3228275,88.90398
1.1397918,82.6023
1.1156299,81.959564
1.1103925,76.72037
0.94802916,77.12612
1.0043306,75.14579
1.0207442,70.76917
0.9238048,70.15464
0.8375585,63.005863
0.84733576,67.74071
0.74854505,63.65383
0.8142075,60.16631
0.8725671,57.91136
0.7729963,54.97445
0.8338666,52.29253
0.7160376,51.09106
0.88467306,45.760227
0.84121776,42.47591
0.751196,40.0
0.6994988,40.710346
0.729177,40.0
0.75344366,40.0
0.77385473,40.0
0.58342516,40.0
0.7240352,40.0
0.64090794,40.0
0.53031814,40.0
0.4194832,40.0
0.5178276,40.0
0.48287347,40.0
0.4031356,40.0
0.4494893,40.0
0.480781,40.0
0.3362777,40.0
0.3079936,40.0
0.43430716,40.851276
0.34434235,45.390514
0.4104466,47.915398
0.3768415,49.697784
0.5091022,54.600674
0.4382773,59.542225
0.5707791,60.67127
0.647007,62.785767
0.69686896,69.23543
0.7524413,74.663506
0.9593125,79.33216
0.9913322,81.682755
0.98720556,85.97774
1.0147455,91.87399
1.2646092,99.574646
1.2127583,101.373055
1.3302948,106.599075
1.3924152,111.76935
1.4565332,115.98652
1.402301,120.53663
1.5122275,123.355865
1.5639281,127.10727
1.5903319,130.0304
1.652805,134.91916
1.6420188,140.70905
1.6692201,141.89473
1.6238121,141.13438
1.7470019,145.65228
1.6447877,146.08615
1.6738359,147.75417
1.6565968,150.05376
1.6645638,149.70332
1.690637,150.49513
1.5697944,149.58936
1.636977,151.08022
1.61079,150.92998
1.5573304,151.34975
1.5331416,146.38066
1.4327539,148.74196
1.4438428,145.25105
1.3308014,141.69753
1.3802903,145.57812
1.3596443,142.52193
1.258132,142.95882
1.3140028,138.48386
1.3307827,136.6437
1.2517331,130.03621
1.2147999,131.91272
1.1650426,127.96103
1.1909016,125.05145
1.1014768,123.580574
1.0137827,120.79508
1.2053175,117.11622
1.1603234,116.85419
1.0413914,112.1336
1.0102829,113.27812
1.0758159,107.03043
1.0572163,104.85119
1.0768932,102.52008
0.9953668,98.65161
1.0464426,98.580765
0.9464238,95.86977
0.9871795,88.79626
0.87912923,86.821304
0.804971,83.185974
0.7891436,82.56148
0.79983664,79.27253
0.7417423,78.55519
0.6842994,77.24633
0.58757883,78.181625
0.6006583,69.371414
0.5359014,69.41254
0.504389,68.615
0.5649072,62.235844
0.4529636,65.125305
0.4333388,59.696033
0.47933397,54.109394
0.40680447,52.406773
0.41896027,52.523983
0.5418786,46.468143
0.42969865,43.714775
0.4681823,42.87566
0.55625385,40.08594
0.42744172,42.550217
0.43109474,40.0
0.40280753,40.0
0.34798786,40.0
0.3446587,40.0
0.2980486,40.0
0.22569135,40.0
0.27815545,40.0
0.103018865,40.0
0.15754972,40.0
0.105124414,40.0
0.03162264,40.0
0.08743751,40.0
-0.02054151,40.0
-0.0042455443,40.0
0.048065696,40.0
-0.08476122,41.951878
0.08456654,43.574448
0.052745953,43.535366
0.075155385,50.161777
0.06688478,51.915062
0.19911575,54.980145
0.2607387,61.141693
0.35978016,65.59314
0.38519508,69.93543
0.4408592,75.57388
0.59125865,80.27869
0.62986505,84.22116
0.76912254,88.61553
0.7709995,95.91798
0.9422992,96.65913
1.0506117,100.27046
1.0320939,108.05401
1.1708612,109.447075
1.1943893,116.47787
1.2205263,122.09062
1.2436225,124.12595
1.2511458,128.03748
1.3698802,134.23604
1.3829583,134.7394
1.2962098,137.74475
1.3698312,140.83936
1.3315825,147.10103
1.4037583,144.07559
1.4200418,147.30865
1.2996529,146.0875
1.3714412,147.36908
1.3899819,152.08397
1.3620843,149.61615
1.4355048,151.7463
1.245793,150.34987
1.3770766,155.00496
1.2394476,151.44122
1.1498607,149.20033
1.2500747,148.56075
1.1987635,144.24577
1.1805398,145.36711
1.1726965,142.45088
1.1442678,143.687
1.059414,139.08156
1.100701,135.55162
0.9288596,137.23553
1.0040326,131.18336
1.0457336,127.94749
0.98353964,127.683266
0.9552806,124.192085
0.92126817,121.651024
0.945198,117.432655
0.9026593,115.34571
0.9400802,113.71094
0.8717837,108.87481
0.96726376,108.18032
0.90549487,108.0246
0.95723045,103.33371
0.82755494,98.12902
0.8911141,100.28816
0.73976696,93.4366
0.8155024,94.53013
0.7421856,91.66158
0.7210198,85.90002
0.7166414,85.095024
0.67972535,85.10923
0.6460601,79.89064
0.58244795,75.51827
0.5547397,77.25431
0.47990495,72.184715
0.42555863,72.72357
0.43840775,67.40705
0.29453918,64.771645
0.40647006,62.59024
0.41408274,60.046104
0.38998878,54.95923
0.31926754,52.41371
0.24136673,50.216923
0.37886393,52.703747
0.30404234,44.8712
0.27814913,43.962955
0.39218923,43.103188
0.27024367,40.0
0.32495853,40.191647
0.41526383,40.0
0.2747931,40.0
0.23513564,40.0
0.29249713,40.0
0.25535503,40.0
0.12180624,40.0
0.17621192,40.0
0.19937596,40.0
0.17633355,40.0
0.05829735,40.0
0.06847113,40.0
0.047413427,40.0
0.054910373,40.0
-0.009921919,40.0
0.06277247,40.416565
-0.029982144,44.42723
0.0702562,43.40363
0.011840308,47.30618
0.015427321,55.30244
0.19362244,56.268723
0.37805265,60.46219
0.31407532,64.56188
0.36526677,69.66044
0.52362436,73.51549
0.52369785,75.41243
0.5443632,78.57371
0.7726131,87.42984
0.8913628,93.23037
0.90218514,96.91663
0.9918242,100.8659
1.0194281,107.263916
1.1116929,109.79576
1.1944991,111.47757
1.2417874,119.10977
1.291162,122.77383
1.1708779,125.54925
1.3784537,129.82777
1.3329899,136.03542
1.4519899,137.5495
1.5031323,140.65575
1.4941791,140.70253
1.418717,141.22536
1.4436651,147.45204
1.4884497,145.73389
1.5377482,150.70192
1.543669,147.35117
1.5064964,151.78722
1.430615,153.27583
1.530136,152.65668
1.4546987,150.78256
1.4190971,152.71727
1.3954504,149.0244
1.320725,147.9954
1.4324948,149.76807
1.344565,144.01213
1.2895875,143.31342
1.3304285,141.78757
1.3138438,141.31198
1.1589935,139.85582
1.3046072,134.62302
1.3175154,133.5648
1.1889551,132.0371
1.1792213,129.80373
1.276031,130.8488
1.084725,126.83661
1.1047645,120.599625
1.1540498,118.23992
1.1769601,117.042465
1.1140989,115.267235
1.0643661,111.53212
1.1658698,108.737114
1.0905913,107.26184
1.0801519,103.7638
1.1141067,99.39145
1.1265018,98.266396
1.0403676,96.418175
1.0281292,94.249916
1.0294453,90.49269
0.9329043,89.295654
0.88297594,84.92372
0.85736644,80.155235
0.7932963,79.70877
0.74938625,73.333145
0.885917,75.47882
0.69366103,70.530785
0.72516066,66.50387
0.6819674,64.50979
0.7199216,64.9494
0.6559037,59.654327
0.70994025,57.963394
0.6245886,56.838455
0.6403845,52.299244
0.6658622,51.877724
0.6388531,50.855225
0.65807396,46.25694
0.6476424,44.6389
0.5609078,45.377983
0.67148453,40.87208
0.68763334,40.0
0.61111253,40.574043
0.5935101,40.0
0.6008095,40.0
0.6630414,40.0
0.5211842,40.0
0.5377963,40.0
0.46450302,40.0
0.47137406,40.0
0.34273362,40.0
0.47136638,40.0
0.3722846,40.0
0.3193268,40.0
0.3083953,40.0
0.33203137,41.428204
0.42695296,42.724834
0.41997728,43.31025
0.3538366,48.774643
0.4108604,48.61285
0.46234587,53.60358
0.41311902,56.201817
0.5695082,61.10556
0.6675201,63.144222
0.6913684,64.38716
0.9131153,75.82726
0.8549003,74.85346
0.95050836,83.86285
1.1278511,91.93073
1.1939318,90.53386
1.2402335,97.55178
1.3949169,101.38708
1.4296491,105.95566
1.5803983,111.05609
1.4550424,117.57092
1.574741,118.00998
1.7352011,126.19462
1.716618,127.34403
1.7222315,129.59402
1.7369417,130.21286
1.800559,137.60545
1.7435064,138.94368
1.7441291,141.76778
1.8585613,145.45862
1.8813475,145.2657
1.8899643,148.38095
1.8202032,149.09853
1.8157421,152.72845
1.834122,151.3311
1.7743461,151.69595
1.8479234,150.3485
1.7836392,150.98196
1.7778362,152.72534
1.7520113,150.2852
1.7650486,150.5271
1.728951,149.22621
1.7867092,145.80777
1.6421331,146.4912
1.7275412,140.67355
1.515423,141.13176
1.6086239,140.71854
1.477852,133.78773
1.4849532,133.98985
1.4679834,129.67604
1.4469968,130.92253
1.4554776,126.68729
1.5881966,124.69094
1.419654,119.37956
1.3734589,117.492485
1.4747894,111.443954
1.4548725,110.29618
1.5491664,111.0283
1.424191,108.15725
1.2977636,102.50761
1.3802966,102.45966
1.3627819,99.74696
1.3022736,100.40843
1.3130842,96.97419
1.3069994,94.302376
1.2808387,88.66516
1.1792334,85.45139
1.2459666,85.277596
1.2617056,79.98039
1.1542871,78.5443
1.1598434,77.72121
1.0767511,74.39086
0.9805586,68.56741
1.0188206,69.453575
0.9532756,64.52887
0.9006592,62.007637
0.9369708,59.040928
0.97084326,57.10534
0.90264374,53.198734
1.0152199,53.760094
0.96192855,48.022717
0.8839902,49.01176
0.88222814,47.177917
1.0217028,44.32946
0.8912527,41.983932
0.9219471,40.0
0.91585183,40.0
0.7919248,40.0
0.7745723,40.0
0.8841188,40.0
0.75884706,40.0
0.7824199,40.0
0.67007506,40.0
0.6953236,40.0
0.68733096,40.0
0.53552157,40.0
0.6127956,40.0
0.5886257,40.0
0.53811365,40.0
0.4925533,40.0
0.52584445,40.0
0.53187096,43.264404
0.6669506,46.172
0.5889852,47.477413
0.60954577,49.39757
0.6757692,55.521973
0.7621363,57.18441
0.82692903,61.1518
0.9040134,66.451996
0.9913583,71.171265
0.96844244,74.92178
1.1559563,80.025406
1.225045,83.53668
1.2686194,85.42769
1.3888723,93.48284
1.4565992,97.596954
1.5352268,102.36256
1.6136606,103.74981
1.5803463,109.96337
1.7359763,111.91043
1.8048564,120.56408
1.826233,125.98184
1.8122771,130.48138
1.8351138,133.32639
1.9133309,134.29225
1.9645152,138.79675
2.0050373,140.61006
1.9871662,142.62115
1.9803041,145.79086
1.8254051,146.33008
1.9238005,149.03563
1.9671963,151.53201
1.9084288,148.30025
1.8847435,149.24736
1.8639929,153.00693
1.9926748,151.15273
1.8147948,151.36218
1.8481196,149.23013
1.796317,147.8967
1.761918,146.76352
1.7985024,145.93459
1.7893634,144.42381
1.6553198,142.7812
1.6876429,140.6408
1.6486347,138.27023
1.6019036,135.93549
1.5494952,136.91994
1.6292496,133.67342
1.495768,130.12936
1.4613907,130.89911
1.5671464,126.06194
1.5051612,121.54746
1.4202893,121.86805
1.4649082,117.32388
1.4252554,116.96335
1.5227286,112.8967
1.4214487,107.98719
1.4476861,107.3465
1.4032928,101.19007
1.4598815,100.902885
1.3743601,101.45935
1.3979629,97.19367
1.336948,90.57452
1.247708,92.89168
1.240239,88.057304
1.1904379,85.70046
1.1311759,83.063965
1.0634884,78.229355
1.1472005,78.55581
0.9299969,74.098404
1.0657661,75.27464
0.89195335,69.436455
0.9561291,68.936226
0.86932576,65.03026
0.7894066,63.399883
0.9146277,56.6068
0.7166249,55.902973
0.8698296,56.054848
0.82725686,50.939487
0.86880195,49.042583
0.8423022,44.551792
0.83715516,47.407497
0.84639853,44.62318
0.8357596,40.0
0.80522096,40.0
0.750283,40.0
0.7368168,40.0
0.7305352,40.0
0.6830797,40.0
0.7769475,40.0
0.6237964,40.0
0.5304181,40.0
0.5435985,40.0
0.4669691,40.0
0.5732653,40.0
0.44315064,40.0
0.44176057,40.0
0.41331717,40.0
0.4214104,40.0
0.38023362,40.293728
0.35289517,44.387825
0.39213768,46.288807
0.35369512,48.672558
0.4471162,46.953083
0.59539014,55.97331
0.598249,60.146664
0.62042016,62.795734
0.80180174,67.53082
0.744111,72.08129
0.8740032,77.30609
0.9233007,81.36278
1.011015,87.41489
1.1230171,90.18992
1.2106587,92.47403
1.2446816,101.28991
1.2811074,106.31932
1.48184,110.58038
1.4495704,116.67362
1.4412436,118.076805
1.4857163,122.42396
1.6782068,124.58665
1.7335701,132.16817
1.6490967,128.84616
1.6198363,133.70663
1.6833503,138.89163
1.6606594,139.97568
1.7120013,142.39224
1.7026849,144.13046
1.6815952,150.60437
1.6741476,150.63048
1.6591138,150.35432
1.7081038,147.8852
1.6349292,150.81892
1.7333477,148.80095
1.7177234,152.26695
1.5642235,151.82289
1.5391951,148.57117
1.5269538,149.86075
1.4661275,150.44687
1.5112429,144.99454
1.4956005,143.94435
1.4674859,141.41545
1.3576097,141.21173
1.3247728,142.7623
1.202725,136.68004
1.2425513,133.39719
1.2017225,132.67805
1.168555,128.85365
1.178995,127.23915
1.169268,125.01978
1.1671132,122.62441
1.2235981,116.950905
1.2000519,116.78903
1.0691124,111.7428
1.1360881,109.19683
1.0588671,110.47558
1.092076,108.41094
1.1340166,104.389
1.0204632,101.46425
0.9703321,98.13639
0.9959418,96.60636
1.0297662,92.78656
1.0300752,87.86334
0.8569953,88.36156
0.8551095,82.07701
0.8204865,79.17792
0.6903048,80.141174
0.6450093,79.17656
0.6965906,75.64099
0.6215397,73.0111
0.5328071,67.99556
0.6083259,67.01118
0.5482682,65.016335
0.52245474,62.0168
0.44670707,59.017174
0.40078163,55.145103
0.44721776,55.53176
0.47287208,52.592136
0.42824122,48.877613
0.40362766,46.76843
0.4362459,47.608948
0.45119125,42.875618
0.5138906,40.0
0.43704772,40.582603
0.33800423,40.0
0.2892068,40.0
0.24212857,40.0
0.35671446,40.0
0.25160813,40.0
0.29490915,40.0
0.29137155,40.0
0.22153708,40.0
0.14073499,40.0
0.2114312,40.0
0.06029882,40.0
0.011148333,40.0
0.055819675,40.0
0.06806241,40.0
-0.10571051,42.25774
0.0945289,44.369545
-0.025724841,48.169403
-0.016068516,49.428833
0.11426582,52.9911
0.12955482,55.146626
0.26705804,57.765594
0.33306628,63.65611
0.40595254,70.211334
0.53315544,72.39717
0.53678524,78.554405
0.6562099,79.98229
0.63511753,85.55176
0.85258746,93.538086
0.8559693,97.86048
0.9414703,99.17741
1.0074748,105.9095
1.0830466,108.805885
1.1258279,115.133446
1.0834255,120.58086
1.3024404,125.2694
1.2422116,125.8859
1.287564,128.28564
1.3223556,132.70885
1.3795443,136.35211
1.3425469,143.60876
1.4339298,140.65607
1.4826524,145.3451
1.4737155,147.9807
1.4023478,147.79535
1.3561807,148.64786
1.348198,152.38058
1.350497,150.36884
1.3128989,150.04846
1.3623627,150.16074
1.3105463,152.02954
1.2998989,149.96532
1.260872,150.5076
1.2737726,147.9998
1.2356874,149.01547
1.1749381,148.038
1.1553822,144.17673
1.1250288,141.31374
1.1374351,138.11812
1.0339652,138.71716
1.022861,135.53024
0.9237777,133.83728
0.94353056,129.91748
0.96660334,126.96476
0.938752,127.01102
0.8451483,123.47996
0.96053267,121.67106
0.87704176,121.41656
0.8290062,116.61171
0.9217745,117.03037
0.9361451,111.20652
0.75662744,109.585175
0.9045668,105.522446
0.84293675,100.225525
0.822459,101.311966
0.7560738,97.00406
0.78032047,93.69167
0.75459105,90.05323
0.84308416,90.64478
0.7187317,87.85622
0.6544216,84.290726
0.67685497,83.15924
0.6225745,81.33894
0.4636792,77.94462
0.5359369,75.89948
0.47267136,70.9991
0.4006896,69.39719
0.35663447,68.11173
0.37991738,63.788895
0.3691018,59.97383
0.4154862,57.31479
0.23108338,54.37095
0.27666357,53.269154
0.34877062,53.86691
0.33045495,47.796074
0.34285843,45.32937
0.31263545,46.54155
0.34654066,40.0
0.24663958,40.0
0.4279079,40.0
0.32843944,40.0
0.3130228,40.0
0.21243851,40.0
0.21058077,40.0
0.23701693,40.0
0.1595044,40.0
0.15655357,40.0
0.06747929,40.0
0.0048929765,40.0
0.10025672,40.0
-0.029347198,40.0
0.04383872,40.0
-0.05839,40.0
-0.026458886,40.0
-0.03133751,44.323452
-0.004662418,44.15612
0.073765956,46.15296
0.15824753,52.514656
0.11421429,56.585327
0.18998815,55.003834
0.23815379,59.781456
0.3321006,63.897404
0.3720277,71.57894
0.44116727,74.2146
0.5992147,79.63165
0.68263894,83.70608
0.81747156,90.513214
0.8469206,92.018936
0.9237486,96.45161
1.0299518,102.08922
1.125586,106.42044
1.1321132,111.40955
1.0665636,114.7325
1.1975251,124.78553
1.3526554,122.449615
1.4249686,125.08173
1.4394152,132.68213
1.3761642,134.29492
1.4048249,139.30797
1.4781686,137.73788
1.4850281,144.4314
1.3361517,145.51984
1.4729692,147.85649
1.4710515,146.73041
1.4142684,148.64279
1.4394888,152.91527
1.4773726,150.80408
1.4429896,150.3597
1.4896697,152.87167
1.5169163,148.70021
1.456751,150.20811
1.4104668,147.44391
1.3570468,152.29924
1.3813323,146.51929
1.2826277,146.60562
1.2603323,140.98402
1.1988617,143.83504
1.15685,138.23682
1.2783493,136.52461
1.2036132,140.63939
1.1965867,133.2457
1.1446592,132.05609
1.2331294,124.00316
1.213541,123.342606
1.1116341,122.81475
1.1026603,120.92582
1.0859227,116.48188
1.0338647,110.89671
1.0644174,111.55848
1.0628687,109.36902
0.95707124,105.395485
0.9439985,105.68895
1.045422,104.888855
1.0757253,97.78073
0.9736925,97.93904
1.0804484,94.0109
0.94916433,90.24043
0.8901717,87.585464
0.8279613,85.189766
0.8719335,84.38904
0.7278277,84.60877
0.757185,79.0868
0.7634211,76.69873
0.6562904,69.98346
0.6713218,69.77272
0.67302585,67.9972
0.5866233,65.62201
0.6649747,63.962414
0.66659963,58.16579
0.5570182,57.944458
0.59375906,56.24427
0.59594285,49.88864
0.62092227,49.703438
0.5897846,45.98983
0.57023126,47.293716
0.5544374,46.39038
0.6514275,40.0
0.57493263,44.018887
0.55738395,40.0
0.6396101,40.0
0.576699,40.0
0.49553305,40.0
0.5128565,40.0
0.44406918,40.0
0.4017482,40.0
0.40171802,40.0
0.3866437,40.0
0.33454353,40.0
0.36688012,40.0
0.35026988,40.0
0.26469377,40.0
0.2847217,40.0
0.27142116,40.0
0.2568153,43.2827
0.33877683,44.496803
0.26760682,46.314228
0.35964227,52.701035
0.4039368,54.734966
0.48148814,58.348537
0.5444517,61.092106
0.5962746,67.22446
0.7488939,72.56298
0.83271307,77.027466
0.9410601,82.492004
1.0436401,86.69246
1.1408947,88.42001
1.164197,94.02187
1.2904415,98.628006
1.3503237,102.637535
1.4290334,109.895836
1.4754639,112.67442
1.5155665,115.623795
1.595506,118.126656
1.6283236,128.31659
1.7067499,128.37982
1.7726055,132.63258
1.7025566,135.14615
1.7454363,137.81195
1.9101176,144.06102
1.710133,143.21931
1.7304255,145.46762
1.8735107,149.50668
1.9202446,148.79147
1.8956279,150.26909
1.8328592,146.95274
1.7872037,149.4548
1.7849139,148.31836
1.8063318,151.72514
1.8175789,149.1821
1.7780709,147.31108
1.6252137,147.5558
1.6449854,149.06546
1.694916,146.50052
1.5832076,144.26904
1.5298508,142.33159
1.6466223,140.44188
1.5891987,138.40732
1.6313776,134.8778
1.579124,131.21948
1.476675,130.073
1.503641,126.330605
1.4348816,127.03938
1.3797755,124.50903
1.5139995,122.433846
1.433718,120.453835
1.5058073,117.477974
1.4351896,111.947525
1.4370298,110.75454
1.4446169,108.268776
1.3959428,104.875656
1.3812962,102.14098
1.3911715,99.629585
1.4246404,97.84839
1.3645415,97.846756
1.3138102,93.668205
1.2626598,91.51074
1.2455275,88.71903
1.1724101,85.42975
1.1298662,78.27405
1.1309814,83.99838
1.1064459,77.526886
1.1076766,76.32626
0.9782083,71.09939
1.0061158,70.36374
1.0004383,66.15823
0.9049452,67.318726
0.9133538,59.714127
0.96222067,58.029774
0.91030806,56.096706
0.8034114,54.199245
0.9442108,52.922478
0.9079311,50.827606
0.82061076,44.39535
0.8579919,43.502537
0.89528674,43.37351
0.91407794,40.195087
0.9438511,40.0
0.83320916,40.0
0.84066135,40.0
0.8889853,40.0
0.8722333,40.0
0.7725393,40.0
0.72922474,40.0
0.7476631,40.0
0.57948464,40.0
0.6504399,40.0
0.6169289,40.0
0.5653364,40.0
0.5904846,40.0
0.6063297,40.0
0.49215573,40.587418
0.50690347,40.0
0.5910859,42.83574
0.5050879,46.48367
0.5865417,51.003853
0.77035666,50.388443
0.72297215,56.667004
0.76217866,58.686646
0.75927055,62.858494
0.8017023,67.03397
1.0627643,71.530205
1.0332525,78.15667
1.1820385,84.42829
1.3314718,89.573845
1.3243365,95.46576
1.4072374,94.798355
1.5432909,105.75764
1.6483904,105.71177
1.6873527,110.95305
1.7781663,116.38422
1.6355364,118.51892
1.821549,123.26064
1.9049271,127.32635
1.8947068,129.4353
1.8910497,133.91628
1.8569571,135.55574
1.8989937,139.58492
2.026297,144.78351
1.9552785,146.92346
1.9289846,142.95744
1.882285,148.60782
1.9835653,149.44528
1.9121078,148.91629
1.9428073,149.73285
2.0210547,150.63438
1.9577677,152.10068
1.9657657,149.87457
1.8843985,151.34962
1.8898102,150.68484
1.8953623,148.8995
1.7559536,146.9472
1.7671608,145.51706
1.7030421,144.05441
1.6763871,144.29443
1.6696454,140.06094
1.5985703,138.27551
1.60055,134.6814
1.6288428,131.65549
1.5646856,129.93393
1.508355,130.94644
1.5700753,126.19398
1.4659976,122.36566
1.4420952,121.65529
1.5483596,115.94976
1.5185838,113.32732
1.446424,112.89848
1.5501715,112.550385
1.4107343,109.73308
1.4604794,104.25687
1.3267661,101.9486
1.3356383,101.135704
1.4172012,97.383064
1.4099227,95.33611
1.2978641,91.91436
1.3885509,88.68245
1.3010846,89.26775
1.1580302,84.8091
1.1332531,80.37192
1.0396262,80.439735
1.0470376,75.2502
1.0424464,73.86365
0.9948791,73.01109
0.9603058,67.567726
0.97991043,65.08825
0.91122687,67.07212
0.9165736,60.328495
0.88737005,57.091244
0.86632264,57.22382
0.88974035,52.94465
0.8770079,55.119484
0.77281004,47.652527
0.9203909,46.05984
0.82817984,45.14206
0.7666542,40.443375
0.80328494,40.21205
0.8075019,40.0
0.8075476,40.0
0.8053347,40.0
0.7692785,40.0
0.7938375,40.0
0.6700716,40.0
0.6189406,40.0
0.5121876,40.0
0.5980275,40.0
0.5408365,40.0
0.44447488,40.0
0.4548341,40.0
0.41662255,40.0
0.40862083,40.0
0.37680748,40.0
0.3980062,42.886673
0.3257305,44.96791
0.40581504,43.69669
0.47618,49.872925
0.46801737,49.571304
0.57814467,56.5353
0.7269064,58.674805
0.6307048,62.948906
0.67128474,71.74605
0.9075495,72.39564
1.0354079,76.572815
1.029594,81.838135
1.0928476,87.24695
1.1389947,94.05392
1.2761396,95.128265
1.3189502,103.58184
1.4293547,103.92947
1.3570223,110.90874
1.5153311,115.577354
1.5020574,120.184235
1.6338457,122.053734
1.5596638,127.70947
1.6787192,128.64137
1.6382824,134.68732
1.6627059,140.13535
1.7409967,139.80006
1.6639622,142.01845
1.6314723,145.3627
1.712693,145.78296
1.6715503,150.5631
1.6283433,146.96747
1.7071298,152.49973
1.6909989,148.61499
1.6659403,150.68144
1.6669067,149.5061
1.5158479,149.63326
1.5544816,150.09323
1.5807576,151.18443
1.5903349,151.04478
1.5180647,147.49307
1.5334268,144.55516
1.4051855,143.79399
1.375218,143.36026
1.3550913,141.43729
1.3384949,138.35933
1.2214799,135.25754
1.2841753,129.41246
1.2582334,132.30336
1.2057468,127.99959
1.1776307,121.02725
1.2135541,120.912926
1.2142966,121.370445
1.1772989,116.80583
1.1640478,114.329926
1.1418474,114.025635
1.1309713,107.29383
1.1503512,106.27722
1.1818243,100.63096
1.1554806,101.754845
0.99977666,96.9105
0.92036027,95.85308
1.026342,92.05312
0.9664312,94.84893
0.9253286,88.57106
0.9084645,87.73963
0.83467615,84.45324
0.7211363,83.41258
0.7029228,77.98701
0.66409403,74.97402
0.7139877,74.05225
0.73939985,71.03999
0.58412725,67.59671
0.71258616,65.693146
0.4554961,62.59072
0.50630015,60.061787
0.5255734,59.407597
0.37229556,55.475723
0.5732465,50.820606
0.4526544,51.06288
0.48500076,45.1012
0.5016546,45.290703
0.39105427,46.08074
0.59093106,43.925255
0.46211317,40.0
0.42355913,40.0
0.36541584,40.0
0.41014287,40.0
0.29070324,40.0
0.3471351,40.0
0.376393,40.0
0.32632053,40.0
0.19814429,40.0
0.17302765,40.0
0.17758445,40.0
0.17631479,40.0
0.16520174,40.0
0.14765152,40.0
0.0011878285,40.0
0.08294946,40.0
-0.022064228,40.62951
0.041209538,43.40408
0.031413157,48.38876
0.070167355,50.095192
0.19004114,55.031593
0.19935323,57.799168
0.31551322,59.90987
0.31111562,66.88668
0.47635332,72.14976
0.51093626,76.89602
0.60173595,79.43003
0.63371915,85.21829
0.83591676,88.60901
0.8706197,96.817505
0.9672245,98.73289
0.9447077,101.230896
1.1106762,109.587814
1.1371149,112.175354
1.162059,120.45411
1.3046106,121.61322
1.294301,124.87538
1.3299185,128.0742
1.2328675,130.59839
1.4119235,137.41214
1.396387,135.90054
1.4496729,142.32239
1.363772,142.32214
1.362152,144.52383
1.483168,148.72768
1.4470143,147.42601
1.3184549,149.43256
1.3841933,151.68967
1.4242474,153.21555
1.3658744,150.28526
1.3105721,150.73035
1.2838117,148.97462
1.2983233,147.6773
1.3220075,148.87491
1.19048,149.0294
1.1026367,145.05354
1.1615471,146.83049
1.1750418,142.00946
1.1560484,139.69737
1.0395641,141.13734
1.0774466,137.23285
1.0042608,136.13884
1.0509624,133.72183
0.98469776,131.08286
1.0157746,126.78733
0.95970815,126.63854
0.96802455,123.835625
0.907412,117.055435
0.88300794,117.86783
0.89504486,115.12562
0.93157184,108.350075
1.0191685,108.8963
0.94178325,106.04462
0.94065213,101.91524
0.8395553,101.742424
0.79660094,97.937
0.6864573,95.714554
0.7413365,94.562584
0.6697798,89.10359
0.7461354,88.99926
0.6596071,86.9416
0.56326836,84.29966
0.620195,80.445854
0.56930053,76.95942
0.45669007,77.233406
0.55738646,73.63781
0.40795833,69.16231
0.44856346,67.51684
0.3867394,66.88484
0.45796618,61.880352
0.40503746,57.552658
0.2898108,57.379333
0.4328417,53.41806
0.26959383,50.250347
0.27828097,45.850994
0.4156517,47.26379
0.32970306,45.529453
0.34518957,40.54361
0.3466484,41.330162
0.26192796,40.760723
0.40294012,40.0
0.4033048,40.0
0.17349775,40.0
0.22162582,40.0
0.25080463,40.0
0.1776809,40.0
0.120893344,40.0
0.14238909,40.0
0.11259556,40.0
0.13321419,40.0
-0.07195876,40.0
-0.05757461,40.0
-0.060310684,40.0
0.094716385,40.0
0.05132048,41.513138
0.0004220947,44.681343
0.00553705,48.07831
0.067202196,46.695637
0.15033613,52.76936
0.13215753,53.920082
0.2238522,58.670055
0.26481894,62.90415
0.2891514,69.30643
0.35255623,73.39558
0.496029,79.49721
0.6007443,80.373245
0.73053473,84.4314
0.80821896,90.020004
0.8059283,93.24076
0.95703757,102.487274
1.002146,104.245605
1.0852529,107.16875
1.1637233,113.26608
1.2805203,118.59934
1.2391605,124.45722
1.3913006,124.323105
1.2736769,129.8676
1.3255757,132.89793
1.3906697,134.69246
1.3553783,140.79515
1.3631959,140.97855
1.4465083,143.32591
1.3822533,147.36127
1.4053508,149.0944
1.4515152,150.58089
1.5412626,151.11992
1.4382291,151.45883
1.4463615,149.7568
1.368887,147.81944
1.359663,150.69742
1.2783366,150.61595
1.3259609,145.51112
1.3939961,146.63641
1.3010099,146.76112
1.3130798,144.78276
1.2906132,144.251
1.2905943,143.53798
1.3120952,138.97769
1.2327394,138.66838
1.1655741,135.61809
1.1973029,132.88902
1.1526574,132.98756
1.004964,129.4301
1.0444386,125.37719
1.0831004,124.458855
1.0552062,122.15047
1.071458,118.8259
0.9463737,118.10222
1.1088582,112.80875
1.056749,110.15821
1.1147566,104.84881
1.0443478,105.111725
1.0418247,100.74202
0.96348304,97.334946
0.93671715,98.26192
0.98398715,94.06991
0.9519857,91.17712
0.83863455,87.03632
0.94012606,84.70129
0.86045563,87.81694
0.7965576,86.38342
0.7420681,79.01655
0.7905771,76.168304
0.68193907,75.256676
0.698572,71.66558
0.64958155,68.02502
0.6066808,65.47293
0.54722726,63.95366
0.66582733,61.46015
0.5361411,58.718468
0.5368726,54.824123
0.647194,52.341743
0.57270515,48.767788
0.5960255,53.62532
0.6598875,48.515713
0.66055226,45.955006
0.5558821,42.203735
0.64131325,40.0
0.49362934,40.0
0.4757865,40.0
0.55424035,40.0
0.5284793,40.0
0.5426227,40.0
0.5097396,40.0
0.486916,40.0
0.50146633,40.0
0.4871836,40.0
0.3994798,40.0
0.32410464,40.0
0.29004171,40.0
0.28136274,40.0
0.24157323,40.0
0.31664795,40.0
0.3304514,42.05368
0.26247433,42.81254
0.31589448,48.719257
0.2734141,52.051594
0.41053718,53.345474
0.4776021,56.70895
0.48768893,62.177143
0.59408253,63.250446
0.64430577,68.377205
0.7093005,72.59723
0.95604396,76.5751
0.8888071,83.80838
1.0650462,89.7751
1.1965618,91.121254
1.3030754,96.39051
1.2540177,102.16042
1.4479322,106.79385
1.4576508,112.29004
1.5396311,115.61025
1.6549076,118.41146
1.6432751,128.1727
1.6051221,127.01528
1.5821905,130.65494
1.750553,134.95381
1.7628502,137.43929
1.72045,140.91122
1.7860289,142.57184
1.7179111,145.20006
1.8137637,149.6355
1.7301621,146.19766
1.862189,148.70914
1.9055103,150.72295
1.8063713,151.03923
1.8025479,150.59135
1.800893,152.19571
1.7699665,149.57582
1.6814998,150.6655
1.7905765,148.81528
1.7185249,148.47153
1.6999568,149.3998
1.6975685,145.24199
1.6690844,143.90302
1.656614,142.85875
1.5905645,138.63788
1.4981076,140.23627
1.5407257,137.22385
1.4968758,131.70839
1.4344035,130.72685
1.5381445,125.79575
1.4420245,128.16768
1.4503217,122.71702
1.3918624,120.79135
1.4189633,119.151344
1.4630084,114.66967
1.5139639,113.46356
1.3261946,108.98455
1.3941207,107.70296
1.2211078,104.57102
1.3470042,100.611664
1.3586229,99.66374
1.3408719,98.397705
1.3930553,94.64011
1.2695247,84.95876
1.3310014,88.58848
1.2297552,84.41186
1.1551727,86.05445
1.1545303,83.508766
1.1143266,80.10028
1.0816362,76.90518
1.0008994,72.90723
0.9683587,69.889015
1.0349433,67.96547
1.00631,65.63502
0.88916355,58.33587
0.90935224,63.621662
0.9248469,57.874237
0.9398488,56.018284
0.9036666,52.931355
0.9519994,51.20816
0.8885361,46.47464
0.9726064,46.091995
1.0239326,45.377842
0.8937756,40.89418
0.9040279,40.0
0.82711357,40.0
0.85324526,40.0
0.8531153,40.0
0.8570111,40.0
0.78323585,40.0
0.801308,40.0
0.7098276,40.0
0.7459679,40.0
0.68012416,40.0
0.64412445,40.0
0.5709143,40.0
0.5647938,40.0
0.5308442,40.0
0.5838408,40.0
0.46734992,40.0
0.5089967,40.0
0.62647057,44.115997
0.6037374,46.1977
0.69763696,51.560577
0.72821176,55.077995
0.79374444,59.429676
0.8359141,64.40038
0.85579044,66.583954
0.9743702,70.99508
0.9906627,74.70548
1.1329274,78.87852
1.2001398,83.10678
1.217814,90.4711
1.418454,89.9841
1.4921796,97.51887
1.6141331,104.69849
1.5540929,105.37952
1.734595,113.510254
1.6145452,114.60455
1.7749629,120.899055
1.9263142,124.20008
1.8586115,130.48204
1.8518841,133.93268
1.9095751,134.86821
1.9766273,136.44078
1.9327512,140.79156
1.9776165,142.42935
1.9832199,145.01794
1.9944192,145.71806
2.0186052,149.67874
2.0629525,148.97626
1.9579458,150.49634
1.9593807,148.82062
1.8677542,152.91183
1.9607347,151.99771
1.9623626,149.06653
1.905172,153.14336
1.7732663,148.36407
1.7967423,145.6532
1.7914584,146.02573
1.7147712,146.32773
1.8389914,143.31062
1.719176,140.2835
1.7163508,141.20547
1.6886905,138.01013
1.6189269,136.15732
1.5267326,130.84624
1.6071411,130.27182
1.6505857,128.39854
1.5104004,121.62226
1.4859152,120.20335
1.5454422,118.38791
1.538285,116.87303
1.5388044,114.67305
1.4616104,112.82679
1.4497281,105.7727
1.3083295,108.53296
1.4306556,103.99013
1.38039,99.6456
1.2737509,99.589966
1.4594216,92.018555
1.3449457,93.1009
1.2077333,91.60118
1.28301,87.352066
1.3208797,86.41956
1.2466121,84.39058
1.1930658,77.849045
1.0384986,77.20495
1.0337049,77.38307
0.9788019,71.071266
0.9891944,68.34882
0.9965574,69.42103
0.95164126,65.83337
0.85930014,63.476624
0.8780518,62.085773
0.92704594,56.04836
0.88913226,54.0987
0.87602705,50.586693
0.80499023,47.94584
0.854375,49.167362
0.78352594,44.5946
0.79416263,43.8319
0.75294536,41.7592
0.90746206,40.0
0.8947892,40.0
0.7326538,40.0
0.72046626,40.0
0.7154978,40.0
0.7619083,40.0
0.6942721,40.0
0.6956118,40.0
0.6717872,40.0
0.57065386,40.0
0.5240876,40.0
0.54566944,40.0
0.5033956,40.0
0.48233235,40.0
0.43906063,40.0
0.4653854,40.0
0.40369958,40.0
0.40820175,46.077805
0.44916528,49.11721
0.6235658,50.94722
0.5026326,54.6189
0.664016,57.82205
0.7844387,63.956547
0.7762567,66.30351
0.81766295,73.03458
0.9441502,78.36353
0.9729984,81.90944
1.034269,85.459656
1.2314957,90.342354
1.3060795,94.26877
1.297211,100.743706
1.3568523,103.99211
1.4555817,111.85874
1.4955658,111.706985
1.5077978,117.52761
1.5142528,121.34838
1.5539893,126.68136
1.5974445,128.73436
1.6301242,134.48598
1.7136776,136.95293
1.675435,140.09023
1.6864088,139.11862
1.6673874,143.11842
1.6700522,147.60455
1.6668252,146.0008
1.7225332,147.61475
1.7718612,151.1768
1.7839074,148.91191
1.6944181,148.4561
1.728521,149.98357
1.6126463,154.28185
1.6585785,148.22597
1.5580755,147.28267
1.5967678,151.30817
1.5015646,147.94496
1.4737079,146.4391
1.47614,141.28923
1.5290419,139.7299
1.4566748,140.64297
1.3430263,135.87883
1.2957208,137.39792
1.279283,131.73503
1.3282604,132.46516
1.2825413,128.1077
1.283718,125.258705
1.2049534,121.11547
1.2322438,124.927155
1.2142127,117.025826
1.2519635,117.26919
1.2551676,111.17719
1.2070781,113.120804
1.2113453,109.40566
1.1291088,105.26225
