ppg,abp
1.0560457,91.65378
1.1081623,93.00186
1.221247,97.373344
1.2458782,95.42327
1.3776516,102.69402
1.475286,106.567726
1.5204314,112.48488
1.51852,114.414825
1.6240172,116.491066
1.6693205,118.09719
1.6626997,119.89727
1.6565678,121.37418
1.7087214,122.590805
1.7036198,122.68877
1.7422402,127.350784
1.7462466,125.78962
1.7321738,125.32768
1.7090539,123.83628
1.6818769,126.69828
1.6341482,125.573814
1.7629538,125.48871
1.6124508,127.83248
1.5493755,125.276054
1.6211642,125.38098
1.4702587,121.52812
1.6196666,120.24495
1.4543931,120.63961
1.4084872,122.87913
1.5033882,119.21706
1.4196289,117.45413
1.4090772,114.41222
1.3708118,112.71662
1.4318281,110.695175
1.3331087,112.75719
1.3724762,105.91298
1.3731194,104.30473
1.3931375,99.8783
1.3474652,102.53441
1.3412095,101.311
1.276949,97.53577
1.2306268,95.63085
1.1782467,92.93578
1.3170302,92.57319
1.1991861,91.58024
1.2495126,91.17422
1.1985605,88.21652
1.1060563,84.49079
1.0081408,86.3314
0.9269139,85.28721
1.0138038,81.16583
0.91277903,78.2916
0.9545353,77.24279
0.8635366,76.320755
0.8763284,73.00449
0.8254363,71.28648
0.83305895,66.315216
0.71563685,68.56508
0.7927106,64.3153
0.7596734,66.60225
0.82174677,63.33277
0.845897,62.395245
0.7446124,59.57548
0.8320366,61.869423
0.8023672,58.49446
0.83841693,56.2671
0.71922094,58.86896
0.75758904,56.37342
0.6099654,57.252846
0.68626523,58.9861
0.5809216,55.626076
0.5684265,54.30629
0.3808713,57.343575
0.38886645,57.5811
0.40307355,58.860485
0.5249183,58.719288
0.4586206,62.297073
0.47841832,61.898838
0.56117415,66.56652
0.7399289,66.452835
0.67703086,69.69936
0.7483952,68.235016
0.7865649,77.18539
0.896078,75.27925
0.9843732,81.19551
1.1308428,83.619484
1.1901016,83.5382
1.3459922,89.18736
1.310598,94.21742
1.5075421,98.508
1.6229807,101.67562
1.6202083,104.096695
1.7073947,106.39934
1.702043,107.83455
1.8187973,112.66153
1.8850534,113.4272
1.8862078,115.71926
1.9309351,117.079094
1.9011731,123.02548
1.9663709,117.32046
1.943875,124.30245
1.931149,124.468094
1.88318,126.01212
1.8274945,126.11311
1.998732,128.28423
1.9061757,127.921555
1.912946,126.664185
1.9424068,126.00891
1.839452,124.16052
1.8187146,124.772385
1.7602357,123.38074
1.7844576,124.315865
1.799711,123.06327
1.7117343,119.4906
1.6883823,120.71171
1.6264706,119.932915
1.5886621,116.33833
1.6528575,115.0331
1.5174633,111.28377
1.6082509,110.44594
1.53595,110.41691
1.4751608,109.85073
1.4483559,106.779396
1.470984,102.18151
1.4574947,102.54759
1.4377384,99.17719
1.4425102,99.459496
1.3840553,97.42274
1.4674246,95.972176
1.2460011,94.605804
1.3983256,91.21903
1.2255046,92.65523
1.2638568,89.57756
1.1735716,88.248436
1.1807766,84.90443
1.1370264,83.44379
1.1201283,80.281654
1.0412716,80.239784
0.9936685,78.88873
1.0548121,76.85871
1.0267727,72.806076
1.0290009,73.64702
0.87395287,71.81768
0.9132155,68.07369
0.8823349,67.22165
0.9564346,66.57417
0.844628,63.27718
0.95475835,60.80887
0.91243577,62.320484
0.89562935,60.554783
0.89892584,60.44186
0.8645779,59.23003
0.83739454,59.031338
0.82706934,58.896988
0.7864305,57.513496
0.7101291,58.03068
0.62372154,56.118507
0.7455184,56.749393
0.6393211,56.997375
0.5247965,58.390877
0.47863838,60.923996
0.45726356,58.119114
0.4666098,61.020924
0.52735263,64.03307
0.5614793,67.76121
0.65032876,68.15089
0.6173346,68.865974
0.6528434,71.94508
0.8030738,77.250435
0.850699,76.614555
1.0357904,77.66212
1.0760989,84.669846
1.2047216,86.199104
1.274151,89.93867
1.3342764,93.85395
1.3861122,94.89007
1.5610917,97.944176
1.5496264,103.887024
1.5791246,102.60313
1.6963478,108.96942
1.7508734,112.176796
1.801515,111.861084
1.7375647,115.028
1.8798785,121.10978
1.7934773,121.01705
1.9219109,119.374916
1.8401843,122.318565
1.8397288,123.14485
1.9110451,123.06841
1.8646463,123.79638
1.8455558,126.716896
1.9087436,125.67269
1.8526366,122.90671
1.7826573,124.43443
1.7795497,126.58268
1.7694314,128.00798
1.6687642,124.636
1.6851016,124.450325
1.6395855,122.69906
1.5575038,121.637794
1.6030898,120.15131
1.5277127,117.65832
1.4621836,117.20999
1.4341657,116.86019
1.3941923,111.20458
1.4307379,110.08719
1.4767066,110.42641
1.3683069,108.41562
1.3480963,106.072136
1.3667414,103.41401
1.320958,104.57247
1.3258051,101.43189
1.3262243,98.5997
1.3263257,97.423775
1.2836179,96.085846
1.2270083,93.12838
1.118459,91.29086
1.0795709,89.84396
1.0944251,90.571556
1.1312951,86.15426
1.0019361,85.40541
0.9669119,84.35045
1.0044383,80.14433
0.8397761,79.879974
0.80940336,77.84197
0.75838244,74.5589
0.85102236,76.43907
0.74834144,77.63345
0.7452638,73.74365
0.7897886,72.28384
0.7438712,69.57292
0.6877947,65.5554
0.6356629,64.75592
0.7194526,62.21757
0.70180696,62.740925
0.6384905,60.199406
0.63577783,58.469852
0.6482279,57.738132
0.5625676,54.12342
0.50334585,55.465523
0.5200006,58.01506
0.45629925,61.392735
0.5002023,60.388496
0.33239886,54.135853
0.3585255,56.201237
0.34383613,59.248863
0.31126916,55.7934
0.2487424,59.674267
0.2642576,58.73309
0.26253474,63.193016
0.2677588,66.18761
0.29112118,67.45469
0.2842225,70.92183
0.3905661,72.5645
0.5622142,76.82711
0.5905341,77.73979
0.68509436,80.20855
0.796399,83.25306
0.90259594,87.48606
0.9278933,89.32867
0.9903799,91.60767
1.157441,96.470474
1.1772647,100.753044
1.3099021,102.37361
1.357675,104.38396
1.4683496,106.43732
1.405326,111.6096
1.5056164,109.50177
1.5214018,115.223595
1.5036242,118.86792
1.5186291,121.086296
1.621957,121.88474
1.5976475,124.09857
1.4995981,123.4562
1.6285292,122.86915
1.5563384,123.83798
1.6958289,125.026634
1.576203,127.25224
1.463438,127.23426
1.5152937,125.87992
1.5472081,124.29065
1.4452895,125.16729
1.4369019,125.220795
1.3407909,123.584984
1.2906344,122.14103
1.2634864,120.25459
1.2532511,116.89641
1.1911352,115.70194
1.1946766,118.41482
1.1753248,115.82878
1.1222888,112.71399
1.1540914,108.53221
1.0665891,109.21431
1.1196603,107.14813
1.0702422,105.046364
0.94467974,102.82057
1.07999,104.57396
0.96829855,100.52574
1.032547,98.383545
0.9997454,98.66449
1.0504038,97.550125
0.96145487,96.20107
0.7918574,91.92793
0.88167924,92.03893
0.8745271,86.19239
0.76627827,85.61945
0.70914465,86.028534
0.7180027,83.908195
0.61608636,85.163055
0.72136086,83.54859
0.5813645,79.86627
0.4972457,76.459984
0.5086408,72.93625
0.4071243,70.79934
0.31951827,70.64666
0.38491148,71.45834
0.46212387,65.37225
0.45989123,65.50979
0.47567543,66.68769
0.37887114,65.15746
0.46074387,60.164936
0.45119607,59.786453
0.3986347,58.41906
0.3101414,59.726234
0.34348792,57.097965
0.33612174,55.693535
0.23515154,56.693798
0.1571177,57.629955
0.15464796,53.58255
0.055612694,55.50632
0.08163771,53.317516
0.011133696,58.662086
0.09202099,59.159195
0.03327052,59.199593
-0.01366043,61.51001
-0.09149983,61.63596
-0.03468056,62.58359
-0.003753004,67.90348
0.10741436,67.234406
0.2423791,69.923645
0.16529869,74.75361
0.38186836,77.897095
0.4620117,79.08239
0.45210335,81.539894
0.6208654,86.716156
0.6787633,87.57298
0.76370543,89.79238
0.8414336,93.794975
0.92355096,98.05715
1.0819404,102.64723
1.0231586,101.768684
1.1522593,105.48915
1.1459637,110.13577
1.2512378,112.48638
1.3320343,115.28789
1.3114645,118.58422
1.3467269,116.75561
1.3748361,120.59259
1.4517417,120.3604
1.3426872,121.38888
1.4410553,123.94148
1.3867368,125.36663
1.3584863,125.29585
1.3527068,126.245544
1.3378445,128.68996
1.3751017,123.514084
1.257132,123.640434
1.291181,124.785645
1.2040178,125.88656
1.2579875,122.886765
1.0968298,122.464264
1.1700219,123.29409
1.1061015,119.49679
1.1097951,119.82875
0.9458754,119.047806
1.042876,115.866745
0.930377,112.75379
0.936425,114.11652
0.8804894,112.37122
0.867491,110.75388
0.95680195,107.13094
0.88156736,105.94499
0.97278255,103.973076
0.8452112,101.80093
0.90822995,100.57596
0.85798335,97.92624
0.9535982,97.68452
0.87250304,98.259705
0.8680185,92.66074
0.6999244,94.494736
0.7184187,89.54506
0.77182895,88.09483
0.6554878,88.18655
0.609617,83.7079
0.4991237,81.07519
0.48309347,82.916435
0.43914044,79.204445
0.4508296,77.69891
0.45810276,76.2977
0.40584636,73.84567
0.39050364,72.26968
0.30714753,69.41544
0.44777465,69.607635
0.33539027,68.126724
0.35913298,63.9447
0.24274404,64.89469
0.3547685,62.292965
0.378797,58.69987
0.36594042,61.326767
0.29925084,62.422367
0.25067857,59.73608
0.28102374,54.34822
0.22292647,57.362244
0.10947208,57.477844
0.1861435,57.317894
0.18069266,56.019314
0.11359005,59.413887
0.12368085,55.33358
0.07689255,60.038734
0.00942089,59.423443
0.0004767004,60.731514
0.042700656,60.048504
0.019594518,65.22433
0.027046785,65.56839
0.08761403,68.25125
0.060872663,69.58098
0.23173529,74.64933
0.37432903,73.95374
0.449537,78.623314
0.5758164,82.63771
0.7210209,87.00567
0.7053582,86.27155
0.7292059,93.21109
0.85890377,93.36399
0.99842715,98.85368
1.0277855,98.6087
1.2240107,103.72456
1.2592357,105.614006
1.2545339,112.13399
1.3925594,108.10253
1.358574,116.85177
1.3714744,114.96367
1.3764836,119.49896
1.512682,121.3564
1.4849248,120.00044
1.4740802,123.37336
1.4368768,123.86606
1.4635824,125.91904
1.4767299,127.301796
1.466826,126.584145
1.4294684,125.27174
1.5556352,122.84238
1.4559518,125.56952
1.3382823,125.31447
1.4451894,125.47691
1.4704827,121.17056
1.2838012,121.20976
1.2154142,121.86157
1.166548,119.84008
1.2667942,118.90199
1.2955947,118.071365
1.2396456,116.12828
1.1482009,112.052666
1.1440153,110.08176
1.0441766,111.28399
1.0540392,108.95503
1.074157,105.93178
1.0354393,102.87232
1.0891553,103.16456
1.0866644,104.026634
1.0416023,99.79924
1.0144072,98.783165
1.0651264,97.34865
0.9313903,94.58383
0.9248335,91.61017
0.94832915,88.88476
0.99206054,90.57918
0.9112857,88.98748
0.8494548,84.88254
0.8552802,83.00472
0.69482815,83.180626
0.7023011,82.67306
0.6390415,81.40274
0.6876348,77.475815
0.5397409,73.985825
0.62195414,74.65747
0.57846165,73.72359
0.6286712,69.681465
0.5700926,71.16029
0.5783045,67.46653
0.58767056,67.843735
0.5739541,67.00679
0.56479156,62.514767
0.5516121,61.83277
0.5667217,62.29267
0.53369254,58.109406
0.61675596,56.497032
0.41617045,58.61491
0.51074207,55.58085
0.5737898,60.652187
0.38981846,57.37576
0.4443799,60.512535
0.40202007,59.094563
0.31596863,59.06425
0.28501368,60.080082
0.40149653,61.620083
0.23018295,62.298965
0.25100422,61.61603
0.38453457,61.70865
0.35359436,63.17727
0.44837022,66.95741
0.429959,70.81264
0.4968689,73.75961
0.5473355,73.674385
0.6965068,78.815895
0.75814813,80.41391
0.9234276,85.26134
0.9534698,84.92773
1.0821371,90.82792
1.2280608,96.17941
1.297434,95.97839
1.4048215,99.08269
1.4270263,101.10242
1.4853159,107.300964
1.5537356,109.750786
1.6442314,112.94057
1.7290727,112.315384
1.7331814,117.36736
1.7118772,118.8555
1.7799228,120.06746
1.789214,124.40739
1.8061396,122.44811
1.8143625,123.82568
1.7698084,126.9543
1.8097422,127.43922
1.7450653,128.1949
1.7218024,127.43788
1.8197823,126.752495
1.7388732,126.02079
1.7440292,126.42288
1.737313,123.51199
1.6691381,124.36943
1.6727291,119.7397
1.5252324,119.84335
1.6013824,121.04617
1.5076064,119.97359
1.4503199,117.47209
1.4431272,118.1401
1.4663684,115.02149
1.3957572,112.06428
1.4626964,111.60425
1.4432693,109.25015
1.3484919,108.40609
1.3398013,104.37044
1.3959298,104.35163
1.2852046,102.835724
1.4162112,99.74166
1.2429008,98.82737
1.3821278,97.30815
1.2749414,95.39189
1.2839254,89.86192
1.3813893,93.91506
1.2412469,89.7424
1.14951,89.71773
1.1904513,88.605576
1.0886681,82.28222
1.1322848,82.40292
1.0532297,83.52814
0.95963186,78.307335
0.9916768,77.69612
0.8823469,77.22576
0.9111146,75.026886
0.9853981,71.19719
0.8656895,69.22709
0.8439946,69.41354
0.8880798,70.810356
0.81149054,68.008484
0.81706905,64.95554
0.89912945,65.893135
0.9302889,63.449524
0.84340703,60.562504
0.8931621,56.26554
0.81652266,57.865215
0.8013999,60.046165
0.832812,58.986183
0.6283602,55.756866
0.6944557,56.180832
0.70902973,59.021683
0.59237003,57.17094
0.5710483,56.046154
0.5559959,57.063534
0.56352943,60.27025
0.5639962,61.61174
0.51877373,62.023567
0.52490157,62.53367
0.49919906,65.268936
0.60600126,70.038025
0.7137262,69.27413
0.6994226,73.58038
0.84786224,74.65797
0.9528466,78.03113
0.96592593,82.54274
1.072849,84.196465
1.037085,85.41325
1.3047053,87.86222
1.3727696,94.43346
1.4730576,95.423874
1.5308905,98.79394
1.6519123,106.25106
1.7414616,103.89337
1.7482721,108.04527
1.7026744,108.63869
1.8350947,111.14119
1.9533561,114.648605
1.8618592,117.285164
1.974615,121.15743
2.0728369,122.9912
1.9607716,120.95176
1.913271,122.399574
2.0172195,122.77566
1.9662349,127.90697
1.9102154,125.415436
1.8735179,126.209114
1.8621463,123.91597
1.9263748,125.894035
2.0023773,125.93194
1.873346,124.413994
1.8602952,126.40225
1.797493,123.15664
1.7489767,121.923546
1.6416543,120.448814
1.619921,116.25512
1.6492116,117.63483
1.6255801,117.91869
1.5837424,112.50213
1.5975811,112.15473
1.5108473,109.49532
1.5673887,108.82492
1.5641272,105.78684
1.5438787,105.68631
1.5518515,104.445305
1.522997,102.25911
1.5019279,103.46858
1.411182,96.94812
1.4869671,98.39405
1.3628057,97.96116
1.3400393,94.83702
1.3406585,92.41075
1.2791215,92.67681
1.3395306,85.71721
1.1768556,88.09638
1.207862,85.50329
1.2013786,82.12537
1.1283472,82.99329
1.08772,80.373116
0.9822489,76.53588
0.99804425,74.70138
0.8740352,79.00008
0.98575604,72.8811
0.9262567,69.791046
0.85892373,68.38616
0.85424286,67.69201
0.8032845,62.663757
0.862555,64.609184
0.9704192,62.364155
0.8211023,59.058834
0.8533031,61.394028
0.9347202,59.557945
0.8607446,58.137688
0.76565975,55.823174
0.83229953,57.752686
0.807204,54.457527
0.6547466,54.689697
0.5981262,56.26033
0.6325028,55.56722
0.6078158,57.23847
0.53562325,61.918304
0.4600195,60.451508
0.44871837,59.02525
0.55130947,63.298676
0.46848524,61.178104
0.57996136,66.447205
0.48856992,70.18141
0.699228,68.53564
0.76943886,68.75855
0.653687,73.25401
0.85687256,75.260956
0.93060297,80.592705
1.014853,81.81935
1.0926515,86.650635
1.1179053,89.71912
1.3043549,91.71032
1.347018,95.5089
1.4321737,100.298904
1.5214891,100.30314
1.6611186,104.14636
1.6563864,111.116684
1.7544903,109.65542
1.7269168,113.318344
1.7449366,114.75945
1.8089877,117.54964
1.9034301,115.52978
1.8348688,122.70373
1.8257716,121.249016
1.8967538,121.91785
1.8066345,124.53311
1.7540494,126.81896
1.7980647,126.3039
1.787127,126.002556
1.819555,128.20413
1.7884511,128.88983
1.7200539,125.33925
1.6354457,124.63648
1.6652535,123.08564
1.7328465,121.10179
1.5529505,120.989525
1.5487999,119.48636
1.432672,121.2679
1.4635934,120.005745
1.37362,117.15998
1.4863588,115.35068
1.4093164,113.74281
1.4518795,110.86856
1.2934269,109.49843
1.3463093,108.73713
1.2824061,106.14202
1.3794343,104.101555
1.3150331,104.49571
1.2368757,103.07864
1.3046783,101.908875
1.2900293,98.0948
1.18719,95.10057
1.0907034,92.26775
1.0967827,93.030975
1.0934525,92.60223
1.078497,89.8265
0.95761424,87.181625
1.0141847,86.95427
0.9461751,82.8936
0.84563726,78.68643
0.8341779,80.601036
0.7478279,77.762115
0.73247725,77.675606
0.73033607,73.67351
0.6745195,71.69113
0.7271852,73.5416
0.7065746,70.38479
0.65608,67.41787
0.6819753,69.698586
0.63229847,65.530014
0.66073805,64.0338
0.5816581,64.01572
0.587449,59.617744
0.6485284,63.393177
0.59886676,60.042313
0.53495544,58.667515
0.5871644,58.35585
0.4022404,56.233425
0.41422737,56.486485
0.43240052,60.062584
0.33885962,55.761017
0.41670856,57.084225
0.23080611,58.408775
0.29295877,57.33557
0.24264777,56.92716
0.13010544,64.04665
0.123015955,60.37966
0.22681747,62.380424
0.18768232,67.23841
0.32244697,68.27004
0.38647225,68.92597
0.3515039,73.423355
0.42468938,71.63205
0.5246891,77.987206
0.6631139,82.30545
0.83926916,84.74995
0.84281135,90.093025
0.9774849,90.77619
1.1535118,93.15084
1.1517189,97.03996
1.1468999,100.50804
1.2529279,102.7682
1.4060425,106.8173
1.3016286,110.68104
1.475153,113.55297
1.4696409,113.88338
1.3328938,116.880516
1.5414045,119.06674
1.5823541,118.93413
1.512059,121.97935
1.4579005,123.69824
1.6218892,125.349396
1.4825704,124.53695
1.4741135,125.62702
1.5287801,124.771935
1.5183041,127.36178
1.4816208,125.68859
1.4324757,127.774345
1.471633,128.50261
1.3504235,126.5792
1.3399963,124.64425
1.2057552,121.249886
1.3442214,121.05469
1.2234184,120.56612
1.1907723,119.10518
1.1425716,116.056984
1.0605385,114.712204
1.0487682,117.6648
1.0525192,112.14951
1.0431713,109.067474
1.0047104,110.53106
1.0337446,107.153915
1.0041167,105.53889
0.8664485,103.024376
1.0467067,101.65845
1.006365,98.29994
1.0280299,95.67953
0.89838874,99.89428
0.8731836,94.22637
0.8626035,96.12395
0.7654874,93.43006
0.7072893,88.69325
0.7983195,88.59966
0.6768566,86.53685
0.62646055,86.697876
0.5889468,83.39634
0.5379374,80.08866
0.5770298,78.55845
0.4482844,78.13385
0.46281233,73.96995
0.323067,75.28672
0.41349828,70.964645
0.3275235,73.666756
0.38131794,68.72091
0.36185336,67.427376
0.42206842,65.02848
0.38326123,63.49459
0.308239,64.6004
0.3683682,62.195183
0.26418626,58.63824
0.4213545,54.862892
0.31151786,57.36918
0.30191252,56.273518
0.23671617,58.67852
0.16955484,54.696846
0.15450521,55.34955
0.07683902,54.805244
-0.013919386,57.302956
0.07972777,58.577797
0.03395513,59.50904
0.028307127,56.074326
-0.031279955,59.572113
0.01439361,61.238358
-0.042910647,64.87641
0.040522505,66.54307
0.03648297,70.53331
0.10549738,69.49468
0.071883254,73.31517
0.149009,74.74532
0.44382256,79.88788
0.42014712,80.69339
0.5545305,86.65752
0.55920756,89.19634
0.700118,89.53626
0.75970393,93.44077
1.0039096,95.991066
1.02407,103.86191
1.1340997,105.774864
1.1249673,107.98055
1.2024478,109.41196
1.1964238,110.66127
1.2870716,115.071815
1.304615,116.45964
1.3713747,116.80507
1.4206918,119.85581
1.3591942,122.06929
1.430983,118.85832
1.4120835,123.64684
1.4296211,125.0495
1.3692435,126.457184
1.4002956,125.02893
1.3235978,126.00344
1.4292428,126.79366
1.3493494,127.48148
1.2647711,124.74396
1.233866,123.39771
1.1728565,125.13415
1.2708437,124.34575
1.1886168,121.085144
1.1399686,122.73942
1.1757417,121.228226
1.0532343,118.20358
1.0207185,113.67342
1.0154074,111.97857
1.0808266,107.918686
0.8942167,111.15281
0.95028794,108.1882
0.9247178,107.66027
0.8654577,107.19588
0.8995466,101.712654
0.88421607,101.310715
0.90623075,101.08373
0.8474144,99.00014
0.8471536,97.163734
0.8650762,96.93535
0.7930621,93.3498
0.80160993,90.443115
0.81913525,91.32916
0.7386222,89.1409
0.61329585,85.92058
0.5897206,84.33173
0.65856856,83.4096
0.53575784,79.56432
0.5394094,80.131874
0.44900513,75.59625
0.48810807,72.78213
0.42247134,75.4117
0.45702904,71.802124
0.45158434,70.16563
0.39448166,67.66686
0.3712631,64.92086
0.32285443,64.16915
0.42163315,64.26007
0.3852924,62.739956
0.38582453,58.05413
0.36580893,59.908962
0.2708939,59.34379
0.42219615,57.715538
0.27522773,55.899044
0.3521137,58.15023
0.31514508,58.226063
0.18445799,58.513996
0.13662279,57.192802
0.10099138,56.94658
0.17756556,57.229523
0.08905206,56.58782
0.038928814,59.925514
-0.018701289,60.414806
0.07558307,61.153465
-0.10484124,64.67502
0.028114598,66.79253
0.152283,69.47066
0.27846634,70.86735
0.21113192,75.05282
0.44306597,76.47026
0.47562802,78.17027
0.52764255,82.81182
0.7228837,85.87402
0.7207731,87.70827
0.82971025,90.39608
1.0000153,94.326675
0.99474263,95.500275
1.1162151,102.141335
1.0753044,103.83436
1.1838189,106.326996
1.3552221,109.98702
1.4537264,111.54209
1.3749937,115.531235
1.3561945,116.01118
1.4660009,117.31783
1.4836329,119.57448
1.5720246,123.45779
1.5701853,121.135056
1.5738993,125.12095
1.5546511,122.919464
1.6014104,127.54871
1.501907,126.51295
1.4781735,126.728035
1.4230858,124.547
1.3798884,123.48212
1.5220863,125.12065
1.3942024,125.368675
1.404127,121.616516
1.2959058,122.06983
1.3945963,120.0098
1.3595212,122.05581
1.2702858,122.31782
1.2968585,115.93603
1.1694348,115.13732
1.1725094,115.93416
1.2354131,114.094864
1.0917559,114.11934
1.2077916,109.80714
1.1770519,108.199036
1.186049,106.960365
1.0354578,101.87278
1.1672944,101.70226
1.1576293,100.452415
1.1050006,98.60071
1.1116338,96.27693
1.0948782,96.66202
1.1129949,94.03281
0.9426345,96.12737
0.9548768,86.96607
0.9332865,88.11587
0.90230834,86.16527
0.8518209,87.50307
0.85413533,82.69898
0.85276765,80.419754
0.785109,79.45181
0.71689534,77.86906
0.63807654,75.526505
0.67444766,73.97333
0.584013,73.56668
0.75714505,71.81334
0.62896794,68.35051
0.6181547,69.57511
0.6362208,68.70771
0.6290712,63.662277
0.69666654,61.916164
0.5896385,62.995213
0.6064005,61.346302
0.5988715,59.11094
0.65224075,58.85213
0.6292616,58.60875
0.550602,57.940144
0.48927954,57.637123
0.5626983,58.506176
0.5316519,56.76304
0.45427087,57.102432
0.41086555,56.330616
0.33348235,55.27992
0.33930027,59.054745
0.31768635,63.64751
0.336444,59.973213
0.36014986,65.15981
0.32938012,69.8815
0.4270255,64.173744
0.55594826,69.97906
0.61959285,70.53234
0.7293679,74.99764
0.66166484,76.24907
0.8342166,81.64738
0.90504426,85.60773
1.01459,87.892136
1.1102319,89.96069
1.2880096,92.18509
1.3356085,99.37667
1.4216772,98.88767
1.572741,104.07494
1.4878168,107.1044
1.6605449,105.07819
1.6909187,112.794876
1.7905104,114.80357
1.6908715,115.11274
1.8261068,115.76483
1.8232846,119.67981
1.8399825,120.3509
1.8033851,122.58817
1.818168,122.94891
1.8340359,124.47131
1.7872628,126.10187
1.9131444,124.85511
1.9379438,125.77923
1.8579797,123.42902
1.8355837,124.21246
1.7251374,123.59464
1.6473958,126.37883
1.6707134,122.901054
1.7078367,124.11418
1.5962827,121.91768
1.5963955,120.56024
1.6286873,117.52359
1.5284121,117.91121
1.5415152,115.702034
1.5753601,114.625275
1.5346799,112.90467
1.4940926,111.694176
1.4588082,108.32041
1.426198,108.50876
1.4333355,103.67123
1.522472,105.08442
1.4293634,101.667145
1.3456172,99.71117
1.3429543,98.00419
1.3546053,97.080986
1.3545204,97.47995
1.3148104,93.276405
1.3243302,93.16458
1.3006989,90.278244
1.1721454,90.34327
1.1806608,87.52103
1.161417,85.65612
1.1135575,86.41491
1.0447145,83.622444
1.1542813,82.68602
0.97979724,78.65137
0.99585396,77.33977
0.9322391,76.57299
0.906143,72.1376
0.9602186,70.53157
0.9639118,67.89943
0.8665716,64.326836
0.90182525,66.23332
0.965131,67.52063
0.8784747,64.39857
0.8650062,63.559124
0.89664483,60.543015
0.8505336,58.628204
0.9176448,56.926723
0.8071193,56.39671
0.80129117,56.996086
0.74023736,58.52026
0.7707924,54.960045
0.7264043,56.321095
0.6221141,56.60581
0.57505643,55.53343
0.63454694,57.851135
0.49475074,57.629658
0.5695443,59.00535
0.5621592,59.164032
0.5445791,61.387405
0.6255041,66.08095
0.6711964,69.28989
0.7481968,66.15666
0.74655944,70.67457
0.86040986,75.684235
0.88318485,77.49421
0.9349265,76.77894
1.0169897,82.87267
1.1807189,85.625046
1.27035,89.81261
1.4652027,90.762596
1.4824706,95.37721
1.5759225,95.979095
1.6770506,102.2218
1.7673887,104.22676
1.795786,106.9288
1.9070705,108.74555
1.8031985,113.31223
1.9163129,117.2889
1.9035578,115.337715
1.9180002,116.06608
1.8846866,121.58471
1.947322,122.29541
1.9641076,124.75689
1.861899,120.979614
1.8592383,123.463745
1.9310265,122.38252
1.9433917,125.87546
1.937712,128.1884
1.9380342,127.28342
1.8382852,124.31494
1.9195627,126.289024
1.8637129,124.51581
1.8796179,124.69571
1.7453288,121.27132
1.6408608,120.65675
1.6141526,121.21254
1.6958227,116.162674
1.624777,117.91986
1.6028875,114.76984
1.5209929,112.54195
1.5401973,112.62474
1.5335433,111.09313
1.5312458,107.68351
1.4514034,104.6177
1.4803474,103.44747
1.4524226,101.800644
1.4686745,98.88066
1.4419798,99.04499
1.4688867,98.92184
1.4882066,93.20129
1.4921695,93.37191
1.3087434,91.56522
1.2774502,93.61204
1.2488893,90.397354
1.2069054,87.544235
1.1490254,85.06026
1.1515523,85.696396
1.0748612,84.5739
0.96726143,81.18136
1.0441173,78.88051
1.0051904,76.5612
0.9919424,75.14952
0.86104774,74.45951
0.898039,70.86534
1.0056441,68.45932
0.8431902,71.31085
0.8947122,70.048355
0.85659724,65.6701
0.79001874,63.536224
0.8077214,61.364166
0.83451164,60.370697
0.7853658,60.071747
0.8197134,59.188255
0.6825519,58.466824
0.7815681,57.856354
0.6789191,54.760284
0.72511,55.0393
0.5628151,55.6988
0.50551325,55.558136
0.44005784,56.173504
0.5118856,57.464985
0.37347,56.593037
0.45598197,59.128876
0.36602807,62.056973
0.45451877,58.49171
0.5272873,65.47628
0.4722488,67.11945
0.5230172,65.86382
0.5727878,69.9925
0.6618456,76.23625
0.8291524,77.99564
0.81139994,79.36261
0.91002655,80.26679
1.0004181,87.4719
1.1594684,89.57095
1.2042862,90.86857
1.2660317,95.60551
1.4366491,98.50641
1.4817106,100.40388
1.4823095,101.97312
1.6086689,107.35859
1.626966,110.165764
1.7219974,113.51304
1.7300744,113.27109
1.7115986,117.90622
1.7953557,118.69999
1.7737374,120.37188
1.7028638,121.911964
1.7842432,121.97964
1.8087468,122.33251
1.7169387,126.47983
1.6810791,126.4528
1.8356442,127.33107
1.7418586,128.67505
1.6616035,127.60557
1.6561227,124.51343
1.6790893,126.27095
1.6150296,128.03741
1.5763204,122.32308
1.3983022,123.06878
1.5279192,117.657364
1.4958276,120.46754
1.4662323,119.78606
1.416102,115.26507
1.3541636,116.140335
1.3414438,115.44193
1.373494,110.49399
1.3310969,109.444496
1.2639658,110.62856
1.2735329,109.35072
1.2325196,105.26924
1.2234555,103.62531
1.1653905,100.90435
1.2210652,100.1571
1.1118201,95.81534
1.2012535,96.1746
1.1238661,93.96622
1.2014071,93.82365
0.97553515,87.88236
1.0233157,90.56589
1.0906291,89.12058
0.88645023,86.592575
0.80411106,81.60645
0.7662045,83.49053
0.7032051,82.32904
0.72845674,81.085304
0.64477533,76.85635
0.57645583,75.740036
0.61532414,72.302666
0.57231855,72.97648
0.6277259,71.2587
0.51021105,68.43183
0.5922407,65.95192
0.5981638,64.08433
0.56139,60.35575
0.5559634,62.206215
0.56121486,63.05643
0.5206817,60.855537
0.46028802,59.34897
0.50739396,61.627567
0.5027163,60.68537
0.4136087,57.951305
0.35056406,55.947243
0.36523867,56.787582
0.3578672,56.689186
0.20240198,57.776253
0.21488167,57.547955
0.14960101,57.206875
0.08608859,60.55444
0.107854635,56.812458
0.1796659,59.511875
0.08718101,64.27335
0.21845555,67.62624
0.12561601,67.43976
0.31247675,70.438896
0.3449977,74.74385
0.3944121,77.24291
0.49656707,77.61451
0.5973807,83.21154
0.7658968,82.459595
0.8252756,86.83152
0.8969893,90.63779
0.9509338,96.202736
1.0582969,98.606995
1.1101854,100.74214
1.2014261,104.41633
1.2420893,104.76822
1.2432677,108.7055
1.3924212,112.26298
1.4164435,112.757965
1.4611758,118.22487
1.3747283,120.9157
1.472259,120.18207
1.5308436,124.8432
1.4971768,119.5546
1.3477948,123.65005
1.4291499,124.98904
1.3666267,127.06808
1.5385195,127.55085
1.3480636,124.89756
1.4415851,124.94688
1.4146003,126.30181
1.4023458,126.51151
1.3289434,125.03588
1.2784798,124.7356
1.3352398,127.11847
1.181892,120.70736
1.2167155,119.76118
1.1394004,123.453285
1.1227586,116.87483
1.1006023,115.99541
1.0159582,114.00501
0.9612894,113.41668
0.99895674,110.16479
1.0004078,110.57434
0.9948394,109.92049
0.97200465,107.58043
0.9383296,103.70269
0.9217645,102.99652
0.9438957,98.41993
0.91934013,95.50032
0.8787627,96.014565
1.008671,94.09202
0.8555705,95.6232
0.7045378,92.29882
0.79333514,90.10572
0.72502244,87.94303
0.60187197,88.44993
0.6707666,83.65334
0.56095403,83.54122
0.547823,80.21283
0.505092,77.76586
0.35429376,80.56579
0.49392152,78.478935
0.3600007,71.605225
0.3704619,71.1875
0.35192576,70.19797
0.32515332,70.48393
0.3476016,65.75869
0.33188677,68.9277
0.30335844,64.81968
0.36519215,62.371796
0.22864158,60.312332
0.28709722,58.354645
0.26752633,62.15703
0.21471995,58.37818
0.19229697,59.626266
0.1377181,57.79104
0.14729781,60.168766
0.16565958,56.657204
0.103080034,56.721542
0.042270277,56.249695
0.035245605,54.911964
0.015400718,58.255135
-0.16753529,60.522022
-0.07217332,59.76418
-0.015102604,59.54149
0.029107278,62.87858
0.03100361,63.848175
-0.038161334,66.8978
0.08720751,70.6918
0.18731062,70.43272
0.22203778,74.88732
0.4347243,74.49642
0.3990394,82.01126
0.591079,82.505714
0.6398247,88.40941
0.73431516,88.035385
0.86960095,95.74995
0.86810285,95.6337
0.9021235,99.89976
1.0508794,100.20693
1.1007066,106.126434
1.182453,106.75057
1.2435589,111.97744
1.2592889,112.42227
1.3725065,112.94901
1.3007966,119.405
1.3943686,118.017624
1.4101369,123.69841
1.3443792,123.87704
1.360299,125.937485
1.3084908,127.745544
1.2945807,124.85619
1.2630104,126.735855
1.3124082,123.93169
1.3098625,127.40489
1.3407792,124.53318
1.2537385,123.28639
1.2974364,126.18588
1.2551206,125.094406
1.1426398,120.62253
1.0942949,119.90054
1.2768131,119.53898
1.0549945,120.98099
1.0418097,118.26208
1.0345665,115.96221
1.0690037,115.357574
0.9753134,111.40582
0.89007586,112.056175
0.9881083,110.39782
0.9233594,109.05476
1.0020248,104.3784
0.95361054,104.58631
0.93802154,101.004845
0.8952355,98.8385
0.90013593,96.89425
0.94596463,99.12854
0.853352,96.47609
0.83766574,92.52507
0.90499425,90.03337
0.7518396,88.30123
0.6968423,87.57571
0.6137371,87.81004
0.67110026,83.48203
0.686537,83.42667
0.52900004,81.600334
0.4591682,80.397736
0.50457954,79.11416
0.39379063,77.40174
0.48412484,74.26856
0.37319988,71.63064
0.40899518,72.82556
0.4384168,69.01217
0.4267456,70.871445
0.43536198,65.8039
0.3728444,66.0053
0.40843877,66.90165
0.4145633,59.16243
0.4253172,61.968906
0.38595992,61.628
0.32463253,58.259415
0.40322563,56.582996
0.34295693,55.95903
0.32548568,56.415455
0.26605386,57.10733
0.13783006,54.685097
0.10211802,54.41145
0.15452333,57.01714
0.12490133,59.903984
0.040927928,58.928223
0.09584095,56.572014
0.05955835,59.844364
0.08375827,63.301537
0.1242545,64.81301
0.21772665,68.65062
0.27644488,67.876274
0.23216714,72.27727
0.39211383,73.285835
0.45737222,77.79712
0.5989896,82.81862
0.7029848,84.62209
0.7860392,87.08105
0.8735378,86.7682
0.944474,95.53456
1.0609503,94.322136
1.1416767,97.14954
1.2906848,99.916595
1.2979681,103.945915
1.4216855,109.51298
1.3974754,110.00339
1.457497,112.05654
1.5476059,116.78279
1.4816438,117.80018
1.5270531,117.13241
1.6134431,118.16578
1.5119449,124.54204
1.5940561,124.95303
1.5301455,124.35937
1.5907395,126.68601
1.6633611,125.83815
1.5904703,125.76018
1.5987356,127.141266
1.534396,125.85473
1.6117761,124.791115
1.5671624,121.423485
1.4380507,123.00802
1.4126222,123.71078
1.4117007,119.80276
1.3904322,120.27835
1.376344,119.18049
1.3265303,117.80134
1.3186578,114.646034
1.3337978,112.27895
1.2425648,113.16901
1.2757517,109.85462
1.2686502,109.28271
1.2389463,109.61723
1.1918519,106.58287
1.1640028,104.02296
1.228981,103.43055
1.2295195,101.31944
1.175108,98.34265
1.1728339,100.20842
1.2429695,96.678085
1.2135636,93.66079
1.1342416,91.63295
1.0734258,88.823975
1.006864,88.00002
1.0306439,87.62598
1.0101929,86.17957
0.93579286,84.53979
0.82940954,78.88023
0.7558204,80.597725
0.7786676,81.041275
0.79665434,77.2093
0.79868555,75.24569
0.73719674,74.70976
0.7194835,73.63346
0.76927507,69.87798
0.75200295,69.07063
0.69722956,64.86311
0.6581635,63.704235
0.78242636,63.374634
0.7220985,62.167934
0.6868263,62.67027
0.54230434,61.810352
0.7313792,57.771732
0.5731231,59.170193
0.6020812,57.44687
0.63218534,58.098175
0.5270465,55.153316
0.56610864,55.825314
0.43678674,58.372173
0.42408773,56.817875
0.45916435,60.21013
0.33584252,60.804077
0.34078518,58.18442
0.4532177,61.691154
0.43821892,62.117466
0.43101144,65.59297
0.5083544,67.54417
0.4784649,67.00803
0.63498735,71.043846
0.6451736,72.18292
0.7299456,79.245445
0.80381644,83.20255
0.9122177,82.664154
1.1168461,86.12513
1.1889353,89.57035
1.2072386,91.683304
1.3264407,97.90277
1.4574165,96.61272
1.5389962,101.560616
1.5661526,104.356445
1.607381,105.33581
1.748118,113.53548
1.7281464,112.64323
1.8128157,117.48228
1.8167411,116.29159
1.9082385,121.72754
1.838265,120.10187
1.8644853,121.74943
1.930658,125.010765
1.8545804,125.254105
1.8749144,127.744
1.9746646,125.00657
1.872773,126.673805
1.9000092,124.73551
1.9344114,123.977905
1.8017051,125.34588
1.7505445,123.95662
1.8212948,126.23832
1.7601386,122.81636
1.8004832,122.05504
1.6357839,120.8758
1.6723626,120.25394
1.6567199,117.83758
1.5201751,115.11252
1.5536048,115.063286
1.4925687,113.12496
1.5382828,113.626076
1.4794024,111.61996
1.5089139,109.60431
1.4598837,108.08028
1.5107518,105.549736
1.3743275,105.570114
1.4817191,100.57954
1.4568104,98.13714
1.385746,94.59088
1.3603877,95.55503
1.3810706,93.13984
1.369431,93.11791
1.3465075,92.30675
1.2962061,90.131134
1.2166702,88.347404
1.149447,84.96399
1.1813592,85.851074
1.1804914,79.02152
1.115378,81.2982
1.0053777,78.89584
1.0293117,77.77022
0.92509395,73.616936
0.9116086,75.65299
1.0155112,69.72639
0.9327847,67.00065
0.8860535,68.35531
0.9486918,64.848206
0.92086166,66.61315
0.9927105,60.534378
0.96567714,62.3884
0.9215357,59.897923
0.9324445,62.297462
0.9161979,58.48689
0.9916434,56.615128
0.8583808,55.901245
0.87866503,55.353573
0.80822146,56.072754
0.7295378,56.8862
0.6743177,54.635883
0.6056943,58.401203
0.5651195,58.152653
0.6473757,59.648968
0.59121513,58.668816
0.45576155,64.83755
0.5662203,67.26139
0.59682304,65.74542
0.528551,67.92421
0.6286724,67.346886
0.6358779,72.10101
0.817055,72.588554
0.8877258,77.10822
1.0018622,81.06945
1.0589051,80.959785
1.0184569,84.42698
1.207611,86.6471
1.3275139,90.32518
1.4384418,94.97077
1.5405086,96.76797
1.6809894,101.66663
1.7268692,102.95954
1.8328844,107.59309
1.7886025,106.51567
1.7793825,112.777756
1.8832659,114.7553
1.8486767,116.35213
1.9357498,116.88534
1.919167,122.28052
1.966581,123.59252
1.9933428,121.66918
1.9856952,122.026855
1.8778454,123.87299
1.9231082,125.46429
1.9769824,125.71343
1.9804448,127.43713
1.8942627,126.089554
1.9841602,123.7866
1.8400817,125.9386
1.7972711,123.19839
1.8051058,126.3914
1.6933956,121.40734
1.821957,119.95537
1.6633927,117.865105
1.6718285,118.62853
1.6512681,115.18479
1.5249791,114.49407
1.5201657,114.28103
1.471818,109.80166
1.462335,111.034515
1.5277721,105.66458
1.5158802,104.57832
1.4964701,104.248474
1.4582344,104.62417
1.2998163,103.20335
1.4620746,99.1617
1.3950895,99.163734
1.3197187,97.62303
1.427123,94.02486
1.357247,90.38324
1.2915121,90.67181
1.1693308,88.86619
1.1551921,90.62013
1.1184561,87.06136
1.1284797,82.22826
1.0187956,83.91398
1.0315857,78.04161
0.93474096,82.23312
0.90353936,75.80864
0.9641236,78.6972
0.82160234,76.218834
0.8381125,75.176125
0.8808372,72.49529
0.85590947,69.11588
0.82073194,67.8071
0.83766615,63.663044
0.7921879,62.005116
0.7627155,63.618744
0.74847215,61.90138
0.75211525,59.480446
0.7088122,59.713013
0.69305253,57.369743
0.7160616,59.880924
0.6558433,57.56005
0.6657565,54.41923
0.6402635,58.015217
0.632938,57.24758
0.48570186,56.889553
0.44652063,57.519554
0.39201197,58.939423
0.4140443,57.085102
0.34911096,63.102066
0.33383036,62.525314
0.40783283,64.842354
0.3517054,67.68087
0.53503853,67.294365
0.47890922,69.60615
0.61723524,73.51637
0.6835064,76.75651
0.7980619,78.06984
0.87142444,81.63587
0.9283487,83.142654
1.0532221,86.77591
1.1377668,88.95847
1.2723907,95.16762
1.284193,98.78744
1.3968834,101.46086
1.4702984,103.75938
1.5035727,107.52339
1.4966629,111.18705
1.5670453,109.424355
1.6409216,110.92162
1.7164793,116.17778
1.6646402,121.251816
1.6793959,123.49072
1.6937029,123.88231
1.7223884,124.59881
1.7662208,123.03785
1.712462,123.47357
1.8260993,127.80896
1.717324,125.54417
1.6162628,127.74287
1.6831335,125.68073
1.6596453,126.08703
1.6080956,124.880806
1.5135127,124.39987
1.5201352,124.02132
1.4561801,126.12235
1.4197755,121.487335
1.4695792,122.68094
1.368012,119.8691
1.3290825,119.042946
1.2939122,114.53219
1.3102518,113.19811
1.2111515,112.62459
1.2561941,111.22642
1.2068965,106.29115
1.222278,106.40003
1.2004515,105.008064
1.1143519,103.85127
1.1613649,103.528015
1.1527824,100.39352
1.1649557,96.32987
1.0867466,96.76317
1.0679575,95.224976
0.9709513,93.80625
0.92129296,92.69944
0.9815922,90.874565
0.87220097,87.84858
0.83969283,85.437584
0.82334995,86.508804
0.665744,82.297676
0.7392847,79.988174
0.7002479,79.1893
0.687006,77.90489
0.63136363,75.46801
0.5935991,75.8497
0.5737316,72.48539
0.48552784,69.87084
0.49153835,67.299614
0.6634725,63.257267
0.54285425,65.58063
0.6266275,62.03785
0.4771282,62.406906
0.47915924,60.139442
0.47193813,61.520447
0.45420954,61.58803
0.44089064,58.86903
0.3796852,56.76016
0.4249378,57.921642
0.24797165,54.964565
0.27906668,58.552773
0.24348737,56.9703
0.20304537,60.18374
0.09148893,57.127644
0.12651801,56.71395
0.06700758,59.959137
0.009642275,62.42556
0.058739383,63.322193
0.11336813,65.28128
0.104683496,64.6658
0.18902364,66.45301
0.23964597,69.71779
0.34524703,72.128235
0.3507231,74.906136
0.39816904,76.50527
0.4913444,82.043655
0.55505574,85.10838
0.7206882,85.701454
0.79257953,92.423515
0.82067835,93.88482
1.0644766,97.18349
1.0833262,101.369705
1.2190775,105.53273
1.2724912,106.937454
1.2813482,108.56805
1.2443053,109.92119
1.2973378,112.15964
1.343247,112.05202
1.4464713,117.477554
1.5141759,120.0909
1.4112073,123.791916
1.3859433,117.26839
1.3965247,123.94092
1.4808475,126.92106
1.4646846,128.94081
1.4047669,130.44527
1.3403591,126.48105
1.3538136,128.39748
1.3617032,127.021454
1.2885771,127.267
1.2803452,121.52571
1.2783861,126.05897
1.2591566,122.96286
1.2001523,122.40164
1.1680459,122.00674
1.0734603,121.30262
1.0721433,117.693855
1.0174884,116.57593
0.9520984,114.045654
1.0250185,113.702385
0.8958159,110.54744
0.97907,108.55285
0.91981757,109.10797
0.9542322,106.26753
0.99648774,105.34261
0.96217436,101.883575
0.91987324,100.00731
0.9022396,97.79947
0.8078579,95.88449
0.81643635,96.226265
0.76163906,92.851524
0.7919715,91.537865
0.76790583,90.216225
0.7196532,89.14083
0.7382511,87.567245
0.6398753,85.83899
0.5499932,83.17129
0.5048594,79.41224
0.50861424,79.61358
0.5217286,80.229385
0.4034561,77.8278
0.4089221,74.44784
0.35231042,72.31934
0.34092107,74.29173
0.23836018,74.33821
0.27698496,69.138626
0.22124794,65.4512
0.26944825,65.529175
0.2986461,63.51444
0.3147882,61.11305
0.2867339,61.1022
0.27667865,59.87533
0.3182591,58.36233
0.28540757,56.48807
0.37526333,55.653976
0.20332111,55.056725
0.15763018,54.6815
0.09882262,56.638187
0.07169683,55.28442
0.00091320666,57.340546
-0.05953746,57.867382
-0.13486263,58.58901
-0.10742773,59.44434
-0.063904285,61.537365
0.020680929,65.52885
0.027123773,66.07734
-0.07512646,66.36063
0.056152336,69.90537
0.19660202,70.647606
0.20972131,74.79178
0.3311375,79.208244
0.37658352,83.4325
0.44152635,83.666145
0.65529203,85.065575
0.719973,91.07382
0.9366358,93.320175
0.91231877,99.345856
0.94037807,98.34022
1.0582741,100.67737
1.1599469,104.414474
1.2066115,111.257225
1.1933554,109.3089
1.3496064,115.27037
1.3507144,113.812004
1.4040408,119.52234
1.3713914,117.789734
1.3870234,121.47355
1.3821629,118.64204
1.4341334,124.65596
1.4369603,121.630066
1.4140468,123.87823
1.3238586,124.923676
1.3565772,127.82926
1.3309616,125.38508
1.2807444,126.90173
1.3051944,124.90682
1.2933017,121.682724
1.1643378,126.75703
1.1904223,127.399
1.2505018,119.56271
1.1807156,119.08563
1.1693248,122.94458
1.0802261,119.63303
1.0352985,115.510216
1.1120121,114.75227
1.08976,109.775215
0.97887474,109.38235
0.99601495,108.39795
0.92999214,110.281265
1.0131832,102.39929
1.0490566,106.171295
0.940921,102.16529
0.9751106,103.207664
0.92748785,100.476
0.9764614,99.73645
0.8754177,98.433136
0.92754316,92.656746
0.8322989,96.34677
0.81960315,91.97408
0.81053466,86.88349
0.8176775,87.48704
0.7880439,85.6876
0.6597383,82.59502
0.6273196,85.16785
0.55231714,81.51387
0.4098605,78.40439
0.49298492,74.74305
0.53746384,78.51223
0.45675987,70.971504
0.47888523,70.672745
0.3755947,70.768105
0.44208765,67.83151
0.47650278,66.91439
0.44793063,65.97827
0.4065794,63.710865
0.46310735,63.02053
0.45023817,61.463814
0.44557267,57.666443
0.46040538,58.268444
0.4006596,56.52433
0.40675664,59.475594
0.32387432,56.567905
0.29658556,56.761555
0.2945569,59.230785
0.20959775,57.62287
0.12678698,56.411594
0.23701599,55.430576
0.20228845,56.79656
0.19007966,61.01627
0.13649198,60.107468
0.16044882,60.124985
0.18024369,63.873814
0.23949252,65.75323
0.2980827,68.21206
0.34132954,70.66374
0.34337568,71.90754
0.42961672,76.2742
0.54946595,79.9381
0.67608535,82.18921
0.8307343,85.899086
0.8419773,88.312515
1.0851727,91.814674
1.1258469,96.68618
1.1640574,97.32239
1.2659514,103.18588
1.3236235,105.783646
1.385135,109.38788
1.580208,109.98625
1.5347843,111.64642
1.5467333,116.60479
1.5569218,116.49219
1.5860177,120.337654
1.6061221,118.278404
1.557177,124.218704
1.6061884,123.30372
1.6518321,127.65914
1.6840736,126.21015
1.6386089,125.42653
1.6620506,126.22348
1.5262095,126.70917
1.6028767,127.73333
1.5168546,123.71363
1.6901838,124.92186
1.5855334,122.80637
1.5844373,123.355995
1.4400539,121.71743
1.5052534,122.64902
1.4215436,121.08205
1.4128342,115.69368
1.4123679,115.345856
1.3529153,114.023994
1.3158737,114.07224
1.3048966,113.00506
1.3889896,113.21233
1.2482815,110.45998
1.3637444,108.29455
1.3369075,107.4755
1.3597767,102.14102
1.2535207,103.097595
1.2333266,103.81388
1.2659459,97.31357
1.2375784,98.66842
1.2442805,95.65986
1.1473362,92.47499
1.1319664,89.7564
1.1551151,89.67935
1.1796008,89.668564
1.0987391,87.109924
0.99465764,84.38943
0.9552989,83.0893
1.0165784,82.95511
0.8923416,78.27086
0.89699423,78.39267
0.7907719,74.38608
0.6631091,72.37677
0.78204125,72.21901
0.8577022,67.50934
0.81786925,70.14451
0.7700728,65.45983
0.8112343,66.78899
0.85170037,64.24237
0.83993083,63.64706
0.78440773,60.978798
0.7738198,59.490997
0.71938133,61.445786
0.7272693,57.53988
0.7261762,54.376816
0.70798576,53.477264
0.6758733,58.31552
0.6559481,56.431976
0.5011141,55.988132
0.53912234,57.795242
0.40301657,59.1539
0.44494465,58.294765
0.36031193,60.20811
0.34229523,58.627384
0.44270182,61.84529
0.47693688,63.94702
0.4753857,65.63229
0.5393891,66.548546
0.7209634,69.7329
0.69818795,71.46473
0.8609343,77.72323
0.85634357,78.98331
1.0154418,78.474304
1.0625197,86.63387
1.1766732,88.535194
1.2806801,89.3147
1.4039118,97.19106
1.5680821,97.05976
1.5343264,98.842255
1.7491348,102.223915
1.6944948,106.423676
1.7151196,107.04443
1.8301978,112.55484
1.8386883,116.21693
1.8408747,117.095245
1.9001017,116.69498
1.8782692,122.772644
1.9234388,122.76047
1.8351605,122.272095
1.945507,124.144745
1.8666987,126.755356
1.8771044,126.86194
1.9039277,123.2021
1.8412713,124.30053
1.8673816,126.054504
1.9374198,125.87333
1.8274082,126.33084
1.7443802,125.81632
1.7383684,124.68968
1.6974562,124.00731
1.7258891,122.367546
1.7003813,117.449394
1.641134,117.66777
1.602181,116.53576
1.6118616,114.61641
1.5774847,113.40608
1.5252627,110.62949
1.4530064,110.4259
1.5184978,107.739334
1.5258795,106.899605
1.4921794,103.302475
1.5281157,101.81466
1.4639139,104.22065
1.43732,100.42915
1.436719,100.79418
1.3522243,96.40213
1.4056096,93.57899
1.3361102,91.89202
1.3568412,90.725
1.3238865,91.12805
1.279797,87.546585
1.1935625,84.6465
1.132116,83.10085
1.1749564,81.98989
1.0797511,80.5503
1.0853429,74.97254
1.1005782,77.51071
0.96071965,76.16641
0.9402946,71.40093
0.8958661,74.82386
0.87487227,67.860535
1.0151676,69.200264
0.9351441,68.09893
0.89310235,66.930176
0.90678805,62.051376
0.8539281,63.35179
0.9072632,60.998066
0.96637344,61.42779
0.83847576,60.929913
0.7654927,60.22887
0.8335103,57.938564
0.82975674,58.401627
0.7301316,57.510612
0.70907015,53.71119
0.65430635,59.205494
0.6432204,55.993416
0.5172866,58.777283
0.6167387,59.91725
0.48974535,55.564358
0.43187064,59.58693
0.44331238,63.8639
0.5347962,63.882954
0.6193066,66.76388
0.6535744,68.56187
0.71626496,70.44317
0.76601166,69.39896
0.83296293,77.63472
0.91747904,79.201996
1.033487,79.72358
1.0335455,85.57088
1.2037573,86.713745
1.2789075,91.40927
1.3585063,92.714935
1.4509308,96.17135
1.5599487,102.03061
1.5985856,103.74822
1.6986959,103.873314
1.7724028,108.508545
1.8364748,113.797676
1.8382436,114.35594
1.7709863,118.982414
1.9007692,116.796074
1.9048804,121.82324
1.9348409,119.298965
1.8871173,122.05113
1.9633588,124.52245
1.9221066,126.14688
1.9709203,126.70293
1.9724588,126.46559
1.9213505,126.20812
1.8633872,127.17657
1.7982738,125.43067
1.7759086,126.25873
1.7842569,125.963745
1.7441831,121.11524
1.7303463,121.597145
1.6765168,120.270805
1.6734248,119.60824
1.6590148,118.80656
1.5693442,119.30618
1.6228107,116.94304
1.5128129,114.64355
1.5106298,114.878876
1.4481373,110.77195
1.4821489,111.29568
1.4292608,107.83049
1.410446,105.35914
1.3099769,102.766624
1.3592027,106.8431
1.278626,100.75168
1.3742815,98.493706
1.3833557,97.13682
1.2629294,97.28128
1.2649037,96.42259
1.2601504,92.33297
1.165225,88.78069
1.1997877,88.25308
1.1834298,86.69437
1.0745434,83.75708
0.98770535,81.034386
1.0165629,83.2146
0.89024687,77.90215
0.904709,77.95998
0.90466446,78.04987
0.877358,76.17542
0.77002233,73.19542
0.76724344,71.3082
0.7312579,69.60856
0.76875037,66.50074
0.7238221,69.968025
0.7780331,65.703224
0.71517587,63.243294
0.7504471,61.780907
0.6376518,61.043472
0.7814282,59.31548
0.71487147,58.703026
0.6331257,57.096638
0.61275136,57.139435
0.565828,59.368416
0.54678124,59.201153
0.47984543,57.15716
0.5280604,56.527813
0.4536426,57.447872
0.4257817,60.363575
0.38784483,60.75096
0.34443954,59.24265
0.33513546,64.25272
0.43229547,63.069134
0.2735904,67.29204
0.45282543,67.86273
0.49640992,69.26762
0.53268814,71.574715
0.5417215,77.68838
0.6957732,79.662315
0.7576117,81.28713
0.8447057,84.920746
0.99107164,88.96727
1.174508,89.07291
1.1074134,93.45903
1.2013376,99.0405
1.2434179,101.04085
1.3690344,102.27206
1.4432076,105.70361
1.5431138,108.560905
1.4516052,113.23732
1.4825066,112.33116
1.5895911,117.02339
1.604712,119.60645
1.6460245,116.87431
1.6233422,122.31984
1.7023629,125.396095
1.7012802,124.723656
1.5891693,123.81426
1.6696043,124.86113
1.6045631,126.231125
1.6333007,125.38018
1.6590362,126.48625
1.547949,124.25614
1.5840286,122.968575
1.4965754,122.75426
1.4812559,128.19867
1.4535941,124.7221
1.3080866,121.34348
1.270983,118.483154
1.3042395,119.9567
1.2018632,117.25077
1.2677997,117.59226
1.2627388,115.93295
1.1790045,110.613335
1.1568886,112.19317
1.181741,110.08637
1.0203298,106.9789
1.1209587,105.62352
1.0895202,106.38464
1.0951685,99.36018
1.0231401,102.0777
1.0750874,99.705215
1.0097733,96.573944
1.0094616,96.36321
0.9503906,94.501396
0.9980816,90.18338
0.829765,90.98517
0.86296946,86.46008
0.7983883,85.62978
0.7528577,85.146385
0.71813935,82.85092
0.7193332,83.54931
0.5733195,80.07328
0.6265608,75.69971
0.49144,75.89458
0.5495204,73.93022
0.4648758,73.79663
0.49988824,69.06511
0.43379247,69.26778
0.47866008,68.44647
0.44476345,65.96339
0.4030567,66.57183
0.5831849,61.390785
0.49058804,63.138565
0.46928754,60.416008
0.4146766,58.159103
0.36268735,57.235645
0.37923226,58.034744
0.29894033,57.267433
0.36505714,55.11596
0.20582817,56.142544
0.27762,56.894485
0.08785047,59.333504
0.11379621,56.875004
0.12534793,53.20247
-0.016392706,58.466206
-0.04992199,60.14781
0.05195966,61.510826
-0.07375957,60.09324
0.08979624,61.09599
0.06638107,67.898415
0.1567204,67.76529
0.27206326,70.63612
0.23197049,74.30634
0.42076027,76.64013
0.35533425,78.83465
0.46910962,82.28383
0.7024472,85.06496
0.802372,89.748314
0.91767704,93.266045
0.86541694,95.71217
0.9848031,100.311386
1.0533777,101.425446
1.1752957,105.444214
1.1695306,108.915436
1.2562131,113.22164
1.320597,116.03459
1.328745,114.7189
1.3625396,118.61679
1.3687156,120.75841
1.4898208,121.40579
1.3755573,120.97937
1.4106637,123.61639
1.3653296,126.013504
1.4283118,123.42044
1.356374,126.40169
1.4277035,127.03337
1.3585798,128.88368
1.3694968,124.16796
1.2694416,125.78779
1.2908717,122.24123
1.2504563,124.26649
1.1811665,123.56318
1.1479862,123.44357
1.0959158,118.840866
1.0374833,121.20035
1.0850329,119.502396
0.99880487,118.082054
1.0472264,113.61472
0.9231095,112.019005
0.97602534,110.87682
0.9399734,108.59479
0.91857713,107.25127
0.89310837,105.944336
0.9370679,102.13021
0.8730111,101.427284
0.9220973,102.42102
0.9183517,97.95487
0.86752594,98.933784
0.8346533,98.41381
0.8529082,93.12101
0.7427746,93.50748
0.78175575,91.34392
0.7004618,89.01279
0.71223426,89.19319
0.57860976,85.304855
0.55958277,83.25044
0.51642996,79.362495
0.33219653,83.40419
0.43927416,76.7506
0.36561945,78.50886
0.42735574,75.61065
0.31828746,70.71561
0.35792437,72.22227
0.31452456,70.04965
0.39111695,65.7262
0.38920087,64.8262
0.35407516,67.32314
0.43261257,63.143764
0.36830902,63.371365
0.26514325,58.801865
0.39723894,57.776386
0.3425171,56.135395
0.27254048,57.48332
0.24885176,56.91176
0.16232179,55.30737
0.16388746,56.936317
0.05861463,54.064568
0.03370382,58.233074
0.019722007,58.415695
-0.0006082668,58.352146
-0.069124326,59.09636
-0.04684623,62.266293
-0.061216205,63.032978
-0.06428338,57.11886
0.02841455,64.79345
0.0879753,64.31248
0.09240995,69.44727
0.20054887,73.58341
0.22754452,73.31216
0.32949087,78.4831
0.3982132,77.428474
0.59813285,82.94275
0.61293405,86.89016
0.77291006,88.96681
0.8279248,92.335365
0.840549,96.806625
0.99572027,95.770966
1.1155959,101.27952
1.1483643,104.64089
1.2115972,107.4995
1.2015921,108.55517
1.2417955,111.79908
1.2497345,117.26456
1.3538194,117.35593
1.4405317,118.07474
1.3906251,119.701294
1.3909357,122.42933
1.4768957,123.91782
1.4362382,125.240425
1.4811432,124.74268
1.4114827,121.45591
1.3904002,125.44609
1.4260426,125.90402
1.3292308,129.98145
1.4183099,125.16094
1.3597225,126.85719
1.3279523,123.822266
1.3077799,123.55393
1.3143883,123.281494
1.2187533,121.64497
1.1161216,118.79236
1.2004497,116.42569
1.2602587,119.78722
1.048851,114.40603
1.0866939,112.35017
1.0967039,112.048
1.045671,110.54231
1.0806462,108.60064
1.0538795,103.85849
1.0340313,104.981995
1.0076104,102.52368
1.0551548,101.55864
0.9499004,100.73267
1.0532705,98.35422
0.9996727,97.08899
0.9579294,93.95047
0.92104465,94.06772
0.9432286,91.63622
0.7625066,88.70348
0.8807589,87.03867
0.7394447,87.911255
0.6739177,80.10929
0.69965994,84.034424
0.595219,80.70292
0.63219386,77.03524
0.6445302,78.051674
0.5366737,78.02612
0.5145589,72.231415
0.503159,71.52339
0.45991358,69.94836
0.4152391,69.145584
0.56386137,66.52808
0.57182896,63.6501
0.6288136,62.193974
0.52980125,61.549366
0.34939522,59.412918
0.49371004,60.113712
0.49910092,58.547768
0.40914834,59.165344
0.48131058,56.92097
0.33312184,57.200752
0.32926866,56.721794
0.31673062,56.22002
0.2638844,56.979755
0.24930835,57.28684
0.23003767,60.124992
0.20824936,58.629753
0.12626678,60.362484
0.2298857,59.637745
0.21406074,62.280613
0.24345133,64.351555
0.29567584,68.44689
0.2504223,66.97424
0.3767873,70.677055
0.38688654,70.26645
0.5802243,74.01992
0.61054426,77.09582
0.78681076,85.170906
0.85964745,84.18038
1.0037194,89.82678
1.1118376,88.16202
1.1799183,91.065735
1.1945388,98.12938
1.291269,100.9713
1.3231093,102.89963
1.4582119,109.31363
1.5366442,108.5284
1.546111,113.39696
1.6097777,115.87668
1.6405201,116.63385
1.6730971,119.553276
1.683615,121.61805
1.7375869,123.197586
1.7850375,124.32559
1.7335984,124.287766
1.6359017,124.14726
1.7282602,128.2241
1.7237716,124.959885
1.6951697,127.7566
1.6567328,124.67116
1.5749494,125.72684
1.6033716,126.12564
1.579441,122.27271
1.576367,124.550186
1.58918,123.97767
1.5057702,122.20602
1.4972734,123.24974
1.4470438,117.20826
1.4545064,117.491615
1.3713156,116.183846
1.306964,111.75243
1.3549411,111.054245
1.3871676,109.559784
1.4139031,109.941345
1.27812,110.207146
1.3316178,103.362915
1.4189726,103.08868
1.3176508,100.66157
1.2549886,97.88458
1.3293017,98.45919
1.2335528,97.255806
1.2889584,94.64032
1.1576327,93.66189
1.2634481,91.65916
1.1804943,92.02278
1.2004925,86.53816
1.1730961,87.17974
0.9862822,84.48885
0.9754831,81.816154
0.94644666,80.10331
0.9602061,77.7862
0.9020495,76.07746
0.8665445,77.09115
0.8521276,73.05491
0.8631607,72.07024
0.88895845,71.13646
0.89225805,69.727036
0.7929887,68.90917
0.76412475,64.32633
0.8260058,66.54497
0.7637419,62.07166
0.8295288,59.67077
0.81792927,61.23192
0.8717053,56.650425
0.78735006,58.963894
0.7139601,58.21288
0.6907049,56.93997
0.6916953,57.72108
0.5515235,56.388996
0.5607625,56.287987
0.4751187,58.15511
0.5707183,54.926228
0.48958644,57.888447
0.484241,57.313038
0.4421832,63.98365
0.5499963,62.074856
0.5929924,62.071068
0.57233626,68.548775
0.68216294,69.51719
0.6287414,69.43889
0.76330054,72.246155
0.7615741,74.88085
0.88418186,77.98816
0.948183,81.28792
1.0225508,84.84581
1.1188779,89.86281
1.3498565,91.62949
1.444599,92.59969
1.4849144,94.14656
1.525574,99.21112
1.6329986,102.42203
1.7526368,103.909645
1.7762474,109.76016
1.8235264,111.415665
1.8470545,115.66776
1.8395164,117.05358
1.9294709,118.32553
1.9261279,121.93135
1.9653336,124.75067
2.031755,122.58632
1.8970289,123.3566
2.062878,125.164536
1.8324857,127.38232
1.9630786,125.284225
1.9404005,124.85069
1.8507565,126.62416
1.9012489,124.569595
1.8932718,122.53535
1.8489612,122.27007
1.8421305,122.5879
1.8919743,123.89144
1.7801762,122.90136
1.623839,120.45262
1.7051148,117.90115
1.5681752,118.77158
1.5581583,115.83304
1.6640333,113.77951
1.5693367,113.91555
1.5717442,111.22306
1.4773748,111.081024
1.5272175,107.141846
1.530899,105.43558
1.5190403,104.070114
1.4785595,102.77239
1.5198783,100.20262
1.4803767,99.174515
1.4300374,94.05505
1.3365229,97.78288
1.4010955,94.26129
1.4391873,91.31819
1.270498,91.809235
1.3081077,89.89659
1.1599072,86.51935
1.1407465,85.81811
1.1366175,84.46257
1.0518408,80.500595
1.0636003,79.32431
1.0984073,76.426575
1.0064305,76.88231
1.0066258,74.56212
0.9612847,72.32602
0.8712309,70.54783
0.94175416,71.18444
0.9880295,64.57784
0.8895401,64.20168
0.85311383,64.56616
0.9321156,64.67352
0.88223475,64.1716
0.89683086,62.68358
0.87824345,60.95284
0.8352342,56.781193
0.73195595,56.91355
0.84502983,58.73511
0.7492321,57.848427
0.72726893,58.827747
0.60458326,56.980186
0.59722817,56.864784
0.52249026,55.517593
0.521277,57.61927
0.60853595,61.028603
0.51158917,57.48966
0.49105227,60.022846
0.47641164,64.71806
0.50715095,68.23872
0.5562808,71.96711
0.678225,67.162636
0.7096787,71.360176
0.8295291,73.21054
0.8913288,77.97211
0.9558535,83.06149
1.1003456,84.169044
1.1208296,87.64407
1.2701724,91.510445
1.2805523,94.16556
1.4502435,94.70895
1.5752957,98.137276
1.591876,101.77368
1.6371938,104.66312
1.6989789,105.20023
1.8018773,110.68371
1.83813,113.877785
1.8607455,113.999626
1.8126016,117.96532
1.8349135,120.66459
1.8911406,121.99537
1.888081,122.25117
1.8258692,124.24271
1.9956568,126.68386
1.9279685,125.24032
1.9273756,126.149925
1.9192828,125.09805
1.8117157,125.179535
1.7498237,124.46091
1.8253014,125.57747
1.737353,125.55836
1.5979106,127.49401
1.7188591,120.8411
1.6086793,121.004875
1.614745,120.27267
1.5571742,118.82596
1.6804968,120.85872
1.5222214,117.50195
1.4705963,111.497375
1.4155289,112.24475
1.4542676,109.89707
1.304545,108.68622
1.4242799,105.403275
1.3854303,101.32525
1.3852895,103.75692
1.379497,104.05335
1.3384455,100.90079
1.2158847,100.16992
1.2782465,97.76597
1.3251224,95.87367
1.4056685,95.084625
1.1329049,90.44231
1.2171503,91.933846
1.1512344,86.87848
1.0827137,84.97031
1.1610119,82.85764
0.89429975,81.116
0.89883626,82.44988
0.94660693,80.10264
0.7253307,78.63835
0.7999511,76.952995
0.7245056,75.57512
0.82639354,70.33954
0.7465615,72.53112
0.6722224,71.726494
0.6496572,68.41515
0.71078473,65.64265
0.7339896,66.235374
0.6793271,61.463604
0.7027729,62.129185
0.69016105,60.86953
0.6914551,60.227932
0.567176,58.14352
0.48173994,57.327747
0.53327173,59.461987
0.50214654,56.855785
0.5441788,57.566936
0.42845312,56.741077
0.43691522,56.720886
0.35183808,56.85821
0.32690716,59.060627
0.26511306,60.431877
0.18850224,59.610123
0.12102681,61.38242
0.19369291,64.1088
0.3348762,63.141598
0.34477842,69.78451
0.40622684,68.04445
0.45987648,72.22157
0.45921686,76.325714
0.5829616,75.13988
0.7585515,79.056625
0.6952491,86.13992
0.8861662,87.38497
0.96993077,87.38145
1.0240864,93.70353
1.1759237,96.09687
1.2900611,102.051056
1.2932228,103.6749
1.2843014,102.42609
1.3818355,105.27658
1.4051161,112.43072
1.5340669,113.74003
1.6132501,115.554634
1.4848508,114.77861
1.6126175,119.53198
1.6028333,122.73032
1.54606,124.116486
1.5397232,124.47783
1.5568339,124.55598
1.4902157,126.07511
1.6649954,127.23711
1.6097823,125.27273
1.511704,126.62062
1.548445,126.46967
1.414142,123.76502
1.3934107,125.42367
1.3162891,123.95835
1.3314396,123.14908
1.2410427,121.34584
1.3570405,119.668915
1.2400578,118.34358
1.2821862,118.610115
1.1442574,118.67324
1.2719932,116.59179
1.1130984,113.21902
1.0421581,112.30967
0.98310894,108.03006
1.0237911,111.62895
1.0252589,104.23327
1.0300231,104.56696
1.094697,101.3478
1.006174,98.82331
0.9853495,98.513535
1.0301926,96.224106
0.9953846,95.55692
0.9433384,94.368195
0.930957,93.09685
0.7792905,90.45236
0.8641728,84.59807
0.8307131,86.23181
0.6576417,85.646225
0.5887186,88.04519
0.60091376,82.44553
0.58800703,80.54889
0.48622817,78.867584
0.5287635,75.99061
0.49385446,75.25939
0.46330702,73.03905
0.38506722,71.13966
0.44275784,71.34651
0.36620745,68.43105
0.50500184,66.15044
0.4031655,63.55278
0.41757083,66.02321
0.35091498,59.514744
0.3680548,60.649178
0.3208884,58.54166
0.42918962,56.92189
0.3645259,58.467247
0.25136176,56.05422
0.21734692,57.857407
0.21887618,56.516357
0.21515732,56.322247
0.06801947,58.09041
0.122519806,58.456272
-0.0026324238,56.364784
-0.019386493,56.75375
-0.02361589,61.067608
0.043806896,59.26964
0.009447088,62.288937
-0.025330426,62.18164
0.1250774,70.26918
0.105837,70.8581
0.1366316,71.652245
0.2829584,73.118225
0.24008606,76.67781
0.40898657,80.51205
0.48256037,81.78514
0.6391743,87.29924
0.80700463,88.42616
0.78302693,91.028595
0.90511984,95.625626
1.0317053,97.836174
0.9773103,102.00174
1.0522091,101.38651
1.2035196,108.11448
1.0997361,107.78173
1.1667125,113.29434
1.2834848,115.90985
1.2991402,116.43198
1.322911,119.05617
1.3591558,121.67287
1.3869262,123.75718
1.3264462,121.65224
1.3595656,125.04419
1.2872331,128.99771
1.3317746,127.51272
1.2980561,124.87819
1.2147276,125.955376
1.3025645,125.63558
1.2558197,125.50133
1.1872802,127.766205
1.2761385,127.85694
1.2651896,124.523224
1.1526922,122.50149
1.1722456,124.65378
1.0737303,120.39358
1.102075,121.29702
0.9788757,118.31247
1.0169673,116.259636
0.98928934,114.6754
0.9442643,114.65873
1.0586716,108.83306
0.9198758,106.710075
0.9223321,108.023964
0.9070756,107.0704
0.8770946,104.29772
0.89894885,102.33119
0.9687228,96.63562
0.91632223,96.798004
0.89143145,95.42191
0.80119324,93.13573
0.8382381,94.8289
0.7709958,91.55091
0.68002856,89.887924
0.71523905,91.32622
0.676995,83.25207
0.66809916,84.7902
0.5086786,84.05739
0.44253716,82.76172
0.41122964,78.16589
0.39314333,74.9259
0.4090129,74.378075
0.42074472,73.27235
0.41357088,72.3213
0.28987312,70.262886
0.40276933,68.12979
0.3803161,64.77999
0.3982884,65.351944
0.36209622,63.259567
0.44552645,65.27134
0.36520597,61.18386
0.36316168,60.271458
0.28486076,57.60156
0.26324925,57.388916
0.28969693,56.96793
0.27598405,57.841526
0.19520386,57.25093
0.21697548,58.47745
0.14899097,54.866005
0.07092796,56.20362
0.0034496642,57.157116
0.14842737,57.542133
-0.0059098224,58.374893
-0.0037978333,62.90511
0.030351972,61.624405
0.019592693,62.76695
-0.011679839,69.42299
0.07087684,66.97023
0.2818786,72.69258
0.240612,74.662025
0.3985873,78.58976
0.4243772,77.37359
0.5328878,79.62621
0.6811339,89.01431
0.80116457,87.580055
0.84397715,89.48766
0.8586855,97.13015
1.0022913,97.344025
1.0833309,101.00742
1.2062844,105.106384
1.280227,105.99982
1.1925681,109.9336
1.4176651,110.43792
1.389511,115.04269
1.454269,117.464615
1.4397682,119.820076
1.3282145,119.9609
1.4080876,122.3926
1.4758031,123.40652
1.4809002,124.20556
1.4938188,126.42468
1.441491,122.34203
1.4014813,127.50257
1.4541081,125.21437
1.4933534,124.54096
1.460436,126.99917
1.4595715,124.12491
1.45376,124.28361
1.3273481,126.441086
1.3294636,124.79518
1.3013188,121.01527
1.3035128,121.94707
1.1395195,119.824585
1.1987987,116.57467
1.2008251,113.86177
1.1752362,115.64253
1.125759,113.441124
1.0958304,112.07216
1.1764351,109.8819
1.1359328,105.943275
1.0644405,105.46041
1.0804658,104.78456
1.11113,103.31802
1.0173157,99.53899
1.0426894,96.4764
1.0182128,97.84853
0.8944669,96.08149
0.9958711,91.3612
0.94378424,92.83585
0.78810585,87.83842
0.86612374,86.49835
0.8425135,88.63725
0.8439774,82.69699
0.8042308,83.54989
0.69200814,82.12445
0.7130321,77.01239
0.6376441,79.503426
0.6314067,73.94727
0.52300566,71.22982
0.5397166,72.81669
0.5832797,73.13598
0.54919636,68.349556
0.5416322,66.165886
0.5265099,65.355804
0.6180703,65.840324
0.5084889,62.88502
0.6236217,61.402576
0.54616904,63.10112
0.550211,59.42427
0.5354256,59.425724
0.49031228,61.08928
0.4593854,57.903603
0.41049263,57.50817
0.45016372,54.39798
0.36129013,59.155582
0.35096446,55.384586
0.37873307,58.62634
0.3036038,56.227966
0.26002884,56.580376
0.20354775,61.46764
0.28978637,60.990387
0.2415019,64.926735
0.4109904,66.18243
0.38156494,68.65302
0.44824484,68.779366
0.52396894,71.53781
0.58126694,74.75172
0.6968649,81.30935
0.8443659,83.89234
0.8706539,85.41751
1.0375934,86.548744
1.0231329,89.701614
1.1328114,93.95527
1.2333211,96.06212
1.3829765,99.32051
1.4103473,101.67939
1.4314637,103.89109
1.6451455,109.082985
1.645572,114.165764
1.5957408,116.07621
1.63978,116.41609
1.6926303,119.13995
1.790315,119.14804
1.7644519,119.941284
1.7327926,124.353264
1.7183808,125.21411
1.7298771,123.67085
1.7629546,125.86927
1.7292935,125.59539
1.732115,123.8191
1.708949,124.3204
1.7391984,127.36742
1.6915863,125.93208
1.71123,125.26905
1.7002003,126.34461
1.5859164,124.029434
1.5846505,121.93688
1.6079998,121.10086
1.5594599,120.111145
1.4415592,118.91814
1.4554291,118.88089
1.3527492,114.5464
1.4807491,113.28699
1.508856,110.75629
1.4339659,112.64139
1.3452677,107.59366
1.4115516,107.31726
1.438436,100.514114
1.3417467,101.939735
1.3110323,101.28319
1.433688,99.88209
1.2609932,94.44859
1.403456,92.07398
1.2744526,93.63458
1.350324,92.80104
1.1546199,88.47475
1.180209,88.03153
1.0698645,85.985886
1.14964,86.29276
1.0081216,82.53593
1.0713431,82.529686
1.0199505,82.15483
0.94840693,78.89038
0.9227701,75.29213
0.86964536,76.28052
0.914905,70.53144
0.8633027,73.10676
0.8528667,69.415436
0.891734,68.65581
0.88965315,67.49521
0.95538926,66.12456
0.8870674,64.93935
0.8506696,60.758224
0.84189826,61.891277
0.8048339,56.185898
0.7562964,57.739506
0.85713166,58.593647
0.8740726,55.802048
0.7573501,54.93559
0.64975566,57.539864
0.68418837,52.1829
0.577371,55.00266
0.60152763,55.683697
0.55267054,59.627697
0.5815068,59.060425
0.5467549,61.429207
0.5082154,63.514393
0.50952727,63.728176
0.5482412,62.766106
0.5502742,66.05236
0.71093225,70.89215
0.7226604,71.67797
0.8078349,73.912155
0.9008099,79.62712
1.025402,80.93351
1.0681694,82.73842
1.2217641,86.50907
1.3473966,90.14765
1.3800741,92.90305
1.448825,97.33904
1.5181859,99.03544
1.7048913,103.292114
1.7553728,107.08072
1.7917532,110.65729
1.8680766,113.1643
1.8801264,115.464264
1.8123878,114.7444
1.8673487,118.74195
1.9809433,118.04297
1.9663217,122.49846
1.9987568,121.35415
2.0071578,120.0187
1.9855201,125.680916
1.977843,124.27648
1.9244186,127.631165
1.9327148,124.80032
1.8503028,127.01409
1.9259105,122.6745
1.88605,125.861496
1.8596898,122.28666
1.867879,126.43276
1.8352262,124.20709
1.690599,121.40376
1.7985021,119.601845
1.777357,118.44825
1.5975976,115.60586
1.6768981,115.840065
1.536308,116.81266
1.504943,111.348854
1.5683453,111.30695
1.5562437,108.2274
1.6179483,108.606064
1.5105155,104.598755
1.5426513,102.62359
1.5357453,105.14363
1.5025408,100.192345
1.3621576,98.692245
1.5247276,97.91991
1.4811975,95.68685
1.3476444,93.16589
1.3865076,90.89365
1.370482,90.4287
1.309075,88.83207
1.2800303,88.395905
1.1011006,85.143814
1.058638,83.235054
1.0218339,80.78986
1.0724907,80.660164
1.0376289,76.72526
0.8803436,79.55983
0.95084983,76.69273
0.9057633,69.73916
0.933642,73.33662
0.97132134,68.332596
0.8640151,67.41518
0.88101447,63.66593
0.96447414,62.464355
0.8899047,64.62629
0.8703478,65.352936
0.8759842,59.58622
0.8706588,60.64034
0.8987368,59.837666
0.76678467,60.081398
0.80538994,59.21697
0.8295805,57.747044
0.70100725,58.26071
0.6867934,56.550117
0.62427086,57.4579
0.52039117,55.967537
0.47371894,56.586304
0.40410247,60.52598
0.50163954,59.47144
0.4676621,60.5829
0.56041104,63.4624
0.5781292,63.159554
0.59260565,68.092674
0.6167575,70.30269
0.73271054,72.10718
0.6832368,74.41961
0.84066856,79.089676
0.8999536,79.13464
0.9684009,82.63967
1.0282472,90.11593
1.1746833,92.630226
1.2401392,94.466194
1.3725917,95.913734
1.534629,98.55836
1.570533,100.19759
1.5790126,101.73558
1.6615765,106.512436
1.7349861,111.28563
1.6936975,114.96136
1.8336785,116.74304
1.7772266,116.88497
1.8598297,119.24891
1.8000807,117.97875
1.8069385,126.93984
1.7458189,125.99193
1.8337365,124.86622
1.8683482,124.91253
1.8402505,126.56558
1.8118875,125.04963
1.778523,127.40266
1.7918699,124.710266
1.6839144,122.02448
1.798446,124.23004
1.7945088,124.55995
1.6456414,123.90643
1.5581198,123.08978
1.5572032,123.63593
1.5486038,120.38155
1.5676925,116.84463
1.4823524,115.1881
1.4454162,113.7939
1.4142851,115.85011
1.3039145,110.49424
1.3443778,109.53637
1.3389192,109.600845
1.2472997,105.71469
1.3279206,103.79027
1.2807413,102.02058
1.2656616,104.23957
1.2274154,98.44323
1.2397454,94.56538
1.2704018,98.29792
1.2012206,94.72216
1.0903426,92.44604
1.0646899,91.60325
1.070055,90.34539
1.0934368,86.88695
0.9379282,84.4508
0.8997824,83.841805
0.9001792,85.699554
0.79724133,81.59923
0.775197,79.70967
0.7401525,76.64207
0.7065358,76.75754
0.7385042,73.24402
0.5477597,71.29806
0.625898,67.372055
0.63742816,71.32153
0.673824,67.89922
0.65374154,65.28869
0.6517226,63.972897
0.7003357,61.28866
0.5940379,61.790306
0.60887575,61.982685
0.5387973,58.96225
0.4767066,57.488594
0.51870495,57.458256
0.49493125,56.484917
0.420342,56.610874
0.39495248,54.223087
0.3228857,55.99669
0.27462357,59.010124
0.26936096,56.764626
0.25875723,58.997345
0.1653007,57.8158
0.21800853,61.893383
0.13318685,62.763218
0.18855721,64.5344
0.23251168,68.54566
0.3006238,69.626205
0.32754588,70.43308
0.4275247,72.73716
0.55336326,77.963005
0.5637599,81.36729
0.6499358,82.94045
0.7431245,81.90436
0.8907328,86.93858
0.9750785,90.44147
1.1257831,96.7253
1.2161722,98.98945
1.1957184,100.62233
1.2228637,106.187744
1.2664677,109.699036
1.3826572,109.551735
1.4491419,112.35798
1.4538255,114.132416
1.4837807,118.33295
1.459727,117.55704
1.5703266,121.432106
1.5249317,121.88915
1.5472643,122.70127
1.5746825,123.62724
1.5095626,122.691315
1.5629613,128.98541
1.5264876,127.11006
1.4927341,127.01604
1.45925,125.15054
1.377578,129.28413
1.3290563,123.83285
1.3555653,124.74897
1.2876732,123.271545
1.256976,119.74257
1.2233418,123.95612
1.2514024,119.88482
1.1360848,119.60182
1.2475177,115.42269
1.0927006,116.937584
1.08915,115.93837
1.1442382,112.87282
1.128476,110.61015
1.0626867,106.68457
0.990467,106.94857
1.0496067,103.581345
0.96580577,102.81776
0.96426225,101.78912
0.938885,97.21197
0.9585759,99.37372
0.8103291,98.98537
0.90577555,92.76525
0.93261313,91.612206
0.8582682,92.50421
0.7093878,88.27975
0.66381055,85.278244
0.77602786,85.41979
0.69512963,84.80319
0.5946724,84.4459
0.5447558,79.802185
0.4888044,79.18865
0.53095245,78.34199
0.3685498,76.23835
0.4051549,73.07669
0.41954646,71.75399
0.47566098,72.56286
0.31835878,70.53606
0.37239337,66.42946
0.38006884,69.02416
0.42647636,61.241676
0.30248508,64.30263
0.36363947,59.793476
0.27247366,60.726433
0.27234966,59.441605
0.25014666,62.095867
0.3031418,56.637783
0.15522568,58.068745
0.24154782,57.393585
0.110123314,54.381
0.111059524,57.499195
0.058173575,57.47034
-0.0034099559,56.278454
-0.04356806,59.846367
-0.07054916,58.046608
-0.0067534214,62.905388
-0.0739875,61.579037
0.03821457,63.16237
-0.104072504,63.35647
0.07786498,67.09066
0.109734565,68.57978
0.21283096,71.386055
0.30282816,74.89246
0.36742643,78.045166
0.4447469,83.305145
0.53631544,85.49448
0.6690454,86.50114
0.7965554,92.43059
0.9081562,95.74576
0.9856748,97.25416
0.99535334,101.137115
1.1420482,100.42793
1.1066785,107.029465
1.2364004,108.26735
1.2520938,109.27927
1.2312355,113.892426
1.291393,117.57063
1.3863283,116.6743
1.3551371,122.21632
1.3876982,121.039764
1.2894953,124.73659
1.449389,124.60747
1.4153451,125.30924
1.4481448,127.90617
1.3352469,127.09761
1.2511688,124.28684
1.3490773,126.3481
1.4255233,122.76172
1.2916628,125.564575
1.258678,125.9069
1.2370596,124.77404
1.1664026,123.48955
1.2275007,122.06484
1.10326,119.71742
1.0913703,119.26292
0.9652702,117.42501
0.943803,114.603966
0.9448839,114.573044
1.0203001,115.12497
0.9366789,111.949356
0.9400365,111.53092
0.9129912,104.16712
0.86339533,106.20273
0.98923343,103.51068
0.98228943,100.54328
0.8454314,95.78016
0.8607735,96.37553
0.90104055,97.84234
0.86229706,93.19571
0.7756163,92.764275
0.6608992,92.28948
0.7859252,88.61168
0.72119254,88.87556
0.65788347,87.34212
0.63964814,83.06749
0.51577866,82.13779
0.5419433,78.34936
0.49324235,79.2715
0.48478103,77.66228
0.3914399,76.82189
0.41047463,72.62774
0.38794848,74.921936
0.29091132,71.72325
0.36651188,68.94463
0.37466377,67.882034
0.35424086,67.12388
0.41336775,63.67436
0.30659902,60.641987
0.33296877,60.543358
0.4234727,62.770367
0.2652941,58.03056
0.28206408,57.644493
0.24318415,57.117237
0.2671571,57.699505
0.25171843,58.11362
0.1945522,54.825764
0.07882629,57.717136
0.21340546,54.959698
0.16661705,57.479763
0.07417894,56.66088
0.011088133,58.70507
0.023765245,60.033813
0.0441932,61.716557
0.03401983,62.045967
0.1670825,63.567764
0.117446266,68.35454
0.15737417,67.577034
0.29776928,70.70656
0.29060742,75.76039
0.4439188,79.77963
0.53617203,80.55913
0.64987075,81.82107
0.8164885,87.08892
0.8416384,89.01543
0.8747078,92.40374
1.0179889,97.4378
1.1516665,99.89802
1.2428509,101.59866
1.2754124,106.12811
1.4000514,109.8188
1.4202365,108.82049
1.4201859,115.83216
1.4267164,118.48515
1.5433581,118.23563
1.4899147,118.38123
1.5208747,122.06669
1.5830604,121.812294
1.5021061,121.15207
1.5570862,124.12856
1.4261266,122.788345
1.5996733,126.927925
1.4380841,124.90266
1.4921417,125.592705
1.4964288,123.75775
1.4652535,125.765274
1.4497075,126.416954
1.3236791,125.49714
1.4349388,121.35299
1.3180571,120.97197
1.2782319,120.84381
1.2260932,118.195
1.2718855,115.5594
1.2737957,113.680275
1.2395732,114.16437
1.2072004,113.041275
1.1439433,109.361
1.2139366,109.934006
1.1384702,108.6439
1.1156657,103.59888
1.0565087,106.597374
1.1337547,102.50387
1.1699324,101.894966
1.1263832,98.32772
1.1080025,94.9974
1.1092476,95.388435
0.9904301,91.01922
1.0644035,91.85211
1.0624293,90.096504
0.9961266,90.57062
1.0177689,86.506
0.7109751,85.16117
0.8323467,85.93926
0.7725198,82.6284
0.68663436,80.44146
0.82554954,79.78971
0.66013104,74.25285
0.62264276,76.62875
0.71488696,73.33932
0.7357187,70.73921
0.68940735,69.52158
0.68165153,67.72171
0.665324,64.13458
0.584411,63.59781
0.6907567,61.769543
0.69880134,62.872887
0.693919,60.81421
0.56543773,60.12683
0.54973227,56.48077
0.58500606,60.264687
0.5050234,54.33243
0.52631456,57.92477
0.5077917,53.72845
0.42675218,57.884037
0.4429065,59.529118
0.31710416,54.137825
0.4317557,57.81168
0.34453604,60.02991
0.412612,60.675724
0.3740092,61.002495
0.35103232,61.017994
0.46796736,65.95837
0.46902952,66.336105
0.537115,68.868195
0.5846679,71.15305
0.67301303,75.814926
0.6633234,74.734695
0.73320264,81.917595
0.88919497,81.29052
1.04079,86.26528
1.0016361,91.71291
1.2263101,92.20001
1.3421246,97.95017
1.3948268,99.89554
1.5622385,103.50233
1.4699631,106.264595
1.5956388,108.64971
1.6584157,110.92452
1.6407756,113.8243
1.769646,117.73365
1.8697612,115.304756
1.752271,117.99216
1.8780681,119.039986
1.7872939,123.84323
1.846686,124.28933
1.9059784,125.84376
1.8318006,123.496414
1.8222067,123.96753
1.8049189,125.90746
1.7944763,128.04195
1.8330576,125.5543
1.7536546,125.04395
1.8675895,125.81667
1.7217747,125.74286
1.6952281,123.45774
1.6901249,123.01328
1.6696702,121.776306
1.6692808,120.93173
1.6080956,120.84173
1.5853652,116.39446
1.5188353,117.625786
1.3680016,115.39879
1.4513073,110.250175
1.5042006,109.59284
1.4887402,109.55067
1.4960735,102.17705
1.485999,106.46424
1.4171698,103.30471
1.4026619,100.269684
1.2879153,100.01956
1.4476565,95.19634
1.3423755,93.428375
1.373427,94.9571
1.3199428,93.74377
1.2094471,94.120834
1.22723,85.71906
1.1606768,89.6318
1.2103846,83.446434
1.17228,84.7838
1.095419,82.3285
1.0629698,80.315125
0.98265606,77.18175
0.9977048,75.649445
1.0020788,74.29159
0.87545985,74.026184
0.87694365,68.431496
0.8738628,71.064735
0.8811389,67.73617
0.9337486,66.37813
0.8218973,65.34038
0.91400087,60.578056
0.90865344,64.454025
0.97755057,58.865944
0.8372248,59.634834
0.80295545,58.309574
0.90917647,58.099117
0.8327836,60.09695
0.8002714,54.587456
0.75983787,58.79278
0.7261499,53.93148
0.7264231,58.449574
0.6543193,58.834476
0.60805005,59.59462
0.6023904,59.55553
0.56878257,60.442677
0.4829696,62.145977
0.50892633,63.241722
0.46034482,63.52097
0.60963064,64.806274
0.65150094,68.7617
0.837391,72.40433
0.83391726,73.78784
0.88193333,73.6486
0.99616134,79.17374
1.1108546,81.40473
1.2883545,84.464264
1.2401968,88.20233
1.3411692,93.04664
1.4726778,96.54072
1.6786867,98.09679
1.6555092,101.11358
1.700571,107.24879
1.779338,106.152214
1.7597144,111.87414
1.8716768,114.77826
1.8630377,114.07284
1.8622788,116.9823
1.899309,120.02504
1.8820206,118.75864
1.936085,119.82021
1.9409115,122.55206
1.962702,124.10888
1.8524165,124.82654
2.0406091,125.56876
2.0043337,123.19964
1.8672736,126.261406
1.8685294,128.3715
1.8814505,126.30484
1.8915821,124.320656
1.8027741,123.26462
1.8119746,123.92121
1.8067449,125.87292
1.7363642,120.35077
1.6437366,120.4317
1.6684397,117.0346
1.5757327,114.35093
1.5516208,115.912994
1.6727328,113.091385
1.633841,111.37356
1.5234015,109.70644
1.4712032,107.47877
1.3740937,104.82153
1.4995089,103.43247
1.3611532,103.475555
1.4523253,100.28577
1.429678,101.102936
1.4607507,97.505554
1.4343727,94.71491
1.3667009,93.20718
1.3558168,92.38164
1.3359784,91.31954
1.2748609,90.744606
1.1878332,87.35473
1.1130316,88.699265
1.1902399,83.790695
1.008934,84.561035
1.0083439,82.36576
1.0427109,79.88818
0.9968039,74.53475
0.9116864,74.06519
0.88580734,74.90093
0.9667011,74.04273
0.7960053,68.33785
0.8907114,67.24041
0.8561536,67.98647
0.8060802,66.31035
0.84496754,64.85956
0.7493001,62.2591
0.9343237,64.03403
0.7964266,62.513103
0.7811971,59.834476
0.81727546,55.885006
0.6865943,57.941204
0.7570645,56.107407
0.69355416,56.27221
0.5448469,57.797707
0.5792915,54.206535
0.5832882,56.185253
0.50595945,57.03746
0.5160959,57.75817
0.41416973,61.793846
0.4029899,60.338116
0.38594222,63.745342
0.43258017,61.860924
0.40644836,66.53598
0.5615147,67.95216
0.6277583,71.0787
0.7000358,72.88576
0.7627383,78.37602
0.79731494,77.33278
0.9855712,84.08999
0.9597486,84.43056
1.2017664,89.28332
1.1957818,90.17011
1.3641942,94.616554
1.4306227,95.034
1.405195,99.762146
1.5669975,101.88034
1.5460602,107.30225
1.5406283,108.73756
1.6500483,110.37028
1.6851786,113.39155
1.7802008,117.71498
1.7606827,119.87848
1.8168712,119.87121
1.7891655,122.196655
1.8235195,123.192154
1.7635862,123.06343
1.7120504,126.41422
1.7336898,125.71322
1.7761453,126.83356
1.7300127,127.3325
1.6969037,124.41164
1.6636488,128.35428
1.6697956,122.859116
1.6524993,122.41928
1.6076903,122.235596
1.5564988,122.57411
1.4503356,121.96881
1.4814084,117.733055
1.428847,120.241455
1.3136204,115.203575
1.4300332,112.528046
1.3176187,112.7574
1.3006696,111.33984
1.3019068,111.00935
1.2657591,109.43831
1.2992971,107.06204
1.3326186,105.48462
1.1675078,106.22895
1.1748184,102.175255
1.197889,98.76327
1.13867,98.71499
1.1018347,94.77308
1.1417534,92.41472
1.1123246,95.44207
1.018465,90.48735
0.98705584,89.483055
0.8862306,85.66857
0.9621924,85.05827
0.880984,84.76599
0.8881138,82.19424
0.77161837,79.91689
0.748072,80.866005
0.6940135,77.33647
0.59200937,74.37221
0.5738906,74.68653
0.57648116,72.187195
0.5619239,70.49309
0.553151,71.867455
0.624294,68.11504
0.56281716,64.54728
0.5372873,62.92223
0.60964787,61.726635
0.5810036,64.370865
0.53764963,58.44999
0.51427686,60.06457
0.4235166,58.59632
0.4702334,57.41066
0.4239854,59.10138
0.42045134,55.94551
0.34619802,59.67377
0.28415647,57.325245
0.22615388,57.25549
0.13461234,57.51908
0.21155152,57.6285
0.14994521,57.89706
0.14792353,60.268406
0.11390556,64.39827
0.098197535,62.881325
0.21478717,65.846176
0.23506984,70.85854
0.3372155,69.64848
0.39513606,73.75161
0.40799978,72.922455
0.5913656,80.57031
0.6817226,82.633896
0.67954797,82.25103
0.84355706,88.56355
0.92064977,92.19402
1.0405102,95.575096
1.1083752,95.965866
1.1585065,100.24387
1.1444995,106.05924
1.3048822,108.13922
1.3002737,109.296074
1.3134422,112.91318
1.4816657,112.472115
1.4381651,120.126976
1.4532129,119.86704
1.4619256,121.21363
1.4543861,120.41409
1.4679626,124.7695
1.4962268,125.367676
1.3919103,127.02361
1.460079,124.880974
1.4144895,127.098236
1.4439936,123.56311
1.4210616,128.58487
1.435472,122.41346
1.3606107,124.91245
1.266023,125.05493
1.3286963,124.36961
1.2826473,122.65056
1.2497699,118.796524
1.229188,121.05801
1.2109817,117.527176
1.117822,118.434425
1.076971,114.52575
0.9821326,115.12913
1.062354,114.02974
0.9862736,110.28098
0.9872577,106.63818
1.0081929,109.0313
0.99297446,106.59674
0.9310255,104.17171
0.92788976,102.48378
0.9654259,98.883606
0.9587443,100.282936
0.8717205,97.53855
0.9393203,93.850426
0.8152612,93.22116
0.782022,91.269485
0.77046764,89.11961
0.7186696,84.830246
0.6637321,85.20672
0.58555025,82.97602
0.56095284,81.921715
0.5145776,79.22985
0.5213617,77.99521
0.40578225,79.28697
0.4754694,77.21728
0.43706164,72.84911
0.36646777,71.863304
0.37371746,69.48863
0.380317,67.31309
0.32174662,67.708176
0.31695035,66.320724
0.3758809,66.455635
0.33292106,63.483124
0.24396344,62.276672
0.28251216,60.327087
0.24608213,58.21067
0.28762805,60.178783
0.29713762,58.228474
0.18887423,54.744934
0.2510465,58.344444
0.27886623,57.061104
0.1427247,54.569286
0.1245031,53.093216
-0.030837074,54.353752
-0.0553549,57.508865
-0.08095363,61.250244
-0.028198017,58.81877
-0.090620786,60.03436
-0.039680403,62.045216
0.0014972498,64.65783
0.038351048,69.450264
0.06615279,70.00841
0.2677746,70.34023
0.27647573,76.12475
0.33328927,80.415115
0.43623114,80.6929
0.48257652,81.915565
0.57120085,86.86659
0.6928069,89.67514
0.8176803,93.53675
0.8660276,95.82174
1.0079699,101.11557
1.0191802,102.81045
1.0568944,106.06213
1.1873597,109.03153
1.2752666,109.83845
1.3378302,114.29867
1.4050328,114.52011
1.3181587,118.092545
1.3650752,118.59019
1.3704791,120.27613
1.411817,125.54651
1.3470128,124.8181
1.460678,126.8918
1.342024,124.57544
1.3566127,127.59715
1.3232619,126.74583
1.3510045,123.33669
1.30695,127.513794
1.2937665,126.182655
1.2605187,125.302124
1.2883221,123.5662
1.2662605,124.94878
1.2330275,118.89122
1.1184992,119.64529
1.1102246,117.40332
1.0459985,117.57655
0.9650318,115.81792
1.1056741,113.7724
0.98696643,111.667946
0.9864008,108.55549
0.9903946,112.38101
1.0298599,107.862785
0.92372733,107.64202
0.9447881,101.55162
0.8355684,105.69288
0.9061642,102.12211
0.92486244,99.89732
0.83354515,96.14779
0.87597144,97.491714
0.79845524,92.99537
0.79732555,90.69808
0.7684118,89.10662
0.7347354,89.838104
0.6031766,85.05366
0.7067868,84.43155
0.6556271,83.454605
0.5742097,80.952896
0.48509803,79.587524
0.45301914,78.613174
0.43470493,77.80594
0.42467123,72.68942
0.52234596,75.38247
0.53402835,72.88868
0.513302,68.14009
0.30755022,65.07754
0.40302008,66.40401
0.52711064,67.33501
0.38442877,65.08856
0.47191405,63.00761
0.4564785,58.659332
0.4003102,59.376667
0.40117127,59.54858
0.28876954,55.960552
0.28754324,59.96742
0.18119666,56.565865
0.2711781,54.557804
0.27138224,56.980293
0.18064642,56.24954
0.12176301,57.839474
0.07559491,60.582787
0.07411595,58.57325
0.08303137,59.580093
0.11636582,60.967735
0.054260887,63.326366
0.095283166,65.543945
0.07609868,66.08892
0.24938443,71.86813
0.35052148,73.12489
0.35986608,74.95768
0.52079463,75.95957
0.6310622,80.01413
0.6226793,85.21581
0.72119504,88.36043
0.90359074,90.136826
0.9311574,90.40886
1.0923413,98.596306
1.2307185,97.82181
1.1901734,101.859665
1.205048,106.30931
1.407178,105.18797
1.400682,108.58211
1.530916,115.0349
1.5515671,112.02778
1.5503218,115.74558
1.5006864,118.21176
1.6488848,122.59018
1.5917096,123.15912
1.4681363,125.082146
1.6124502,127.99653
1.6136824,125.18348
1.5402076,123.715324
1.5286782,123.64452
1.6192946,130.68149
1.5545024,123.07764
1.4805878,126.756744
1.4643745,123.12374
1.4468467,125.006325
1.4856403,123.01001
1.4385965,124.93655
1.4845095,118.39795
1.3166703,119.50749
1.2254876,116.36339
1.3491464,114.60765
1.2566805,115.865814
1.2593682,112.04206
1.21207,109.2017
1.2908442,110.27287
1.24507,107.821846
1.2200155,105.211395
1.1589444,104.45897
1.1627252,103.88658
1.1727855,100.79984
1.1261657,100.08502
1.2382476,99.44813
1.0811881,93.81595
1.1452183,92.85499
1.1295942,92.79522
1.0739146,91.531944
1.0846996,88.79753
0.93176305,88.27034
0.95067984,85.507355
0.9296573,84.775734
0.92012465,78.86821
0.8393519,81.4878
0.787371,78.28436
0.7568256,78.83826
0.7504676,75.27021
0.73628026,71.88531
0.64678085,69.52086
0.6838753,71.7822
0.6446388,66.932526
0.683406,64.6919
0.73927087,66.563995
0.62225366,64.84213
0.755258,65.046776
0.6860115,58.939007
0.74228954,61.363068
0.6613556,58.872337
0.70009744,58.942
0.6254055,56.86939
0.64297295,56.39352
0.55963635,55.80007
0.5308973,55.89123
0.48187786,54.26853
0.52589405,57.7947
0.3636875,59.224632
0.40915343,59.08997
0.42706245,60.7266
0.31200665,62.914555
0.46166748,62.556053
0.4254091,63.655663
0.4614104,65.61385
0.5169355,71.09789
0.49987236,71.86293
0.6175519,75.079155
0.8113582,75.12265
0.8210842,80.019196
1.016877,85.469086
1.0213053,87.71435
1.1646808,89.27658
1.3233931,94.0246
1.3264008,96.25069
1.4201473,96.025665
1.4969606,100.968216
1.5259273,106.713684
1.6870176,106.263855
1.6671425,108.96832
1.7046041,114.865395
1.8249162,113.7231
1.8092214,119.676735
1.8319076,121.24416
1.8625649,121.11559
1.8507822,121.51678
1.9405495,126.24602
1.881324,126.222
1.9244182,125.96845
1.8891237,123.875496
1.859366,124.099724
1.8846811,127.48119
1.7781935,123.64987
1.7351961,127.71018
1.8181192,124.58249
1.7335765,123.16809
1.7458048,123.242195
1.7110685,123.21692
1.7759682,121.037445
1.6707066,119.8148
1.5855998,122.62948
1.517402,116.74676
1.5353507,114.24983
1.5871135,109.32101
1.5172044,113.83914
1.5006464,110.74282
1.472292,109.67749
1.4940419,104.96269
1.4762379,105.51469
1.4235479,101.7306
1.4586949,99.9738
1.3868555,101.134445
1.4257706,96.00501
1.4842812,96.26885
1.4075694,97.37762
1.3247235,95.34645
1.3279421,92.549416
1.3184332,89.723915
1.1749307,88.28895
1.1925825,86.17054
1.1632749,84.142365
1.1770651,82.044235
1.0689691,79.2686
1.0708195,78.020035
1.0171546,75.341705
0.9887442,78.88875
1.0116122,72.93864
0.88631946,70.12007
0.9140448,68.458015
0.9665161,67.97736
0.90434057,67.88763
0.9415912,66.41497
0.96970874,62.75706
0.8344598,58.618675
0.9879629,61.300186
0.91013604,59.529663
0.97044504,61.138165
0.83364254,57.325157
0.853586,55.33124
0.8021126,56.564587
0.81504816,58.074135
0.7764569,55.47372
0.6339448,59.165348
0.617141,56.20328
0.57225287,56.953068
0.62661415,57.0189
0.6178416,59.87154
0.64284587,60.451622
0.48669,63.780945
0.5557577,61.085403
0.5624439,65.098595
0.69520164,68.84995
0.65990984,72.24938
0.7697647,71.687744
0.8547539,76.860634
0.94973993,80.26994
1.0509145,79.744835
1.1780101,87.81121
1.261049,88.69834
1.3402414,90.364395
1.4703494,95.76666
1.4405565,95.10637
1.5515538,102.118645
1.6725123,103.16369
1.7365673,107.46913
1.7880201,111.388985
1.8638742,113.30112
1.9167047,113.48908
1.9579828,115.04531
1.9066986,115.44117
1.9173203,121.891396
2.0401847,121.53025
1.9238069,123.97892
1.9489088,126.43079
1.9553739,121.92346
1.885423,126.7607
1.9151446,123.534805
1.9735776,126.164116
1.9612669,125.525
1.8188596,125.88051
1.8458507,124.44652
1.7755365,126.04476
1.798346,121.31471
1.7927709,122.12232
1.6562234,121.11771
1.7208147,118.899536
1.613836,119.25412
1.5463303,118.44414
1.5194561,114.72306
1.5258311,111.58952
1.4974511,112.737144
1.4686663,110.29257
1.5312524,109.02876
1.4329839,108.71763
1.4135362,104.116394
1.5124276,105.65205
1.4651331,106.17415
1.4756703,101.098946
1.460656,99.59392
1.3874207,96.07743
1.3238506,92.7273
1.3553939,89.84169
1.2623978,92.233185
1.2321707,89.858925
1.189384,89.42923
1.0433922,83.26675
1.1638926,83.891624
0.9752374,79.34969
0.9737882,82.88745
0.91595566,77.25308
0.9403448,78.0852
0.86382574,79.367836
0.9030348,71.78964
0.7976344,73.2301
0.7981393,69.12571
0.78305006,67.40847
0.8684698,67.568436
0.8965209,64.26366
0.816221,63.462894
0.8306797,62.967335
0.87796974,61.743015
0.8856286,66.51087
0.7141512,58.11481
0.7366101,57.679893
0.66779625,58.794518
0.61951,57.824028
0.5639,53.455753
0.71169925,57.07343
0.5191703,54.321575
0.5047209,56.42599
0.47975042,58.159317
0.3423732,58.87936
0.27008113,59.094902
0.43827072,60.422756
0.29942262,61.735065
0.37850943,64.06033
0.41326103,68.949165
0.39355648,71.91581
0.55990404,70.06902
0.62402964,69.84263
0.7384968,75.02288
0.71475697,79.48536
0.8140499,81.799255
0.84883064,85.84568
1.0752916,87.86737
1.1397129,92.40021
1.2326491,97.30809
1.3347961,96.61248
1.4099714,102.485855
1.4535052,101.5097
1.5179029,105.316765
1.5418842,108.148254
1.5734527,113.48886
1.6396662,116.140396
1.6363657,114.79552
1.6586868,117.9677
1.7650228,119.19772
1.7204833,121.54293
1.725072,120.557365
1.6955326,125.566475
1.6827825,121.78158
1.7591432,126.2265
1.7544595,125.50483
1.6926988,126.2068
1.6403359,126.823166
1.6114566,127.38511
1.6454026,124.86128
1.499522,125.94632
1.4899373,124.88763
1.4876679,122.89406
1.3537929,123.78267
1.4533536,118.707596
1.391432,119.16878
1.3135742,117.3643
1.288608,118.00806
1.357233,113.724945
1.2826426,114.013016
1.1285228,112.08825
1.2272017,109.851944
1.1501904,105.80267
1.2764056,105.31596
1.2049025,102.25657
1.151161,102.37303
1.1295462,100.61655
1.1462202,98.62775
1.0690486,97.15087
1.0552708,94.69941
1.0440508,92.456894
1.0078765,92.10688
0.93669516,87.20062
0.9166873,87.494385
0.9020162,88.48687
0.77954644,84.18762
0.68688637,83.21561
0.77910334,82.796715
0.6451636,81.948906
0.6801485,79.02262
0.60497797,76.77461
0.5761338,76.214424
0.47210357,70.95745
0.57678723,72.80357
0.546836,68.59383
0.49377775,69.099556
0.41976097,64.1621
0.4691499,63.1104
0.5453222,62.502453
0.35411775,63.9999
0.56468093,59.068645
0.36659884,60.16804
0.3441075,59.858948
0.45763803,57.05373
0.3277804,54.295433
0.26544678,54.914722
0.28249976,56.174744
0.30971047,54.185825
0.09961334,58.05839
0.08887109,56.496372
0.08462574,57.53382
0.09506702,60.852394
-0.008633807,59.80963
0.10939927,62.350952
0.066271976,64.15067
0.14847875,67.466194
0.14501914,66.63314
0.22606759,69.3795
0.27263564,74.109634
0.3898865,71.5142
0.4939099,75.97726
0.4728287,81.54601
0.7001673,84.51442
0.7058829,85.44173
0.867018,92.9608
0.95934343,92.049
1.0322176,96.47227
1.0567931,100.40242
1.1481684,102.75292
1.2527283,105.15882
1.2783368,110.482254
1.2826146,112.72748
1.3623581,110.3298
1.451498,115.11974
1.3611724,118.60238
1.351238,119.916214
1.3583146,122.40379
1.536707,124.89985
1.4247007,125.457886
1.4030001,126.64203
1.4512085,126.13256
1.4051757,125.80919
1.414725,122.88628
1.311435,125.572105
1.4272622,124.12464
1.3519504,124.95494
1.3696246,123.369736
1.2670015,122.03685
1.2019083,121.695366
1.1702616,123.49887
1.1172494,121.328636
1.0804185,120.406
1.034751,117.8064
1.07084,118.23953
0.97367173,117.30927
1.0394871,113.9472
1.0244566,108.551865
0.95281684,109.70737
0.90386283,107.66435
0.9219703,106.765594
0.8918412,100.57463
0.9533577,103.86414
0.9647086,100.27679
0.8009743,97.59568
0.90543914,97.39794
0.853229,99.46079
0.8419133,94.70241
0.79769814,91.517944
0.7092949,88.32872
0.68511146,88.70454
0.71421236,88.26258
0.49171174,86.11227
0.54869825,85.275764
0.5374995,82.85704
0.343594,79.37326
0.37774664,80.01902
0.42309007,76.02806
0.3823773,72.98741
0.4355369,75.67649
0.3694599,72.44606
0.30146754,72.05822
0.23550789,69.23315
0.3046487,67.13418
0.3100531,62.35418
0.32879305,64.82934
0.28321484,62.275806
0.3474753,62.155434
0.29611433,58.816883
0.31828845,56.40658
0.27925602,58.100433
0.3328741,56.433437
0.1736986,52.658386
0.20195495,56.908276
0.11292495,56.486122
0.027232287,57.950813
0.053771395,55.37124
0.04836922,56.34561
-0.12968457,62.268444
-0.059452422,57.82047
-0.00798169,62.78856
-0.12566096,64.91315
0.001971676,64.99797
0.07241743,68.084335
0.09378691,68.701935
0.15519817,72.518166
0.25856027,73.48044
0.28529617,75.53865
0.41520056,80.572075
0.51014143,83.69323
0.6568598,85.506134
0.69940495,88.9444
0.7476551,91.27337
0.947938,94.67189
0.9740768,97.534485
1.0205625,99.90545
1.1431675,106.680214
1.1229182,108.61063
1.2738537,107.57391
1.3364562,111.708
1.3357954,115.597855
1.3914196,119.19658
1.3542414,119.16341
1.3222682,118.58558
1.3865527,124.40411
1.4586312,124.5127
1.4380747,125.0945
1.3079534,125.590454
1.5293652,124.90895
1.3797069,127.23208
1.4428829,125.104225
1.385529,128.82152
1.3288219,124.63718
1.336537,122.0294
1.2538204,124.938705
1.2632071,121.98183
1.1568524,123.72491
1.245114,123.36114
1.0979546,120.30945
1.2026308,120.87788
1.1398962,116.08001
1.0364987,115.57049
1.0115833,113.566444
0.99406105,109.619225
0.9718751,112.06182
0.9956304,110.13649
0.96980464,108.156784
1.0453408,104.46069
1.0323758,102.20467
0.9577894,100.621124
0.9083894,101.43431
0.9320703,99.22519
0.95258856,96.2502
0.92202985,97.371155
0.94493544,92.902916
0.8494792,90.00762
0.792122,88.6577
0.73642325,85.58612
0.7012852,86.57108
0.6488314,84.69612
0.5775864,80.348724
0.5906819,79.48899
0.5457126,80.28721
0.5492104,79.47313
0.5318609,77.17376
0.38654003,73.83166
0.41414478,69.60277
0.4558474,70.36958
0.42534065,70.325584
0.51125,66.01974
0.47073036,66.3306
0.4340399,62.293198
0.38927448,61.836014
0.47404483,61.84846
0.47714433,61.961998
0.47300622,60.968132
0.41600454,58.18658
0.42856926,57.585945
0.36714363,57.52497
0.39142314,57.414753
0.26668212,54.86205
0.26877204,55.111843
0.20885228,57.88142
0.16106433,57.52825
0.2314843,59.732864
0.13924511,61.461937
0.089577705,60.40976
0.1617653,63.418777
0.1452122,66.14486
0.24429655,68.90712
0.26042983,70.50879
0.35833332,68.58077
0.39481047,75.669495
0.5069875,76.38789
0.64829874,78.618935
0.6346848,81.96001
0.87080896,86.27643
0.9919241,90.80866
1.1360756,92.8443
1.1385733,97.87781
1.1702945,99.24839
1.3088784,102.862915
1.4008054,105.085396
1.4050033,104.82974
1.455791,108.42379
1.5899113,112.688065
1.5773629,114.4684
1.5326093,116.9642
1.604346,119.473404
1.6101167,122.58133
1.6519115,122.90895
1.6855915,125.6059
1.6698687,122.6964
1.5631061,127.86624
1.6415477,126.37793
1.7008774,129.22002
1.6206177,126.15697
1.5724928,126.06839
1.6638654,127.81339
1.6224009,123.74238
1.5132098,122.57259
1.5070499,123.22472
1.4925256,122.46515
1.4724143,122.00707
1.354667,117.49684
1.443638,118.33197
1.28247,115.58315
1.4137542,114.780716
1.2225202,113.43418
1.2530601,112.88489
1.3331659,111.9557
1.2728276,107.74552
1.2381812,105.11336
1.2721692,104.293594
1.3122926,103.86548
1.2995286,101.81261
1.2773118,95.65323
1.2684208,96.27579
1.2665309,96.88155
1.1721276,95.47478
1.1126308,94.22623
1.156686,91.08839
1.0919852,90.12198
1.0707446,88.99442
0.9897823,86.38468
0.97990155,80.86859
0.9577693,83.07192
0.8345133,79.25533
0.9079909,79.674446
0.8818631,77.30334
0.853981,78.007614
0.89537144,72.9814
0.72988814,73.86002
0.8267444,71.39263
0.8392107,69.0972
0.81296736,67.26053
0.8233124,65.0853
0.80304027,63.492374
0.76008433,58.9248
0.7864407,61.411995
0.7351734,61.577744
0.727614,59.978638
0.7045362,57.775948
0.7503146,57.76655
0.6078166,57.814434
0.60510707,58.91564
0.60164106,58.69724
0.5281679,58.25658
0.43012142,58.73856
0.5172113,56.17863
0.50558716,57.77374
0.53790283,55.86586
0.42224532,58.302628
0.41841838,62.572342
0.46586522,63.842545
0.47397497,68.76256
0.5799474,68.894554
0.58271426,70.492195
0.67298144,73.61858
0.82879186,78.13212
0.88496155,79.68618
1.1229103,81.56712
1.1230989,81.48675
1.1593026,89.472305
1.2792026,91.43783
1.3729098,94.14017
1.4908658,102.16501
1.4725623,100.604744
1.6260861,104.74224
1.6387765,106.31754
1.7609769,111.91255
1.7679291,112.76898
1.8913785,116.58853
1.8286511,120.44538
1.9159224,117.07903
1.9293826,121.53851
1.9205031,122.28931
1.957739,122.4638
1.8997457,122.78944
1.8760525,127.760796
1.8541178,126.67558
1.8831154,130.11975
1.9252876,124.45173
1.8627635,125.43077
1.8614422,125.13026
1.8911407,123.51279
1.7584448,121.557304
1.7532291,124.56424
1.6712118,123.712326
1.6549608,120.098656
1.6993852,122.554054
1.6538599,118.90936
1.6048166,114.04639
1.585015,118.343994
1.584968,113.14259
1.5227306,107.682686
1.5617821,108.94327
1.4561138,108.90851
1.4433595,101.9529
1.4399085,107.67644
1.5209446,103.17355
1.5423648,98.96374
1.4704157,95.76482
1.4303045,97.86013
1.4470974,97.459785
1.4248682,94.43132
1.3399336,95.28887
1.3115464,92.26803
1.3211209,91.075836
1.2680739,87.638664
1.2116781,87.99109
1.1324846,84.41247
1.1888659,82.94604
1.0548319,82.30625
1.0656517,77.89812
1.1025783,81.1801
1.0207646,76.38387
0.9870127,75.4251
1.0132136,74.0032
0.9187035,72.17456
1.0180347,69.06275
0.8756006,65.592735
1.0038234,65.48642
1.0345614,61.612865
0.9182928,62.15655
0.96366733,59.574078
0.9048249,59.58134
0.84485215,60.983837
0.9189814,60.544994
0.81836504,56.51614
0.7399398,58.908092
0.7885084,55.016964
0.7189856,55.590054
0.64137304,56.03548
0.56593066,57.41632
0.6853988,56.538113
0.69849277,57.814194
0.57577676,60.345078
0.5317694,60.0849
0.48539454,65.085335
0.567984,66.2166
0.6414425,64.08429
0.63905936,67.54109
0.64105314,72.50595
0.6822396,74.10313
0.8488829,74.668724
0.9098036,79.508095
1.1055219,78.67653
1.1027662,84.65937
1.2144991,87.98294
1.3053913,90.34571
1.3935963,96.80889
1.4710596,97.64495
1.6015457,99.65528
1.7369833,103.4035
1.6973671,105.580986
1.760415,108.65523
1.7806937,113.152985
1.7715499,112.29213
1.9125078,118.143295
1.8419935,118.32041
1.9175274,119.38424
1.8989626,120.69502
1.9041188,120.493996
1.9317434,123.55194
1.9929254,123.454834
1.88357,124.769196
1.9359291,128.42944
1.8827484,126.55569
1.83023,124.8711
1.8765731,125.83346
1.8328184,124.144165
1.7824166,129.21315
1.7651608,121.64333
1.7152286,120.7895
1.7154388,120.270485
1.6227529,123.28142
1.603572,119.196106
1.553646,118.819756
1.5201932,116.82606
1.5834253,112.42299
1.388145,112.80174
1.4660211,112.02221
1.5094754,106.99425
1.3412423,108.16927
1.3797854,104.51033
1.3814447,107.284615
1.4251777,103.99742
1.4373696,99.269165
1.3891548,103.04918
1.3863835,95.50087
1.3055229,94.60467
1.2794037,93.74168
1.3862432,88.09214
1.212865,89.7509
1.1250165,87.10038
1.1314834,86.694336
1.0729561,84.958755
1.0236604,80.64013
0.9177331,82.4486
0.8880771,80.12442
0.9182688,79.95338
0.78123707,74.21467
0.76020443,75.8474
0.7939876,71.278694
0.6964893,74.66736
0.80207837,69.524414
0.78453594,69.10497
0.7179277,65.3528
0.7808535,66.141594
0.7739111,64.19264
0.75250214,62.955196
0.7832927,61.356316
0.63537455,58.35638
0.70730853,58.427834
0.6142654,57.54182
0.6911028,57.220848
0.55898994,57.68132
0.53083175,53.1851
0.47352934,53.960064
0.4773586,60.52384
0.45468488,60.06178
0.35781303,55.84937
0.34612405,61.119564
0.30266395,59.76139
0.30965152,59.87239
0.2768918,61.944633
0.34221599,64.5063
0.38843083,66.24548
0.54040855,69.43446
0.4989373,70.39989
0.5402524,77.834595
0.67404443,76.93039
0.8347451,80.206924
0.8694522,83.45182
0.8968358,83.47149
1.0910351,91.241455
1.1492077,95.98847
1.2557267,96.49397
1.2540007,99.6906
1.2741263,103.13755
1.4228184,104.79492
1.4155629,109.29824
1.5011013,112.43824
1.5911236,114.50125
1.6172016,116.25858
1.7058593,118.7489
1.7022439,117.7324
1.6583886,122.67687
1.646404,125.105095
1.6397172,122.614456
1.6010579,126.90022
1.649155,127.19037
1.6802481,125.61248
1.5561445,128.86865
1.5591501,125.597404
1.5546517,126.28562
1.4752815,125.69404
1.5026572,124.264854
1.4918779,121.91067
1.479659,118.83481
1.45388,121.90904
1.347889,119.097115
1.3603238,119.363785
1.3032027,121.64293
1.1974832,118.243866
1.2668686,112.4982
1.2502286,111.15336
1.0459802,111.485176
1.0430113,110.45298
1.1346674,105.36912
1.0437347,106.731735
1.0115706,103.130264
1.0578759,98.21167
1.1726686,99.57024
1.0536917,98.46486
1.0766826,98.196396
1.050068,95.72423
0.984089,92.443726
0.96252716,90.099846
0.8849248,90.4432
0.8440475,88.90455
0.8550437,86.63195
0.77765745,87.402145
0.7074815,87.30509
0.6646946,80.7781
0.7200266,79.534225
0.5066584,78.75474
0.49271825,76.81238
0.47096822,74.87447
0.46381372,74.692474
0.47505483,71.08454
0.41647252,69.96129
0.47128525,66.439995
0.5219109,66.11607
0.34329605,64.48707
0.48226526,62.782383
0.53571045,58.971367
0.4016931,58.81351
0.43521935,59.71689
0.38352603,60.687145
0.3875614,54.66046
0.29527268,56.08878
0.3344195,57.53938
0.23410524,57.478283
0.24063207,58.06493
0.16692553,58.54493
0.018959079,55.76014
-0.027550835,59.769547
-0.015381542,56.846806
0.08265662,61.673542
0.052427776,62.58957
0.04707369,61.89345
0.092793494,66.02827
0.06919173,67.27818
0.1591496,68.57136
0.24005282,74.285095
0.20336096,74.23299
0.31459308,74.47024
0.47582313,79.61467
0.51585627,80.82865
0.70635563,86.75843
0.809599,89.22943
0.8685187,95.42376
0.9265784,97.612625
1.0050805,96.91997
1.0515699,101.63543
1.1951334,107.368256
1.209289,105.44161
1.179173,107.76649
1.2801688,111.71654
1.3849347,115.41261
1.3114325,115.19675
1.359465,119.20458
1.2973546,119.300186
1.3306636,123.21311
1.4196635,126.106544
1.3603727,123.65121
1.439164,125.303635
1.3360682,126.2531
1.3922029,126.151955
1.364513,124.651924
1.2937357,124.9069
1.2791811,127.62454
1.254512,126.79371
1.2234527,123.30931
1.16511,127.37885
1.212701,120.641655
1.2025311,122.094536
1.085744,118.29033
1.062543,116.88603
0.9763178,114.07914
1.0405855,116.55265
1.0516055,113.07455
1.0894035,113.688705
1.0404934,106.90093
0.9212661,109.41725
0.9259694,103.91256
0.804528,104.757
0.85751677,102.86176
0.89131737,103.23859
0.9150803,101.61918
0.8283946,97.47246
0.88086504,96.82185
0.7110925,93.46408
0.8144448,93.38033
0.6884154,91.84021
0.6667938,86.34459
0.7607338,86.03093
0.6671431,87.533676
0.5802861,83.99421
0.5899922,86.173454
0.50304365,79.97004
0.5063949,80.05324
0.45864582,74.1724
0.43673173,75.87027
0.41898435,73.05811
0.36415547,70.94013
0.33690348,69.028915
0.3559508,67.73305
0.35979402,67.82622
0.25400433,64.16059
0.3500073,62.729214
0.33651444,62.387825
0.3783167,60.51999
0.36473703,62.459938
0.22488928,57.90136
0.14955375,59.16717
0.14216723,58.2439
0.15671454,59.735207
0.14403503,57.86383
0.09164457,53.815372
0.011510183,54.82569
0.09110916,57.749992
-0.0013351857,55.62494
0.027211098,56.727795
-0.089079574,62.016434
-0.0023180703,63.885933
-0.045454998,63.407368
-0.036082257,62.414505
0.026745152,65.87073
-0.012703206,66.73159
0.16829874,70.66505
0.24899423,76.11702
0.31533062,76.662186
0.40327302,79.85929
0.4580449,79.971924
0.604204,85.60552
0.6183806,92.381386
0.83824444,91.22377
0.81475663,96.87451
1.0016367,99.095924
1.0377965,102.29169
1.140807,103.04615
1.164392,106.5714
1.2814027,110.39026
1.1973255,111.4234
1.2548882,115.528435
1.3206373,116.78976
1.4910554,120.26399
1.3760916,120.71488
1.3949134,123.72465
1.4643867,124.25496
1.4158962,123.86999
1.3511757,124.34791
1.4257196,127.73438
1.4065537,124.51718
1.4192619,123.7214
1.321813,128.45503
1.3753096,124.75033
1.3728461,125.53329
1.2278619,122.74199
1.2940005,125.550995
1.2771282,122.346855
1.2587153,123.45259
1.2308388,119.99448
1.226503,115.74256
1.1206656,116.351814
1.057919,113.74494
1.14905,114.04604
1.1136819,111.995964
1.0093299,111.77337
1.0507175,108.85286
1.0713603,108.210495
1.0659721,105.35697
1.0108477,101.582596
0.9941834,99.88748
0.9703182,99.34321
1.0157089,100.30146
1.020951,93.90246
0.9009167,92.90409
0.996087,92.63196
0.88230664,92.229805
0.9631332,90.43513
0.7976179,86.898964
0.7900806,85.866455
0.6964412,83.16975
0.6398799,79.534096
0.70023304,82.10366
0.5431473,77.4102
0.5826655,76.99206
0.44651005,73.51093
0.5171089,73.6043
0.45148227,74.31688
0.47880346,68.55318
0.5226139,69.4823
0.5146402,68.694374
0.5402244,64.48988
0.46058878,63.08311
0.50012237,61.20976
0.527958,60.872807
0.5215034,60.794643
0.44244763,58.88489
0.51631546,59.782047
0.40259734,57.76575
0.37104863,56.233986
0.26132828,56.61729
0.36558798,56.84316
0.2315713,56.637653
0.29165742,57.802494
0.25528786,57.509655
0.25113213,52.807095
0.12081222,58.047817
0.23625955,60.42528
0.2222215,60.67019
0.22423716,62.672565
0.23626584,67.47063
0.24420956,69.504036
0.39953664,68.4015
0.41249657,70.8763
0.5945111,76.23247
0.6368848,80.25317
0.75955,82.594826
0.7756943,84.57291
1.0129095,90.79799
0.99977803,93.013695
1.1553595,92.32721
1.2013144,96.01959
1.3313994,100.68974
1.4066314,103.25192
1.3560278,106.01799
1.5228616,107.97146
1.5119234,111.21534
1.5415624,115.60655
1.6605152,117.849625
1.7166221,117.7523
1.7525338,118.52311
1.6912761,121.47795
1.6400907,123.32881
1.665129,122.73751
1.7609034,125.02231
1.7605443,127.54819
1.7334806,129.6908
1.7375904,128.54916
1.6114465,124.59183
1.536542,124.16709
1.6069882,126.24907
1.581618,123.59099
1.5711075,122.37998
1.637018,121.03287
1.5509187,122.82638
1.4126399,119.452965
1.5266794,119.539734
1.3932725,116.016655
1.3828619,116.61693
1.3951726,115.086754
1.3962293,114.96547
1.371431,108.40211
1.3703429,108.43384
1.3042842,107.25131
1.3428192,103.30064
1.3318878,101.06335
1.3251654,105.64084
1.2879827,102.35157
1.1894468,98.2392
1.3519138,99.66034
1.1964995,96.539566
1.2770797,94.079575
1.0940945,86.44921
1.0529821,91.91822
1.1169561,87.89364
1.1058587,86.128685
1.0645308,84.28034
1.0144753,83.16679
1.0088233,77.23444
0.93140215,78.395134
0.96981674,79.25548
0.8997282,74.51093
0.9276332,76.191574
0.801938,72.38242
0.86805,68.90506
0.84786993,70.51204
0.7533838,67.56035
0.8521577,63.349392
0.8862318,66.34601
0.7681976,62.008553
0.73786825,58.149265
0.8654894,61.436832
0.8229428,59.39049
0.592211,57.717743
0.741301,56.8249
0.69898754,58.257225
0.65979695,54.930557
0.6874404,55.784718
0.60901606,56.636204
0.6582007,56.12119
0.541974,58.494755
0.5634495,59.012352
0.52005154,60.314236
0.5378092,58.30964
0.4976499,58.899967
0.5934852,66.1544
0.54335934,65.91484
0.52342236,64.171486
0.71954554,68.04002
0.72079104,71.03532
0.76927114,76.673775
0.82587075,78.39275
0.9094375,79.66293
1.1364102,84.41593
1.209874,85.1423
1.2441494,92.9558
1.4234385,93.80077
1.4390664,93.33888
1.4825276,97.60498
1.5937887,105.84422
1.710503,105.42645
1.7674118,105.116295
1.7949616,112.419556
1.8195109,113.16259
1.9099133,113.07715
1.9453148,121.871346
1.9459149,121.68808
1.952044,119.20161
1.9753895,124.6183
1.9062642,121.30173
1.9255904,126.03611
1.9578491,127.15885
1.9563336,125.76115
1.9023136,125.16883
1.8836854,126.29561
1.8865868,125.92202
1.9064765,125.01455
1.7834404,123.96342
1.8012204,122.10975
1.7810565,125.210365
1.8455108,122.105705
1.7182668,121.19578
1.6305178,115.86407
1.6533148,119.264755
1.5768069,116.35279
1.6244644,114.17846
1.5951251,112.603615
1.4991688,109.49422
1.5768436,109.36106
1.5216056,107.114105
1.4349592,106.565216
1.52741,102.89663
1.4759351,103.59622
1.4264028,100.81581
1.4585816,99.49074
1.4274585,98.87987
1.4052348,94.979065
1.3593084,94.250015
1.3761832,89.69079
1.3108201,87.03668
1.2978412,89.49751
1.2568736,84.83995
1.2164167,83.10646
1.1323446,82.80743
1.1341759,79.548134
1.1138158,81.57142
1.0352985,82.334946
1.0379226,78.905464
0.9619808,75.56847
0.9192458,74.954636
0.9596372,69.54878
0.83265674,68.916824
0.8254797,67.910576
0.8919201,66.19301
0.8956396,64.50505
0.9709778,64.50245
0.9866884,63.644684
0.9522379,57.93063
0.8258852,56.746853
0.89014137,59.233845
0.77858937,57.233032
0.76786053,55.924736
0.76061606,55.81833
0.74199086,55.546562
0.64191365,59.241276
0.6220127,56.81595
0.52798927,55.887524
0.5484857,61.562595
0.5314383,59.190166
0.42504707,59.289055
0.6267829,64.24174
0.5590136,61.341003
0.5545911,63.380226
0.5790037,67.186
0.662429,65.70553
0.79726,72.213585
0.90585434,76.53819
0.8410292,78.02776
0.95958287,77.59429
1.0913438,84.17544
1.1902603,84.87262
1.2674909,89.50836
1.4134711,91.918526
1.4264126,95.2916
1.6572256,99.118706
1.616373,103.962
1.6906601,108.21204
1.6537529,110.87499
1.7266542,111.88518
1.7999265,113.42341
1.7983826,117.53992
1.8167487,114.6932
1.81353,122.50679
1.8634509,121.448166
1.9196275,124.14536
1.8952004,126.036865
1.8699026,123.24036
1.8975613,124.40589
1.9135432,126.8135
1.848044,126.38241
1.7432512,126.99626
1.786722,126.349144
1.7217565,124.40663
1.7851412,125.59907
1.5539318,123.89184
1.606052,121.22168
1.7275984,119.8633
1.6163961,122.19026
1.5416032,120.86884
1.5535932,120.193405
1.5418768,117.96643
1.4167031,114.12681
1.4039631,114.33742
1.4028207,107.41735
1.4238163,109.48776
1.3652333,107.2937
1.4526438,103.73708
1.315114,104.94637
1.3244023,101.83715
1.2727419,105.35932
1.3133048,103.80017
1.374448,98.24864
1.2240025,94.185745
1.2718798,93.84545
1.1707003,91.14999
1.1467276,89.45613
0.98148364,87.28155
1.0636595,87.31715
0.9655475,83.92095
0.90522516,84.77579
0.9227367,81.84273
0.81618834,79.999344
0.85568815,77.19989
0.82096434,74.83442
0.6779482,75.0235
0.7748411,71.77116
0.7508699,72.55367
0.6700436,68.13785
0.75198823,64.831314
0.6687607,67.31761
0.7083673,63.543507
0.70470107,66.64142
0.65869606,65.43134
0.6377852,61.550606
0.6416996,59.601334
0.6543997,61.768005
0.52246773,57.134758
0.509973,57.06791
0.55129236,56.830338
0.47717106,52.132576
0.45356038,59.114353
0.39228055,59.274036
0.36550516,55.144558
0.3285064,60.06666
0.30986387,59.83834
0.24552694,60.47346
0.32026508,62.248848
0.28784344,64.62178
0.25763524,65.648026
0.27266693,70.16299
0.3434761,70.972015
0.41033468,70.22188
0.47061113,73.55636
0.5032805,77.40913
0.63070846,77.7611
0.7410313,83.22771
0.9057677,88.25118
0.9210461,87.818405
0.9691369,94.76398
1.1223606,95.41982
1.1692736,97.85992
1.3607551,102.95128
1.3357658,103.34411
1.4524992,110.43077
1.496144,110.59388
1.4987195,110.50158
1.5295097,114.60307
1.5657933,116.60406
1.5829839,115.7267
1.5841265,123.63739
1.5159892,125.24963
1.6172884,122.12088
1.604916,124.879425
1.5962231,124.99003
1.499227,124.19372
1.5124179,126.57649
1.51037,123.99476
1.6030012,126.43924
1.508803,125.98133
1.4279228,124.297386
1.4892799,126.1068
1.3986919,123.20168
1.329565,122.25879
1.1657525,120.03132
1.2472571,119.93799
1.211013,118.670425
1.2220381,117.68352
1.1165375,116.44029
1.1766878,115.62403
1.0163727,110.48991
1.2626774,108.475555
1.0468231,108.803764
0.9927693,105.76911
0.97222763,101.83346
0.96375453,102.53968
1.0557323,97.943115
1.0182619,99.149536
0.9590155,97.717384
0.903341,95.126625
0.97034097,95.47363
0.8704805,92.75074
0.86233795,89.29888
0.73448616,88.06757
0.7672211,88.66675
0.72077245,87.3058
0.5881663,82.66041
0.6814867,83.904724
0.55984974,81.18453
0.54634535,76.39364
0.50190026,77.587746
0.47078902,72.524
0.48551607,72.49872
0.46945965,71.47876
0.42298105,69.15807
0.397277,67.2202
0.49574244,68.29958
0.35488573,63.102333
0.33895501,64.67409
0.36246216,64.524826
0.41524038,60.86794
0.3407461,59.875202
0.3850233,57.769363
0.31520626,55.41098
0.3147052,59.39161
0.27368253,55.83899
0.2344588,56.223644
0.07452087,57.647327
0.18306182,59.54747
0.06918781,56.63033
0.13268556,59.074596
-0.00027724064,58.7836
0.026405605,58.35811
-0.07877838,60.77872
-0.056642,63.65234
-0.012368206,64.27528
0.15758404,67.94509
0.10114692,69.84835
0.15114513,70.31006
0.263308,74.03777
0.32085192,74.10946
0.4608192,80.72757
0.48831803,84.44455
0.6573241,87.9079
0.7526749,89.09733
0.79143214,92.62422
0.92968214,93.76929
0.94763887,96.51406
1.02873,101.38635
1.1631432,103.21037
1.181674,107.13111
1.1933872,111.803696
1.2788975,111.681206
1.3675011,112.75204
1.3169702,115.770615
1.3587937,119.07702
1.3729025,119.06931
1.350813,122.66222
1.4017779,124.20142
1.3900726,124.344055
1.322636,126.95382
1.380413,126.357635
1.3943294,128.25775
1.3727885,124.09983
1.2758956,125.67829
1.2521788,127.46901
1.2241465,123.8821
1.1886809,122.496155
1.2710607,123.35607
1.1451415,120.730484
1.0293324,119.97722
1.0924333,118.76143
1.0356674,117.41534
0.9188666,117.70826
1.0120133,114.789955
1.004391,113.47068
0.9490951,110.68168
0.9526594,111.39523
0.8767374,110.21672
0.8915859,105.563065
0.9262845,105.01585
0.87186396,104.14989
0.884584,101.058914
0.8762736,99.04771
0.88507396,100.9242
0.78681636,97.36437
0.97473884,94.750175
0.8181898,90.87555
0.77595705,91.58321
0.74045295,91.62533
0.5718291,86.83292
0.65723836,87.79552
0.53271663,81.895424
0.51271397,82.33422
0.49830377,81.33191
0.4270509,78.77019
0.374613,78.01953
0.40106422,75.92198
0.37207896,72.51027
0.42832324,71.048676
0.4249218,69.22514
0.3584119,69.62441
0.35817173,69.55475
0.37490746,66.84491
0.29293644,65.77386
0.34330362,60.940166
0.3051775,60.77647
0.44768718,59.87012
0.31126273,57.615425
0.20255153,59.32182
0.31768447,54.398563
0.18737195,58.032906
0.25778338,58.210964
0.22587425,58.849247
0.03741869,56.762825
0.13534398,57.945328
0.034552917,56.46722
-0.014540267,60.199726
0.0872225,59.44134
-0.04235093,61.13726
0.058230355,65.96
0.024527019,63.913074
0.054969486,65.53266
0.11892419,68.19839
0.20806198,71.60983
0.23624909,74.44219
0.315238,76.268295
0.39405528,79.71207
0.5110739,77.99043
0.6158939,86.051704
0.74428487,86.27679
0.80476195,90.038124
0.8825193,93.86253
1.0326654,97.39384
1.0544924,101.48913
1.0096287,105.11438
1.1456935,107.184746
1.2786435,108.57334
1.3649291,111.70324
1.3904227,114.2106
1.4042311,115.51372
1.4421928,117.32706
1.392919,117.185196
1.4752113,126.01819
1.4404477,123.63453
1.5241833,125.50318
1.5030657,125.01378
1.4005096,124.43103
1.5063257,125.37723
1.5105149,126.58818
1.438759,124.484634
1.5001286,122.8596
1.4295285,127.57723
1.4037541,125.78926
1.4508245,125.677444
1.3160756,121.570274
1.31288,121.05274
1.2872418,118.15344
1.1858087,117.31903
1.1872942,116.67422
1.2246131,114.77635
1.1468136,114.99584
1.1840898,113.31387
1.0591326,109.59886
1.1419413,109.12542
1.0741578,109.31684
1.141542,106.0354
1.0822334,102.56824
1.0499988,102.99748
1.1817262,100.27642
1.0389824,99.79021
1.1497246,96.95625
1.0279741,98.05615
0.9688601,93.18621
0.94095314,90.01234
0.8920703,88.36427
0.90787184,86.42393
0.8738639,89.19786
0.8384256,84.81904
0.8068266,82.67864
0.7491591,81.80848
0.7231906,78.329704
0.6228802,75.98887
0.71639264,76.23109
0.5941447,72.75786
0.622153,70.16984
0.6420469,69.55184
0.57686466,66.18629
0.5356721,66.72693
0.65789926,66.54595
0.64171827,65.12406
0.6323736,61.84831
0.56227624,59.695217
0.5248328,62.20354
0.6130739,59.285233
0.55578774,58.988537
0.5464296,55.111534
0.4361354,56.084415
0.39305207,55.200756
0.4215388,59.004284
0.42704165,58.94413
0.33176202,59.67785
0.2687323,57.216877
0.31735158,57.636047
0.29735067,60.349785
0.17838861,60.819252
0.26677084,64.04179
0.29973745,63.355938
0.30907702,66.7706
0.45906168,67.70846
0.43464974,68.83611
0.5955566,73.220345
0.61946815,77.84831
0.6452902,80.48668
0.7974956,78.28026
0.8363462,85.05388
0.95328444,89.68514
1.0859219,89.7041
1.1297401,93.99879
1.2879194,94.52608
1.3230118,98.34272
1.5044588,104.37471
1.4992875,105.68884
1.5331416,110.80506
1.6060172,112.58589
1.5848095,115.142365
1.6824555,114.15711
1.7536236,121.243484
1.7415307,120.38187
1.8006368,122.15393
1.7634444,123.83826
1.819024,123.24056
1.8241035,122.4015
1.7735136,128.93307
1.7152871,127.05364
1.7498132,127.175606
1.7372195,122.61528
1.6767064,123.39872
1.7134833,124.494514
1.7112594,122.84707
1.5547606,126.8396
1.6067314,124.7022
1.5556757,123.78659
1.6441536,121.50867
1.570459,119.27153
1.5233924,116.50132
1.5132089,115.17704
1.451458,112.56196
1.4246186,111.61899
1.4614642,111.01291
1.3831109,106.13793
1.3481933,108.39945
1.429844,104.3854
1.3847313,100.43515
1.3807019,103.67248
1.3852919,102.14443
1.3999497,100.86906
1.3906058,96.00951
1.2690365,95.503265
1.3076423,93.4606
1.1236318,92.28711
1.2708623,88.90724
1.1937032,83.332466
1.147284,88.15091
1.1246314,82.49205
1.0637404,80.83871
1.0627998,82.900566
0.95462817,79.51765
0.89955914,78.53841
0.8789814,75.07826
1.0006908,75.533585
0.94344085,72.36603
0.8675819,71.37061
0.89858884,68.34459
0.8176196,65.29332
0.8178421,67.28694
0.92264646,66.50155
0.890981,63.102463
0.8615955,60.85427
0.801757,60.91335
0.80135196,61.43277
0.75631505,57.508507
0.7227916,58.585682
0.8126792,58.43656
0.78888464,56.63827
0.758697,59.590904
0.69065964,56.615616
0.6484267,57.54632
0.5803846,56.51816
0.4955087,56.430393
0.5290795,57.75972
0.5622285,62.563194
0.5449085,61.07011
0.5313198,63.354702
0.47949797,62.91141
0.71312124,69.832565
0.6290059,68.077866
0.7445881,71.02872
0.75954455,74.60275
0.87271637,77.088036
0.9825372,82.13187
1.1542697,83.51235
1.1682875,88.07075
1.2888601,90.2041
1.4412543,91.78167
1.433378,95.02785
1.5045588,99.534294
1.6002342,104.95895
1.6397879,105.87912
1.7730925,108.139244
1.7573028,111.79571
1.9215446,113.90039
1.8244419,119.09991
1.8443738,117.11743
1.9813516,119.72352
1.8872192,119.381805
1.8903805,119.40729
1.9433709,123.46811
1.9369308,123.95738
1.9973077,127.01444
1.8881841,123.170044
1.9602816,125.85543
1.9543153,125.36741
1.9171804,121.82326
1.9051454,122.07841
1.9212635,122.90655
1.7159363,127.79911
1.6511962,118.68646
1.8004376,121.133865
1.7682437,120.21888
1.6814442,118.906395
1.6935374,119.575516
1.7348076,114.100365
1.5738904,112.79627
1.5171251,114.08865
1.4532151,110.733025
1.630379,109.33099
1.4763421,107.66781
1.5014701,106.528984
1.4793152,103.59018
1.5162185,103.46533
1.4201262,100.520004
1.4427656,100.70995
1.3459805,100.057274
1.4071765,96.45703
1.4156134,95.51842
1.3446623,93.250244
1.315553,90.63605
1.3225862,90.100525
1.2896624,88.989586
1.1826382,84.694
1.1469616,85.840355
1.0749009,83.73463
1.0989054,80.31764
1.0774801,78.986916
0.9880674,76.51254
0.8472991,75.18152
0.9316166,75.195786
0.8942694,73.2546
0.845307,69.545654
0.91284823,69.20222
0.90644187,66.86857
0.9117293,64.28646
0.9366446,65.62848
0.8894151,61.84192
0.80139893,59.85253
0.881091,59.939163
0.84348893,60.228058
0.8701526,60.19091
0.799688,58.94761
0.7548244,57.410275
0.6627227,55.286316
0.6033817,58.17552
0.63631576,57.553364
0.54770577,57.397507
0.6627436,58.792522
0.6313415,56.793583
0.56014925,61.119938
0.55937004,59.947704
0.48179018,66.7262
0.40881643,62.62498
0.5353765,65.15673
0.6195537,68.830894
0.7371318,70.584015
0.74158084,75.0815
0.75355643,76.23312
0.90010256,78.098206
1.0082638,81.625244
1.1042522,88.61016
1.2404482,90.09076
1.2575935,93.0063
1.4438568,96.4042
1.4902608,98.47602
1.5386058,102.92481
1.6526766,104.46288
1.6876006,111.24199
1.7318786,110.73615
1.7050898,112.792946
1.8176923,117.195335
1.9206076,119.34284
1.8212252,120.241806
1.8965446,118.16972
1.8212811,124.09798
1.7990116,122.15442
1.903652,125.11559
1.7959591,125.75707
1.8079355,125.23134
1.8798331,125.752365
1.8610442,125.38998
1.7388729,125.62338
1.7347041,124.69588
1.6961203,125.30533
1.7468122,125.94569
1.588872,123.054214
1.6210572,120.4567
1.5878713,120.704926
1.5357304,120.322876
1.4919871,115.09348
1.4217433,116.66689
1.4450154,116.183235
1.4366983,110.896645
1.4288319,112.941086
1.284286,109.73625
1.3951324,107.08864
1.2603998,106.44842
1.2629542,101.83548
1.3404245,102.39811
1.2897815,99.96817
1.190213,98.82014
1.2873081,96.72715
1.2453371,96.991196
1.1245757,95.53455
1.1386033,93.428345
1.0911726,93.61675
1.0719649,87.017784
1.0312583,87.68845
0.9668907,83.368965
0.913214,82.8477
0.874114,79.5261
0.78084666,82.0925
0.87859803,79.82758
0.80035734,72.78344
0.6953709,77.63296
0.708563,71.505
0.74038994,69.41898
0.6860953,69.66173
0.6648031,68.83383
0.5758009,65.55293
0.5743781,66.60459
0.58047324,62.725033
0.54755765,62.352108
0.6308356,61.652805
0.5631098,60.14055
0.53157187,58.3206
0.55088305,58.037743
0.5591449,59.67286
0.47525194,58.463398
0.38344306,57.56355
0.38905704,56.329655
0.36681098,54.162697
0.33287638,58.082825
0.21680476,55.502163
0.20849608,57.30428
0.20096849,58.72102
0.22131762,58.58473
0.22569515,63.41328
0.105711035,64.38923
0.20791611,66.03997
0.2804268,68.340485
0.39611384,71.06306
0.44792846,69.50175
0.5453941,76.61557
0.63165957,79.45659
0.63973784,81.55579
0.72305965,84.69962
0.77966744,89.65573
1.0694207,90.29462
1.0050358,97.13868
1.121523,98.58643
1.1832889,98.674904
1.3072975,104.06086
1.3005064,109.86347
1.3458204,109.34508
1.3977935,110.76698
1.466683,112.448265
1.5621885,117.715706
1.564549,117.49056
1.5769178,119.63173
1.5404661,124.23549
1.4164809,120.94831
1.4633813,123.49219
1.5381823,123.29427
1.55682,125.44774
1.5329372,126.841736
1.5530499,128.4112
1.4258511,127.46936
1.4335604,123.381966
1.3161417,123.752785
1.3522395,121.26104
1.3645003,123.31975
1.2746767,122.61406
1.2519121,122.98922
1.2069719,117.81318
1.2044345,118.8409
1.1827646,115.182465
1.1563658,116.2041
1.122653,114.80457
0.97290355,111.58447
1.0292786,110.74417
0.9318811,108.070656
0.9871837,107.70749
1.0453686,104.3862
1.0324806,101.82137
0.951907,98.791115
0.9255802,99.490425
0.95470995,101.388596
0.927827,96.819725
0.90366375,97.3163
0.81373703,96.13362
0.85918695,91.723976
0.7923991,87.015015
0.74318445,85.20059
0.66810167,86.54806
0.56952786,83.379105
0.6642758,81.598145
0.6190755,82.77223
0.4865914,79.40108
0.4907714,78.30825
0.37673962,75.51828
0.44201362,74.69689
0.3895069,72.90704
0.3757982,71.07447
0.3261159,68.73258
0.3446208,67.35013
0.28491348,64.48182
0.27785096,67.20464
0.42070994,61.066013
0.39649013,61.526157
0.43036285,59.766396
0.3355352,59.56641
0.31918597,56.95426
0.1979926,57.21305
0.29283178,58.010574
0.20705438,58.914482
0.10983263,56.089577
0.058091573,56.582047
0.029990539,55.53354
-0.01392532,55.89754
-0.007859229,57.657085
-0.016109169,61.463215
0.0020495427,61.568073
-0.08975323,62.06223
-0.014184484,63.556595
0.02031272,63.610096
0.029551985,69.96577
0.1400142,70.97561
0.1938216,72.05457
0.2933402,76.86003
0.34933627,75.97216
0.513384,80.35503
0.60434175,82.57209
0.61489564,85.06542
0.6863612,90.49819
0.865213,94.79021
0.9299787,96.42527
0.9750346,97.63451
1.063206,103.488594
1.0712177,105.79403
1.1747047,109.5998
1.1731764,112.21377
1.1865816,113.50987
1.2006624,114.74642
1.3351898,117.60792
1.3676698,120.23161
1.3445339,118.23648
1.4290605,123.3683
1.2663943,123.10968
1.3806603,124.52181
1.3709961,124.971855
1.2776934,126.10666
1.3602234,126.62301
1.3551544,128.48456
1.3663605,128.2504
1.258965,122.930824
1.2547989,125.95447
1.1102068,126.3531
1.1549629,124.47566
1.1406541,121.036545
1.0923963,121.59281
1.0849248,118.861176
1.0131272,115.85073
1.0123037,115.95257
1.0326867,113.50435
0.91444206,112.772606
0.8750906,111.12239
0.82921356,110.552734
0.9603143,108.459114
0.98640096,105.59304
0.99198234,106.43474
0.9637072,99.413
0.9442927,102.351974
0.86210316,101.72525
0.89296514,97.54409
0.85164416,95.74917
0.7275412,93.73147
0.813637,90.6534
0.7939522,88.28313
0.7368629,88.131256
0.6485961,86.24232
0.6589506,82.46043
0.5367261,82.50091
0.5063796,81.94786
0.51403964,79.43528
0.45236042,79.70566
0.33275437,76.31262
0.43129373,72.89862
0.4202644,72.56494
0.38350788,72.38153
0.37985256,67.278305
0.33464825,67.44651
0.32059112,66.00629
0.46058202,66.24345
0.4278253,62.607483
0.3872277,62.11436
0.38356227,59.00881
0.33975446,58.159294
0.2668782,55.557312
0.33596882,58.55366
0.24263059,57.682156
0.3091326,57.450634
0.08602414,54.95335
0.17530811,59.25039
0.04043161,58.77171
0.09443787,54.88815
0.109583735,59.38028
0.086144134,57.07037
-0.013946047,59.90185
0.03853165,60.634857
-0.007826256,64.67646
0.08396821,64.813774
0.1471734,66.12349
0.19405536,69.23905
0.226907,73.489334
0.41507196,74.824905
0.35895157,77.033676
0.4642835,80.87947
0.59758157,82.06017
0.6547461,89.8618
0.92035973,90.90554
0.9356208,92.225075
1.0121405,95.864555
1.0545186,98.136826
1.1972588,104.39355
1.2540611,106.72694
1.3519437,108.19816
1.3076603,110.87067
1.5297431,111.19417
1.4304795,117.09946
1.4816716,116.746765
1.5261574,122.13213
1.545325,122.86832
1.4735013,124.91289
1.5102413,125.76653
1.5250455,122.39092
1.6031231,123.61675
1.4656233,123.70988
1.5719013,125.14091
1.538983,123.89382
1.4979514,127.58774
1.5235807,124.456955
1.4099244,126.526985
1.3710771,122.091774
1.3398198,121.71302
1.3607315,122.46629
1.3431439,121.09034
1.3250165,118.454544
1.2126853,117.388916
1.2063481,114.02624
1.2324862,115.120995
1.1596658,110.720894
1.1874548,112.55021
1.1243773,109.228745
1.1729561,107.84216
1.1855937,104.518265
1.1023299,103.724304
1.172099,104.568665
1.0985278,98.12798
1.1001121,97.583
1.1217153,98.17312
1.0443497,93.72795
1.073096,94.81371
1.0266782,90.20369
1.0014994,91.34127
1.0085175,90.2457
0.88310236,86.68967
0.86316407,83.20611
0.8384685,87.27914
0.7701582,78.46426
0.7746844,77.83172
0.757187,77.1408
0.7027591,75.17869
0.7188265,74.0831
0.6002311,75.90771
0.593552,70.76564
0.56367195,67.84681
0.7235124,69.961784
0.6183551,66.50003
0.6553666,63.89442
0.70572555,61.004185
0.61881685,62.145287
0.60380304,59.808685
0.6914304,63.20361
0.5676625,58.43391
0.59062153,57.216988
0.4967977,57.31977
0.6113932,58.476307
0.5608679,55.283043
0.51667184,56.927803
0.47154185,54.812714
0.39105102,57.29207
0.34346136,56.648182
0.28707388,60.566414
0.3657875,59.834316
0.34023452,61.606045
0.38182506,64.65419
0.3637076,64.84997
0.42108744,64.957695
0.45238736,69.594826
0.53716975,70.377266
0.63137764,76.052925
0.6615384,76.76055
0.8485817,82.29763
0.9442758,84.535416
1.0929964,87.549614
1.0505322,88.72263
1.2582163,92.61548
1.2850451,94.748604
1.4640262,98.73929
1.423626,99.0005
1.5102303,107.82651
1.5250943,107.34042
1.6741602,110.772736
1.7141984,110.09852
