ppg,abp
1.0291172,74.87819
1.2061228,79.66771
1.2129998,73.73258
1.2343136,82.3761
1.3761901,80.01054
1.5166436,81.42913
1.5624474,90.186424
1.7774853,89.54776
1.5954661,89.31353
1.6292973,86.3925
1.7691121,91.55877
1.6670105,94.183784
1.6708015,91.72842
1.7984045,91.13382
1.7883285,91.74467
1.6857232,96.0326
1.7216388,90.27636
1.7635298,88.11397
1.6889858,89.98675
1.5452602,87.937744
1.5940467,90.774956
1.558007,93.91312
1.5898528,90.59843
1.5089196,90.20185
1.3978757,87.08066
1.3753518,92.644844
1.3706956,85.831665
1.4609989,85.505974
1.3152094,81.995186
1.4344726,85.06553
1.2011658,84.723335
1.3491346,83.55895
1.2720035,78.26599
1.2735705,82.32098
1.2454438,78.49186
1.2948747,82.20302
1.2012,81.566635
1.2533575,72.402245
1.1933938,74.52557
1.0775112,73.842186
1.1572388,78.591156
1.1265383,74.02253
0.9741572,72.979126
0.93304014,70.25182
0.87600154,71.09141
0.8390394,73.32884
0.82393265,64.266205
0.83005375,62.64099
0.9087685,66.74542
0.8254248,68.11403
0.7466322,62.845474
0.7413268,60.96142
0.89594966,58.636192
0.80307776,61.74106
0.7921186,63.37623
0.70685494,60.90517
0.8082177,59.559345
0.6765191,59.055443
0.70561415,61.016342
0.51568425,61.43463
0.6935525,58.5241
0.5693537,62.034004
0.5360879,58.022884
0.49493313,59.497307
0.46845728,62.00979
0.46041507,58.93157
0.4495222,64.171
0.45446166,64.84464
0.666189,60.527374
0.62787163,67.160866
0.6474865,72.77557
0.7415086,68.0478
0.83582944,69.97497
0.9038983,75.48075
1.0414999,71.63338
1.2838974,76.868675
1.3516257,75.44957
1.454249,81.9229
1.596723,79.12769
1.5746377,76.63697
1.6842988,85.24513
1.760916,83.62442
1.7239592,83.90002
1.8732421,86.85813
1.9068328,87.00888
1.8971016,89.93671
1.8256962,90.79831
1.9254898,91.24644
1.8839302,92.499725
1.9208752,95.1461
1.87249,90.27537
1.8952525,90.5342
1.8367022,91.36217
1.805852,89.69297
1.7876698,90.95148
1.8233708,91.27745
1.8424062,84.94569
1.7441808,85.86308
1.7678764,90.19112
1.4960022,88.36101
1.6060616,89.97484
1.623074,85.76459
1.5274719,82.42269
1.4730375,85.60529
1.5977141,84.8633
1.5566721,81.01486
1.6000504,81.43737
1.5372097,78.711655
1.464545,84.2153
1.5420939,76.5891
1.4474398,82.93016
1.3078262,81.33545
1.3675148,78.265625
1.3970041,72.97942
1.3103639,78.401
1.3250108,73.50031
1.226933,73.66469
1.2340999,69.868675
1.2634443,69.09135
1.0841707,74.99488
0.98160857,66.43309
0.9061644,67.78573
0.99787265,68.24765
0.8504199,64.00378
0.99659365,67.30402
0.8544155,67.08391
0.9093653,59.757973
0.9797359,61.779697
0.8818982,59.13241
0.931511,62.109207
0.99452275,60.624332
0.8842951,62.49675
1.0013651,60.65547
0.84653175,62.03299
0.7893724,61.06991
0.6900823,62.144894
0.6023378,62.802483
0.66224676,60.80638
0.6522795,59.89194
0.47466606,60.28051
0.42601958,53.476505
0.4599087,59.603855
0.5755137,65.05911
0.5768053,62.721657
0.58521354,60.47416
0.61418885,60.43016
0.7616192,64.57789
0.86286867,67.388336
0.9243013,66.87616
1.1079733,69.04344
1.1335686,74.64927
1.2960355,74.8939
1.4144987,77.28019
1.4968165,76.33997
1.6429048,80.88355
1.6062672,83.678894
1.6975231,82.78299
1.7139558,82.14196
1.9083972,80.6991
1.8481983,88.59512
1.8510671,89.548546
1.960561,88.22279
1.9056115,87.87966
2.0125082,87.373405
1.8490539,89.27525
1.8662598,89.61937
2.0374913,90.098816
1.9191514,90.358894
1.8571275,91.97521
1.8835948,93.808556
1.7738144,93.23437
1.789442,89.91809
1.7185993,92.93237
1.6033194,89.54927
1.6302555,89.209236
1.6349208,88.68607
1.4309793,88.70858
1.526952,83.49029
1.4190762,83.97585
1.6135783,85.69439
1.5028445,87.48376
1.5073793,83.33933
1.4450842,80.52276
1.4359149,81.15118
1.4829352,79.54798
1.3023335,76.29854
1.3318853,80.8285
1.4081109,78.40787
1.3660448,72.84335
1.275547,76.15771
1.2515935,75.55671
1.1648328,76.587975
1.0567646,74.64554
1.096501,72.48268
0.9414304,72.320984
0.9664516,72.95658
0.9905162,73.77631
0.89793503,66.01265
0.8074671,69.68298
0.84628266,64.58519
0.82890135,62.931736
0.80086833,63.243732
0.727041,65.05591
0.82635343,60.5956
0.8785239,56.98073
0.7625338,62.899704
0.7125493,63.517467
0.74584687,57.617928
0.784973,56.61789
0.62438214,61.394863
0.58199054,58.285305
0.52568805,58.443363
0.5854452,58.83324
0.5909452,55.829037
0.44693726,59.041
0.45082825,64.20508
0.38256848,61.293686
0.45727086,57.599262
0.4705573,57.564594
0.49865952,60.280262
0.45900688,63.697517
0.4964818,65.20598
0.60984224,65.17758
0.7017674,71.094
0.85257393,69.96747
0.8180324,68.69941
1.0415324,69.69794
1.0629275,78.956665
1.2285378,74.53788
1.3740697,76.65952
1.3900199,77.990944
1.5000899,81.02763
1.563932,84.61464
1.5330027,84.89334
1.5726336,86.948524
1.7546251,90.0652
1.7501297,89.92824
1.672123,88.1047
1.7292695,87.774605
1.7619615,90.13367
1.7611253,90.814575
1.6993027,93.775154
1.7301989,92.04624
1.778706,94.07658
1.6668053,97.70448
1.5607497,93.00096
1.575361,90.54627
1.5597094,91.568184
1.5892148,89.11805
1.389958,91.1887
1.432836,88.09302
1.3039666,89.824455
1.3895534,88.094
1.1958351,81.04145
1.2921515,85.6935
1.3489606,86.703
1.1722773,81.487854
1.1090231,87.222115
1.2005802,84.396416
1.175599,78.19362
1.0611209,81.337616
1.1576141,76.01269
1.1685036,81.15211
1.1263369,81.214096
1.0146194,75.017624
0.9735966,71.48598
0.9364764,72.38438
0.8151903,75.32829
0.89349794,69.814514
0.7776544,67.51709
0.77852577,75.537
0.6470883,73.35633
0.6521592,68.676216
0.6258551,69.81904
0.59105146,63.112488
0.5409281,65.4121
0.5787808,61.774017
0.49447232,70.53412
0.56076086,59.7412
0.48315045,60.50835
0.6064278,65.237526
0.52073115,61.781647
0.5375556,61.59988
0.5401798,63.032448
0.39545605,58.588108
0.3640145,63.81455
0.40035075,62.157646
0.14842613,60.100456
0.2892502,57.87153
0.22912917,61.723114
0.17507584,54.716625
0.18860228,59.777176
0.15595607,60.80398
0.07445358,55.57332
0.049361978,66.99844
0.087789625,66.47453
0.25029427,65.8214
0.17473117,68.00563
0.33566925,67.42353
0.5466492,71.32694
0.551368,68.9615
0.58154345,70.78863
0.7614395,76.510155
0.9186815,70.44222
0.96705985,77.64294
1.086245,77.808556
1.1632925,80.24138
1.2086204,79.64587
1.2769512,81.773766
1.3544303,85.84099
1.433737,87.93277
1.4221841,86.52753
1.44398,85.004684
1.341982,86.554665
1.4547274,90.377525
1.3742343,93.858
1.5091062,91.33635
1.3746419,89.92362
1.5044549,89.481995
1.332772,90.21097
1.4884571,91.90738
1.2794977,92.92893
1.3237619,94.328514
1.4318062,87.653915
1.2581099,89.79572
1.199674,89.939255
1.146895,92.66824
1.1675049,89.04253
0.97769696,87.6566
1.0699959,87.96674
1.063303,84.36305
1.0139428,87.01935
0.95605654,81.52255
0.90194607,82.973526
0.93501526,80.82306
0.9215526,79.18142
1.0277638,81.96517
0.87487763,78.92853
0.9408132,77.28265
0.88024265,76.26433
0.91301847,78.21997
0.8432019,71.97546
0.7734923,76.71177
0.72172534,74.4214
0.56100404,74.19133
0.562546,71.40734
0.5375401,76.76531
0.4716216,70.65835
0.44548756,65.78723
0.42935994,66.557884
0.43004882,66.35177
0.3178895,69.1363
0.438962,61.832626
0.29717198,62.767853
0.3965176,64.457275
0.40479922,63.700775
0.44759217,62.718533
0.3749475,62.391254
0.25266427,60.84091
0.4152573,59.63398
0.19232878,57.0631
0.21439931,53.61782
0.13510977,58.331867
0.104078606,55.456047
0.006151137,63.699074
-0.019265871,62.2107
0.00051047554,58.118664
-0.018019818,59.83814
-0.10494336,55.830044
-0.12678853,56.457233
0.047992416,64.68317
0.044617467,60.447533
0.09697563,63.891636
0.17568102,64.84792
0.31489444,64.90661
0.3195183,72.67815
0.38497967,73.16387
0.5652461,72.60561
0.6552754,75.90591
0.75496036,75.52854
0.9096392,78.64757
0.9885971,80.78483
1.1995313,80.50262
1.1048177,78.70063
1.2353865,88.82497
1.2247615,82.90281
1.235955,86.85859
1.2021036,89.695145
1.3095666,87.537704
1.3798968,87.57555
1.3805033,96.90636
1.4205111,95.48315
1.270186,91.355774
1.4774848,89.48945
1.3863233,90.68959
1.2575419,92.11598
1.3273348,86.6469
1.2961618,96.48553
1.1881803,95.05629
1.1627607,89.8855
1.1473861,89.69002
1.1040225,87.4529
1.156423,93.1212
1.0617225,89.88068
1.0731748,85.791374
1.0254388,83.90067
0.9767309,85.25533
0.98908365,85.15165
1.0127707,83.7629
0.9437909,85.28852
0.8835982,77.912674
0.94037765,83.85672
0.8524186,77.052
0.8917507,76.769905
0.82389414,78.5053
0.8220449,71.577415
0.8921694,77.58969
0.7301705,73.71241
0.71280366,70.90842
0.7407334,73.697845
0.6600807,73.36638
0.5484839,74.79891
0.4668637,75.28019
0.4800272,73.16931
0.3900208,66.46997
0.4887746,66.914116
0.450345,66.228745
0.42232063,69.65554
0.39932588,65.932014
0.47183406,64.29947
0.39872476,62.966427
0.43757197,62.93003
0.30743897,62.92195
0.3618095,61.911747
0.36013508,65.10086
0.46300656,61.21739
0.3471765,61.449287
0.3381177,60.83188
0.3095783,65.03719
0.25246692,60.92594
0.042306997,63.405685
0.17917179,57.781715
0.13569157,61.834194
0.13088523,59.432617
0.016431974,60.522045
0.052704018,58.42884
0.15633309,61.57065
0.08091374,59.030872
0.2701396,70.17777
0.25607666,66.75811
0.44481045,64.377045
0.47170526,73.952095
0.65077007,67.548546
0.6962036,70.5071
0.86872107,73.412575
0.89347535,74.613396
1.0248356,74.26509
1.0712839,83.74771
1.3165997,83.34414
1.3007128,81.73276
1.4406443,81.97596
1.4625082,82.24133
1.3674624,89.70553
1.5344307,88.00601
1.4406364,89.80896
1.5434582,88.38138
1.5071247,91.07618
1.6088697,88.58664
1.5383368,89.453094
1.5295025,91.661865
1.5687639,91.88279
1.5580829,91.38578
1.4679612,91.554
1.4386241,88.16568
1.4166453,92.49765
1.3571136,89.693016
1.3079734,91.02564
1.4525305,92.08954
1.3012786,84.22535
1.2839376,89.1147
1.2624027,85.320946
1.226522,91.95948
1.2221128,87.58748
1.2068962,79.50796
1.1851085,86.126976
1.2139395,79.658905
1.1501169,80.926254
1.2028884,76.47349
1.0892737,78.69958
1.1259133,79.67915
1.0468665,79.677605
1.0591149,78.72063
1.1709411,74.43531
0.943541,73.62759
0.93315274,71.27871
0.8617469,75.65087
0.8827144,75.043564
0.9385991,69.5184
0.7728091,75.76558
0.70746887,71.76173
0.71206945,65.970955
0.5401751,72.7521
0.69585496,67.3487
0.7495581,66.582825
0.61579365,68.25565
0.6042111,60.57059
0.60429454,63.041588
0.6328291,60.772537
0.54175764,59.29546
0.64543086,61.94344
0.70646363,59.282326
0.50798446,57.0312
0.5252901,55.317623
0.49791333,61.090378
0.509259,61.558895
0.4031249,64.22383
0.4589781,59.691833
0.38336277,59.567795
0.38925588,60.496975
0.35708803,64.40416
0.44057202,61.58232
0.2550066,62.461964
0.3239701,65.44739
0.32481575,65.42227
0.547913,65.12709
0.6568408,70.116135
0.66581815,66.797424
0.7667201,72.55637
0.9289999,75.441124
1.0095797,68.71012
1.1445676,75.70013
1.2634284,74.858215
1.3151664,76.38437
1.4381286,75.255554
1.517469,83.756424
1.6383933,78.3363
1.5888752,85.19097
1.6536334,84.3383
1.6767524,82.86735
1.8041143,89.900665
1.7369618,86.92404
1.8233957,93.33774
1.7778444,86.08805
1.7891531,91.017235
1.8267419,91.89844
1.8517604,93.71943
1.7220452,94.465576
1.7825156,97.51879
1.7242141,87.617676
1.7150644,92.007996
1.7958143,93.06286
1.6152786,85.021935
1.5223728,90.54971
1.6187572,84.315956
1.4390194,89.70328
1.4946628,84.73804
1.4355533,86.33694
1.4675376,84.73016
1.4885452,85.30335
1.4384481,82.418015
1.4875579,79.860466
1.3427175,84.65976
1.3770944,79.570946
1.4004012,81.11884
1.429121,82.91409
1.3252746,73.6556
1.3448291,73.85656
1.2390369,79.44495
1.209575,77.74667
1.183174,76.82912
1.2194549,72.62406
1.0938132,74.66166
1.0822203,71.18461
1.0219026,67.737564
0.8824702,69.662
1.0972302,69.628716
0.85504204,71.61871
0.9398951,62.290417
0.7322181,71.70548
0.8513672,67.16516
0.8583839,64.94141
0.8770194,65.03769
0.83791566,66.29242
0.8020754,59.87133
0.872745,63.240616
0.8429512,63.01079
0.78104204,58.76115
0.76332915,58.327892
0.7635334,61.872513
0.74784905,60.213394
0.74702096,60.247986
0.5828148,58.462868
0.6369862,62.246353
0.65673643,65.25531
0.64931023,60.788567
0.50936776,55.31626
0.5495386,60.533775
0.56567883,61.442074
0.47539195,66.04363
0.6333505,68.685486
0.7295383,65.44615
0.856606,65.4203
0.955804,69.784706
0.9264388,70.580765
1.1345651,72.19908
1.3473146,75.90516
1.3414078,73.45118
1.4222074,74.80482
1.5014133,77.88389
1.6101841,77.74076
1.6842507,80.465546
1.8167818,83.58542
1.8662794,81.4704
1.8738483,85.88185
1.8974346,89.21058
1.9141648,86.439026
1.9726597,87.99612
2.0099127,88.94427
1.9858569,88.11921
1.9148976,91.878975
1.9421438,91.678276
1.9796968,93.99765
1.9072424,89.28104
1.9929199,89.38703
1.9393101,90.89877
1.8895886,90.97302
1.8341796,89.60927
1.7946857,85.46523
1.7608063,84.821014
1.7496644,91.6879
1.69723,85.53383
1.665825,90.750656
1.6202644,87.256165
1.5983918,87.552536
1.5356494,82.60342
1.5851835,86.101135
1.5180538,85.967255
1.5445999,82.672
1.4031795,80.171036
1.4235976,79.041985
1.4152379,79.615326
1.3939614,78.31301
1.4394277,79.886765
1.4498432,74.22817
1.3124181,73.26628
1.1571318,73.76076
1.2251635,71.714806
1.2042468,71.46774
1.0629679,73.24521
0.9643518,64.65544
1.1914397,69.02995
1.0173818,73.27592
1.0346923,68.82545
0.97607565,63.94104
0.90471387,68.51717
0.9697892,66.84382
0.90461,64.45562
0.84830785,64.19721
0.99211586,63.155407
0.87548655,64.61251
0.7644739,61.50273
0.770741,59.58871
0.9260014,61.552574
0.86073357,58.768436
0.8496745,54.90402
0.69784963,59.809444
0.7290993,61.188522
0.63844854,60.721516
0.5701688,59.2894
0.49453476,57.46846
0.5235306,56.891464
0.54610866,53.38709
0.48558444,59.637478
0.46180552,61.518097
0.6254266,63.445988
0.7083262,67.00888
0.59089136,66.07958
0.7350774,68.4316
0.88921404,65.59881
1.0206006,71.51881
1.1085277,72.15282
1.1499766,72.634834
1.3411644,77.32645
1.4636654,74.3534
1.478372,77.719376
1.5420413,78.40861
1.5979897,84.623314
1.6824261,84.561356
1.8242745,84.49861
1.6861331,84.887375
1.7784554,86.96128
1.8592455,87.2882
1.9023411,93.42491
1.8957459,91.90984
1.7819102,93.06078
1.795551,91.59073
1.7585037,91.7111
1.7464185,92.58328
1.7581908,90.874695
1.775105,95.407455
1.7820227,90.46927
1.700912,89.080414
1.5667542,87.40569
1.6006893,91.51106
1.5386357,92.17443
1.6042863,87.010956
1.4212124,83.60186
1.5791254,85.84891
1.3491923,81.323586
1.3619871,86.71188
1.3346058,86.085594
1.2654903,79.58606
1.3647823,85.63714
1.334583,81.28334
1.2773322,81.68163
1.2421446,77.13185
1.3022429,81.72028
1.1799027,75.54407
1.2482656,80.26732
1.1678845,76.43707
1.1564528,70.59996
1.0871558,74.23908
1.0500168,71.10214
1.0377628,77.05772
0.95028126,67.83388
0.8876361,74.308334
0.736672,69.6685
0.7456483,72.13521
0.6361961,67.56604
0.65869826,66.00252
0.747921,62.494904
0.795525,66.27315
0.73395383,70.27778
0.653557,65.44777
0.6915692,62.71066
0.74493515,61.38514
0.640243,65.04441
0.6241468,57.64812
0.61373883,60.40859
0.5197998,62.615704
0.5532398,59.39373
0.4457472,58.332798
0.40878028,61.802494
0.4198459,55.784035
0.25231546,58.905117
0.20435596,62.454655
0.19823323,62.38142
0.37054935,61.89671
0.26792547,60.467194
0.295236,58.40858
0.37000334,62.367924
0.3206821,65.35167
0.41880116,65.54671
0.5647844,64.49125
0.615976,72.46474
0.66405725,69.439
0.9110479,72.514755
1.0327353,74.12534
1.1461304,77.04363
1.0940269,70.95918
1.1338446,77.38452
1.3036591,84.25443
1.3787279,86.99116
1.3943329,81.29716
1.500233,83.34632
1.4688851,84.27244
1.4758408,88.18394
1.5374436,84.613464
1.6469879,91.89364
1.521511,92.18089
1.6243665,87.8438
1.6270412,89.016014
1.5135858,88.676636
1.6285454,92.97393
1.5439919,90.967064
1.5499396,93.17612
1.3743696,91.55002
1.450616,95.281136
1.4025644,90.324036
1.331053,88.11766
1.2996051,91.813034
1.2849724,89.37699
1.3049982,86.734566
1.2189949,90.7838
1.0968101,81.64786
1.2780775,82.267715
1.1819888,87.04549
1.0745845,85.13679
1.0243357,84.06282
1.0913851,81.89541
0.9614105,82.365486
0.94777477,85.49554
1.01467,77.59659
0.9548521,79.368095
0.8786055,75.31205
0.9248326,76.932945
0.83597857,75.94788
0.8448869,69.496025
0.7598939,72.628
0.7811255,74.79449
0.63713473,71.49779
0.62751323,70.27958
0.505008,71.343216
0.44390604,66.24112
0.4120701,67.924194
0.48233768,68.38242
0.3915807,65.28019
0.38653624,65.14245
0.34730837,66.33617
0.39343798,61.407986
0.3799723,63.261253
0.39183924,61.15226
0.48438063,58.160957
0.39575064,64.18011
0.38560823,59.319046
0.35548759,61.7672
0.28826648,58.890583
0.29491144,58.348255
0.19936705,59.07215
0.17378025,56.900673
-0.0075260773,62.22836
0.01695247,59.62251
0.09603883,55.53846
0.026472645,57.723824
0.058164112,57.71262
0.027290009,61.924095
-0.0038872794,60.218338
0.19287246,63.71977
0.24276102,67.342415
0.36403117,68.53815
0.49601147,66.81361
0.510711,73.05376
0.65451384,73.294044
0.83145595,75.75133
0.7704037,73.51715
0.9038258,78.85345
1.0705342,79.97923
1.1883547,84.12589
1.1304933,81.16828
1.3341844,80.91096
1.2738006,85.26339
1.3621215,87.86017
1.3381002,88.11124
1.2893257,88.59181
1.3791233,87.90843
1.3536757,90.4936
1.450626,89.6348
1.4470687,89.03147
1.4482677,92.62766
1.3446414,92.79018
1.2119262,91.522514
1.2990034,89.143166
1.3274511,89.22548
1.2620996,86.101295
1.3152722,92.15492
1.2265013,92.38523
1.1338397,86.53075
1.0776982,86.85107
0.9567754,83.02931
0.9504831,84.920044
1.0469803,87.14995
0.92413634,86.87429
1.087418,86.4756
0.9582662,80.06394
0.9024087,81.84804
0.8527631,80.42612
0.93285173,83.000404
0.77147084,80.862755
0.8176833,74.868
0.86413515,76.0276
0.9198549,76.5198
0.7593446,77.706085
0.7841983,74.842674
0.58043754,76.19795
0.6918453,74.22575
0.5891871,73.979996
0.6124568,70.08768
0.43416896,72.67027
0.45891342,68.59599
0.3446893,67.23114
0.46702948,63.208286
0.26646373,65.37093
0.47672814,65.90268
0.32323784,63.4506
0.3351,66.09529
0.36203742,65.63833
0.26322272,65.63547
0.40081108,67.66196
0.31437254,61.1526
0.2730493,61.872147
0.23237008,58.601448
0.16255471,60.180176
0.22462319,57.275116
0.058206625,58.930786
0.18335027,59.583523
0.0139505975,60.070747
0.028767647,58.875248
0.0020014914,55.623047
-0.08873938,58.424995
-0.05057706,64.92242
0.004312669,66.16038
0.064518906,63.950375
0.055310447,70.99859
0.116702415,66.613396
0.2173681,71.25101
0.2735499,68.84071
0.5068289,69.912575
0.570028,71.63158
0.6866373,69.997925
0.66455245,75.04347
0.9049215,80.3629
0.87226886,74.30875
1.1085451,81.07766
1.1550243,80.29694
1.2097346,83.58522
1.3076384,81.39071
1.1815897,87.12714
1.2880673,90.13778
1.3507677,88.63932
1.366382,88.85469
1.3583561,91.581154
1.5388235,89.58012
1.453432,90.40187
1.3322693,92.911194
1.2957643,89.8115
1.3638258,93.20233
1.2193743,89.31586
1.3664627,93.19133
1.2319744,89.13416
1.296983,92.813286
1.2155932,92.149315
1.3060173,92.82716
1.159552,83.44997
0.97391677,85.843864
1.062567,90.10344
0.9676983,86.012474
1.062231,86.864685
0.9379031,83.390205
1.0090637,84.61903
1.0033839,80.23258
1.0000072,81.90137
1.0264797,84.26264
0.9917677,80.78765
0.9501192,74.20176
0.974556,75.31792
1.0103257,73.38253
0.9109092,77.32505
0.92256343,77.475914
0.77690625,77.25218
0.8109397,78.23521
0.7013101,70.35277
0.6084509,77.684685
0.5993297,69.45092
0.5514993,73.19313
0.6060281,69.33576
0.5959497,73.21488
0.4752973,64.99926
0.5375709,65.97975
0.42861775,68.6028
0.48505485,62.31297
0.41941637,65.678894
0.4307659,62.186043
0.37874672,66.41113
0.50681984,60.40759
0.4954028,58.2144
0.44949913,58.86668
0.4101887,55.404716
0.5428952,57.474056
0.43859327,59.442196
0.3792357,60.989307
0.13897917,63.192554
0.21870607,62.632328
0.18196249,58.491165
0.23449601,59.0259
0.1827936,61.417824
0.22172987,65.86085
0.32761565,63.901268
0.29322436,64.62205
0.18679143,62.914154
0.37519494,63.063927
0.37964642,69.20357
0.5966235,66.583305
0.68182224,68.97573
0.7883477,68.721634
1.0273626,74.030815
1.0169616,78.127625
1.1319591,78.64677
1.2620397,72.33856
1.1189561,79.70696
1.3413222,82.2674
1.4814007,84.40655
1.4723629,82.329475
1.6065834,85.58909
1.6277397,83.67969
1.6198024,91.003365
1.6783184,88.82807
1.6231632,88.48674
1.6917671,94.29785
1.7125163,92.21998
1.6095212,89.9977
1.7471055,94.01814
1.6618543,92.36726
1.5713537,91.27446
1.671733,92.00032
1.4540435,89.20001
1.4795525,89.714836
1.5231404,88.35902
1.5136228,88.8221
1.513151,88.60176
1.4424194,91.01267
1.3741058,85.73563
1.3320681,86.32377
1.2558861,86.9642
1.2693307,82.24039
1.2578151,84.636696
1.2295498,77.56057
1.3153231,86.85123
1.1808319,82.06746
1.1833676,77.75705
1.2994268,79.94557
1.2318554,77.92381
1.1820005,78.49229
1.0683692,77.17039
1.0563223,76.055305
1.0171676,73.52628
1.0272747,75.02078
0.9295818,68.52022
0.91151166,72.409546
0.9642634,73.095116
0.82881725,70.42056
0.80244106,70.47873
0.70470774,69.56308
0.736729,67.00422
0.79589,65.62914
0.8623527,67.64791
0.799802,60.84782
0.8641289,60.74578
0.8572659,64.17354
0.82360613,64.72637
0.7468817,59.560665
0.7209487,59.648586
0.69857424,60.02343
0.6674665,64.99023
0.6819323,61.03531
0.58797723,60.63044
0.62298125,62.407593
0.570632,61.012646
0.45936218,61.83854
0.5628164,56.223045
0.43502435,62.10928
0.31187218,58.420097
0.47176114,59.52062
0.531113,61.679543
0.47526136,60.921688
0.5146787,63.000965
0.6387931,70.780426
0.62770647,68.1444
0.8358294,70.78811
0.96246433,73.09108
1.1767119,74.411766
1.0578796,77.16719
1.3652935,71.64721
1.3027294,78.53283
1.430299,81.19006
1.6616185,81.554
1.6628376,84.83309
1.6355238,82.863556
1.8302295,85.58649
1.7434138,84.11817
1.8339767,87.854126
1.7978634,86.550575
1.8911995,86.76522
1.9609299,90.86695
2.0165186,89.400024
1.9361128,91.883385
1.835546,91.8542
1.7879401,94.43817
1.8155627,90.81421
1.8333696,92.45086
1.8393171,88.500465
1.7424973,94.0496
1.6986697,92.22254
1.6152506,92.91352
1.6849221,93.346756
1.6930172,90.9108
1.5573899,88.61816
1.6469584,86.27575
1.5815547,87.5746
1.5772147,87.96502
1.480331,86.438965
1.4650797,82.37744
1.5110315,79.09714
1.4619212,82.514694
1.465628,84.32736
1.4850365,79.83864
1.4664987,74.5366
1.4674757,75.72621
1.3469468,75.55893
1.3563591,71.44476
1.313437,75.868965
1.2072295,78.57939
1.29116,72.5053
1.2761936,71.44748
1.0602223,67.54198
1.0038159,74.66002
0.99281204,68.90639
0.93820477,64.022545
0.89077497,67.73931
0.85798156,68.834595
0.96853375,63.58025
0.85205376,64.42698
0.90594304,59.871944
0.90068454,63.56813
0.8808382,58.84991
0.7348255,58.232365
1.0712999,67.88436
0.8816295,59.467808
0.8726964,63.31421
0.8375442,61.63248
0.79813105,55.558697
0.78971905,56.883762
0.7130248,59.056686
0.58771384,57.22502
0.62419176,56.00241
0.6149608,57.092735
0.5030063,58.607456
0.560824,65.68899
0.5688389,63.770405
0.60892236,61.8433
0.60954255,66.50286
0.7136925,63.10249
0.76017886,67.659294
0.91094226,71.327515
0.9796893,72.768875
1.1346407,75.264755
1.2808878,71.311424
1.3112744,74.13643
1.4118615,76.565926
1.4917191,80.439384
1.7007929,81.33329
1.7185593,79.66819
1.7377157,88.585846
1.7036839,86.093475
1.7819191,86.484726
1.8643138,83.652176
1.9377365,88.485016
1.9554625,92.81048
1.9495648,88.54829
1.9648942,89.823586
1.9738885,90.66135
2.0478578,92.97028
1.951828,95.05698
1.8083822,90.914314
1.8664813,91.65221
1.7685921,92.452385
1.8912055,88.739876
1.8362174,90.330925
1.8114585,87.18603
1.67819,84.39643
1.7035036,90.53858
1.6143185,84.330864
1.6305676,85.26644
1.5477786,84.29725
1.5715843,84.11274
1.5015005,84.85747
1.5571578,88.20728
1.5794563,78.64366
1.4179596,84.42477
1.5182706,77.96823
1.5173429,79.17348
1.4389817,77.939
1.4121726,78.807526
1.3984321,73.10651
1.3105448,77.210846
1.3439329,73.37234
1.300545,67.34633
1.2082171,72.82936
1.1447562,70.93615
1.1385751,66.34436
1.1633497,74.19519
1.1699797,72.61465
0.9173397,70.47507
0.84961915,69.71562
0.82717407,68.167404
0.89343077,64.25705
0.74713415,68.19018
0.93369395,67.81719
0.8280665,63.0661
0.8405826,61.186584
0.8200348,64.52152
0.7832675,62.38458
0.92194843,62.572918
0.7048568,64.6371
0.78955895,58.287907
0.72343963,64.10706
0.65178144,62.09488
0.5873293,55.172573
0.5530512,59.66263
0.61336553,57.490967
0.4903513,61.480305
0.48203284,58.527752
0.43459257,62.94904
0.41560727,64.58183
0.42900807,60.47505
0.41672572,64.78965
0.5018401,65.464775
0.6240888,63.417576
0.5704973,62.220383
0.72177035,67.64942
0.8699831,71.46289
0.9019744,75.229744
1.0885898,74.29441
1.0944852,77.47393
1.2873616,75.83672
1.336119,77.47369
1.4654007,76.123405
1.4685234,80.44882
1.5646218,86.62819
1.7148987,83.301926
1.7323437,87.01893
1.6619548,87.743164
1.7375039,90.11288
1.87039,86.41909
1.8018955,92.70363
1.7872481,90.17489
1.7591636,86.612076
1.7496451,90.78441
1.7265003,95.06499
1.6483301,92.794014
1.7273539,87.33613
1.7480744,90.54519
1.5754071,90.46474
1.5583119,92.50096
1.4822955,84.51551
1.5794079,87.968025
1.4906219,88.207535
1.4472209,86.30335
1.3320956,88.70892
1.3190327,87.488266
1.212971,85.261925
1.4289552,85.74407
1.3761466,80.18595
1.2495147,85.400536
1.284245,79.71368
1.163638,77.28971
1.2034087,77.27932
1.1606234,78.95433
1.2074286,77.25428
1.2448876,74.587036
1.1120815,79.99047
0.9797207,74.422165
1.0119358,75.48347
0.9269255,77.01383
0.81331474,72.09395
0.8339168,70.690056
0.8173345,73.61118
0.6853971,71.193954
0.63335365,71.59158
0.7672472,68.580536
0.7493128,70.479355
0.64782596,69.57168
0.6077277,64.60715
0.60799605,63.84128
0.58659095,60.250626
0.6035271,63.81178
0.6000902,60.284218
0.38462034,60.53977
0.62191963,58.54657
0.5752355,59.748848
0.47810522,58.746502
0.3812439,60.446026
0.48634863,61.622166
0.37449,61.629513
0.3139128,53.243885
0.25596294,56.49002
0.16529354,62.673676
0.07678824,61.11204
0.21197312,64.54284
0.17094067,62.01464
0.094695486,64.12406
0.18941876,65.51989
0.2237328,62.798977
0.31485578,66.45921
0.5010385,67.319084
0.59122884,66.42441
0.54905355,70.0297
0.65994716,72.36118
0.81963706,75.997574
1.0531995,72.9388
1.0475307,78.931694
1.1624786,75.350334
1.1917373,77.73421
1.339883,85.59396
1.3267746,83.12938
1.3694044,85.072556
1.4248849,84.00642
1.4283869,82.1071
1.4393138,86.501564
1.4319687,91.49999
1.4850944,86.906166
1.561433,90.52558
1.4093928,88.81927
1.5192034,95.278145
1.3585864,93.5631
1.3885297,94.55364
1.434322,94.43606
1.3380853,94.58887
1.3592497,86.89855
1.3264693,91.67106
1.3175397,86.324936
1.192566,92.217636
1.1442412,93.15545
1.171552,86.98302
1.0091032,88.98747
1.0823245,86.96012
1.031316,87.11827
1.0167626,84.51249
1.0266476,83.451744
0.9633615,78.49122
0.94959867,76.02077
0.98573416,81.2233
0.8853864,79.540375
0.9123153,79.84973
0.9330988,80.91872
0.90918577,72.523895
0.87391824,74.44661
0.6849579,71.77915
0.7725344,76.2937
0.7710475,73.518654
0.59298176,70.06481
0.6050085,73.108665
0.5902722,69.716866
0.4504463,73.63944
0.54888904,71.88933
0.41895998,72.78033
0.4531413,61.000793
0.35593283,65.72626
0.49272066,67.887886
0.3638363,65.86637
0.36271748,62.623734
0.43701282,59.71531
0.24478291,64.61762
0.44706005,59.611656
0.3546916,61.275604
0.34873703,53.927673
0.31583935,58.140736
0.12633863,60.760258
0.06800098,59.034336
0.14502941,58.97893
0.037220336,64.2903
0.030307507,59.8621
-0.04181193,58.709892
-0.04607277,60.415443
-0.06299135,62.627544
-0.015860824,61.73881
0.016728593,64.67888
0.13054304,65.51926
0.20851175,64.71054
0.20969445,63.237473
0.2187909,69.07419
0.36856854,73.04857
0.45310873,72.11879
0.5417795,74.64252
0.72258854,76.087906
0.73455906,76.878555
0.83130836,75.484245
0.9985171,79.15909
1.1343431,80.7145
1.1510333,81.79324
1.1201404,83.05525
1.2339869,85.64664
1.2601699,83.04024
1.2726678,87.07088
1.3708745,80.535866
1.3427321,88.26512
1.2448274,90.96776
1.3290945,93.055786
1.2716959,90.10024
1.3674163,94.86909
1.4079679,91.7197
1.3442656,92.49712
1.1690695,92.59124
1.223868,89.57576
1.1988953,96.96449
1.1857617,92.572716
1.2800579,86.126335
1.2047697,82.90375
1.0779024,89.34947
1.0200826,85.65525
1.0488207,85.43268
1.0257931,84.68828
1.0531522,83.98436
0.95978117,84.80007
0.96646595,81.82684
0.90030056,84.10995
0.9909662,85.61777
0.88681644,83.140976
0.929256,78.59534
0.8843811,82.0038
0.8374405,76.83987
0.9572872,79.40428
0.9132187,76.3767
0.8300097,78.93348
0.69901776,73.41948
0.66821474,71.963554
0.63022566,69.96834
0.5171142,69.73379
0.49052602,73.811966
0.39079008,67.352394
0.44831467,67.52361
0.39548483,64.72298
0.35279587,63.848125
0.35622102,64.43014
0.39392513,64.15151
0.38453338,60.5678
0.3044631,56.64483
0.4117249,61.913307
0.32140598,61.37497
0.34093782,62.567554
0.28880662,60.990772
0.44063574,60.360928
0.23141822,61.31423
0.18397237,56.29255
0.15442123,57.672764
0.19525295,60.49102
0.1649363,60.201496
0.029931437,59.423798
0.11605258,61.842167
0.08110594,58.270664
-0.0020292338,59.006508
0.06843791,60.076523
0.10989596,60.43401
0.104474925,65.9933
0.15634057,68.007576
0.26989993,68.04243
0.28274116,67.54887
0.55246437,72.462944
0.54727095,72.40507
0.570959,76.52236
0.7543983,74.78946
0.94537354,74.06901
1.0372465,74.67659
1.0251063,78.87459
1.1091373,82.05318
1.2322918,84.79137
1.4129528,82.20639
1.3090967,87.70805
1.4983054,84.344246
1.5183678,88.56861
1.5063454,89.522514
1.5031768,83.89334
1.5292434,87.094246
1.4418044,87.47477
1.4541951,91.7897
1.4828253,88.02605
1.4353791,94.89091
1.4674597,90.92292
1.4370705,90.35998
1.3618957,92.65555
1.2955065,85.91429
1.3979734,91.135895
1.2918041,91.64069
1.3057829,90.7056
1.2405487,88.88766
1.210297,85.302605
1.2320575,87.25144
1.2464713,83.37827
1.2181158,87.83621
1.1737981,78.376915
1.0833424,82.91214
1.1243337,83.09413
1.1257004,80.98496
1.114056,77.126305
1.1719302,80.047516
1.1358432,77.074455
1.1459683,75.69319
1.1813083,71.81494
0.9322656,69.29774
0.91262496,74.21212
0.85858494,71.979095
0.8017061,70.297195
0.7247013,70.03453
0.7613073,74.702896
0.61512464,68.35844
0.69249773,66.74429
0.6691231,66.77821
0.6722005,68.50856
0.6276877,67.15493
0.57883656,68.458534
0.6991913,66.86227
0.65287596,67.18826
0.6604921,61.337708
0.6842889,64.27372
0.50100553,62.246456
0.625483,63.57103
0.56992936,59.86577
0.547053,60.640503
0.5086882,60.534714
0.4528232,63.397614
0.39787537,60.388527
0.37557638,63.345398
0.4289249,57.849396
0.3372263,60.224766
0.29872942,58.577343
0.30772045,57.55996
0.3075141,61.985786
0.2984967,60.586815
0.32697845,61.57005
0.31066072,64.11883
0.41198602,67.55257
0.639439,66.380325
0.6865339,65.34206
0.7041762,69.56839
0.86758834,75.1502
0.97242606,72.89027
1.096155,78.88994
1.2538112,77.05103
1.2988089,81.94124
1.37316,81.57769
1.3949468,85.1313
1.4960815,85.22475
1.5732347,85.918755
1.6411847,86.62645
1.7215297,88.69637
1.6378939,86.81463
1.7721844,87.50305
1.7346761,87.987656
1.8794732,87.78896
1.7998832,87.28593
1.694804,85.49182
1.7504425,94.39585
1.8424844,86.53256
1.7421528,91.63543
1.7350492,90.56207
1.6927693,89.45469
1.5767803,88.19983
1.632857,90.04588
1.5693889,91.26302
1.5358244,91.17983
1.4901707,88.10569
1.5300121,87.22025
1.41916,87.2583
1.5541054,85.99066
1.4513358,83.81463
1.3726627,83.043434
1.3151883,82.94601
1.3072135,78.62148
1.2552899,82.4332
1.3613415,80.47666
1.3567159,82.80531
1.4341549,78.85251
1.2532346,76.22267
1.3162153,77.810196
1.1733932,77.107765
1.2338737,73.17863
1.1207663,72.49124
1.001268,74.34072
1.1178172,71.875244
1.0221732,76.48149
0.87500495,71.41122
0.8940805,67.5587
0.955853,66.45443
0.8503665,67.03776
1.0298873,68.33919
0.937564,67.48906
0.90108556,63.51225
0.7775172,60.414257
0.7206122,59.61073
0.7443203,60.333504
0.8578243,62.167183
0.8890111,63.08517
0.91738874,57.365967
0.8211529,60.186077
0.67757857,59.421173
0.7079772,62.5623
0.5955179,61.173935
0.66785634,55.856064
0.65427923,59.278854
0.5276815,56.84183
0.5669,61.199
0.482287,57.987522
0.57415515,57.038822
0.40430975,59.433807
0.5049661,64.297325
0.7164761,65.72484
0.69677025,66.327484
0.8442538,65.28632
0.77707845,71.13811
0.9657738,67.54287
1.0723704,72.55084
1.2412965,70.59004
1.3136967,75.79785
1.5114632,79.09247
1.5252298,78.21839
1.6700785,79.53927
1.7578698,80.425156
1.6925324,87.576126
1.8379242,86.724785
1.8561407,84.374596
1.9973832,90.1154
1.9259189,90.38123
1.9402236,90.750626
1.8508837,92.342804
2.1068988,88.814
1.9466382,94.58601
1.9045327,91.17244
1.9207118,85.90865
1.928169,91.44263
1.8805892,93.468376
1.7961295,90.159
1.9142064,93.370186
1.8721545,89.80712
1.7944229,90.94778
1.7057151,89.01447
1.7021561,87.850296
1.6949427,87.55986
1.5372463,86.72936
1.5690453,85.33846
1.5705675,86.15189
1.6236881,85.27503
1.5620037,80.63845
1.5454817,81.74502
1.5194795,84.28229
1.4879587,80.80278
1.3694619,81.3361
1.413885,82.20994
1.3628907,80.08338
1.3957293,74.50624
1.3871429,79.49243
1.376877,75.51953
1.2898169,78.49725
1.1312107,74.28775
1.1178578,67.63135
1.0712491,73.546616
1.0020978,68.24042
1.058799,62.75132
1.0621415,72.72987
0.9333481,69.82181
0.9496969,68.5229
0.92666143,71.09009
1.0297004,65.78964
0.9715901,65.5461
0.9676063,58.14364
0.8914317,63.304806
0.9133553,62.304585
0.8867173,64.39891
0.9354689,59.66792
0.89363647,57.79335
0.82394445,53.862183
0.7468426,59.30148
0.70665276,60.164913
0.5805735,53.733517
0.60589325,58.284252
0.67321527,60.861355
0.60000277,58.743427
0.4991603,61.100513
0.4037927,58.92451
0.5027577,60.552452
0.5426532,60.875206
0.5485382,62.24718
0.7868812,65.95177
0.6990517,71.02254
0.807311,66.24809
0.98795176,68.268585
1.0113546,74.4937
1.0886034,76.24274
1.2689961,71.971054
1.3394775,76.59774
1.443156,77.51835
1.518589,76.90696
1.7070143,82.62571
1.7063478,81.51842
1.7589828,83.1708
1.7707063,85.54531
1.7439721,83.78792
1.8044345,87.81861
1.9595385,87.78702
1.8920348,86.58642
1.8985313,87.931786
1.8711841,91.39102
1.9031034,92.35325
1.8114685,90.93626
1.8919413,94.1853
1.9019934,91.01511
1.8276956,90.4624
1.8531445,90.26068
1.7762789,91.72165
1.6476393,92.04322
1.7047441,88.29548
1.689546,90.49996
1.5971236,94.170876
1.5018548,84.9268
1.4434333,83.88435
1.5076784,87.30403
1.4860387,87.92165
1.4692085,85.651726
1.3866664,82.06022
1.3847988,88.67638
1.3167634,81.1527
1.3848217,81.94276
1.4175735,80.641884
1.2801483,81.86795
1.3586634,78.18132
1.3100582,77.86406
1.2942709,75.99467
1.139984,77.73927
1.1715267,76.69366
1.0140885,71.284424
1.0244012,72.652115
1.0260932,70.82319
1.0151778,68.20961
0.8862103,72.55826
0.9757403,67.12367
0.8340779,67.77251
0.70788705,62.782627
0.74294347,71.11792
0.8017226,63.82474
0.75778437,64.173546
0.7451951,62.7411
0.80704236,64.53317
0.74837655,62.71882
0.72463334,61.24301
0.61644214,60.528652
0.66254526,59.52271
0.68780464,57.777092
0.5453621,56.731846
0.40774208,59.607464
0.55181026,59.226173
0.3815205,56.22842
0.42803076,60.159134
0.3761066,60.733017
0.22695434,60.85999
0.28581163,60.829765
0.3276851,61.843506
0.35615438,60.34457
0.3546189,64.43718
0.49133718,64.15003
0.46514964,65.168816
0.56178063,64.53609
0.6017615,68.82171
0.9609137,73.35016
0.91327226,76.775986
1.0636284,74.09308
1.0882163,75.20047
1.1578635,78.51425
1.4128778,80.60928
1.3489026,75.37282
1.5350907,78.31277
1.5355011,86.10362
1.7221806,83.10263
1.5838861,87.11369
1.5711457,86.0847
1.6078539,90.316986
1.637495,90.46661
1.6174543,88.14942
1.6525506,93.858444
1.6618245,97.804436
1.7989783,87.70684
1.5437586,93.68785
1.5951873,93.53228
1.5016435,89.70726
1.5220811,95.22019
1.454187,88.86752
1.4568387,91.30149
1.394773,89.50284
1.3234881,91.52927
1.3378226,86.24618
1.329663,90.26959
1.1016699,88.921616
1.1963233,86.68155
1.2579294,83.21614
1.1936231,83.85016
1.1969547,81.29456
1.0544728,80.28467
1.207002,76.25846
1.1056092,79.513725
1.1014217,78.81022
1.0403546,80.8886
1.1339426,73.9994
1.0297613,75.73632
1.0061058,72.66093
0.78870356,74.579544
0.8460215,75.723045
0.8402398,72.40411
0.79903764,75.21547
0.64200926,75.84117
0.5940158,73.57067
0.6975016,68.6094
0.55907553,68.8058
0.57530063,68.73178
0.5297363,69.679344
0.5179617,67.4301
0.57472676,64.92464
0.49721503,62.14687
0.5729153,60.964962
0.45516416,62.068287
0.38812506,59.54375
0.37977916,62.317883
0.41879737,58.34573
0.4426658,61.25389
0.39213097,59.139225
0.4112402,56.079212
0.24433057,60.457043
0.14969058,57.924168
0.06898013,61.274452
0.059530247,58.266747
0.064273916,58.946735
0.042260718,53.14841
0.15284234,59.860382
0.014723241,65.40436
0.057038523,61.698135
0.14621496,65.419624
0.24222066,69.91329
0.26796117,65.220245
0.46102625,67.692
0.50315857,72.120674
0.59514034,68.98989
0.61383504,74.83452
0.7913767,73.09693
0.8299458,79.8133
1.0788822,76.61657
1.1180716,79.03249
1.2309932,85.42351
1.2876036,82.357666
1.2291305,86.82683
1.2278451,81.35312
1.3569763,84.016426
1.3936254,87.66223
1.411658,85.15841
1.3500614,91.45769
1.4176995,92.176895
1.4640094,92.04248
1.4693882,87.92556
1.324882,87.99335
1.2681054,90.61634
1.3345363,86.56752
1.3443685,92.15982
1.2661839,88.78884
1.2153362,92.22064
1.2116201,92.83175
1.2822068,90.44572
1.1689942,88.42033
1.1074834,94.36977
1.1231931,85.08853
1.0511357,83.82608
0.94737446,84.69176
0.9526891,89.07449
0.9697339,84.75074
0.9586219,80.23205
0.9066055,91.27564
0.87893236,77.72339
0.92986465,74.30281
0.80114853,79.845146
0.8851158,74.75518
0.8229838,76.64907
0.6654536,75.38833
0.7282248,75.87955
0.74931717,74.35038
0.7858481,72.68355
0.52123946,72.018135
0.5592743,72.19045
0.45689663,73.34494
0.44057852,70.578636
0.49783745,66.52398
0.2912126,67.2333
0.35004753,66.39972
0.36047262,65.34732
0.40147483,64.90222
0.2854363,63.33922
0.37972996,64.07939
0.28710625,63.771828
0.24222344,64.56292
0.29273057,58.681225
0.23003726,58.38856
0.25671422,59.953438
0.26247853,58.15206
0.2649264,62.097748
0.23816781,63.860264
0.13434115,58.37885
0.153288,55.760876
0.024419293,56.890373
-0.080112316,57.9069
-0.059691586,57.814053
-0.11058025,63.11262
-0.047988802,59.72157
-0.027700845,62.774834
-0.031434514,64.51066
-0.10194881,65.21833
0.1237486,69.038765
0.26238734,65.92709
0.19314003,67.48773
0.5020566,69.473526
0.5743377,69.099915
0.61322546,76.45351
0.7966807,75.39944
0.948442,78.98261
1.0375264,78.829094
1.026885,78.463135
1.1277748,81.18964
1.2941211,85.20015
1.2854495,86.9313
1.2674447,85.675766
1.3215222,83.71095
1.3383133,87.08308
1.3679827,89.708084
1.5080152,89.352936
1.4110906,91.45889
1.4597393,91.18404
1.416515,91.24154
1.2774751,94.18601
1.3478277,93.321075
1.3328635,95.411156
1.2760903,90.77164
1.2233622,91.58577
1.2616411,88.12936
1.1866724,94.02364
1.0737578,89.37975
1.1078806,88.939545
1.0177895,83.1472
1.0675765,83.97334
1.1427368,86.138016
1.0623995,86.69221
1.035533,84.4842
0.96331,82.02088
0.9926846,83.71943
0.9925029,81.56154
0.95427316,75.62987
1.0047615,82.134346
1.0088242,78.85419
0.8632155,77.719536
0.8961202,77.84414
0.87281305,76.83247
0.7788186,74.68418
0.8277877,71.71561
0.68428314,75.53407
0.6532961,74.34064
0.6448512,73.2445
0.5410123,72.347984
0.60701936,69.76059
0.41888225,66.46297
0.49048522,68.15046
0.3657174,67.45791
0.39285612,61.570625
0.4408606,69.13488
0.34031904,64.12917
0.34422517,63.517994
0.4649657,62.086628
0.34251532,61.496223
0.49296016,59.243458
0.38404447,61.04638
0.34315112,62.013783
0.3041651,55.338657
0.48299053,56.621887
0.28373277,60.255753
0.3424735,59.50285
0.23843691,62.26872
0.26063734,58.294827
0.066437125,62.074966
0.030496767,56.02664
0.21842678,62.041714
0.15783408,63.056576
0.1170147,63.426907
0.08591039,63.651707
0.2549822,64.88651
0.2919987,68.293106
0.35644653,65.742004
0.5505121,67.80834
0.567464,70.22308
0.6975659,76.48917
0.8486741,73.47567
1.0561467,77.79606
1.108812,79.61655
1.2794393,79.01592
1.2723752,78.91734
1.3813949,80.38993
1.3709164,81.48986
1.511756,81.65399
1.5136414,86.97527
1.5277803,91.09229
1.6028494,90.65575
1.6221918,92.216385
1.6914243,89.78779
1.6148067,91.540085
1.5432122,91.42602
1.6475433,95.76892
1.5226566,91.23261
1.5129036,91.206055
1.4425015,91.20802
1.6804781,90.548134
1.4631343,91.43364
1.4528245,90.90718
1.4025412,88.68875
1.2794864,88.34538
1.5324556,91.49419
1.346461,88.56079
1.2211344,87.67703
1.3401827,85.818756
1.1814504,88.15259
1.2154076,83.34329
1.2183566,82.528
1.2471536,80.48499
1.2301741,84.05705
1.298878,79.329384
1.1531092,77.0119
1.1795753,76.98453
1.1973947,77.05591
1.0717359,74.459335
1.137017,76.8497
1.0603427,75.569824
1.1356273,74.215515
0.97616863,70.25321
1.0209947,67.506935
0.94387895,70.944435
0.9015567,68.55326
0.8469396,71.96003
0.7201667,68.12877
0.7982773,66.13348
0.64415485,69.448265
0.60556644,66.36573
0.7296357,63.588306
0.7291517,67.08819
0.6756523,60.764465
0.69608605,62.797604
0.71388936,56.633858
0.56284416,63.231087
0.71076185,58.64003
0.645074,57.9876
0.70429367,60.133694
0.6020399,60.275703
0.55174655,62.420025
0.53970873,59.954273
0.41075358,58.610527
0.4802024,60.25344
0.3761578,62.706383
0.39110398,56.979256
0.5016644,57.419373
0.37142262,57.1447
0.46958983,62.27632
0.560364,60.536602
0.47216633,64.27333
0.5887327,68.81957
0.7794352,68.79631
0.81970227,68.393196
0.9708721,72.34291
1.0894614,72.10699
1.1618236,74.914345
1.2038126,75.47827
1.3632183,77.05718
1.5701915,78.82542
1.602797,81.23869
1.6222559,86.57319
1.6842238,85.11738
1.7951444,84.823555
1.7771775,87.71862
1.7787373,90.723076
1.8777548,88.01736
1.9902954,90.00895
1.7422204,84.0067
1.8647151,92.069
1.8793813,90.14728
1.8530195,94.46653
1.8320171,89.06369
1.8739215,92.83946
1.8717341,89.56712
1.8112259,94.4177
1.8355865,93.598145
1.694674,90.489174
1.7805556,90.28177
1.6093034,86.82322
1.5343797,88.94329
1.6289914,82.19032
1.5394495,89.39707
1.536254,83.501884
1.4228724,87.53993
1.4343449,84.918144
1.4894378,82.07271
1.407171,85.72793
1.3694091,78.61642
1.4317054,80.241234
1.5150131,76.03151
1.4600621,78.22591
1.4392422,79.29735
1.3640699,80.062386
1.3548776,73.25548
1.1705825,79.16873
1.1788341,72.249344
1.2484007,73.25909
1.092675,68.48336
1.0137352,71.53925
1.0226514,73.43184
1.0011736,70.60383
0.9918948,65.96394
0.89145756,71.31716
0.87899673,61.537613
0.9533747,63.669197
0.90996,62.111935
0.8062533,63.20622
0.8735039,66.5124
0.9994666,56.67773
0.868265,62.404224
0.8724267,62.805847
0.99875695,59.365707
0.82891804,62.450394
0.9529088,60.05568
0.8734311,55.332447
0.70738035,59.04606
0.6137181,58.310146
0.61304915,58.69444
0.6462406,63.45896
0.5953662,58.443897
0.50245976,60.600605
0.62225646,65.43026
0.5719602,67.11349
0.6432381,64.05195
0.6576883,64.399284
0.59344095,62.20187
0.7696199,68.247795
0.87410516,66.07657
0.96381617,73.916466
1.0519874,71.078735
1.2218946,76.072395
1.1947508,71.97483
1.4022421,75.653854
1.5740292,75.956215
1.7395076,81.78979
1.7070278,78.946236
1.828496,79.650566
1.8532369,85.20912
1.8038594,88.02715
1.9560487,90.09978
1.9965234,91.48713
1.9211155,92.19324
1.9741576,91.07631
1.9552052,92.50803
2.0225677,94.31976
1.9717566,90.84734
1.8461915,89.69521
1.9208845,92.01285
1.9468476,95.15337
1.8234596,90.96704
1.8253199,88.398476
1.7805302,91.65237
1.8474785,89.291405
1.7289615,88.63098
1.688693,88.11059
1.6808466,89.233574
1.6257478,83.80606
1.6376215,85.86606
1.5213779,86.11309
1.4900188,80.39999
1.6360372,80.9944
1.593829,80.254555
1.515112,82.03393
1.4286741,80.35273
1.5525051,80.91066
1.3773624,78.10655
1.4103063,77.471016
1.4216068,76.46139
1.4010285,75.248085
1.3475139,74.140816
1.304758,74.233116
1.3376546,74.259796
1.2251338,76.16132
1.1407496,72.423386
1.0295199,70.00413
1.1232518,65.09932
1.0289348,66.55962
0.84562075,64.1738
1.0016619,66.84043
1.0268062,67.59328
0.8592264,67.25199
0.9144353,62.64483
0.82434607,63.204266
0.90957576,64.54674
0.943646,60.10274
0.8509659,58.4204
0.9155404,62.663486
0.8159522,57.02935
0.85494417,59.83074
0.82338786,57.91622
0.6208205,60.6552
0.6487297,60.46034
0.63506776,57.747467
0.46222043,61.38179
0.48808536,67.0479
0.37970954,59.87365
0.47653973,58.873528
0.5560653,63.96889
0.4711831,61.025257
0.5815881,63.254105
0.50931346,62.9428
0.591201,64.31452
0.7177237,69.580345
0.844532,67.87656
0.90646285,71.90312
0.9932901,75.3213
1.138862,73.453766
1.2067645,71.745056
1.3302304,77.40358
1.5197403,78.893425
1.524791,79.69014
1.6218268,79.51709
1.609233,80.6695
1.6791046,85.8426
1.7052046,86.8892
1.765485,87.461136
1.7840157,86.05583
1.7761791,88.32507
1.8181478,91.210625
1.7932794,91.626526
1.7811882,94.072586
1.7882831,93.35631
1.8159934,93.92385
1.6702148,89.03178
1.7533805,89.91888
1.7115562,95.33578
1.6155624,91.26012
1.662546,86.05066
1.6510633,90.24906
1.4510325,91.29058
1.3467605,91.29137
1.5376117,88.53727
1.435813,86.44024
1.3523886,88.47796
1.3954909,84.24213
1.3326637,82.86473
1.3479261,79.97464
1.4106582,82.61862
1.3450111,78.67593
1.2785742,83.928925
1.2357672,79.10468
1.250404,78.64625
1.2802013,78.54906
1.2831677,78.841255
1.091749,71.78146
1.0715196,75.96884
1.1007856,72.48305
0.9862075,70.386444
0.9434431,74.70368
0.84738785,72.6818
0.89416957,72.46089
0.7900322,70.64284
0.75356853,70.14307
0.68539757,60.226036
0.61833936,66.06503
0.7139919,59.364323
0.5946094,66.35427
0.6206571,67.35507
0.7045976,67.37126
0.66373235,61.41367
0.7202997,62.229397
0.6716789,61.290054
0.5685162,60.53514
0.6477469,62.252003
0.56675357,59.638355
0.43191686,62.53339
0.5452693,60.822918
0.39886114,55.744606
0.29642308,55.824577
0.26165387,57.168762
0.23608881,59.609707
0.26486307,61.716045
0.16960925,64.06705
0.19181794,64.34748
0.24388416,62.288517
0.26680762,60.69485
0.348281,71.8213
0.43899173,66.69921
0.5437611,66.1241
0.6051436,66.76176
0.6641011,72.84801
0.830458,76.31108
0.95697385,74.961075
0.91105145,71.922005
1.0812551,77.48549
1.1454494,81.34476
1.1697235,75.59841
1.2994598,80.43951
1.2186509,82.26064
1.4155806,82.06804
1.6008826,90.69815
1.5288277,84.14988
1.4650844,83.84653
1.5139571,87.00434
1.5862086,87.574486
1.5967362,92.28125
1.5661038,88.47827
1.4602978,90.92436
1.4314915,93.86091
1.3735552,90.18282
1.4664943,94.608315
1.4218353,88.92526
1.4224486,90.643776
1.2307044,85.84558
1.262202,90.954575
1.3153875,91.24111
1.2799667,89.39437
1.1481487,83.51797
1.1728419,82.741455
1.1552831,87.35004
1.1299307,85.09676
1.0445898,86.63609
0.90159094,80.26792
0.99868494,77.4286
1.058756,81.03418
0.95369196,80.01865
0.9149871,84.59593
0.9565903,80.6417
0.9410827,75.80754
0.9262418,77.985756
0.96380883,75.11909
0.891702,73.36006
0.8377619,69.5246
0.7651692,67.35252
0.7128457,71.00997
0.66132754,76.435196
0.63267094,71.69529
0.5925967,69.74722
0.42464125,66.093376
0.45462576,71.90655
0.31631503,65.37562
0.3673654,64.537224
0.3910758,65.3412
0.32968837,66.64332
0.39277333,63.89316
0.30411786,58.289658
0.47253543,61.479565
0.3891501,61.297882
0.37189078,63.719944
0.2185778,59.61152
0.23380022,59.170883
0.21595757,58.734497
0.21002501,59.454746
0.12343291,59.99525
0.07666691,59.558193
0.054514807,58.618767
-0.015835412,57.86401
0.06070538,58.38909
0.003991737,57.156048
0.033375803,61.878353
0.029651912,62.19362
0.185591,63.913
0.19334225,62.338833
0.10678491,64.263084
0.22605328,65.55729
0.38919714,66.12017
0.52107435,75.064384
0.5892624,74.166794
0.74386173,72.78502
0.87660336,75.29319
0.90004367,80.17953
0.9939186,80.34598
1.0984899,79.69504
1.1661605,82.032074
1.230802,80.60837
1.3659656,84.60544
1.4112403,85.44629
1.3397659,86.57312
1.445319,87.34879
1.3532939,91.00464
1.3873273,92.822945
1.4200056,90.94569
1.3885026,92.973175
1.2754494,87.175156
1.395916,91.93497
1.410746,91.59817
1.2976027,89.71111
1.2105799,89.001976
1.3207977,89.31737
1.1429929,86.848434
1.253427,92.305855
1.0699067,87.194
1.1579976,90.79796
1.0390272,87.565765
0.97293293,89.222336
0.95946854,86.55515
0.96052855,82.88822
0.881105,86.07492
0.945267,81.895294
0.8988038,83.64224
0.93404055,83.28575
0.9381168,82.33369
0.9349015,79.16946
0.88814753,78.34008
0.8377048,76.79093
0.8226112,71.63986
0.68874055,74.003525
0.74876386,72.04857
0.7154682,80.89503
0.62340933,76.1363
0.5636368,70.17414
0.5176242,73.003815
0.5315778,67.70128
0.51195526,70.56367
0.43438673,71.057465
0.39408004,63.488037
0.46320704,66.805466
0.4076625,63.196903
0.23584189,65.20202
0.34970295,63.68012
0.33330217,67.16241
0.36746305,58.917633
0.3069738,61.065296
0.43488702,65.29151
0.33452332,61.67789
0.31231993,61.728214
0.24824965,55.634953
0.14291821,55.241203
0.18075165,60.687042
-0.016642526,60.297005
0.07651161,56.334797
0.104668885,61.205784
-0.0052518635,59.08258
-0.060759425,63.451977
-0.07560141,60.11385
0.07967613,64.40188
0.0593949,64.57565
0.11071876,62.68479
0.13254024,60.897923
0.23404755,64.36362
0.25929186,68.17327
0.48464933,68.693726
0.585912,72.470055
0.7342321,72.18188
0.87082195,75.29261
0.86795175,76.46131
1.0611794,79.58749
1.0882671,80.95918
1.3013638,84.015045
1.1902559,84.638664
1.2668856,80.571365
1.345295,90.67821
1.3515486,87.508835
1.3401474,92.02066
1.4936466,95.90327
1.4321233,88.198685
1.5317342,86.56446
1.5223855,89.35793
1.3890551,92.21555
1.5687613,93.11854
1.4642491,90.275276
1.3730258,92.68771
1.3457505,93.0187
1.2753923,93.859764
1.4428765,96.12773
1.3838086,91.18229
1.3270553,87.97559
1.1198415,86.566574
1.0918067,89.802956
1.1553767,86.759056
1.1560718,82.69199
1.047093,88.99704
1.0760275,82.56605
1.0869418,80.414024
1.0659795,84.47442
1.0677195,81.5532
0.9546207,78.54491
1.0553315,80.44519
0.99169385,75.77453
1.0318447,78.680534
0.94166166,78.75706
0.9367862,75.65707
1.0322282,76.903725
0.8136789,75.18374
0.8669789,77.862785
0.80979,73.287415
0.70641387,71.337296
0.74465144,70.9772
0.626986,72.325745
0.5877797,71.28242
0.632615,71.866425
0.62691796,65.824905
0.48964098,62.122192
0.56255895,61.61553
0.6364854,64.35848
0.50549006,64.94279
0.6076341,63.729397
0.4167907,61.297928
0.516915,57.65772
0.50632614,61.739788
0.4622882,59.11565
0.54737175,57.732887
0.42938313,58.43412
0.44929007,60.295547
0.3629783,63.649517
0.37667027,56.84801
0.2729369,54.269947
0.22026953,59.931053
0.20153955,64.372856
0.22080605,62.662476
0.2187863,60.20342
0.23347425,62.52694
0.20950796,64.014496
0.25108245,62.9086
0.37371123,68.48111
0.4878037,63.31158
0.6383709,67.74383
0.684156,66.67092
0.83338785,71.7938
0.9649107,75.22949
1.0173049,69.67918
1.2184527,76.55621
1.2462567,77.4544
1.3559208,80.544975
1.3869736,78.17113
1.4974015,80.113434
1.5049434,83.7602
1.533277,90.10287
1.6815883,90.06008
1.6682985,84.43553
1.6940367,92.0536
1.6067144,92.33912
1.7522856,88.39282
1.6788063,93.54723
1.7278461,91.77748
1.6894076,91.10139
1.6157466,92.982475
1.6952548,94.692856
1.6626526,88.05793
1.5465049,89.42748
1.6439811,92.68015
1.4125142,87.94517
1.6137668,89.05651
1.3991507,92.48039
1.5102284,84.96933
1.4973389,83.67502
1.488986,88.71549
1.4172763,83.60921
1.2530851,83.81316
1.4031076,84.56976
1.3107522,80.19104
1.2367085,81.47379
1.2526627,79.87156
1.2818365,80.31583
1.3499035,77.66455
1.3800863,76.64074
1.2223103,78.83428
1.1856401,74.03111
1.1859715,76.44839
1.1299092,74.08643
1.059853,72.8555
1.020907,71.71766
1.0056663,72.60659
0.8874754,72.139984
0.9291892,70.754745
0.9637426,68.67634
0.81606454,70.57023
0.7410551,66.82166
0.847101,68.11395
0.7657838,64.551315
0.741461,62.625553
0.86443037,64.924
0.7918077,65.20911
0.8956484,60.907475
0.7234185,60.73396
0.765166,59.233746
0.80643207,60.14685
0.6567808,58.404255
0.61173886,60.095646
0.6000696,60.8542
0.6755366,57.26391
0.5112855,59.31858
0.51994324,57.789967
0.52213466,59.28188
0.48798028,61.722782
0.4344874,62.647457
0.53115153,63.82704
0.463268,64.5332
0.587828,63.966633
0.5983786,60.928387
0.61830795,66.03016
0.8383349,67.09353
0.9037534,69.73366
0.99537766,67.30155
1.079294,72.04916
1.1606113,73.94569
1.3182131,76.17848
1.4015806,79.56584
1.4893498,78.341064
1.6140949,83.17949
1.6809082,81.48985
1.7256469,82.76971
1.7612683,83.80471
1.7963943,82.4749
1.8802351,89.87234
1.8489877,90.83867
1.8862386,89.105606
2.034453,93.91407
1.8552144,89.57642
1.9516249,93.12151
1.9638978,89.29541
1.8248754,94.13848
1.8648711,88.70695
1.9400508,94.67661
1.9628247,91.945175
1.7967904,91.85676
1.7223865,95.8059
1.8319654,91.1944
1.7709897,83.99308
1.7319877,87.187584
1.5401971,84.35594
1.5363033,87.51678
1.4951813,86.1656
1.5941786,84.99459
1.491857,82.6631
1.5797479,83.31889
1.4808276,83.377235
1.5284921,82.55283
1.4351425,77.40636
1.3975612,79.229065
1.4002042,76.77823
1.5170262,76.36838
1.3361908,76.08848
1.3085601,76.58444
1.3168104,73.24938
1.2960625,67.98279
1.2547983,70.644066
1.2505974,71.554565
1.0837077,74.18508
1.0224483,71.352646
0.95645547,68.3881
0.9465226,70.665405
1.0657822,68.41526
0.9340948,65.69949
1.0279235,65.853935
0.895928,62.102318
0.814964,59.74466
0.9180851,63.47685
0.85622764,61.465218
0.87769693,59.698654
0.86932343,62.913445
0.84168506,59.99959
0.9588167,64.99366
0.7533947,60.522385
0.81136334,58.721226
0.7414539,56.06459
0.67980766,59.87849
0.6434316,59.349506
0.49153018,56.715694
0.63853717,56.295956
0.4563633,61.317608
0.4534806,63.467606
0.41174057,59.43533
0.60026026,61.74303
0.58540475,64.93481
0.69805294,66.17514
0.7489997,67.91512
0.8891086,70.23083
0.9038076,70.011154
1.032582,70.04793
1.0485073,70.7068
1.1747113,71.53231
1.3165166,76.28812
1.4629066,79.58546
1.6569982,77.63041
1.543923,79.28677
1.8388695,79.610756
1.8703204,85.10133
1.9613212,82.8751
1.932132,87.067986
1.9739785,89.99968
1.9339128,85.89951
1.9657351,90.18218
1.9108351,88.822
2.0440643,86.6198
2.032137,93.85091
1.9297847,93.0265
1.9352447,89.144936
1.8341973,91.660194
1.8839667,91.30552
1.8378161,91.59046
1.8276474,91.09507
1.7955565,89.12101
1.7197069,86.38448
1.7095277,89.43045
1.621381,90.021034
1.5489733,87.0692
1.6126736,87.60708
1.4386095,83.96152
1.4734222,83.52717
1.5421108,86.0425
1.3660939,81.37029
1.4269224,82.268875
1.4191316,80.19001
1.5115285,78.974785
1.4923961,80.6927
1.5035962,76.23086
1.3239406,73.77536
1.3457162,75.07925
1.2131099,74.09064
1.2686089,76.257965
1.2006718,73.973274
1.1550738,73.50224
0.9788555,69.42918
1.0490786,73.46641
0.9218075,72.58805
0.8716233,71.5161
0.85099274,67.16723
0.88990736,70.37951
0.82310134,65.88246
0.7656592,61.72875
0.8110177,61.220264
0.80665827,65.943985
0.8665831,66.15635
0.82169914,62.21636
0.68815076,62.490055
0.8397777,63.849358
0.73229694,63.572212
0.7444095,61.58523
0.76433635,59.883442
0.59855294,54.651424
0.5785223,58.590717
0.5485394,61.324863
0.4669919,66.87022
0.4280069,61.069553
0.35586882,60.513645
0.36694467,61.460423
0.37562957,62.6172
0.38464844,59.524223
0.43335688,59.881165
0.4592422,69.99212
0.5574459,64.24067
0.57208204,68.928116
0.62173057,69.45353
0.7423794,71.49892
0.9373879,69.37239
0.95306534,77.010544
1.1241996,74.57853
1.2995466,75.26378
1.2899604,80.60231
1.4145427,83.56947
1.4326289,85.23421
1.4593554,83.40151
1.4691485,85.420006
1.7133809,87.92215
1.625454,83.28286
1.659022,85.49189
1.6603962,89.06857
1.692612,92.49785
1.709999,87.21146
1.7591305,89.05313
1.750542,86.171684
1.6580849,95.06284
1.5992616,88.435425
1.5331739,90.63155
1.5232482,85.121895
1.504743,87.236534
1.5563532,90.05888
1.5567992,87.79626
1.3816465,86.59933
1.4504248,85.03888
1.33171,88.54007
1.2900622,86.430145
1.2898076,83.141914
1.2952242,86.34381
1.2351371,83.36833
1.244982,79.58891
1.1797988,83.969925
1.0839729,80.144966
1.1652974,78.32553
1.1553619,80.66468
1.168784,75.28883
1.1187888,78.94162
1.1761067,77.41
1.0769336,77.54225
0.98265696,74.64291
1.0240234,72.2534
0.9466336,70.627365
0.8832369,72.157776
0.80845445,72.70514
0.5656132,66.755806
0.6340237,68.45259
0.6768401,73.13024
0.6013666,67.69325
0.582556,68.24306
0.5772236,69.50855
0.54439884,63.364075
0.54168427,61.47131
0.60539263,67.15808
0.58024305,65.89226
0.42823738,60.791767
0.5373524,63.354618
0.5933697,60.663837
0.4664581,59.574966
0.3605206,56.1256
0.32803962,59.37565
0.42522496,58.72701
0.31323,56.0873
0.20479485,57.690895
0.15525253,60.759792
0.105872944,58.051506
0.17226774,61.917656
0.0969969,62.81287
0.061593544,62.4563
0.08109759,68.66964
0.23649395,64.122505
0.28692412,62.482952
0.272791,65.791306
0.30357867,66.430466
0.41194052,72.23474
0.5116409,72.54427
0.7231798,67.20559
0.7627488,74.17306
0.9045948,76.85678
0.8220449,76.6525
1.0200682,76.24819
1.1414893,78.13707
1.1572587,81.69061
1.267585,85.309456
1.2941258,81.50235
1.3501469,82.84504
1.3732642,90.67103
1.5253344,83.59417
1.3547186,91.50353
1.4788162,92.64101
1.4121716,94.87827
1.5492538,93.49012
1.3791473,96.58937
1.3903211,97.65538
1.3491415,91.3386
1.3925109,90.27824
1.4260532,93.52089
1.3180146,89.69761
1.1195301,86.79699
1.1131427,86.193085
1.1714498,87.658485
1.1069428,92.3514
1.1857057,84.03276
1.1265938,84.03956
1.0370536,83.406006
1.1002446,88.202896
0.95095336,83.88244
1.007297,81.17217
0.9348791,82.226776
1.0098714,84.74037
0.86120945,82.458206
0.80515295,78.85694
0.9361181,79.395164
0.794993,79.65679
0.809583,75.828476
0.7697161,76.258934
0.786831,74.585396
0.712393,71.50313
0.67337066,73.92847
0.56380606,72.83382
0.63942236,71.95994
0.5420988,73.37461
0.5572773,71.225876
0.49821153,68.56781
0.3513393,63.62913
0.4671842,66.82462
0.3301963,64.31223
0.3270833,69.255394
0.3856963,65.21114
0.31101626,61.984257
0.28615275,58.12989
0.39940998,55.42046
0.35452318,56.971893
0.32415184,62.34255
0.31435198,62.664196
0.22161406,58.174137
0.16862632,57.917
0.19941978,53.706524
0.16573998,57.35849
0.053916354,57.492676
0.051976405,56.848507
0.0075365747,60.420002
-0.041052073,61.544956
-0.07876365,62.8789
-0.015729945,62.03199
-0.12637241,62.768543
-0.05057644,63.19348
0.031360347,64.68619
0.14754964,63.515934
0.1041763,68.49824
0.40784582,65.41831
0.38245076,71.94715
0.44549033,75.03013
0.64865565,73.78526
0.7408213,79.93352
1.0730414,73.92002
1.0472264,78.49346
1.0206586,78.94575
1.1330063,82.63676
1.1752641,85.22733
1.1885283,86.22927
1.3343722,84.12545
1.332881,88.55317
1.3480589,87.8889
1.3700756,87.37023
1.3685311,87.048355
1.4144517,88.09137
1.283987,91.59596
1.3441358,87.17339
1.2562311,88.30555
1.3633125,92.40968
1.3177142,90.76043
1.2802371,91.414276
1.1887496,91.93268
1.12122,87.85245
1.1805961,92.68193
1.1715423,91.06728
1.1065211,85.64422
1.0275455,84.97902
0.95970356,85.058876
1.1485354,85.01878
0.9359386,83.93128
1.0132333,84.31403
1.0163158,81.59807
0.9693801,76.69926
0.9130378,86.10294
0.8599058,83.703835
0.8752927,83.03003
0.88238084,75.17677
0.91548085,76.70181
0.8301134,75.87657
0.87986726,75.559555
0.7681585,75.442604
0.7604489,73.913895
0.65074366,70.55828
0.66472393,68.35746
0.5227128,72.761055
0.6346398,68.95171
0.5766252,68.19384
0.45715308,71.162285
0.45960197,70.0413
0.4064576,67.8044
0.2990872,65.029945
0.4102793,67.23691
0.3372761,63.593132
0.40716103,61.188675
0.3801742,63.68706
0.417123,63.08559
0.3723839,61.967964
0.33793417,60.40197
0.31274596,57.800686
0.30526587,58.468445
0.29417646,59.631233
0.28417057,59.29244
0.15166304,59.830486
0.27384666,62.747677
0.0441298,61.573128
0.26444772,56.57544
0.0824769,60.730377
-0.01500663,64.88389
0.10498052,57.29222
0.089894414,64.15362
0.06486803,63.56296
0.23340032,64.87698
0.40353858,63.31562
0.41795522,67.02731
0.53073406,69.64097
0.6580056,69.84042
0.73916084,74.99248
0.81083524,70.979355
0.9310635,76.94987
0.9985351,78.145355
1.0815676,80.198975
1.2924625,80.33528
1.1691147,85.32159
1.2800584,85.02496
1.4161438,84.661575
1.3548306,86.89867
1.5531462,89.51823
1.5430781,87.54209
1.5137526,86.78093
1.5057647,92.990906
1.5894831,87.51173
1.6077303,90.3871
1.5738133,93.44106
1.5555676,91.47639
1.4512596,90.309784
1.2982215,91.02347
1.4830735,93.83662
1.3782305,89.75815
1.5287791,90.178635
1.263643,92.02907
1.2676213,84.37705
1.3021197,86.66629
1.2797945,90.21179
1.2058161,90.33168
1.1970346,88.678474
1.2376819,84.64566
1.2492472,83.059906
1.2220869,86.7097
1.1995153,81.70025
1.1465892,84.04206
1.1703699,79.917015
1.119486,75.22748
1.1117765,80.50965
1.0515863,79.289856
1.1167003,78.00578
1.091843,76.044754
0.9832947,71.60796
0.91254085,71.458046
0.8764294,74.22004
0.77859837,68.38978
0.7130331,69.82675
0.72588956,71.4482
0.7622132,65.40339
0.7874496,72.62258
0.73331755,66.52912
0.6099225,62.99275
0.5622985,70.922554
0.68458915,60.49023
0.5546548,65.730545
0.62140524,62.40639
0.6034314,62.058186
0.6909807,64.94793
0.58308446,57.28713
0.604753,60.080013
0.61198235,61.87739
0.48719087,54.4488
0.48317102,53.445126
0.36480093,59.705364
0.4821941,58.383587
0.34539723,63.312866
0.3821985,62.54674
0.37595198,64.28645
0.32918513,61.758343
0.26637805,59.84226
0.3046074,63.349525
0.40508744,65.734726
0.47633237,60.808205
0.507866,61.873398
0.5812778,64.20706
0.6870727,60.878983
0.7938251,71.53995
0.9496481,71.631004
0.8537765,73.6129
1.1393285,76.3823
1.2092612,73.85028
1.2379773,78.877785
1.3944565,79.62567
1.4719337,79.93092
1.5942605,84.127625
1.7097974,87.519554
1.6737581,89.579025
1.8270974,85.888054
1.8519737,87.89066
1.7011563,92.685555
1.8212541,91.54623
1.8761103,88.24478
1.7869319,90.29816
1.8134524,91.245445
1.8728137,90.35031
1.8473822,91.566795
1.7606949,92.26886
1.8454129,89.23176
1.7068614,88.74706
1.73249,88.28397
1.6291044,87.78957
1.6996045,92.462746
1.6157633,84.25886
1.4830556,90.94093
1.5048035,88.641464
1.4798928,86.91937
1.3880345,84.11662
1.4673717,86.24088
1.3564811,87.70744
1.4701734,81.332016
1.5306175,83.82645
1.4453082,83.85097
1.4398198,81.10792
1.4081529,78.68394
1.3772215,85.37251
1.401977,73.7647
1.3120108,82.25934
1.2349771,76.9158
1.2168579,73.757935
1.1751107,78.78473
1.0668299,73.325066
1.0964043,70.03242
1.0943748,70.4187
1.0400201,67.68861
0.9489416,66.71961
0.9154598,67.52494
0.9361416,70.59602
0.8701887,62.64969
0.8809834,65.72834
0.8349664,66.27183
0.9526092,64.863434
0.8655919,58.72545
0.87554747,62.057434
0.80969894,61.342056
0.9383556,61.9814
0.8626034,58.887825
0.7536998,58.09033
0.7049766,54.372314
0.6800329,57.126186
0.73011744,55.356827
0.71028286,60.362263
0.59550977,56.66481
0.6203151,59.60697
0.5276685,58.813057
0.5965677,61.54527
0.5651166,64.65577
0.49526528,60.6906
0.5660261,63.01699
0.6068411,69.28499
0.68364006,66.89976
0.7831559,66.43825
0.82500917,64.451126
0.9546054,73.7592
1.0151943,71.38678
1.1197026,70.103
1.323351,79.19217
1.3978491,74.49509
1.577954,78.53345
1.6386966,82.42746
1.6532536,82.33392
1.7681158,82.729355
1.8381833,83.30196
1.8968911,92.11392
1.9694769,89.21393
1.9307173,90.67558
1.975838,93.61842
1.9157976,91.62881
2.0564315,89.24983
1.9800825,91.366455
1.8720762,93.03072
1.965189,88.03999
1.9112825,87.69662
1.9317816,91.33038
1.948342,93.72934
1.9063858,92.58772
1.8895313,90.06832
1.7283458,91.0144
1.6622083,95.74347
1.8591872,91.888596
1.7258123,91.64198
1.6524129,83.506004
1.6192864,85.14626
1.6234152,85.83157
1.4623917,83.83754
1.5199331,83.88831
1.5217421,83.7187
1.5078748,81.84242
1.5044233,80.193474
1.4779365,78.553
1.5041705,77.731804
1.4214014,76.694374
1.3751878,78.79011
1.493868,74.00144
1.2655157,72.67111
1.2964549,70.419876
1.3468481,75.2626
1.2351736,71.926384
1.0985897,70.294495
1.1067111,64.90191
1.0898789,73.9163
0.88256896,69.368286
1.0314107,69.26283
1.0436196,65.917786
0.8599617,61.783985
0.8122777,65.98169
0.91866004,67.33913
0.83808815,64.53494
0.9219372,61.996983
0.90159637,61.410915
0.8177538,61.524693
0.82245976,64.18429
0.76228225,62.947495
0.7525099,55.943867
0.8220395,64.017235
0.76171786,59.80707
0.812235,58.083706
0.6699535,57.570595
0.48698035,64.46263
0.55989575,55.363148
0.5489472,58.59393
0.4895072,65.62185
0.60891056,62.20459
0.47952497,65.879196
0.527553,65.59699
0.5871253,63.308292
0.74398816,63.564034
0.79203707,63.94477
0.83754915,69.906334
0.93612134,70.4887
1.0677968,75.763306
1.2401543,72.13848
1.347704,72.329605
1.3470579,72.43502
1.5004826,76.86519
1.7212294,80.72575
1.7213778,83.35069
1.603315,86.509766
1.6917727,85.123184
1.8442047,86.93891
1.7153547,86.21714
1.8597072,85.80067
1.8852391,90.548355
1.871135,90.3689
1.993212,91.88735
1.9108953,92.47993
1.8707548,91.49993
1.7668682,96.396095
1.7926747,91.05273
1.8467029,88.609856
1.8316189,92.59338
1.7356158,90.071175
1.7493474,91.09147
1.6140561,89.52921
1.5265713,86.68149
1.5596079,85.929726
1.3887857,91.67683
1.5521864,87.9065
1.4053242,86.265945
1.4247049,83.92509
1.3947246,85.51831
1.3508047,85.22602
1.3711689,81.99497
1.3739371,81.75746
1.3968272,74.559746
1.3336703,82.25408
1.2773405,78.64987
1.255765,79.21352
1.0815488,74.97145
1.1741455,74.50398
1.272848,72.32041
1.1524422,74.0059
1.0900236,73.826935
0.9431668,74.68028
0.9352377,66.82156
0.9450805,68.38612
0.8916003,69.735146
0.7711499,70.12339
0.74776536,69.352516
0.7611383,63.653214
0.7568884,65.463326
0.6673889,68.72892
0.71034634,63.18097
0.6803037,62.891315
0.7359563,64.20199
0.5746629,59.778023
0.563546,61.99691
0.5881539,62.394104
0.607293,58.76055
0.5994668,64.048355
0.54686654,60.182663
0.37902564,56.765926
0.49359894,58.026485
0.45130032,58.18771
0.33225527,58.58453
0.29167667,61.05324
0.32037956,59.730618
0.22512063,58.459538
0.15218195,58.115513
0.37517256,61.6904
0.3192093,66.966995
0.4240854,60.55117
0.4980269,67.056305
0.5232381,63.1122
0.6384552,63.9268
0.81601757,76.059456
0.89409393,70.11999
0.9986412,75.4923
1.0281906,78.57762
1.1901366,79.37059
1.2560034,78.96364
1.3863711,80.506645
1.3751959,84.27773
1.4279388,83.60754
1.420753,87.37707
1.5046933,86.99571
1.5884628,87.663666
1.6021134,89.995285
1.621011,88.33631
1.6530942,90.032616
1.5857868,90.597015
1.5752294,88.25908
1.5350863,88.29298
1.5795376,87.89988
1.4618986,93.62845
1.4862504,93.92878
1.405861,88.39915
1.4609536,90.063446
1.2364732,89.35169
1.3818225,93.892166
1.263666,87.19903
1.2311535,85.83396
1.2695391,84.82385
1.164555,87.55262
1.0896441,88.936134
1.1522439,88.78417
1.1451926,82.38244
1.0882328,81.5542
1.1257174,79.94633
1.0888872,80.10495
1.0756243,81.99097
0.98795164,80.22587
1.0030735,79.658455
1.05455,75.56649
0.92521405,76.50808
0.95721585,77.72167
0.8930791,72.761505
0.9091215,72.50613
0.7265889,75.18809
0.71704894,71.31531
0.658782,78.06677
0.5205274,66.19305
0.5611855,62.98721
0.46513775,66.17227
0.505815,65.40426
0.47839123,68.81864
0.4016918,63.504536
0.46463218,65.11442
0.40140346,61.021503
0.3696785,63.196228
0.35371965,60.709885
0.30588454,60.4412
0.37328288,62.061813
0.4437906,64.92072
0.28195885,61.031975
0.26661894,56.38271
0.16746348,60.81917
0.18139237,56.00845
0.15060483,58.284416
0.12419644,61.481632
0.092533536,58.189568
0.12783432,64.04995
0.024657434,63.068886
0.12719165,60.06266
-0.024353264,62.867664
-0.038928732,65.856186
0.049360108,63.50486
0.13157849,67.276306
0.24115339,66.48365
0.2762866,65.683624
0.40337566,70.45566
0.51771325,73.63715
0.5838858,71.197586
0.8281299,74.22445
0.95119774,79.29847
1.0039976,80.546364
0.9412327,81.02135
1.1684903,82.955536
1.1926496,87.1277
1.232853,84.24053
1.3533019,85.35634
1.337517,86.59834
1.3116523,90.9992
1.439721,88.701454
1.2883589,87.153366
1.4464028,89.82914
1.3648405,91.65474
1.4385055,91.60151
1.5276551,93.00502
1.3081027,88.77902
1.4140617,90.60652
1.2820286,94.105705
1.3304368,91.76145
1.2637256,90.669586
1.1535295,89.012474
1.0683699,92.81147
1.0381,91.764084
1.1018432,84.167
0.9939765,87.89124
1.0436647,87.58516
0.9418578,87.35293
0.8788577,83.353424
0.93045175,78.16166
0.8336518,78.39161
0.913555,86.11825
0.9730733,77.144295
0.8830151,83.18607
0.8935708,78.526184
0.9081762,79.3709
0.81623465,78.91741
0.89873976,72.675156
0.6346668,72.859215
0.71229196,73.667496
0.6664339,73.63094
0.5524527,71.51156
0.6006856,70.40581
0.42933184,71.82226
0.43412817,71.426605
0.44212395,64.67792
0.47717008,70.38711
0.3584594,66.90516
0.35673857,65.37626
0.28497165,69.07717
0.2732188,65.04258
0.39987075,63.504845
0.29419336,62.887592
0.3396194,63.847458
0.42046684,61.735775
0.273411,60.146885
0.3422974,59.879074
0.34495217,60.04063
0.2080802,58.543835
0.1027595,57.878933
0.13338476,58.138813
0.12114176,55.451286
0.108057134,64.58859
-0.00018025142,60.40293
-0.073415734,59.819313
0.0018465212,63.21808
-0.053194657,61.11819
-0.046058174,63.441444
0.10689859,61.80743
0.03405666,66.07993
0.06726591,66.04551
0.25085533,65.034485
0.318898,71.73454
0.46311364,73.13033
0.54433525,71.01608
0.7819509,73.108955
0.80138034,77.74497
0.8802138,78.284515
0.9795308,80.05358
1.0779706,79.19683
1.1344326,82.62144
1.2146957,80.73242
1.3236413,80.04391
1.226889,87.24458
1.3411016,91.30368
1.4998893,88.708626
1.4654868,90.24174
1.3603437,89.49071
1.4464686,89.29541
1.467895,91.174866
1.4419202,92.13851
1.4179481,91.79689
1.405131,92.21636
1.2404947,91.30203
1.298311,90.257935
1.2808101,88.51838
1.2880007,88.83011
1.2073903,91.80533
1.2120767,88.91075
1.1186154,88.83952
1.1214153,90.097084
1.1699985,87.79729
1.0998544,84.534706
1.0119714,85.334724
1.0885669,86.25884
1.0537007,84.66939
0.8686696,84.06377
0.98579454,79.70642
0.88705325,78.89932
0.9838567,78.42095
0.9542649,79.422356
0.9327957,76.45393
1.0562433,84.23078
0.85555714,77.64369
0.84938914,69.490685
0.9334513,70.48198
0.7590785,72.52682
0.771948,72.73965
0.6870311,70.85417
0.6027475,70.21038
0.5585036,73.8615
0.5949059,67.772766
0.5548475,66.400795
0.5862662,65.12957
0.5751785,68.51431
0.47150573,64.671646
0.4052965,63.101524
0.5016393,65.51123
0.49938816,63.05447
0.50525194,64.92171
0.5179399,58.501865
0.47856978,66.43993
0.46054742,55.595303
0.48512354,62.8011
0.35412046,58.310905
0.3953214,61.23804
0.33717376,59.60013
0.32992905,56.562416
0.17503063,58.05653
0.13369405,61.538372
0.28119317,64.60984
0.08337808,63.209377
0.29573062,61.08089
0.23745021,65.61486
0.2132106,62.80003
0.15119073,62.359364
0.31084934,65.87572
0.3618319,66.09658
0.61065143,64.46452
0.6332978,69.445816
0.76372176,73.076965
0.8404265,71.79833
1.0634688,78.43606
1.1149993,78.923584
1.2896926,82.12613
1.3563744,83.338974
1.3658488,78.69484
1.5095189,79.553635
1.4027368,85.29028
1.5444173,82.170746
1.608255,85.051414
1.727112,85.94002
1.6259104,90.437035
1.6541154,86.099594
1.7836062,93.00822
1.6927415,93.15654
1.4764113,92.76399
1.5935115,82.29566
1.678978,90.795525
1.5748953,89.7005
1.6312269,92.97911
1.5677966,87.60057
1.3909779,91.555115
1.4126433,86.88565
1.4846306,86.74494
1.395879,91.74666
1.4115657,90.391136
1.3928757,83.922386
1.3218486,85.245445
1.3367268,86.600395
1.3570669,85.76583
1.3262144,84.436554
1.2551147,78.61364
1.2836356,79.60826
1.2898203,81.0547
1.2212818,81.293625
1.3149866,77.44945
1.1752405,77.116066
1.288083,76.83082
1.2096303,74.9052
1.1787527,76.44872
1.1517061,76.26427
0.9889774,72.83316
1.0303732,75.09969
1.0439498,69.34766
0.940169,66.91842
0.7991514,70.822266
0.757522,66.91605
0.8004184,70.91412
0.7553291,68.21988
0.6370814,62.135986
0.72261333,70.87499
0.6714698,67.44411
0.7832556,64.70164
0.8046788,63.417313
0.83175236,65.76454
0.67227346,59.878174
0.7244906,56.955303
0.7579002,57.577232
0.7500696,54.720932
0.59131277,55.797863
0.6689852,59.203323
0.56528276,58.098534
0.4830811,61.6837
0.5413307,63.371346
0.45550033,61.75513
0.50954705,62.002235
0.51324165,60.919083
0.40965974,65.93135
0.5687589,63.58149
0.4269877,65.19619
0.44975948,62.77776
0.75215924,68.51495
0.7096122,66.8307
0.8098716,72.74216
0.96736443,69.013405
1.1474524,74.383095
1.2508492,79.56047
1.2576863,73.70731
1.3858504,78.57821
1.5510596,84.04842
1.7239875,80.78119
1.6950344,78.643684
1.8010567,86.39298
1.8148595,83.61944
1.8311179,84.103874
1.9249982,90.09365
1.9616848,90.96932
1.9953692,87.87727
1.886327,92.03602
1.9977698,90.690834
1.8806092,92.45981
1.9560803,93.8964
1.8397031,89.838554
1.8552412,93.24897
1.8199453,91.26936
1.8368964,91.2222
1.7245449,88.01094
1.7728598,93.73117
1.6600633,89.68645
1.740705,90.0029
1.6196842,89.93547
1.7774565,88.8019
1.5741574,86.7446
1.5673658,89.36773
1.4455199,85.367775
1.4356704,81.88935
1.5691687,84.59008
1.5151575,81.83226
1.4397217,80.156555
1.4635731,83.60717
1.4697478,83.13754
1.3966537,78.1769
1.4343226,76.006645
1.290594,78.23584
1.2896755,79.52521
1.3814509,77.573296
1.2726344,75.05284
1.208304,72.86325
1.2518417,73.524445
1.2251809,68.934845
1.0350047,73.39726
1.0096943,70.30621
0.980179,66.87482
0.9301187,66.05709
0.9525048,64.92042
0.89129466,66.77223
0.95816445,65.38799
0.9023327,66.180916
0.88247377,63.95931
0.84249043,60.516052
0.8132045,60.68089
0.95812416,67.563286
0.9584018,58.11737
0.9160214,55.87329
0.79906857,62.525772
0.7274413,59.235046
0.7598213,58.06743
0.6456538,60.20073
0.6866452,62.106953
0.6729693,63.497295
0.60898346,60.43314
0.55189633,58.734203
0.50433946,63.468468
0.61666274,63.364613
0.5785522,63.431408
0.64778227,63.702377
0.71589977,70.90239
0.65769905,63.435722
0.9146946,73.37517
1.0040324,70.5512
1.1169003,71.60769
1.2315072,70.09627
1.3487453,72.15183
1.4027803,77.178856
1.5539659,78.03746
1.6196498,79.4568
1.6771264,79.581215
1.7929231,83.29519
1.8055377,86.86626
1.8407036,88.41191
1.8923972,82.37981
1.854051,87.32077
1.8850989,83.16568
2.0450432,89.30341
2.0383096,93.55037
1.8656086,94.2574
1.8231459,89.90828
2.0056217,91.31366
1.8907816,90.745964
1.7987536,92.176735
1.867695,90.82867
1.8327929,91.24087
1.8071872,86.78791
1.757278,87.85427
1.775875,83.52903
1.57824,88.673134
1.6353353,83.89727
1.6599195,88.820885
1.5920924,85.42516
1.5639579,83.77611
1.5890702,89.63696
1.5663096,82.51727
1.5032759,83.75643
1.4971325,83.63597
1.388429,80.38425
1.4328547,82.16533
1.3870857,74.76429
1.4070035,76.702484
1.3839508,78.11847
1.3381851,74.480446
1.2879183,72.2331
1.2573284,75.28187
1.1743814,73.607994
1.1853575,69.01196
1.1940758,70.86185
0.9748424,64.97634
1.0450194,71.541046
0.95593023,66.53113
0.99975526,69.62681
0.83273065,66.38365
0.976841,66.67889
0.7878804,66.24165
0.8562466,62.44173
0.83286124,62.67938
0.9073402,65.04486
0.7850948,54.48212
0.7662218,62.867157
0.8569931,59.077217
0.6313074,58.963917
0.731145,54.180565
0.8322746,57.22773
0.66820496,56.687477
0.6297213,57.88787
0.54769987,61.275574
0.5546424,60.041138
0.547363,57.945168
0.32886347,57.511185
0.42656076,61.866802
0.42985475,62.354465
0.35438094,61.157948
0.48790246,60.79973
0.5969998,60.883938
0.59958696,68.054375
0.5815531,64.45631
0.800173,68.043915
0.8485604,70.587204
1.0104859,70.12167
1.0957179,73.1752
1.1584451,74.63909
1.2404113,77.90033
1.3071072,79.42372
1.4030169,81.64165
1.5839107,83.87877
1.5481246,77.098656
1.7077792,82.5654
1.7327994,78.27041
1.6697046,86.44057
1.6822805,88.230545
1.7049387,86.67374
1.7636851,90.99389
1.6938789,94.22931
1.653697,91.69731
1.7647334,90.95882
1.7148857,91.52373
1.6918405,88.34884
1.6292444,86.30958
1.763326,91.35506
1.6844863,90.5841
1.6128045,91.9366
1.5095665,88.33176
1.4896868,87.38246
1.5172942,90.97912
1.3913897,90.61957
1.32168,83.80714
1.3135121,84.295815
1.3751144,84.98761
1.259016,78.10738
1.3052943,82.990875
1.2473718,82.03237
1.1904026,80.07008
1.1936382,79.94105
1.2129552,79.91798
1.2287223,80.30129
1.1335295,75.48825
1.0465162,75.148766
1.0749015,75.86065
1.0984877,73.02745
0.8869505,76.632614
0.9028092,72.972244
0.9230281,72.82689
0.8103104,71.248314
0.79788435,72.06077
0.80841345,69.474846
0.72149974,70.42909
0.6504547,67.891685
0.6334484,67.04782
0.52199167,61.91971
0.6299648,65.68381
0.5098481,64.484856
0.55084723,66.53333
0.6733219,65.27651
0.57672596,59.170673
0.5424413,59.926617
0.4843074,59.98198
0.57702583,63.25379
0.48479792,60.605686
0.4135533,59.712135
0.38443404,55.14461
0.3269234,58.37316
0.2500667,56.16575
0.18687044,56.45534
0.13154264,56.194275
0.20038098,57.9997
0.095653646,61.222866
0.09332978,62.92703
0.055325963,62.51417
0.20279963,60.04959
0.23879781,62.482677
0.30468088,66.75
0.37121218,69.78424
0.5776692,61.163475
0.5090303,65.879715
0.62585694,71.49267
0.84557444,72.81755
0.8732993,78.4107
1.0333741,78.93238
1.1336026,76.710106
1.2132638,80.025566
1.1418486,81.90922
1.3816667,80.42967
1.3821524,82.88785
1.4209307,89.87045
1.4933534,89.50431
1.6031116,93.31649
1.52496,93.29884
1.4364468,91.57853
1.4500039,93.657585
1.3852378,93.56642
1.4016066,86.88655
1.4546012,91.43594
1.342053,92.83513
1.5000328,93.732605
1.2967823,87.60915
1.4289502,91.979515
1.3294705,88.90645
1.3375831,88.7994
1.1939049,92.86842
1.1055486,88.29844
1.1572107,90.084335
1.121144,82.896065
1.1494209,84.9596
1.0499662,83.39661
1.071843,87.48198
0.98923564,82.92313
0.945374,84.617714
0.9845682,78.20423
0.9481931,85.46894
0.95682514,79.34832
0.7999783,78.58667
0.9199833,81.867
0.74052876,73.801605
0.7970586,80.57614
0.8260153,71.45882
0.64962274,72.698555
0.7011281,71.29163
0.6853857,71.924385
0.58303994,68.977104
0.5264199,78.69879
0.51832587,68.015144
0.50321275,65.96221
0.3953085,69.07218
0.34074765,65.56679
0.38201356,63.3968
0.3614153,69.77689
0.41948628,64.08107
0.4082543,66.83769
0.337569,62.193386
0.39158282,63.24251
0.2663942,59.894863
0.32693827,59.745903
0.31989694,63.299454
0.268811,65.45762
0.25839582,56.53302
0.025755836,54.65588
0.11572511,64.35949
0.08009054,58.49105
0.055075243,60.859676
0.0014705173,60.67847
-0.07692314,59.09864
-0.0812151,63.173405
0.009025072,62.563442
0.017020464,65.504745
0.028924784,67.52083
0.054854814,63.631557
0.10881084,63.449276
0.28310272,69.85389
0.32007346,66.59986
0.40628994,75.281784
0.5184271,73.1094
0.7020158,74.2537
0.7615037,80.21439
0.9491604,77.578
0.9811227,82.7111
1.0485835,82.18773
1.1194239,83.76646
1.1352413,84.84441
1.2405427,82.8316
1.2929008,87.58478
1.3423651,89.504265
1.4390217,88.194756
1.3085816,91.74748
1.2671509,92.05041
1.3557476,93.7663
1.415332,89.60219
1.3182276,91.63475
1.2957222,85.76878
1.2989243,90.48305
1.301987,89.86911
1.2349393,92.3627
1.2305417,91.833176
1.280053,86.70457
1.1063732,85.06209
1.128537,87.80731
1.1212254,91.23555
1.0701963,86.98081
0.9990085,88.81396
1.0405625,87.20737
1.0511079,87.51727
0.90086836,79.649376
0.85811,80.56259
0.9394408,83.28732
0.94651514,84.597496
0.8901462,75.616806
0.8281753,78.39017
0.81856644,80.71155
0.81056243,76.13198
0.8541938,79.53959
0.81928724,78.28381
0.78579754,79.94659
0.62810683,76.10144
0.7320629,73.80864
0.69983095,67.80525
0.52196884,67.04012
0.58991694,69.74272
0.5313277,68.75044
0.43847972,68.26815
0.33321473,70.39205
0.42185882,65.654434
0.37464216,63.100044
0.31874374,61.02819
0.305593,65.911095
0.41013184,62.727966
0.31096798,59.38394
0.34416994,60.476383
0.30877584,60.50938
0.28914165,63.692123
0.35246253,61.246128
0.26224846,60.681725
0.25760084,57.284004
0.26954025,54.82956
0.17837025,59.614517
0.07417778,58.49028
0.14565451,63.57468
0.025560787,61.87398
0.021598773,58.33739
-0.09948726,62.680725
-0.02546752,63.13871
0.15680546,64.28432
0.11623763,65.30804
0.13332969,69.150635
0.18308765,68.63533
0.393319,71.47368
0.40846318,69.98025
0.5339618,71.658295
0.750155,70.04194
0.7568035,74.86997
0.8983423,78.657745
0.9709983,75.64655
1.0099093,79.19329
1.2021368,79.684784
1.2142675,83.88653
1.3499882,80.2203
1.4077237,85.0146
1.5211048,84.61726
1.4343101,87.726555
1.5047393,90.360634
1.4287969,87.95594
1.5180931,90.47178
1.56098,95.810905
1.6421096,89.94165
1.5250864,92.78804
1.4577467,90.12472
1.5245848,93.7636
1.3159981,89.09849
1.4220254,95.28262
1.2433571,91.12735
1.3000913,87.2594
1.3402907,92.739075
1.2283552,92.68505
1.0442218,91.79627
1.287143,87.52611
1.1867372,85.736916
1.2437282,82.91973
1.10521,80.24676
1.2474633,82.37149
1.0953978,85.68169
1.0524597,83.92778
1.0058299,86.563
1.0449238,76.66492
1.0392653,76.320465
1.1241157,74.851295
1.0598682,81.00155
1.0062134,78.19938
0.9679876,73.900185
1.0473634,76.844055
1.004844,70.200035
0.8253336,75.722336
0.8059518,74.57554
0.81084454,71.579315
0.74934727,68.44382
0.7461746,69.84937
0.6453484,74.156525
0.60343605,67.66224
0.54200053,67.73464
0.5520918,66.85089
0.5415483,64.94702
0.567084,65.79464
0.56868064,65.66982
0.55682766,63.13313
0.5530532,60.747803
0.56433797,63.949627
0.60746306,59.574753
0.44519725,56.309494
0.5562002,60.713997
0.4665288,60.954506
0.45499325,61.576103
0.29482323,60.409435
0.3666336,55.334198
0.30332118,55.81598
0.40733746,59.267376
0.2047941,63.509995
0.22567971,63.343777
0.17947909,60.043293
0.24208027,62.066525
0.39811885,66.145035
0.3228081,62.590347
0.6279411,66.00557
0.63572395,70.3756
0.67357504,72.569
0.9692179,69.652176
1.0379374,72.826935
1.1334112,75.30642
1.1618413,77.697
1.2262067,76.23016
1.4074525,80.33663
1.4282972,80.963585
1.5434374,85.97399
1.6356934,85.4834
1.6647913,84.26146
1.7079068,86.76598
1.7433811,88.76024
1.6578125,92.54227
1.7781866,89.705864
1.761179,84.66461
1.8042325,88.24356
1.6858628,90.936455
1.7755408,88.67119
1.805201,88.720085
1.671961,90.21987
1.5887871,92.02336
1.5989921,91.44929
1.6655319,92.58839
1.5577384,87.533646
1.5430549,88.74672
1.5403401,89.035736
1.5589787,86.470146
1.5156773,89.11838
1.3911804,85.96212
1.498149,85.88822
1.3791184,83.654526
1.4452225,82.55893
1.3737949,79.34826
1.3352175,75.79986
1.353738,81.828064
1.4311577,76.18538
1.3807446,78.74849
1.4172671,75.16416
1.3422933,75.344604
1.3316872,71.71211
1.2514879,73.24827
1.2449355,74.2984
1.1137335,75.625534
1.1231496,75.48943
0.9989326,74.559494
1.1491146,71.795135
1.0102236,67.09368
0.93750066,70.77627
0.92799765,65.248604
0.92456317,65.04412
0.87922084,65.848015
0.7813506,65.0909
0.8360885,65.40241
0.83011127,64.77712
0.895444,63.22403
0.8842236,62.42834
0.8717616,57.984364
0.71842194,60.11331
0.8073079,63.839706
0.7890742,59.49278
0.81323665,59.971367
0.6663144,61.983437
0.72038895,58.57914
0.60976166,62.71891
0.5764831,59.4993
0.50656086,60.593777
0.55116963,57.30495
0.40830272,56.969913
0.554544,57.54374
0.5368252,62.43946
0.6219016,62.038757
0.6252573,66.5833
0.44917956,67.1212
0.74168944,70.96374
0.84489506,69.80679
1.0479096,69.68903
1.1092856,73.180855
1.1317215,73.26616
1.3401477,78.209015
1.396091,75.54819
1.5896826,80.52625
1.6231129,80.387665
1.6621883,81.390015
1.7459426,83.65858
1.8393202,86.42405
1.7645259,83.1695
1.9805241,84.98771
2.0078626,86.71516
1.8445572,87.59803
1.9687303,87.04065
1.996601,91.29329
1.8229487,91.49694
1.9779605,88.47609
1.8931429,90.74241
1.9349425,87.399994
1.8601341,94.00814
1.9400917,94.53809
1.834185,89.89775
1.8350058,92.4229
1.6666245,92.43027
1.7192682,88.25293
1.7621813,87.449974
1.614607,89.0991
1.630553,86.09048
1.6781738,87.959885
1.5921024,84.50261
1.6560549,81.68697
1.5935757,85.230286
1.4505057,85.128815
1.476195,79.91137
1.5223957,77.878944
1.6265972,88.05632
1.4462463,78.81679
1.4200795,76.84173
1.369635,75.280334
1.4254712,75.79317
1.3259903,71.88086
1.2054675,73.43891
1.2208712,76.938805
1.1755955,73.43206
1.1294599,73.27757
1.1775709,72.260056
1.0328687,68.67314
1.0478865,67.43269
1.0789369,67.607254
1.0909405,64.100746
1.0451437,66.33321
0.92479706,67.41862
0.9468126,64.54705
0.9311204,58.187725
0.85917497,60.10187
0.9835253,61.56501
0.94278234,59.829597
0.9136517,58.391747
0.9347816,65.22266
0.89539593,57.45773
0.77881825,57.960445
0.7383226,56.83366
0.68119097,57.72111
0.62716836,61.326538
0.61573035,60.639446
0.6719857,58.72526
0.59479916,57.666855
0.5339532,57.610233
0.5289644,58.3592
0.62866503,63.88656
0.60916555,64.68089
0.6415115,68.34344
0.70974004,66.16258
0.7678452,67.0102
0.9480801,69.12011
1.064102,72.342514
1.108517,70.72128
1.348706,73.074646
1.3863608,75.390594
1.5101832,74.54776
1.5646597,78.26049
1.6726911,78.8564
1.5867953,82.62942
1.6598145,82.09418
1.7184982,86.49437
1.730375,87.150635
1.8502434,86.91614
1.7729445,89.19809
1.881302,88.914696
1.8381418,87.26151
1.9062226,91.805214
1.9145164,88.22161
1.9173025,92.080894
1.8870451,90.49673
1.7817352,90.254074
1.8880796,87.98728
1.8158859,90.917816
1.7047603,90.63505
1.8480604,93.31313
1.6228386,89.919556
1.6386032,86.13831
1.5243486,92.27206
1.4786401,88.69957
1.4976339,88.18647
1.4209497,80.695854
1.4845364,84.61711
1.458911,82.612946
1.4777648,81.056465
1.4715976,80.85714
1.4325253,80.06427
1.2882195,76.88418
1.3385274,79.48126
1.247552,79.71529
1.2623752,77.19737
1.3405149,79.26751
1.2013023,76.36658
1.1748124,76.51888
1.2046311,72.80403
1.0551702,74.63445
0.9912346,71.19227
0.9227976,70.70695
0.89324665,72.266014
0.9120324,66.50609
0.81337124,65.52614
0.77871597,64.78649
0.7753865,68.39812
0.7785312,65.97068
0.63209003,65.085045
0.73724633,64.82468
0.8744541,62.678585
0.724947,63.399967
0.72383153,57.708157
0.7171694,58.255184
0.6845848,59.173107
0.63645166,60.874123
0.5981304,62.112
0.5858404,54.269157
0.52199745,61.493935
0.51169705,59.893036
0.35604513,57.866993
0.38258326,61.599743
0.39507508,60.358196
0.3026124,58.730408
0.25067177,59.979935
0.33471045,59.847485
0.44475257,61.26365
0.39218566,66.87461
0.5588366,64.49066
0.60196674,68.27882
0.59781253,66.38137
0.76521057,70.867935
0.8109296,69.49193
0.9330907,71.246216
0.9612588,76.73397
1.1128337,74.802086
1.2482574,72.362
1.3036221,81.55458
1.4187849,80.77844
1.4701077,86.565384
1.6585441,84.47479
1.485476,86.83081
1.5754747,88.49077
1.5834503,88.00592
1.6432935,90.254166
1.7255315,91.4893
1.6787108,90.31956
1.6176988,88.69808
1.6930695,90.77723
1.6510721,90.29497
1.6518314,89.93261
1.5477041,87.35013
1.5791078,91.60745
1.5836716,89.93593
1.3289448,92.27405
1.363936,92.47817
1.345442,89.073296
1.437025,90.67283
1.3983663,87.53274
1.2072839,86.089745
1.2296108,88.132256
1.1775327,88.78215
1.1140436,81.98645
1.209848,89.56983
1.0867035,84.99571
1.0958236,80.90641
1.1076384,78.7978
1.0688446,82.290054
1.1263126,79.457924
1.108975,74.725876
1.0292995,74.55881
1.1091224,78.97323
1.0763733,78.43067
0.82995343,76.701
0.826526,72.57311
0.86301816,73.44701
0.7539533,74.28939
0.7459267,70.67696
0.61319685,69.86196
0.5832038,66.75314
0.5380118,67.78838
0.5728346,62.452347
0.4724187,66.99004
0.38510674,61.99889
0.39360684,65.097374
0.48412845,61.132725
0.42569354,68.20213
0.4653512,59.92642
0.45117375,62.661545
0.41721973,58.56026
0.3956965,59.79172
0.36065838,60.959927
0.2887577,56.54082
0.30230737,57.413246
0.18328835,55.204304
0.3135479,59.61529
0.24785216,61.838463
0.14966512,57.639477
0.18355533,57.023563
0.12013372,53.707424
0.031598922,61.542133
0.11921871,64.97454
0.12219846,64.47892
0.23307492,67.26821
0.10644543,62.263435
0.285888,63.86545
0.43184653,69.56734
0.40668118,67.77735
0.5869623,71.02574
0.6631147,72.50098
0.8349333,73.46019
0.907319,79.87985
1.0438741,75.99503
1.0935652,86.33563
1.0777682,81.59952
1.2199986,84.33252
1.2362461,84.730156
1.3351822,87.34124
1.2496464,83.71402
1.2875736,86.27023
1.4666885,89.85968
1.285507,90.08505
1.3843094,92.03515
1.4220617,89.53921
1.4055108,91.667534
1.3489573,91.40538
1.4233735,94.77026
1.2269629,87.72799
1.2747538,90.22163
1.2818248,87.64471
1.2331979,91.73206
1.1969771,90.43966
1.148869,91.9857
1.0562413,92.825424
1.1380757,87.41168
0.9993514,91.18478
1.0780187,87.7162
1.0152618,85.15104
1.0101843,82.87164
0.87444365,84.84948
0.97941524,84.63049
0.99360967,80.00447
0.98266995,78.0766
0.8121269,79.95184
0.90795213,74.408745
0.90082,77.55655
0.8307951,75.00552
0.71944356,77.34257
0.7294972,74.943016
0.68772316,73.0924
0.5406537,73.66574
0.66377276,75.214905
0.583009,67.642784
0.55817616,69.33945
0.49190158,67.85311
0.59197253,67.75358
0.288655,66.1355
0.4270879,66.51818
0.40369555,66.86699
0.43139586,69.6393
0.31410992,67.732414
0.2998508,63.4157
0.32084155,59.330013
0.42561966,63.055645
0.3606244,60.638283
0.2258211,57.695793
0.2084744,60.018707
0.3194382,61.45632
0.20661664,54.385113
0.14740792,57.50067
0.23936668,59.93801
0.091439135,54.983856
0.0511299,60.058434
0.012419803,58.271336
-0.02535146,58.382866
-0.05834422,59.4236
-0.06728564,62.597588
-0.042400572,65.02158
0.041217353,65.86353
0.040732227,66.526855
0.11080165,65.3803
0.1357992,65.71837
0.3354027,68.4446
0.3672897,70.78571
0.5354898,73.30087
0.595698,71.50414
0.665034,74.750374
0.8001448,77.86643
0.978092,82.291374
1.0100466,82.18364
1.1491526,81.910774
1.1090941,86.676216
1.1906927,81.57306
1.3325971,85.77694
1.3345679,92.07407
1.3399583,89.15283
1.3032391,87.48052
1.4961267,95.81944
1.4599059,86.00819
1.395785,94.80643
1.5080317,92.64762
1.4666399,97.31608
1.3478881,90.25475
1.3164645,94.253296
1.3478677,94.32058
1.2803661,87.38412
1.227471,93.06379
1.171676,90.59563
1.180311,92.204185
1.0729673,85.04722
1.0668075,90.49694
1.1059253,91.613365
1.0266556,83.31405
1.0474397,88.97038
0.943305,82.12593
1.0258976,82.38052
0.93027544,84.26904
0.9435229,82.694305
0.94846576,81.55454
0.90265965,76.88644
0.9430786,75.43072
0.95765287,78.3686
0.9283377,73.87353
0.811645,75.375786
0.80962586,75.420685
0.76797056,72.63093
0.79720265,73.60678
0.6108736,68.63321
0.6807541,78.413025
0.5011351,76.36684
0.4913691,70.65906
0.51314473,67.8551
0.44425505,66.11983
0.3994272,67.23822
0.44339246,66.2661
0.4305566,65.4353
0.41893002,63.227283
0.48501158,60.364418
0.40829954,63.171066
0.40317225,58.19426
0.3860076,58.945923
0.37356114,59.326923
0.43678042,58.031822
0.3851409,61.936436
0.32163328,66.28183
0.22830547,58.208187
0.23514196,61.1672
0.25011417,58.33591
0.15503529,56.623837
0.13249807,60.574192
0.13729657,60.498596
0.047066875,55.638027
0.046508532,62.470417
0.15647654,55.99666
0.07988735,65.067764
0.27546975,63.912178
0.2655056,68.13412
0.42682478,71.10661
0.5269794,67.32637
0.6792299,72.18352
0.77346146,72.27395
0.9572807,72.44343
0.9934223,80.3368
1.1310475,76.43617
1.1676617,81.42059
1.2075009,79.03239
1.4163032,80.89838
1.3173227,82.333176
1.398239,84.20285
1.5290003,83.12148
1.4713476,86.077286
1.526165,89.25722
1.6150253,88.3398
1.6409992,91.83402
1.479972,88.28141
1.6998205,90.22666
1.633931,93.48845
1.6418535,92.48301
1.59215,93.8759
1.5249883,94.12805
1.4716742,88.92736
1.4300427,90.646545
1.4434116,89.886406
1.3314675,91.39041
1.3722346,90.07642
1.362425,90.06232
1.3064137,85.982315
1.2650099,91.980385
1.2870421,87.72801
1.2669324,90.159744
1.2630103,86.67995
1.2521747,72.837265
1.1722251,82.986855
1.2723979,81.28717
1.1002218,79.57147
1.1584611,76.67517
1.1340257,74.97049
1.0947474,80.5147
1.0320597,77.45903
1.1601199,79.94347
1.0942166,72.47581
0.9455055,72.28152
0.9666794,73.285706
0.90907854,69.52178
0.9147928,71.21264
0.74926037,69.40399
0.82269335,68.575
0.7792842,69.76561
0.6890599,66.65673
0.6302734,68.516304
0.7751243,64.56601
0.7362414,61.209007
0.6845756,62.11066
0.7589588,62.395638
0.7151355,59.885494
0.6960639,65.06575
0.7109731,61.492523
0.72693634,58.053097
0.6576971,59.763916
0.65316,58.252323
0.6171109,54.885918
0.4932846,61.9804
0.5237746,58.3461
0.45738277,55.708157
0.3557365,56.76311
0.31413734,55.596615
0.40202582,59.550804
0.4004364,60.373924
0.33267632,66.86018
0.36868638,65.84996
0.42154348,66.71211
0.5921248,60.828545
0.61682874,70.36869
0.68914706,66.044624
0.8147787,69.777
0.90717465,68.89124
0.9714353,71.94234
1.0406228,76.6471
1.3195202,71.63101
1.3537054,81.602554
1.4310097,79.52829
1.4965363,79.229904
1.711367,81.43088
1.6953532,84.098366
1.7350668,86.39907
1.8075725,89.030304
1.8442702,88.729294
1.7600604,85.26494
1.9033684,89.40013
1.9005631,92.58581
1.7639841,87.81304
1.8489676,94.82136
1.8775675,93.254906
1.8813331,93.61156
1.7362299,93.58275
1.8602705,90.46654
1.8394581,90.65818
1.6741478,90.55083
1.6442213,88.92381
1.748865,91.58922
1.51878,93.111496
1.6193373,85.58617
1.6382433,87.47387
1.5665526,88.67287
1.5872518,83.546165
1.5147878,84.84213
1.5301623,82.49654
1.4655609,86.48713
1.4630215,86.09705
1.3797868,84.15806
1.4176453,78.965645
1.4162272,80.32367
1.4099085,74.43038
1.3571886,76.82158
1.3378466,77.94289
1.2745562,78.33636
1.3021039,71.614235
1.2214237,74.84002
1.1914605,75.947
1.0958266,73.10829
1.2261904,70.77182
1.0471989,68.69629
0.97092277,69.17537
1.0283058,71.44961
1.0483538,64.798805
0.86395854,65.04694
0.85941297,66.35483
0.861434,63.346054
0.8268316,62.016205
0.88092756,60.865173
0.98771036,61.891895
0.8559115,58.64446
0.8729491,62.44194
0.8401692,63.688797
0.78410167,57.923336
0.72432166,61.96109
0.8115154,61.432774
0.62078536,61.835567
0.683895,55.98266
0.6446357,59.761913
0.5373247,60.567276
0.6592936,60.359024
0.4382257,58.024906
0.5193702,60.333607
0.5500208,62.96637
0.6167643,62.097725
0.68630075,65.28229
0.69994897,71.9386
0.73111576,67.79434
0.8631667,65.03748
0.9305646,68.64168
1.0694283,67.9033
1.1047574,74.70069
1.3328093,75.43256
1.4750893,75.91339
1.5139673,79.9103
1.6251423,80.751236
1.6059442,76.428116
1.7757682,82.57791
1.7963643,87.80044
1.9018861,87.83413
1.9358611,87.9967
1.9136231,93.79178
1.9637275,91.06426
1.9090278,88.53633
1.9644927,91.99549
1.99114,87.67719
1.9227693,88.036934
1.9525435,90.94332
1.8984151,89.76312
1.9535933,88.7586
1.8023537,95.17312
1.8815373,83.18023
1.7753712,88.544525
1.8088882,92.06177
1.7281079,92.076866
1.6687945,92.05778
1.717619,86.24972
1.6474632,84.98724
1.5549208,84.532394
1.4959445,86.859375
1.5219915,82.69864
1.6153378,80.80483
1.4127816,83.55122
1.382301,82.48756
1.4831756,80.250206
1.4995021,80.68611
1.4063575,79.551834
1.4305574,83.305115
1.4101499,76.412254
1.3236377,75.30637
1.257744,73.04741
1.3344027,77.80706
1.1854731,74.91167
1.3583745,73.61411
1.1853827,74.50513
1.0998034,69.02592
1.0956563,71.21193
0.98898405,73.069084
0.9192594,67.55583
0.9553505,72.033806
0.91876656,68.72185
0.8294463,68.46523
0.9149282,62.90397
0.7794629,68.51425
0.76343656,62.114124
0.88817465,64.7206
0.8233935,63.06668
0.9188152,60.187824
0.7670702,60.18004
0.7898425,63.08252
0.6900934,56.32651
0.7357874,60.52291
0.6143314,60.79013
0.6841528,65.41202
0.56040436,62.63823
0.58349085,56.921
0.45761278,59.143204
0.5315067,58.325954
0.45283085,61.183258
0.46332562,65.54385
0.55083627,60.93418
0.5178998,62.714725
0.6220367,64.57099
0.65167165,70.64799
0.73424524,64.5559
0.88560987,73.83426
0.9604261,71.976814
1.1328812,72.46117
1.1324873,74.97997
1.293929,73.0664
1.3977361,82.43473
1.6516373,79.34935
1.5620195,77.453285
1.6752467,84.8408
1.5826546,87.06942
1.7876729,82.99048
1.7104493,87.72609
1.885279,84.79864
1.8618823,93.05865
1.7642446,93.89765
1.8443142,89.63466
1.6389074,91.142136
1.7560542,90.952545
1.8230839,89.292725
1.7663729,92.527084
1.8095655,91.48457
1.7136419,88.22987
1.5604919,92.304535
1.714134,88.27658
1.6561015,89.51222
1.538781,92.07336
1.5581583,93.262436
1.5564115,89.70288
1.35873,88.08002
1.399269,86.09747
1.364179,88.25268
1.3631307,88.56206
1.3048843,81.078705
1.2721852,81.72656
1.2930391,84.11286
1.1897734,78.00895
1.3513639,77.41293
1.2414905,77.318596
1.2212968,73.459274
1.1841576,77.09323
1.1323714,75.44123
1.1117272,75.8829
1.1529776,73.55017
1.0838714,73.722275
0.9098743,73.60368
0.9621439,71.39567
0.84980035,71.77002
0.9024475,69.27175
0.8636199,70.69085
0.6437716,64.89288
0.7286762,68.45479
0.64240754,65.546165
0.70408547,62.97876
0.61325634,59.235035
0.6299167,62.12961
0.57363355,65.61662
0.59223783,58.793266
0.73035103,58.672882
0.6977322,58.010704
0.54520977,65.16957
0.5308386,60.885727
0.5150499,60.62199
0.37248576,55.458714
0.35196808,56.780727
0.4172278,56.6005
0.30554375,59.34755
0.34468076,56.434074
0.1783166,61.569
0.1152526,61.200798
0.17255929,58.885662
0.1269192,62.73234
0.33942464,63.966774
0.30888483,68.386826
0.39251256,69.85257
0.51780856,70.52816
0.7860921,70.1327
0.6789448,72.54443
0.814268,71.9358
0.85402983,72.62849
1.0743372,70.04859
1.159485,77.946396
1.2356291,77.721825
1.2547998,80.27579
1.2646611,81.058495
1.3692693,85.25501
1.4555209,83.079315
1.4390234,87.15509
1.46956,91.30005
1.6013954,86.22018
1.5871766,88.89536
1.4979074,91.89449
1.5415443,90.5654
1.5365328,92.293015
1.4925385,90.503365
1.4522077,93.51089
1.4674025,93.052444
1.457278,91.30054
1.4003571,91.01441
1.4077005,92.04877
1.3039793,93.188515
1.2434719,94.588745
1.2910951,88.32588
1.2961278,90.750435
1.3015536,88.61909
1.1362998,89.524826
1.091964,87.45199
1.0226544,81.63208
1.0492129,84.692825
1.0498772,80.65272
0.9983463,86.31388
0.92251706,83.06519
0.99243164,81.2105
1.0497361,84.627975
0.91320753,80.879395
0.97733706,82.245735
1.0056376,75.83199
0.9673351,73.109184
0.8082499,77.16321
0.7353908,75.85769
0.70609456,75.39951
0.69152015,71.180565
0.6156742,69.055725
0.58004075,70.35633
0.5093665,71.52189
0.41600153,68.785736
0.39099637,69.00781
0.47597465,64.054665
0.22271176,64.216125
0.3408597,66.926125
0.4990094,62.816113
0.31496993,64.17264
0.42069262,62.505604
0.37441847,63.425167
0.33228678,63.970383
0.28967315,56.24865
0.29744798,58.614044
0.30110937,62.034904
0.2796422,61.53082
0.14927408,63.409946
0.13867088,61.50487
0.07153634,58.058872
0.14349675,59.716286
0.086698145,61.894035
0.0039882753,62.144936
0.0067704907,60.528603
-0.12689714,63.91458
0.08599505,58.872913
0.080506586,63.762394
0.040752336,62.482533
0.16731893,67.71959
0.27329707,69.253746
0.46342897,68.301384
0.38074076,73.15091
0.5243135,74.80434
0.7173,77.17001
0.8407648,78.55154
0.94049275,77.144775
0.9919716,79.66946
1.088051,84.79229
1.2025927,82.49898
1.2777606,82.46299
1.1910546,83.45451
1.2586002,88.926254
1.2481807,89.06143
1.2491641,84.3845
1.374016,88.42444
1.2770487,87.23121
1.3826703,91.00279
1.3190349,85.711296
1.3051845,91.830154
1.4173354,94.587395
1.3930022,90.65207
1.2837577,89.78429
1.3498051,89.787445
1.3238217,86.768196
1.1617957,92.28321
1.1809527,86.49505
1.1444278,85.43782
1.1198488,92.93952
1.0465158,87.389366
0.9613342,87.47837
1.1323247,84.28517
0.9873307,84.49197
0.9715015,84.33229
0.99744827,81.39517
1.0377758,80.274666
0.88583046,85.04801
0.98064965,78.815155
0.9348119,78.048676
0.92625,75.30999
0.82359505,74.04664
0.8818243,79.51172
0.74611396,76.47268
0.676813,77.189674
0.66791576,69.853714
0.62990075,72.022865
0.5797682,72.84209
0.5185487,71.3454
0.44017768,68.01269
0.46137857,68.57829
0.38627905,67.9372
0.24335235,65.98816
0.36831966,67.88146
0.3243562,62.65809
0.34265178,67.544174
0.27291816,59.937416
0.30980027,63.348118
0.36172825,60.990067
0.34324247,61.515827
0.31092966,63.472847
0.36201137,62.05268
0.32163948,56.6174
0.296677,59.89567
0.235484,58.891216
0.029247077,62.934162
0.192323,59.302998
0.024438623,61.149834
0.007249949,62.550556
0.041452542,62.454796
0.08446468,63.454422
0.008674689,58.091763
0.021518419,63.909344
0.12891573,61.016064
0.09325846,67.84865
0.1714963,65.56268
0.23412606,70.65002
0.30237105,70.05945
0.46524605,69.20077
0.5231923,69.874146
0.6997838,75.128136
0.64631534,75.308754
0.94243187,74.14842
1.0042697,77.6303
1.0503422,79.8672
1.2036805,82.89115
1.2542533,84.61315
1.3879768,81.51285
1.3420879,89.90703
1.3945245,90.07948
1.552085,82.84132
1.4093676,87.37193
1.3617408,87.54338
1.5348889,89.932686
1.3627101,94.50826
1.4821217,91.766945
1.4405228,87.94885
1.493017,97.12303
1.5010903,90.15376
1.4718387,88.98031
1.3613977,92.95029
1.3777505,90.79366
1.285752,91.00485
1.3814613,88.493034
1.2546735,91.339424
1.1591824,88.66064
1.19831,84.22368
1.1647162,81.37011
1.1407868,82.569725
1.1304685,80.60953
1.0199007,88.83197
1.0772041,82.965225
1.070107,78.99931
0.9808476,81.89858
0.95133716,78.85331
1.0346158,81.59406
1.1450934,81.28761
0.9916496,76.37624
1.0155065,77.65616
0.95479316,76.50071
0.7949366,74.32051
0.8553738,72.50087
0.8559415,76.45046
0.6713085,70.36893
0.63635105,71.68161
0.6304837,67.43017
0.6095335,71.73487
0.7432951,63.92582
0.58683044,65.03936
0.49108195,68.19066
0.47224182,67.3388
0.57613355,66.14811
0.5797238,60.017796
0.51575065,68.14807
0.5295301,67.49979
0.58436656,59.73444
0.60843366,60.20322
0.55328804,61.068913
0.3980012,59.223507
0.4425637,55.395332
0.37767842,56.914627
0.4150463,59.59664
0.28537434,64.74509
0.3361439,58.147087
0.25340313,61.378593
0.18892366,60.327442
0.14927606,60.915447
0.22665367,58.104733
0.2641981,60.830727
0.1987816,63.052845
0.3773321,69.594894
0.3840176,68.73358
0.59930617,69.317184
0.51530755,72.12581
0.7827257,70.46232
0.7762725,75.489716
0.8795135,72.88975
1.1814816,76.65234
1.1188383,80.80875
1.2093713,74.34753
1.2501843,78.503914
1.3500237,80.13813
1.5300597,85.59671
1.5063984,80.48238
1.5921133,87.16692
1.6257153,80.74731
1.6293571,91.74983
1.7233772,90.774
1.622601,91.43847
1.685592,87.356255
1.7115668,93.80244
1.768907,91.86823
1.7729571,88.88813
1.752475,92.16501
1.6528826,92.53256
1.687686,89.53644
1.6354345,91.91244
1.6870369,93.84637
1.4778509,90.731255
1.5090668,83.31543
1.3986826,89.23275
1.4884781,89.055305
1.3749894,87.84436
1.3971609,86.15082
1.3369185,87.708115
1.3700384,86.02633
1.4134474,85.689674
1.3234429,82.215576
1.344662,82.02065
1.3327281,85.10226
1.2842813,80.47829
1.1426921,76.64824
1.3057795,79.261406
1.1285348,80.63884
1.183465,72.80395
1.1035086,73.67691
1.1703948,72.40976
1.0850848,70.20902
1.088421,69.20827
1.0565543,71.78755
0.99674225,71.16723
1.0495456,70.23752
0.9942203,70.18468
0.87865305,70.425316
0.7698981,62.62907
0.84842086,65.22377
0.8283204,65.593704
0.7491918,68.26882
0.84690607,61.862015
0.86283267,63.10435
0.81585896,64.40943
0.75546676,64.81454
0.7864745,60.720753
0.73112106,60.268
0.7663778,57.49623
0.7896689,59.027676
0.64634514,60.281525
0.51627547,56.8647
0.5667069,59.52787
0.5248421,59.33926
0.46782917,56.658134
0.4362213,55.67008
0.36400706,55.271267
0.5289314,63.37643
0.4907322,61.00561
0.68113846,62.79578
0.53750056,64.66744
0.68398035,64.69048
0.78466433,64.72063
0.8706484,66.21191
1.0266492,70.662674
1.1621143,79.68323
1.1752119,71.99577
1.2403687,78.73636
1.403896,76.909454
1.5482246,80.72994
1.5419569,76.74724
1.5650326,84.81249
1.7305822,82.55614
1.8222382,84.68112
1.9273024,84.75515
1.9248848,90.46517
1.8911127,88.53086
1.9233814,90.30175
1.9892867,89.54258
1.8706312,94.75501
1.9596318,90.37102
1.8845108,89.79645
1.9291449,93.46288
1.8864313,95.16819
1.7772646,85.720184
1.8456827,92.94193
1.7344797,92.10697
1.7849857,94.491714
1.7170701,91.125755
1.7241974,87.86043
1.7809391,88.22028
1.6189018,86.03365
1.7159499,82.4746
1.465939,89.228424
1.7273877,91.88985
1.5200942,82.91987
1.4446715,86.58476
1.4928311,82.28753
1.527127,79.807594
1.5429692,79.36313
1.4935396,81.436554
1.4926356,79.30843
1.4848881,78.44735
1.3692597,75.58484
1.2971318,74.547
1.3392338,77.44966
1.2905803,75.92358
1.3189241,71.55433
1.1301017,71.8919
1.1495159,69.13964
1.1408823,73.779236
1.0782175,69.5809
0.98053956,64.83279
0.9549132,69.56113
1.0010006,62.780197
0.9336855,64.46831
0.98904794,62.604294
0.9040814,66.417114
0.9065412,63.22681
1.0154147,63.538002
0.905443,59.675476
0.9460428,56.771492
0.8319144,63.16261
0.9625795,62.53252
0.94774294,58.354424
0.76282626,63.452576
0.75700873,60.25573
0.6930872,65.38289
0.5728506,61.719616
0.6446597,57.4324
0.53231347,59.63204
0.55909634,62.706654
0.6008801,59.573307
0.5231336,61.70777
0.510214,60.19673
0.5779651,67.19042
0.763578,62.643677
0.78627276,69.20179
0.7951112,67.69711
0.9538071,75.19153
1.0132588,69.124954
1.1555905,74.26601
1.3141505,74.76073
1.4247367,74.02605
1.5617235,76.290184
1.5643469,77.69495
1.5222361,78.564705
1.8273022,81.27269
1.8648953,85.935875
1.8028845,83.432976
1.8446065,83.93951
1.9824536,89.466995
2.04353,88.55043
2.1019988,89.52339
1.7620203,89.55222
1.936189,91.79184
1.8727208,90.14804
1.9612219,93.05175
1.87689,92.660736
1.7604474,92.20929
1.8955585,93.615486
1.7380962,91.34643
1.8365229,88.40822
1.7405021,89.59124
1.6907579,89.19882
1.6681339,87.05181
1.7539736,90.18422
1.6527655,87.57637
1.5927317,89.152336
1.5706903,91.52186
1.5333683,88.28402
1.4560841,83.19442
1.4209968,87.81851
1.3947332,81.24232
1.3557167,79.33658
1.4692945,77.74276
1.4107625,82.16182
1.3462317,80.28938
1.2549553,84.726906
1.2961334,79.03086
1.2787381,73.93738
1.1531914,74.82393
1.1436712,69.38368
1.1203343,73.596664
1.0922016,71.96125
1.0718231,74.12912
0.97615325,66.09357
0.9201884,71.62249
0.9414056,67.639114
0.9190548,63.76509
0.91662794,64.26445
0.82781285,66.48355
0.7434379,59.77508
0.7844369,64.027855
0.79703426,66.52215
0.7443275,63.759846
0.7996195,63.482864
0.7716716,61.740223
0.68542176,61.699547
0.7665364,58.874256
0.7647661,56.88034
0.61617583,58.503006
0.5619053,59.854572
0.44486544,59.92369
0.37710288,58.395927
0.38638964,61.28454
0.3921157,63.31091
0.3635013,60.371998
0.324699,62.402084
0.40770864,61.84394
0.3788126,64.62535
0.563498,67.45466
0.5521356,66.839836
0.6237222,68.56093
0.72691506,70.75545
0.6421599,73.85072
1.046666,70.99556
1.0167283,73.85955
1.0621469,77.64616
1.3377002,72.82186
1.2663579,85.58188
1.4617423,83.880196
1.488484,82.99161
1.4853448,82.42313
1.6448432,84.928185
1.592697,83.00194
1.8067087,90.24668
1.7802279,86.83973
1.6737682,91.08997
1.7143877,93.46816
1.6285104,90.63848
1.6356798,87.17413
1.6667023,88.91743
1.6410584,91.26914
1.69412,95.766815
1.6840612,96.09037
1.7067103,95.17066
1.6488059,92.79225
1.4683101,88.635254
1.3626602,90.12646
1.3660622,87.800255
1.3411313,88.82004
1.359149,87.20483
1.3795339,87.947975
1.2394927,82.77199
1.3008287,84.60813
1.270348,85.44132
1.2940849,85.6497
1.3192946,83.676285
1.1524887,80.43086
1.192338,81.09858
1.16292,76.97924
1.0925497,82.8703
1.0051787,79.31146
1.0862697,78.15211
0.8930327,74.75849
0.990658,75.80802
1.0318431,76.75619
0.8674659,71.10948
0.90226245,72.95306
0.8471825,75.421486
0.8341185,72.45666
0.7128382,70.70984
0.5941055,71.85988
0.64538753,69.69071
0.65804124,68.4437
0.4706378,68.042694
0.5263257,64.35831
0.5336539,63.355927
0.5243,62.911068
0.60078675,67.41603
0.51253563,62.008747
0.6072265,61.907307
0.40141225,58.767056
0.5010556,56.470768
0.44996005,58.611694
0.33121613,60.705822
0.30571583,56.633972
0.29233295,65.54323
0.20385705,54.07905
0.07226306,59.519703
0.051301975,64.69624
0.16997719,63.74982
0.14272349,63.404102
0.14766745,58.032307
0.14473881,62.392246
0.102621205,66.37435
0.25077772,59.59186
0.22360905,63.439693
0.31705227,67.72858
0.35773227,68.83664
0.49984574,71.48919
0.5905079,70.665085
0.84989077,76.110695
0.9092869,74.763245
0.9603641,74.54922
1.0449357,79.03638
1.1218358,78.10611
1.1726469,81.40019
1.2661103,82.93107
1.3051568,86.18705
1.4071454,83.06721
1.4337101,87.97035
1.3980619,89.210815
1.4084907,88.01638
1.436382,91.23249
1.4163439,86.9885
1.4409809,90.0155
1.4876482,93.57406
1.4020042,91.56889
1.3816948,90.194145
1.2864352,91.57408
1.3646445,90.64143
1.31452,88.84545
1.3134437,92.23921
1.2153053,93.107056
1.2463232,88.20145
1.1647508,85.29806
1.1362066,86.60328
1.1682993,90.315796
1.0372599,87.023796
0.9820031,85.609085
1.0760381,81.41727
1.1118813,80.8324
0.97117317,80.65096
0.90974313,83.76405
0.94283044,82.22104
0.9919656,76.76502
0.98360795,75.38105
0.78060955,78.185585
0.82290274,75.407394
0.829311,76.020874
0.8566512,79.78178
0.74851483,74.665115
0.5456738,77.38128
0.60425365,71.489334
0.59176475,72.92758
0.56836337,71.65963
0.51364213,67.63417
0.4664693,67.4494
0.3367088,68.30873
0.33438995,73.525154
0.34053743,68.034195
0.3482979,69.17496
0.37446156,61.892937
0.36659977,61.508495
0.3253691,65.59548
0.28635687,61.366913
0.41568318,63.003376
0.25900295,67.89604
0.2061178,60.800198
0.28821006,61.390434
0.19057596,55.487675
0.15073946,59.731647
0.15549494,56.105522
-0.017527152,55.103333
0.009863803,57.213585
0.008245343,64.10938
-0.13419364,61.05445
-0.14746591,61.022346
-0.07434638,58.095974
-0.008011244,64.73548
0.09512753,64.49026
0.008476813,64.81143
0.11053858,67.14226
0.19435231,64.50444
0.36114767,70.88204
0.42497995,72.80847
0.5564771,75.00234
0.72050893,73.59078
0.8488739,79.02195
0.9685773,79.54467
0.9867823,75.92589
0.99508613,78.73189
1.1727312,80.80179
1.2960769,83.448944
1.2929446,86.52455
1.3387932,89.05048
1.3031088,89.803444
1.3334678,86.332985
1.3441275,91.134125
1.2568134,92.10316
1.3276086,90.80694
1.3176425,86.70498
1.3963958,91.679306
1.4098136,90.93207
1.3976759,94.1275
1.3522846,88.8491
1.1812614,92.259575
1.1839503,93.133705
1.2530246,92.950966
1.205947,91.1293
1.1803029,91.72023
1.0890363,87.69378
1.0701132,89.60501
1.0430584,88.16578
0.9828353,88.91284
1.0222243,83.79736
0.8733736,81.90973
0.878896,86.577
0.95973355,80.33123
0.79104006,78.90524
0.97793436,80.92938
0.9370333,79.95442
0.9697163,78.379684
0.8638044,82.09044
0.8038172,73.91371
0.74821305,77.69314
0.82014287,71.432686
0.69510746,75.71469
0.7401222,71.23039
0.6182596,74.419044
0.5768054,71.70739
0.472435,72.54537
0.53274477,71.59681
0.55013186,62.16613
0.45319855,66.206314
0.36023217,66.093544
0.4699125,66.42378
0.38163918,61.72749
0.3697314,63.63732
0.3960726,68.37837
0.3798652,60.25235
0.42216593,59.322483
0.49029112,65.69744
0.3411307,60.387016
0.38721284,64.389175
0.4093545,62.139618
0.2200901,59.850185
0.1797445,63.363094
0.21628335,59.868683
0.26081914,59.07203
0.12545297,63.275917
0.05973244,61.229916
0.08933539,56.260834
0.024097849,61.525124
0.12077035,59.154285
0.10661053,60.607796
0.07403824,64.56178
0.34193343,73.51443
0.24804166,63.18706
0.36213213,68.602066
0.56263226,71.30918
0.58457136,69.35597
0.7802268,71.68323
0.76372784,76.30221
0.9209173,75.386856
1.0854366,76.22489
1.1124841,80.23525
1.2301122,86.47514
1.3299401,83.167984
1.3336574,80.603874
1.4311777,84.68505
1.4755355,89.65289
1.5292062,88.36622
1.596617,87.343346
1.5317926,89.45945
1.5051332,87.4749
1.5501932,94.82063
1.4845521,94.067955
1.5543735,93.23193
1.4989548,93.754524
1.5153226,95.29105
1.4569402,89.00801
1.4727037,90.61145
1.4448003,93.579475
1.380526,92.57252
1.5312539,89.9269
1.274101,88.9479
1.4792538,92.162186
1.286732,86.524635
1.2146672,87.58943
1.2181023,85.83045
1.1607956,79.130135
1.1381571,90.0543
1.0405443,83.55407
1.0962954,79.593216
1.1762158,76.44997
1.2362756,86.90777
1.0923132,81.43703
1.1590896,77.18514
1.0297576,78.23395
1.0937257,71.096466
1.0601373,77.83
0.99978083,73.48027
1.1065989,75.38038
0.9883976,74.72086
0.8626817,70.33005
0.82835704,71.63598
0.82980496,71.33275
0.69875073,68.65925
0.68073845,66.977936
0.7167388,67.440384
0.70385265,69.19738
0.72901136,63.923973
0.6894131,65.297455
0.6530147,62.73376
0.61465645,61.093754
0.638326,63.35805
0.6062149,58.43737
0.63442904,59.918232
0.67253137,61.924644
0.64949507,59.450176
0.64068544,60.54974
0.52641875,60.00134
0.61016184,60.84012
0.33349183,60.414547
0.37211466,65.850365
0.3821659,60.708878
0.45616442,56.888447
0.38099408,62.019463
0.25624725,61.79854
0.33463985,67.81017
0.47317025,64.10681
0.4392236,62.620327
0.47868913,66.368225
0.4023187,61.511086
0.7442694,64.79424
0.7819535,69.06254
0.89174604,71.68244
1.0233179,71.45696
1.2723174,72.994705
1.2394961,80.295456
1.2077419,80.60759
1.3705438,82.90581
1.4918475,83.681175
1.7093825,81.56844
1.687446,85.31883
1.6317724,84.16158
1.7164869,84.81369
1.7153227,83.252235
1.8079712,89.54419
1.8026246,88.16305
1.9176638,91.85449
1.7836716,90.87312
1.8794829,91.60736
1.810951,91.77662
1.785101,93.2114
1.7396845,88.29927
1.6968939,92.43405
1.7128694,88.35749
1.7304522,85.75754
1.6414248,90.482124
1.674799,91.19018
1.5176841,88.70125
1.534771,87.907196
1.5685506,84.309814
1.5869627,85.901405
1.2297568,85.70516
1.4271578,81.34948
1.3975393,88.47194
1.4209411,78.51547
1.4396758,86.0201
1.4066921,82.73265
1.3123797,79.784966
1.4382782,83.2393
1.3390316,81.90469
1.3701354,76.42106
1.2871307,76.65275
1.3353672,76.25448
1.350925,75.424164
1.2841575,72.45287
1.1571158,76.65226
1.2040466,79.45005
1.1043177,69.70147
1.0343623,67.03883
0.9500588,68.408
0.99142534,72.83596
0.993909,70.63152
0.8907545,66.16286
0.9477238,63.861977
0.97549057,69.452866
0.93916565,67.71624
0.9256124,62.859577
0.8607749,59.1991
0.8860841,64.15995
0.8288421,60.76686
0.9082148,60.02975
0.8087139,62.530113
0.8218528,63.819668
0.7446179,60.216156
0.715618,60.053013
0.57238096,61.037895
0.5510864,55.992382
0.6129477,62.571815
0.5062986,59.045395
0.5084769,57.05516
0.55399895,65.29155
0.41801456,58.1871
0.6354182,63.952682
0.73131204,64.12018
0.65462846,65.5088
0.7363894,67.66374
0.8623505,67.774414
0.8956091,68.95037
1.168223,71.010185
1.2186096,78.086235
1.2846388,74.39979
1.4861013,78.88625
1.5321636,81.883575
1.6637132,76.01022
1.7006898,79.04688
1.7637037,82.74814
1.9052525,84.91257
1.8294028,86.218346
1.9520766,86.85498
1.9422576,86.72741
1.8505837,88.048096
1.8557042,88.90583
1.9177809,92.82763
1.8940678,93.7829
1.9359908,95.66987
1.9043988,91.38643
1.9380779,91.13032
1.8779588,90.37063
1.9249395,90.12379
1.8981361,93.074684
1.9044236,86.69258
1.7816564,90.69694
1.6889483,90.07862
1.6752752,83.92576
1.7142972,87.30643
1.6036952,84.04204
1.5457895,85.527
1.5920362,83.746346
1.5964091,82.689026
1.5589188,85.425964
1.4878291,79.36617
1.4450232,84.92423
1.5564615,77.94028
1.4337127,80.05874
1.5168985,73.887764
1.4461056,82.17141
1.4346166,76.05874
1.4021591,76.15704
1.3811958,71.41889
1.3288301,74.93943
1.2075586,71.5245
1.1741651,69.57402
1.1061339,74.13597
1.0706426,67.71334
1.0556957,63.302197
0.9481347,69.460205
1.0193831,68.33519
0.97287893,66.527245
0.9503181,64.67665
0.8665107,61.179947
0.82348067,61.274487
0.9191604,67.027695
0.9108384,62.655857
0.77905786,56.543606
0.83819336,60.73774
0.8936384,60.269573
0.88268125,56.958992
0.8382211,61.522305
0.68649495,57.329613
0.61439896,64.49723
0.6930523,60.43742
0.75430346,59.31242
0.5434338,61.917587
0.54283506,58.92301
0.53924215,60.09029
0.5183528,60.29233
0.5718278,61.45079
0.45297498,67.53897
0.5048603,62.218807
0.586429,71.591576
0.61159366,65.23735
0.83890927,69.61198
0.7906199,71.95191
0.9510896,65.535385
1.0306666,72.54142
1.2577813,72.69567
1.2162584,73.85547
1.3888506,80.5254
1.4782441,79.3449
1.5594374,83.34067
1.6953868,80.645676
1.781438,84.40835
1.7991211,85.99348
1.7781259,83.996216
1.8769772,90.19895
1.9016664,86.91078
1.8968902,86.528564
1.8455348,91.38622
1.8746877,90.35916
1.8819607,89.26698
1.8419147,91.15467
1.8847325,94.19104
1.8830608,92.46629
1.7772365,87.55943
1.7346386,86.87666
1.6641008,93.24671
1.7155684,93.8682
1.5606021,84.262276
1.6475646,90.97292
1.5422845,90.59871
1.4731867,84.81705
1.4228094,87.94432
1.3358351,84.22731
1.3982569,83.48851
1.4012163,83.18331
1.4460154,79.72807
1.2930675,81.50219
1.2941225,83.01334
1.3727092,75.958084
1.2957883,82.93866
1.4174384,71.25329
1.258826,79.74779
1.2237526,80.53211
1.1607621,80.82227
1.1892269,72.63311
1.0683402,71.80421
1.0708742,81.10269
0.9237095,73.87419
0.99707884,69.30439
0.9392117,68.06977
0.8343893,69.88966
0.7721612,70.39838
0.80869925,73.26142
0.72588146,63.839607
0.7637761,66.98123
0.6224808,62.183407
0.6236718,62.13815
0.70891047,60.128147
0.73302823,62.90724
0.67385423,64.543396
0.6462777,57.116512
0.68311656,60.28731
0.5687748,62.436523
0.56235033,57.96925
0.49572423,60.710705
0.50675493,62.324696
0.36447448,61.036163
0.3399343,58.996983
0.32538298,54.813953
0.40007326,57.009407
0.28034937,62.709717
0.30943537,65.36649
0.1611347,60.367336
0.30087823,59.51414
0.36017385,63.22834
0.3297148,67.69347
0.46469247,67.245514
0.50207937,71.16682
0.62338096,67.14622
0.7609802,68.98986
0.96874195,73.647514
0.92872405,74.22813
0.9293886,75.220215
1.2479746,77.42555
1.2289553,78.68908
1.2703826,78.467384
1.3430353,83.56232
1.4605916,84.0896
1.5244778,88.33789
1.4274515,87.967354
1.4864523,86.45064
1.5940013,86.640205
1.4734491,84.54337
1.619476,91.54429
1.5625602,90.80816
1.6169746,88.19073
1.58628,89.990204
1.5653417,90.558525
1.5490175,92.434685
1.6132655,92.63901
1.5385588,88.288124
1.4073308,91.080795
1.4814,94.99803
1.2313411,91.92359
1.26584,91.40894
1.3104622,89.82219
1.2096795,89.91093
1.179299,86.23329
1.2254094,87.49665
1.083628,86.29158
1.1810405,87.502106
1.0940243,80.04841
1.1223859,84.130196
1.1584386,85.24026
1.0827621,77.17271
1.1256194,80.0175
1.0192477,79.28472
0.9973612,79.50922
0.9525556,76.85823
0.8032516,79.937614
0.86088955,76.92864
0.7978817,74.257515
0.80257833,76.71577
0.69642323,70.12366
0.7475987,70.669716
0.5666589,75.06584
0.6291698,71.713776
0.4694113,68.49826
0.4688512,66.54759
0.46278086,69.04785
0.37554905,66.62465
0.35391453,63.78503
0.44125456,61.864304
0.37880147,59.976173
0.41200525,64.07875
0.37236118,60.61884
0.42484796,59.99806
0.30018175,57.283928
0.2966441,59.223698
0.40449592,67.52527
0.15301432,60.54336
0.2507551,61.647804
0.14891146,57.951305
-0.0056884843,57.68819
0.09238002,56.257694
0.0030628408,60.593563
0.03475666,63.723797
0.068335004,55.563286
0.052299406,62.482353
0.044832963,59.055317
0.16163412,61.017838
0.15600672,63.17827
0.17976943,67.7151
0.2144998,68.15748
0.39410207,68.253845
0.5327716,69.68249
0.7677508,72.88427
0.7354988,72.93858
0.8360144,77.542496
0.83458674,76.17049
1.0207844,86.371284
1.1989722,84.28932
1.2186373,79.646355
1.2666707,84.70487
1.3248129,85.21184
1.3123298,86.23652
1.2911417,91.94864
1.3285221,89.00755
1.3629944,92.11279
1.4427658,89.57435
1.5425771,94.218
1.3947463,90.82286
1.2755431,89.29584
1.2912515,93.24493
1.362509,87.82904
1.2736437,91.56961
1.2886435,89.06468
1.1882075,92.83766
1.2664541,89.22152
1.2230322,92.38411
1.1645831,89.068794
1.1947508,88.33477
1.0891551,86.58068
0.9425643,88.02299
0.99888957,87.45197
0.90075505,82.148
0.9442988,79.73221
0.9432642,85.44734
0.83681715,79.59617
0.8676613,76.32714
0.88586795,81.79584
0.9383399,76.26427
0.7840001,79.77971
0.77953523,72.727005
0.75824195,74.53579
0.70106333,77.30658
0.6968877,72.45093
0.6326032,71.436165
0.5679642,72.04562
0.54884547,70.69766
0.60143834,76.182846
0.39155146,71.977554
0.5507136,68.869125
0.44007447,69.88007
0.460291,68.85988
0.37392274,71.00875
0.35894018,62.076828
0.27453434,63.245937
0.32662788,63.532993
0.3152337,63.499836
0.2958776,65.43262
0.36598513,60.55354
0.2920434,63.075397
0.30794635,61.753155
0.25542763,58.69622
0.24386674,55.691
0.16716583,58.542107
0.050300665,58.158585
0.24213956,59.7406
0.11253864,61.691235
-0.068240196,55.992184
-0.06516723,61.50514
-0.008722489,57.41017
0.0073339352,59.465984
-0.016475154,62.63847
-0.042165067,64.23519
-0.061988156,64.10112
0.15309134,61.145847
0.28402615,68.29502
0.27389625,63.847645
0.44136295,69.32764
0.49807623,71.4617
0.71333295,74.05789
0.72803116,79.899025
0.8956023,75.68891
1.0956804,80.43344
1.1472092,79.23561
1.1653842,80.62379
1.1871562,79.03767
1.3168744,88.75984
1.3011945,84.52473
1.3907521,88.07563
1.4352926,87.9937
1.4137578,89.96328
1.3891073,87.07873
1.476331,92.043396
1.5881248,88.10068
1.4517859,93.01158
1.3271596,88.14736
1.3855903,90.22429
1.4184954,91.285904
1.3846848,93.63966
1.2682287,92.27588
1.264647,90.33161
1.1957176,86.15699
1.286281,90.76035
1.2479161,87.182686
1.0623028,86.835106
1.1140636,87.155525
1.130861,86.91146
1.1478509,87.33102
1.0770658,82.97862
1.0276738,85.1102
0.9397218,84.94615
1.042408,83.68702
1.0204996,78.058525
0.9590157,81.15595
1.0508698,78.635826
0.97041965,75.8027
0.951459,77.670876
0.9083646,75.04728
0.8770273,76.591705
0.70526046,76.86894
0.79708743,73.70712
0.7011895,73.61913
0.7291371,72.22618
0.6477236,71.627754
0.53431094,74.57129
0.48049366,69.1127
0.5079534,67.62477
0.51816195,66.482
0.5398649,68.0429
0.4861659,60.670826
0.4678154,67.42715
0.4867384,66.92187
0.5766303,66.679436
0.5039837,60.269066
0.5669494,62.820827
0.5231905,60.88101
0.43193898,61.4593
0.3862457,64.18096
0.3995693,60.07119
0.39898235,59.199497
0.2793581,57.244045
0.3485422,59.88089
0.3396332,63.289658
0.16230023,62.02389
0.064123705,58.07539
0.10075639,61.68332
0.092346,61.495125
0.110279776,60.996418
0.22532466,62.04548
0.16614513,66.72675
0.345583,62.35846
0.52537733,68.53891
0.58996004,73.816986
0.6406748,71.394585
0.77375406,70.17588
0.9090086,80.01707
1.0510602,73.986496
0.98874706,75.56552
1.3414679,80.90636
1.2978112,80.16111
1.3412932,82.900215
1.394255,86.282845
1.4404871,82.98283
1.5554355,86.44088
1.6198251,87.35513
1.642096,87.3088
1.5451968,90.0533
1.6412936,96.661575
1.5425814,90.43174
1.6846664,90.275246
1.6675695,92.02928
1.6523856,90.71776
1.6255605,88.426216
1.5390092,92.87031
1.6029724,90.31361
1.4947677,88.71589
1.4669085,91.95199
1.5305841,87.74258
1.4663279,86.30839
1.3900996,85.41236
1.3965786,87.35588
1.2714086,85.90162
1.3707168,85.58955
1.3765035,86.16215
1.34787,83.451355
1.3372854,84.33424
1.2676487,80.050735
1.247529,79.26925
1.3329227,80.66447
1.2963775,76.20038
1.2583576,81.68911
1.2113838,75.739044
1.2373022,79.29883
1.1572299,77.68474
1.0320035,71.62486
1.1648227,78.754944
0.9524497,71.80383
0.924889,68.30185
0.8497178,72.97196
0.95607704,66.95151
0.8209838,69.080864
0.81895375,70.17586
0.7606357,70.159805
0.6887116,66.20809
0.7833456,69.32772
0.73568934,60.581818
0.84971315,68.73731
0.6832302,65.46027
0.7569622,64.48555
0.7441114,59.77443
0.6783424,66.36892
0.7087741,60.48561
0.7856012,63.341774
0.67281824,61.934017
0.6815691,62.156734
0.62599176,56.978897
0.5571459,64.52439
0.5168361,58.06784
0.5089391,57.50286
0.45343137,60.32736
0.36151966,57.329548
0.46578884,62.701458
0.46888247,61.758892
0.37095663,64.83356
0.47873276,64.4583
0.5887024,64.955734
0.70648146,65.579765
0.72354496,69.11822
0.8984097,72.30854
0.98871946,72.57453
1.0086269,76.09124
1.2905992,72.84552
1.3762041,76.826866
1.3788759,75.79521
1.5053864,78.36376
1.5957218,84.748146
1.7270814,82.32628
1.7038503,85.71257
1.8738263,88.811455
1.896655,93.1985
1.8159589,93.19575
1.9113106,85.61222
1.8220669,85.44397
1.869232,90.21083
1.9123101,90.4471
1.8818266,86.21744
1.8985486,93.580246
1.8591473,92.6066
1.8108727,88.89439
1.8646846,91.08565
1.8913462,90.94333
1.9064374,88.645424
1.6991701,88.53857
1.8098528,89.39152
1.5756925,91.35523
1.6140076,87.28584
1.6298292,91.95915
1.5847006,85.55749
1.5181669,87.800026
1.5541732,88.94842
1.5418534,83.6996
1.4975355,80.099945
1.5019664,83.55152
1.5057727,77.20623
1.5160872,81.867226
1.3973944,78.43125
1.4410716,76.55204
1.4721138,78.20678
1.469677,79.30818
1.3749161,76.741104
1.359692,77.29887
1.325101,71.31481
1.0652623,74.49707
1.1154108,72.93241
1.0404475,75.145035
1.0611628,68.5554
0.9686521,73.20148
1.0596964,62.766483
1.1089389,69.16853
0.9036164,66.54005
0.9997213,64.13538
0.8646522,61.755234
0.91970235,61.3914
0.8747186,63.052876
0.8601198,64.66814
0.9622811,63.85575
1.00508,58.729607
0.9250134,59.801857
0.85908514,60.134937
0.8681946,61.795673
0.7628811,64.099266
0.6659198,59.891518
0.663382,56.227978
0.601856,60.144382
0.554252,63.568207
0.57727027,60.471096
0.6721756,63.324585
0.58799607,64.74054
0.5368821,65.66702
0.59823996,61.28604
0.60142446,65.46311
0.7972383,68.228165
0.794331,68.56294
0.9199353,65.90812
0.928758,68.2861
1.0636886,70.69673
1.235685,74.67678
1.1371316,75.05585
1.4207155,78.01461
1.540119,78.01389
1.551087,80.22574
1.6842997,77.74841
1.8577375,83.15556
1.7978009,83.67078
1.880843,80.47167
1.7654032,89.51068
2.0055857,86.8428
1.9772176,90.67807
1.9327425,86.322914
2.029494,88.908936
1.8482305,93.27651
1.9354436,90.73871
1.8557012,90.37009
2.007757,91.64368
1.8106878,88.05133
1.796378,91.17468
1.8944831,93.60358
1.8050786,88.358215
1.7548896,90.12744
1.7168695,89.02403
1.6693935,84.95938
1.6671216,89.178535
1.5001473,88.638176
1.5320791,88.57184
1.6144009,89.3519
1.492643,84.89411
1.4755288,80.04843
1.4862247,79.498116
1.4452187,82.6247
