ppg,abp
1.074938,92.97591
1.0761095,92.53796
1.3147271,99.833786
1.4162713,100.33824
1.3241315,102.22329
1.456415,103.12632
1.4106435,102.651306
1.5820193,106.18361
1.5261618,108.23397
1.6476858,109.36933
1.6881407,108.85497
1.7374495,111.89817
1.6740319,113.45023
1.6936492,112.15788
1.7683375,112.375465
1.7594508,114.49889
1.7823123,114.74162
1.7348417,116.75349
1.7676057,115.97188
1.7276073,112.318954
1.6699955,110.25082
1.6519973,112.28055
1.6303002,117.82784
1.6745573,115.61053
1.5290459,116.36474
1.5811324,113.64521
1.541085,111.37508
1.5627061,110.64831
1.4847615,112.282684
1.4642043,106.943184
1.506775,109.65614
1.4115895,109.144196
1.4115112,109.07561
1.4122866,105.74546
1.3457026,107.17353
1.3967493,102.28212
1.3209871,104.08085
1.392636,100.91226
1.306627,98.23777
1.2979995,97.25334
1.2820036,98.52792
1.3591489,98.3039
1.2285461,97.369225
1.3357607,96.43327
1.2282826,92.56077
1.2313708,92.309006
1.167512,90.47134
1.0586236,92.614044
1.0965915,88.28871
0.99216896,91.27555
1.1040903,88.6631
0.9792629,88.97201
0.90719324,88.98768
0.9089379,84.22923
0.85481125,86.160645
0.9142727,83.69436
0.9532801,79.91828
0.8100243,80.7849
0.76442665,78.5079
0.845213,79.42785
0.89196277,80.88273
0.86297065,76.178375
0.8916066,78.46737
0.817182,75.291565
0.8573378,74.267166
0.93565416,72.82524
0.8297485,72.11359
0.6985458,70.51489
0.7857177,67.19026
0.7379217,67.255646
0.7444287,70.568214
0.658517,68.348114
0.5665778,73.6396
0.51029545,71.297775
0.60715175,71.87153
0.56552476,73.39288
0.5406033,72.31288
0.5465568,73.25497
0.4829181,73.80923
0.55025506,74.863014
0.47870958,77.1322
0.59647554,77.57263
0.6659709,81.05419
0.69811404,79.24784
0.7510218,80.573845
0.83607674,83.8469
0.81430966,89.06029
1.0703281,83.84987
1.1540768,85.75208
1.1846344,90.66439
1.2736716,93.75927
1.3809927,90.650764
1.4534054,96.25361
1.4915086,99.57848
1.6025909,100.32204
1.7498357,103.762794
1.8067061,102.377075
1.8361033,103.7987
1.9020963,108.14398
1.9543949,109.06028
1.8060441,108.674965
1.8758963,111.765335
1.8814744,111.65093
1.9678646,108.92722
1.9959188,121.32552
1.9043616,112.98106
1.9274268,117.33057
1.9968476,115.4476
1.9532858,114.21789
1.9188532,113.30391
1.9718052,115.05785
1.8146253,113.94818
1.9053962,113.08816
1.9166182,114.57785
1.7767979,110.96486
1.7587245,112.27492
1.817224,112.203606
1.7511706,110.556854
1.7157108,111.27305
1.6395721,111.67828
1.6092768,107.27368
1.671448,103.84757
1.505347,106.92144
1.6502302,103.84583
1.5088232,105.082405
1.5183265,104.677025
1.550419,102.51797
1.4821669,100.5951
1.611217,102.50044
1.4776659,102.98469
1.4753861,103.33209
1.430728,96.67596
1.4337546,97.375206
1.4815369,95.08931
1.5078993,99.93428
1.3307029,97.35003
1.3298898,89.56019
1.2952654,92.031204
1.2920883,88.942375
1.2456833,88.13679
1.09367,88.84183
1.0392308,91.51239
1.1328018,88.14813
1.0068405,86.96566
0.99237907,86.25138
0.8948015,86.08141
0.88697726,81.78075
0.94473934,79.537125
0.9597466,81.994
0.9338922,77.73754
0.9689528,79.44555
0.8994276,75.54218
0.80786496,74.518875
0.9024877,75.47392
0.92219305,76.1371
0.8267745,74.386375
0.7635718,73.80601
0.83943164,69.40674
0.86246043,72.07005
0.789548,72.01703
0.7424344,69.93221
0.81194127,71.748604
0.6825063,73.10755
0.67431766,71.5102
0.60576516,67.700584
0.47288743,69.485245
0.4967062,72.27977
0.57405674,72.88311
0.44359472,74.00794
0.42778164,78.14089
0.53105676,74.21005
0.54262775,77.65638
0.5323879,79.897285
0.68682575,83.99921
0.7042557,79.881096
0.78754854,84.32334
0.84695137,82.770775
0.93272895,86.33066
1.0179365,89.25854
1.0997009,87.232506
1.1271961,91.59524
1.2849934,96.9366
1.4374796,93.246124
1.4854141,98.35281
1.5402527,98.82463
1.5331607,101.94396
1.616916,103.19608
1.6978734,103.170296
1.874047,103.60205
1.7938449,109.70469
1.7887526,107.92767
1.8178304,107.58219
1.9180399,110.59324
1.8290856,114.80085
1.8419144,115.03247
1.8459285,114.550735
1.8016984,113.485435
1.8154389,115.82221
1.8201573,113.02121
1.7422912,114.97201
1.8459243,116.9666
1.7749488,117.7171
1.7929667,119.28772
1.7602555,113.86775
1.7237583,114.3352
1.6807152,113.01379
1.6859691,116.70681
1.6092776,112.805504
1.5039867,115.15338
1.5801238,109.12992
1.426808,111.85385
1.4720943,110.26262
1.3565627,110.352875
1.4167074,106.78328
1.3631643,104.316635
1.3696419,105.19839
1.3637093,108.17311
1.2509208,104.67602
1.2840754,102.16018
1.2600286,100.18729
1.2651194,97.38111
1.3607794,96.57901
1.2647543,93.565796
1.2512401,93.50689
1.0926251,96.32845
1.2250073,95.6047
1.1423465,94.34262
1.1746732,92.902824
1.1288513,92.23246
1.0795933,89.48358
1.0397031,88.20494
0.88101685,88.889565
0.8451006,86.06703
0.8393605,86.33969
0.7682893,83.61101
0.7566167,85.50499
0.7230494,81.03444
0.7120527,79.96475
0.69330275,86.400986
0.6866308,80.93056
0.5655745,78.44989
0.6534075,80.69564
0.6748931,77.7656
0.5972999,73.18058
0.6579946,72.599625
0.67221075,71.623184
0.59978074,70.08351
0.6609873,73.13157
0.46791175,70.82232
0.47625515,65.54537
0.51013076,71.20128
0.5449591,67.76887
0.46825597,73.80859
0.4197868,73.55467
0.2757639,70.44324
0.30740106,71.15813
0.20058836,69.68259
0.2580906,72.57093
0.1313098,73.28094
0.2106191,76.78635
0.22852981,73.61547
0.23389415,77.27446
0.27218297,78.44648
0.30557212,80.09849
0.41825342,79.73555
0.4635381,83.10041
0.5267038,82.62685
0.5658879,86.928764
0.67822754,88.696266
0.69335663,92.81344
0.8855593,91.26497
0.9123768,90.394424
1.0614195,92.819664
1.0773802,97.0464
1.2754987,100.0361
1.2566727,99.912224
1.3855152,101.16288
1.3110359,105.03021
1.4289899,106.05387
1.3589122,109.2294
1.432532,107.31546
1.528123,111.97505
1.5305582,107.89258
1.5519094,112.642166
1.5412207,111.65233
1.5653983,114.43509
1.5736957,115.54185
1.48453,116.963425
1.528371,114.72859
1.5628167,115.8189
1.4705257,114.55151
1.3938359,114.97705
1.4022098,116.75583
1.3841277,116.74592
1.4272839,117.26529
1.4173998,120.47686
1.2558645,111.25105
1.2570982,112.287186
1.2606932,110.74093
1.2540256,109.981964
1.1668292,110.66205
1.2240648,107.631935
1.1691289,111.402985
1.1286808,110.12647
1.0236274,105.751045
1.119657,104.402756
1.0500116,101.000145
0.9662352,103.81729
0.9974848,103.31493
1.1219229,104.53973
1.0281473,102.26074
0.93166685,96.3107
1.0331298,97.29872
0.92119527,94.330605
0.85061496,99.96046
0.85452545,96.42272
0.881245,95.14924
0.7179574,90.9252
0.76258296,93.599
0.7800657,91.75792
0.6266731,89.08236
0.6716166,88.65077
0.5143796,89.88289
0.5841949,85.26769
0.46477804,81.9549
0.4811612,85.55704
0.47045392,81.4075
0.40310565,83.42517
0.43077022,78.44127
0.39295918,78.07718
0.43314683,78.95534
0.36041737,73.37205
0.39992836,78.43386
0.31430256,75.741585
0.28713617,73.18546
0.43808416,70.45135
0.33747545,75.331665
0.3120343,72.60482
0.2955161,75.73033
0.27169907,70.49286
0.2795436,70.57547
0.16298667,69.74029
0.14216757,68.60314
0.1262398,71.180046
0.032624476,72.000275
0.08006239,68.26918
-0.004830734,73.15284
0.062180392,75.35926
-0.04320804,69.32953
-0.11915316,72.69266
-0.020337082,74.785576
0.07176507,78.11183
0.014016905,74.7108
0.07801247,77.9662
0.14522323,80.10655
0.20068583,82.30644
0.31605902,81.05032
0.3084303,89.66958
0.45777318,87.86435
0.49796566,85.655594
0.6378089,91.31128
0.78590596,90.57701
0.8364346,98.30178
0.87172955,97.12438
0.9627829,96.39152
0.9860023,104.799164
1.0436597,99.70921
1.1494198,104.10224
1.1542104,106.01617
1.2231328,103.89777
1.3318124,107.47747
1.3646882,111.32077
1.3519593,111.31388
1.2816421,113.34485
1.3754935,112.99993
1.278269,110.01808
1.3695357,110.4449
1.3949786,118.32662
1.3675778,118.82332
1.4208047,117.87961
1.2935622,116.00773
1.3122509,115.609695
1.2679248,115.00086
1.3288498,117.20651
1.1761247,118.58045
1.1838416,112.681885
1.1790932,114.41394
1.1614084,112.42825
1.0976741,110.39959
1.1622808,111.02232
1.0219893,110.9356
1.13357,111.2188
1.0629724,110.516884
1.0428371,107.076355
0.9336171,105.44294
0.9806342,105.50469
0.95812035,108.18707
0.9347515,103.793236
0.9146254,102.68594
0.9134549,100.66323
0.9276372,99.25864
0.8716923,98.54225
0.88239026,98.68915
0.8242414,97.465225
0.86334574,96.51554
0.8205699,95.45367
0.85313404,93.425514
0.7867931,93.51453
0.7216948,92.566986
0.69565636,88.634964
0.61586547,89.50182
0.62096745,88.38545
0.57254714,91.034584
0.5737899,88.82571
0.58225745,82.95965
0.42761073,82.50794
0.44573757,81.68585
0.41192806,82.28363
0.26737157,80.17882
0.407538,80.37187
0.40096995,78.23396
0.41051742,79.10172
0.3226202,79.82427
0.36654443,77.29598
0.3235168,74.48138
0.32087544,75.07982
0.38427788,75.64177
0.33556718,69.00323
0.3821149,72.29638
0.18671887,71.44463
0.36322775,71.9817
0.23766294,71.14154
0.25996694,73.58748
0.1811289,69.5073
0.17718433,69.41278
0.059493054,72.37129
0.04977595,73.04058
0.020312434,71.110054
0.06525467,72.32484
0.032674417,75.90848
0.008570214,73.21912
0.064531446,78.31112
0.21549638,77.34757
0.1943762,79.51222
0.18351033,77.39196
0.24583735,82.68726
0.32368004,80.440384
0.4409531,86.43237
0.52578145,84.58617
0.60552275,86.95724
0.65106165,88.011345
0.88959175,88.599205
0.8179934,95.22174
1.071107,96.02773
1.095041,95.24047
1.1395272,99.751045
1.2084037,104.02146
1.21659,101.4757
1.4153377,103.15875
1.3636528,102.69537
1.5571473,111.73133
1.4420089,108.53143
1.4415557,114.51691
1.4147584,113.45255
1.5224323,112.5252
1.5581595,115.51085
1.541541,114.78826
1.5884455,118.12509
1.564027,112.0991
1.6024302,117.22996
1.5799183,112.03404
1.5853767,117.314964
1.5557609,112.47397
1.5850797,118.00733
1.4099752,113.33225
1.506246,113.844986
1.3535396,111.00719
1.2758464,113.41898
1.4445595,110.930786
1.3733974,111.91607
1.3611404,109.6313
1.3454169,110.52894
1.2753531,108.040764
1.1998563,106.26413
1.2533838,104.789566
1.1850305,107.907074
1.132201,104.686806
1.2160636,102.11781
1.2099147,102.83863
1.1784943,102.30909
1.2470536,101.69214
1.2411857,98.66477
1.1084546,99.78195
1.1641357,97.69355
1.0913835,95.93161
1.1212825,94.57998
1.0449088,94.402534
0.96199673,93.01159
1.0035967,93.15361
0.9323882,92.65548
0.9712781,86.165474
0.8777846,89.73561
0.8993434,85.80234
0.8285349,86.093445
0.77508426,86.47148
0.7229783,84.085686
0.8955582,85.85555
0.66259724,81.5774
0.6969801,82.2253
0.7080394,77.95107
0.63861305,76.66073
0.68560684,75.973976
0.61592984,78.399864
0.689723,73.70591
0.69159436,81.14021
0.5826826,75.90199
0.67229354,75.80567
0.7155497,75.38752
0.7114143,71.15874
0.6067231,68.9469
0.61173296,70.89533
0.57988673,70.99603
0.5848689,71.79765
0.5481331,76.147354
0.47840104,70.76188
0.45917884,71.36479
0.44961247,70.31924
0.3138466,72.261955
0.36767763,70.807976
0.39114058,67.713806
0.44698057,71.898674
0.35701632,73.60649
0.323409,76.13509
0.4524711,81.50307
0.5163598,80.84274
0.6231488,76.611984
0.62630445,83.61567
0.65515983,86.3753
0.89656633,84.84463
0.8709372,86.20653
0.99893594,89.40959
1.065248,93.7722
1.140874,93.72241
1.1887125,94.37181
1.3794881,101.0107
1.4415901,103.037834
1.4440825,100.901726
1.6780154,104.39181
1.5905021,103.21875
1.7503891,103.23047
1.7111319,105.96303
1.728712,111.17362
1.8077546,114.78879
1.7824676,112.40473
1.8339502,112.80881
1.8636537,116.07063
1.857263,114.08923
1.795817,113.60843
1.9821596,117.88663
1.8379357,114.21787
1.8376586,118.18999
1.8409142,117.549545
1.8167557,112.40301
1.7925873,115.30769
1.8400878,111.78545
1.7729152,114.31482
1.6525526,114.0877
1.688064,112.59011
1.6665572,115.01084
1.5785834,112.86927
1.6816008,110.43747
1.6549938,107.87481
1.6447526,110.87316
1.497505,109.193794
1.6598221,110.02763
1.4973412,105.05097
1.4927654,104.40879
1.4668286,102.25541
1.4414964,101.49831
1.5057775,103.61962
1.4906259,101.30382
1.4973762,100.6969
1.3948222,101.35862
1.4493062,101.38037
1.476464,94.9175
1.4477286,96.975
1.3642997,95.60551
1.2411281,95.735535
1.306257,89.191086
1.3432963,90.15724
1.1602198,90.52285
1.2977843,93.18994
1.1515689,90.80014
1.0764196,84.62339
1.0249774,86.857635
1.1006348,85.630775
0.97805625,85.067406
0.97053874,83.46802
0.9707225,81.343124
0.94148964,81.23792
0.95246243,78.82833
0.9206773,76.83877
0.9568657,78.03481
0.9962618,76.40415
0.9739226,75.9545
0.8925465,74.69511
0.8316398,74.44075
0.8436387,74.18332
0.81875193,74.16028
0.8829841,73.7622
0.81979096,71.413445
0.87072086,69.57796
0.7885879,72.59446
0.76444817,66.662834
0.7678794,71.747284
0.70102894,73.57922
0.6147552,69.993385
0.6440016,72.027016
0.5744493,68.860466
0.5446645,73.38057
0.5716121,74.250275
0.6320913,75.56951
0.5267828,75.2963
0.55345273,78.97421
0.6607452,78.07898
0.74298584,80.50258
0.82455915,79.368126
0.8266159,78.88597
0.8854833,84.37586
1.0154929,88.61222
1.1014997,87.07462
1.2462033,91.474014
1.3263584,92.75155
1.374523,90.940025
1.5917345,95.53296
1.6560214,98.10865
1.5919541,92.1404
1.7208477,103.51095
1.7257422,100.4029
1.7209289,104.24373
1.8671628,106.92023
1.8316208,106.74394
1.9286528,111.75925
1.9425324,113.30328
1.9073104,110.44768
1.9728297,112.60083
1.9555706,115.04264
1.9281323,112.08515
1.9951597,114.70419
1.9944065,113.662964
1.9669533,115.05052
1.8949387,116.7211
1.9150882,114.96642
1.8862544,117.32125
1.8224237,115.89352
1.8148046,113.45487
1.8368759,112.914345
1.732058,113.97339
1.6895344,116.66225
1.6051172,113.35587
1.670352,113.730095
1.6835663,112.7489
1.5983377,109.05253
1.5903018,110.93806
1.545223,106.436745
1.56996,104.03333
1.4654558,109.299164
1.4654398,106.60304
1.5300231,104.77916
1.4882866,103.250015
1.4289936,105.77246
1.4741876,104.23346
1.4530063,99.443115
1.479461,98.87535
1.4037877,96.0321
1.390598,94.45633
1.3562232,95.58574
1.2770537,91.46013
1.3334464,88.37989
1.2287418,92.43214
1.1818874,91.0703
1.1962285,89.30534
1.076483,85.27951
1.0601302,86.473335
1.0038747,85.131714
0.95649606,85.80427
1.0251864,85.26071
0.951697,85.60409
0.8990496,82.992325
0.8507614,82.45493
0.9003486,79.01472
0.8483797,78.31562
0.8306725,80.22966
0.7992307,75.5968
0.82711905,75.91726
0.7702315,75.42734
0.7251928,74.42183
0.7752307,76.16809
0.8223367,69.43874
0.7298879,73.042114
0.72211146,72.50228
0.7772325,72.0937
0.6884407,72.88625
0.5957151,70.78737
0.6195211,69.88319
0.5931595,70.23434
0.5294961,72.62507
0.45469698,73.362595
0.4126742,72.54632
0.38444418,69.92856
0.3766523,72.30918
0.3337231,76.176895
0.40324655,74.041626
0.32498446,74.72133
0.41074833,74.62802
0.5068796,82.316246
0.58780247,82.20096
0.69604295,83.315834
0.73492795,82.13895
0.77333367,86.28737
0.94182765,89.11262
0.8982465,92.521996
1.0667678,96.15211
1.1059536,96.07777
1.2457718,93.07307
1.2802786,101.75186
1.4782898,99.6593
1.5280377,103.463394
1.5035108,103.361694
1.6370997,102.17755
1.6649697,106.91421
1.6418595,104.1592
1.5967319,111.205345
1.6903511,108.23462
1.7024074,114.2278
1.7060095,112.11085
1.716412,117.4197
1.7062049,115.99741
1.6777878,112.37204
1.7333066,110.75732
1.6474197,115.865456
1.7816832,111.899216
1.6152653,116.26047
1.5997515,118.43636
1.5276082,118.61427
1.5317435,111.19965
1.5257057,114.20451
1.4762897,111.82893
1.5858725,114.8045
1.4901958,111.69725
1.441141,113.046
1.3787208,110.692726
1.3889155,109.13003
1.3873329,110.67375
1.3196089,106.469376
1.1639056,103.74401
1.2461674,105.20879
1.2892805,105.17438
1.1709454,98.66088
1.0797508,104.28772
1.147896,102.098885
1.1235597,101.01987
1.1038469,102.75854
1.135996,97.01643
1.0403255,98.20577
1.0826777,94.32097
1.1173795,94.03575
0.91775763,90.78395
0.94079727,94.98007
0.9239359,89.076164
0.92536473,93.91113
0.789406,90.87476
0.89616644,89.71559
0.8667271,88.6867
0.78986293,86.47517
0.6888511,87.35083
0.63088685,85.71873
0.5652751,83.427536
0.5848246,79.84241
0.5363407,81.72015
0.60412544,78.75936
0.5350066,78.08219
0.4789571,79.59624
0.5734039,78.62579
0.5066211,76.37907
0.52093416,76.96058
0.5047762,71.6064
0.5524004,78.27923
0.4097436,70.60723
0.57134473,72.559685
0.44146293,72.84421
0.5212985,67.36693
0.27572203,72.48947
0.2305773,71.73955
0.20376733,70.17947
0.21319902,73.609825
0.20985806,68.56732
0.117375076,69.7525
0.11667589,70.852684
0.13055864,70.82536
0.15017314,70.970726
0.13509186,77.194336
0.049675085,79.32737
0.12861855,75.44581
0.03156304,76.372734
0.21303563,81.55207
0.28115043,77.338135
0.22831091,85.033325
0.43831682,82.46596
0.39516315,84.53927
0.4774598,85.21542
0.6971021,88.72579
0.712231,89.7673
0.8517461,91.9287
0.85811293,93.14762
0.95522654,96.09184
1.0733439,94.607704
1.099995,99.267105
1.2029839,100.693794
1.2372657,107.98005
1.2796266,103.295425
1.3183695,105.40649
1.4794409,106.48877
1.3739855,111.50154
1.3265676,109.256165
1.2804878,111.8354
1.4870313,111.36723
1.3753244,113.95062
1.3996258,113.19907
1.5038733,113.001976
1.3135222,114.38789
1.4188808,113.384125
1.394105,112.67012
1.3980782,116.67514
1.4293468,114.407906
1.2488673,113.31905
1.2796272,114.30768
1.2729598,112.88917
1.2345849,111.28976
1.1635845,115.55036
1.1531351,113.71763
1.1187719,110.16507
1.0950911,113.58557
0.9971145,107.90197
1.0504882,110.57718
1.013514,107.26671
1.0470979,106.710884
0.9017818,103.6306
0.9557658,101.09392
0.926387,100.28607
0.99579453,101.31726
0.92373693,99.44316
0.9748013,99.24113
0.8983078,97.54811
0.8712205,96.398155
0.8540145,97.69586
0.8625231,96.58284
0.72081023,97.78325
0.7422988,89.776726
0.7229377,91.47548
0.59903485,91.52095
0.75949657,91.32746
0.5899778,88.090355
0.5762527,89.95078
0.47769135,85.24184
0.5057666,84.416466
0.4562959,88.018524
0.3976348,82.205246
0.3432169,82.18207
0.2534519,83.56786
0.3252015,81.57746
0.40777594,80.59187
0.29962504,79.44907
0.38314682,77.58791
0.37273496,79.071014
0.30088493,75.69513
0.41640145,76.93981
0.31773934,73.57736
0.27366415,72.85
0.32021058,72.28463
0.3034209,68.43086
0.2843795,74.578026
0.19452064,71.75421
0.21335758,67.959175
0.19443108,71.67238
0.037815385,72.72026
0.13851163,69.39656
0.08037533,73.8602
0.012076841,72.93735
0.037645727,72.033646
-0.049193654,74.7103
-0.043396197,72.20614
-0.07169478,74.323715
-0.15934516,77.470024
0.036509797,73.26449
-0.047804143,80.264366
0.15401323,80.255165
0.1950421,82.89488
0.17455943,83.11045
0.45514622,84.82821
0.39275208,84.50331
0.59614885,90.76228
0.6354207,89.35304
0.6924621,93.22299
0.8395786,96.59342
0.82797766,97.428894
0.89737415,96.05959
1.0257035,100.29657
1.1539673,102.61743
1.2001874,104.74454
1.2221607,109.64579
1.287402,107.935524
1.3700776,110.35701
1.2450526,110.614555
1.3838432,111.64338
1.377192,113.90478
1.3810571,112.69601
1.3683611,115.76249
1.4523375,115.729416
1.4257417,113.836266
1.3343836,116.501625
1.4086813,116.07993
1.3496777,117.194
1.4130639,116.738716
1.3314897,114.123344
1.3126262,114.768196
1.2870442,114.63446
1.2374823,113.448265
1.3051646,112.69624
1.298941,114.63585
1.2166148,112.92296
1.1553891,112.92528
1.2074413,110.5148
1.1405172,109.698204
1.1790503,111.04713
1.1363171,108.888885
0.93284065,107.19437
1.0057471,103.90582
1.0292168,105.569695
0.98310333,104.67978
1.0392443,102.66329
0.9363752,102.177795
0.9543159,101.75991
0.99166745,100.34765
0.8759921,99.94058
1.0015259,96.051414
0.8795053,95.78936
0.91820806,94.08723
0.8897395,89.42488
0.89450336,92.05363
0.76759905,92.34777
0.83945817,90.79406
0.71149623,89.50795
0.67800945,87.881454
0.7028216,87.143486
0.688088,88.30642
0.6877538,85.488945
0.51480556,82.756096
0.56615025,76.932816
0.5516479,80.200806
0.4550856,79.97084
0.51771903,78.585396
0.5489244,78.73553
0.52040905,81.245636
0.47671884,78.94464
0.3340198,80.63457
0.47063836,72.812744
0.45947698,75.25634
0.58711237,76.13798
0.4952334,73.78039
0.47221035,70.40366
0.43562946,71.082565
0.41294807,73.5938
0.38431767,70.94767
0.33841047,73.66522
0.3145104,67.6169
0.29382956,70.54739
0.15568022,71.69041
0.21910316,69.03521
0.12329679,75.014114
0.1294295,71.55998
0.21581124,69.83043
0.21113214,70.69707
0.19533552,71.02548
0.30301872,76.492195
0.2040155,81.23517
0.381116,78.928764
0.35754895,79.55318
0.4436683,81.96822
0.5895107,83.513466
0.67978364,86.32794
0.728047,87.267334
0.7686188,87.7021
0.85878205,94.95182
1.074619,89.39113
1.1438234,94.008606
1.2218623,98.144226
1.3881314,102.435905
1.3178688,100.377556
1.3621571,101.87965
1.5821193,102.906876
1.5058451,102.41711
1.5582395,109.652245
1.6131616,107.63708
1.6287674,114.32073
1.6317204,112.335236
1.6740057,113.6323
1.7828455,113.07468
1.6730095,110.367424
1.7158777,118.122025
1.7022955,114.90999
1.609145,115.77457
1.6399596,113.28314
1.6510158,117.8532
1.5827453,115.590256
1.6235539,119.0364
1.6777618,110.54088
1.5902278,112.749596
1.5747128,113.059044
1.583555,115.97572
1.5828482,106.48496
1.3643442,106.960106
1.482882,110.41941
1.4224089,109.890884
1.3564509,108.49338
1.4687961,108.1656
1.3267084,109.1841
1.2804397,106.24229
1.331875,103.26364
1.28103,105.13665
1.339235,102.8718
1.294294,101.09496
1.3064203,100.77322
1.3607764,99.65723
1.2543741,99.2255
1.236863,100.07943
1.3152887,93.959854
1.2599593,94.966965
1.2433841,94.26503
1.2591232,93.52793
1.1561507,90.313065
1.0568713,89.63712
1.1713377,91.74096
1.0725255,92.40485
1.0349374,86.98437
1.0155269,86.6377
0.9134057,88.728836
0.93767905,83.96097
0.80240977,82.51234
0.83127004,83.86533
0.8468923,80.65175
0.72998035,80.88256
0.8003396,78.74623
0.8029597,79.5354
0.74664015,79.40794
0.7427036,75.07605
0.8134693,73.929794
0.84914815,75.30672
0.747819,76.91789
0.79484516,72.59183
0.7142277,73.95999
0.7748666,73.79707
0.8418435,69.77059
0.82454795,66.953964
0.6989574,68.97141
0.64628154,70.41939
0.5888449,70.47963
0.5048,72.63535
0.53012544,74.26807
0.5773541,71.99417
0.5037312,75.53253
0.5507818,74.25145
0.53834957,75.02601
0.49120635,76.693565
0.46384233,74.11823
0.5037151,75.49722
0.6690653,77.93267
0.7072122,78.66806
0.6386659,79.54299
0.8041396,79.192825
0.8766196,87.01301
0.9767009,85.868004
1.1621029,87.40603
1.2284514,88.30366
1.3115857,90.90059
1.4421864,99.2816
1.4432799,96.77358
1.5239778,100.927185
1.6023549,101.871826
1.6772386,105.66584
1.7302743,104.492325
1.7970631,106.45397
1.8348185,105.02395
1.8973628,107.942696
1.8345966,110.745804
1.8783475,115.40969
1.8584452,112.60636
2.023776,112.02967
1.8534622,115.00095
1.9636964,110.71392
1.9438194,114.1323
1.9143078,118.55105
1.897163,115.54009
1.9465075,115.02884
1.9458274,117.014725
1.9941168,113.60209
1.8673413,116.69608
1.8371941,116.84255
1.8344605,111.265625
1.754385,112.92729
1.6812261,109.62214
1.651372,112.619896
1.6662087,112.43239
1.6537876,112.08686
1.5652665,109.93493
1.6010488,107.80294
1.5498112,107.909805
1.5567323,107.01217
1.6349583,109.75161
1.6081434,102.3876
1.571971,105.96757
1.5345248,101.29072
1.4029089,101.963806
1.4371914,102.27123
1.511501,98.60736
1.4272656,95.99605
1.4771638,96.75478
1.479134,96.40713
1.3691432,96.32975
1.3757675,101.040115
1.2597538,91.27923
1.3010083,95.247375
1.2652038,90.016525
1.1031787,89.086296
1.1032565,87.88207
1.1094846,84.47512
0.94881207,82.939255
1.0071074,83.17961
1.0590674,84.0318
1.0098822,82.01144
1.0094279,80.88762
0.91849935,79.290985
0.93117505,79.79882
0.92138433,79.47484
0.9453908,81.11495
0.9541658,78.11558
0.93070275,76.98588
0.92862165,73.71113
0.8586637,72.13014
0.9022601,76.51114
0.9148186,71.872444
0.8513967,72.67115
0.79904944,73.89316
0.8220718,73.55417
0.75103134,70.973274
0.74720114,72.012
0.7918503,72.77732
0.6801148,72.33698
0.5448746,66.83998
0.62549734,68.22035
0.48023605,72.16171
0.5160937,70.36775
0.4865538,77.247116
0.54707646,74.56078
0.5210326,77.3823
0.50242794,76.90583
0.6324413,79.17302
0.6490134,81.03802
0.7620622,78.471115
0.8308908,82.67159
0.9030181,85.143745
1.045988,85.650955
1.0103836,85.27859
1.2056745,88.81741
1.1964185,91.49024
1.3183281,96.49848
1.4789048,97.48938
1.4872291,101.395195
1.5949233,98.24217
1.549794,99.09985
1.6179644,107.53075
1.809334,107.31838
1.7265064,105.14151
1.826869,111.30985
1.8773644,110.55744
1.822921,109.707016
1.8166776,112.63077
1.8582004,114.37354
1.8820777,115.00135
1.8824859,112.12939
1.8836824,115.12508
1.8599511,116.0025
1.918605,116.02047
1.8099388,113.3017
1.8582286,115.871284
1.8485141,114.98167
1.7194862,110.226166
1.7281984,116.33688
1.7017782,112.84862
1.7046134,115.71067
1.6688607,111.6212
1.5917549,110.82129
1.5828873,111.74216
1.5826626,111.215675
1.4765546,109.73715
1.4948825,110.61705
1.3831382,106.45479
1.3863976,107.90687
1.4001961,106.480194
1.3467544,107.60518
1.3488208,105.63778
1.3742781,104.53677
1.3986733,99.79869
1.3470966,103.85623
1.387746,98.69828
1.3453304,99.66743
1.2666197,96.31487
1.2539018,96.71238
1.1077089,98.71453
1.2187093,97.54714
1.0998658,94.49272
1.2180021,92.54062
1.1254883,90.03233
0.98323005,90.591736
0.925559,88.619644
0.95241106,91.043976
0.9413493,89.20415
0.92026824,85.84878
0.84920007,87.49314
0.8262802,83.14667
0.7707275,83.121826
0.72827005,76.18395
0.6634946,76.89851
0.7371327,77.737686
0.75956583,81.91363
0.6284149,77.61041
0.6721494,77.72258
0.64759797,72.59257
0.6764249,77.20171
0.64254296,68.92924
0.5826655,74.95281
0.64873224,70.75108
0.6364623,71.31279
0.5578616,70.87585
0.56245023,72.00021
0.39532357,70.88115
0.51051646,68.460625
0.40878242,65.06893
0.33043063,69.46343
0.28627223,72.09895
0.26103806,70.12647
0.27137208,73.653465
0.14204608,72.89215
0.2560037,75.291336
0.22876635,75.56576
0.29164183,78.14434
0.34035754,75.870026
0.34907588,82.1951
0.38876346,79.27652
0.5020823,80.45945
0.5429562,82.309135
0.6060692,85.40367
0.79170215,86.0345
0.7940258,86.5275
0.9678125,92.89035
0.9526112,95.70356
1.0409029,95.49874
1.087683,102.65814
1.2191304,99.57541
1.3412682,99.704124
1.4106281,102.16744
1.4076917,103.78585
1.4302421,104.5335
1.5007507,109.53295
1.511815,108.1621
1.5144838,111.85938
1.4256359,113.411354
1.5843061,112.5661
1.5871173,113.99505
1.5159153,114.5558
1.5040972,115.211365
1.5716574,116.65568
1.5305781,112.313515
1.4439582,115.572754
1.4728197,115.453705
1.3247167,118.32328
1.4551139,118.66157
1.4171007,110.5813
1.4506084,114.91839
1.3725796,116.04804
1.3123655,115.23345
1.3460214,109.425995
1.1973293,112.13363
1.1228801,111.11221
1.1687149,110.64253
1.1167476,110.7452
1.194357,112.88133
1.1585872,106.058975
1.1240703,104.47203
1.06241,105.16168
1.1647569,104.80977
1.0096755,104.71956
1.1079632,99.69268
0.94115,100.58022
0.9347516,101.76003
0.9751993,97.30515
1.0045804,96.59866
0.94634664,96.933426
0.90932447,97.4362
0.9525614,99.15674
0.7612578,94.50927
0.8308152,89.27417
0.7661112,89.28511
0.7790643,92.74597
0.5701732,87.769875
0.7590753,88.6428
0.60070443,85.177925
0.5037124,83.157394
0.4803251,85.272194
0.50320107,80.31425
0.37762177,83.66784
0.30740762,82.653404
0.44427213,80.581024
0.4989601,80.958694
0.38485867,78.83772
0.28848287,74.60848
0.32579744,79.79561
0.37686485,75.48248
0.42933923,75.23526
0.3844327,73.760574
0.34023818,73.96736
0.30812794,71.461006
0.35557592,68.202644
0.2714581,71.53644
0.36424828,71.17312
0.19648999,70.40836
0.22849935,68.41296
0.04713455,70.30337
0.09093236,70.84509
0.08527136,70.20875
0.005832655,73.166405
0.06961649,71.66276
-0.008917011,76.371086
-0.010137449,73.10858
0.009122262,76.94059
0.01546874,74.22326
0.061835952,78.28686
0.05543696,77.7959
0.092117466,78.15557
0.19782116,79.54628
0.31037754,83.472565
0.4301678,85.22336
0.4627554,86.12246
0.644912,83.35402
0.6422758,89.44757
0.75455636,91.709625
0.82521284,89.92788
0.931217,96.88041
0.8898737,99.464775
1.0399681,99.77534
1.129278,101.181854
1.2047324,105.80696
1.208889,105.80813
1.2512155,106.14254
1.3211354,110.324524
1.3644199,108.39814
1.3202858,111.70943
1.3915008,108.35233
1.3451931,111.325676
1.4072888,111.18554
1.3259051,116.85427
1.446429,111.31366
1.3877815,115.12206
1.3236028,113.67063
1.3675525,118.66808
1.3609734,117.19313
1.3369632,115.869606
1.2107749,112.881905
1.2241333,114.82162
1.2265469,115.626495
1.1957575,112.892845
1.1398896,110.16102
1.1391435,113.58184
1.0431067,108.997856
1.012192,112.05726
1.0364149,112.16861
0.9897682,109.128334
1.020226,109.35022
0.94410145,104.303795
0.998314,104.13397
0.93656474,102.15666
0.8517536,99.90741
0.880097,99.87345
0.97219104,99.76481
0.9114418,98.936676
0.8971617,93.10048
0.8391868,96.82106
0.87908435,95.931854
0.8878845,95.90892
0.7795349,94.277664
0.77961975,94.75549
0.67531884,95.678764
0.7859099,91.55256
0.6035356,94.00618
0.62841743,91.01269
0.6544721,86.383545
0.5999788,82.995346
0.5235315,83.39677
0.531351,88.28038
0.48760393,84.845985
0.40181348,83.932106
0.35860476,80.805504
0.41392836,80.02542
0.37996876,84.22543
0.32982233,77.72852
0.3308534,81.23042
0.42363158,77.07832
0.29408425,77.36573
0.40833774,77.214966
0.36785278,74.814644
0.3145047,74.59334
0.33369687,72.55313
0.3381727,72.1029
0.3083598,73.76179
0.2562785,69.13741
0.3471414,70.15703
0.18963347,72.31835
0.14124861,71.8461
0.18900524,73.40946
0.02864734,68.86317
0.11705101,71.3236
0.08551474,74.0623
0.06080638,72.53694
0.07272968,73.55836
-0.020390514,74.40991
0.0037223985,77.57085
0.037731398,74.66431
0.15425089,77.35963
0.20742333,80.2047
0.29705304,82.82656
0.35324523,80.2371
0.4187805,84.422615
0.49240145,89.98525
0.684245,87.356804
0.71323144,88.92487
0.7229768,92.652405
0.90357035,95.720566
0.9721315,94.53368
1.0840381,98.435616
1.1888515,102.99998
1.1563301,100.80953
1.2502494,100.25313
1.2800641,105.41924
1.3868376,109.63548
1.3822914,109.61724
1.429811,111.82825
1.4316099,113.6563
1.5279039,110.576935
1.5566751,111.021
1.5732212,111.445175
1.6455106,114.2644
1.4941878,115.73146
1.5041301,116.2528
1.4645927,113.65705
1.4878145,115.91964
1.50342,120.00107
1.4255306,114.63689
1.4402745,117.448906
1.3757278,115.75032
1.4058834,113.34807
1.2776425,113.494514
1.3843971,111.71825
1.2366021,114.41537
1.3619666,112.08321
1.1869059,109.54467
1.2022774,110.68372
1.1957313,110.61651
1.1700928,107.16468
1.2267529,107.91003
1.1025847,106.16902
1.1913483,103.27747
1.0739226,101.26245
1.0988798,103.12597
1.0687896,102.45145
1.2033464,101.524765
1.1182017,95.13082
1.1359307,93.7821
1.1007932,98.98015
1.0403636,96.4062
1.046584,95.99057
1.0071117,96.32097
1.025964,94.89186
1.0548698,91.371475
0.85746884,91.7792
0.8475301,90.664925
0.8986611,90.563576
0.85070366,86.09712
0.84058195,87.11463
0.68256944,82.17102
0.6635586,85.73172
0.6976277,83.57602
0.69758916,81.11876
0.689193,82.57268
0.70996743,83.61159
0.7244556,81.43044
0.61993515,79.62696
0.6239284,75.20777
0.6458181,78.18635
0.5612271,75.96792
0.59140223,74.142365
0.70382416,70.514824
0.6481177,72.35758
0.60076046,72.82073
0.4928648,70.31831
0.5334203,70.96397
0.5939302,67.80179
0.57552356,70.347176
0.52596873,69.652
0.32666025,72.33241
0.42678484,70.92738
0.36950338,68.67502
0.29724014,69.83619
0.28420487,73.1116
0.36032513,71.236244
0.39051008,70.53478
0.31307602,74.67775
0.38088596,75.22913
0.38468307,76.78231
0.46906018,80.15712
0.5186082,76.508316
0.5097411,78.439125
0.7093718,81.100334
0.77473974,88.76582
0.8883463,84.275
0.9905761,88.0424
1.1071789,90.19815
1.1294775,91.57814
1.2302996,97.246735
1.339747,94.67148
1.3862896,98.85158
1.3811878,102.471275
1.5503893,99.13277
1.6838653,102.53599
1.6510421,107.1125
1.7448825,109.21426
1.7545414,107.68576
1.7695578,110.91675
1.8203372,111.641685
1.8894386,112.93162
1.8043354,111.59308
1.7830453,114.844696
1.9012582,115.41585
1.7988608,113.4203
1.8293244,112.5999
1.7686261,110.504684
1.8915826,110.61693
1.8944758,115.49387
1.7959054,115.189735
1.8361894,116.87577
1.8172607,114.00137
1.648174,117.51724
1.6738408,111.768425
1.639152,114.15335
1.698664,106.74494
1.6160159,111.96219
1.5331986,110.438866
1.6090953,111.496925
1.552879,108.03214
1.5587865,108.99744
1.4694295,105.60679
1.534999,105.790794
1.5082918,102.98638
1.4604305,105.08085
1.4315646,98.109886
1.4675126,99.64475
1.4581807,98.52692
1.409868,101.41045
1.4227716,94.28548
1.4018365,98.32369
1.3711392,98.084946
1.356462,94.231895
1.3447514,91.37736
1.3263376,94.651665
1.2858782,90.70645
1.197446,88.93385
1.1476809,91.9947
1.1528602,89.07591
1.1506621,85.5688
1.0617895,86.79576
1.0636177,86.674995
1.0492973,81.52443
1.0080371,83.45043
0.93272835,80.705124
0.92771167,79.04879
1.0087732,79.15611
1.0259593,77.43269
0.8630121,80.79853
0.9100793,76.0638
0.867493,74.1252
0.9429657,76.33689
0.9173622,74.858536
0.929689,72.453156
0.9280943,71.640114
0.8426031,75.85235
0.80533254,70.191795
0.85831815,71.573784
0.73698753,71.08224
0.74322796,69.807846
0.73799807,74.29296
0.7285236,70.04306
0.6158512,71.20484
0.5532605,71.80927
0.6662773,73.75637
0.52135265,71.17274
0.5939216,75.39475
0.5276578,73.98086
0.4945741,73.66652
0.6555452,76.63636
0.6938545,77.62174
0.68059605,77.82488
0.7978642,84.92703
0.9341636,86.835464
0.9341115,88.19234
1.0020353,88.635124
1.1437289,85.83424
1.2814116,93.43103
1.2357033,92.14472
1.4044381,95.08103
1.4752754,96.89169
1.5872381,97.8153
1.6760706,98.88087
1.6912154,100.813194
1.7843826,104.62237
1.8542581,106.10612
1.8250188,102.04283
1.8478491,107.918976
1.9111658,107.59015
1.9584441,110.0743
1.9404504,113.6138
1.9654455,114.21654
1.9880738,110.986755
1.9622558,115.86688
1.9777,113.16886
1.9088538,114.84712
2.0168796,114.28829
1.904382,118.46219
1.855021,117.51831
1.9238807,117.96851
1.8109872,117.64302
1.8710847,112.17246
1.8694032,117.635605
1.6842746,112.43895
1.6669446,113.18401
1.7600776,107.299675
1.6360108,112.45218
1.5631104,113.94274
1.6847478,112.17202
1.5521786,105.96481
1.5427653,105.02087
1.512149,106.03288
1.5841461,106.23306
1.5668198,102.01778
1.5111593,104.432175
1.4289837,102.9398
1.4049057,103.498
1.4617379,104.160164
1.5077863,99.89087
1.4538071,99.79985
1.4482962,97.41265
1.4270225,100.58734
1.3836023,95.581955
1.3411518,93.162735
1.3264415,91.243286
1.2683556,91.38439
1.2141637,91.72679
1.1844603,90.588066
1.0810349,87.195274
1.0048416,87.41479
1.0752978,85.39788
1.0072577,83.227234
0.941255,81.540634
0.96459305,85.607864
0.8946983,83.00315
0.8478572,79.76919
0.93206894,79.90577
0.8425576,78.890625
0.9071158,76.75323
0.9392836,78.26897
0.80348843,78.20685
0.8658454,78.0803
0.8554116,74.842155
0.8749923,72.270645
0.74569595,69.56159
0.8200056,70.06095
0.76766044,72.6119
0.65132684,69.84384
0.6937765,67.729355
0.6366178,74.3852
0.67515856,67.563484
0.5953973,71.13846
0.53061974,70.63636
0.4294287,70.60328
0.49615487,75.38076
0.32136476,73.78506
0.40327054,73.89151
0.40890464,71.92231
0.37858903,77.80598
0.4360204,76.60786
0.47891662,75.69181
0.55782276,76.63633
0.58658403,83.69615
0.677971,84.25933
0.7610867,82.908455
0.7693758,88.19647
0.9078229,90.043365
0.92372876,90.63815
1.1481527,93.786644
1.2367488,92.511406
1.3638877,95.023834
1.2855849,100.2888
1.406448,96.02434
1.5024499,98.960556
1.5072595,102.66244
1.5673771,106.02744
1.5873443,104.482216
1.6999135,105.91618
1.7609861,107.58836
1.7646285,112.671326
1.6403892,111.59021
1.7152135,114.75545
1.7715605,110.065834
1.7850416,115.706055
1.842267,115.227776
1.7880186,116.70004
1.7211949,114.32
1.7165881,113.173706
1.6673132,115.729645
1.7299174,118.36432
1.5535921,115.461296
1.648449,113.78218
1.5727278,115.9702
1.6121742,115.08842
1.4874341,109.29567
1.4741449,113.81292
1.386892,111.67252
1.466618,109.88276
1.3733089,108.12517
1.324412,108.95619
1.3349816,108.36931
1.2589749,107.66741
1.2583939,106.022484
1.1864474,104.69898
1.1932242,102.20713
1.2127246,100.868
1.2246857,101.5
1.1717567,98.16397
1.1928341,99.39742
1.1503428,99.652275
1.130338,95.74363
1.1478808,94.277115
1.0191666,95.4838
1.0716544,94.81688
0.9427124,94.436386
0.98005736,95.926384
0.82662636,92.061646
0.89502615,92.16267
0.79616636,89.65478
0.7472,86.98634
0.7665175,87.16613
0.6224496,88.25072
0.666741,87.50336
0.6726147,85.89949
0.60847235,81.61863
0.6672826,80.77303
0.55399776,83.79377
0.5682646,77.81689
0.49379548,76.63255
0.48234543,78.125595
0.44269106,73.123535
0.47073117,75.74138
0.4699797,76.72859
0.51731056,72.58362
0.45072788,74.95189
0.48945978,72.461464
0.4278805,71.111145
0.42799115,71.8158
0.39598262,70.538704
0.32837528,69.35288
0.24088839,68.87072
0.18279509,71.95262
0.25720242,71.2067
0.19171011,70.50713
0.13416727,68.621376
0.07202947,70.53903
0.07744458,71.55919
0.084978595,75.164085
0.06500897,69.09111
0.077656224,74.78343
0.08884961,77.80867
0.2645386,79.64413
0.2443885,82.340485
0.32451695,83.72758
0.33079252,84.78142
0.44113877,84.18912
0.6332114,84.9215
0.62756693,88.59287
0.7658351,88.16899
0.82599205,91.17073
0.8380499,93.415855
1.084559,98.138054
1.0239267,98.48654
1.1404654,101.61416
1.235503,104.02883
1.3209659,101.516106
1.3313755,106.25557
1.4125584,106.39639
1.3948216,109.60485
1.3571901,110.14373
1.3652736,110.99874
1.3601246,118.41019
1.4515518,116.554214
1.4552699,116.32037
1.4508022,116.21167
1.422535,114.998344
1.3820484,117.99063
1.3916944,112.39616
1.3419741,116.82502
1.3798014,115.740326
1.3017818,112.879845
1.3900998,115.98553
1.3586793,116.76295
1.2618195,111.63612
1.2350279,114.5319
1.2029331,112.53355
1.1279557,109.8827
1.1367357,109.97263
1.1441135,113.39188
1.089304,109.85943
0.95548093,105.978806
0.9829007,108.412796
0.9788231,107.57665
1.0002286,100.89313
1.0624137,102.625786
0.9384458,101.15686
0.941948,105.02467
0.7817971,99.37722
0.9114412,100.3711
0.9002568,98.43927
0.92983276,97.28314
0.82237434,93.9752
0.8515315,94.19195
0.8300258,94.18192
0.71150357,94.18626
0.65091133,92.31991
0.63854635,93.1299
0.62119406,89.58235
0.6048175,86.18484
0.5876114,88.95384
0.59976643,88.099884
0.5139936,86.759544
0.49132785,86.14028
0.3789781,84.47756
0.39288422,80.4719
0.3728642,83.60588
0.33292535,81.105286
0.32957622,81.66877
0.26895052,77.045044
0.36020234,79.82185
0.32701322,74.52464
0.32376808,74.038376
0.32995778,75.45003
0.22847794,76.8257
0.3473043,73.0776
0.25284618,72.11558
0.17708613,70.244415
0.27268824,73.56088
0.28820843,72.53317
0.15569434,70.216156
0.20505555,66.46443
0.07204351,72.53699
0.03669537,69.71861
0.008949582,70.82744
-0.029351035,71.80791
-0.06515803,72.35639
-0.069525905,71.8878
-0.010037785,74.90959
-0.11420311,72.66922
-0.010355686,77.309784
0.01124917,75.179375
0.03335325,79.07976
0.12517352,80.75092
0.08778304,79.465065
0.26480114,81.7551
0.31441784,85.35572
0.4096198,87.182076
0.44855988,92.69092
0.6750148,90.60139
0.7164355,94.70454
0.7663629,95.32111
0.8969123,94.41982
0.9648902,100.56199
0.9038565,101.6051
1.1579032,98.83246
1.0983242,103.6831
1.2256619,104.130554
1.21342,102.478935
1.3595289,111.9789
1.3277988,109.01237
1.360612,113.47493
1.3087788,110.99859
1.3722551,114.64396
1.2932271,114.51883
1.3927507,112.98658
1.3785454,116.75822
1.3595973,114.23362
1.3922076,117.91134
1.4072467,117.808945
1.3223637,112.15655
1.4052827,115.942085
1.3638049,113.96933
1.2787713,112.978264
1.2860804,110.306366
1.2354388,114.040565
1.2284744,111.98539
1.141999,108.844
1.1671348,115.292015
1.1108515,112.05214
1.182891,111.12481
1.0953795,107.725105
1.0444335,107.94014
0.96761256,105.302536
1.0866194,106.83217
1.060062,102.666565
1.0491271,105.1084
0.9654177,98.24807
1.0003977,102.33059
0.9852212,99.48901
1.0082662,98.13803
0.92899954,99.80576
0.9616562,98.804184
0.90692925,96.06663
0.903761,94.49106
0.8093619,95.636696
0.8829958,93.060684
0.7470866,92.07569
0.7965864,95.05869
0.7876968,93.144394
0.65142494,86.49337
0.62964046,87.73662
0.6079247,84.92265
0.5922404,87.27716
0.57392097,83.028435
0.5672766,84.90874
0.4358027,81.54489
0.5381712,84.00938
0.38022926,81.61689
0.4628112,77.87305
0.43981647,75.26354
0.52708536,73.96306
0.51640546,73.389336
0.42952603,74.558426
0.5134816,75.8932
0.45969313,68.77159
0.43201545,72.50682
0.45723927,76.92191
0.41829136,73.88325
0.41329032,71.78347
0.42851484,72.27371
0.36737075,68.78012
0.28394416,69.29419
0.31749776,69.564545
0.24223547,70.41386
0.16575128,73.53565
0.29796717,75.21114
0.09586324,75.9005
0.1743596,71.20651
0.22335476,77.15972
0.15155952,77.22066
0.20726225,76.63856
0.35728613,74.86435
0.29089594,79.45484
0.43512523,79.667145
0.35359168,82.34292
0.54533327,84.79775
0.6478689,86.68619
0.6933896,90.502
0.78110516,89.02158
0.9525989,92.46819
1.1045973,95.6615
1.0883871,94.65579
1.1713424,96.09986
1.2457957,98.54471
1.360795,99.840126
1.3737996,104.986115
1.4198447,106.40237
1.4922161,104.9052
1.4406803,104.73134
1.6070801,107.91435
1.5932227,111.02381
1.653299,110.818596
1.6508002,110.806046
1.639757,115.07353
1.6280386,113.08709
1.7323025,113.74957
1.6774006,114.679726
1.6970068,114.11679
1.6819448,118.83054
1.6766814,116.431076
1.6204298,120.10186
1.6209632,115.896706
1.6099108,116.81275
1.603815,115.9889
1.5114688,112.13467
1.529166,113.61632
1.4436145,111.799675
1.3896128,109.10722
1.4380065,110.57555
1.4211433,108.3056
1.3393359,110.1028
1.3286346,109.8993
1.3629076,105.30537
1.3719805,105.92867
1.2952058,100.46449
1.3622564,102.04541
1.2956582,104.45851
1.3569827,98.92482
1.3352442,98.36894
1.3184309,95.89811
1.197033,98.340195
1.1779258,97.12279
1.2543672,97.8849
1.2283783,92.80585
1.2789267,95.954834
1.228667,91.06091
1.2024845,92.4349
1.1433077,93.74838
1.1116177,90.98381
1.1384044,92.96183
1.0158675,87.61594
0.94401485,84.64082
0.9303223,87.48474
0.95646584,84.50583
0.84998083,84.18138
0.76952714,84.4314
0.84491926,83.16271
0.88660634,78.430916
0.76728743,81.24307
0.7594268,80.62187
0.7977302,79.3488
0.7855803,76.22358
0.80703545,76.18868
0.78178644,75.64467
0.8281525,73.192505
0.7943038,72.34338
0.8549173,74.32002
0.87034875,72.309555
0.72218466,73.72813
0.7097407,71.99684
0.6257228,71.895386
0.6823311,68.49616
0.5201618,69.850845
0.59893495,73.77012
0.5673312,71.6559
0.5172391,72.05916
0.6112954,75.556625
0.5295386,68.61069
0.5884671,73.09451
0.47981656,73.574135
0.45843977,75.85477
0.5128242,77.88193
0.6670137,80.888176
0.616015,80.13635
0.62140036,82.131584
0.8323666,87.84706
0.9370454,83.88987
1.0136375,87.16936
1.121123,90.11535
1.221445,87.27223
1.2730213,94.531715
1.2973385,94.622604
1.4793415,99.96456
1.4904498,96.203545
1.6026659,101.93819
1.7046719,102.43301
1.7246935,97.441055
1.768574,106.03371
1.8310847,106.2554
1.8741722,106.596954
1.8682166,111.758675
1.8430176,108.33744
1.8419077,112.282074
1.9704944,113.8595
2.0052063,111.18264
1.9090165,114.44945
1.9086474,115.99416
1.9548281,113.93101
1.9529675,110.43935
1.9454962,114.776825
1.900855,117.42473
1.936863,116.22173
1.8267862,118.722
1.8742517,112.91
1.846762,115.00542
1.7928503,111.675
1.7102188,115.22164
1.7055818,113.313705
1.7427685,113.31937
1.6441288,111.264366
1.5966122,114.813896
1.6215297,109.16446
1.6248217,111.749954
1.5433127,107.54208
1.4988835,104.27552
1.561385,102.02944
1.5739566,102.07911
1.5141262,101.77604
1.4973515,101.73068
1.4206475,102.393654
1.4155748,97.917564
1.503132,99.60821
1.3941759,96.46973
1.4059505,97.91848
1.3828629,94.36696
1.4468384,97.28912
1.2681552,92.241264
1.2533613,89.59034
1.3083853,92.26013
1.1578684,90.81073
1.113003,88.19432
1.0712073,87.6913
1.1168059,85.93852
1.0085497,85.24447
0.9769441,89.53871
0.9619085,82.18091
1.0144753,81.12611
0.9562334,81.74547
0.8852157,81.033714
0.8706404,81.51073
0.9250562,80.39599
1.005783,78.37345
0.9034765,75.31056
0.9285886,75.6048
0.85579515,76.50791
0.8939563,73.6037
0.8936281,73.53082
0.8989482,70.01896
0.80095357,73.75909
0.7941303,73.89469
0.6780868,72.646454
0.7038947,69.45018
0.74356467,72.04837
0.5895092,73.11069
0.57290196,70.06397
0.4801578,73.63275
0.521992,72.64675
0.49512178,71.63229
0.4925905,75.16199
0.55166095,71.26162
0.4782091,74.95402
0.5250263,73.964096
0.63339424,78.71419
0.6180648,78.85422
0.75542617,79.73733
0.8326,81.152054
0.8888202,87.10764
0.9252072,86.4798
1.0527992,86.7306
1.136068,93.2875
1.2933899,90.90262
1.3252134,94.66866
1.3681716,100.51225
1.4340588,95.86556
1.6201133,98.81009
1.6467019,102.46646
1.6305512,102.361275
1.6841912,106.44541
1.7339168,107.679695
1.7802604,107.32325
1.8370303,110.40137
1.8523154,105.256744
1.8660445,113.54188
1.8359115,111.43288
1.9302819,112.26392
1.856171,115.37177
1.856772,114.02303
1.8305482,118.082664
1.8704637,117.13512
1.839309,119.48351
1.8835974,118.27042
1.8190475,114.87956
1.8432539,112.01785
1.7651262,112.90991
1.7375443,112.128525
1.6095318,110.90155
1.7051862,110.08187
1.70587,116.3041
1.7065957,113.81505
1.6247076,109.8867
1.4719425,106.33349
1.4915152,107.70595
1.4091594,108.56081
1.3958323,107.44038
1.3671374,108.20031
1.3065114,105.672806
1.4456495,102.362144
1.4228158,104.94609
1.3862262,99.773224
1.422215,99.085495
1.3763652,101.032715
1.3468782,95.85043
1.3566626,101.79277
1.2818189,93.377945
1.1708623,95.94796
1.2168164,92.58182
1.1737307,94.051956
1.1882786,93.48361
1.1535335,89.27903
1.0873474,93.171936
1.0308809,86.151535
0.9716699,88.98982
0.8612845,86.187256
0.8858521,84.802185
0.82461745,83.70429
0.8511546,84.11613
0.7178379,81.68055
0.75429285,79.70683
0.7021116,79.795944
0.70084,76.64219
0.7658012,79.17395
0.74066645,73.481804
0.6224007,77.15397
0.7308185,74.7913
0.72141457,76.11651
0.6853403,79.39689
0.6221958,75.362526
0.7017428,73.2215
0.581491,73.77455
0.5722552,72.9361
0.55325234,72.363464
0.5624508,74.353294
0.40233105,69.49436
0.3728985,68.90042
0.3984125,73.15012
0.32487193,74.4177
0.35259324,73.07778
0.25183338,71.013084
0.14056334,70.82645
0.24247551,74.812004
0.22696349,73.92061
0.2934054,78.14291
0.21495157,73.31828
0.32306346,79.13673
0.33933243,82.65435
0.38939255,80.63602
0.53740287,83.49675
0.66551226,83.42216
0.77563787,88.82747
0.8474056,90.127426
0.9117675,92.6033
1.020118,94.91701
1.0852638,94.97575
1.1591713,98.32939
1.3781871,98.2946
1.3141036,98.82808
1.2956917,106.753685
1.4493953,107.17819
1.4734753,104.67233
1.5407101,108.854034
1.5670394,110.249214
1.6464523,109.0201
1.4606222,114.50566
1.5405879,111.63982
1.5957545,111.79607
1.567067,117.46175
1.5424274,115.000046
1.6307564,115.10223
1.581984,116.97887
1.5642508,114.9064
1.5914799,116.49225
1.4611357,118.609344
1.4676561,116.98407
1.4337173,115.8644
1.4115347,116.126945
1.5296686,115.283775
1.2924422,111.686516
1.3878227,115.25516
1.3168632,110.96088
1.2732769,109.69538
1.1251788,114.63245
1.159481,111.02528
1.2288296,108.6946
1.1313511,105.73571
1.0670652,107.106766
1.1089077,106.281586
1.1095045,102.842316
1.0392685,106.90788
0.9730452,101.81606
1.0180604,99.296326
1.1440738,100.75368
0.95254546,99.52795
1.0499505,96.94296
1.007935,95.093475
0.98067105,94.78626
0.9021752,89.99461
0.81866544,92.92577
0.8048945,95.84225
0.77123797,91.948906
0.7695187,92.62155
0.6849774,90.494194
0.6667601,91.86842
0.5477809,88.74319
0.56879693,86.184715
0.5810864,85.78744
0.42345554,82.27292
0.47057933,81.52251
0.36367357,83.175064
0.41165638,80.80949
0.36764464,78.5707
0.45540056,79.770325
0.3468145,75.31321
0.48210606,78.78071
0.36433816,77.01073
0.43920425,75.49268
0.36267692,74.30955
0.40832338,75.57325
0.39028057,72.04221
0.2660433,74.478775
0.33581904,72.49511
0.25291142,69.09294
0.20191722,69.97234
0.1456156,70.21723
0.1566637,69.08746
0.1693697,69.92279
0.08121361,72.266495
-0.019956015,68.744446
0.071647234,71.59929
-0.056872573,73.39362
-0.06749976,75.2973
-0.102741,74.3767
0.03627829,74.691666
0.12935841,78.12957
0.044935517,72.635155
0.10722254,80.98355
0.17351867,79.20547
0.2718862,84.59523
0.32155436,86.49998
0.51546216,83.68002
0.5113924,89.1125
0.6048568,91.4432
0.73197985,94.8001
0.8337361,96.09862
0.94224197,95.943665
0.8927907,100.09491
0.972335,99.21634
1.0475693,98.59526
1.2396162,102.705376
1.1798884,103.31592
1.1515415,108.08832
1.3162956,107.68531
1.3485028,111.596985
1.2978193,111.70793
1.3163203,111.46966
1.3806207,112.58898
1.4078087,116.188225
1.3478853,116.32696
1.3913063,115.27176
1.3047886,114.16463
1.3118926,118.06803
1.3865472,116.560074
1.2745552,115.78132
1.239759,114.44495
1.3088336,115.02167
1.2176847,117.880165
1.2462387,112.21781
1.2029399,113.30885
1.1415431,114.065346
1.0960686,110.61445
1.0500085,111.53171
1.1506202,114.79099
1.0258015,110.916725
1.0294882,107.67248
0.93192756,109.73558
0.97470474,106.08312
0.88781,104.50086
0.9257101,105.11246
0.96681094,104.40983
0.91116536,100.52425
0.82930326,106.618965
0.8667389,95.4444
0.91372657,100.917755
0.7249112,98.959625
0.9302347,97.00358
0.83938545,98.34648
0.770546,95.58835
0.827093,93.07724
0.80404615,95.22975
0.7230155,89.73362
0.65951294,88.12351
0.5730491,87.46893
0.5791124,84.69793
0.51444066,87.97054
0.54296863,84.06884
0.49855685,84.76583
0.4885063,83.079445
0.45665658,85.80753
0.40670916,78.81585
0.44141424,82.50354
0.41961774,83.242134
0.4436883,80.08944
0.346397,72.19892
0.28053042,78.12467
0.321353,75.670135
0.3551928,78.03239
0.37077075,76.93598
0.34576952,75.88994
0.38324377,73.37966
0.25986284,71.61237
0.3534018,73.451385
0.29140642,72.271324
0.18944727,69.25309
0.21812928,70.84759
0.1972387,68.436134
0.28012127,70.87602
0.120264634,69.30789
0.08067598,70.29443
0.02686656,66.732735
0.04851816,75.797516
0.0054511125,73.39014
-0.0261034,72.5978
0.089938946,75.00369
0.12088548,74.96899
0.04168011,76.97043
0.0773038,81.71474
0.27275455,85.005325
0.24845129,82.25007
0.4057972,83.633224
0.44594586,86.17016
0.6790393,88.91574
0.7623795,88.8796
0.8850669,89.46631
0.9038887,93.64683
1.0509262,96.40099
1.0951266,98.92074
1.0648087,101.66244
1.290742,101.05615
1.1748725,102.15676
1.358294,102.35571
1.3363014,107.07099
1.3710376,105.70704
1.3766704,111.22432
1.3934658,109.41576
1.4825855,112.66992
1.4753956,110.28954
1.4346852,115.55558
1.5120373,114.88134
1.5118202,115.26987
1.4893368,114.99394
1.4590609,112.78584
1.4486195,115.97106
1.457604,116.48283
1.42988,116.50751
1.4785326,116.43472
1.5018808,114.39262
1.3687727,116.78073
1.413431,111.16416
1.287081,111.726265
1.4455578,112.26341
1.2505617,111.820366
1.2256327,112.11383
1.2267438,103.81558
1.2647457,108.54003
1.1971444,111.105385
1.2070491,106.64427
1.1721512,108.90786
1.2565218,106.37167
1.1433076,103.689224
1.1162571,102.17608
1.1225498,102.62271
1.0408099,102.75756
1.0735124,99.56035
1.0555363,95.41289
1.0838554,98.56741
1.0769022,96.57766
1.1203818,96.88116
1.0268202,91.72677
0.954272,90.39942
0.9471137,92.04101
0.9151776,92.29829
0.99605036,88.45252
0.93682396,92.01456
0.8321579,90.82186
0.77023417,87.03711
0.72734076,85.415924
0.7632867,86.739716
0.67862743,84.06072
0.7023232,80.06737
0.651145,81.82953
0.6198428,81.06291
0.7268994,79.7006
0.66723394,78.83332
0.7215109,75.56069
0.64507776,74.92151
0.7824897,77.54688
0.57798797,71.751175
0.67618376,76.701195
0.5632369,74.347595
0.6090574,71.858376
0.59540105,73.121
0.5495591,71.14749
0.5266085,68.085724
0.48992223,70.34401
0.528789,70.632545
0.44144976,73.605644
0.4260658,74.765884
0.3931182,72.01958
0.2780614,74.79569
0.28527048,70.66215
0.28759435,72.16898
0.33983815,76.71673
0.25507265,78.72695
0.40838304,73.520775
0.39329347,77.4927
0.43013495,77.05982
0.47887933,81.41338
0.5780008,81.612755
0.66805416,82.90256
0.79940057,86.53735
0.8217868,87.46447
0.91898566,86.57736
1.0073632,94.07736
1.1913408,92.74501
1.2596189,95.718575
1.3252493,95.02355
1.3999065,102.23749
1.5083454,100.13583
1.5205108,101.23551
1.5512815,101.003685
1.7768414,106.874435
1.779638,110.1016
1.8448263,105.949936
1.6704024,106.11792
1.8289411,111.21904
1.795825,112.72121
1.7817576,112.11437
1.8119644,111.15792
1.847106,113.23416
1.7357417,116.332054
1.946858,114.38891
1.8498255,115.46396
1.8863972,117.84441
1.7849841,120.57821
1.6963383,115.55629
1.7420834,112.30433
1.7684852,112.9177
1.6625962,115.87787
1.6872367,114.54597
1.6540662,112.290764
1.5665312,112.80541
1.557639,111.16241
1.5352979,109.84556
1.5140135,112.31139
1.493764,109.32819
1.4269787,110.37771
1.4809345,106.67097
1.4721401,102.634995
1.4560539,106.63348
1.3629236,105.41267
1.5541744,99.48932
1.3999504,96.119736
1.4032054,99.55471
1.3150569,100.14047
1.3827368,96.603905
1.480294,97.7003
1.3736418,94.65904
1.3067334,94.11937
1.292953,94.22914
1.2311076,93.067894
1.3114722,95.92146
1.2218325,87.22498
1.2493852,88.17846
1.1027408,88.89608
1.0902662,86.71415
1.0501279,85.75972
1.0734838,84.89979
0.9773034,82.005394
0.9749591,85.23543
0.8751103,82.02343
0.95217407,80.504364
1.0490229,82.192535
0.9459527,80.78709
0.9298418,76.12102
0.90761644,77.595215
0.97586745,75.93732
0.898448,76.57101
0.9346139,71.90985
0.88849026,73.01089
0.8369644,72.06408
0.86834043,73.04186
0.8244567,73.7403
0.7234878,71.1602
0.7312043,73.44478
0.7267696,71.17625
0.70855856,68.93151
0.65530735,69.22653
0.54309267,71.528244
0.6005581,71.893974
0.5915582,70.78273
0.5545772,72.53622
0.57516664,75.0527
0.51718944,77.56028
0.5137609,76.1261
0.6795105,77.18602
0.6745362,77.64543
0.7263038,74.92344
0.8252623,82.587746
0.7921346,84.486664
0.92350924,84.12778
1.036045,82.62984
1.134899,89.75859
1.1898532,88.6282
1.2591879,95.8624
1.4325924,93.28153
1.5417677,97.42787
1.6145822,98.2428
1.5837659,102.2193
1.7055026,96.94759
1.7716367,104.496506
1.7830862,104.772446
1.8480146,106.938286
1.7839829,108.11654
1.7944381,111.584404
1.9327995,110.06381
2.013295,111.199844
1.98377,107.75834
1.988721,115.74087
1.9090544,115.61296
1.9558792,113.872765
1.9136691,113.863
1.9822206,113.88025
1.9446579,113.98989
1.9435203,112.38227
1.8871735,114.46539
1.9411812,117.457146
1.884169,113.6603
1.8843644,111.88469
1.8334585,114.70248
1.7090552,110.893486
1.694567,109.54723
1.7231408,116.10795
1.6312997,111.67088
1.6388937,111.631294
1.6689228,110.572495
1.5943798,107.27633
1.4963541,104.15297
1.5655471,105.75751
1.4852308,108.54235
1.43903,106.83698
1.5229337,99.64832
1.5041338,101.61012
1.4058248,103.43705
1.3932624,102.45245
1.4713601,98.66573
1.4909221,97.29194
1.4106231,101.20102
1.3239622,97.59395
1.2776477,94.012955
1.289355,93.595184
1.2233194,91.34774
1.2350727,94.343544
1.1914177,91.195274
1.113317,87.39367
1.0593522,87.93677
1.0315225,84.60696
1.0705955,86.41168
0.9852836,85.20924
0.9663217,82.35609
0.87869996,82.76611
0.82677597,83.06729
0.9401072,79.978935
0.9586566,75.01216
0.8031394,77.720604
0.7854034,77.8087
0.81667536,75.78508
0.8527498,76.38843
0.808468,76.132996
0.8089601,74.07369
0.8825625,73.50482
0.8304067,68.71056
0.7418011,73.339386
0.7401956,73.36712
0.7093556,75.74085
0.6766249,70.771164
0.65771234,70.72768
0.5759522,71.73631
0.5272194,70.66558
0.4880673,74.133095
0.5079351,69.42752
0.41747823,71.028336
0.45560956,69.31177
0.44273084,74.116974
0.44608998,74.684555
0.41297042,74.64119
0.47531912,79.08375
0.5116597,78.12103
0.5312554,81.26718
0.7180745,82.206894
0.8367984,82.79399
0.8364886,84.851494
0.91400784,87.661194
1.0096565,88.27035
1.1438942,93.58416
1.19315,95.58026
1.3469647,92.77859
1.3748589,98.86011
1.376578,99.963905
1.523973,99.18613
1.5588322,100.0719
1.5495526,106.13704
1.5842603,104.78628
1.7205112,108.88347
1.6838953,111.097946
1.7089704,114.702515
1.7220938,112.63525
1.7493796,111.431946
1.6952959,112.14569
1.7493666,116.27499
1.7320439,115.40515
1.8325496,115.68596
1.7052083,113.75203
1.7140797,117.073845
1.7691815,115.83001
1.6607149,117.38005
1.5964049,114.78659
1.6457204,115.26594
1.5659332,117.36765
1.55571,113.45619
1.5790688,114.79523
1.4671489,109.18798
1.4701799,109.73453
1.4519928,113.1575
1.3425155,110.60934
1.3023126,107.53015
1.3197337,107.38265
1.3553649,108.764114
1.2150377,107.19859
1.1984541,105.73243
1.1140763,102.52521
1.2009693,101.40173
1.2638588,102.68756
1.1387302,101.252266
1.2318448,103.30071
1.1800306,103.37093
1.106314,97.652725
1.1573727,95.34159
1.0876827,95.32388
1.0406048,94.229164
0.9702877,92.31148
1.0336428,88.95709
0.9163692,87.39826
0.88201565,92.38661
0.75441974,89.141945
0.83590215,89.4494
0.78816164,88.91533
0.7355478,86.858025
0.70377105,85.27779
0.6849227,84.71909
0.663521,82.63725
0.68146485,85.142334
0.4869492,81.301636
0.5321547,79.18162
0.48760813,79.03369
0.5059224,77.20408
0.6399306,78.00956
0.5573782,72.97152
0.55068016,72.61796
0.51600987,74.423744
0.5140495,74.05985
0.5243279,75.744934
0.53519887,71.83799
0.43865794,73.821205
0.50977147,68.87821
0.39092657,68.11851
0.2875331,69.61767
0.21011071,74.01323
0.16689359,76.61144
0.14969042,75.42943
0.13697957,71.74804
0.035512887,71.01061
0.10645846,74.72798
0.15659504,73.08631
0.1851543,73.072655
0.14337325,75.40053
0.11560499,74.79762
0.30833745,80.02046
0.2781193,82.188484
0.26158875,84.72322
0.440954,85.063126
0.42290604,88.32945
0.6265128,86.96694
0.6384517,90.87238
0.7330444,89.731964
0.75447655,94.65913
0.96684086,95.588356
1.0566738,93.998276
1.1301996,99.13747
1.1319263,100.61237
1.3193672,99.055984
1.2238197,104.38834
1.370616,106.319885
1.3599527,106.678276
1.335319,110.964806
1.3871658,109.9762
1.4192097,111.13204
1.5604981,110.101875
1.4724836,115.924
1.4715145,116.9848
1.4867302,114.68858
1.4707291,118.41286
1.39382,115.64765
1.3287681,115.074776
1.4533604,119.72629
1.3673608,117.07033
1.4408014,114.108086
1.2943887,118.07857
1.3425716,116.66071
1.3054833,113.79175
1.2465096,112.092
1.2364302,112.13639
1.1847318,112.52834
1.0510362,111.31603
1.0606139,110.019936
1.0916044,109.01704
1.0489303,108.95483
0.9953966,107.47608
0.95508707,105.721176
0.9005082,108.03343
0.95758593,103.87023
0.97345567,104.916855
0.9716587,102.70264
0.9844227,101.44454
0.8351907,101.78492
0.87487835,98.345505
0.90493166,98.72443
0.85824746,94.4266
0.8863323,94.02293
0.84726423,99.90898
0.79133254,95.19828
0.7607539,95.05168
0.6558479,94.66092
0.63444126,90.36158
0.6976696,91.85426
0.6194616,89.917076
0.5585538,87.12532
0.5161719,85.2026
0.46377882,84.438896
0.43237844,84.046524
0.37735137,79.01361
0.32628477,85.72776
0.44551924,82.06149
0.42503724,79.7231
0.24246232,76.914116
0.34706226,79.72041
0.29229406,74.93727
0.39805335,76.49698
0.271494,75.90131
0.34001598,72.75028
0.20231837,71.259155
0.19925685,72.76378
0.303705,72.336586
0.21053791,71.93868
0.26938623,69.60855
0.16705321,70.336876
0.18544167,69.721504
0.11724241,70.846344
0.11332952,70.498405
0.08040512,69.65098
0.003430802,72.95999
-0.049083002,76.17676
0.013803724,72.34546
-0.023548035,72.49867
-0.094502695,75.620575
0.04203589,76.28809
0.04268246,79.04758
0.056605197,73.70542
0.081979394,78.54257
0.17081255,81.52357
0.24361598,82.9269
0.33753937,85.98501
0.4251771,86.76003
0.49208015,89.25197
0.6453228,91.26265
0.658797,88.43556
0.7669101,95.637566
0.936395,96.214195
0.96350294,102.24346
1.019142,101.94559
1.0404319,102.98129
1.1639508,102.36859
1.1830546,104.511856
1.2790898,108.08856
1.3055011,106.19009
1.3242619,108.38741
1.421202,109.41039
1.4874544,115.19458
1.4327874,111.01956
1.3556907,112.059265
1.3427299,114.95801
1.4396724,115.24404
1.4047157,117.857216
1.3051502,115.31809
1.3457997,117.83389
1.3436491,116.839195
1.3053594,115.383224
1.3338429,115.9834
1.3732411,112.95052
1.2789962,113.89102
1.205949,111.95466
1.2123408,115.51592
1.1588885,114.162155
1.2021326,109.06247
1.0826797,112.592354
1.0938928,108.51985
1.0973376,109.019066
1.0785329,109.23196
0.96750003,107.237045
0.90154463,103.80874
1.0482968,104.838806
1.0077076,102.74264
0.94087464,104.93912
1.000475,103.206474
0.9732759,101.7867
0.9044163,101.90236
0.89286196,96.45238
0.9692015,95.30296
0.8777783,95.91758
0.8680151,91.38106
0.87995756,95.70092
0.8235334,94.18406
0.90709955,92.29813
0.8255985,89.60054
0.7057229,86.996475
0.7587448,87.96242
0.6819931,85.974594
0.57245344,86.28082
0.5095602,84.65895
0.53587145,85.240654
0.45483863,84.38916
0.49701667,84.36692
0.41570053,82.39243
0.4562637,81.64421
0.4282299,79.957405
0.5117236,81.8656
0.45872903,76.35336
0.36639997,76.50292
0.46365625,71.22782
0.47786203,74.38347
0.52299094,74.021645
0.41173953,75.82491
0.48438373,69.60249
0.3363171,74.160774
0.42179054,70.027504
0.29059687,73.66357
0.32426986,72.61416
0.31942576,70.056114
0.24381536,71.074974
0.18404047,69.085846
0.1260552,72.77474
0.121856265,73.268196
0.16762589,67.2309
0.122919016,75.436424
0.13290758,75.407684
0.15695234,78.4814
0.20916392,75.37662
0.19974804,78.1287
0.3150477,79.47747
0.27209085,81.97923
0.3806977,82.59343
0.5107449,81.16979
0.60520285,85.157776
0.76508826,85.36696
0.7430882,91.52087
0.9115379,90.87761
0.94197255,95.15493
1.0972791,97.70585
1.1730331,95.32509
1.2386172,102.046684
1.318726,101.27387
1.3758512,98.222115
1.4097791,103.99315
1.5001148,105.2359
1.5444542,109.72399
1.6135882,106.83611
1.6597488,109.05295
1.5660856,113.25083
1.6236364,112.90162
1.6615773,113.17012
1.632629,115.91963
1.7069347,117.339745
1.5787535,116.01114
1.6811719,117.838066
1.6722127,116.91843
1.6458869,115.143974
1.6840637,119.571304
1.6435406,112.59211
1.5964317,114.58593
1.6015737,116.87108
1.6115501,117.09106
1.449417,116.86633
1.5185767,114.05885
1.393751,111.73953
1.4385601,111.621376
1.3417453,110.165665
1.3602747,109.85732
1.4029627,107.953766
1.3772794,104.32948
1.3470746,106.44294
1.344198,106.94643
1.3048015,106.70055
1.2720146,103.94266
1.2204567,98.177895
1.314325,103.35459
1.3858695,98.71122
1.2647146,98.45661
1.2933341,99.90708
1.1494908,95.708084
1.1894926,95.72426
1.1208994,93.845055
1.1423926,95.00338
1.1401732,95.535484
1.0659652,90.34035
0.92437327,91.252686
1.0207144,88.96587
1.0246621,90.89563
0.9851373,84.66483
0.9393487,87.38505
0.9290357,85.565865
0.73160595,80.91495
0.8003376,84.2674
0.77161777,79.833694
0.8261638,78.70869
0.79421616,78.83623
0.6914868,77.17329
0.7650347,79.627975
0.6912986,75.93219
0.73791903,77.73172
0.78298396,78.15438
0.8479108,74.134964
0.77175367,71.5339
0.62135595,73.009705
0.71392745,72.686554
0.7127349,73.001175
0.6515822,71.42075
0.66356087,70.3663
0.5817969,72.909004
0.51835316,71.241486
0.48761097,69.47934
0.508723,72.772316
0.50522673,76.4442
0.48945865,69.18704
0.42751205,74.43676
0.45409575,73.25198
0.46496093,75.068245
0.5004577,73.5778
0.47663507,77.4081
0.6085386,78.88186
0.6186911,83.456215
0.753346,84.47297
0.7960841,81.040634
0.8651926,83.55662
1.0541937,90.32599
1.0993828,89.55399
1.2110091,89.37887
1.2907017,95.88646
1.4308978,94.64329
1.3340217,100.048325
1.5155797,102.47118
1.6758748,100.534424
1.6519642,104.52964
1.7216842,102.67726
1.8034123,106.660194
1.8574234,110.32446
1.8889849,107.44018
1.7831973,108.98534
1.9156265,109.306755
1.9098564,111.884766
1.8970363,116.43656
1.9796607,112.967285
1.9251685,118.033585
1.9248044,118.53863
1.9912255,116.35052
1.9129204,116.6262
1.8687426,113.687965
1.9023975,115.99517
1.862393,117.01252
1.867721,113.74435
1.8047254,114.28214
1.805847,111.7897
1.8459712,116.51075
1.7883294,113.138405
1.8047311,110.40507
1.6527967,108.9027
1.7214723,109.60934
1.5307523,110.8217
1.5915806,109.18066
1.4964366,104.31691
1.5627974,106.0921
1.5195248,105.9809
1.470566,102.49754
1.5366085,102.84626
1.4791017,104.79485
1.5015054,102.28228
1.411049,100.98065
1.4745761,100.35674
1.4398283,98.587944
1.459975,96.31799
1.3758266,99.122185
1.4109899,99.56403
1.3426899,90.47144
1.3126475,93.050835
1.3112056,89.65334
1.2427592,94.68836
1.236579,90.62439
1.1634576,83.218185
1.1580204,86.85845
1.0689352,86.91972
1.05212,84.5326
1.0597174,80.02801
0.94206613,83.120766
0.96769047,82.02822
0.8513009,81.808334
0.9413741,80.94143
0.9676151,79.46922
0.9653831,80.55472
0.9384688,74.57821
0.8943882,75.95303
0.9574234,75.619316
0.8546014,73.24145
0.927147,71.01719
0.94145393,74.92449
0.93115515,70.12073
0.80736285,73.4755
0.85915554,74.760216
0.760798,71.820015
0.74790984,67.76713
0.67195225,72.80691
0.61573124,72.19813
0.6363349,75.65625
0.62605983,72.42911
0.6105608,70.14422
0.4921272,74.49235
0.5122781,74.08598
0.505088,73.81557
0.5125945,77.45381
0.52446276,77.59243
0.68995994,79.59549
0.62927926,81.351036
0.74073493,81.247345
0.8314062,79.665855
0.9714425,84.180336
1.0157893,85.946144
1.0539994,85.77846
1.1287051,87.9793
1.2587831,92.57393
1.4253308,97.09993
1.4941416,98.118065
1.4332008,99.28376
1.5211145,101.961205
1.5878333,101.646965
1.6161157,104.207
1.7485241,103.71653
1.8370945,110.159424
1.7783247,107.09657
1.829192,111.12268
1.9342084,108.54226
1.9266421,114.451385
1.9555366,115.07394
1.9347438,117.077515
1.8849477,115.95667
1.9423898,120.51752
1.98638,114.51162
1.8888797,118.59962
1.7715551,117.20537
1.8941004,122.09701
1.7437682,115.021324
1.7782782,117.095345
1.7597333,114.41383
1.8903657,117.18913
1.6265807,114.51568
1.6819196,112.38528
1.639181,114.15705
1.7011653,114.93312
1.6313409,108.76006
1.5517452,110.819084
1.50912,107.89893
1.4797425,108.69729
1.4816601,103.350204
1.4016291,102.1456
1.3420805,105.479515
1.3836871,101.77729
1.4042886,103.78677
1.3367074,100.32847
1.3466194,99.81375
1.3660648,100.71292
1.3265961,94.98324
1.3063264,100.33429
1.2793716,98.30494
1.2373734,95.311844
1.2516179,92.47927
1.1340911,97.18122
1.1199148,90.88751
1.0858891,91.625275
1.0916194,92.35209
0.9798716,89.23957
1.0154375,90.09247
0.8956098,85.03169
0.8190647,83.82374
0.849662,85.43344
0.7858432,84.000824
0.8164236,82.51556
0.7850818,84.45499
0.7403414,79.375534
0.7899834,81.95133
0.62503874,76.76744
0.6888858,81.34394
0.68641746,76.4182
0.5846493,74.5262
0.7134077,72.15445
0.7366605,74.61554
0.6445127,73.958694
0.68564206,72.64582
0.59619045,70.39667
0.6341499,74.835785
0.61164904,70.39571
0.4705366,70.49287
0.50105405,72.04147
0.478477,69.36044
0.37339172,70.75008
0.36818412,71.175156
0.41994444,76.41275
0.3247267,71.45303
0.24060369,74.095924
0.33389506,73.96699
0.29790637,72.12656
0.3241072,79.24413
0.3377406,79.82026
0.5079797,77.088425
0.49370283,76.559204
0.4569029,83.2381
0.6319199,81.67919
0.6998476,85.91517
0.8336367,86.44851
0.80723065,87.91943
0.9762404,91.080505
1.0153365,96.43794
1.1340251,95.53251
1.1904168,99.25904
1.2259502,97.817406
1.3771645,98.97007
1.3784243,101.482376
1.4947573,104.23365
1.4689645,104.2251
1.4758707,110.996605
1.5395533,109.58399
1.4971291,109.11759
1.6574441,108.68893
1.6306071,111.3947
1.6236936,113.438324
1.5769677,115.62784
1.5747666,113.224075
1.5497234,117.29103
1.5316519,114.607956
1.6139588,113.240425
1.5287596,116.75184
1.5216937,115.847
1.4261471,113.49038
1.4913502,114.79853
1.4190363,114.825264
1.3893675,114.90587
1.4234418,113.117424
1.2439677,108.93719
1.2146364,111.60777
1.2377634,112.24303
1.2470217,110.90671
1.2209508,109.8764
1.1628927,107.868996
1.0765054,104.68093
1.1484623,108.16796
1.1103985,103.233765
1.1604185,104.71266
1.0700788,104.0455
0.9997174,100.47291
0.99109185,103.20951
1.0558053,97.522964
1.0082319,102.13025
1.0158331,99.53225
1.0084805,97.8993
0.9488724,93.57495
0.80782425,93.77944
0.8344374,97.443985
0.87804383,92.650795
0.72765803,88.89289
0.7817741,89.061554
0.7131721,87.18914
0.58504415,88.21546
0.62755847,83.25108
0.5623179,89.45876
0.62036836,84.349335
0.5640134,80.92078
0.45172846,83.27447
0.46595162,79.2522
0.4510983,77.79351
0.42465484,81.44854
0.38982525,78.343155
0.41890353,77.294846
0.39096013,73.38302
0.43694898,70.15303
0.35603616,74.5022
0.4508238,72.587906
0.38048756,73.35801
0.41810322,71.44163
0.23324709,75.966415
0.30283916,69.94223
0.27757853,73.40773
0.29459786,71.37904
0.22832611,68.934746
0.12927577,73.04971
0.16268976,68.90457
0.12782711,71.86208
0.06731262,72.04832
0.0056720455,73.90508
0.022097228,73.33118
0.012953474,72.76756
-0.015854886,75.3646
-0.0052309623,71.09312
0.062873155,74.29389
0.12969153,79.1571
0.1709071,80.85502
0.27184263,81.08524
0.24522421,89.57873
0.43724728,87.009155
0.50615907,85.97957
0.53707343,86.109
0.7435277,94.28186
0.82554066,91.72017
0.8493239,96.92985
0.92438674,94.38154
0.9064699,98.148926
1.108414,100.29665
1.1158174,104.78863
1.1931213,103.17392
1.2077514,105.65126
1.2339741,104.21487
1.3867203,109.78952
1.2811456,107.72936
1.3585099,109.53398
1.3434387,112.63009
1.3330907,116.072426
1.4107816,112.92105
1.4226568,113.058655
1.3026721,112.17014
1.3560585,113.10708
1.2984624,114.85247
1.3604238,116.89429
1.2639455,116.8699
1.3625757,116.81415
1.21276,115.07924
1.2609006,114.46055
1.238442,115.75206
1.241843,113.94196
1.2491455,110.33166
1.1759428,114.02879
1.0500813,112.27242
1.0824149,111.159706
0.98107606,109.27216
0.9203832,112.2095
1.0063516,108.63784
1.030763,105.81618
1.0186543,104.98321
0.878135,103.51793
0.8832463,101.15587
0.94551533,103.6264
0.9244665,101.630455
0.7559695,101.94244
0.93132406,101.967354
0.92555,98.889275
0.77001965,98.07251
0.8485724,97.317154
0.80304277,98.76692
0.77133113,91.5832
0.5924025,95.42637
0.704352,88.85233
0.7159723,87.89944
0.6214486,89.98816
0.54024464,88.88865
0.5096328,88.645966
0.49392045,88.3152
0.40463677,83.95231
0.4492413,84.8034
0.44539836,83.97708
0.36410928,85.875046
0.33255777,83.46049
0.37383682,83.746895
0.25052616,77.66677
0.42754367,81.85697
0.35912627,74.53141
0.28713238,73.01816
0.36625233,77.69033
0.3210537,72.46162
0.33080918,75.648506
0.40570155,71.7176
0.18018435,71.34488
0.3203899,68.15682
0.2197903,71.84908
0.29067135,68.5752
0.24187621,72.44947
0.19338888,71.536
0.021596754,72.57884
-0.04825317,67.34645
0.03670159,72.17478
0.032233693,74.677925
0.10800908,70.3662
-0.028742332,71.82273
-0.04885354,72.86642
0.058006946,71.12909
0.007131665,78.274956
0.060199015,76.00183
0.16075552,78.293976
0.21099454,82.0126
0.3240317,80.1409
0.46783316,82.47448
0.2690838,85.36523
0.56009847,88.34042
0.6470561,89.46233
0.7948445,89.92503
0.82410824,96.82551
0.933417,94.898865
0.996576,97.76101
1.1486226,102.31921
1.1394295,101.3443
1.3424549,101.57549
1.2970139,104.60197
1.3381629,107.02133
1.3879762,108.77288
1.4880229,111.75168
1.4395654,106.13189
1.4037008,109.00561
1.4937886,113.31463
1.4861411,112.988754
1.3996223,111.9401
1.4543961,115.24455
1.4546804,114.27968
1.4931194,113.16885
1.3926785,116.669525
1.4870521,116.16736
1.4647473,114.40962
1.4195821,114.15978
1.4056307,115.63459
1.3676054,114.37635
1.2919573,112.796646
1.2634313,114.5427
1.2820238,115.587036
1.3349763,113.50627
1.2861401,107.223625
1.1942674,111.34919
1.2280844,105.151695
1.1113099,107.14309
1.1428158,106.272545
1.1132646,106.6572
1.0984778,106.492134
1.1710207,101.21689
1.2017347,104.97813
1.1053258,103.4512
1.1109225,99.84704
1.1290101,101.66427
1.050907,98.767815
1.1426243,97.73493
0.9594249,96.32864
0.9484153,98.529305
0.95430756,94.46455
1.0251266,90.24674
0.96386755,89.56774
0.9876153,94.33946
0.80296457,91.04723
0.85834336,89.06731
0.7203812,88.978645
0.6553705,87.035645
0.6506419,90.37466
0.6551898,82.52237
0.6228657,82.61719
0.6687988,86.20149
0.604229,82.43862
0.6070477,83.104836
0.61390346,81.43856
0.5598325,78.0023
0.5644449,78.47819
0.5957013,75.29688
0.6179636,73.32826
0.56686145,74.15556
0.6177085,75.95109
0.55843097,77.43949
0.5831114,71.72337
0.5386375,71.72512
0.5338106,70.53762
0.50933474,70.33464
0.5052476,71.69167
0.4764121,69.90974
0.42711592,73.268654
0.39714846,71.93977
0.362182,71.740906
0.3291338,69.59312
0.2955527,75.42235
0.26945913,74.0666
0.24229999,74.0347
0.2748824,73.64803
0.39873013,77.1197
0.30793932,79.60431
0.45169327,79.187065
0.40632856,82.25156
0.591807,80.45516
0.6615965,87.13013
0.7427789,86.73734
0.8394771,87.73592
0.96669465,87.104805
1.0511992,94.44653
1.1258938,97.13628
1.2868562,95.78533
1.3392751,98.64639
1.4098457,97.43711
1.4273785,101.857155
1.5392263,99.45556
1.4193009,102.925514
1.6330274,106.63931
1.6476495,109.205475
1.7204874,112.027504
1.753875,110.18849
1.7683408,111.201004
1.7553263,114.3962
1.8210726,110.86913
1.7642723,113.413994
1.836449,116.99711
1.6714361,117.29983
1.8430451,114.608315
1.838427,115.85434
1.8383029,115.295006
1.8042462,119.39478
1.6918703,114.48596
1.6711581,116.47262
1.6836076,114.48453
1.6666458,116.2922
1.6539302,110.91007
1.6509765,115.81185
1.5904037,117.11107
1.5519618,112.611946
1.5678419,104.65071
1.5361823,108.15768
1.5025036,106.04077
1.4881364,104.84758
1.4453707,105.16918
1.4090694,103.77686
1.4286327,103.55786
1.4818865,106.19781
1.3748314,99.70887
1.4863282,102.30415
1.4218128,100.8511
1.4794712,100.29569
1.4422776,96.057556
1.424725,93.571
1.3216643,93.409485
1.3150377,93.19201
1.2796878,92.87076
1.2584391,92.406845
1.1647451,94.4598
1.1292076,90.051254
1.090878,89.20088
1.1354827,91.641045
1.0175484,86.99495
1.0882198,83.13146
0.97200686,82.30486
0.91977066,85.45519
0.91693205,85.49528
0.95150805,83.20733
0.8677312,83.28149
0.83967674,76.50708
0.9655157,79.63962
0.855464,76.53795
1.0053859,77.67454
0.8676321,75.83306
0.91447014,77.48359
0.85042304,73.70142
0.83564687,76.01889
0.8646031,74.797455
0.81357014,71.84518
0.8099357,72.21352
0.78127193,71.605194
0.71847886,70.58369
0.7446564,69.848724
0.58043015,72.12577
0.66366166,69.57525
0.5998219,70.32765
0.66880625,75.45182
0.54056114,72.13436
0.56725097,70.912605
0.5131047,75.251175
0.6665615,71.22853
0.59653294,75.584496
0.5891693,75.719894
0.6610843,78.186356
0.69663477,79.78856
0.8138275,75.409225
0.8238904,85.970764
0.84496194,86.78309
0.9866286,83.12017
1.0890359,86.325195
1.2276853,90.53877
1.3364971,96.15056
1.3824942,94.35749
1.4508089,97.27181
1.5336934,100.864006
1.7042048,102.71851
1.6901718,103.91874
1.7005554,102.99842
1.8317983,104.14306
1.8004686,106.47948
1.8968214,112.280716
1.8771801,109.57449
1.9051925,109.40185
2.0075502,114.51008
1.8860807,109.78824
1.978045,117.331825
1.948752,116.557495
1.9538224,110.79794
1.9161055,117.561554
1.8913567,116.44045
1.880077,114.22919
1.8218575,117.59544
1.9123216,115.64588
1.8814015,114.58001
1.8234134,115.19783
1.8132652,118.01677
1.7611233,114.01578
1.8756304,112.861984
1.7313294,112.09878
1.7358483,113.3864
1.6339872,108.03634
1.6397344,110.02954
1.6142887,107.78665
1.7510481,107.34173
1.5218608,102.770615
1.5440037,103.5033
1.5169991,102.4161
1.5601768,102.77672
1.4922103,102.57721
1.5044322,104.24144
1.5269157,102.51836
1.4774178,97.43964
1.4833422,103.095764
1.4309578,95.60149
1.3559455,96.47171
1.3742268,92.9236
1.3674982,99.370186
1.4053153,95.20152
1.2122085,89.97442
1.1345078,90.47686
1.19887,90.945755
1.1779258,86.763794
1.1621902,86.8216
0.97346395,87.86213
1.0094306,83.79824
1.0203431,85.390724
0.9938856,83.4747
0.94547874,81.723366
0.8272495,83.42856
0.9057059,79.54968
0.9133627,80.99909
0.92277133,81.02152
0.8227283,80.02801
0.9078584,75.6913
0.8557644,72.49564
0.98967725,72.12399
0.83449864,75.38058
0.8054869,71.610344
0.7934634,71.562004
0.6982308,72.94739
0.67403305,67.41566
0.7602439,71.29114
0.60901845,68.021774
0.6434343,68.27639
0.60489804,69.71361
0.47586742,73.582016
0.420925,74.02567
0.5302372,71.58399
0.42126974,74.01873
0.5029501,73.36399
0.47971183,75.900665
0.42039615,79.0887
0.4862091,74.83597
0.626266,78.37023
0.61713064,78.639404
0.6415024,83.15847
0.694939,81.55521
0.74408394,84.73203
0.8728065,89.757195
0.9352295,88.86221
1.0780314,93.22248
1.2004727,93.69982
1.2824757,94.242134
1.2468469,95.39224
1.3534241,99.898735
1.4141511,103.32255
1.4074382,99.28016
1.5862454,106.852356
1.6337106,102.96831
1.6575954,111.655815
1.7146177,107.854324
1.7329398,110.78903
1.7226292,113.06068
1.7908893,111.26962
1.7440345,113.80097
1.7985284,111.15715
1.76673,118.20595
1.8383138,113.81254
1.8292243,113.21549
1.7747972,115.521454
1.6983205,114.103355
1.7508124,115.14378
1.7301947,113.49068
1.6862686,113.35608
1.7114804,113.5248
1.5784982,110.605385
1.5783207,111.10635
1.59212,112.934296
1.5353724,115.96868
1.5492685,110.31458
1.4224838,108.2573
1.3979859,107.69198
1.4083803,110.21169
1.4220399,108.16654
1.3433223,107.032265
1.271189,109.01162
1.3011018,107.44785
1.2026154,101.567
1.2823794,104.010544
1.2579473,102.47008
1.27076,102.642265
1.2204266,99.90012
1.1224091,96.16866
1.0615612,95.83873
1.2741828,96.96307
1.1213454,97.016045
1.119992,96.06682
1.1047257,95.390175
1.0216304,92.26384
0.9588134,89.64665
0.9224493,92.56366
0.99461937,88.89572
0.8246057,89.30548
0.7498997,87.29088
0.63180286,85.22775
0.70131296,88.60956
0.7060527,85.57281
0.6981357,83.94399
0.5936095,83.553856
0.6038619,77.592834
0.62374526,76.7651
0.5394711,74.94514
0.62537014,75.08652
0.5794443,80.11884
0.6942429,75.672104
0.48767242,76.71969
0.46563825,71.33192
0.65702236,73.48958
0.51796484,71.53787
0.4070878,71.74894
0.40287164,72.5721
0.46484327,70.62108
0.40853772,72.06213
0.26602334,70.780014
0.36053365,73.34098
0.22105666,69.25394
0.26939058,67.73493
0.23874225,74.62358
0.118504226,70.41531
0.16174495,76.0759
0.092358574,72.96255
0.08317451,76.791374
0.18111233,77.52833
0.16831554,77.59771
0.25453475,80.43304
0.32317582,79.30802
0.34576294,85.1866
0.44967374,82.797356
0.47941417,87.38536
0.6218951,86.74182
0.6304448,91.842064
0.8043226,90.89717
0.79808646,86.95665
1.0028872,97.91377
1.0532558,97.85647
1.1270028,101.174416
1.1594328,102.66705
1.2737379,105.13855
1.4225018,105.03966
1.267288,102.963036
1.3896285,106.38014
1.4238247,106.94717
1.3704032,107.517624
1.4268235,110.20969
1.4989103,110.88965
1.4792421,111.806625
1.4538451,112.798584
1.4759718,114.9484
1.4451879,116.96744
1.4311495,113.986855
1.4491894,116.31451
1.3769672,115.585815
1.41837,115.29451
1.3259536,117.063255
1.4149424,118.568504
1.4584609,114.50783
1.2762328,113.194405
1.2591699,114.67517
1.2262728,112.967636
1.2094796,113.93171
1.1969153,114.27269
1.1724571,110.12293
1.1328244,110.36792
0.99615854,106.00662
1.0571235,106.1183
1.0268862,107.31162
1.0691352,105.1429
0.9179178,103.46161
0.9909193,103.732414
0.9320674,102.5424
0.91671866,100.41552
0.87494147,98.49628
0.98126614,97.44357
0.94442123,97.29119
0.8745788,93.37681
0.8498705,92.92196
0.7520347,93.194885
0.7736363,89.066345
0.6888672,94.7689
0.6731548,90.31463
0.70540076,92.38975
0.57878095,89.62173
0.564082,91.14044
0.51351076,90.507126
0.43271202,89.57905
0.52995163,87.39193
0.32602865,86.88654
0.44927382,83.69856
0.33125815,81.47738
0.38015088,79.45145
0.31705552,82.38315
0.41043565,81.10604
0.34107628,80.04522
0.39434165,77.11451
0.41998076,75.27364
0.417766,76.48388
0.3520989,73.300835
0.31256783,72.63603
0.32439545,70.58213
0.22607656,74.28023
0.14985068,68.70804
0.18742524,74.8517
0.17645927,69.60819
0.16778497,69.953224
0.062024172,72.604
0.08943332,67.997604
0.009108823,74.205185
-0.001912077,71.07412
-0.0781645,74.762344
-0.027492477,73.21418
-0.058324635,72.46401
-0.13104987,75.575356
0.033563115,75.22411
-0.0063048047,73.53041
0.043018673,80.060715
0.084768526,80.27058
0.13718277,79.453964
0.29523265,85.98254
0.3660666,86.12461
0.4211398,84.816864
0.5887135,84.690414
0.60006636,92.656876
0.679159,85.56072
0.7612166,95.13549
0.8351003,97.9664
0.98826945,101.54094
1.0857794,95.77297
1.2036796,101.42842
1.1618907,106.81884
1.2489853,106.75008
1.3409951,105.676796
1.3125296,108.71657
1.2840855,110.36168
1.3750654,108.88383
1.395781,112.869095
1.3438007,114.4356
1.3930932,114.05376
1.4100783,116.4702
1.3391016,111.900215
1.3814086,119.17927
1.3470554,113.5121
1.3862745,116.25856
1.3047615,112.429436
1.250609,115.41385
1.3514661,114.9909
1.3397545,118.07495
1.2332104,116.73073
1.2509422,116.73361
1.1840016,113.54254
1.2002717,107.98187
1.2158933,110.42448
1.0960796,108.64196
1.0585467,109.24339
1.1188056,108.94244
1.0027485,108.723755
1.0385802,108.51932
0.979634,105.5402
1.0460299,105.360435
0.94920224,104.01059
0.9189993,99.154396
0.88529575,101.02915
1.0120231,98.72524
1.023745,98.892105
0.84562117,96.33763
0.9061692,97.506134
0.94049984,96.46471
0.97782445,92.531746
0.85538286,97.67565
0.7691588,96.65938
0.8552319,92.94274
0.7461057,93.245705
0.71542263,86.60254
0.6969452,90.58324
0.5345747,85.13575
0.6021243,85.37127
0.6089575,84.73239
0.53152794,84.41179
0.49178556,83.838524
0.51355135,82.36823
0.41816524,84.48351
0.34055376,81.53754
0.43268403,78.10221
0.3550392,78.01998
0.3925206,77.32325
0.4153134,78.04856
0.4091967,73.30039
0.5863191,74.42685
0.46562,73.00864
0.48616803,73.16526
0.3873886,72.754654
0.34412515,73.39698
0.35715273,68.110596
0.28006744,71.61787
0.370824,65.88534
0.31987554,74.29559
0.24722622,71.061485
0.26388142,73.709656
0.08125644,70.79155
0.08873807,69.56402
0.052309465,73.94365
0.15636405,73.70558
0.05979714,76.91987
0.11125007,76.769745
0.15017837,74.077034
0.13736546,78.38586
0.29244304,79.84754
0.39844802,81.2798
0.37164274,86.40977
0.44908682,83.78382
0.6167402,88.89219
0.73697627,86.24321
0.7256147,90.118225
0.8544587,90.87054
0.92161673,96.88927
1.1361072,96.42682
1.0809929,99.05914
1.1752608,99.01381
1.2854735,102.05033
1.3672322,105.7235
1.4577205,105.56685
1.4186473,108.75784
1.4969394,109.37343
1.4508358,112.843285
1.6096084,109.41772
1.5470372,109.24283
1.7399378,112.94492
1.6216404,112.153275
1.7219136,114.91556
1.6047249,113.21155
1.7132016,114.229904
1.6493276,115.870865
1.5710723,113.6673
1.5634544,114.03647
1.6824789,114.70798
1.5689938,110.81252
1.5506346,113.797104
1.5932311,116.646
1.4909126,113.773125
1.543917,117.19196
1.3756443,112.790245
1.4203033,114.36909
1.3474952,114.14942
1.3695059,111.81881
1.3381224,111.14656
1.4042636,108.73936
1.2702748,106.92682
1.3003838,106.70322
1.2556661,106.86413
1.3233131,101.02653
1.2272696,101.97432
1.237709,102.103584
1.2126446,100.31782
1.2651333,99.106
1.2616928,96.5464
1.2284589,99.47295
1.2306277,99.2181
1.1190327,92.78366
1.1367509,95.13602
1.143627,94.05875
1.1406168,94.56443
1.0296727,93.20897
1.0865312,90.86841
0.9044992,88.082245
0.9616398,83.67692
0.8573571,85.59192
0.8202086,86.69585
0.7969876,84.32835
0.7764847,84.55726
0.8486833,82.02651
0.76648194,85.125114
0.83495903,81.436455
0.8524753,82.42237
0.79932636,79.16329
0.701494,83.41053
0.81092435,76.11672
0.7633684,73.5581
0.71511096,75.42178
0.7235825,72.06394
0.7967411,72.97258
0.71537185,72.00384
0.63687,71.6797
0.62522626,72.422745
0.74771196,69.56025
0.5913605,69.57728
0.6156561,71.177284
0.49951896,77.65803
0.52593696,75.84858
0.5368256,70.40827
0.43201295,72.5154
0.4618059,72.54543
0.38090357,72.957565
0.44456992,75.81411
0.4564203,75.6148
0.47426474,74.60492
0.4187451,79.856255
0.6228206,75.93771
0.63216585,79.86398
0.7709511,83.88959
0.65519774,88.02106
0.85148835,92.24688
1.0092964,87.63892
1.0357534,86.53074
1.1353625,90.5075
1.2794327,90.79927
1.3631288,94.80552
1.50393,97.32718
1.496001,96.675934
1.6368606,99.620285
1.5923706,99.90985
1.6800619,108.10835
1.7965246,104.28905
1.8673148,107.87793
1.8765528,108.02754
1.9089211,112.05447
1.8338479,113.12075
1.8799847,111.92806
1.975953,115.529816
1.8994273,113.54755
1.954556,112.9789
1.9905437,114.56734
1.9579997,118.92634
2.0031924,113.93079
1.8859614,116.71573
1.9141579,117.294754
1.8829241,115.81426
1.8554324,116.625946
1.7261161,113.415955
1.7674919,113.820114
1.7785991,111.66477
1.7160408,113.23597
1.7081423,111.774765
1.6284337,113.67166
1.6711164,113.732124
1.6445148,112.24939
1.5503017,108.58556
1.431608,107.86137
1.5159318,102.58219
1.5186608,105.8639
1.5335791,104.33805
1.530115,103.85768
1.5423225,101.361565
1.5322107,98.88683
1.4350061,96.459694
1.4577439,97.63702
1.4915704,97.47902
1.3840324,96.33907
1.3368986,98.016495
1.3900238,94.42654
1.3770252,94.57187
1.3834873,92.56432
1.2854936,93.5388
1.2170293,90.53789
1.1208003,87.55275
1.160718,89.981544
1.131249,90.039986
1.1406112,85.595474
1.0444794,86.32195
1.0545131,84.48335
1.0331569,84.620895
0.960872,81.65351
0.9671905,79.463234
0.92174923,81.75844
0.97714466,76.94668
0.96297127,79.9061
0.9844964,80.36503
0.89802223,73.37202
0.92010474,76.99595
0.8707165,72.756165
0.853193,73.72114
0.91187143,70.83964
0.93066233,70.95173
0.7624837,71.44848
0.7545955,72.00409
0.7832357,68.71184
0.73066425,73.24293
0.7541667,71.9746
0.73889494,71.38749
0.7058533,70.97241
0.63655686,71.74076
0.52902156,70.459755
0.52022445,73.35572
0.5635415,70.60782
0.5574568,75.19464
0.5204257,73.6483
0.59624976,71.66537
0.6151287,78.82914
0.6870751,81.34756
0.7236279,83.752945
0.79526883,86.17433
0.84011185,83.89235
0.9681685,85.55104
1.1603951,87.04933
1.2097487,90.01661
1.2567526,88.52835
1.3236884,94.84117
1.4010931,94.43609
1.4986904,95.5378
1.6085949,102.78877
1.7104934,102.026245
1.6625708,103.73935
1.7764043,104.673836
1.8723551,105.15038
1.7456347,108.3624
1.8706547,112.71031
1.9279002,109.44553
1.8844355,106.76652
1.8281534,111.746086
1.9507068,113.83334
1.9472839,115.71631
1.9204326,116.98299
1.965501,115.37661
1.9051193,114.46329
1.9114902,113.9985
1.8425267,113.91771
1.846326,114.2084
1.7788079,118.673904
1.8626113,112.98354
1.7693706,113.77817
1.8048145,112.36974
1.7053537,111.676895
1.644181,110.51635
1.5553738,106.59648
1.6121039,115.33117
1.5748795,107.63
1.4725746,108.88376
1.5368981,112.269394
1.4529824,104.056305
1.4411113,106.23151
1.4129564,107.46842
1.4651995,106.44976
1.3566456,104.096794
1.4784794,99.97553
1.3664238,103.37727
1.3346798,98.314705
1.324314,96.28299
1.3296207,101.62212
1.2705159,94.222916
1.2553189,94.12716
1.2768344,99.012115
1.249073,92.11866
1.1807435,90.55704
1.0347774,88.682365
1.0635225,90.062325
0.9849356,88.348724
0.9515945,90.60143
0.9683138,86.7503
0.9356929,79.40867
0.82922024,85.286514
0.7706719,80.49579
0.8678305,80.62228
0.6577445,80.21557
0.81377107,81.43506
0.74584407,77.991806
0.72301483,76.402336
0.7592598,81.00481
0.7039414,75.29875
0.7564625,75.70208
0.67159,74.36709
0.63138896,74.673355
0.70725596,74.56807
0.6815537,73.293724
0.6426432,70.26624
0.6164875,73.30299
0.5593257,71.54617
0.51845104,71.47097
0.57382625,68.413086
0.43898547,70.007034
0.438137,68.23283
0.4446238,69.40931
0.37523824,74.69191
0.31531474,70.25725
0.30303532,74.599144
0.32155797,72.92641
0.32095176,75.89168
0.35016283,80.602455
0.39442614,76.287476
0.47171256,78.04282
0.47818205,81.21883
0.6500922,82.74833
0.6854639,84.156456
0.68147326,86.97157
0.71717453,89.370834
0.9066982,90.526085
0.9336102,91.60467
1.0611367,94.925934
1.1650379,98.16239
1.21525,97.20704
1.276082,98.59947
1.3028188,102.528305
1.3804933,103.412605
1.4591272,103.72733
1.552993,109.25265
1.5544256,105.46555
1.6045597,107.451385
1.640249,110.08137
1.6101798,110.12232
1.5802668,111.98948
1.6151452,107.94112
1.641429,113.94072
1.614623,114.94392
1.577735,115.41856
1.4934531,117.13903
1.5204549,113.86453
1.6415433,118.03686
1.5623186,116.029816
1.4844419,116.4981
1.4636207,118.372284
1.5183276,111.234215
1.5259018,115.44564
1.4293066,110.25121
1.3125327,112.95481
1.3362634,111.82387
1.3675348,106.84484
1.2473313,110.54739
1.2324408,108.58158
1.190801,105.86145
1.2077254,109.40152
1.1734816,107.689186
1.1024406,106.234406
1.0978695,104.37817
1.0022212,105.347275
1.0568645,103.84782
0.9687473,101.82252
1.0477437,101.07904
1.0609703,99.45651
1.029711,96.839775
0.9463341,95.52762
1.0080305,93.7483
0.960465,93.62523
0.88110036,92.75454
0.9006415,91.171616
0.8416903,90.56806
0.75095695,88.512245
0.7044342,87.51051
0.67639494,92.79989
0.62053376,86.5514
0.5202619,86.05754
0.59788316,87.23349
0.47637326,85.437386
0.48312643,81.309975
0.4300424,78.655975
0.46209687,82.0405
0.46710876,78.20523
0.42288828,76.96171
0.44300312,74.49326
0.39217407,77.919426
0.43353644,74.62605
0.39990473,74.19349
0.39075083,77.484055
0.43273175,78.4713
0.3269387,75.82409
0.27851793,70.73277
0.34011644,69.567604
0.3346858,71.47617
0.17965156,69.277466
0.23637718,69.29444
0.064735085,73.9775
0.12022571,72.208405
0.07675822,72.47493
0.032075237,71.9004
0.009571912,73.380356
0.027841391,70.49746
-0.012561033,74.25181
0.06461927,75.66456
0.035211526,78.097984
0.044981863,78.052734
0.115402035,80.89421
0.25085956,82.55029
0.27573246,80.57568
0.3758106,83.470985
0.3484747,88.78255
0.49175352,83.800385
0.5612839,88.111885
0.6666865,89.452644
0.7258193,94.14597
0.80596286,94.84169
0.97989357,95.39495
0.9845748,100.40949
1.0250247,99.65148
1.2437583,100.71896
1.2169539,98.24955
1.2885923,109.6611
1.2924902,105.91628
1.2862177,106.52409
1.3475343,109.218666
1.3044734,109.70518
1.4029396,115.365295
1.3018962,111.495445
1.3569676,111.6466
1.3987821,116.63118
1.4520199,114.986565
1.4174888,114.71616
1.4431944,114.71043
1.3949928,116.292854
1.3124332,113.38728
1.3320545,113.42018
1.3093783,115.90916
1.2742497,116.59076
1.2229476,113.62913
1.1871158,110.93879
1.2192531,111.74702
1.1211959,110.21806
1.099863,111.00096
1.1059666,113.597855
1.1387334,110.10849
0.9535121,107.62608
0.98013574,105.61624
0.9447908,106.1127
0.9334176,103.51208
0.9138991,101.68583
0.9029472,103.52268
0.880763,101.231155
0.9118069,99.14574
0.8630642,100.959114
0.8966815,99.45818
0.8802854,96.58304
0.8206338,93.71516
0.7854054,95.487946
0.7912454,96.64524
0.788053,93.81845
0.7622721,89.6298
0.67675894,89.24143
0.57942045,91.718636
0.7012838,89.090576
0.5483909,89.83411
0.50897884,87.0201
0.53124416,81.52476
0.5132967,81.001175
0.45515454,85.09991
0.36171967,83.73005
0.47717285,84.946655
0.3332103,82.25501
0.30484992,86.352974
0.35566506,78.59427
0.3014634,81.353874
0.38899195,76.141235
0.34980813,73.925934
0.32026315,72.3292
0.32554263,73.67018
0.27704585,73.06548
0.2896804,69.1153
0.37069124,70.91178
0.3052269,72.80043
0.36362934,74.67518
0.18836461,72.09733
0.18530554,67.502304
0.23304781,72.22282
0.09800319,72.05704
0.011781372,67.263
0.03444483,74.11879
0.11090156,73.545715
0.06776855,70.91432
0.0020685084,69.47405
-0.07639186,75.611435
-0.017998748,74.43968
0.10320142,77.251434
0.058120213,80.452614
0.074716754,79.08585
0.28475735,82.14769
0.33999112,83.37724
0.3503203,83.651886
0.4939599,87.15321
0.6444062,89.54427
0.6756376,84.62578
0.7927218,87.96473
0.8971347,98.538635
0.9096253,96.15481
0.94622976,97.901596
1.0759788,100.03681
1.1616489,100.906425
1.1800653,104.55397
1.2434103,104.38722
1.2991095,107.54703
1.4395931,109.40521
1.3395407,106.75559
1.4221746,113.63013
1.4415661,111.50798
1.4425596,116.25009
1.5037935,114.836716
1.5308723,114.32498
1.5062218,115.206276
1.5426717,114.43452
1.5076375,113.25411
1.3916057,117.806366
1.3780912,115.8719
1.3261971,114.23614
1.3460083,114.83662
1.3905749,114.46209
1.3354502,115.6037
1.3347243,113.47936
1.3102932,112.48397
1.2133003,110.6185
1.2731119,110.45018
1.3024011,110.80674
1.1589966,111.779686
1.1840565,113.47246
1.1626605,106.57297
1.0930897,104.581726
1.1445401,103.92267
1.101903,102.12942
1.1288277,103.233154
0.96262395,99.943886
1.1107737,99.09765
1.1181028,103.018295
1.0826987,98.29471
1.0400388,97.91591
1.0101415,100.696236
1.072776,97.925835
0.9938327,94.77678
0.99564815,93.582245
0.9258079,92.44951
0.9004066,90.45262
0.92208457,93.1722
0.9142727,90.044044
0.8085122,88.581764
0.8300801,89.76285
0.6695986,87.527
0.69239473,86.75596
0.6217016,85.34776
0.6290835,84.73983
0.60246336,86.28893
0.65806854,78.735176
0.63353264,83.84513
0.6100547,78.96935
0.6412066,77.33733
0.6267045,73.67897
0.58009684,77.13156
0.6078189,74.92134
0.59433603,78.70096
0.5531031,75.60895
0.58243084,73.07851
0.5945992,72.946815
0.5606158,68.9364
0.38565624,72.15097
0.46366474,72.99157
0.4419823,69.0984
0.40624207,69.0134
0.3865173,69.256325
0.3849376,69.26827
0.23106697,71.20969
0.27040553,76.77234
0.23793578,72.00213
0.24517316,74.29425
0.19403052,73.985855
0.35276487,72.27758
0.25434774,75.068405
0.37708226,81.29999
0.38531843,79.48408
0.54310846,78.742355
0.62391174,83.386826
0.62873524,84.1572
0.704271,84.39833
0.7830803,84.029686
0.94775677,87.67621
1.0073701,88.59443
1.0615191,91.40894
1.2264687,92.9139
1.2404264,96.508385
1.3026421,103.3334
1.4941443,99.45229
1.4399996,99.80036
1.5438942,105.53003
1.6500502,106.47159
1.6164459,110.08108
1.6999766,108.1529
1.7656561,111.03135
1.7119273,112.06763
1.7996917,109.953865
1.7883401,115.19048
1.8078235,113.949585
1.7720271,113.49649
1.8571275,116.6112
1.849115,117.99039
1.7878823,115.14433
1.705726,113.57767
1.8356957,117.0263
1.6824448,115.96938
1.6206211,114.3171
1.7612598,114.73196
1.6306224,115.93019
1.6610198,114.67181
1.6675515,111.72956
1.5320277,113.75064
1.5191449,113.08374
1.5081064,110.67731
1.5005118,109.76436
1.4914116,108.90254
1.4555309,107.230354
1.3795877,106.27799
1.4496018,104.67466
1.4359345,103.886795
1.3624885,103.29767
1.4336959,108.39186
1.3908772,103.05855
1.4081203,100.910194
1.4217747,100.21564
1.35595,100.26292
1.4159015,98.0484
1.2760916,96.097824
1.2524155,93.006256
1.1777195,96.934525
1.317716,92.11673
1.1323497,92.148994
1.1523267,87.15644
1.0626056,91.53678
1.0186023,89.99866
1.0482516,87.55493
0.94260997,83.65918
0.9616792,84.750984
1.0461985,86.43787
0.85787195,80.78881
0.88223183,80.76322
0.99993306,84.465515
0.89796364,77.5939
0.84735584,80.13861
0.89108473,77.88981
0.86399806,76.805275
0.9554338,74.67514
0.91006905,75.0505
0.871508,77.57071
0.80431616,69.92971
0.79588014,73.87053
0.7904742,73.33105
0.8055713,73.3118
0.82005477,68.68369
0.6766405,74.45897
0.65070623,68.131325
0.77835023,69.381645
0.706654,72.87784
0.6838234,74.320045
0.68774456,69.99795
0.60743093,71.28576
0.49842358,71.126465
0.54259217,75.152306
0.5646703,77.24437
0.570209,75.39997
0.6211456,75.976974
0.7246856,80.5678
0.5981567,82.63268
0.8685741,81.55088
0.83210623,83.90059
0.93365514,85.15469
1.1229377,84.37031
1.1199456,91.19704
1.1331255,90.47066
1.3347203,94.28488
1.4463059,92.991234
1.4556953,96.9474
1.6536685,96.210815
1.6391836,98.411285
1.7277846,100.57217
1.7967469,103.55941
1.7774804,104.59884
1.7807974,109.01265
1.9525363,106.714325
1.9556509,109.848434
1.8997145,108.21283
1.8592876,110.14631
1.9060804,117.201294
1.9679539,114.345184
1.977448,115.7935
1.9879025,113.227516
1.9549567,114.874794
1.9218369,113.02069
1.9563423,119.59475
1.9432644,111.44844
1.8727216,115.38993
1.9024478,119.31285
1.8006173,115.226654
1.8537724,115.32475
1.8813475,110.81808
1.7309457,112.68734
1.720275,112.88897
1.8054031,115.48525
1.5945389,111.094
1.6564467,106.24723
1.522669,108.610886
1.6147422,105.358185
1.5390109,110.19754
1.5747398,105.25235
1.5518714,103.83152
1.5851047,106.89644
1.4895759,97.284256
1.4688286,102.48573
1.4955951,99.481636
1.4595083,96.91482
1.3863524,97.16461
1.4532721,98.06504
1.4307559,97.24401
1.2711735,97.02862
1.3558989,92.56905
1.2221266,94.61797
1.3019824,94.943855
1.236003,93.65016
1.099799,91.07988
1.1435462,86.679855
1.0652649,84.22433
1.1031848,83.21389
1.0615736,84.45544
0.9281826,87.5138
0.9599403,81.76358
0.9131461,83.894135
0.89385134,82.21905
0.88567686,81.75843
0.9488808,77.392555
0.83023375,78.93235
0.90786815,78.73676
0.9000258,73.12209
0.86648977,75.26619
0.86035717,76.26948
0.87914735,73.8438
0.8479704,73.11053
0.8248445,68.540985
0.8446269,73.923965
0.83075565,75.61412
0.67890275,68.20599
0.6744975,70.60094
0.5686796,71.80563
0.5899691,73.511406
0.5984117,71.588394
0.5226073,72.1015
0.47145277,70.894844
0.46232823,71.369514
0.44328004,75.114044
0.47035983,73.56056
0.4384794,71.33396
0.504503,77.710655
0.6153393,74.976616
0.6025546,78.752464
0.6578648,81.17348
0.6668577,85.70319
0.8457587,84.49187
0.9213743,88.49348
0.9562706,89.95205
1.0535088,88.97407
1.0481273,93.5726
1.1713791,95.20663
1.3340874,94.40618
1.3697208,93.08918
1.532296,98.57394
1.4928104,100.26049
1.6529897,104.024414
1.6872668,101.46061
1.6256511,108.94308
1.7103628,111.250694
1.7256871,107.47888
1.7623903,110.16774
1.7965035,112.78166
1.8433721,112.324356
1.8370578,113.84925
1.8009061,114.70473
1.8135587,112.93446
1.73317,112.64741
1.7452145,115.44883
1.7944463,113.97285
1.7742968,116.34593
1.8094649,116.032036
1.7550781,114.5851
1.6012249,113.22543
1.6244305,115.95296
1.7237508,119.04031
1.5588987,111.53098
1.4642024,116.47653
1.5417947,111.71385
1.4726653,109.560875
1.3918343,106.442696
1.4186844,112.00709
1.319925,110.27959
1.2898895,105.62
1.2539663,104.838
1.317349,106.57948
1.2425145,104.842545
1.2383659,104.47105
1.2139755,103.930984
1.194362,97.04453
1.160983,99.372185
1.1875058,96.60527
1.1859796,98.35931
1.1904125,95.63131
1.1572104,97.87962
1.0503842,95.221466
1.0804775,92.624146
0.92889315,93.69524
1.0055609,89.19915
0.91524297,90.63199
0.81535876,94.05627
0.85796714,87.33794
0.7422414,89.22071
0.73577005,84.95232
0.68925935,85.39065
0.77099985,84.18811
0.6324192,82.50944
0.6029064,80.97795
0.63885933,78.21951
0.5235181,79.933136
0.5790738,82.41692
0.54611385,77.76148
0.6223161,74.281525
0.5643229,77.24664
0.5771536,74.027176
0.5595053,71.23813
0.5107394,73.763466
0.5679035,71.019485
0.48604804,71.31037
0.44026202,70.94143
0.3967275,72.08864
0.4659527,70.59195
0.34622976,66.07334
0.38219792,71.89066
0.31260544,70.315636
0.27871257,69.89106
0.18611148,69.660286
0.13703565,73.562775
0.12769206,74.089066
0.15047355,74.526764
0.18730074,72.977135
0.15478505,75.20414
0.18214802,82.591835
0.26218852,79.92095
0.30412716,77.50251
0.37670004,81.44163
0.45460626,85.7378
0.5566968,84.759346
0.6135692,84.64553
0.7927389,90.483925
0.8308952,89.86935
0.93337846,95.680435
0.99972546,98.79898
1.1270895,99.25953
1.0420321,98.71964
1.2527027,102.25037
1.3230267,98.86767
1.2721217,102.545166
1.360914,105.07523
1.3064542,104.38757
1.3759841,105.2913
1.5043281,108.75405
1.4846114,112.55735
1.4066247,113.25384
1.4514102,111.291145
1.449583,116.0564
1.3618044,116.67682
1.5236787,118.46662
1.453306,117.094635
1.4779756,114.40735
1.3736098,117.835785
1.4558672,114.32917
1.3881721,113.30944
1.2788193,112.78503
1.3442824,113.40974
1.223729,113.86046
1.2948678,115.225044
1.2382097,107.11154
1.2922347,110.75067
1.1539556,114.310425
1.172098,108.95918
1.080637,108.972
1.0690079,108.33343
1.0322294,105.59679
1.0673646,106.26196
0.9619531,109.19108
0.96687704,105.79019
0.9524671,102.47841
0.99249727,102.40555
0.9483747,102.236496
0.9420329,99.46303
0.8096364,98.70666
0.9859235,96.66222
0.90928596,96.95693
0.90525115,93.48793
0.8495622,98.03904
0.78935015,97.48516
0.77030927,89.60019
0.715088,92.00608
0.70021755,88.595474
0.7132187,87.34756
0.5653862,92.393715
0.5515428,87.26356
0.49624315,85.59611
0.46313885,85.467926
0.37816465,84.26286
0.44862387,84.19734
0.4216195,81.177124
0.3790947,81.57766
0.31484136,82.709984
0.37488395,80.99029
0.3188584,78.33709
0.36583826,75.44499
0.40155122,79.05073
0.33333728,76.650406
0.39993945,70.5412
0.38009512,74.09252
0.31778985,72.68715
0.3045108,75.37749
0.21585934,73.31785
0.17547959,68.66265
0.17987756,70.447945
0.14614795,71.32451
0.16484581,69.99208
0.05642318,67.61749
0.071937405,70.38411
-0.040222157,72.88291
-0.07029371,71.64967
-0.010080694,68.59106
-0.118020214,74.60741
-0.065232374,74.77834
-0.039867457,74.73936
-0.026476245,72.86804
0.09190839,78.994194
0.017421883,81.94523
0.15273203,84.06969
0.33612052,84.38457
0.363693,86.37597
0.43576562,87.627495
0.529678,93.94967
0.5418945,91.47797
0.6846129,90.08811
0.7866198,99.16488
0.8003934,99.24598
0.9903107,101.16162
1.0002562,100.808914
1.0536404,99.51424
1.162907,99.100464
1.2110718,106.11368
1.2792662,106.984886
1.3248322,108.20204
1.3035512,109.999825
1.3187035,110.04991
1.3758339,114.19014
1.379597,114.57938
1.3860794,114.32173
1.370691,113.52973
1.4271026,113.615524
1.3858768,115.48334
1.4500057,113.95848
1.4547106,113.73487
1.2757345,119.71813
1.4225031,116.23204
1.3087143,115.56801
1.4104917,116.31762
1.2072392,114.84917
1.1964251,111.3262
1.1285658,113.91039
1.1572846,111.27614
1.1010414,108.289406
1.1137382,109.41184
1.1433351,109.21737
1.03868,107.68895
0.9549692,108.66561
0.9904613,108.56611
1.0458089,104.74632
0.9385403,99.25741
0.9467624,104.12234
1.0352626,104.263725
0.9180043,96.6084
0.823552,101.43378
0.86882186,96.62498
0.8628441,98.81746
0.89356345,96.12092
0.94674146,96.394646
0.90728766,94.453255
0.838758,93.44673
0.751556,90.425545
0.79363346,94.43119
0.64127004,88.410675
0.6373599,88.27684
0.62476766,88.2214
0.6176447,89.16396
0.44833243,87.779
0.43852383,83.520164
0.53925854,87.245056
0.4420006,84.230865
0.51534855,86.66719
0.53939354,81.1905
0.4250062,85.2333
0.45065266,81.45196
0.44717938,79.39025
0.37023678,77.82746
0.38417587,75.0714
0.45127925,77.016785
0.35286272,72.05529
0.4213815,71.48801
0.34157905,74.76779
0.4164976,73.65495
0.41857958,70.62596
0.35050774,72.41629
0.34687272,72.03956
0.3113511,68.570816
0.29176408,67.718414
0.23028044,72.777306
0.1934461,74.048225
0.10020523,68.56187
0.03965546,73.51315
0.07291353,74.33058
0.13061711,75.47756
0.18288882,76.86083
0.15045899,76.77726
0.1537874,76.257996
0.11850286,76.98779
0.15283601,76.12886
0.31873485,79.97167
0.329578,86.413124
0.4976193,86.41646
0.57214534,89.25522
0.72949594,87.123436
0.7056274,87.83199
0.7632567,91.14027
0.9578435,94.85475
1.0391059,92.170006
1.1928278,97.890205
1.2182189,99.048325
1.2350705,100.009026
1.3239151,101.479294
1.3985647,105.677185
1.3963372,106.505455
1.4528018,107.61911
1.5694165,109.65049
1.6109866,114.375
1.6017091,111.969734
1.5484837,112.58726
1.5850112,112.40254
1.5724338,115.20401
1.5949446,115.56109
1.598012,113.992195
1.5235839,115.890724
1.6328192,114.40207
1.5791394,114.28
1.5776672,115.15687
1.5679339,117.028824
1.4261212,115.99015
1.4940966,112.390205
1.4496428,113.55453
1.4912794,111.41047
1.434626,112.84067
1.4446913,107.448715
1.3953036,105.36199
1.3714648,111.95319
1.2568322,107.73879
1.2705956,108.82166
1.2071626,109.41492
1.2411643,106.15407
1.3187135,107.17911
1.235211,102.49337
1.2838408,103.25075
1.3220413,102.772835
1.1407951,98.725044
1.2376388,98.37054
1.1197927,99.096634
1.179488,98.8163
1.2018347,94.368935
1.2045681,95.279655
1.163375,91.95482
1.2041988,94.89078
1.0289235,92.577896
0.9248415,90.61972
0.9765018,89.53302
0.9488142,87.96706
0.90808856,86.76804
0.87750447,88.95586
0.8461307,87.82582
0.8447666,83.23474
0.82091695,83.10638
0.81887215,86.05249
0.7746069,79.58448
0.78934294,76.54368
0.7206502,80.74324
0.75394386,78.68399
0.7401897,79.11633
0.8187561,73.59253
0.7706404,78.382355
0.77310586,75.50283
0.789874,71.32972
0.7233559,70.73319
0.7092158,72.90189
0.67953134,71.07926
0.7763591,72.11682
0.6181477,68.63907
0.5842932,70.695915
0.52274966,71.78247
0.54097825,68.38921
0.5109029,75.866425
0.48540825,70.007256
0.57263196,73.76811
0.40350792,70.16861
0.41886327,72.97705
0.393106,74.843185
0.40780798,74.03244
0.4631431,76.045876
0.49283645,76.56249
0.54501754,78.71925
0.6565958,81.95401
0.6373699,79.498276
0.8097916,80.055435
0.81588405,85.405014
0.96924806,84.9852
1.1107198,88.301025
1.2553147,88.089386
1.1516693,95.781624
1.3960588,95.2864
1.3976563,99.63977
1.3713304,99.43062
1.5868437,99.25469
1.5936219,100.37265
1.6749551,102.32999
1.7329296,108.83496
1.7674384,106.20914
1.7879556,109.54565
1.8436949,108.4981
1.889614,107.867355
1.8804168,113.697945
1.848106,112.16209
1.8511758,116.77308
1.786713,115.36734
1.8681927,117.69415
1.8799956,114.9796
1.9475162,117.59398
1.937615,116.523834
1.8556688,115.08079
1.8697628,111.69168
1.9247632,115.62036
1.8222553,114.688156
1.7562902,111.97942
1.6458292,114.91157
1.765416,113.628265
1.7132598,114.22583
1.6312101,111.57853
1.5965499,112.50887
1.5056884,106.01928
1.5852324,110.950424
1.5545061,107.18399
1.5837213,105.89419
1.504265,107.70958
1.4584513,107.64737
1.5089823,102.562195
1.4549173,106.90543
1.5531561,103.379555
1.4895266,102.94109
1.5242609,97.90775
1.4651449,95.31114
1.4824054,95.03176
1.392963,96.9431
1.301732,93.95202
1.2936118,92.79331
1.4054168,89.62401
1.281698,91.81368
1.1792079,92.566795
1.2857943,94.004944
1.1890756,89.21076
1.0790048,86.00828
1.1178284,87.53589
1.1170751,83.74118
0.9498791,85.73977
0.9367521,81.84987
0.95418495,80.488976
0.9399403,84.551994
0.86472726,79.60976
0.953361,75.602066
0.9244015,76.337524
0.8937078,79.07705
0.95625055,79.102974
0.9248906,74.04792
0.85355324,74.73608
0.9218156,75.087135
0.90879375,72.19553
0.8552723,74.849464
0.9245167,73.31974
0.84851766,69.90679
0.8070618,69.359085
0.702179,72.69902
0.6537319,71.229774
0.6676336,70.27105
0.65379256,73.41131
0.59906894,68.51762
0.50193727,72.374
0.6141478,74.998344
0.55378866,73.49375
0.48097673,76.666664
0.6319791,76.82255
0.57983345,78.56707
0.61999345,76.2588
0.6447699,78.94713
0.7792304,79.19226
0.8306558,82.81421
0.83616906,84.723495
1.0246465,85.09834
1.0742663,87.29163
1.177393,90.99355
1.3463038,93.79529
1.3666337,92.576744
1.4393716,96.901535
1.5223402,98.14553
1.5758156,102.278275
1.6102641,99.245125
1.7445031,100.49726
1.7996454,105.43314
1.7698088,104.91297
1.8874573,108.31839
1.9310375,112.13093
1.9357405,109.89836
1.9984438,113.10967
1.9648921,111.32053
1.8963612,111.73461
1.9412787,115.460236
1.9232885,115.56957
1.9833398,114.89518
1.943544,114.52684
1.9021939,112.81026
1.8505628,113.96951
1.9684857,117.53159
1.8315326,116.46181
1.7840507,115.439285
1.7325685,114.85893
1.658965,110.13924
1.7441419,112.23916
1.6082008,114.04823
1.5832083,112.66875
1.6605381,110.84482
1.5521457,105.84434
1.7281926,104.38776
1.4922336,106.52678
1.4290668,107.927956
1.4768775,104.673134
1.5269628,101.223946
1.4704984,104.02206
1.4501243,101.9398
1.3751411,103.469086
1.3421068,99.84491
1.3760283,97.293655
1.4242798,100.15358
1.3027259,96.52393
1.3172728,99.3707
1.2595416,92.9529
1.3435603,97.49503
1.1923826,94.84183
1.2326621,94.62674
1.1671445,92.10482
1.1063628,90.40462
1.0368224,89.93128
1.0057911,85.18662
1.0166891,85.68331
0.9987166,81.19785
0.88166785,80.5041
0.8581403,82.45602
0.860286,81.029625
0.86658406,81.40296
0.8416611,79.659195
0.7242504,77.181595
0.8692242,80.58104
0.82341266,75.211464
0.72135186,78.75257
0.69735295,75.66981
0.66415346,69.05844
0.8218247,77.29131
0.76853067,73.445206
0.7400672,70.63062
0.65008503,71.151764
0.5686333,70.88493
0.6436348,71.500015
0.48290372,71.04358
0.57637423,73.26792
0.5219421,72.454185
0.34155497,69.40826
0.34708738,69.89563
0.4225129,69.17078
0.3288202,70.79186
0.31454116,72.38883
0.3073019,73.39704
0.28636402,77.31192
0.40699133,77.06465
0.38188145,82.67743
0.50379974,79.96888
0.5596349,75.34083
0.5859024,83.63291
0.7057442,79.97308
0.7764964,84.72557
0.82402915,87.49539
0.98843694,90.656265
1.0458462,90.07277
1.1068009,91.337395
1.2378385,94.199
1.2878319,95.9509
1.3845863,98.93451
1.3758386,100.519
1.3923879,101.88913
1.4890811,102.715866
1.5038724,105.96653
1.5147736,111.30939
1.5703712,111.851845
1.6826785,113.4404
1.5926343,112.44266
1.5727333,112.699486
1.576703,112.10865
1.6991853,111.53021
1.5914234,119.22413
1.6135808,112.01499
1.5724176,115.98275
1.63911,116.480965
1.6262178,118.92341
1.5221149,121.061356
1.6461315,112.34611
1.5130574,113.76234
1.4523182,113.162445
1.4297864,113.590294
1.442103,114.59764
1.3830963,114.5262
1.3534409,113.25483
1.3213462,112.97324
1.319883,110.77548
1.2539929,108.696754
1.0807498,108.9241
1.1353768,102.67379
1.1596063,105.899414
1.0955379,105.34316
1.1092095,101.92217
1.1236994,101.24713
1.0381817,103.0205
1.107491,96.91319
1.071195,97.24212
1.0493498,95.11912
1.0106242,98.091194
1.0070393,99.35356
0.97990924,97.20441
0.978969,92.64551
0.9192025,93.20455
0.9466108,92.172035
0.7904668,91.001114
0.7969613,90.589966
0.80232143,89.57095
0.7105873,88.837524
0.66307473,89.258934
0.6129469,84.657745
0.5675335,86.720314
0.5347872,85.73137
0.46441853,83.55203
0.47366944,80.63571
0.55283535,83.01664
0.5009748,79.12455
0.4369515,80.64087
0.45251316,74.03188
0.39738506,79.33916
0.44074813,76.4845
0.435467,76.242645
0.5473723,69.549965
0.50671077,74.99734
0.41005614,72.54852
0.3398806,72.15266
0.30229482,70.8198
0.298812,71.81226
0.24574871,69.23146
0.2783355,71.29307
0.2373548,69.13619
0.17833132,71.46158
0.1109302,73.718056
0.0040826015,71.72388
0.023475697,72.642426
0.02029111,74.61191
0.0864722,72.887955
0.01870661,73.16789
0.06407117,74.91988
0.14547344,74.33103
0.079840325,78.854416
0.19721854,81.57615
0.17655763,82.91626
0.31966612,80.78574
0.35516432,84.97528
0.4701346,85.127525
0.6074153,87.94723
0.69225645,92.56284
0.7948712,91.10301
0.8675899,92.96366
0.8831419,95.43103
1.0635538,99.22159
1.0987682,100.33567
1.1157032,101.64088
1.1516467,103.36579
1.2308859,109.70005
1.3233004,105.29398
1.364733,110.10486
1.3282335,111.03243
1.318553,112.78907
1.3933433,113.25741
1.4702383,113.66942
1.3414972,112.51387
1.3912637,114.58797
1.4206246,119.04811
1.4164023,113.9495
1.3924193,116.83911
1.3564765,115.085434
1.31184,117.673996
1.3403968,116.49671
1.3085034,111.1305
1.2201439,114.36266
1.2667606,116.32849
1.1729195,113.03934
1.1720665,114.11354
1.0094355,112.235374
1.0948387,108.242294
1.0527313,108.708534
1.0144328,112.16352
1.1163658,103.401306
1.0453212,107.83899
1.00651,105.738625
0.9486976,105.85997
1.0099974,104.20473
0.98014253,106.756874
0.92639923,100.41066
0.85392857,105.827225
0.9140609,103.85416
0.85699034,100.53149
0.88474315,96.81053
0.8257472,95.847855
0.8258142,92.81319
0.6753395,95.908134
0.78551596,93.539375
0.86843216,90.58699
0.6481308,92.2169
0.58014476,89.02714
0.58781534,88.07837
0.66269916,91.02806
0.50121033,89.221504
0.5081299,82.64826
0.48867762,86.13847
0.4011066,86.92985
0.407033,83.71382
0.3702056,85.183525
0.30317736,80.2108
0.35080042,80.64832
0.32149196,79.439125
0.37168503,78.2649
0.40059307,75.38199
0.23932897,76.98507
0.41464797,74.32234
0.30245316,75.566315
0.26097214,72.55651
0.3220576,73.06455
0.35190704,73.911125
0.24424124,70.409004
0.25051436,69.03052
0.22504142,68.59741
0.12710121,68.87239
0.120348334,74.5852
0.1312019,74.40429
0.076402575,71.34615
-0.046334196,70.70249
-0.012401745,73.0791
-0.014663373,76.79721
0.02328594,71.39933
0.029510077,76.692116
0.026999485,75.60181
0.07389258,73.55218
0.108030275,77.11217
0.09420555,78.62703
0.22650243,79.28681
0.30123845,81.99095
0.3531792,85.600655
0.48313162,87.54259
0.5648924,91.08706
0.5586568,91.006546
0.73409086,90.2718
0.8016989,93.473404
0.9267105,95.21338
1.0515306,97.69861
1.0446812,98.311844
1.1229061,99.75142
1.2670691,104.58826
1.2065474,110.260925
1.3304081,107.17092
1.4330615,111.085655
1.4119018,112.35873
1.4063209,113.67078
1.453926,111.94743
1.3302261,112.25601
1.3791053,109.60451
1.447864,113.55653
1.4306334,110.61951
1.4419163,110.73048
1.3572606,115.14432
1.4181039,116.63837
1.3692311,118.551765
1.3881515,112.30841
1.3663738,112.267685
1.3506327,111.49724
1.3540803,113.47698
1.2709306,112.68463
1.3042955,111.96861
1.2131947,113.55767
1.1444844,112.234566
1.2561718,110.71561
1.2480606,109.86706
1.1500688,107.140526
1.1007797,108.07957
1.0725989,105.28262
1.148474,107.54756
1.1704037,104.104866
1.113646,99.88487
1.0879499,100.728424
1.0144122,98.881966
1.0161678,100.95744
1.0075687,98.62731
0.99828887,96.72168
0.92251605,93.4666
0.9579096,96.790504
1.0051613,97.71366
0.9218604,95.54027
0.8988869,97.125
0.90165377,95.08488
0.84933925,88.62676
0.77131885,87.8841
0.82182366,88.0811
0.6764587,90.06804
0.8489796,82.96998
0.64316523,82.22632
0.7154653,80.80585
0.56472576,81.30872
0.61265343,84.95208
0.6365919,79.4518
0.57585233,78.46125
0.5909922,78.629616
0.5165368,79.75303
0.60273415,80.782555
0.6198072,75.36335
0.5436624,77.21648
0.5695294,73.41552
0.66036576,74.7921
0.5447729,75.52915
0.56574345,73.77615
0.6224642,67.74476
0.5322892,73.42508
0.46762002,74.05276
0.46804535,75.42218
0.36130527,71.07765
0.40145832,68.9208
0.34603265,70.31295
0.29926395,73.09999
0.30565062,70.48455
0.22496405,73.170715
0.20868112,74.54936
0.20683731,70.57428
0.24250789,74.84915
0.23867962,79.18235
0.3448664,77.81346
0.3512117,78.37909
0.37059644,79.861725
0.56279474,80.4894
0.590921,82.82239
0.69823295,83.10471
0.8352265,87.13761
0.9542522,90.83032
0.9899744,94.18482
1.1098858,92.55249
1.2710524,96.79997
1.2852178,101.415504
1.397563,100.909996
1.3771943,98.11817
1.4834921,102.49167
1.5363024,101.70435
1.581172,106.53677
1.6454186,106.2919
1.7465234,106.416824
1.7569152,112.75998
1.6826843,110.837906
1.6975205,113.95237
1.7489833,115.48103
1.7659148,108.80676
1.7172923,111.07672
1.7151821,115.6843
1.793537,114.79727
1.6573585,113.90049
1.7387406,116.31269
1.7379402,118.95175
1.7183012,115.46744
1.5998757,111.998955
1.7241887,116.07255
1.6983172,112.69377
1.5936664,115.56317
1.508396,113.6653
1.5768079,112.71781
1.5759203,110.704605
1.4781566,111.1292
1.4901644,105.46519
1.3666252,107.46846
1.39542,106.67265
1.4459996,107.09017
1.4138104,103.51321
1.4223238,104.87842
1.414838,103.54139
1.3373677,102.93552
1.3689581,98.738686
1.4283907,97.75298
1.4126059,100.45667
1.2836852,95.28271
1.3851926,99.192
1.2510368,95.19338
1.2255037,99.43786
1.2360958,94.06644
1.3201616,90.1293
1.1028634,87.1938
1.0919985,90.90593
1.0883454,90.64269
1.1200385,89.828476
0.99428916,89.09981
1.0218052,83.55715
0.8837379,86.95108
0.8862998,81.84808
0.9519539,84.14271
0.923591,83.091774
0.8580179,85.18593
0.87809056,82.453606
0.8525533,77.58378
0.859511,78.94894
0.8780493,75.93792
0.8913806,77.15044
0.8599861,75.6902
0.82699203,74.902054
0.9141651,71.32147
0.765206,69.54316
0.7798695,70.61758
0.7704198,69.36449
0.8016982,74.79493
0.7538806,70.65253
0.7542805,72.62897
0.6050814,72.37372
0.65802187,72.48537
0.55495805,75.21429
0.50354993,69.76194
0.5015736,71.23131
0.5695019,72.713486
0.56509143,73.99292
0.5495573,76.8428
0.5485833,73.4676
0.6606362,76.32308
0.67156744,75.534805
0.7043886,81.12752
0.808566,81.39302
0.8840837,82.86956
0.9321383,85.608765
1.0947589,88.15593
1.1109569,88.87125
1.1913189,90.5923
1.2969041,93.7537
1.3588672,95.96394
1.5280124,97.45193
1.5406231,98.34657
1.657168,101.34785
1.6030922,103.359085
1.8044857,102.35691
1.8055464,106.13402
1.805999,107.3118
1.9178109,106.81168
1.8395336,112.25404
1.8881143,109.515
2.0010562,113.40103
1.9954631,113.27605
2.00333,116.65642
1.9520583,112.50553
2.0079389,117.390175
1.9570761,118.0126
1.9455525,115.52699
1.960393,116.38417
1.9791225,113.85895
1.8065256,115.58716
1.8770264,114.605194
1.8190185,116.007416
1.8148825,113.12566
1.8204262,116.0616
1.6885469,110.64027
1.7603879,110.08888
1.7587341,113.20315
1.624296,109.43331
1.5211995,110.0062
1.5451221,106.79399
1.5723888,106.4113
1.5799441,110.243385
1.5981061,104.85318
1.5549325,102.029366
1.5200094,102.917175
1.5484625,104.4201
1.3438832,103.0072
1.5532953,100.50835
1.4167577,101.29246
1.422643,95.773834
1.5025798,99.76218
1.4533296,96.662964
1.4071419,94.64566
1.4328781,94.016884
1.3771158,95.65338
1.2867602,91.57585
1.290245,91.28566
1.1648563,91.104385
1.2142717,84.75327
0.98982555,86.71267
1.0741707,88.947685
1.082424,85.87717
1.0106939,84.32212
0.9129508,83.54929
0.8752738,82.56324
0.9770261,81.737045
0.86023265,83.41313
0.92936236,82.623955
0.99070334,79.589836
0.87854034,77.63813
0.90556616,76.27855
0.8627306,76.80786
0.8446549,70.2016
0.8783651,76.53476
0.81600964,73.53377
0.8824872,73.236206
0.877306,70.636765
0.7677743,70.734406
0.7489903,72.96061
0.620933,72.530235
0.69396377,69.150925
0.5856094,70.4151
0.6097872,72.413826
0.5915841,72.63505
0.4490129,73.26765
0.5223525,75.056946
0.47243577,74.42934
0.54137224,72.144226
0.44848806,72.73089
0.58820677,78.40371
0.5052327,79.60905
0.6012384,76.98686
0.66271394,81.30542
0.8009747,85.69996
0.7714658,83.54618
0.89111793,88.39845
1.0342906,89.75141
1.0948683,92.449936
1.2069948,91.54234
1.270905,91.35646
1.3717505,97.70936
1.4819542,98.64658
1.5284964,100.17982
1.5372521,101.55661
1.6247631,101.78555
1.6885114,105.38348
1.702532,107.79265
1.6811131,106.75498
1.714141,113.083786
1.6713995,114.545525
1.8168485,113.850296
1.7767048,112.23058
1.8173792,114.548584
1.826632,111.414444
1.8163775,115.224464
1.846866,112.26138
1.8060808,113.584816
1.7776679,116.0921
1.7815963,115.95921
1.6819252,118.10148
1.7601293,112.92285
1.7680836,112.664825
1.745568,113.05248
1.5742763,113.68006
1.5553486,113.099495
1.5169593,116.932755
1.5319093,109.809814
1.4659213,112.466866
1.4647136,110.340645
1.4280666,111.34183
1.3710049,109.61101
1.4032812,104.30381
1.2907804,104.796135
1.3288265,101.02854
1.3627766,106.70828
1.3164046,102.10805
1.4220853,104.77395
1.1516231,100.68207
1.3460923,100.10546
1.2079809,100.1075
1.2082995,99.685905
1.19909,96.24435
1.2011907,99.85891
1.1134076,96.0075
1.0926527,92.79764
1.1639214,89.75381
1.1016486,87.98199
0.92075115,87.05147
1.0352105,85.711174
0.80929846,85.853165
0.880272,90.02561
0.7885578,83.00954
0.6927256,89.54408
0.7461135,86.3599
0.6846633,83.34181
0.6740397,83.37526
0.68102276,78.37358
0.5845125,79.09938
0.63590175,78.16566
0.6687973,73.3866
0.6609407,71.41467
0.58397007,72.902115
0.5814593,79.95754
0.64167714,73.827934
0.6094503,76.41463
0.64733344,73.388405
0.48895767,73.888176
0.61029893,69.22286
0.4647953,68.68237
0.40591222,71.07214
0.35153854,73.60986
0.364632,74.1575
0.37109572,69.951324
0.27212933,70.85939
0.22286068,71.96973
0.09626843,72.50775
0.15583006,70.30463
0.15001608,73.85208
0.11668525,75.65378
0.23039809,77.44553
0.21800411,79.6408
0.34763154,78.01119
0.2511941,79.311615
0.42486286,83.20969
0.60043406,83.15371
0.5992355,87.620705
0.7119912,83.34735
0.72065306,86.206
0.7777659,93.527756
0.90268224,90.83998
1.0097193,98.360954
1.0486666,97.88412
1.2389013,99.75656
1.2124789,103.90719
1.2836673,100.20053
1.3231422,102.4042
1.344731,107.06101
1.4442171,107.89937
1.4086059,107.44372
1.4078193,109.985
1.5212457,112.904
1.4149885,113.20119
1.4559879,116.68382
1.5010657,116.57754
1.4935703,115.466965
1.519815,117.559616
1.5186292,117.994934
1.4872556,114.34577
1.497756,113.74532
1.4678427,114.381294
1.4068135,116.33535
1.344789,114.83439
1.3131794,114.34104
1.3550557,114.96465
1.2385068,114.22577
1.3084929,115.09114
1.1988555,113.30782
1.1144128,108.590294
1.1323825,111.60489
1.0819036,109.43337
1.1223727,105.342926
1.0732077,108.45402
1.0497375,108.49235
1.0434523,107.78155
1.0581834,108.69148
1.000668,102.036896
1.0166615,100.81668
1.0142605,99.954285
0.89728224,99.011024
0.93290377,95.52205
0.93331134,95.864136
0.92760986,96.04842
0.941684,95.75292
0.8315428,94.898705
0.7943181,91.76572
0.78011435,91.65472
0.79721177,91.116196
0.6708245,89.40819
0.59146464,91.92337
0.6137268,85.283134
0.5295805,85.39368
0.51757103,87.9159
0.5109897,86.320305
0.4678805,83.75792
0.5167135,85.25584
0.3970307,84.10616
0.39044982,82.75731
0.30841383,83.40443
0.32168803,77.57167
0.33412713,74.56302
0.39600468,75.507576
0.33521277,74.98287
0.30568433,75.84639
0.36857417,74.527626
0.299767,77.14616
0.27779084,71.51758
0.3672727,71.96895
0.19461732,72.19254
0.27134585,69.2004
0.20681469,71.4419
0.10598946,70.14444
0.068319,70.16189
0.12676026,73.790085
0.11242595,73.77353
0.0510373,68.85408
0.020612834,71.553535
-0.014301303,74.10719
-0.046143517,72.51072
-0.10541575,75.53996
-0.011709439,79.87321
-0.0015920054,75.92531
-0.031938575,76.36812
0.088897526,83.36225
0.23377672,83.18416
0.21974066,84.89123
0.35899103,84.78197
0.4325121,86.34769
0.5584414,89.11354
0.8013001,90.53008
0.69106144,94.45648
0.7414236,95.42698
0.84338933,91.53955
0.9400676,99.381294
0.9678008,101.03305
1.1258483,102.25611
1.1849762,102.57083
1.3451161,102.19003
1.3149885,108.83178
1.2387283,107.06174
1.3055378,105.35867
1.2972841,109.40235
1.3686538,108.60289
1.2961712,110.85495
1.3706832,112.37041
1.3736528,114.929596
1.396277,115.97579
1.3254306,114.65316
1.4048548,117.85521
1.4098575,116.8364
1.3456122,114.505615
1.299751,113.85757
1.3450074,115.04202
1.2766578,110.84227
1.2458962,113.384636
1.2533654,113.35856
1.2443594,113.52409
1.0983075,114.36054
1.1048477,109.28658
1.1209913,112.81142
0.99008656,108.26385
1.0898936,109.34516
1.0466667,109.97385
0.93006545,106.96399
0.99300814,106.411835
0.8938381,101.881516
0.95364285,104.39822
0.9224066,102.88055
1.0042489,101.76496
0.9625634,103.11306
0.88863367,101.23081
0.9196447,97.16357
0.8420457,102.22969
0.83814317,96.87291
0.8801093,95.99533
0.8493004,94.6559
0.77895755,95.32645
0.791414,94.94546
0.6842626,88.473656
0.6872835,90.91382
0.6378744,90.87541
0.631516,89.15459
0.5347732,87.0022
0.576855,84.98883
0.48191395,84.31687
0.46891478,82.13134
0.52180076,86.62236
0.42770448,82.748055
0.3957849,83.41099
0.48244363,80.50079
0.23080933,80.172714
0.39695224,77.26222
0.42786023,71.60351
0.39158317,75.25727
0.43817854,76.48606
0.32863757,71.86537
0.4127705,70.51224
0.36226192,71.2635
0.38435936,73.27796
0.23732404,70.047325
0.2594408,73.94876
0.23943587,71.27101
0.1672672,70.13295
0.26447827,69.95826
0.16634741,71.70135
0.08798933,69.09918
0.08238368,75.09007
0.13998333,75.01699
0.16569147,73.4593
0.097476006,78.53711
0.0668651,76.492645
0.0869759,78.51226
0.24436845,79.91905
0.21901757,77.63122
0.28567934,86.56226
0.4007849,81.33535
0.45806915,82.797806
0.6133699,86.41785
0.5983188,88.38545
0.7060637,91.072556
0.73894244,90.10978
0.9046623,89.30333
1.0549488,101.34534
1.106622,98.349724
1.1017057,99.93964
1.2945116,101.32242
1.3410552,101.81251
1.3888309,101.38058
1.494904,103.46394
1.508793,108.411354
1.4889272,110.90061
1.5733556,110.38055
1.6007748,114.38119
1.6019448,112.300705
1.5533123,118.58118
1.5892024,117.12322
1.6136091,118.25918
1.636672,115.86218
1.6034205,115.55184
1.5401552,112.02833
1.5797373,117.99846
1.6242051,117.607765
1.5173122,119.0414
1.4406946,112.241234
1.4723674,114.409164
1.4909271,115.66006
1.4517183,114.380775
1.3453082,110.3059
1.473188,113.52448
1.3795189,111.28413
1.4064741,109.087364
1.3153459,108.066574
1.308498,106.94891
1.2641455,107.78198
1.228262,103.70852
1.2420152,102.291504
1.1695538,102.70493
1.2718271,104.096565
1.3427725,100.42347
1.1859608,100.77288
1.1239628,98.06393
1.2436475,102.58715
1.1712431,95.51601
1.1132307,95.12754
1.0753409,95.56938
1.1541569,93.3926
1.1011798,95.08734
0.9873628,92.011536
1.0098917,89.771645
1.0296932,92.88705
1.0106231,86.90266
0.9122599,88.06785
0.8833406,89.24238
0.82873815,85.792885
0.812712,82.19999
0.7397059,84.28737
0.7466865,84.13075
0.68659806,85.28436
0.7462456,79.62065
0.7541399,79.86727
0.76621205,78.542435
0.7332919,82.11278
0.6787375,76.984634
0.71049684,75.62478
0.6668187,74.305626
0.7338079,72.75675
0.738311,69.821724
0.7005824,73.86719
0.6657881,74.080025
0.64125,72.67076
0.65440184,69.345566
0.56945175,74.92379
0.6213624,68.272514
0.44732624,69.07899
0.5144881,71.46585
0.44270855,70.14717
0.40051976,66.17052
0.3491584,72.97676
0.36800352,73.24442
0.52100533,74.37377
0.40118584,77.388435
0.4228382,74.61872
0.46708837,77.75483
0.50557965,77.48299
0.64641845,79.798775
0.5726243,84.08458
0.75576085,86.252655
0.8521546,83.63622
0.9858939,87.16063
1.0006769,93.529
1.1054426,89.49083
1.166441,91.30151
1.333843,99.213394
1.4660807,99.13549
1.4919415,98.68995
1.52026,99.01522
1.7236483,107.24721
1.6489491,103.509926
1.740278,105.23479
1.789523,109.67821
1.8283606,110.68356
1.7930797,109.01376
1.8683187,113.77189
1.8189942,111.72637
1.9850713,113.358086
1.9527888,110.03428
1.9370196,109.88019
1.8624095,112.78665
1.9878826,112.549446
1.8832963,116.85295
1.8845705,116.839
1.8818821,118.1653
