ppg,abp
1.0446465,89.59358
1.1339054,94.61398
1.2092671,102.04722
1.2533963,105.95142
1.4640025,110.95925
1.4904567,120.641205
1.5499058,119.16578
1.614815,125.50067
1.7265186,129.59482
1.6953671,132.42694
1.689436,134.13034
1.6894559,140.27585
1.7145698,138.57277
1.6589707,141.93025
1.7011355,143.2386
1.7466903,146.05278
1.7816397,147.92259
1.6988467,144.98303
1.6288402,145.43684
1.7456567,148.34354
1.5928849,138.47247
1.5004338,141.16095
1.6617517,141.8619
1.5576109,137.44035
1.4761271,136.8174
1.533736,133.83899
1.4751405,130.25719
1.3883967,129.6501
1.4272782,126.88463
1.344836,120.79993
1.375576,120.17096
1.3321143,118.82093
1.317987,117.30611
1.2963351,113.996056
1.3741555,110.42493
1.3244649,104.67623
1.3167725,102.154045
1.2361403,98.83341
1.2765468,94.481575
1.2275387,94.44533
1.1654586,93.30593
1.118067,88.507706
1.0531144,83.282234
1.0086931,79.82312
1.0055434,79.74488
1.0016688,79.37358
0.94581187,70.52703
0.89910513,72.88616
0.8379042,64.94156
0.8570328,67.095146
0.88007855,61.79038
0.7314204,61.74227
0.8418204,56.279007
0.69742584,49.97543
0.8564595,51.046467
0.8125063,47.58139
0.7726136,44.982136
0.75831676,46.093384
0.6686278,41.443
0.8312677,40.0
0.654153,40.0
0.7498707,40.0
0.7537678,40.0
0.6407795,40.32924
0.516626,40.0
0.5774895,40.0
0.58261347,40.0
0.45087546,40.0
0.56454843,40.0
0.48141485,45.964428
0.4647788,45.288525
0.553269,53.049004
0.57949984,54.363297
0.6440694,57.72039
0.7274774,60.229225
0.7485459,71.198715
0.8685233,69.11078
0.98556405,78.56125
1.2253407,81.27343
1.262593,86.00364
1.3151383,93.21947
1.3786691,94.87253
1.5302665,102.880394
1.5893068,103.85904
1.8307104,116.18519
1.8109529,116.83827
1.8046194,120.93842
1.868283,129.2095
1.8631704,131.92885
1.9293808,132.8508
1.7925094,136.52913
1.9003848,138.35059
1.9562148,140.01326
1.9269183,142.86879
1.948404,143.8829
1.9797804,146.94101
1.8745706,146.3958
1.8819649,146.5061
1.8728048,144.19087
1.8364959,143.66133
1.8271782,141.59491
1.7854362,141.25916
1.751727,139.69159
1.741685,137.79343
1.6484568,134.01825
1.661898,134.5244
1.69675,133.68323
1.5432397,127.10377
1.6312891,122.062775
1.5228966,119.37908
1.5491443,119.68035
1.5981562,117.52174
1.4747398,114.08407
1.4536785,108.12105
1.5309033,102.38714
1.5424693,101.47573
1.4407952,100.54735
1.4208915,98.72624
1.4030358,90.99626
1.4243612,93.20897
1.3154783,90.19966
1.2366742,85.533936
1.2305646,85.172295
1.2264309,81.253204
1.1089047,73.948364
1.0451277,74.58968
1.0316244,75.331116
0.97127986,68.98204
0.93001306,67.713974
0.8296368,62.009064
0.91951984,58.672222
0.8621518,53.11836
0.8973293,56.3038
0.8991938,51.806534
1.0303577,52.980736
0.89360565,49.3725
0.9171711,43.970177
0.84432954,43.727913
0.8995583,40.346176
0.9152889,40.0
0.889695,40.0
0.8358679,40.0
0.7179772,40.0
0.7442784,40.0
0.5703521,40.0
0.71995753,40.0
0.61025923,40.402527
0.533382,40.0
0.5869549,41.61887
0.5203828,43.88421
0.54345876,51.285397
0.50777173,50.91299
0.7370735,53.78699
0.75005466,64.00168
0.7351744,60.598793
0.8790628,62.91494
0.99830395,69.86477
1.0771501,76.68174
1.1410764,82.123566
1.2063855,92.42262
1.3343564,91.918724
1.4910779,95.327415
1.5085981,105.84676
1.6919844,111.91979
1.694197,116.15965
1.7193438,117.827385
1.7605513,124.94608
1.7497686,128.08453
1.8470577,130.41956
1.9338906,135.84032
1.791674,134.89288
1.906602,137.7342
1.9220344,143.91306
1.8395048,145.39513
1.9463911,148.23439
1.87957,144.98088
1.8429252,144.30484
1.9168875,148.91672
1.8719122,141.7919
1.8210818,142.92975
1.7894665,142.34894
1.7835937,139.16443
1.7528069,142.64137
1.6225567,137.7739
1.5422945,134.25479
1.5403471,132.48087
1.6190423,129.02881
1.4736333,129.778
1.5125743,122.63512
1.4252187,123.124504
1.3353151,118.22409
1.3711724,112.66348
1.3744761,115.49221
1.4981929,106.97021
1.3925605,102.799484
1.3579363,104.30454
1.2697152,102.37054
1.2197174,96.948814
1.2439246,97.561264
1.2401851,93.586
1.2315156,92.1829
1.052833,86.99465
1.1255976,80.780304
0.9569582,84.915665
0.9811047,74.12524
0.8927461,76.5326
0.9078447,68.869286
0.89226633,70.53217
0.71704084,66.47266
0.75142264,64.569916
0.6572672,59.367546
0.84391147,54.215397
0.7955661,53.915234
0.7240375,52.763927
0.7825312,51.670288
0.7594916,45.928288
0.80823374,40.874653
0.70550615,42.931618
0.6880063,43.724865
0.70220786,40.0
0.6027916,40.0
0.61901176,40.0
0.5442492,40.0
0.4329858,40.0
0.51582617,40.0
0.5390204,40.0
0.36624396,40.0
0.2971003,40.0
0.3475181,40.0
0.27825394,42.536427
0.42875504,48.36249
0.4463346,48.506714
0.49923313,56.981888
0.48470592,63.272083
0.57028276,62.536934
0.6590575,67.79497
0.817027,73.13006
0.79435956,77.54516
0.9981717,84.6338
1.0458583,91.126076
1.0106279,91.393486
1.1853671,98.623665
1.250808,107.26485
1.382131,110.44376
1.3767563,115.228836
1.6165946,117.32936
1.6256344,123.45002
1.587392,121.934044
1.5530102,130.34319
1.6270986,133.73177
1.5790632,138.94046
1.6199024,139.39546
1.5348316,142.44615
1.6830676,143.89381
1.5955964,148.05864
1.6829613,148.77785
1.602818,143.20183
1.4993601,146.94606
1.6228427,143.84929
1.4679458,144.41484
1.5203762,142.89992
1.5162408,140.77576
1.3856757,139.29053
1.3889208,138.11087
1.2172126,134.86908
1.2605032,134.38814
1.1966815,129.81589
1.2291164,127.73542
1.1876196,124.31181
1.108874,120.85929
1.1110673,120.25334
1.1459994,115.93287
1.2169143,110.53194
1.1800079,110.69625
1.0724363,107.46594
1.0520388,106.00836
0.98619837,99.93148
1.0265746,96.22851
1.0256225,92.92747
0.8602269,96.84245
0.90854377,90.51111
0.890344,81.00328
0.7015235,80.43578
0.77801657,80.56223
0.76175624,78.93347
0.62511134,76.448715
0.6142664,73.83096
0.54455143,67.923706
0.5759819,64.28582
0.49542832,62.772003
0.5525398,58.52593
0.49220592,55.245304
0.5276267,51.617504
0.5409002,54.29456
0.36861894,46.168472
0.46139595,46.390175
0.4668527,42.404625
0.46084014,42.255104
0.38699725,42.595367
0.41675118,40.0
0.2691225,40.0
0.33226895,40.0
0.20161,40.0
0.23862346,40.0
0.11201934,40.0
0.05162811,40.0
0.039117157,41.29533
0.09130172,40.43192
0.15767762,44.7646
0.10428915,41.600296
0.051013935,50.408295
0.045286335,52.655476
0.08511817,54.30794
0.23571223,61.840225
0.22838107,62.698326
0.46048203,68.50942
0.488226,74.46061
0.6440427,81.23589
0.631092,81.969185
0.837904,92.26243
0.94416034,92.64003
0.94095296,97.82321
1.0167373,108.99848
1.1957059,107.75623
1.1753477,116.56325
1.2753596,125.4152
1.3016579,127.30131
1.2905722,128.06075
1.4273319,133.94496
1.391806,136.63869
1.3892871,138.91232
1.4332823,141.19737
1.3962663,146.92935
1.3755736,144.40929
1.5331744,144.79437
1.3632864,144.56654
1.3960596,145.04393
1.3394997,146.37497
1.2240402,145.46678
1.3245527,145.98541
1.1869054,142.43373
1.2228788,138.26187
1.080124,139.62347
1.2106436,138.57588
1.0773093,128.26393
1.1052397,126.656555
1.1256995,126.87416
0.98516786,125.76861
1.0527732,123.847084
1.0206312,119.152565
0.9225395,119.6971
0.85500693,112.59079
0.9275097,112.15431
0.86417586,107.71159
0.82798326,104.19684
0.8290189,102.45434
0.87560445,103.007164
0.7734448,96.17542
0.75123143,94.64263
0.6526507,90.164764
0.68903995,83.95775
0.7631305,83.35555
0.73662853,79.66819
0.53517675,80.46546
0.63014984,76.72148
0.46881282,77.45715
0.4479761,72.49805
0.40535507,69.88829
0.48057514,67.5928
0.46131176,58.25991
0.34287402,53.903084
0.24676146,58.852646
0.3446549,51.045128
0.35430694,52.37513
0.36917394,47.05726
0.27950662,42.638695
0.30061355,44.24088
0.30934367,40.0
0.35908696,40.085262
0.2018507,40.0
0.15765056,43.59563
0.14656578,40.0
0.07585524,40.0
0.071780905,40.0
-0.0028313682,40.0
-0.08218547,41.37866
-0.043503236,40.090874
0.03446016,42.5296
-0.10081674,42.47707
-0.11953244,47.49922
-0.028504603,49.97113
-0.03527352,53.715233
0.016311783,59.086433
0.14548376,60.123573
0.2666228,69.33264
0.42103523,70.92074
0.4451143,80.15391
0.52638113,83.04043
0.6216386,84.24158
0.85057473,90.86002
0.9055735,99.075356
0.93841124,103.232666
1.041335,108.099
1.1778487,112.84878
1.1812727,117.63081
1.2531621,120.27077
1.3079906,122.78703
1.4188497,126.24605
1.3203988,132.37802
1.4593986,133.27037
1.4889129,138.1952
1.3952168,141.2731
1.3526621,144.71945
1.3878777,143.48343
1.3692224,144.27307
1.3209256,148.11966
1.370397,145.19005
1.3961318,144.33698
1.2872283,143.9473
1.2453814,143.23366
1.1660813,136.31355
1.2386049,144.93747
1.1966072,138.2491
1.1055933,138.20529
1.1701373,132.38147
1.0798869,128.94073
1.0801921,127.568275
0.9842737,125.604324
1.0041609,123.645775
1.0484618,120.492096
0.9802581,117.05585
0.9885661,114.45325
0.9610641,112.373146
0.93154836,115.138504
1.1000098,108.85827
1.0023652,103.6735
1.0433438,98.08038
0.89749503,96.870285
0.89389807,95.967766
0.90152127,91.20916
0.8191756,90.75883
0.8780152,84.23524
0.70696425,77.68364
0.6409246,77.65998
0.53611517,79.08415
0.5953309,71.986664
0.59491444,71.09272
0.53607625,68.5456
0.3002032,68.273605
0.4757054,59.340393
0.56888694,62.201942
0.38341108,55.807343
0.5150705,54.56885
0.43630072,50.779053
0.35316518,48.71706
0.44879663,46.745163
0.41719344,45.12455
0.48959446,40.393314
0.40746662,40.0
0.2773239,40.0
0.4794153,40.0
0.31018737,40.0
0.20116334,40.0
0.188684,40.0
0.1372311,40.0
0.1526697,40.0
0.23854153,41.633373
0.16363986,42.264427
0.21257141,45.280037
0.18599708,47.056522
0.13737501,51.071884
0.17542815,54.45414
0.29223898,57.15348
0.23939662,61.919743
0.45184454,66.150856
0.5189657,75.84156
0.6776085,74.75567
0.78230906,80.422195
0.80252135,87.11389
0.9969426,94.97491
1.030802,100.3056
1.2163475,101.16657
1.2193677,110.29829
1.3863509,110.1522
1.397107,116.94003
1.5202079,124.29506
1.5323577,122.74135
1.5312066,129.10428
1.5769426,135.08688
1.6147444,140.27914
1.5977006,139.0528
1.6339779,142.56377
1.5584,147.1261
1.6910926,145.7988
1.5815085,146.04347
1.5561774,145.35127
1.5059595,141.7202
1.490054,146.87302
1.5653915,143.96768
1.5562972,143.04436
1.4129176,141.23666
1.4642506,138.54427
1.4853787,136.28268
1.5295117,132.40285
1.4402338,131.82906
1.2760581,135.60329
1.3537033,127.69999
1.2686833,125.43847
1.1620637,122.827614
1.2898408,121.23206
1.2868063,116.076324
1.2676945,113.84107
1.169088,108.77238
1.2865695,108.45387
1.1805321,104.54726
1.0688027,105.681625
1.1639547,96.561615
1.137706,95.32631
1.1556702,90.98724
1.0360298,90.311745
1.0670384,88.950966
1.0276952,84.60249
0.98691005,84.25882
0.998822,77.856865
0.9104661,73.63388
0.9092803,71.84012
0.7769177,67.99712
0.8417758,66.101524
0.75039846,64.07649
0.6648921,61.180115
0.69418764,60.664833
0.72480565,54.44213
0.71417695,52.138824
0.76318634,51.635437
0.7969016,47.645958
0.7496714,40.0
0.6648612,43.47832
0.898494,44.815033
0.7122965,40.0
0.68542224,40.0
0.60764205,40.0
0.6130215,40.0
0.5993341,40.0
0.47003123,40.0
0.384167,40.0
0.43576556,40.0
0.43643925,41.075058
0.45295742,42.45351
0.38681564,49.17139
0.47419602,49.87023
0.49808916,49.01763
0.5072508,55.264515
0.5169107,57.754383
0.63756734,61.96823
0.8012832,65.79268
0.80600184,74.7474
0.96241707,79.261024
1.0742835,81.792175
1.2442157,87.61627
1.27782,91.86976
1.442682,99.85408
1.4293588,105.301765
1.5044402,112.17624
1.7343643,113.75084
1.6974012,117.11695
1.8707078,121.44593
1.8715591,130.0718
1.8580368,127.86729
1.8575568,134.25426
1.7965524,138.34987
1.9008735,138.75227
1.9388788,141.94376
1.9178487,143.72845
1.8983526,141.12926
1.7979434,148.3789
1.9233315,144.11409
1.9194808,145.95004
1.751535,145.2276
1.8679336,143.17804
1.8607823,142.39227
1.7613622,139.548
1.8272948,140.54451
1.6699965,134.4485
1.6372465,140.65701
1.7525567,130.09137
1.5659453,134.42094
1.5542011,130.46442
1.5498115,124.4421
1.4647762,119.85052
1.5121402,116.909424
1.6043649,117.05113
1.5441632,111.879555
1.4485264,114.36733
1.4493345,108.6563
1.5429904,107.194466
1.4132887,96.323845
1.425887,94.81903
1.3022789,98.8712
1.4422244,94.87332
1.34051,88.49512
1.3052325,85.6406
1.2129052,83.855
1.1248161,80.1523
1.0897076,80.301796
1.0772612,74.075745
1.1038555,69.51646
1.0378021,70.1212
1.0751324,67.05069
0.946787,61.986412
0.99711174,62.722633
0.9098078,56.314934
0.9434225,54.483097
0.8626514,54.270794
0.8598308,52.202488
1.0420349,47.237732
0.9057881,41.76133
0.88740253,42.55216
0.93653566,41.830547
0.8847446,40.0
0.8421967,40.0
0.78265494,40.0
0.8388641,40.0
0.65014,40.0
0.48844683,40.0
0.662439,40.11937
0.6206543,40.0
0.52282447,40.0
0.6000207,40.926052
0.5561995,41.34232
0.5903137,52.072205
0.5814739,51.7441
0.5898641,54.47943
0.70555764,58.856667
0.8099053,66.20672
0.8640694,70.85589
0.9180323,71.37327
1.117792,77.02998
1.177179,85.10758
1.3408155,93.686226
1.397993,92.10075
1.5634098,99.18356
1.6318532,105.246765
1.650587,108.532166
1.8247647,113.569405
1.7466744,122.0872
1.8726723,125.49911
1.7918413,130.5987
1.8878762,130.79416
1.9117296,136.15152
1.8319104,136.09326
2.0306685,142.6623
1.9738458,140.66064
1.9857076,139.74382
1.9512717,145.34818
2.0107968,143.98247
2.0065732,143.56929
2.0527997,142.88866
1.8735024,145.28554
1.9112477,141.89523
1.737982,142.00311
1.7611799,141.21954
1.800283,138.39238
1.634913,139.50833
1.7151126,133.93127
1.5923803,132.26236
1.5589973,127.26745
1.582798,129.17296
1.4915944,127.80726
1.4470359,120.51087
1.488159,118.770325
1.4937464,113.13002
1.3436934,113.22443
1.4107407,114.32929
1.403143,106.338524
1.3791803,104.023766
1.4210151,100.01277
1.3774409,100.28928
1.2441188,97.24107
1.306973,91.98683
1.1034197,90.29166
1.0872451,84.32329
1.1263838,81.25331
1.0714905,81.11228
1.1103328,81.25266
1.0605309,70.281334
0.95522684,70.93623
0.91075265,71.41964
0.8661586,64.73522
0.840527,62.027924
0.84060335,58.738365
0.8930125,57.74137
0.8012223,53.020077
0.82380646,51.333073
0.8776074,48.345337
0.6865201,45.663624
0.8284257,43.786865
0.8046581,40.90428
0.63899267,40.86885
0.78436995,40.0
0.7170926,40.0
0.672023,40.0
0.6173258,40.0
0.5529832,40.0
0.5343986,40.0
0.4263764,40.0
0.409579,40.0
0.43840635,40.131958
0.48762807,43.651733
0.50924706,43.724403
0.5155968,46.125656
0.48111784,51.97115
0.52993256,52.818584
0.56314886,61.738796
0.72348475,62.38314
0.8016921,73.29436
0.8099889,73.108894
0.99610484,82.18531
1.0290444,86.30182
1.193842,89.25769
1.1493549,96.854065
1.3833148,101.783936
1.3439829,106.33434
1.5395815,109.89472
1.5068244,113.44381
1.7273839,124.05152
1.62234,123.09649
1.7507077,128.51552
1.7154666,129.65329
1.7261089,136.26633
1.7262613,135.6651
1.7636456,142.35075
1.786936,140.70473
1.7061929,143.84775
1.8545278,148.27785
1.732233,145.4069
1.7177953,143.62442
1.7046587,146.00871
1.6420729,145.42436
1.5643537,142.44272
1.5136071,139.45193
1.5055789,141.96397
1.4968514,138.37086
1.4450245,135.70442
1.3225465,136.61739
1.2019511,132.47707
1.2253712,128.2357
1.3229012,127.00951
1.2939966,121.49784
1.2933259,118.91951
1.1136677,119.644066
1.3114488,115.67912
1.2850575,110.20569
1.1966023,109.662094
1.2277023,104.19599
1.2051485,103.17805
1.0356797,96.49235
1.1067314,97.38856
1.0260249,91.450615
1.0592406,90.81019
0.8883866,88.354614
0.9810659,87.18334
0.8397549,84.00248
0.7301776,80.37308
0.7656042,74.469826
0.75731385,70.63899
0.65315074,72.920265
0.5617159,68.54133
0.56522775,64.800186
0.59115475,62.379063
0.6037731,54.949345
0.59936893,55.277466
0.50143206,51.209324
0.5824772,49.227882
0.5001145,49.764637
0.5625832,45.52493
0.5364195,43.859455
0.45022836,40.0
0.57465965,40.0
0.6124638,40.91034
0.4031986,40.0
0.4408413,40.0
0.24528955,40.0
0.23290636,40.0
0.11103388,40.0
0.22646236,40.0
0.111665525,40.0
0.09059213,43.456078
0.018443616,46.18825
0.10896229,46.496532
0.09074575,47.017883
0.12810425,53.657288
0.29510614,57.08951
0.35780522,65.51347
0.3741704,64.011986
0.4368764,67.588005
0.63243765,76.0475
0.7073922,80.022224
0.78700954,88.77369
0.8986737,93.97337
0.9979333,99.1606
1.05586,104.78878
1.1657583,111.94756
1.1663487,108.44003
1.3274529,116.08621
1.4091781,123.003044
1.3843418,126.12518
1.375334,130.97646
1.3527467,131.7328
1.3994285,138.4079
1.4915547,138.7502
1.453052,137.34573
1.4808025,142.81558
1.5706722,146.6058
1.3977093,147.44075
1.3320721,145.10474
1.3456793,146.67336
1.4052485,142.81107
1.4131174,146.66098
1.3288003,141.2678
1.1758572,141.18881
1.3122016,140.75145
1.2647654,139.84744
1.1603838,132.37143
1.1990411,131.02032
1.0286605,133.38797
1.1119308,129.3962
0.957254,125.43721
1.0004997,124.39078
1.0571989,120.42808
1.0269974,120.26659
0.91128504,115.95471
0.9016851,109.53588
0.9763195,106.506874
0.991805,105.95812
0.99335927,100.31198
0.8714913,100.35964
0.84169006,97.76141
0.80306304,88.608894
0.7626904,90.81426
0.6976474,85.98061
0.69551,89.805824
0.6187179,81.912415
0.5166958,78.514366
0.48155734,75.28198
0.504815,72.926636
0.51391685,70.0189
0.40417537,68.08563
0.29417554,62.36829
0.32920322,60.564793
0.35341868,55.91523
0.24964629,52.265095
0.39394978,49.845146
0.32683262,49.235016
0.3771064,48.0743
0.32733443,47.67728
0.41285688,41.658752
0.28353152,40.0
0.2911178,41.13372
0.19694923,40.0
0.20757644,40.0
0.1572962,40.0
0.14366065,40.0
0.09587839,40.0
0.073149346,40.0
0.083091125,40.0
-0.047796525,40.0
-0.10773037,40.0
-0.0355055,45.161026
-0.094048366,47.551353
-0.08020734,51.89455
-0.04185537,57.820568
0.043598767,57.78856
0.161839,60.336056
0.22301061,68.287125
0.40109217,70.82112
0.47941306,76.58698
0.57840455,78.53393
0.6346644,88.091225
0.78774387,93.83747
0.92852575,99.545
1.003178,102.13118
1.1110984,107.48854
1.1622468,114.81404
1.2293619,113.40624
1.1666204,124.71227
1.3839831,127.21554
1.3504788,130.73871
1.2193846,132.22691
1.4244219,137.5675
1.426092,140.63959
1.5187261,142.55707
1.3056555,147.55064
1.3524076,140.60376
1.3222572,148.88686
1.1963534,145.85014
1.3703207,146.23184
1.3326067,146.20909
1.2625749,144.02846
1.2238582,142.42108
1.2101495,141.77777
1.262938,144.29716
1.1605573,137.80164
1.1263199,134.21121
1.0248733,132.16447
1.0830092,129.26064
0.91580117,128.80357
1.0000327,126.18618
0.9707267,122.77978
0.89803207,121.744835
1.0826494,115.203255
0.9260385,110.302444
0.80801785,110.68089
0.9344963,105.763855
0.9106604,104.34607
0.8697939,101.972015
0.82690513,101.120964
0.8521826,94.71184
0.8304297,92.56921
0.68153274,88.02763
0.8456966,89.633385
0.67390144,82.93282
0.68436545,82.9998
0.5209471,80.549545
0.6123129,74.79624
0.47251743,72.06839
0.51847,70.10554
0.4733278,67.70426
0.46197236,65.34792
0.39501628,58.556236
0.33663037,54.487465
0.39928478,57.648922
0.43983996,51.116127
0.3652259,50.60804
0.27866873,44.849476
0.43220973,44.76852
0.37495407,40.154922
0.3345317,40.0
0.46594316,40.0
0.35832715,42.04154
0.2623031,40.0
0.2726401,40.0
0.24144615,40.0
0.2029527,40.0
0.08309295,40.0
0.055587575,40.0
0.020094598,40.0
-0.021902028,41.759403
-0.093894795,46.3926
0.04817335,48.20474
0.18785527,51.99053
0.22114004,49.459835
0.22187345,56.252426
0.28197068,65.03275
0.4111525,69.075935
0.57118696,71.70176
0.6557654,78.54248
0.7649396,81.022316
0.8688676,86.43103
0.9599026,96.26735
1.108445,99.77908
1.1623671,106.70836
1.1644287,112.59071
1.3452752,120.71491
1.2753687,121.012535
1.4379033,125.18695
1.4658898,126.93462
1.5257353,131.42413
1.5139239,130.74153
1.5230107,138.056
1.5427266,138.33061
1.4972678,142.60143
1.5845754,142.61345
1.651948,145.10916
1.4850936,143.47891
1.5206735,143.29306
1.4672437,148.7661
1.5026562,144.85004
1.5378828,147.98756
1.405538,143.1439
1.3301166,144.21277
1.4438753,140.21332
1.4086293,138.41212
1.4394382,133.28479
1.2900488,131.13264
1.301474,129.4657
1.2330688,126.86777
1.1410509,127.14544
1.1761339,122.0646
1.2064571,118.33636
1.1170921,114.9339
1.1098429,114.29647
1.2135726,108.79013
1.0685829,106.661125
1.1000568,105.7184
1.1030245,97.2324
1.1166179,97.26363
1.0453659,96.31386
0.9869431,93.274284
0.96582365,88.47244
0.9406294,83.24218
1.0123062,77.33514
0.9247643,76.75021
0.84084976,75.799355
0.76951385,75.96118
0.75437933,69.09321
0.7408466,67.7144
0.66899854,66.62431
0.7348084,65.21815
0.5317869,60.29139
0.64319324,58.879654
0.73136866,53.407597
0.6130305,52.132545
0.77641165,50.0037
0.66329026,45.850273
0.6668134,42.461617
0.7514894,40.76441
0.6757106,40.075027
0.6891152,40.0
0.62242407,40.0
0.57933146,40.0
0.50904655,40.0
0.56897616,40.0
0.3516493,40.0
0.37017223,40.0
0.29120657,43.389835
0.25421232,40.0
0.3643396,43.878483
0.40571257,45.33442
0.39214668,51.253803
0.41713965,48.217175
0.4265618,56.29841
0.6819719,60.808308
0.62420917,66.54925
0.6836122,69.81607
0.96229845,69.88458
0.9163055,80.956535
1.0298787,83.76763
1.1695514,87.554565
1.2448788,93.05013
1.4677267,100.01364
1.4230434,108.685265
1.5011731,107.477936
1.589271,117.05704
1.76087,121.31065
1.6866713,125.95683
1.7130792,130.79675
1.7485982,132.01692
1.7806073,137.71921
1.8155128,139.6745
1.8065464,139.28746
1.8766109,139.25543
1.8675601,144.56676
1.8749399,144.44379
1.8407935,143.49437
1.7959815,144.18376
1.8528029,146.32927
1.6826433,144.57289
1.8880014,142.08649
1.6550161,144.25746
1.6778308,139.39058
1.6154243,133.376
1.7090485,140.24979
1.6908981,130.73624
1.5001994,128.09187
1.4936231,131.92749
1.5949726,125.51903
1.4742771,122.677986
1.5122408,117.33524
1.4130218,117.7727
1.3084227,116.889656
1.3685046,112.129196
1.4780989,106.20475
1.4165748,106.88248
1.4832836,103.53476
1.3615481,101.09832
1.3220292,97.8021
1.3981467,92.473114
1.287313,94.32504
1.3627205,86.298904
1.1943665,84.25322
1.0974767,84.1324
1.1430359,82.30489
1.0146664,78.10825
1.0748941,72.30676
0.93667805,76.632095
0.9125577,68.79446
0.94659996,66.3698
0.894699,61.887222
0.9014639,57.318825
0.8616502,59.221363
0.89986175,51.696262
0.9222175,48.39064
0.8521693,45.94026
0.88829654,45.132843
0.9500856,46.506176
0.8945055,41.514896
0.7874948,40.21122
0.80057293,40.0
0.78401935,40.0
0.78403854,40.0
0.7005275,40.0
0.7049292,40.0
0.641635,40.0
0.5117355,40.0
0.56228054,40.79838
0.4175163,41.81501
0.5034992,44.640495
0.46783054,45.441578
0.6414958,53.738186
0.7110126,54.434544
0.6364888,53.095337
0.82358575,59.084667
0.7807512,63.34391
0.95438,69.137184
0.96712583,72.65717
1.1390841,78.09628
1.3018057,84.8692
1.3199425,93.015045
1.417147,98.90856
1.4472733,101.22354
1.6406425,106.20838
1.7247564,110.65311
1.8472421,116.11579
1.8289564,119.798515
1.8253965,128.7957
1.9173521,124.81428
2.0351987,132.82599
1.9130697,130.52873
1.9567986,138.56197
1.89824,143.1309
1.9462044,142.92674
2.0461195,144.73434
1.9688566,144.87558
1.9005746,143.47096
1.867027,144.43858
1.8898971,145.11174
1.9626838,142.6547
1.9045221,140.74625
1.8046242,145.59619
1.7039913,139.76755
1.6939766,138.75162
1.6953241,133.62643
1.5712485,130.9083
1.6639671,130.39763
1.6682483,125.887215
1.678261,126.72106
1.6116506,126.65061
1.4960082,118.95573
1.498478,116.78962
1.4951483,111.03329
1.5208918,107.19802
1.4497577,110.2362
1.5426676,103.15083
1.5045822,97.32294
1.3839433,102.114944
1.4346771,95.91371
1.3538693,92.67974
1.3772925,91.10001
1.2755119,88.64341
1.1306112,82.94744
1.1818262,82.198204
1.1282097,81.51939
1.0852684,75.29281
1.0060173,74.852455
1.0499884,72.00093
1.049591,68.52501
0.9864295,63.515007
0.91039115,62.436115
0.9092917,58.533833
0.9283585,54.261154
0.76368904,57.628197
0.9033877,51.788742
0.87895167,45.879757
0.8403287,44.757534
0.8870455,42.21543
0.80551445,40.62559
0.8424491,40.0
0.6862187,40.0
0.6318486,40.0
0.7756351,40.0
0.6122228,42.056675
0.693634,40.0
0.5047588,40.0
0.4491586,40.40339
0.43658632,40.0
0.4402155,42.333076
0.5303863,41.269985
0.5152908,44.773335
0.3942081,48.75545
0.5641603,55.197292
0.5485432,58.512585
0.68724734,57.42128
0.8594109,67.36611
0.7799587,69.57601
0.7447104,76.61862
1.0985119,87.03677
1.2525619,83.29814
1.213098,90.08364
1.3208737,99.09832
1.5276628,103.23534
1.4818308,103.710594
1.4766343,117.00916
1.6642767,120.046394
1.6841047,123.03058
1.8144773,123.812614
1.695104,126.58233
1.8194,133.60541
1.8329636,136.86046
1.8760431,138.67328
1.8437848,141.16252
1.7997402,142.93742
1.8077483,144.79759
1.710098,148.4136
1.784926,145.35117
1.7300371,141.84029
1.7028205,144.8745
1.7679538,144.65846
1.6977373,141.68304
1.6485833,139.4421
1.5596182,144.71266
1.6206814,138.65192
1.4715157,133.48544
1.5491688,131.20718
1.4762262,131.37386
1.3524457,128.16896
1.3409231,126.178825
1.3639425,121.61663
1.3550551,123.07302
1.2359644,116.52897
1.1786222,113.627396
1.3372083,108.28879
1.1888256,106.67522
1.3586569,104.440994
1.2294321,104.51793
1.2314842,97.92312
1.1361883,96.19601
1.111084,89.76248
1.059061,92.60209
1.0683397,86.78265
0.9510304,84.959564
0.89394987,77.78583
0.8615941,78.24995
0.7703414,75.048996
0.7783204,75.29524
0.72645885,64.87655
0.7450452,63.09206
0.59401864,64.36099
0.6462656,60.9789
0.6890627,60.873325
0.67265683,56.666836
0.782935,49.647213
0.67817956,52.56333
0.6072858,46.858536
0.64001966,43.043617
0.57551235,43.47592
0.59097224,40.0
0.4661518,40.0
0.4615374,40.0
0.39954114,40.0
0.46676612,40.0
0.23070608,40.0
0.38231933,40.0
0.25942606,40.138157
0.31128007,40.0
0.11503223,41.45394
0.19249226,45.606804
0.16091032,43.03064
0.21177357,42.919926
0.21871524,51.247936
0.21470313,55.091007
0.2927753,58.13098
0.3281731,62.456738
0.48777482,63.18347
0.5294855,72.13026
0.6503322,78.12395
0.8464867,83.769966
0.83686686,90.08171
0.84381044,91.61332
0.9847217,97.50283
1.1979098,102.64443
1.2156783,109.79096
1.320386,116.74943
1.387479,117.740616
1.5608859,121.52924
1.4613988,123.87925
1.5147544,135.7355
1.3286978,133.52834
1.462426,137.4907
1.6462086,140.98965
1.5695772,142.5258
1.5736383,142.8443
1.4837708,144.50552
1.445116,144.90573
1.4969167,145.93741
1.4919822,143.77621
1.4622605,146.91333
1.3796006,143.2919
1.4201151,144.71558
1.3810707,141.16283
1.2053882,139.05591
1.2812694,136.14944
1.262558,135.9482
1.138876,136.72101
1.1679579,131.71866
1.1404961,128.66223
1.0281988,126.63835
1.0862871,117.91303
1.024045,120.075096
0.9316776,115.69027
0.9675705,115.68661
1.0050817,107.82977
1.0044314,107.20601
0.849635,101.67991
0.8964971,101.44917
1.0139825,98.670845
0.83039385,93.71913
0.822036,91.06658
0.78364205,92.57703
0.62458855,86.786095
0.7070091,84.14377
0.6692625,82.579544
0.6630601,78.164665
0.6039232,74.90828
0.5133033,70.64279
0.5451786,70.9089
0.4307666,67.70407
0.46223572,65.21409
0.4401355,59.43807
0.35071513,57.021637
0.37429675,53.241894
0.38845092,49.94864
0.3829353,50.429012
0.39170015,45.593246
0.319973,43.213215
0.341892,41.961002
0.38186038,41.04231
0.3106399,40.0
0.24114068,40.0
0.17258124,40.0
0.25517106,41.422295
0.21518879,40.0
0.050302103,40.0
0.068014,40.0
-0.117537536,40.0
-0.016467825,40.0
0.05735879,43.891087
-0.13918683,47.29097
-0.047067866,44.518982
0.0069439784,48.8202
0.15122533,57.509274
0.09483241,56.144604
0.312521,62.231777
0.40545216,67.139565
0.37230748,67.57612
0.49314824,81.21642
0.55825293,82.14923
0.7621914,91.26312
0.7776352,96.71166
0.89448446,100.436516
0.9854639,105.95463
1.1384274,108.036514
1.1867672,113.18402
1.1972919,119.74057
1.2224741,121.65336
1.2340114,123.9996
1.3092082,133.48322
1.2842484,138.40465
1.3523788,134.63615
1.3910435,138.5761
1.4114081,141.12717
1.3319647,141.38527
1.2192191,146.25124
1.3368322,145.63548
1.2895931,148.82047
1.3177131,146.76212
1.3601028,144.83244
1.3092064,147.7239
1.3200638,143.13757
1.1567099,141.64865
1.1449094,142.51392
1.1708665,135.99484
1.065166,135.72757
1.0056094,135.04243
1.0925486,130.89244
0.98227245,124.41806
0.98327625,123.74791
0.9683261,119.353096
0.82680106,117.005066
0.88673055,115.11942
0.874308,114.76279
0.8732848,106.592834
0.7602487,105.45485
0.909852,100.807846
0.9222454,100.693054
0.94694644,97.77966
0.8898051,94.84648
0.80403906,88.57476
0.7821234,88.74575
0.65893596,86.34426
0.66349125,80.46082
0.5213479,79.479546
0.5815111,78.024445
0.5047038,76.240265
0.5080103,68.426506
0.4866043,70.85827
0.4886093,65.04275
0.4064584,61.789127
0.33734438,58.936005
0.36410856,57.95571
0.38274828,53.927124
0.41519994,48.788303
0.3712374,50.1196
0.29944852,46.09196
0.30682302,43.29362
0.34257266,44.85277
0.30286422,40.79572
0.36762598,40.0
0.28646043,40.0
0.30022585,40.0
0.26456982,40.0
0.14350386,40.0
0.12018227,40.0
0.06577831,41.04549
-0.052007206,40.0
-0.029587895,41.34688
-0.018450843,42.186516
0.027037596,46.092945
0.09247221,47.94304
-8.157637e-05,53.25453
0.103616916,57.936844
0.23693666,57.15467
0.33129424,66.469604
0.4805594,74.30627
0.46374753,75.24785
0.5912392,81.84483
0.6878332,84.22655
0.7595071,91.05014
0.93627363,100.367065
1.1398816,103.10882
1.0998976,105.63668
1.2443742,113.26673
1.1592857,116.61852
1.3727844,118.66466
1.3534551,124.34236
1.3838887,126.07585
1.3554392,133.78015
1.4458338,137.17888
1.4112486,139.06844
1.4805282,139.26971
1.5122498,139.8201
1.4694831,141.21555
1.5318766,141.92719
1.3821414,149.14517
1.4875503,144.60896
1.4862448,144.38269
1.3923507,148.36214
1.481921,142.17513
1.3368468,143.39818
1.3321676,141.79013
1.3086852,136.59587
1.2496687,139.3768
1.313998,133.06749
1.1720105,129.94052
1.1869063,127.60722
1.1018598,124.32872
1.1221831,122.05316
1.0687629,118.40986
1.1109732,119.374504
1.1245998,116.80689
1.1510339,113.55582
1.0553958,108.65137
1.0456197,106.22742
0.97121894,103.54626
1.0557396,99.31561
1.0091888,94.64423
0.9058511,91.83783
0.89594096,89.75289
0.8831588,87.05613
0.87030435,84.452065
0.81283385,84.372314
0.8138393,79.64006
0.7520737,77.75129
0.6934557,74.40135
0.631229,70.551315
0.60629076,69.83734
0.6068859,63.940144
0.6838492,61.444126
0.6061894,59.54763
0.63334924,54.703285
0.6327998,52.520256
0.6297824,50.750065
0.5601547,45.16097
0.52655524,44.356953
0.51524067,44.06267
0.73058254,40.0
0.55528885,42.502304
0.5147711,41.606083
0.52371603,40.0
0.37239325,40.0
0.48552215,40.0
0.3872354,40.0
0.2877306,40.0
0.29249406,40.0
0.30326748,40.0
0.25748923,40.44102
0.2931297,42.431168
0.2942554,47.974163
0.26028904,50.851013
0.31674865,53.567146
0.52316767,57.422523
0.4648463,59.86239
0.64425784,66.21315
0.7138826,66.910385
0.7862119,74.094025
1.0009365,82.53104
1.1318339,84.98095
1.0008006,90.94852
1.2179188,99.22738
1.3217435,100.212135
1.4365296,106.29295
1.3534442,114.80669
1.518994,120.25146
1.5853312,120.16492
1.6446221,124.96891
1.6592333,129.47884
1.7623227,135.02815
1.7539573,133.12424
1.8221208,142.10875
1.9074407,142.87784
1.9692128,145.80621
1.7825698,145.28406
1.6837125,146.05605
1.7918435,145.48933
1.6870537,150.13196
1.7426802,146.66919
1.7121743,146.75865
1.7198583,140.2127
1.7398179,142.43752
1.6405848,142.77136
1.6974417,138.78232
1.5737816,136.76266
1.5969237,137.18527
1.4819912,130.96132
1.4586118,129.38579
1.4453863,124.61698
1.5110486,121.226494
1.3762789,119.99585
1.4259816,117.59943
1.3496622,118.18652
1.326825,107.16985
1.3567808,103.24048
1.2652943,104.74253
1.3469177,107.124626
1.4024785,98.29068
1.2923281,91.78388
1.2162553,92.694725
1.2070593,94.51047
1.2131556,84.73836
1.1483142,86.03361
1.1402787,80.12313
0.9820245,77.59423
1.0165682,79.71107
1.0609053,71.524
0.9425419,70.05924
0.9518759,64.15642
0.9217934,64.56897
0.89329064,63.438786
0.9259714,55.995678
0.8609288,55.63026
0.885008,50.96057
0.90309054,51.79578
0.8110941,45.65642
0.98103994,47.70381
0.86637664,45.2419
0.8508447,40.12842
0.82699054,40.0
0.77802837,40.505024
0.7250315,40.0
0.68116206,40.0
0.54182816,40.0
0.6528861,40.0
0.5899169,40.0
0.5614281,40.0
0.4508847,40.0
0.52151024,40.0
0.6064779,40.991356
0.47174504,46.315002
0.5396882,51.247158
0.68797475,51.89947
0.70138806,52.687313
0.59364694,59.234535
0.75720865,65.363525
0.9259084,67.911835
0.95987177,72.65208
1.2315638,79.736534
1.1932433,85.03487
1.2585751,89.04227
1.4759164,93.778465
1.4889927,98.84845
1.6994946,108.64562
1.6494029,115.17764
1.7502979,117.52457
1.8033378,123.795166
1.7930896,124.57908
1.8390245,131.14401
1.78133,132.55507
1.910333,136.0261
1.9285744,139.47238
1.8883947,138.96332
1.9543009,144.1584
1.9155065,146.23798
1.999848,143.6916
1.988683,144.7316
2.0490055,146.34827
1.9713719,145.49524
1.8979473,143.0653
1.8275564,139.59131
1.697255,139.89832
1.8592448,141.59662
1.6806911,138.10075
1.6404257,135.77449
1.7173815,133.41327
1.6094688,132.2643
1.6616257,126.17622
1.584485,126.260254
1.5719566,120.680275
1.5707583,117.115685
1.4474462,113.76656
1.542103,111.4245
1.4218951,111.66286
1.4860243,106.5661
1.4184066,107.56785
1.5086623,102.377945
1.4160635,98.05145
1.3781018,95.24848
1.294925,91.88128
1.3269445,89.59633
1.2411225,87.83466
1.2304448,86.770775
1.3340714,79.90846
1.1641166,80.98313
1.1375008,72.84781
1.1798409,73.39719
0.92803997,69.2517
0.9853675,65.89235
0.89072686,61.835415
0.8672997,62.334137
0.94596076,58.61883
0.8627853,54.051197
0.8114001,54.028946
0.82417226,47.344063
0.88735,45.798615
0.96716493,44.220337
0.8563548,40.406475
0.96660703,43.69546
0.90044135,40.0
0.8839389,40.0
0.8910695,40.0
0.73568946,40.0
0.7057861,40.0
0.69170505,41.622253
0.65762746,40.0
0.62918156,40.09237
0.6089647,40.0
0.5300455,40.428665
0.4856068,46.033234
0.5419046,49.400356
0.5075487,53.05345
0.528807,56.65735
0.66680527,56.542736
0.7714337,63.512535
0.81787366,67.28526
0.9639491,74.0384
1.0864147,77.978134
1.2067804,82.41663
1.2596077,91.435974
1.267836,94.56735
1.4506183,98.0716
1.4790051,102.746796
1.6558499,104.46958
1.7102563,116.03323
1.904362,119.21059
1.7996415,119.08966
1.9341785,130.0338
1.8260115,130.09196
1.8576888,133.66945
1.8604721,136.74725
1.9275328,136.33939
1.9033816,139.9093
1.7685437,140.28673
1.9289442,143.76485
1.9172901,144.9744
1.8555071,145.43095
1.7432246,149.4052
1.785634,145.48706
1.7211435,146.99687
1.6360129,143.70177
1.7752824,140.60852
1.5684069,143.20616
1.6269377,138.90765
1.5595244,134.04787
1.6337029,133.57782
1.4901804,128.58224
1.4711248,128.82
1.3928996,120.53925
1.415196,122.65578
1.384968,118.84156
1.4526988,115.04444
1.313664,114.10807
1.3483458,108.789215
1.366501,108.1449
1.2578357,105.25425
1.2432036,100.010284
1.3671755,96.25538
1.1582081,93.68728
1.2031889,95.28697
1.1093018,93.17165
1.1132504,84.2231
1.0868189,83.49692
0.9654586,79.050026
0.9387697,76.69465
0.9123257,74.38701
0.8890692,72.66453
0.76193845,68.04536
0.786627,64.5208
0.6864052,63.43911
0.6874358,57.535625
0.69340575,55.543373
0.87147063,54.49477
0.77574956,53.678474
0.70980996,47.54794
0.624246,44.041405
0.68244505,42.895687
0.7321623,42.739742
0.6522857,46.469494
0.64344347,40.0
0.6315538,40.0
0.5474972,40.0
0.4738989,40.0
0.42449948,40.0
0.41559446,40.0
0.3768147,40.0
0.2955163,40.0
0.3446687,42.009438
0.33269915,43.71638
0.32110754,47.15858
0.31534907,49.035004
0.29987642,49.38657
0.42821762,58.41747
0.42410615,58.960827
0.49910936,66.18308
0.65907884,66.51617
0.6845222,72.2527
0.8117838,80.696014
0.8584706,84.77014
1.0187188,89.52983
1.157467,94.06738
1.1217121,104.32056
1.2910993,101.085434
1.2861183,112.30252
1.4372997,113.23004
1.4776721,115.84079
1.4471029,127.18137
1.52605,129.6516
1.6007344,135.03249
1.5647856,136.48141
1.5552931,137.19403
1.5358217,141.53503
1.6359053,141.9712
1.5892093,146.0004
1.5297104,144.17848
1.5971415,150.1676
1.6055658,146.14836
1.4943669,140.93753
1.4947718,147.84203
1.4230019,147.55661
1.3628957,142.35735
1.4373075,141.58353
1.3511943,139.5131
1.3185852,136.79776
1.29306,133.85931
1.1247243,129.61388
1.2025517,131.21481
1.1687887,129.43713
1.1320835,124.15328
1.092422,119.556946
1.1002733,117.757454
1.1463069,110.05221
1.1012064,113.39144
1.0774157,109.99978
1.024498,107.143906
0.9708513,106.43138
1.0004892,103.79626
0.9795013,99.11852
0.95072687,93.7411
0.9198964,97.65646
0.8514287,87.66032
0.8370805,82.86128
0.78305644,82.17523
0.713736,84.585464
0.70049906,76.86187
0.626919,74.007744
0.5664735,71.455505
0.53239936,69.6317
0.47203028,65.86988
0.4475421,59.514214
0.36658886,61.25979
0.38160226,55.82159
0.53051674,54.624
0.39643404,49.441475
0.43144792,48.153088
0.4261073,43.186943
0.41990778,42.402817
0.36167866,44.04115
0.43478692,40.0
0.37631217,40.0
0.32301348,40.0
0.2113967,40.0
0.35776713,40.0
0.23301606,40.0
0.14154467,40.0
0.14981374,40.0
-0.047912948,42.215492
-0.032991484,40.249645
0.1443664,44.39594
0.057339657,44.876793
0.0071579586,52.723198
0.08145159,55.327377
0.16814373,54.520485
0.16257243,61.192047
0.29765168,66.41364
0.3476414,69.11006
0.54756004,74.83387
0.62416893,84.24636
0.7404737,87.46908
0.74661696,90.259674
0.90802765,96.48404
1.0014699,101.08858
1.143267,107.03127
1.0417674,112.184
1.1385362,117.189186
1.1169456,122.370674
1.2470614,124.72151
1.2145741,131.97238
1.2773209,131.9813
1.403484,140.97061
1.4110258,136.88756
1.3195935,142.38332
1.343788,141.78995
1.4550108,144.95569
1.4536475,148.71822
1.3263301,146.70035
1.3945775,146.99084
1.4149766,147.93237
1.2818758,145.4954
1.22798,140.969
1.314365,142.69461
1.1636072,142.94713
1.1810266,139.79662
1.0065439,137.63983
1.1875885,131.31088
0.9926063,133.88849
0.9722425,128.60307
1.0063928,125.910545
1.0557415,125.010826
0.9621428,122.26701
0.9086681,121.31834
0.9271112,112.80346
0.88930875,111.52868
0.877238,105.18707
0.8770966,105.08963
0.8581806,104.158165
0.72008985,97.16479
0.77410525,95.75166
0.771036,94.14104
0.7631969,91.81825
0.71006274,87.92672
0.6900276,83.29025
0.5845569,82.63006
0.5656415,80.29416
0.5447369,78.35082
0.48034376,75.64865
0.469625,71.28064
0.3896557,71.27651
0.37801436,63.690365
0.371008,63.382603
0.1924306,60.213608
0.36740202,55.235725
0.348794,53.99567
0.28742984,48.522194
0.4374912,45.98113
0.399003,45.408875
0.25288808,45.57903
0.34151393,40.27398
0.30847943,40.015423
0.23655812,40.0
0.16576818,40.0
0.16862102,40.0
0.13940963,40.0
0.03013146,40.0
0.0909093,40.0
0.03980636,40.0
0.090928,40.0
0.014906661,41.659622
0.020150227,45.14907
0.05385526,49.24875
0.008314081,48.912632
-0.008204238,51.916306
0.0018933978,59.3618
0.14372207,60.78734
0.1862594,68.445465
0.4288091,69.06968
0.5372425,77.54811
0.65224975,81.91867
0.59912163,89.65248
0.7541224,93.85948
0.9934505,93.0103
0.98954284,103.17874
0.9904437,107.297035
1.3016479,114.49321
1.2550535,117.2266
1.2992975,125.82947
1.3187693,125.58757
1.4169972,128.62918
1.3054906,134.63542
1.4326525,131.48706
1.3644608,136.9785
1.4815418,142.5252
1.4729708,143.45222
1.4006176,147.85866
1.4566449,142.55193
1.4354582,146.45126
1.4562467,145.82564
1.5370945,145.62044
1.3799424,144.68561
1.2464451,144.44452
1.2751708,142.4514
1.3061147,143.39398
1.2382635,136.96948
1.1993133,139.06007
1.1813726,132.90302
1.154522,133.66473
1.1098826,125.72289
1.1358843,122.5648
1.0429769,124.9355
1.0803695,118.66477
1.0143125,114.977066
1.0043894,112.84035
1.0517175,111.23296
0.9768526,109.40222
0.91084814,104.812805
0.86353016,99.02408
0.92468786,98.242226
0.93821794,100.03892
0.8650547,93.424545
0.76537853,89.301155
0.8732528,90.450424
0.8874803,87.51702
0.6655874,79.031746
0.76422286,80.67293
0.7212633,74.49049
0.681579,73.81288
0.5816164,68.31987
0.65844375,70.344185
0.51223737,61.163486
0.43437535,59.77513
0.59236085,59.36457
0.5090354,53.446022
0.5005721,51.60119
0.4967777,51.175457
0.4517141,47.332977
0.4639923,45.980465
0.5381669,41.990707
0.5600293,42.71413
0.5403329,40.0
0.43145698,40.0
0.42236713,40.0
0.32463568,40.0
0.31909642,40.0
0.28233078,40.0
0.2293558,40.0
0.18387893,40.0
0.21267296,40.736973
0.13671508,44.56699
0.1882784,45.118137
0.26169705,49.617043
0.26741287,49.635616
0.1960934,52.5848
0.27462056,58.295284
0.375528,62.205708
0.5266183,63.738407
0.5339448,67.812645
0.74070716,74.63819
0.84151644,84.57748
0.95945346,87.85019
1.0503322,93.69858
1.1587846,99.07715
1.2454176,101.27065
1.3957739,107.50515
1.4753462,118.07511
1.4834421,118.65698
1.5421163,120.85286
1.5150154,128.59895
1.5246228,129.669
1.6578407,136.1975
1.7143157,132.37553
1.6444268,138.31363
1.6989695,140.99495
1.7162825,144.50461
1.6493021,143.05275
1.7537631,144.13335
1.617182,143.3948
1.5990613,146.57893
1.5549732,141.1245
1.5059941,147.63878
1.5893865,143.0558
1.6359937,139.19762
1.5769371,139.73428
1.4710276,135.36575
1.446102,138.78629
1.4415953,132.41331
1.3912107,129.34914
1.4569235,130.97797
1.3872832,124.84847
1.3848538,121.67569
1.3507428,119.34268
1.3323063,117.292625
1.2521273,110.33918
1.2308909,109.22605
1.1889366,106.31149
1.168069,102.33649
1.3333814,102.07409
1.2906314,100.30445
1.2298341,95.87442
1.1776505,91.25987
1.0764068,88.22175
1.0790648,88.33678
0.99684864,80.00884
0.9347178,86.33169
0.99016565,77.36951
1.0367321,78.67571
0.78702384,75.28165
0.961459,72.46286
0.7984401,62.38098
0.8291799,64.46258
0.7375627,62.399433
0.7973297,58.649612
0.7827849,57.319942
0.77763045,55.55943
0.7840996,48.691254
0.8134891,48.817245
0.7514309,40.76334
0.80095845,43.709362
0.74519914,41.521217
0.7719098,41.80012
0.7598775,40.0
0.7127198,40.0
0.6087076,40.0
0.6164391,40.0
0.49710992,40.0
0.5293045,40.0
0.42693084,40.0
0.45712093,41.49037
0.43261382,40.0
0.42963076,41.221428
0.48525262,48.512928
0.532873,50.596725
0.51808614,57.92229
0.5352119,58.058407
0.74545854,62.615765
0.8347471,68.55387
0.94171345,74.3185
1.0251236,79.38282
1.0834365,87.3306
1.2915395,84.63346
1.3819467,96.67998
1.351154,97.38571
1.521004,103.0122
1.6549966,104.61393
1.7719712,112.97361
1.7973852,119.53833
1.784037,123.25584
1.8178046,127.30605
1.8912765,130.5045
1.9239999,135.23863
1.934334,137.10869
1.9202253,138.63864
1.8953066,140.59955
1.9806563,147.69595
1.8717086,142.48961
1.9524264,146.68295
1.8730057,147.86713
1.8317121,145.51959
1.8151312,144.73132
1.8869189,142.06973
1.806707,142.35252
1.7789701,141.58525
1.8578365,138.0896
1.6725457,139.51176
1.6635056,136.14146
1.5984046,133.44878
1.6495758,134.07188
1.5582036,127.16325
1.6232014,124.64972
1.5670104,120.24759
1.580544,118.54186
1.5647659,116.53259
1.4835297,112.16779
1.5386422,109.66633
1.490267,106.91932
1.4750218,102.97194
1.4076943,99.56507
1.2882934,98.479095
1.4371659,97.15554
1.421473,90.14523
1.3861651,88.623436
1.254725,87.96153
1.1611218,82.15735
1.2497748,78.71087
1.1286443,76.36717
1.0051425,73.878204
1.0532346,68.68559
1.0055887,72.401375
1.0176501,66.98532
0.9504907,63.067074
0.9993532,58.585873
0.9425594,57.156418
0.9238469,55.968765
0.8435493,50.81096
0.86225957,51.232407
0.9504917,49.768456
0.8631264,46.042217
0.9023513,42.520992
0.8680301,41.154015
0.853031,41.70255
0.82383543,40.0
0.84738326,40.0
0.81346124,40.0
0.6719807,40.0
0.5782792,40.0
0.6080475,40.646286
0.5492121,41.62499
0.54868776,42.058678
0.65499693,40.0
0.54800093,46.931507
0.5676212,48.759563
0.6183372,52.270805
0.6528323,54.62735
0.71448106,62.7292
0.70786864,66.06773
0.9446189,67.943306
0.9702286,73.784904
1.0325747,78.202736
1.1978391,85.15637
1.3529185,88.265915
1.3789911,96.1027
1.4967096,99.24069
1.6629956,106.31177
1.6675224,108.7267
1.7117615,117.21921
1.7459205,121.556366
1.7809786,126.10684
1.7997365,132.53815
1.9229302,129.45842
1.878478,133.0589
2.0194595,136.11037
1.9658968,139.17744
1.9517637,138.36183
2.0892663,142.44951
1.912464,146.75354
1.940048,144.7807
1.8617355,145.18184
1.8009417,147.60892
1.8910089,142.6878
1.8589298,146.62575
1.70543,144.01308
1.7465502,138.99449
1.702246,141.0166
1.6104103,136.37491
1.60172,133.67996
1.5938663,128.31718
1.5498697,128.41135
1.5975264,121.90617
1.4765531,125.05608
1.4596717,122.27141
1.3991355,114.37804
1.437575,117.477234
1.3868513,113.817764
1.3523928,106.52279
1.2370608,105.47186
1.3259444,101.399315
1.3426459,102.63193
1.2801622,94.84837
1.3635643,99.07577
1.1791881,91.28597
1.308443,86.66882
1.1644598,81.78615
1.1103997,84.68717
1.1807294,75.474625
0.9789737,72.26589
0.9014511,74.05177
0.85183144,73.92881
1.0356923,70.99967
0.8624368,64.628685
0.7332121,60.492645
0.7663859,59.80137
0.7469779,57.81029
0.77832663,51.69007
0.7902346,48.662968
0.7696259,45.129913
0.68355286,47.3147
0.7453624,45.237812
0.6111048,40.0
0.62723124,40.0
0.7193084,40.869137
0.66201395,40.0
0.53085726,40.0
0.54693097,40.0
0.44384703,40.0
0.48710757,40.0
0.4199929,40.0
0.38290963,40.0
0.36035806,40.0
0.321936,42.349648
0.38813293,49.557476
0.31299672,50.39561
0.29143092,52.807243
0.5505988,56.717068
0.54735076,62.94
0.6980899,66.53336
0.8061091,68.55231
0.72632474,70.77177
1.0060359,84.114876
1.043765,87.09766
1.1375006,90.27518
1.2629793,96.58154
1.3024482,104.30722
1.3864514,111.09462
1.4400268,111.672226
1.5218446,117.6708
1.5891052,118.4509
1.6235317,123.61876
1.600512,127.67613
1.6047572,134.19827
1.6502426,137.13379
1.7138454,133.60803
1.6729745,140.55713
1.6252351,141.10936
1.6513993,144.50453
1.5312783,147.87465
1.5599128,145.65527
1.5947447,147.80382
1.529483,146.82257
1.5184963,140.38411
1.501699,141.96832
1.6186211,139.87816
1.4307964,138.68135
1.4714658,135.46306
1.3618474,134.55719
1.3981133,133.50766
1.2660311,129.5507
1.3188858,132.35834
1.2184327,125.66038
1.2643784,122.6643
1.1445612,119.31986
1.0549424,116.79978
1.1935282,115.31445
1.1118561,110.09136
1.1060746,107.59446
1.0653001,102.01506
1.0541817,101.96994
0.95822823,101.78508
1.0099323,95.03146
0.9951563,92.26779
0.96193486,87.44932
0.9023284,89.06961
0.90876067,87.0906
0.79838234,82.16985
0.8257071,75.99824
0.61600965,80.31101
0.69636035,77.29737
0.686854,71.830475
0.5545803,65.94529
0.5109886,64.16671
0.53466487,57.672966
0.48339215,60.942448
0.5162697,53.079445
0.38396326,52.92257
0.4299585,47.819836
0.5316863,47.15902
0.43384528,46.251896
0.44067094,43.036774
0.41161498,40.0
0.48166603,40.0
0.41214257,40.0
0.40120664,40.0
0.23276375,40.18658
0.2791463,40.0
0.28610808,40.0
0.19549476,40.991055
0.103473805,40.0
0.06845932,40.0
0.07899295,43.325893
0.097749546,44.25894
0.10246796,50.16463
0.1404685,49.465115
0.079037294,53.235847
0.19516607,60.395077
0.34454256,63.20065
0.27491638,65.371284
0.5140482,70.12101
0.54673874,78.19119
0.65438503,79.87044
0.77938616,87.34972
0.8175651,86.798584
0.9521545,98.22569
1.0405184,104.88737
1.1458733,109.378136
1.2485924,109.486534
1.2036576,113.665146
1.3573482,121.41718
1.2693427,126.461136
1.3416616,131.62166
1.3711369,129.94966
1.3587903,136.02058
1.3228302,137.11418
1.4617517,140.13713
1.4973879,143.68575
1.4001817,142.84676
1.477545,145.34113
1.391201,148.90674
1.3585076,146.98438
1.3886858,146.1649
1.3836312,144.48265
1.1669319,142.30525
1.2425876,141.50694
1.2789198,137.65817
1.0893563,138.6195
1.1640687,135.30763
1.0519999,129.82956
1.1037164,131.57018
0.9858939,127.57194
0.9262306,123.0352
1.0045965,125.05009
0.99650687,122.25374
0.94725394,117.242455
0.9576839,112.86046
0.95387465,108.08696
0.80981004,107.441475
0.91113937,104.695114
0.925465,100.134995
0.84759176,99.05677
0.7956743,98.249954
0.82311106,93.288155
0.7636509,91.399185
0.64115936,84.54426
0.68369746,88.5965
0.5393745,82.42538
0.53487724,77.41849
0.41864556,76.52972
0.35298392,74.13716
0.4194355,69.840355
0.41906324,67.08571
0.3292821,61.7366
0.43724895,60.08114
0.33589828,59.100605
0.31854537,55.496098
0.35995662,51.16733
0.31961003,50.90825
0.441192,44.622173
0.35886148,45.901184
0.29772025,44.30633
0.37333027,40.0
0.32454994,40.0
0.19579445,40.0
0.2212464,40.0
0.13665271,40.0
0.05533397,40.0
0.03614629,40.0
-0.0035484275,40.0
0.0050633354,40.0
-0.098849535,40.692577
-0.007982212,41.620354
0.06341942,43.04003
-0.02870099,49.252747
-0.03319465,50.082943
0.026535532,51.96887
0.10843772,57.07038
0.18598397,62.503475
0.31560737,66.89538
0.34581518,69.22252
0.54442716,82.19494
0.6382975,82.178154
0.703236,88.361916
0.7645448,94.03386
0.8913389,100.00477
0.99715555,105.416374
0.99695104,106.77834
1.2109897,115.71599
1.2353992,117.32051
1.2749053,121.283516
1.3547294,125.1085
1.2747846,131.75409
1.3796974,133.96368
1.2968793,131.91129
1.4208566,139.77208
1.4827573,141.36093
1.3424952,141.87965
1.2569112,142.55397
1.3639824,146.62337
1.3754989,146.99484
1.3086251,145.452
1.306905,144.42787
1.3880421,144.48732
1.2692198,142.50847
1.2055783,141.61703
1.2070433,136.81007
1.1171515,139.26802
1.2055825,136.04855
1.1100744,135.19925
1.1427196,131.8614
1.0153071,124.69921
1.134526,126.15142
0.9590963,120.73517
1.0877922,122.86477
1.1019707,115.72149
0.9041811,111.707504
0.95578843,110.343506
0.9466591,106.32463
0.83220017,105.69577
0.9302564,98.5215
0.9649591,98.34044
0.91473573,95.85168
0.8470484,95.78409
0.8651651,87.67054
0.6799246,88.98721
0.84512246,86.1768
0.5995293,81.874275
0.67216885,78.75996
0.46436432,75.34013
0.5365991,74.741554
0.49997061,71.646065
0.44538012,64.59696
0.44177267,60.165226
0.45908538,56.817005
0.46161225,55.00653
0.51842815,51.991154
0.41422242,52.817307
0.43199426,48.78713
0.4531203,47.698853
0.4185227,43.108765
0.5235942,40.412334
0.36605215,40.734116
0.3108626,40.1681
0.46579137,40.0
0.3234639,40.0
0.22083265,40.0
0.31673032,40.0
0.21564764,40.0
0.21227312,40.0
0.17691682,40.0
0.15369016,40.0
0.17373879,42.968243
0.16553299,43.51154
0.110048294,47.587578
0.18959126,52.871185
0.23159596,56.36107
0.2982058,60.144466
0.41025367,62.6462
0.4016116,66.98778
0.6488111,74.356674
0.68650633,77.81834
0.7508627,83.03259
0.89266855,86.352776
0.9381269,93.86134
1.1487213,98.137184
1.2369232,106.87613
1.2747167,110.721375
1.3550093,115.21258
1.4662907,119.2931
1.467702,122.98309
1.5735638,130.69583
1.5716466,128.86298
1.5333207,138.62823
1.6419833,136.96313
1.5512495,141.79341
1.5209292,142.07259
1.7170515,142.17769
1.5610968,143.88223
1.6114973,145.2434
1.617412,145.38237
1.5914717,145.93225
1.6528442,144.90553
1.589609,139.68391
1.4331374,143.17323
1.4985459,141.16992
1.4563637,141.20854
1.359113,137.7452
1.4185877,129.95921
1.3996174,134.5719
1.353762,130.45218
1.2563069,126.89411
1.3713902,122.209625
1.2781421,119.618355
1.3201953,120.64777
1.2903084,113.30147
1.1484413,116.361275
1.2352467,112.04784
1.3252077,110.31209
1.1444074,103.13187
1.2262224,100.02776
1.128509,99.52098
1.1032113,96.8858
1.0577958,92.04034
1.0799432,89.39803
1.0170878,82.94237
1.0191151,82.30713
0.9635775,85.045456
0.869124,75.72547
0.8864531,74.7752
0.7910984,68.283295
0.7069494,70.30142
0.774387,66.9531
0.76613235,63.566864
0.7481344,61.662003
0.6047741,59.279594
0.778325,54.53603
0.6735623,48.213757
0.79115164,49.304047
0.7254433,45.75256
0.75218976,45.73317
0.6436614,41.912254
0.7763019,41.34043
0.65106004,42.54883
0.6795011,40.0
0.7180435,40.0
0.53932726,40.0
0.5494607,40.0
0.45535836,40.0
0.53043675,40.0
0.47293133,40.0
0.38684216,40.0
0.46969774,44.73253
0.4476585,42.461132
0.4349939,48.954365
0.53353024,50.812523
0.6452874,54.784317
0.5464577,56.374077
0.5881458,66.49411
0.7625669,69.02917
0.912181,75.822136
1.0336344,83.95958
1.0352219,87.67472
1.1381193,89.80985
1.256974,95.06688
1.3883345,101.69255
1.5437176,102.92223
1.5660236,111.0852
1.6650093,119.03495
1.6791891,120.035286
1.6947335,122.009224
1.8444521,129.17694
1.8947465,134.75111
1.8571961,136.62749
1.9392332,140.35522
1.8079052,143.13945
1.9422711,143.6337
1.8412453,142.99835
1.8824915,147.74873
1.7937013,146.8275
1.8906225,146.86394
1.9066563,145.69173
1.8736762,141.90158
1.7008699,140.87463
1.7774205,141.55267
1.6776955,142.30186
1.6548033,138.81552
1.5742995,131.98746
1.6370528,136.06886
1.4930993,135.06573
1.5974534,127.44436
1.5696999,124.47594
1.563379,122.49242
1.5077595,119.88274
1.5290433,116.10531
1.4175582,113.50457
1.3628544,111.28067
1.4535818,108.45547
1.4104475,99.912346
1.5238659,105.25584
1.5019408,96.39376
1.4367142,95.79949
1.2966454,92.6965
1.3461932,91.26026
1.3360934,90.07728
1.2036409,83.34477
1.109486,84.43569
1.2376255,80.95914
1.0989574,76.40855
1.0566455,73.05115
1.0051922,69.9548
0.96800977,68.03699
0.999117,62.53516
0.8688055,60.16734
0.8749964,59.91854
0.968115,55.46496
0.9223058,54.46668
0.9396464,50.742535
1.0920749,48.36369
0.85085416,45.37873
0.8120976,44.660225
0.836143,42.157978
0.84884393,40.0
0.82052225,40.0
0.7966635,40.0
0.68220013,40.0
0.73289007,40.0
0.75114465,40.0
0.69356906,40.0
0.52617943,40.0
0.63746303,40.054295
0.5295249,41.476986
0.5701054,42.346317
0.47103179,45.61336
0.58434856,46.024868
0.55912143,51.287853
0.6582841,50.65492
0.78998405,60.84777
0.8087167,67.14068
0.9221091,71.01848
1.076342,73.23528
1.1150014,84.30761
1.3645842,85.27061
1.3259203,92.34362
1.4728577,96.595215
1.5821664,100.66568
1.59885,105.95861
1.7244253,114.45961
1.6918645,120.65761
1.7879927,122.63336
1.8840995,126.47055
1.882802,129.7793
2.065106,133.00089
1.8738967,132.521
1.8829591,136.63217
1.9204015,142.38223
1.912007,142.57428
2.0333521,141.60556
1.8419819,143.3703
1.9026989,144.82098
1.9077333,144.98293
1.8396394,144.01054
1.8562565,142.30284
1.866009,144.50166
1.7377456,144.31996
1.7315191,141.76959
1.7107772,140.633
1.5563664,136.73125
1.6399266,131.76138
1.6625745,131.26793
1.6144595,126.67288
1.6520659,126.619415
1.5715547,123.73835
1.5986294,123.45307
1.3892136,116.27687
1.5240158,114.736786
1.4387734,110.26133
1.3809687,109.567474
1.4186022,108.57923
1.5035326,102.197044
1.2632909,97.88076
1.357112,97.040405
1.3632573,93.91909
1.3114023,90.013565
1.2271891,85.53638
1.2257458,87.23292
1.1358764,85.85827
1.1866904,77.9613
1.1710355,75.84089
1.0763985,74.46847
0.9298244,67.14453
0.9650137,68.605286
0.9538347,64.81463
0.86314166,62.838562
0.8346171,58.661358
0.83932716,57.31306
0.95988715,52.885754
0.8563047,51.31256
0.88800806,47.810333
0.8241062,46.493725
0.8318685,44.470963
0.8924797,47.28808
0.780563,40.0
0.71646166,40.0
0.68818253,40.0
0.6936799,40.0
0.59620684,40.0
0.52089506,40.0
0.5071428,40.0
0.46004915,40.0
0.44849157,40.16014
0.48417103,40.0
0.4519481,44.614986
0.53113514,46.491863
0.43641996,49.02797
0.4200666,57.651283
0.5705663,55.14029
0.48993176,60.12085
0.75390065,66.71376
0.8404883,68.475975
0.90439594,75.27604
0.96986985,79.92387
1.0326192,87.73669
1.1389159,89.8806
1.2835459,95.83543
1.3831625,99.530136
1.5561984,108.41363
1.5316828,111.40425
1.6073456,118.88534
1.5451944,119.02798
1.7310776,126.35169
1.778852,134.33026
1.6956079,127.737404
1.7449082,135.31062
1.7789373,138.59242
1.7157446,145.12386
1.7461143,142.06517
1.7415886,143.88446
1.7384996,144.8704
1.6141044,143.66594
1.6996217,147.96269
1.718796,145.68425
1.6200964,142.30066
1.5678424,145.16957
1.7026143,142.23622
1.5732864,137.62885
1.3710239,138.25194
1.44574,137.6011
1.4024198,133.80907
1.4709021,129.33199
1.4243683,132.35689
1.3054419,121.42052
1.2654166,122.861046
1.2327511,120.60419
1.2125481,115.74864
1.16453,117.06789
1.2608601,110.20907
1.3049475,107.72369
1.1720675,105.933525
1.1047636,102.885605
1.105994,98.52711
1.130826,94.33487
1.0750281,88.433464
0.88794965,90.48116
1.0241609,91.02426
0.993332,82.63775
0.85062003,78.46274
0.6853726,77.73647
0.7159961,70.96166
0.7314258,72.56968
0.77362305,68.08614
0.6303411,61.9435
0.7123129,66.01665
0.7710214,61.22222
0.57035834,59.20885
0.5789909,54.64168
0.53066784,50.841225
0.5423105,49.98709
0.5419051,50.46257
0.5253817,43.13086
0.5227962,42.073647
0.50906104,40.0
0.512924,40.0
0.5665675,40.0
0.32887554,40.0
0.4699635,40.0
0.2805898,40.0
0.2185106,40.0
0.18151058,40.0
0.26406646,40.0
0.121261,40.0
0.15823331,40.645004
0.15886556,45.00975
0.11381845,49.225025
0.12354812,53.574436
0.22656783,50.510376
0.32870626,60.00457
0.40822113,66.45741
0.47187322,70.0967
0.6620018,69.432076
0.69074744,76.87984
0.76280385,82.41867
0.839518,92.202545
0.98019737,92.46485
1.0390637,98.52773
1.1000087,102.20791
1.2009938,108.55635
1.2536278,112.01956
1.3747164,119.85816
1.3801793,124.46378
1.2997539,129.08487
1.4296832,130.05788
1.4996535,133.50769
1.4545251,140.74313
1.4881325,141.13101
1.3979359,140.07536
1.3592415,144.79897
1.367201,143.51689
1.5074536,145.19264
1.4302486,148.08693
1.4268854,144.26921
1.4010122,144.09203
1.3068283,142.00267
1.3060275,145.05934
1.322461,142.33711
1.2338969,137.82164
1.254131,136.14804
1.224294,135.12915
1.1673783,130.46349
1.1944737,130.14195
1.1091963,123.8757
1.049343,126.83694
0.90905994,121.60456
0.9554302,115.71876
0.9948187,115.96519
0.9258744,114.16088
0.86110663,106.272095
0.9852007,109.05549
0.8957437,104.57757
0.80518043,101.847984
0.89238095,99.10392
0.8420557,97.220345
0.8096971,92.61327
0.79460067,88.57461
0.7374099,86.706215
0.69141626,80.32987
0.5475386,82.49925
0.49750772,75.298134
0.4665173,74.05386
0.4780453,68.99749
0.42446887,69.73729
0.39253625,65.04527
0.33066306,63.894413
0.41063556,59.92194
0.34622696,55.625534
0.34163314,52.15779
0.36036238,52.658882
0.2960987,45.169937
0.27166662,48.804657
0.35386157,45.95358
0.29332724,44.8709
0.43168098,40.0
0.26972362,40.0
0.31202713,40.0
0.18261373,40.0
0.18040286,40.0
0.11124332,40.0
0.013282671,40.0
0.1219273,40.0
0.0073053427,40.0
-0.13525286,40.0
-0.060685977,42.72876
-0.07040318,47.571312
0.0070533096,48.9952
0.09341192,53.934425
0.07214958,55.58254
0.07179526,59.547264
0.18289779,64.432884
0.3559825,69.6853
0.5347897,74.65387
0.49971277,77.59618
0.5988114,81.96787
0.6382289,86.65345
0.8514032,92.57805
0.95836633,101.90315
0.9564302,104.15454
1.0867265,111.27276
1.1454968,113.285324
1.1016521,120.678635
1.2221034,124.59923
1.3238722,129.30995
1.3069621,129.08441
1.3195189,133.50656
1.3779223,138.13512
1.3876928,138.83919
1.2401998,139.19727
1.3099676,144.15265
1.2721509,146.21033
1.4154695,140.55893
1.2797846,146.18954
1.3790182,145.64075
1.3040793,146.45282
1.2141279,143.84393
1.2039051,139.23094
1.211039,140.10611
1.2714846,138.51465
1.1211362,138.24307
1.1515654,132.45984
1.0500832,131.54337
1.0276685,129.59056
1.0471368,126.82934
0.97127634,127.442184
0.9499751,122.46985
0.93346924,116.88264
0.95228964,115.100784
0.9124674,114.33657
0.93742853,110.282974
0.89821404,106.72968
0.9413647,106.24721
0.85590106,99.37809
0.8626809,99.979645
0.8213533,96.03022
0.72558945,92.1178
0.7297235,87.44138
0.6729175,85.85015
0.70898813,81.458694
0.56558645,83.17083
0.49861756,80.27433
0.5198177,77.653076
0.49537283,71.352005
0.35887563,68.68011
0.30811435,67.2067
0.4452657,63.766502
0.37179437,62.571617
0.3791456,57.17912
0.43049955,52.837364
0.4246707,55.38114
0.33942813,48.04402
0.42430085,49.446545
0.310258,42.732063
0.3033698,40.0
0.35507497,40.0
0.35319752,40.0
0.329048,40.0
0.29011062,40.0
0.19591138,40.0
0.23945448,40.0
0.06841281,40.0
0.17394075,40.0
0.0034590103,41.43127
0.060126837,40.0
-0.0006001257,44.18073
0.19846867,49.133797
0.06253518,45.612
0.03956102,52.097256
0.08242847,56.60502
0.2492837,57.00251
0.341303,61.86329
0.42482203,69.481384
0.6230614,73.14083
0.7008058,80.737564
0.79269505,87.57848
0.8875292,93.17669
0.9802551,95.89948
1.0189766,100.426765
1.1717767,104.22825
1.2474618,111.266426
1.3609843,118.98394
1.314039,119.77737
1.417659,123.422905
1.4895163,133.95723
1.5665746,132.55673
1.5512817,135.29694
1.5615232,139.54172
1.5766622,142.7805
1.5097744,139.02531
1.633696,141.66069
1.5960772,139.08275
1.5892949,146.17314
1.3859911,148.32683
1.4911101,148.64807
1.4413455,140.65535
1.4976679,146.21875
1.4548506,139.71011
1.3435327,142.09433
1.4066373,138.72948
1.2549582,137.10524
1.2532524,131.80817
1.2586207,131.76791
1.2453939,129.49384
1.2469776,125.70086
1.2704003,126.49476
1.2243114,120.44588
1.2372999,113.77883
1.0441252,115.78804
1.1520492,110.827225
1.1706303,109.160416
1.0459431,109.215065
1.1438955,104.02621
1.0889031,99.28871
1.0801647,97.6293
1.1641735,92.738754
0.9982389,92.01214
0.88633054,85.25899
0.9729203,87.03723
0.93650377,87.107254
0.8373943,78.580826
0.6703525,75.6941
0.82401896,76.19277
0.70425904,72.88019
0.7647507,67.00277
0.67045313,63.115646
0.6581214,60.113354
0.60719514,59.34881
0.70055103,57.512352
0.5968414,52.46846
0.66319114,48.898026
0.6299276,49.00453
0.70105976,45.064465
0.60503674,43.399582
0.66686875,40.0
0.5834567,42.424934
0.68174535,40.0
0.5663386,40.0
0.5056661,40.0
0.49288523,40.0
0.47060806,40.0
0.3555529,40.0
0.36720932,40.0
0.3145748,40.0
0.34125227,44.934074
0.41220233,45.488064
0.34604728,50.09052
0.35164678,52.13493
0.4220933,50.99211
0.41114724,57.08667
0.5801449,58.952324
0.64308506,64.862335
0.6997498,71.14846
0.852015,71.76352
0.9472395,81.48585
1.1456659,85.84271
1.1934533,95.02856
1.2627412,96.395454
1.4053141,103.6801
1.4315946,106.97567
1.5882591,112.963776
1.5513861,119.91112
1.6004224,123.69761
1.716641,127.007866
1.746368,130.93105
1.8179508,131.96939
1.8962216,138.72545
1.7863705,137.5696
1.7846136,141.67522
1.8625437,143.25423
1.8037926,145.5456
1.7665066,147.62196
1.7459277,144.15356
1.8469763,145.8383
1.810085,146.7102
1.8041466,145.49582
1.6928215,142.21854
1.6882721,141.14476
1.7898948,139.62006
1.6174774,137.40024
1.6039534,134.42091
1.5676388,130.52391
1.5285136,129.41006
1.4754887,131.90372
1.48318,125.76357
1.5051844,120.927666
1.4756206,119.50335
1.4925879,119.205376
1.4322712,116.04349
1.3290845,111.76842
1.3321595,106.32345
1.4214886,108.8437
1.2630445,99.231735
1.4216032,100.0541
1.3044773,94.20288
1.3825542,95.11021
1.3231237,92.52871
1.239539,86.86592
1.1295887,84.143364
1.1604279,83.25723
0.9732183,79.090866
1.0885279,75.87976
0.9698662,72.13841
1.0065864,71.98056
0.9175087,67.6626
0.81094617,66.61414
0.90842396,61.268093
0.95952684,57.059834
0.8713001,54.025635
0.92600346,53.804558
0.922125,54.02533
0.900796,46.023758
0.8346334,41.710823
0.8151611,43.731266
0.95817846,41.779247
0.82170594,41.94029
0.80411106,40.0
0.84452146,40.0
0.75842285,40.0
0.64989734,40.0
0.70081156,40.0
0.56732875,40.0
0.57855195,40.0
0.6072709,40.0
0.53534126,40.47459
0.58125645,40.73698
0.5451427,48.393833
0.6100106,51.01716
0.7201311,52.65237
0.7297317,61.82639
0.7745606,63.568268
0.87264633,66.56266
1.0319846,71.62532
1.0262034,74.462364
1.0629648,84.25593
1.3301026,88.13941
1.4112508,92.41464
1.5247734,98.525154
1.6559219,104.61166
1.6017822,103.79984
1.748912,109.69965
1.7928491,120.995094
1.8611642,122.64081
1.8033856,127.19826
1.8376117,130.63809
1.8617382,136.45067
1.9584154,134.7554
1.9702826,139.68692
1.9899627,142.4468
1.9987826,142.64647
2.0158534,144.2114
1.9155886,146.78807
1.9243284,145.48032
1.9483287,147.43663
1.9001611,144.60355
1.8360778,145.68872
1.9022781,142.27834
1.6969224,140.4496
1.7312332,138.86922
1.678761,137.4309
1.6787405,138.69998
1.6399517,136.39606
1.7313824,126.391785
1.5490959,127.897
1.6446067,121.952896
1.6111691,123.601944
1.4090108,117.12228
1.5799354,116.91235
1.5749103,113.93986
1.5064416,111.14076
1.4127815,105.41796
1.360028,106.606575
1.3849432,98.95165
1.4000102,99.35597
1.4570255,98.67847
1.287013,97.643776
1.3549005,89.40013
1.2159159,86.29848
1.277264,82.19241
1.202374,83.29689
1.1987901,78.17284
1.1219307,74.47099
1.0429336,72.18654
0.99465895,63.1422
0.92688113,65.72212
0.91091555,64.20651
1.0021733,60.529716
0.82823646,56.863384
0.9093492,54.289368
0.85932374,53.52312
0.7458153,48.14846
0.9319457,45.145092
0.9215141,42.993404
0.86079055,44.490875
0.8192239,40.488445
0.76971614,40.0
0.8622444,40.0
0.73833853,40.0
0.6431826,40.0
0.7152851,40.0
0.6569396,40.0
0.5802367,40.0
0.5669498,40.0
0.45421007,40.0
0.41985637,44.256027
0.48566613,45.19632
0.4564799,47.94637
0.5432115,44.375603
0.59226483,52.744446
0.69312465,56.937683
0.6948059,61.033916
0.8507607,66.21024
0.82423365,75.32708
1.0119296,80.000694
1.1324117,83.205376
1.2502636,86.51007
1.2689344,93.98837
1.3986605,98.10953
1.456879,104.36037
1.5342388,109.760475
1.7767609,114.613304
1.650683,119.81544
1.6821047,125.45887
1.7679225,124.40435
1.7080832,131.6316
1.7655308,129.61346
1.7268641,136.61752
1.8234315,140.97475
1.8990481,142.80814
1.8380302,145.39673
1.7823045,145.84175
1.7002726,145.92546
1.8431966,145.43892
1.707521,144.373
1.7836599,142.7752
1.7060537,146.60437
1.6860465,142.25797
1.6025416,141.75926
1.6183999,146.37973
1.5998956,137.16095
1.529413,135.20134
1.5604794,133.80247
1.3727115,129.77177
1.4615084,124.57477
1.398253,124.874886
1.4296079,122.00144
1.4134679,117.937294
1.3580114,115.71333
1.283243,111.67563
1.257247,109.00157
1.2323067,108.873856
1.2419236,104.37226
1.3396492,98.229294
1.2376812,96.14623
1.2400725,99.6573
1.1440285,96.64247
1.0747222,89.452934
1.0086493,86.64812
1.0117953,83.0422
0.96691847,80.020615
0.8985565,74.62958
0.8746564,73.839485
0.7582276,71.66125
0.67440695,65.10591
0.7671692,65.7812
0.60296786,64.13112
0.67314935,64.73785
0.648099,57.902428
0.5810332,57.306084
0.68935627,54.43366
0.6343378,49.62635
0.76716816,42.69625
0.6560794,43.04133
0.506566,41.185818
0.6027651,41.16663
0.58586276,40.0
0.60546976,40.0
0.52377665,40.0
0.47996816,40.0
0.37164238,40.0
0.34324014,40.0
0.313874,40.0
0.2844483,40.0
0.16376874,43.39337
0.19908209,46.501247
0.21004513,47.320442
0.27443102,49.83368
0.18918124,50.935272
0.3311184,53.114502
0.32916546,59.63921
0.46520957,66.809395
0.55658627,68.69685
0.5926394,78.55981
0.82868624,78.90425
0.91244084,81.478
0.8949657,92.13804
0.960263,94.42484
1.1083062,99.99369
1.1926161,105.599464
1.290592,111.78237
1.3843069,118.95736
1.4246806,119.8946
1.4802895,126.63276
1.4605802,127.635574
1.4594157,129.07162
1.4608732,137.0032
1.452686,137.93877
1.4821546,141.99832
1.4913881,141.43253
1.5043793,140.86781
1.4738946,142.59329
1.4760113,142.51016
1.5008795,146.84683
1.4943055,144.58727
1.4760411,143.79103
1.4538456,144.27269
1.4301512,142.54471
1.2716205,141.8726
1.3207875,135.84166
1.2655894,136.3352
1.1597695,134.06746
1.1262293,130.85551
1.1273175,127.05298
1.0904688,127.55934
1.07017,125.63017
0.9853321,119.99577
1.051308,119.9546
0.99125344,111.342545
1.1155187,111.68063
0.9994509,109.458145
0.9710552,103.41048
0.92789483,103.28077
1.086174,101.19765
0.8903132,95.76262
0.8370803,93.66986
0.9654057,94.09903
0.8906876,90.32072
0.8143737,84.49139
0.6409777,79.15717
0.654228,83.420715
0.5906223,75.50222
0.3942386,75.53442
0.57634056,72.05686
0.37811017,66.75242
0.3647691,66.792984
0.34710002,60.87669
0.4853544,59.989346
0.42171267,58.711685
0.40776235,51.731876
0.42612654,51.463215
0.3621549,46.95767
0.37616226,43.586338
0.268887,42.848476
0.2643473,40.0
0.35966328,40.0
0.26736963,40.0
0.23466742,40.0
0.26909944,40.0
0.17090331,40.0
0.12711678,40.0
0.13428316,40.0
0.09515168,40.0
-0.014360764,40.0
0.0026795191,40.0
-0.066952296,46.803524
0.0064634345,45.86328
-0.03452303,47.38683
0.0059953006,52.11764
0.05503924,54.242683
0.07109452,62.63299
0.20728278,65.68737
0.33067873,71.363556
0.45247713,74.43153
0.60306275,80.941956
0.70127505,85.00095
0.66208607,94.53981
0.83898336,96.15318
0.90851635,101.2204
1.0056286,107.51067
1.1322387,111.20331
1.2254595,113.55175
1.2692146,118.7371
1.275086,127.66056
1.2412328,130.11972
1.4389306,132.86824
1.3142352,139.09924
1.4140596,140.2906
1.444052,137.29553
1.3131402,142.71468
1.4507831,143.29811
1.3666991,147.08371
1.4243373,142.88148
1.3139652,146.08267
1.3547187,144.7399
1.2553573,143.62427
1.2746618,144.87494
1.1998515,141.05322
1.2233917,139.83734
1.1652148,137.09647
1.0756137,134.39928
1.1679982,131.09546
1.0350833,133.09485
0.9539973,128.75508
0.8950342,128.9669
0.8902444,125.60111
0.92339295,123.25558
0.79811877,115.72265
0.9865631,114.42855
0.9494172,112.46996
0.8692152,107.5544
1.0481226,102.06324
0.79071975,102.08998
0.7955882,99.143135
0.8880177,97.25302
0.8169073,93.715294
0.68401414,89.698
0.71418273,90.97553
0.60788524,85.90827
0.67900443,84.76705
0.48808438,78.72557
0.54385436,79.27432
0.42696595,73.321686
0.3831221,68.992165
0.38904533,68.63308
0.38157713,65.68372
0.45110255,63.005913
0.32361734,57.697895
0.3270773,55.15387
0.37535828,54.793777
0.31296644,54.626965
0.34536675,51.258778
0.26843455,47.687584
0.33211982,45.016716
0.37013343,42.71143
0.2748798,40.0
0.27071556,40.320408
0.20623606,40.0
0.20829241,40.0
0.1658511,40.0
0.11033039,40.0
0.09507213,40.0
-0.112416275,40.754665
-0.060081888,40.0
0.04603148,43.29019
0.06975421,43.01802
-0.05890615,45.402073
0.05270456,52.065296
0.06968385,49.74634
0.15574084,53.635307
0.1124297,60.1227
0.37196139,69.070076
0.40125686,67.89173
0.51513284,76.80493
0.51786655,81.44492
0.66426456,89.92615
0.854661,91.45852
0.88478893,95.696304
1.1391816,101.80732
1.1267725,106.774414
1.2508512,112.71682
1.1410334,116.46704
1.42075,121.208206
1.3539894,126.0014
1.3161055,132.31409
1.4471275,135.67215
1.3347746,138.39313
1.5079392,136.76358
1.4283301,140.6875
1.4935648,143.29317
1.4915954,143.26645
1.4485518,145.51712
1.3757465,146.4087
1.4368172,146.57722
1.3810874,146.80083
1.5162158,140.48544
1.3851902,145.90443
1.2823079,141.15332
1.3133702,139.57446
1.2888212,137.10866
1.3048189,138.27681
1.2502517,134.21925
1.2490209,134.0781
1.1899868,126.83446
1.184075,127.64887
1.0952464,121.76395
1.0764091,119.96485
1.0265174,116.230644
1.0038325,112.80299
1.0847149,109.5086
1.0095482,104.94028
1.1510564,107.938034
1.0891625,98.91532
1.0388199,102.09578
0.9716548,95.57075
0.90430737,92.24678
1.0649302,93.33687
0.8874255,88.53398
0.7250179,88.1718
0.7349126,77.54701
0.7668476,79.80008
0.72762287,78.60875
0.6487736,71.93305
0.7616367,68.19504
0.6380725,65.72343
0.6048333,63.770683
0.61265624,62.74053
0.6238329,57.831787
0.5263124,51.914253
0.5940752,52.854553
0.65278554,49.537228
0.5126393,50.666553
0.5670597,44.56585
0.61493623,40.0
0.60330504,40.0
0.5176533,40.0
0.51722383,40.0
0.39977434,42.519444
0.42829874,40.0
0.34514755,40.0
0.36434266,40.0
0.22875792,40.0
0.21374135,46.058598
0.35646012,41.127518
0.22100796,41.073433
0.30874577,44.425884
0.3170222,47.18526
0.33934262,49.5229
0.5101407,53.299477
0.45660576,56.188576
0.5242336,62.05637
0.637324,66.43622
0.75968117,70.37038
0.81641144,77.90879
0.92202437,81.7232
0.98102534,87.42785
1.1458815,91.89778
1.3139936,96.58043
1.4485562,100.56489
1.3442436,105.43273
1.4657272,116.74649
1.5281805,115.927
1.569514,124.05969
1.6789038,126.19386
1.6765807,132.62848
1.6841826,131.88327
1.692756,132.9632
1.8082029,140.69554
1.8245705,142.96948
1.827682,141.00177
1.7114388,141.72755
1.7461376,148.08765
1.6888787,145.08226
1.7461636,145.29774
1.6665641,146.61464
1.7232457,140.98737
1.5913843,141.71483
1.5658267,141.76945
1.5454035,140.05902
1.5710535,134.87833
1.525797,138.77531
1.4337647,132.18825
1.5446064,133.02422
1.3927603,131.42583
1.4636652,124.38738
1.4633381,123.60334
1.3956711,122.44928
1.4099658,115.0332
1.4154295,114.96743
1.4269587,111.86064
1.337157,107.78241
1.2888539,103.918816
1.3513904,101.43517
1.3032721,100.21719
1.2351971,94.56491
1.3085471,93.58379
1.2300206,93.50721
1.1811867,83.99922
1.1645759,84.78849
1.0135752,78.91943
1.0907849,77.56381
0.950483,74.15276
0.9878004,70.1085
1.0151539,73.5956
0.8876718,64.47423
0.9225487,62.258022
0.8394227,61.73401
0.8547285,60.723034
0.8412985,56.097965
0.9147528,53.19175
0.8858263,50.096752
0.7957901,48.22279
0.86862326,40.0
0.88219506,41.971386
0.8672188,41.864494
0.71707445,40.0
0.6389777,40.0
0.86600184,40.0
0.7654059,40.0
0.67575634,40.0
0.5518248,40.0
0.4679976,40.0
0.5145389,41.436943
0.5404793,40.872917
0.50668365,42.215805
0.5373415,41.938076
0.52154344,49.293266
0.50541914,52.305756
0.62513494,51.136677
0.6609016,58.63555
0.8144711,62.6054
0.82327616,66.81269
1.0740849,72.542725
1.1692876,78.89112
1.1531019,83.79135
1.3401417,91.75671
1.3560804,97.69154
1.4850252,98.66239
1.5633558,107.77313
1.5998173,112.703224
1.6550266,113.07814
1.7647622,117.86828
1.8464422,125.18065
1.8721187,124.709114
1.8858134,133.00813
1.9097842,135.26201
1.915538,137.90517
1.9641969,139.70448
1.9590007,144.15674
1.8924946,139.9399
1.9878308,147.56316
1.969737,145.03664
1.8868564,147.35197
1.8816396,145.01967
1.8406879,145.41568
1.8589267,141.44914
1.8046391,144.1479
1.834241,140.76306
1.6990703,141.39569
1.7183701,133.71977
1.6482617,134.5072
1.6954305,128.76454
1.716946,129.24318
1.6046836,125.4638
1.6581967,123.98063
1.4991791,120.35686
1.6051073,115.41602
1.5097377,115.37199
1.4615045,110.8869
1.5258012,106.913055
1.4620079,105.85721
1.3481476,103.87311
1.48467,100.28767
1.4274576,97.66134
1.3329927,96.32869
1.3411427,94.29928
1.4045882,88.87222
1.3224967,86.90992
1.2473028,81.500244
1.1864588,82.13086
1.1608149,79.742355
1.0862042,76.34464
1.0566015,73.03394
0.9832645,66.66071
0.9635548,63.353836
0.8787038,62.157116
0.8535568,64.77077
0.8737028,55.24238
0.97932905,53.68211
0.9408492,50.638977
0.91981053,50.2687
0.9186144,49.280018
1.0359839,45.83812
0.90465736,44.244877
0.9279806,41.532555
0.888979,40.0
0.7809434,41.039307
0.7698655,40.0
0.7446549,40.0
0.7083408,40.0
0.68339807,40.0
0.49787712,40.0
0.55718285,40.05171
0.4543231,44.166992
0.43020448,41.08151
0.4930017,48.138012
0.54556704,49.96546
0.60014737,51.74468
0.67072296,60.013565
0.7808413,62.00355
0.7441152,62.59001
0.91369843,71.998955
1.0358205,71.37778
1.1409923,79.649864
1.1576713,86.17695
1.2905537,93.091156
1.4291488,94.7239
1.5074288,106.84812
1.5991735,106.61855
1.6432608,110.96719
1.6981552,114.09939
1.7135969,114.28012
1.8924485,126.84353
1.8001909,130.44176
1.9072875,130.61765
1.9132653,137.74983
1.7731624,140.247
1.8813298,144.7416
1.9476542,144.17772
1.9019616,142.56631
1.8798991,142.16008
1.8819116,142.82263
1.8501475,145.20232
1.8435128,144.74706
1.7933334,143.00552
1.8431098,146.4921
1.7268441,140.78896
1.7004062,138.39662
1.6777896,137.61269
1.7054079,136.71184
1.6197141,133.08731
1.548089,132.1932
1.4983613,133.40764
1.446851,126.17503
1.4263684,124.336975
1.4439701,119.44744
1.3870848,120.41422
1.3434745,114.23921
1.440382,111.0851
1.3015778,104.25469
1.392553,104.42063
1.3609973,106.48226
1.3365356,101.620865
1.2821298,94.87483
1.2917907,95.66803
1.1749262,90.60587
1.1573918,85.1113
1.0714735,87.01983
1.1015674,83.47613
0.93421274,79.49966
1.0259479,75.52306
0.90870845,75.328606
0.89882654,73.187935
0.7657887,68.680664
0.82072055,66.481766
0.85937965,62.046623
0.7236893,58.247723
0.7664038,54.36782
0.7300661,52.838085
0.77052057,49.949966
0.69480515,49.52956
0.57516074,45.7925
0.73920625,40.59289
0.58466154,41.14401
0.56534624,40.0
0.5980002,43.10751
0.5620353,40.0
0.49977207,40.0
0.5044182,40.0
0.41892892,40.0
0.35267186,40.0
0.38495186,40.0
0.4280296,40.0
0.2843952,40.730247
0.25847217,44.608753
0.28222898,45.151356
0.33127862,50.67929
0.37808248,52.955635
0.42682186,56.91668
0.53070337,61.097042
0.5907825,66.434105
0.72608566,71.59272
0.6327946,75.20264
0.78366077,78.827576
0.7959314,86.42219
1.0290676,92.187935
1.2516886,96.776436
1.1860415,103.48425
1.3011864,107.135994
1.4259926,110.9585
1.4574003,116.51524
1.5637264,121.01466
1.5618192,126.272545
1.6057953,132.4366
1.5669974,134.77393
1.5405289,133.17886
1.6192688,137.1207
1.5845326,141.5371
1.6651253,146.82208
1.6614941,145.76874
1.635108,145.11818
1.6257266,148.68983
1.5435946,146.72621
1.5575322,145.23885
1.5776455,147.08919
1.489011,142.28316
1.4218863,144.06464
1.3369168,140.25635
1.3424326,138.54285
1.2505958,135.49626
1.2264726,134.29169
1.2631602,131.38948
1.1605964,129.01561
1.194343,127.56272
1.1715473,124.93705
1.1200907,119.77246
0.99567574,114.456505
1.1339018,113.41766
0.9447143,110.50473
1.0004517,105.14199
1.0579374,103.33258
1.0472835,103.381
1.0579523,98.22115
0.98347676,96.96947
1.0039539,94.500404
0.9228541,92.127594
0.87181395,88.41371
0.74573547,86.421844
0.71604997,83.12555
0.75644046,78.98114
0.6427414,75.87606
0.60704505,74.73323
0.61992085,72.854294
0.40937635,66.04968
0.5484657,64.363434
0.45013672,60.655537
0.5421096,57.524193
0.3473207,55.00788
0.4457988,54.080456
0.46938032,52.877567
0.41974783,48.938377
0.43374678,44.195538
0.42526585,44.59094
0.47056565,43.94383
0.4013382,40.0
0.22701167,41.732815
0.2850291,40.0
0.20115429,40.0
0.08469449,40.0
0.2188959,40.0
0.060822096,40.0
0.00042842684,40.0
0.03509843,41.30519
0.006450939,42.51793
0.020932125,45.968124
-0.025868243,45.37642
0.10902889,50.408325
0.056490295,53.807423
0.16655667,58.54055
0.27420494,56.5966
0.22827181,66.7436
0.31869775,68.155014
0.44174597,75.618324
0.5882935,86.25801
0.69061273,86.05893
0.8093072,90.02695
0.9100343,95.14664
1.0280956,102.69477
1.0432884,108.19497
1.0651698,113.68817
1.2613305,115.71638
1.2653723,120.69154
1.2570063,123.018974
1.356206,128.89755
1.3263155,132.48555
1.4200319,132.38216
1.4115086,141.86717
1.3276129,142.31723
1.4651511,144.66742
1.3234969,141.08664
1.4246413,143.08618
1.3135152,144.41586
1.3283774,142.27258
1.4168534,147.13124
1.2765044,143.69398
1.2656959,143.54953
1.2305883,140.3592
1.1512718,139.5931
1.1584218,135.50142
1.2225358,134.10643
1.0436722,132.62517
1.020493,132.23058
1.0099541,125.73583
1.0551594,122.694534
0.9134585,122.141365
0.8784021,120.91296
1.0036749,119.53786
0.93444204,113.308975
0.8371005,110.5423
0.89387995,107.61705
0.90049833,102.63695
0.757391,102.13765
0.87731844,97.22307
0.8422853,97.364265
0.7327726,92.64443
0.79056275,89.88218
0.6537086,89.89699
0.62558347,83.924286
0.5108157,82.23175
0.49178728,79.52028
0.42771766,78.24912
0.56307316,69.459366
0.3796828,69.72145
0.4623653,67.29045
0.3567241,59.281883
0.3905464,56.48545
0.3439692,52.08398
0.31237274,57.07719
0.25065845,54.284187
0.40484107,54.955185
0.33245125,50.062737
0.3502271,46.84198
0.3466978,42.844944
0.29290405,41.594273
0.28733402,40.0
0.18425593,40.0
0.26670784,42.213154
0.26033974,40.0
0.13102826,40.0
0.01511267,40.0
-0.04128192,40.0
-0.00048716023,40.0
0.05713594,40.0
-0.10370066,40.62602
-0.09292524,43.22923
0.007866178,43.485447
0.12182315,53.396805
-0.029736826,54.34594
0.10442742,59.52415
0.20206709,62.179638
0.29045767,67.26758
0.44918722,71.89274
0.5293788,78.57778
0.61931133,79.45953
0.73367596,89.279945
0.8214776,93.472115
0.92014927,94.17641
0.89848995,105.03129
1.1255764,110.94546
1.0935774,112.54163
1.1425716,120.48618
1.2656809,122.51977
1.2142382,126.13142
1.346527,129.82266
1.4645854,135.735
1.3943572,139.67982
1.4896488,139.53851
1.376628,140.34189
1.367353,144.54285
1.5172836,147.12529
1.363972,145.29301
1.4411722,146.23453
1.3789071,146.3032
1.2857661,145.16888
1.3172767,143.77278
1.2133615,144.41504
1.3748862,143.02422
1.2490326,138.00069
1.2661653,140.3134
1.1478816,133.41185
1.1709346,134.31734
1.0861619,131.73434
1.1317438,127.421555
1.112862,125.23568
1.044628,120.93865
1.0158306,114.606384
1.0525377,116.86696
0.9831589,112.08232
1.0736264,109.27424
0.92088103,109.3599
0.9888902,104.98173
0.9911172,99.8233
0.91716015,98.13199
0.9277379,91.99335
0.875678,91.08128
0.8614091,92.372665
0.7833537,86.18993
0.7997477,84.807304
0.7340614,79.39293
0.667332,80.751526
0.64628494,76.306816
0.63472503,72.35704
0.5531996,66.79145
0.44869113,67.02188
0.5118672,63.347725
0.47491238,59.956234
0.50223833,55.81617
0.48142615,59.030617
0.50136065,50.840706
0.35359472,45.450027
0.42155075,49.83355
0.5542358,43.85437
0.563662,42.041172
0.514191,40.0
0.43669394,40.0
0.37135157,40.0
0.3379874,40.0
0.36715665,40.0
0.25679156,40.0
0.21878117,40.0
0.17441584,40.818615
0.21170954,40.0
0.16492593,41.18911
0.15080178,42.63233
0.20251688,44.84568
0.16495639,47.125225
0.24736758,50.573215
0.3523554,56.459343
0.28715798,60.990166
0.5350335,64.02105
0.53005564,70.77249
0.64481837,74.63322
0.8208629,77.58962
0.90867805,89.46041
0.96159726,87.28809
1.0917686,95.77799
1.202617,97.27174
1.3902017,109.0766
1.4291897,109.36445
1.3301221,114.35144
1.4509528,118.96243
1.5305982,123.76356
1.6360604,126.2027
1.6268772,135.06532
1.6669067,135.6234
1.7410524,139.13008
1.7085372,140.9279
1.7477473,141.23842
1.7037702,145.89232
1.6077744,142.98976
1.5926752,145.88101
1.6462619,143.83447
1.6726943,143.078
1.5647141,144.49779
1.7130203,144.81906
1.6851294,138.79341
1.5788015,143.34409
1.456672,134.97304
1.5343001,135.97433
1.3644346,134.34343
1.3359127,133.5867
1.4238802,130.63576
1.3627442,128.34616
1.3401532,124.49321
1.3402667,119.33007
1.2318823,115.232315
1.3095163,111.931274
1.3140545,107.119995
1.1582427,108.880585
1.2406621,106.20911
1.3811754,102.26671
1.2280649,103.39807
1.299381,96.24469
1.1436661,94.73829
1.0142785,94.50929
1.0881175,88.07513
1.0393814,90.40859
1.1129946,85.78915
1.027355,82.784775
0.9352181,76.23033
0.8839127,71.99211
0.78021294,72.182365
0.753714,67.62535
0.8550422,65.20702
0.7832778,60.033173
0.6706495,59.06013
0.70073473,54.95284
0.81929237,55.6521
0.7413937,48.394768
0.80550796,48.60914
0.72764814,46.02719
0.7720496,43.253002
0.7654754,42.143944
0.7842163,41.617485
0.8036309,40.154152
0.7169652,40.0
0.56440175,40.0
0.6021658,40.0
0.54267114,40.0
0.577254,40.0
0.54667324,40.0
0.3755262,41.756714
0.3676931,40.0
0.51517075,41.314655
0.4031686,42.923492
0.3751111,43.28695
0.5332642,53.257828
0.59157884,53.53607
0.6089093,62.596966
0.62482446,61.453518
0.92213964,67.70154
0.91790354,72.93256
1.0802943,81.62756
1.2169456,87.835724
1.2747318,92.51768
1.4451883,96.76696
1.4577389,98.355934
1.6807201,106.758224
1.6662915,113.48356
1.7027628,116.34866
1.7850636,122.76866
1.7687426,127.512344
1.9853692,129.76967
1.8842319,132.4418
1.8834329,137.14519
2.0063386,138.18889
1.8640006,144.07423
1.8359637,137.54752
1.9724848,144.83342
1.9079274,143.12665
1.9125156,147.65683
1.905014,146.0057
1.8901546,147.02528
1.8325305,144.68808
1.808787,145.26096
1.8027358,140.63277
1.8036952,137.94644
1.6603948,140.51285
1.7284025,130.90335
1.6892693,136.85497
1.6241472,129.12128
1.6421751,127.35335
1.5766095,127.29923
1.5969532,126.74069
1.5911025,118.121574
1.4437599,117.4298
1.5263922,113.75893
1.621258,115.18199
1.4044129,106.69225
1.4481051,105.81258
1.476225,102.4248
1.4000641,102.11781
1.3154172,94.93773
1.3650223,94.86509
1.3503662,89.7249
1.2026392,86.674545
1.2260059,85.83381
1.2445489,82.33029
1.201246,81.092186
1.0276732,77.38372
1.152651,70.39928
1.0280349,68.735794
0.89387256,70.2772
0.9108436,65.25357
0.9097501,64.166466
0.96652925,64.01373
0.95257914,52.273617
0.9384357,53.90888
0.97268486,51.33054
0.95763814,48.085365
0.94901943,44.98517
0.82908404,43.509876
0.8526304,42.110474
0.8176028,40.545254
0.78536373,40.0
0.76429904,40.0
0.6923978,40.0
0.7527985,40.0
0.73519576,40.0
0.5540891,40.0
0.67696124,40.92901
0.54426694,41.67703
0.63581693,40.0
0.46969226,43.555443
0.5754499,43.086834
0.61475176,48.429554
0.56717885,53.264347
0.6895792,57.451733
0.71470886,59.539993
0.8557392,63.82971
0.89267445,72.65281
0.9930442,77.88529
1.1519165,79.84634
1.2355933,83.50682
1.3696377,89.28753
1.4461287,97.29451
1.5798362,100.49593
1.5898962,107.77391
1.7108191,111.15353
1.7007694,117.67304
1.8601189,116.13722
1.8517584,126.66998
1.9250411,130.36171
1.8710756,131.31004
1.8771716,133.2961
1.9584706,137.88237
1.9958746,143.04034
1.9880565,140.10417
1.9379888,145.67345
1.9670004,145.96497
1.9379011,144.97559
1.9009641,144.62497
1.8877965,144.70395
1.8614248,145.89215
1.8259181,141.95724
1.7737757,144.05922
1.757336,138.57716
1.6842817,138.77612
1.740018,136.99649
1.6069475,136.8633
1.5466815,132.13776
1.6138371,129.24513
1.5719484,130.57895
1.5037718,116.87649
1.4367443,118.97436
1.5169542,120.545944
1.3800629,111.989525
1.4721596,111.35581
1.4777611,109.71514
1.397111,103.42726
1.420717,99.81796
1.4375263,103.24806
1.2637988,97.958885
1.294289,90.4341
1.2522205,86.53611
1.252684,90.62998
1.2128749,81.85602
1.0990713,81.58876
1.1393392,80.82414
1.0030636,77.03563
0.92858243,75.11949
0.8713428,66.30812
0.8169353,66.918365
0.96922046,61.682804
0.838438,60.99608
0.8401385,57.718468
0.7702702,56.816727
0.7755513,54.838318
0.8622106,52.62827
0.9560303,48.576385
0.6624373,43.354656
0.70569134,47.564598
0.8602834,41.008347
0.7261642,40.0
0.6579129,40.0
0.72160393,40.0
0.69501454,40.0
0.5521487,40.0
0.5949756,40.0
0.43967897,40.0
0.3479646,40.70882
0.41657612,40.0
0.40966398,40.0
0.40256768,40.351303
0.36686748,46.96177
0.3944212,50.800694
0.40507308,53.690845
0.49186304,61.41386
0.533165,61.70281
0.60942304,67.551346
0.81442374,68.568535
0.8857212,75.31862
0.9747952,83.574745
1.105988,89.195305
1.2192719,95.18223
1.1783909,98.89528
1.3701164,101.99758
1.4864702,106.832214
1.4589311,116.0179
1.5523534,117.07304
1.5968434,122.08379
1.637695,122.62055
1.6950753,130.20143
1.6011676,136.59035
1.646372,135.56665
1.6474309,139.69174
1.7459894,142.39136
1.6327688,143.42358
1.658222,147.57219
1.5589367,144.38527
1.7619451,144.89197
1.7347891,148.20857
1.6364782,145.22134
1.5273411,145.46301
1.4989959,144.715
1.3973801,141.77014
1.4611121,142.1198
1.4579281,134.77551
1.4420978,133.86794
1.2258341,129.59082
1.3758276,132.29793
1.3743039,127.44577
1.2168852,124.920654
1.2386802,121.70904
1.2827097,117.28915
1.2024037,118.76073
1.203444,111.21352
1.051323,110.595604
1.1128474,104.80316
1.223151,102.392044
1.0756255,102.49871
1.0233895,100.842834
0.97111225,97.117615
0.9571169,93.8872
1.0218148,91.85962
0.9805183,88.69459
0.8030905,80.83066
0.7709007,80.70212
0.8448341,77.73761
0.7135531,72.43054
0.6666631,71.99823
0.57000554,68.728
0.5959334,63.99977
0.54369503,63.989567
0.5399359,64.12331
0.5835083,56.326694
0.45968598,54.366615
0.5527672,53.170746
0.4833663,52.606792
0.5527195,47.60426
0.5354944,44.613274
0.52253515,44.41885
0.44184887,40.0
0.4216199,40.0
0.38313153,40.0
0.34108254,40.0
0.22636814,40.0
0.2223814,40.0
0.14475171,40.0
0.18545926,40.0
0.17336084,40.0
0.15986907,42.197716
0.10630027,40.0
-0.00025389393,44.667213
0.16871424,49.097572
0.12306479,53.85158
0.15147758,55.796364
0.27116802,58.87566
0.33338046,64.201126
0.39064535,65.91134
0.62604684,72.53659
0.55001557,76.02607
0.64170575,83.49147
0.8153379,90.08589
0.91322607,96.962166
0.913849,93.65606
1.0334378,100.90951
1.2917064,108.92514
1.2783483,114.47154
1.254761,112.625275
1.2745721,126.34482
1.2923102,130.61786
1.3593688,131.95114
1.3841147,133.62357
1.4968984,133.61935
1.4696553,142.0756
1.4090631,140.27707
1.5571584,143.38858
1.390906,145.15857
1.4392393,143.79907
1.3249942,146.01224
1.4200011,143.84369
1.3110949,147.83707
1.301248,144.73524
1.3200684,146.00581
1.3589461,141.84276
1.2449225,140.75659
1.1843183,134.64427
1.1156465,140.81648
1.1693226,130.81444
1.0496912,132.95712
1.0360434,126.27314
0.9148549,122.91686
0.97725976,121.18936
1.0020784,114.89782
0.9619303,116.43095
0.9611504,112.50912
0.9691096,107.04528
0.87149596,103.119965
0.9015847,101.048546
0.8508724,102.77336
0.863026,99.25918
0.790952,93.851746
0.7784464,91.10864
0.750315,90.22429
0.66802824,85.590385
0.646876,84.182625
0.6890832,81.06714
0.58283794,76.0843
0.48517805,73.391266
0.49220145,74.61256
0.4154823,68.817924
0.35545206,68.574455
0.38711268,63.25666
0.2899254,61.3526
0.3428873,60.983738
0.26566598,52.85863
0.30408642,50.48963
0.326741,46.18483
0.37222138,48.952484
0.2412788,46.85454
0.3225838,41.24888
0.2429753,40.493336
0.16605896,40.0
0.16641484,40.0
0.16913538,40.0
0.15248178,40.0
0.15839906,40.0
0.04558479,40.0
-0.015271173,40.0
-0.021793224,40.46409
-0.15008074,41.765224
-0.088182434,46.971344
-0.028233271,46.019592
-0.006667522,47.712482
-0.06721729,52.56389
0.03237039,56.578903
0.046606697,55.79665
0.1907681,66.59098
0.32614514,65.8096
0.42223185,70.59379
0.5003485,78.74556
0.578066,83.76093
0.756362,92.088585
0.8445859,97.32714
0.8073968,105.69602
1.0261283,103.817604
1.1292065,111.848206
1.0673699,112.535866
1.227374,115.89791
1.2810198,120.53636
1.3938057,126.46075
1.3760134,133.88635
1.3907746,135.59045
1.3347788,137.30789
1.3459301,139.42366
1.4224564,141.53514
1.4850898,141.53427
1.4035695,144.28302
1.373113,148.46881
1.3749989,145.66443
1.3697959,143.5012
1.33007,146.78664
1.3188021,145.46225
1.2717632,145.81374
1.2237098,138.69481
1.330658,136.28032
1.1090978,137.81833
0.97977465,135.50957
1.0630287,131.02583
1.0244915,129.64565
1.0057017,123.882
1.0911672,125.684326
0.9912109,117.77673
0.9400037,116.54967
1.0377828,115.20529
0.9179861,112.39096
0.992767,110.1046
0.9844168,104.56148
0.9121941,103.49512
0.91349053,98.63223
0.9161881,97.443115
0.88854206,92.610695
0.854228,93.70063
0.72349477,87.98346
0.6808754,88.0175
0.6546816,87.14721
0.5775954,80.29149
0.5946067,76.21372
0.54804075,74.991455
0.46852395,71.679924
0.58786446,64.9845
0.48953,64.23184
0.42419374,61.81447
0.46514475,59.3971
0.53107864,57.034214
0.38800144,50.989174
0.53441936,52.399323
0.45764455,47.761925
0.400386,48.397675
0.2831927,42.19703
0.38071048,42.036865
0.573221,40.552917
0.32769763,40.0
0.35153973,40.0
0.21804824,40.0
0.2062542,40.0
0.24867174,40.0
0.29438508,40.0
0.16590406,41.49438
0.17457163,41.19067
0.09109509,40.0
0.11158446,45.25792
0.072336406,47.78798
0.17753693,48.48041
0.024978591,50.40928
0.24271464,56.71326
0.37278548,60.052193
0.39083794,66.67623
0.45735577,69.959984
0.6626645,71.62937
0.77673024,78.999435
0.779419,84.257744
0.97057974,89.43526
0.95539355,97.81488
1.0518967,101.8012
1.2452134,104.29611
1.185877,112.65893
1.4108853,116.13535
1.4371083,119.278015
1.4736549,122.48722
1.4504936,129.60832
1.5437746,133.66396
1.5673362,136.24068
1.5554681,134.95154
1.597994,140.43523
1.5826137,139.79689
1.6004602,143.52992
1.5477103,144.57758
1.6215016,143.02536
1.5664248,144.6211
1.5832666,143.84445
1.4742415,144.79068
1.4567227,143.71152
1.5776094,142.9135
1.417114,140.31084
1.3633263,138.98831
1.3157746,136.37502
1.3918598,135.8314
1.3749467,130.94624
1.419479,129.3269
1.2029207,126.90443
1.2683582,120.81491
1.2515581,122.50539
1.1661301,120.62029
1.2090163,115.17839
1.243994,114.18166
1.1581842,108.66566
1.246068,101.61144
1.2191863,105.04473
1.1532048,101.778305
1.0724415,97.7436
1.0924896,93.99129
1.0689304,94.082596
1.022428,88.90861
0.97268045,83.992874
0.9332809,86.417145
0.98542833,78.22578
0.82055074,73.76977
0.9020615,71.76152
0.8337174,72.445305
0.8865794,66.132706
0.81136256,61.634506
0.7409206,61.135574
0.7673313,62.54677
0.7862251,55.409172
0.6320987,55.8927
0.72550213,47.05637
0.6135334,51.653347
0.68493694,42.82393
0.60624605,42.49696
0.66195166,41.10171
0.678951,40.0
0.59865654,41.117847
0.5656755,42.63683
0.6249174,40.0
0.46960104,40.0
0.41563433,40.0
0.51518196,40.0
0.40790334,40.0
0.49768358,40.0
0.3159518,40.25014
0.47271332,44.1032
0.42557275,48.677605
0.4002413,47.538364
0.43363675,51.243343
0.54872596,59.607723
0.610184,64.177124
0.66517377,64.02632
0.8043475,71.594284
0.87265986,74.28975
0.99730223,80.18018
1.1529422,87.57984
1.1788656,90.54212
1.3516794,95.225586
1.4329226,102.14406
1.5600227,107.489876
1.6142031,115.80181
1.6233068,118.11468
1.7543293,123.90452
1.7243339,123.90827
1.7788227,135.37518
1.8548994,134.6599
1.9421912,135.3998
1.8642935,137.18231
1.8437967,139.58392
1.8326346,141.25342
1.8614153,149.4334
1.8167346,142.1745
1.9271047,144.21385
1.8233569,145.03741
1.9004716,145.9543
1.8180053,143.22116
1.7813913,142.89313
1.738895,140.26697
1.730662,141.02547
1.7204595,139.07918
1.6384351,136.09222
1.6023543,132.65207
1.5810065,129.90927
1.5946594,127.186554
1.5899612,126.87819
1.5737177,120.44163
1.5034158,117.616875
1.4420742,114.6504
1.575704,110.89516
1.3363254,109.19338
1.4245666,105.44976
1.4195764,105.77709
1.3677156,100.96623
1.3696334,98.408516
1.3495842,97.601875
1.2695171,94.448586
1.2457345,90.04406
1.2724257,85.95609
1.3798573,84.429695
1.1507117,78.463356
1.1173111,77.92854
1.0944718,74.363
1.1420327,75.26614
1.0146822,73.23661
0.9877716,63.36501
1.0079262,65.992714
0.9580424,60.18478
0.9534312,60.502274
0.7991352,50.00551
0.89966935,49.918507
0.74978656,47.539352
0.78591007,48.225975
0.7762205,46.03727
0.88443035,41.565643
0.90264714,42.4795
0.86902565,43.36401
0.86426383,40.0
0.7433856,40.0
0.718801,40.0
0.630844,40.0
0.7089672,40.0
0.6048223,40.0
0.60729194,40.0
0.61820567,40.0
0.53063834,43.10188
0.53711426,43.15947
0.60521346,46.469887
0.6504293,50.892
0.5996891,50.79537
0.62516457,58.664772
0.8385991,66.62569
0.9290813,70.28207
1.0040668,69.68326
0.97947294,78.06685
1.159594,83.87261
1.3019211,81.32443
1.422656,94.17045
1.4550246,98.612686
1.6013863,105.032814
1.7677156,110.4782
1.784285,113.09238
1.7844796,120.98659
1.8297462,122.560135
1.8685287,122.12608
1.8197304,128.01724
1.9481587,131.60536
1.840243,139.57387
1.9591213,143.51817
1.9975933,143.54579
2.0346048,140.53462
1.9792973,143.51936
1.9288998,142.32884
1.8898714,145.4339
1.8429092,144.79622
1.9070457,144.59764
1.9142196,143.6397
1.8917664,145.0481
1.8142368,142.57515
1.7903297,137.59464
1.6077791,137.76242
1.720183,134.12708
1.593846,133.20053
1.5485314,130.7963
1.5339068,125.36381
1.5962952,126.4414
1.5549082,123.09512
1.4588107,118.5481
1.4794372,117.810745
1.4864827,116.86301
1.4925754,109.68197
1.4404458,108.91371
1.4106035,104.68521
1.4980237,103.46104
1.5077734,102.312515
1.4593751,93.89455
1.2812515,92.13709
1.3306115,91.21132
1.2422199,86.47509
1.2482723,80.60712
1.1595384,82.55729
1.1552012,78.80962
1.042357,73.56179
1.0233397,73.3133
0.9662562,68.76904
0.91781354,61.72271
0.89941823,63.47335
0.8725212,62.94884
0.8765856,57.142773
0.8045028,52.38754
0.8278059,55.551556
0.820265,53.333363
0.7594207,46.41886
0.8288958,46.37028
0.76678944,44.33697
0.800848,40.0
0.8058674,40.0
0.63531804,40.44351
0.83918905,40.0
0.710848,40.0
0.5501908,40.0
0.514356,40.0
0.56460017,40.0
0.4183593,40.0
0.43477172,40.0
0.46069947,41.717083
0.45016697,42.124687
0.45174068,50.629845
0.5254133,50.81564
0.5238006,52.3132
0.6516765,58.684624
0.6710428,61.084106
0.8089924,69.04332
0.85522366,75.17566
1.0065819,77.03424
1.0398921,82.49812
1.2059058,90.27032
1.3098105,93.30449
1.2783488,99.12587
1.4725093,104.80624
1.4422414,109.9786
1.4495101,117.04153
1.6307831,120.35327
1.6956606,121.6481
1.7001098,128.01692
1.646391,132.05998
1.8049893,136.7738
1.7598782,135.20105
1.7885742,136.96313
1.6948174,143.55455
1.7141474,144.52344
1.5979526,143.43352
1.7104378,142.09464
1.7143966,145.23738
1.7723888,144.56398
1.6968371,142.3869
1.6279669,145.84326
1.6156307,143.82751
1.6227877,140.737
1.5744199,142.02408
1.509341,134.75798
1.4538287,136.41373
1.4073703,130.73186
1.4103858,128.55888
1.3982908,127.69766
1.3023955,127.208
1.2975683,116.811905
1.3372025,115.251114
1.3490881,117.39727
1.2493434,110.97352
1.2545925,111.12845
1.2328386,107.19593
1.3262935,107.19812
1.1626484,100.86813
1.1449407,97.511475
1.136989,97.536285
1.1537714,94.24687
1.0562419,87.65177
0.99152327,86.41162
0.93474054,83.357956
0.8759829,78.49154
0.7394473,83.16179
0.65802824,76.58127
0.71879065,71.21134
0.66323584,65.295876
0.6252313,64.265594
0.5492781,56.95192
0.6238244,57.343052
0.6088558,59.329662
0.6095534,52.984146
0.6421497,49.93457
0.6582647,49.026703
0.5455704,48.37864
0.5098573,41.423824
0.48325443,40.901043
0.6319617,40.0
0.515476,40.0
0.5215888,40.0
0.46683416,40.0
0.330671,40.0
0.35673356,40.0
0.2886558,40.0
0.16305672,40.0
0.1620484,40.489758
0.13941854,40.0
0.18931699,44.623993
0.26037094,45.608265
0.22091796,46.953987
0.148478,48.782192
0.36728507,54.395325
0.36027524,63.21747
0.4355418,61.748142
0.46425155,70.11365
0.6479394,74.451996
0.6634272,82.00273
0.8592418,86.25345
0.93184096,88.15951
1.0565921,94.63987
1.0593231,102.88273
1.0936058,106.42932
1.165431,112.89069
1.248745,114.25158
1.4057022,119.79182
1.3654016,119.76466
1.4988766,129.37224
1.425982,133.0455
1.5192245,137.2983
1.4818814,135.79205
1.4505488,138.78523
1.4849231,143.10847
1.529536,144.52075
1.4107978,147.11568
1.5882518,144.5155
1.4523566,143.39943
1.4207847,147.10454
1.3623328,144.56003
1.4215074,142.94226
1.3429295,143.0433
1.2551309,136.68771
1.2747536,141.10042
1.217808,140.03984
1.2825507,133.29309
1.0674298,130.09184
1.1479597,127.21701
1.0791264,128.73643
1.1163185,124.31518
1.0446504,121.191826
0.9929224,121.506065
1.1559001,111.52719
0.8397074,113.12777
0.9252659,109.367516
0.9780499,104.52547
0.8574936,104.13069
0.9413249,104.44562
0.886704,94.36275
0.8288458,94.64445
0.7918515,92.59871
0.77945954,87.91237
0.75216097,85.26393
0.68615586,81.01868
0.5511308,78.01543
0.5525171,76.353325
0.5860857,76.261086
0.4458865,69.04912
0.5360632,66.90437
0.44723335,64.63177
0.3470778,61.60849
0.2719539,59.57226
0.38016525,57.489647
0.33072424,54.635975
0.34099162,50.24787
0.35436997,48.59287
0.3243512,43.86189
0.34411708,44.85632
0.3198864,44.25775
0.35190073,42.202522
0.1890521,40.0
0.25044763,40.0
0.2345238,40.0
0.21040559,40.0
0.03748388,40.0
0.10094953,40.0
0.07818812,40.0
0.015559136,40.0
0.03194084,40.0
-0.030743526,45.73734
-0.06868146,44.306824
0.072974995,51.052856
0.09076933,51.827473
0.017699974,55.0995
0.14080109,57.20762
0.2006252,67.934525
0.29327717,73.33702
0.44531658,75.819275
0.47755745,79.71685
0.7197212,83.794
0.814272,88.64273
0.74522394,94.30963
0.9458533,104.8926
1.0278764,107.38027
1.1208569,110.95431
1.1036671,118.43102
1.221193,125.73165
1.2818307,123.81512
1.4249666,129.11325
1.3031822,131.7179
1.4084067,132.60023
1.4361334,142.68234
1.2818077,138.36015
1.4547989,143.41519
1.3022553,142.14606
1.4172835,149.52304
1.2942201,144.99709
1.267627,144.35568
1.4166758,140.29726
1.3197178,144.61328
1.1700866,144.01408
1.294783,142.86133
1.1540271,136.1009
1.1503855,138.34451
1.1429411,140.63905
1.1146289,134.30533
1.0419556,129.99113
0.93961287,132.6851
1.0152338,120.3332
1.0088072,121.98402
0.92121655,121.374466
0.9794439,119.32578
0.9539942,113.87595
0.9142494,110.77858
0.9279346,108.46966
0.9450533,107.06853
0.88743585,103.11604
0.86580586,96.88046
0.84008765,98.39983
0.79751474,92.586685
0.7490533,92.15961
0.8022718,85.61876
0.68627715,86.595245
0.69266325,78.99956
0.6234833,81.114784
0.54569376,78.96374
0.51565415,74.19899
0.3662917,70.975136
0.4440554,63.961666
0.4582634,65.193275
0.38008636,64.417816
0.32999665,61.084743
0.40550217,57.935818
0.45035195,52.370277
0.40337056,52.27712
0.43990842,47.198338
0.38250774,47.332764
0.44801146,44.79183
0.3263589,43.5814
0.3519461,40.08328
0.3120693,40.0
0.22093162,41.169888
0.3116525,40.48655
0.14015833,40.0
0.18014793,40.0
0.06909921,40.0
0.021160582,40.0
0.0053903647,40.0
0.054489013,40.607437
-0.025244946,44.007195
0.043212228,47.833576
-0.0032583664,51.122566
0.21515353,53.202305
0.24198762,55.23218
0.35512954,62.917027
0.40452984,69.15077
0.43422994,68.624466
0.5913309,74.6059
0.68231523,84.07153
0.80216086,89.67466
0.8279065,93.4016
0.9664492,95.610886
0.95960695,103.03193
1.2124406,112.147064
1.1640031,115.32534
1.2889897,118.29629
1.3803343,121.56523
1.4110166,125.57805
1.3889619,133.38374
1.5810117,134.73596
1.4982927,135.75919
1.4998386,140.91267
1.5729303,143.6787
1.4689856,141.94437
1.5233346,143.98346
1.5802989,144.64192
1.5804833,146.75058
1.4870504,146.0044
1.464118,144.64026
1.5485795,141.04048
1.3531109,142.37051
1.3248779,141.80447
1.3471074,138.57692
1.3954926,140.57498
1.2699924,136.56396
1.1894093,134.11845
1.1954135,131.59915
1.1731088,128.25359
1.1002066,125.26391
1.2087212,123.26642
1.0795344,122.71827
1.1147032,115.049995
1.1860188,110.88222
1.1261064,109.55102
1.0574455,106.49036
1.08506,104.91543
1.1720985,95.802155
1.160447,99.58172
1.0796089,93.2568
1.0209106,91.81977
1.0325553,95.7059
0.9316529,87.823235
0.97410583,82.4888
0.89671236,85.07612
0.75818515,79.44017
0.8222853,76.96699
0.756818,72.97707
0.5358427,69.13289
0.67754394,69.1348
0.6462728,61.07071
0.6493335,60.52811
0.6260732,57.81568
0.6778696,55.2265
0.6097383,52.423622
0.67419535,49.97056
0.71705097,45.8287
0.65879804,44.45359
0.5866968,42.729282
0.67370737,42.070675
0.49727428,40.0
0.58206755,40.0
0.5331504,40.0
0.5503868,40.0
0.50567466,40.0
0.45554388,40.0
0.31341186,40.0
0.29614568,40.0
0.37186852,40.0
0.27309263,43.433613
0.3413376,48.34654
0.33609653,44.48678
0.40892363,50.79767
0.451265,54.774
0.5041883,56.865868
0.5349197,59.85798
0.5892357,68.043655
0.7980256,73.125595
0.8216103,76.15865
1.0815029,80.64236
1.049574,88.22151
1.1820638,91.87331
1.2835634,97.24335
1.3216475,105.578804
1.4942276,111.47473
1.595675,117.23646
1.4863437,115.04536
1.6468173,122.2813
1.7073921,129.21107
1.7026309,132.6614
1.818539,133.07452
1.8330673,131.4349
1.8227572,142.15553
1.8819208,138.42961
1.7005181,141.54404
1.8541939,144.09532
1.7902443,146.70592
1.7689065,148.56303
1.896424,142.03838
1.7771698,144.85776
1.7207527,142.90948
1.7164544,143.2011
1.6663207,142.00371
1.5585264,138.52351
1.5841237,137.41843
1.594236,140.81259
1.4453177,131.66417
1.4996644,128.3355
1.4546379,129.63454
1.5098269,122.75331
1.4798342,121.228935
1.4881328,117.64473
1.5864712,114.25279
1.4150729,114.768555
1.4027063,108.30306
1.4439808,112.690285
1.3502858,104.803535
1.338616,101.17015
1.4018198,96.626686
1.3523195,96.11523
1.2427291,91.81456
1.2218635,89.35461
1.148894,86.549866
1.2184676,83.27372
1.0329634,84.81038
1.0604678,77.860306
1.0487175,74.80787
1.0180799,69.77391
0.966483,67.382484
0.97233564,67.74199
0.87351304,65.090164
0.88593274,61.28021
0.8102214,57.444283
0.854673,53.816433
0.8777577,53.895638
0.89766985,44.146996
0.86319786,47.036617
0.9325045,45.015987
0.8599222,41.636246
0.8515392,40.959316
0.81965345,40.0
0.76268655,40.0
0.81227547,40.0
0.71291226,40.0
0.67931604,40.0
0.6346256,40.0
0.66039765,40.0
0.572856,42.358875
0.56706464,40.0
0.5301489,41.229004
0.54850304,42.647213
0.5710714,51.151768
0.58612984,50.663036
0.6200205,56.439453
0.72280073,62.414024
0.8247117,60.984756
0.9262292,69.07348
0.95161706,72.64429
1.0759687,78.30457
1.1866589,81.98734
1.2254578,86.301865
1.4576888,92.06941
1.4881722,98.18009
1.5370612,103.872314
1.5953306,108.5168
1.6837425,116.39584
1.7928029,117.29451
1.8925657,120.952156
1.8728855,126.60696
1.9174764,132.03778
1.9172662,134.72478
1.859739,136.76009
1.8748327,139.8691
1.9575669,143.54103
2.017023,142.79573
2.0668886,146.26627
1.9154483,147.52724
1.9687343,141.76962
1.8081309,149.75824
1.7862675,147.13521
1.9300656,143.6132
1.882293,142.04265
1.7430246,139.4917
1.7799134,142.48988
1.7202157,140.18599
1.675348,137.27109
1.735031,131.67433
1.5312543,128.4737
1.6153232,126.760086
1.5224986,124.81779
1.5940893,120.87267
1.4801669,114.18528
1.4818239,116.72332
1.5533057,116.06946
1.5421383,108.09012
1.5429848,110.245224
1.4871515,106.03561
1.410313,108.03954
1.3584937,97.47682
1.4751399,97.57855
1.2998984,90.22167
1.3355622,92.603516
1.2932996,87.86276
1.1977814,81.94253
1.2886604,76.425476
1.1773137,77.8996
1.0975609,72.415306
1.0174968,68.368904
0.949422,66.8189
1.0555487,65.57238
1.0101633,61.073437
0.8990007,61.101612
0.90124774,58.66721
0.9738763,52.148872
0.92842275,49.99949
0.8791983,50.043076
0.9361168,45.9679
0.8591137,45.347126
0.94003254,40.826588
0.8594919,43.36474
0.8208038,40.0
0.84807736,40.3001
0.78508514,40.0
0.6834861,40.0
0.70336735,40.0
0.625971,40.0
0.5949464,40.0
0.5358665,42.222973
0.40948004,41.123684
0.52154267,44.6703
0.5176806,43.866714
0.36480913,48.51855
0.4869714,53.866737
0.67047936,51.405
0.57906234,59.411922
0.70951396,65.56232
0.8158682,67.644905
1.03043,76.586266
0.9983439,80.85873
1.1604443,84.22861
1.200118,92.789825
1.4064002,100.52831
1.4050711,98.55128
1.5665125,105.04672
1.5723196,109.76481
1.6332724,115.1062
1.6787236,118.90555
1.6915691,126.77285
1.8835926,127.43308
1.8523523,128.479
1.8278071,137.80478
1.9007742,137.27158
1.8445327,139.03215
1.8318131,141.74565
1.839468,143.42896
1.8191595,144.93452
1.847902,145.79079
1.7750661,144.97977
1.81458,144.64896
1.6716913,141.43481
1.8010676,142.11455
1.6578932,141.89081
1.6836312,141.13402
1.680629,136.80948
1.5979427,138.14934
1.4092164,131.58868
1.4736367,131.75273
1.4769689,131.36746
1.4118315,126.42713
1.3403829,126.56976
1.3064611,123.08289
1.3709505,115.35382
1.2758865,112.60681
1.2584903,114.36007
1.3381959,108.85616
1.2695321,104.17666
1.2881552,100.40733
1.2485521,97.87546
1.1535945,98.157936
1.1944318,98.65914
1.1628634,89.680466
1.1291412,90.03322
1.0198891,87.26027
0.992364,81.70917
0.9841448,80.474106
0.85334927,75.86265
0.79298735,70.88406
0.8532694,70.96557
0.6913677,67.25989
0.7867749,62.417854
0.6831328,64.85733
0.7032676,58.058685
0.6712821,56.58207
0.59676033,50.997375
0.6600965,49.082623
0.688291,46.45275
0.63448113,43.5099
0.63696575,42.772778
0.7301199,40.715397
0.59507436,40.001274
0.49465802,41.07206
0.5123182,40.0
0.41416615,40.0
0.40331182,40.0
0.35743368,40.0
0.2875698,40.0
0.25871608,40.0
0.3090032,40.0
0.27884662,40.0
0.20640062,47.10905
0.17255957,42.498344
0.2689586,50.138367
0.3388218,52.090557
0.3361351,56.254536
0.4113343,58.99234
0.59216565,66.1623
0.5369087,73.49809
0.6457904,73.49577
0.750122,83.67482
0.8791141,78.79027
0.9909193,92.81879
1.1091249,96.73602
1.153871,101.36837
1.3000191,110.679375
1.3978511,111.31314
1.4529771,120.24912
1.4783511,122.97914
1.5777087,125.21567
1.5793365,130.51874
1.5752752,136.14328
1.5501719,140.48666
1.5049176,138.15674
1.6157067,143.53757
1.585555,143.52179
1.6452186,140.32965
1.6345986,145.39848
1.4744544,146.41544
1.4236507,143.47116
1.5482343,144.71005
1.5498296,146.40771
1.4737713,146.19302
1.4855224,143.88412
1.366562,140.31204
1.2572362,134.67072
1.2258141,138.60661
1.269218,137.3839
1.2949696,129.06798
1.1122504,127.47921
1.1496402,124.47751
1.0793045,119.85417
1.0998433,119.92825
1.0755628,119.88226
1.0470974,119.46136
1.0611652,113.36367
1.0457164,108.9079
1.0470028,104.07897
0.99395263,103.830055
0.9030881,99.42764
0.89963424,97.267586
0.8563049,95.124664
0.8129948,90.2924
0.7615689,90.582634
0.76154906,88.06722
0.7047034,85.0511
0.69095343,79.80571
0.64956826,73.86992
0.52056235,73.02127
0.484649,72.90729
0.4983537,65.17567
0.5725368,62.805477
0.46969354,62.61106
0.3929803,57.154926
0.30870298,59.660175
0.32480592,51.158737
0.44827765,50.288742
0.34000224,48.564526
0.39946756,45.461758
0.35716406,45.096714
0.4144168,41.975235
0.40421274,40.0
0.28152794,40.0
0.2832214,40.0
0.23158902,40.0
0.18636768,40.0
0.12357922,40.0
0.042973492,40.0
0.049434207,40.0
-0.08966483,40.33828
-0.041005142,40.598576
-0.044002093,46.59679
-0.0921729,46.72315
0.0933752,49.208244
0.06976985,53.41133
0.155975,61.274307
0.20697811,62.948685
0.18359932,67.33227
0.29895434,72.90113
0.42349723,76.47345
0.589508,83.69212
0.6923139,85.78745
0.9006454,91.01955
0.97339857,98.45384
0.99912506,98.704926
1.0812601,104.20635
1.1528574,113.31878
1.210783,115.6714
1.1725972,122.793884
1.224528,126.02797
1.3913767,128.50792
1.2971315,132.75928
1.360531,139.17876
1.3259146,138.77794
1.4019821,140.81404
1.3146242,139.5961
1.3468891,145.00293
1.3112278,143.49408
1.3873667,146.28687
1.3255768,145.65343
1.3288876,143.96945
1.3204874,145.38081
1.2880262,139.51106
1.2240856,140.57088
1.1824421,142.5091
1.2173177,135.02336
1.0355122,135.25705
1.1348108,133.0423
1.0718502,133.07472
0.99531627,126.48901
1.0015781,124.4141
0.9688982,126.202614
0.99318725,122.355705
0.83301836,118.34903
0.86754906,114.10425
0.8490268,112.59071
0.8421957,109.11535
0.8442628,105.839134
0.90200317,103.73424
0.8067648,97.64691
0.88356656,95.58497
0.83482486,96.12224
0.80088925,90.8316
0.7904482,90.05258
0.621383,82.103264
0.5884586,79.4654
0.5869582,76.4249
0.52794415,73.93898
0.50874496,75.57269
0.42409092,67.1982
0.3632063,71.37068
0.42801136,61.888298
0.3954771,60.62959
0.41064695,58.58231
0.30696678,57.59328
0.44279802,48.769264
0.43565094,48.827366
0.37838817,49.113293
0.25972763,43.792244
0.33929104,42.81714
0.2576841,44.257423
0.23078905,40.0
0.16568309,40.21299
0.19309309,40.0
0.2276969,40.0
0.21836142,40.0
0.09125731,40.0
0.118681766,40.0
0.096428886,40.0
-0.09886397,41.407536
-0.052586682,44.325626
0.07015787,44.52125
-0.03260192,46.772022
0.13711336,47.521526
0.14018293,54.724453
0.103006184,58.558395
0.066733785,60.389473
0.2986378,71.72618
0.3818091,71.219734
0.5628531,76.10269
0.6556234,82.83701
0.77125144,90.38959
0.8349815,95.33156
1.0018775,99.57368
1.0298285,104.684044
1.2164221,109.75005
1.208637,113.3074
1.2420143,120.2311
1.3507649,123.70219
1.3461455,131.98105
1.4282464,130.73439
1.4586548,132.10863
1.4502435,137.50551
1.520087,137.9336
1.5627177,141.48598
1.5233921,145.59773
1.4299613,142.75252
1.4238999,144.25552
1.4921813,145.87833
1.3687036,146.25719
1.4138886,143.6966
1.3201134,144.02869
1.3638252,142.70712
1.2500206,141.43109
1.2478261,136.18248
1.1020532,137.12135
1.2873385,135.7092
1.2508266,133.00449
1.1238478,130.3171
1.1246665,123.49742
1.1659931,123.25127
1.1717844,121.71412
1.14305,118.4149
1.086103,118.45983
1.0724844,110.98772
1.0742223,111.08394
1.0975138,107.41395
0.925186,105.68926
0.9174051,99.28579
0.95949805,93.98684
0.9191901,97.01183
0.9159981,95.45627
0.8110345,86.81336
0.83584595,88.02334
0.8725331,83.1548
0.7856607,81.45157
0.7325119,75.353806
0.6848545,74.69203
0.7382712,74.69197
0.50568634,68.900024
0.57972735,62.125576
0.5675727,61.069935
0.5850376,58.175747
0.48011455,59.059505
0.57434815,57.628128
0.52871275,49.21257
0.49165156,46.56724
0.5177077,48.296173
0.585466,44.141552
0.5155905,43.386627
0.48779407,43.09585
0.45224863,40.0
0.43335217,40.0
0.4854101,40.0
0.34852803,40.0
0.44130024,40.0
0.3017427,40.0
0.26230782,40.0
0.21014133,41.6012
0.10164037,40.952408
0.26726884,40.187225
0.18153206,44.56031
0.28723156,47.220116
0.28281197,50.964157
0.2703506,52.68384
0.4011136,59.970177
0.4135462,62.253365
0.728274,68.41707
0.77336705,75.21051
0.7735648,79.57635
0.85084903,85.82246
1.2035375,89.38302
1.1638811,90.57117
1.1621454,101.49874
1.3767487,108.14821
1.556138,111.207016
1.5041548,116.00293
1.4967704,118.077675
1.6015062,121.19057
1.6879582,129.67242
1.685702,130.0216
1.6294882,134.35721
1.6336231,138.98026
1.7905042,139.12383
1.6929722,141.92262
1.7161168,145.27098
1.7183982,146.7758
1.678693,143.01205
1.8048983,142.86336
1.6715671,144.09659
1.6253716,142.6915
1.6092802,142.429
1.5523845,144.72081
1.6674412,141.53474
1.5366439,139.441
1.6336552,137.33844
1.4220537,133.22786
1.4740185,132.28836
1.418294,130.64795
1.3470551,127.15072
1.4116586,123.152916
1.3181882,118.85852
1.3799231,119.97168
1.3297647,111.61302
1.3400502,113.54439
1.3022245,106.691795
1.2819408,106.105865
1.3702507,101.795876
1.3208135,99.561295
1.3542129,97.76972
1.1910747,90.72196
1.2823917,93.38464
1.129894,91.554756
1.2070712,85.681915
1.1429983,81.92623
1.0754719,82.70898
0.98167634,76.89615
0.9895554,73.250755
0.974758,78.77048
0.82810736,66.98429
0.9084314,66.51517
0.78387654,62.216717
0.86933875,60.837006
0.76540524,56.250732
0.8634317,58.975216
0.80433893,53.01069
0.87483513,48.418613
0.8859587,42.467514
0.8394308,41.188522
0.86685437,43.383564
0.77563775,40.0
0.7075302,40.0
0.7014034,40.0
0.72937644,40.0
0.69274867,40.0
0.56797516,40.0
0.58523506,40.0
0.58129275,40.0
0.55929124,40.0
0.3977527,40.826694
0.48027235,44.364094
0.46495083,44.480354
0.40228388,49.33466
0.58352786,50.92099
0.5878686,58.049885
0.68891907,60.81463
0.8368233,67.94656
0.7894002,66.54016
0.9505268,76.02005
1.0587393,83.56969
1.1738878,85.787674
1.3771675,92.97837
1.3712,95.86019
1.4731306,101.877716
1.6586602,106.80434
1.7079,113.447136
1.7929637,116.31537
1.7790582,119.71462
1.8499621,129.96024
1.8572606,128.62381
1.9077945,131.0329
1.8761789,139.33812
2.0420911,142.27861
1.9608185,141.69226
1.9234092,140.84413
1.9708306,146.9842
2.042707,146.25182
1.9278834,146.0706
1.9490098,146.19774
1.8663439,144.60533
1.840111,146.83803
1.7575461,143.87106
1.6742549,141.5732
1.8097465,142.63951
1.7173376,141.9472
1.7506288,135.32246
1.676552,129.99802
1.5908012,135.01933
1.7118951,130.81187
1.6620224,125.57709
1.5666726,123.19009
1.517946,122.12513
1.5476266,117.7613
1.6037554,112.60343
1.4300487,109.44122
1.4163547,110.30084
1.4634718,106.2421
1.4344512,102.35162
1.4498731,99.36538
1.3351051,97.11954
1.3825778,98.716446
1.3327756,91.35309
1.4134358,85.07915
1.219077,82.40832
1.196205,83.54312
1.2514735,77.33811
1.04681,75.58667
1.0483093,73.33117
1.0874822,70.177376
1.0003127,70.48326
0.87697333,62.26794
1.0242724,61.275337
0.82937986,57.731213
1.0518687,58.145283
0.91174954,55.181572
0.97716236,50.972706
0.90090823,49.29705
0.9164935,44.244923
1.0039313,41.973312
0.8231234,44.95068
0.90263045,40.0
0.820109,40.0
0.8557402,40.0
0.7176634,40.0
0.85101193,40.0
0.6749393,40.0
0.5103947,40.0
0.5045813,40.0
0.57557607,41.77296
0.48595414,43.3057
0.55330664,44.53523
0.55089885,44.305294
0.5615041,48.136284
0.54182863,53.33453
0.6093868,53.810368
0.7285943,58.75413
0.8811255,66.17657
0.91583484,72.47796
1.0706049,73.45713
1.1573976,84.062256
1.2566692,84.488716
1.3766011,93.137184
1.3614411,91.22175
1.5764678,100.46183
1.4859294,107.03344
1.6990471,110.35653
1.7294705,120.35876
1.7458434,122.908356
1.861957,126.37418
1.8989184,132.18379
1.885945,128.98329
1.9242485,136.4804
1.9387045,135.77246
1.9535388,139.51414
1.9010531,145.38882
1.9164994,141.38669
1.8863736,142.23042
1.9505386,146.44672
1.8691542,145.19295
1.829569,147.73813
1.7989634,146.26337
1.7986268,142.77599
1.6901867,139.55235
1.6892489,139.90038
1.5369035,135.99985
1.6339623,139.61699
1.5437118,132.99863
1.5187856,130.3665
1.5119878,131.3832
1.4381018,121.08069
1.5104996,122.60947
1.4266464,122.092255
1.4661844,118.951904
1.3855274,114.67462
1.4006883,107.420364
1.306706,104.96792
1.3675218,105.79961
1.3455887,100.68918
1.2719766,99.529335
1.2462057,95.17367
1.2860013,97.22828
1.1308815,87.72489
1.1294229,85.53733
1.1215024,83.46461
1.0008088,82.13893
0.99634075,80.76051
0.89593446,80.02001
0.94696397,67.42245
0.8418325,68.48271
0.7901108,67.052
0.82528365,66.55984
0.82150155,60.509464
0.78632826,58.754436
0.79965264,54.148422
0.82564527,55.706535
0.6487688,50.18724
0.7781345,46.665462
0.7527923,42.868183
0.733175,41.52561
0.76455754,44.474205
0.6961308,40.0
0.68107694,40.0
0.6276602,40.0
0.6157411,40.0
0.5338946,40.0
0.48086628,40.0
0.47081172,40.0
0.43740726,40.0
0.3278685,40.0
0.30118537,44.458088
0.27911177,40.252693
0.35223204,47.24516
0.41272643,49.78144
0.28811398,54.091976
0.38656497,56.575397
0.5286776,63.97816
0.6794798,69.64473
0.7245211,71.98654
0.770223,77.553154
0.8100475,81.3463
1.0042566,88.16892
1.0667367,89.793236
1.3103149,95.866135
1.3130178,103.346115
1.2292126,107.417786
1.515666,112.0967
1.4322308,114.51138
1.5462123,122.56122
1.6150761,125.53351
1.5815972,130.10873
1.619144,132.96712
1.6741285,140.56897
1.5630722,138.2264
1.6783733,139.74638
1.6850774,145.43979
1.7405283,141.66542
1.5920173,148.44704
1.5578012,145.89812
1.5657142,147.04233
1.4651728,142.828
1.6240271,145.96156
1.4835956,146.17638
1.4978154,141.62318
1.348839,139.08887
1.47143,134.1281
1.3355265,137.86661
1.3060802,130.62872
1.2341657,133.25645
1.2683653,126.64041
1.276736,123.61841
1.2500305,118.18122
1.1615728,117.012505
1.1231654,116.49446
1.1255381,109.615524
1.114546,111.237045
1.0550157,107.03289
1.0701619,105.27682
1.0840094,100.71683
1.035921,100.518616
0.9481384,95.85838
1.0036402,91.030106
0.9378424,87.459854
0.8201762,86.9222
0.80465776,80.95561
0.8133706,81.00304
0.6634355,77.54551
0.6959224,72.73856
0.66812634,69.53231
0.6448905,70.11434
0.62299633,72.157326
0.50892305,63.605885
0.48116925,57.46764
0.4443846,53.147476
0.4776404,51.69452
0.6111186,52.783066
0.43620315,48.589462
0.48692888,45.153408
0.46746746,41.379864
0.3826795,42.133533
0.41560772,41.01793
0.4132277,40.0
0.3695532,40.0
0.26061362,40.0
0.27005264,40.0
0.3045054,40.0
0.21295829,40.0
0.0417691,40.0
-0.048221532,40.0
-0.024300437,40.0
0.028003152,40.921154
0.066228576,45.853367
0.06114906,48.676697
0.08689043,50.010643
0.124036096,53.04567
0.1752404,58.829964
0.2626846,59.919617
0.287137,68.68963
0.37412077,76.79393
0.5347546,73.56368
0.64665836,81.05619
0.82419133,88.13725
0.8406614,96.40167
1.0019833,100.41119
1.0091761,106.16631
1.1001799,109.5243
1.161932,113.84357
1.200241,119.98108
1.2711694,121.63584
1.339344,125.39851
1.3296306,133.30554
1.3074442,136.77457
1.3994728,137.52538
1.2974845,139.42209
1.3408266,140.44897
1.3803036,146.05144
1.405329,149.42375
1.3913713,142.98427
1.2979126,148.33073
1.3818136,147.79958
1.2743105,148.12045
1.2545267,147.2303
1.1794071,142.23846
1.3298421,137.56885
1.1417551,139.81465
1.1005558,141.72798
1.1052978,136.14014
1.0343398,132.1791
1.0400752,127.10827
0.92942554,128.18652
1.0155928,123.95074
1.0239305,123.495926
0.97345984,118.312584
1.0006582,117.62562
0.8889889,110.33039
0.9994913,107.22535
0.9202548,108.70237
0.8843398,105.63357
0.8619708,99.87571
0.8001085,97.767784
0.8560662,96.01473
0.7404625,93.66806
0.7476511,90.34751
0.7169572,90.63153
0.6253591,83.037285
0.5852208,82.29765
0.5686779,77.00827
0.44727746,78.09739
0.48479402,70.16088
0.41296268,72.57508
0.41298804,67.227936
0.25479344,60.707516
0.45244402,62.267117
0.25401726,58.93214
0.27132675,53.76726
0.22000773,50.15542
0.3424999,50.291805
0.31632948,44.75257
0.2514129,42.46025
0.36384583,41.30961
0.28020123,40.0
0.43836942,40.0
0.29256997,40.0
0.27658647,40.0
0.1320332,40.0
0.05576398,40.0
0.008047585,40.0
0.071854,40.0
0.08081172,40.216953
-0.04864424,40.0
-0.060976006,42.00954
0.016688762,44.543743
-0.110170536,50.020195
0.025277935,51.16181
-0.031537794,55.342533
0.15980402,57.82251
0.12687229,64.01948
0.34784013,67.57813
0.34506604,75.197334
0.55513674,79.52289
0.6480287,79.21788
0.76326543,89.70011
0.92474824,91.81188
0.9427743,99.795586
1.1530161,106.19061
1.0808208,114.63163
1.1541528,116.4227
1.2720152,120.91217
1.265165,124.16871
1.2240709,130.33629
1.3019563,131.0759
1.2926601,133.24055
1.3624525,135.62909
1.5046756,141.62022
1.3822691,140.9303
1.4756751,143.35986
1.3292229,145.44633
1.2798982,151.03409
1.2983482,145.49222
1.3431376,142.69257
1.3661501,148.98058
1.2934642,144.24464
1.3350314,142.01706
1.3106744,136.4592
1.2238489,139.87836
1.1676669,138.47733
1.1316404,135.08096
1.1140146,134.48557
1.0686151,125.07883
0.95044297,130.54071
1.018689,120.035095
1.0234685,120.09487
0.993066,118.55802
0.9081902,116.52851
0.99911803,113.25804
1.0505083,109.94302
1.0411134,105.31691
0.85248244,101.89326
0.9295429,98.93726
0.9493405,97.02008
0.9054911,92.961754
0.91660875,91.63212
0.86644244,91.274315
0.8045482,86.35581
0.74974865,86.49075
0.6021326,78.76978
0.6624457,79.17291
0.6955609,75.40001
0.5487841,68.560036
0.5307343,69.212296
0.48798347,61.47706
0.5146425,65.10363
0.48595434,52.806206
0.49867618,55.241875
0.45665076,50.895714
0.48153195,50.007557
0.5077374,46.20684
0.50594354,48.280563
0.42642477,43.579254
0.46507704,40.0
0.4460936,42.237602
0.5485783,40.0
0.37704372,40.0
0.36541775,40.0
0.32709387,40.0
0.30833286,40.0
0.28406188,40.0
0.28833836,40.269535
0.15656705,40.0
0.16341993,40.0
0.19595064,46.250507
0.13966136,43.17994
0.11212641,48.997917
0.23837274,52.486317
0.1747928,55.793972
0.38852566,56.83031
0.5660232,64.94384
0.62398404,70.573685
0.6689123,74.476
0.693541,85.37467
0.9250883,87.43947
1.0140504,88.84064
1.1703413,99.980354
1.2239436,98.014626
1.3769621,106.342445
1.3921019,114.34191
1.3796177,118.08278
1.4892857,121.525345
1.57332,127.146385
1.686358,131.97253
1.605097,134.94887
1.6325358,131.95546
1.6391538,138.6166
1.700776,138.9447
1.6309327,142.74974
1.7631929,145.51945
1.6749668,146.80753
1.6536334,142.11191
1.6163467,145.49709
1.6084037,145.78987
1.5582103,149.1945
1.5383769,144.29022
1.3871534,139.08276
1.5504248,137.988
1.4235141,139.3839
1.5122405,136.23936
1.3739692,136.11848
1.3833692,130.74274
1.2979469,129.92389
1.3258643,126.636116
1.329577,124.51578
1.2184501,117.15999
1.2644486,116.00829
1.3145293,115.3154
1.261831,112.67915
1.2867994,110.12354
1.2192829,104.61163
1.2669221,102.06901
1.128791,100.17996
1.1526369,96.00922
1.1239463,93.36926
1.1503204,92.446205
1.1656529,83.63052
1.1766262,85.50048
1.0339048,80.94613
0.93671286,79.63156
0.9174482,73.148224
0.86572886,71.04841
0.7860138,70.65377
0.74967456,69.724396
0.8060104,68.2202
0.860515,61.41761
0.82751733,56.527103
0.9261436,57.93775
0.75299317,52.456036
0.7052937,49.193142
0.74589413,48.003693
0.7553694,45.290833
0.71823514,42.403126
0.71103275,44.50222
0.6518042,40.0
0.59782195,40.0
0.73549014,44.720646
0.61710733,40.0
0.54547775,40.0
0.49946094,40.0
0.4423073,40.0
0.45393252,40.0
0.4804577,40.0
0.4009665,41.189434
0.42686066,40.91593
0.47541726,45.911495
0.5469037,46.96602
0.5125921,52.095516
0.579766,57.320137
0.5603035,60.334423
0.7158949,66.70552
0.8859506,71.66579
0.92116416,73.33069
1.1053045,83.503944
1.146894,84.87363
1.2674433,89.161674
1.376062,95.6631
1.4203959,98.4361
1.6899242,104.69031
1.6170636,114.60558
1.806069,118.49366
1.6649439,120.96558
1.7995261,126.83354
1.8464311,131.72299
1.9146472,131.86865
1.9658507,136.61082
1.8052431,136.39612
1.9676212,137.68892
1.8589215,143.78021
1.9270204,146.83646
1.9476588,143.61395
1.9057635,145.33398
1.8709184,148.70142
1.9074343,143.93874
1.8273941,144.94418
1.7283907,142.6464
1.6861463,149.00201
1.6557723,140.8047
1.7068468,137.42879
1.6252737,135.13708
1.6568857,131.92673
1.5579871,132.05035
1.5487005,127.21588
1.464745,125.55107
1.6341046,120.53757
1.4258142,120.78933
1.5048157,117.209076
1.4650218,112.50151
1.5259889,108.91228
1.4146755,105.994705
1.5041296,108.18932
1.4394001,99.6305
1.3541731,97.635826
1.4084378,96.62183
1.3388169,93.47766
1.3665669,87.351364
1.2962797,87.66349
1.206909,86.859055
1.2888243,83.176956
1.1234959,78.58132
0.99575645,76.77317
1.0648268,67.81473
0.94491255,69.17358
1.0133598,65.73656
0.9500032,68.176575
1.0085926,60.997147
0.9763297,58.78779
0.92512333,53.94409
0.9469142,52.193573
0.94755214,52.250328
0.9219123,48.119278
0.9595349,44.311188
0.96871346,44.980347
0.8520774,40.0
0.9600984,41.35818
0.7827202,40.0
0.7205455,40.0
0.79688436,40.0
0.68997276,40.0
0.6810656,40.0
0.7423222,40.0
0.6647774,40.049503
0.5989042,40.0
0.59620976,42.194355
0.585023,41.7124
0.560932,44.181324
0.58870083,52.563156
0.6644331,55.034924
0.5972586,60.009415
0.7659976,68.78052
0.82608336,62.513817
0.97512466,72.94373
1.0938025,77.51682
1.2222995,84.08649
1.3329018,87.66268
1.3980143,93.106026
1.5331585,97.49597
1.5674953,103.38243
1.684879,109.45465
1.6926963,109.96513
1.7970842,119.88391
1.7620347,121.89051
1.8403188,125.8372
1.8814809,128.27478
1.8452692,134.26836
2.0153353,138.20694
1.8849338,140.68112
1.9532743,142.19847
1.8857962,144.70724
1.9357129,143.16594
1.8235812,147.45975
1.8714508,141.31311
1.8132554,145.54666
1.8434864,147.82225
1.80356,143.42307
1.8810652,144.20502
1.8052692,142.38356
1.6889821,140.4072
1.7405435,134.1273
1.593957,134.3804
1.5925595,132.7718
1.6045773,128.2464
1.670723,124.691345
1.4427997,122.15438
1.5432494,122.96076
1.4321699,114.70294
1.4185239,114.72239
1.3916342,114.684555
1.5123808,105.986885
1.4269984,104.95441
1.3853581,102.883194
1.410342,98.28585
1.325561,100.47063
1.2572339,96.5555
1.3249356,92.896576
1.2742722,91.20412
1.2203639,90.03542
1.1463345,83.71339
