ppg,abp
0.9479737,123.01539
1.0915372,120.95158
1.18703,125.47375
1.3260993,127.756874
1.3574934,127.27309
1.3385273,131.49745
1.3661743,135.9066
1.5049747,134.89235
1.5163991,133.16814
1.5530297,140.49507
1.6354796,140.0324
1.6964155,144.45287
1.6407332,143.93224
1.6624552,147.27776
1.7322638,147.18443
1.7448376,146.79416
1.7734494,150.70583
1.7430521,151.03802
1.8193003,149.84111
1.7941424,152.13576
1.8162931,157.27632
1.8130848,152.40547
1.714694,153.48232
1.7458375,154.58034
1.7043062,154.36575
1.7293059,153.59608
1.6965171,152.91507
1.6248988,155.63992
1.6445512,154.4238
1.6626911,152.21939
1.6639149,152.07323
1.6821873,152.36691
1.6214241,151.8438
1.5361975,150.36734
1.4923297,148.62874
1.527992,151.03491
1.5693222,151.08514
1.5148005,142.89848
1.428864,147.41995
1.4354442,143.17363
1.467644,141.14044
1.3807487,142.62767
1.4480497,137.70955
1.3715966,139.2873
1.4182035,135.83319
1.4257101,133.7183
1.3930064,132.11034
1.359147,132.28409
1.3668733,134.787
1.3504162,133.61136
1.4096022,130.13396
1.303554,127.84977
1.3705658,125.80246
1.3478373,125.128586
1.3096068,126.980835
1.3731673,123.15793
1.3160999,120.81134
1.3099375,119.49744
1.2848672,116.951035
1.2359744,119.16627
1.2353536,117.63922
1.2357814,116.910194
1.1501061,114.81475
1.2034129,116.26529
1.1472293,111.360985
1.0290711,111.646935
1.0123875,107.55895
1.0049219,104.87644
0.9892379,106.660706
0.8927088,106.252495
0.9590698,107.49788
0.9740815,107.417404
0.87778527,99.52302
0.8600551,101.74146
0.9153121,99.721466
0.86763203,100.067444
0.9473717,102.14885
0.83250874,96.08964
0.831298,99.78885
0.8532005,91.18795
0.8557656,92.65753
0.8250553,93.108444
0.86892956,94.33595
0.8795803,87.36831
0.84339976,91.118706
0.8559674,88.37558
0.7618962,89.09802
0.77869767,84.88478
0.8405001,84.51017
0.77781,84.570984
0.7494807,86.87158
0.7626067,85.686386
0.82171375,88.97166
0.7128995,85.26743
0.72951275,83.49228
0.59947455,86.00318
0.65150994,89.61669
0.6157807,85.772896
0.5695733,88.33543
0.48787075,91.398476
0.6139852,89.77657
0.6301857,89.018295
0.53112084,91.23545
0.5604737,92.43818
0.6155568,89.77162
0.52432185,94.14602
0.66555077,92.54468
0.72123265,99.29527
0.7751478,100.56722
0.9054146,100.74534
0.87255144,105.87789
0.8764127,107.0217
0.9223289,107.478065
0.9878968,108.90991
1.1998801,111.68288
1.1797559,112.698746
1.1585896,116.68303
1.2888656,119.75978
1.4928166,122.574844
1.4729159,125.74534
1.4608082,124.544044
1.5771595,125.179306
1.7204689,132.78125
1.6413522,132.48413
1.7808641,136.81064
1.7255161,138.53757
1.7869831,138.29362
1.9058579,139.74126
1.8924272,141.9834
1.8598409,144.47542
1.9360596,145.23112
1.9287754,144.75441
1.9094968,148.41548
1.936837,148.36485
1.9329478,150.56526
1.9210031,150.42387
1.9785112,154.28781
1.936729,152.08708
1.901646,151.70438
1.9087929,156.87874
1.9846896,154.66446
1.8650246,150.2702
1.8870682,152.51295
1.8532016,150.91956
1.8681026,153.25209
1.9214882,150.39575
1.8638353,150.42123
1.6621696,154.82344
1.8276411,155.88863
1.7668455,151.31955
1.7574769,148.31233
1.7454853,147.7248
1.7182528,147.33478
1.6399945,144.66408
1.6850226,142.11684
1.5758735,147.4591
1.6703885,142.05638
1.5809685,141.34285
1.5827882,139.13702
1.4570986,144.27545
1.6405771,139.49643
1.4484974,139.59387
1.4291342,134.92003
1.4614518,137.92073
1.4900411,134.67305
1.5269495,130.52081
1.5222967,132.12296
1.3779827,129.22755
1.4293567,130.3682
1.4083334,129.37675
1.4576105,126.74481
1.4087968,123.98451
1.3236905,121.528656
1.4620192,122.64967
1.2589226,124.14862
1.258721,119.0087
1.2693982,120.55491
1.2523204,119.45386
1.2870731,117.67651
1.1706728,114.49703
1.1413633,111.44019
1.2126656,112.531975
1.1020273,110.0238
1.0712037,109.01166
0.90825814,112.37279
0.9927881,108.06134
0.9333661,102.76412
0.9782192,109.72944
0.8916543,104.31717
0.92902845,102.36784
0.8702923,99.24098
0.8274306,100.906334
0.8191848,99.77043
0.77244836,94.50329
0.81215334,96.68416
0.8949065,97.02994
0.85289514,93.7182
0.82306606,91.677376
0.8403263,92.058586
0.8018953,92.10284
0.82171917,87.20557
0.8635757,91.2877
0.73801357,93.010475
0.80384433,89.27161
0.71458423,88.32232
0.7488331,89.250626
0.64693934,88.13343
0.6910624,88.829285
0.6549807,85.91164
0.6084385,84.099045
0.6196244,85.15947
0.49842164,89.26386
0.40062353,86.33797
0.45956653,85.49903
0.30431798,84.674904
0.46995735,91.69286
0.4210905,87.87455
0.30520558,92.316315
0.39274922,87.43107
0.38430727,89.21427
0.40859887,90.77697
0.38622484,91.9748
0.45224053,95.48328
0.42420155,94.90689
0.5176623,99.32982
0.5958111,99.308876
0.6147677,98.28677
0.590757,106.76401
0.67477095,107.78573
0.8052724,109.37849
0.8184896,109.1352
0.8816208,111.698944
0.8920166,110.650276
1.04226,114.08441
1.0090051,118.68124
1.1415128,119.71493
1.224417,122.07833
1.2938343,127.64743
1.2636138,130.65596
1.4317158,128.14046
1.4367447,131.14876
1.5119201,131.2692
1.5596442,136.12633
1.6244805,137.82486
1.5418335,140.81783
1.5931362,141.827
1.5584253,142.7673
1.608471,142.11446
1.6071163,145.239
1.6837708,150.20291
1.6953067,149.16515
1.5840251,150.21179
1.6654439,151.23346
1.6581563,150.52805
1.6402575,151.0113
1.6834393,152.02806
1.5592681,152.59857
1.6947879,150.06985
1.646363,151.79077
1.6019078,154.68578
1.538496,152.36629
1.5785346,159.1288
1.4595573,152.73389
1.5449759,152.06061
1.4158134,151.8834
1.4300234,148.58504
1.4580773,149.22978
1.3977804,149.05998
1.3803272,146.26585
1.42912,149.13402
1.3899635,148.64612
1.3307667,149.42427
1.3246446,144.82274
1.1979493,142.72087
1.1782639,141.06609
1.1721448,139.7484
1.2063003,141.64125
1.1785594,139.2433
1.2574689,135.27432
1.1973603,134.63765
1.094475,137.52039
1.1124004,133.22903
1.113879,133.99068
1.0874863,131.83351
1.1031095,130.63626
1.0104231,132.84775
1.0975996,124.83574
0.9994032,130.60397
1.0164006,127.06936
0.91772926,124.18582
0.99793756,124.785995
0.9213014,122.95371
0.89727753,119.7034
0.88973874,120.47261
0.790626,121.93318
0.80875546,118.6014
0.7889224,114.24808
0.7430956,116.55524
0.74799657,113.23626
0.66421133,114.99672
0.6713569,110.920906
0.5578174,109.395615
0.5344167,108.43651
0.523088,110.2579
0.50345004,106.727776
0.58888245,105.0886
0.47802117,105.445015
0.4237248,105.40541
0.3932629,100.65288
0.48779774,102.8511
0.48434803,99.1695
0.41916934,97.477455
0.39837766,95.997734
0.4026388,96.18165
0.41644076,91.99108
0.4314546,99.295746
0.46139458,89.78025
0.38347942,91.40792
0.48533055,90.55591
0.47328988,89.25787
0.40038374,88.546715
0.34785676,84.92654
0.2997503,88.78006
0.29248735,89.73352
0.28129834,87.88707
0.23251729,86.25031
0.20433259,86.15016
0.22285195,86.65113
0.085224584,83.31477
0.13034831,86.3878
0.10650304,83.90886
-0.006157845,88.62001
-0.052919343,87.779144
0.07151659,90.36248
-0.0390384,88.631966
-0.03465223,93.81889
-0.06326328,92.55036
0.00364975,94.04718
0.024873704,92.603485
0.06547471,93.28249
0.114795476,97.25518
0.05894523,98.053566
0.10899865,97.95591
0.10095798,101.0023
0.2874354,104.30277
0.3142151,103.224846
0.40957358,106.0914
0.4791641,110.09476
0.49976066,110.38844
0.50280416,112.91889
0.7181025,113.71237
0.77179253,117.219666
0.81176436,119.84922
0.7944886,124.28738
0.84166145,126.560486
0.96320003,129.96655
1.0454255,127.57693
1.0275186,128.97157
1.1737877,136.94983
1.2564952,136.83957
1.1790626,136.04222
1.2406901,141.107
1.3270103,142.7381
1.3797029,143.17767
1.3109354,146.14558
1.1977081,145.94891
1.4209102,143.29578
1.3294243,146.71442
1.3017274,145.05208
1.3341329,151.59277
1.3686777,150.47766
1.3565596,151.66808
1.3821194,152.862
1.4371457,152.84439
1.3545854,152.93315
1.3957471,151.75668
1.3426721,152.68973
1.2588875,152.97481
1.2974429,153.5107
1.1670297,149.69336
1.2657342,151.82866
1.2550503,150.46353
1.2757471,151.8784
1.297606,151.71153
1.2080324,149.34265
1.1825515,150.66446
1.0629568,152.231
1.1405588,149.50636
1.1686984,147.93114
1.0680017,147.0439
1.0948793,143.12236
0.975588,141.52509
1.0445131,144.78566
1.0805839,140.58516
1.0325677,140.09857
0.9334904,140.30267
0.9913135,138.90771
0.8635567,136.6116
1.0405462,136.77846
0.90982133,133.41011
0.929042,132.45116
0.9577746,127.81759
0.82129467,131.34401
0.9334074,126.002205
0.8210546,125.772026
0.8539632,125.52207
0.868411,125.15102
0.8858219,121.04758
0.90056247,121.67546
0.7625656,121.664604
0.80112624,120.19968
0.7510778,117.79896
0.75749046,117.86874
0.77679276,117.54284
0.70897895,115.40331
0.6599739,112.86605
0.6404094,112.68331
0.61786896,110.71414
0.53690755,109.46866
0.4853844,108.1521
0.42362374,105.943726
0.5043858,105.337364
0.5009199,107.94225
0.50355816,102.40509
0.24808918,105.08916
0.37203532,99.845245
0.36663198,98.13628
0.42343256,101.406456
0.43003157,99.24283
0.36867753,96.65881
0.40385497,94.65282
0.35238513,93.76434
0.40148968,88.32151
0.33441985,90.630295
0.38285813,90.562294
0.31025493,89.90831
0.3578396,89.63872
0.32082546,88.77218
0.3513584,88.55236
0.3955898,87.767876
0.22562076,87.73175
0.38682628,84.51321
0.3716637,86.41526
0.16313139,83.20653
0.17771237,86.854034
0.26059875,83.67675
0.07086336,85.35354
0.112660564,85.440445
0.1405872,85.65098
0.11728916,84.51782
0.0526125,90.195564
0.09326341,89.99683
-0.010627861,91.73777
0.041932832,90.929504
0.025444692,89.82997
0.17699389,93.47822
0.023551587,94.74924
0.17458507,97.17946
0.20816723,95.148674
0.23086382,99.40225
0.32650417,98.92413
0.34267858,102.44044
0.5121672,103.13659
0.5704329,105.92898
0.6410687,109.56734
0.57974696,112.08149
0.6814352,109.2614
0.8414958,116.53893
0.88826853,119.9633
0.98426646,115.84551
0.93409127,122.44651
1.041378,127.39884
1.1411009,124.35941
1.247697,127.20409
1.3238877,130.26764
1.3079475,134.82095
1.3430632,134.72745
1.3597327,137.75398
1.4980918,141.27193
1.571373,140.06035
1.4546751,141.67218
1.4414141,146.29008
1.5365103,146.23508
1.6637166,147.79471
1.509432,144.58235
1.5009315,148.4425
1.5943402,151.97879
1.5804422,151.44223
1.5806789,149.8573
1.6607077,150.40929
1.6868724,151.18204
1.6295938,153.3934
1.6435068,153.51685
1.6183048,153.72156
1.5757905,154.83015
1.5633119,151.66292
1.5761831,153.27141
1.532009,152.69817
1.498115,151.26665
1.5503508,150.22844
1.5081774,150.70836
1.5136337,152.13226
1.4119016,150.39421
1.3202873,146.20366
1.5211873,145.5929
1.4162303,147.90714
1.4138601,141.28317
1.2978655,146.72421
1.3934926,142.45361
1.3477461,143.59125
1.316186,141.00679
1.3568162,140.18683
1.2429616,137.12354
1.3283277,137.99782
1.2984672,134.7934
1.2219473,134.77707
1.3880265,138.93303
1.2614292,132.16698
1.2180306,130.85907
1.1853869,131.93149
1.1875628,129.93076
1.2524338,126.14426
1.1822551,126.9883
1.267701,124.3281
1.3169514,124.604576
1.230125,123.42923
1.1811273,118.33367
1.161203,118.60652
1.154322,117.928246
1.0916377,117.13193
1.085409,120.44924
1.009552,114.93582
1.0668738,113.653175
0.9389719,111.54569
1.0300686,112.37469
0.9738647,108.38664
0.93210024,107.21604
0.8429697,109.144295
0.9704013,105.866844
0.9125355,105.49446
0.8753331,102.02882
0.7994261,102.068665
0.81419736,102.20761
0.7885105,101.75612
0.78768444,96.335434
0.78265375,101.16356
0.7565514,96.43644
0.67447823,96.142494
0.7864877,94.13107
0.779366,96.83787
0.73371714,88.38298
0.70837235,93.52559
0.7863036,90.54042
0.87610066,89.88506
0.8711377,85.856255
0.7744166,85.98566
0.67172897,86.73888
0.7768497,86.23979
0.6347873,87.8919
0.8144742,84.267456
0.6166815,84.56936
0.59848094,88.42431
0.59795934,87.75319
0.6047719,85.33051
0.56623477,83.40692
0.45837122,87.742424
0.5659121,85.98388
0.5291495,86.37893
0.48334542,88.38135
0.3947702,88.584785
0.5310465,89.888725
0.49764934,92.01907
0.4986573,93.171104
0.5295113,94.594376
0.6372682,93.477356
0.59111553,97.649506
0.651201,100.90306
0.6452088,98.71634
0.708974,105.2018
0.76805943,106.597275
0.8547295,107.00597
0.95421726,108.75578
1.0977284,110.303474
1.1676594,113.54402
1.2391702,115.95521
1.2548864,116.67791
1.3654107,120.715225
1.4261806,123.750946
1.501408,123.19969
1.4418887,126.57376
1.563381,131.34741
1.6713415,131.06325
1.616774,132.76517
1.7924211,132.49669
1.8572284,136.24002
1.7994225,139.58942
1.7882427,142.5556
1.9146099,144.62749
1.9784465,141.56897
1.9037,143.83673
1.8485336,146.74446
2.0142171,147.88133
1.9047129,149.61943
1.8583248,146.75856
1.9391077,153.23691
2.022164,152.4474
1.8820765,151.9383
2.0457788,153.8168
1.9321294,154.93655
1.8249216,154.46846
1.924385,151.35597
1.9038991,152.12775
2.0297222,153.18806
1.9199127,151.98932
1.8691505,156.36812
1.8693856,151.36899
1.8546351,150.86139
1.7969786,146.71762
1.7612264,152.56242
1.6595926,148.06024
1.6697023,147.69066
1.699869,147.67062
1.7522069,145.5923
1.5943341,150.00792
1.7342788,143.58615
1.7097791,142.16362
1.5870194,142.68964
1.5628256,140.59212
1.53303,140.32881
1.6013348,139.69739
1.5303342,136.9167
1.5665293,133.59512
1.5819812,136.32848
1.4882033,136.0789
1.4893279,133.4688
1.4733831,132.29529
1.4419239,130.42139
1.4526489,130.05151
1.5116997,128.08748
1.4617715,129.53354
1.4578769,126.51747
1.4114344,122.57518
1.4554121,122.7472
1.3450612,120.81586
1.3737693,121.93262
1.3271403,118.18524
1.2928987,118.28936
1.2558775,120.623726
1.2461971,114.10495
1.1970196,110.86062
1.1039028,115.096344
1.0674766,114.37051
1.1533943,108.77569
1.0278682,108.522026
1.0747637,108.06603
0.9271463,103.089874
1.0255133,105.14582
0.97025204,102.48776
0.96777314,100.83509
0.944601,101.39292
0.8451615,103.11562
0.8639593,100.69952
0.9220399,100.48835
0.9667101,94.906746
0.94411445,98.818245
0.8436792,89.68257
0.8724985,93.220375
0.8824879,90.95433
0.8389749,89.69558
0.8701293,92.18022
0.8501315,88.12361
0.87602895,86.4974
0.80683655,89.94915
0.81483114,85.367676
0.83700085,87.39035
0.7069326,87.72209
0.791088,89.18974
0.77717763,86.60661
0.72440845,85.99412
0.70426077,84.26602
0.58580273,85.20444
0.5422505,87.9224
0.51408917,84.39594
0.5837922,81.23811
0.5122093,89.92586
0.4908292,87.94597
0.45159048,88.36641
0.5310224,89.04847
0.45194194,92.213646
0.5267986,92.509865
0.43616188,94.3539
0.45840597,91.93212
0.5601428,95.094315
0.6064789,99.04787
0.5556641,99.55277
0.6927988,101.24539
0.74015814,103.45031
0.83194935,108.113
0.7614099,104.45006
0.8752751,112.38637
1.0273405,112.9895
1.0945178,113.4732
1.1111871,119.13179
1.1800854,118.982506
1.2231253,120.29691
1.4080966,124.871056
1.3894218,124.770454
1.571219,131.38556
1.4819446,133.09756
1.4709609,133.82993
1.5511562,133.92366
1.7077037,137.39864
1.596432,137.46947
1.6657705,138.60506
1.7552869,140.2913
1.7719178,141.47354
1.6781828,146.12628
1.7058566,146.95093
1.8015246,145.43185
1.8018202,146.78896
1.7430426,149.85307
1.7412381,152.01494
1.8376782,150.99785
1.8275138,151.3236
1.7566053,148.17647
1.7777878,153.92021
1.858752,152.41168
1.817955,152.83173
1.646703,153.77905
1.7394638,153.52272
1.7166032,153.53407
1.6506393,152.54832
1.6358935,154.75908
1.667766,154.82242
1.5470994,151.4477
1.5482135,151.89722
1.4659178,149.10924
1.5140092,150.83902
1.4654417,153.69005
1.4908344,145.71948
1.3097229,147.69917
1.3863778,142.24126
1.3943193,144.19379
1.2899603,144.2162
1.3241638,138.60086
1.2781109,141.84761
1.2898558,138.46126
1.2151865,140.03497
1.2204604,135.22226
1.2738522,139.21632
1.3322927,132.22562
1.1701978,132.28867
1.14889,131.91396
1.080909,131.63307
1.0957164,124.763916
1.1924841,126.732414
1.2245363,127.690575
1.109159,124.82161
1.1274577,124.72059
1.0894248,124.90195
1.0544617,123.260605
1.0291926,120.95457
0.9997105,114.94796
0.9477827,114.44996
0.8860356,118.24877
0.88660276,115.46369
0.81438315,114.00029
0.73147917,114.69535
0.7784375,108.93149
0.83455527,110.665054
0.73463887,111.27226
0.7440139,108.17618
0.60671145,105.981384
0.6216608,107.06696
0.63118136,103.8788
0.72893745,103.30685
0.53665173,101.981964
0.57887524,100.710266
0.5806334,101.8438
0.5392547,101.20072
0.57583976,97.512436
0.48032695,97.49738
0.57293135,95.66379
0.54136115,90.81621
0.52674395,96.07513
0.43396834,91.599434
0.37719208,91.07629
0.42938873,88.88843
0.41048706,87.92855
0.43504646,87.47844
0.523793,85.02884
0.32279816,85.246185
0.4294317,87.22758
0.2806273,84.44215
0.29464465,88.813255
0.31708056,84.843346
0.21304378,87.45634
0.20870273,85.10346
0.11801103,85.92447
0.13662565,85.027954
0.099021845,87.45922
0.068489894,87.71496
0.11743195,85.44797
0.033089172,89.64686
0.070514336,92.1013
0.14865734,88.71864
0.13718186,93.51119
0.017980462,91.114265
0.06048628,94.76993
0.09604707,95.404785
0.12804554,98.45667
0.2912511,97.16104
0.2836713,103.066895
0.23724459,101.64062
0.41344988,102.40823
0.43043187,107.68831
0.4795837,110.87924
0.5512791,114.020256
0.73652214,115.60637
0.7646766,115.95337
0.75870645,119.462036
0.9492674,118.259735
0.9268085,124.44753
0.9669848,124.64846
1.0357007,131.09584
1.1524293,131.46233
1.1341738,131.00262
1.1953049,135.06824
1.2039658,132.69144
1.2003725,137.2929
1.3407619,138.63077
1.3498541,143.24777
1.2994058,143.87888
1.2300769,144.71085
1.4031028,144.89665
1.3096356,148.48674
1.2916178,150.92719
1.4089073,150.68896
1.4202445,146.85841
1.5188223,150.93289
1.3929334,152.82318
1.3964262,154.48914
1.2579784,151.61885
1.5010796,156.3817
1.3143764,152.71202
1.3495567,153.01932
1.3415415,154.12021
1.3697,151.73975
1.3045025,150.54823
1.2205753,153.60017
1.2442995,153.9835
1.2376752,153.39677
1.2133257,153.97627
1.2244042,150.23944
1.2052277,154.28696
1.0863416,146.22426
1.1498708,149.21712
1.1159856,142.72737
1.0798974,144.80475
1.119707,144.41005
0.99155307,142.5312
1.0522742,143.9418
1.0702198,140.33241
0.91450727,139.87949
1.0001928,135.93512
0.93475854,139.2716
0.88104063,132.9851
0.9304939,132.14207
0.87429863,133.22621
0.9244671,131.22836
0.94736636,127.975464
0.9587284,130.66399
0.89590865,127.722984
0.7964143,126.59065
0.9666124,123.185814
0.9253085,128.939
0.81091964,123.733215
0.8335155,122.65786
0.80946743,119.61132
0.7326778,120.1967
0.72834903,117.85367
0.6378842,114.70508
0.595521,115.77926
0.7041263,114.95598
0.65540403,116.09355
0.5912002,110.597305
0.5865658,107.7907
0.4880367,109.77745
0.46033105,106.27937
0.404197,109.72813
0.4584092,107.02554
0.33909255,104.21721
0.43392953,102.789925
0.36671326,101.87063
0.46823108,104.1662
0.23371269,99.67131
0.38494498,99.06022
0.24230313,98.40185
0.4058728,97.23933
0.26426342,92.80509
0.22564742,93.38427
0.29172015,92.35304
0.3000758,94.37768
0.32527384,91.49312
0.40462625,89.81244
0.35471082,88.222404
0.40856174,88.011986
0.41820872,85.1298
0.17724939,87.0514
0.25799602,88.01006
0.14744051,87.664055
0.20184492,85.30501
0.14953385,85.59605
0.08257371,86.71137
0.25456274,83.9551
0.083673775,82.98435
0.031624842,85.9211
-0.014643582,91.249084
-0.023300812,86.16266
0.09188124,85.3959
0.042671748,90.53282
0.018239679,88.16656
-0.051481243,86.055145
0.06253703,91.53871
0.043369517,94.946075
0.05910091,95.72421
0.13964592,94.75925
0.20311774,98.70005
0.19581173,101.55854
0.21481109,102.106186
0.27785084,103.36769
0.3114313,104.2723
0.4084751,107.27175
0.4651627,111.704956
0.6089578,108.20478
0.640588,114.799545
0.7100869,118.75434
0.8731814,114.011986
0.841319,120.751495
0.9478717,123.542564
1.1164014,127.576324
1.1036052,130.24213
1.2237043,128.97937
1.2352643,130.72818
1.3065207,133.72275
1.2641094,137.11566
1.3592423,136.17548
1.2564961,140.91599
1.4253417,143.27644
1.4091147,146.5732
1.4409496,145.95059
1.3669118,146.83588
1.5141865,144.04597
1.38818,148.34265
1.5123292,151.3235
1.5313914,150.6818
1.4694765,154.52042
1.5555495,150.31776
1.4484444,152.66867
1.488518,155.31775
1.4944288,153.75601
1.4583035,152.36044
1.5038092,151.02525
1.499285,157.26407
1.497502,152.88695
1.5287273,152.13461
1.4328566,151.2358
1.4497712,149.63995
1.3086712,153.66924
1.3049159,150.80396
1.4013824,148.4481
1.4625514,152.2777
1.2523626,150.30957
1.355816,144.11134
1.272687,147.58038
1.2080567,142.85742
1.2062517,141.54657
1.2494849,144.72528
1.2147596,140.9336
1.1131122,139.98502
1.1508789,141.51471
1.1491134,138.4821
1.1895387,134.23346
1.1621898,136.6816
1.1594043,137.50516
1.1276764,134.02391
1.257349,134.1086
1.1206394,131.44891
1.1914947,131.15231
1.1651522,128.27086
1.0351332,128.27776
1.0337603,127.50399
1.1618627,121.255165
1.0273789,123.047745
1.2019384,122.15276
1.0587776,121.52626
1.106948,118.06782
1.0268489,118.55469
0.9971427,119.041275
0.91090614,115.83461
0.9234861,116.05541
1.0389881,116.46556
0.9102413,113.27793
0.8512258,109.691574
0.8022871,111.15198
0.7296722,108.0227
0.7482742,107.24379
0.68758047,106.27441
0.7691646,104.88643
0.6595731,102.89179
0.6400205,103.20138
0.66855735,100.145
0.58685184,102.084145
0.7160544,95.089264
0.6834977,95.2743
0.7439255,97.12234
0.68786305,93.21688
0.63576156,95.12574
0.6674012,91.35582
0.7492446,92.514206
0.78756624,92.92151
0.7507843,91.03637
0.73361665,87.36097
0.70833945,89.35799
0.6871042,89.85084
0.6747589,89.33934
0.5409917,84.16765
0.55233073,87.584854
0.56454617,87.56985
0.5696605,87.26433
0.5098596,84.71146
0.49055275,84.86943
0.43532738,85.45792
0.4025964,86.14869
0.34156325,85.63893
0.45867664,87.330894
0.44749433,91.687065
0.3965117,90.105736
0.38800314,88.08378
0.36859345,89.77316
0.3972138,91.42435
0.37364316,91.167915
0.4085882,95.16123
0.4921928,94.76399
0.5664834,100.36254
0.5709788,102.16047
0.647708,102.28984
0.70957893,101.05703
0.8146348,104.21182
0.796118,105.5195
0.91036975,109.57535
1.0408264,115.83262
1.0074359,113.95039
1.1188518,117.7537
1.2254368,119.29685
1.2640038,123.816315
1.3878559,122.30842
1.4116442,124.85597
1.4049426,128.54372
1.3751796,130.421
1.598265,128.72589
1.5553246,137.43597
1.6168555,133.76425
1.6836847,140.79668
1.7878821,137.42255
1.8132318,141.02596
1.899893,141.24384
1.8171068,145.4621
1.9168526,144.0242
1.7988778,150.73204
1.8511562,147.03003
1.9656909,150.19687
1.7760549,148.63702
1.9570541,150.99861
1.9494967,152.52676
1.9642595,151.74936
1.8793188,150.19011
1.9582816,154.78783
1.9094317,152.67719
1.9423215,154.74895
1.9001527,152.58026
1.8322769,151.26863
1.8143318,153.7447
1.8179554,155.5788
1.7953291,152.11836
1.796138,152.76422
1.7520204,151.15442
1.7975603,150.60518
1.6287589,149.57925
1.7546778,149.27777
1.659471,148.56165
1.7202864,146.85031
1.694976,142.76288
1.5610372,144.94736
1.5661457,143.66238
1.5726107,139.98439
1.5130938,137.82265
1.5431646,139.95622
1.484734,139.09721
1.4663968,138.76158
1.5455784,135.49902
1.5082085,133.03043
1.533975,134.16313
1.512337,131.67993
1.4452424,132.5548
1.4545921,130.09105
1.386436,131.55692
1.4115261,128.53099
1.5134523,124.7069
1.4479195,124.15528
1.399821,122.28957
1.3529423,122.479996
1.3610739,122.023926
1.383622,120.70257
1.3529755,118.00779
1.3748307,117.67473
1.2928038,113.85361
1.1398722,115.03986
1.2459351,112.4211
1.151356,109.54154
1.2086577,109.5307
1.1009393,111.432175
1.0991001,110.384636
1.042714,106.716034
1.0181196,105.21493
0.93889195,104.58472
1.0124542,102.742035
0.9772725,104.90919
0.94823927,101.792625
0.88114476,98.49259
0.99372935,100.63785
0.80751157,98.5842
0.9116878,96.10881
0.94594216,95.123215
0.8829203,95.8786
1.0004642,95.542336
0.8913291,92.001625
0.94631684,93.56928
0.94701636,88.05361
0.8492981,88.44836
0.8158744,92.55874
0.8311196,86.39847
0.81898606,91.89378
0.8749756,86.41394
0.85156274,85.47831
0.7774047,91.22134
0.7811228,85.63351
0.6659841,90.32428
0.5945465,87.45892
0.6894383,86.04577
0.5727624,83.74015
0.5270396,85.70354
0.5788966,85.82314
0.5663394,88.63809
0.5843671,88.47972
0.5592881,90.9679
0.5438065,89.38087
0.50453407,89.00883
0.53861225,92.23199
0.58099735,97.02747
0.6125173,96.22019
0.5769738,95.57835
0.6558872,100.20331
0.6891266,102.09628
0.6507101,103.86597
0.86136824,100.465164
0.89754814,108.79368
0.97820175,107.58277
1.0546143,108.96252
1.1322036,112.5117
1.1843725,113.240845
1.3246648,121.791565
1.2680316,123.35802
1.3657421,124.76475
1.4236504,125.19529
1.4804876,125.384445
1.5685955,129.06078
1.6889961,131.18097
1.6967531,134.25906
1.748713,136.64731
1.7738332,137.07881
1.751184,136.79642
1.701521,141.78891
1.8297509,144.07065
1.7837353,145.91515
1.8687999,144.0962
1.9571935,147.48943
1.880894,151.4028
1.8086927,146.08766
1.8181913,148.04942
1.7984313,150.97665
1.9353508,152.99594
1.9140221,155.37169
1.8359678,155.33232
1.8790987,154.37805
1.8387516,151.95801
1.8764204,151.90794
1.8173215,149.89789
1.80383,153.96275
1.8600768,151.42622
1.8018384,151.03145
1.7959551,151.05241
1.6596789,150.88037
1.7224505,148.73036
1.5596902,147.87634
1.6751379,145.3273
1.6337523,150.12022
1.440543,147.16467
1.4871053,145.42636
1.3391455,145.59164
1.4911491,138.4313
1.4378444,142.23296
1.376745,141.7493
1.41305,140.52188
1.3783902,142.36115
1.3678052,140.5699
1.4047273,138.54861
1.3777715,136.86275
1.3583194,134.28467
1.3822646,132.8672
1.3299472,130.53792
1.2570829,127.24499
1.2865044,128.13792
1.2717077,129.41554
1.2923231,124.266396
1.2305952,123.67445
1.241825,120.85047
1.1592542,127.183876
1.3717197,123.99501
1.085553,124.35137
1.0791122,121.12355
1.117465,118.568146
1.0747652,119.75567
1.0037346,117.28819
1.0282947,117.7322
1.0139498,115.69634
0.9598604,116.54756
0.91983193,111.37097
0.85389066,112.97713
0.8316951,111.54311
0.7490198,109.2586
0.78958225,106.22352
0.74210864,106.562744
0.7690153,103.98742
0.8025682,104.55252
0.66667295,101.280495
0.5922102,97.36187
0.7279316,99.092674
0.6205739,94.8664
0.6266061,98.29988
0.61692876,94.09434
0.49789324,96.62652
0.62621033,92.461555
0.66603124,91.44424
0.5632234,92.131714
0.71867704,90.944595
0.6383762,85.74153
0.5681424,85.7511
0.5961532,89.83798
0.54889387,89.187225
0.46929368,86.152855
0.45496768,84.275475
0.4408381,85.87536
0.39689147,87.418175
0.37374917,83.32355
0.3897154,85.55844
0.29301473,87.611305
0.21894214,85.11542
0.3056246,86.60472
0.18984699,85.07579
0.0051770494,86.486275
0.22735766,85.52199
0.19447158,89.712074
0.19807872,89.4666
0.21462826,87.79966
0.16009611,94.048416
0.2152026,94.83285
0.085892856,91.72221
0.32382864,99.77856
0.20442565,98.550186
0.35465938,102.286
0.3332394,105.32016
0.38710597,105.1648
0.52688885,107.897316
0.48913226,108.14034
0.56815076,112.56835
0.68439114,111.438354
0.8266789,115.0605
0.8643766,118.69494
0.9530091,118.5642
0.95446193,120.85333
1.0912244,122.27117
1.1365644,123.797516
1.196672,126.43307
1.2491852,128.98581
1.1515821,131.88074
1.2617617,132.96599
1.2196211,134.25961
1.3798826,139.7784
1.2559304,143.51538
1.4006777,142.35811
1.4658322,142.82834
1.3759925,148.68517
1.4232479,147.38412
1.5438071,147.65025
1.362232,148.76065
1.4415864,150.16888
1.4848592,152.71538
1.5097045,157.99567
1.5059097,151.26399
1.4764812,155.3235
1.4289024,151.82982
1.3651277,150.43645
1.5328313,153.48592
1.4528309,157.85269
1.4148012,153.82156
1.321523,151.64839
1.4346818,155.69064
1.2700539,153.7723
1.280083,149.20721
1.3429898,152.12044
1.3638545,149.30046
1.2263062,149.2898
1.1195426,149.20146
1.1220427,148.25642
1.1860163,143.35345
1.1182207,145.65564
1.1335278,146.74146
1.1477171,143.15034
1.0756775,145.4621
1.0241674,142.1021
1.0169985,137.43094
1.0350863,141.96127
1.0019912,134.4166
0.913927,138.03108
0.9619426,134.78632
1.0128921,138.60236
0.9348524,131.51627
0.9710495,132.2757
0.89085203,132.32808
0.86032254,130.29086
0.83872586,128.68044
0.98407686,127.53855
0.87982863,124.32416
0.815051,123.58864
0.8547312,124.73754
0.8147883,119.929794
0.7724822,120.2963
0.8033251,120.911026
0.75168157,118.23736
0.63962066,115.1912
0.65266824,115.50121
0.61191636,112.16768
0.5747945,113.71185
0.5211493,110.95734
0.5627901,114.04679
0.5184742,109.95273
0.609015,106.30894
0.35984108,107.603806
0.2906925,106.58203
0.43751073,102.13425
0.41958117,106.10729
0.36054987,101.34904
0.38728282,104.81982
0.3533906,101.58246
0.27369508,99.01354
0.41730553,97.58145
0.3751585,97.94318
0.39271376,95.18368
0.34969103,94.7662
0.3098866,96.29323
0.3294486,90.51031
0.32985035,92.28455
0.38079998,90.0895
0.3154904,92.11057
0.23886648,87.129684
0.34430942,85.926895
0.24365966,88.34524
0.11340097,87.7498
0.1367649,87.84664
0.153241,86.09156
0.09218666,86.636314
0.15660642,84.875984
0.048654836,87.31801
0.15698029,86.41626
-0.026670707,85.488655
-0.058419347,88.67129
-0.026346657,86.28692
-0.033820078,86.31352
-0.14532295,89.51888
-0.040111996,91.03962
-0.015982281,88.351906
-0.06910031,91.70636
0.021355346,92.6796
0.030045746,93.43029
0.079513565,96.55822
0.15738878,100.475075
0.15954077,101.2947
0.24658749,99.88123
0.2742347,103.846344
0.32379332,103.32478
0.3964848,106.56402
0.4484528,108.878586
0.59574735,111.17039
0.65794384,115.3738
0.6592974,115.79871
0.8203877,114.8377
0.7773129,124.54538
0.82586163,121.514404
0.9159427,127.71663
1.0506772,128.11949
0.9884334,127.88104
1.1807197,132.77544
1.2229611,133.72511
1.2053689,135.95499
1.2022218,138.79092
1.3280692,138.99129
1.307136,143.18349
1.316984,143.6371
1.3017681,147.81934
1.365416,146.0747
1.453804,145.67032
1.3762506,150.54861
1.4125488,148.76201
1.4194175,147.44672
1.4681872,152.91617
1.5038571,149.60481
1.3887069,155.20476
1.418469,155.1166
1.5172057,152.73769
1.3998876,154.86256
1.4160619,153.66928
1.4535158,153.98737
1.4076244,153.49805
1.413941,151.75363
1.2789088,153.77318
1.3212426,152.14027
1.3963658,154.51329
1.3114524,150.8471
1.2989457,151.07477
1.1468027,150.20033
1.3927826,146.8723
1.2003566,144.7165
1.1783141,147.39029
1.1975678,147.85687
1.2161828,144.97603
1.1593859,144.43001
0.9737775,143.18639
1.0477597,140.228
1.0884696,142.32724
1.1170015,138.48251
1.1549635,137.06792
1.1146102,133.57668
1.0318135,135.66068
1.0456362,130.09514
0.9988022,132.92688
1.057043,129.85669
0.97531855,129.94415
1.0157186,128.4098
0.9802605,126.834366
0.92769295,126.81255
1.0430459,122.93978
0.987207,124.904076
1.006839,121.93824
1.0221573,118.880424
0.9130272,121.7925
0.8853062,116.221245
0.8924915,118.08398
0.8075164,116.3168
0.81070715,116.711075
0.7356974,110.628716
0.75236607,115.54355
0.72805923,112.45557
0.7408004,110.287674
0.6833938,108.42285
0.65894955,105.28803
0.5244443,104.270805
0.5617049,105.047035
0.6738138,101.38069
0.587441,104.01405
0.49905843,103.67746
0.56180865,100.20907
0.47837454,95.678635
0.5443819,95.96739
0.45595884,94.38749
0.6032265,96.44696
0.48032358,93.21064
0.5192798,93.2246
0.5105448,91.43
0.50232285,90.13111
0.599471,91.38918
0.63016593,88.35879
0.54878193,90.74111
0.5519611,88.07931
0.49476874,84.87679
0.5167335,87.65516
0.4004835,86.033295
0.438836,86.78688
0.48381472,86.38655
0.4559405,87.09412
0.3970744,88.12045
0.38234186,85.91895
0.35086983,86.25568
0.35214028,85.258286
0.24621208,86.65381
0.27739942,86.978935
0.2964998,87.99135
0.24190679,89.44282
0.27850053,89.78595
0.23682937,91.56245
0.22082664,93.52012
0.2777549,93.32199
0.34442648,94.53472
0.40325138,100.52183
0.42311043,100.0866
0.47266582,102.49696
0.5904802,103.48653
0.6811456,102.80979
0.8055345,105.51368
0.8015586,110.647125
0.89269835,113.96402
0.8843203,117.101974
1.0259804,115.42079
1.0799865,122.31241
1.1769696,118.225296
1.2408193,123.46763
1.1744175,128.19366
1.3409137,129.81483
1.4052461,131.7827
1.5223616,133.91846
1.5797474,133.77539
1.5770878,136.4481
1.6961159,139.9566
1.6713434,138.8236
1.7352192,145.10881
1.8162351,144.54057
1.7005224,146.43259
1.6979697,149.28331
1.86972,147.9959
1.7733506,150.62613
1.9361867,150.35695
1.7747098,150.41594
1.8220721,152.05115
1.860484,151.05106
1.8035457,152.9887
1.8158041,152.0921
1.7893832,151.25513
1.781181,150.31308
1.8013834,157.1026
1.8119477,155.04897
1.730076,151.68881
1.7491105,154.1421
1.7718462,154.71494
1.733921,151.85843
1.6821281,152.7157
1.7488967,150.38847
1.6627471,154.61745
1.641649,147.9866
1.68232,149.30942
1.629306,148.40115
1.5446688,148.22354
1.5416331,145.67307
1.451079,144.15314
1.5226157,143.18164
1.51733,146.49147
1.5025066,140.99239
1.5192151,137.90906
1.465917,139.36848
1.4244235,141.4515
1.4124477,136.07007
1.4758052,137.90245
1.47472,134.4011
1.4928763,132.52824
1.5160875,131.74547
1.4535533,130.63716
1.5232277,126.17239
1.3777038,128.47272
1.3968512,125.89816
1.4604453,122.70229
1.3523158,122.79678
1.4470513,121.290596
1.3993913,120.28199
1.2297736,119.362335
1.252421,120.035995
1.1443583,116.446205
1.3439583,116.40169
1.2387896,116.81297
1.2298617,110.339066
1.1849741,113.52736
1.1905981,113.0269
1.0868279,110.620964
0.96813285,110.7625
0.9914449,106.42083
1.0063273,104.864044
0.957135,104.65772
0.91045755,104.054726
0.8775523,103.393555
0.95188755,98.27751
1.0033671,102.64653
0.94530934,99.27538
0.8674107,98.5716
0.91357934,95.71901
0.9753104,95.25618
0.882077,96.695335
0.85367364,93.04093
0.95494145,89.39805
1.0241253,90.53721
0.90475106,89.50055
0.9281899,89.3914
0.953416,88.84718
0.82261163,85.53514
0.79822713,86.15654
0.74578816,84.445076
0.87500644,86.678345
0.87564385,86.68545
0.67428243,85.37665
0.7283795,83.60416
0.6205926,83.289955
0.5841869,88.67813
0.6550041,82.62438
0.61163104,87.3231
0.61798906,87.42146
0.5718494,90.79867
0.6419609,86.47818
0.37557343,85.54091
0.4847938,90.58299
0.52147156,90.10207
0.640683,92.85258
0.64427143,96.60196
0.61909676,94.88991
0.617964,94.568794
0.63931006,99.670815
0.63388926,98.54206
0.801014,102.28644
0.9403403,107.41962
0.8814808,106.01654
1.0356053,111.81002
1.0950763,107.95354
1.2307005,112.08667
1.3428149,116.50379
1.36952,116.5428
1.4082289,120.44666
1.3613313,120.63695
1.4790717,127.19959
1.5629096,125.35858
1.7172751,127.67482
1.6492758,131.27408
1.6859765,135.81482
1.7683414,139.96523
1.8363286,137.06468
1.8385538,137.8531
1.9178977,140.74106
1.8534247,144.61249
1.9815465,144.2362
1.9246097,146.17255
1.9127344,147.94577
1.9630337,150.80656
1.9031193,146.58484
2.0108862,150.37982
1.8987134,151.03685
1.8991022,151.00554
1.9864753,153.42377
2.0118399,154.39632
1.859242,154.6368
1.8336236,151.94536
1.9358816,153.54257
1.9298135,155.28288
1.8920574,152.02211
1.8823617,153.18207
1.8827062,155.04373
1.799546,152.36057
1.7024426,149.29814
1.6934608,148.2115
1.738092,151.9806
1.7056566,148.90134
1.7063859,148.69878
1.5526851,151.02182
1.6375502,146.78166
1.5479528,147.15952
1.5451974,142.07657
1.6286601,142.51535
1.6060891,143.50706
1.4684969,142.04391
1.4144479,138.01474
1.4877303,136.08354
1.39008,135.16615
1.4163538,134.59114
1.4239177,131.51366
1.4421186,131.69635
1.388508,131.19432
1.4210248,129.48503
1.4201994,129.3103
1.3134706,129.1527
1.3393333,130.51172
1.3103553,124.82787
1.3083243,127.79396
1.3044233,123.14532
1.3379602,121.84805
1.246319,121.33793
1.2556971,118.13871
1.2477841,117.59445
1.1405152,120.62172
1.128736,116.49917
1.1663646,115.110054
1.1337284,112.563416
1.0298753,113.35662
0.96492004,109.07689
0.870656,109.45646
0.94266206,107.70149
0.84369093,106.538376
0.8867115,105.9186
0.8015392,105.637146
0.85368717,107.032265
0.90208256,103.14711
0.76621646,99.619675
0.7538353,99.35605
0.76044995,97.52179
0.7395233,98.71295
0.70574915,92.06225
0.7034238,94.07495
0.62260395,96.23848
0.8109534,92.76866
0.60617614,91.85451
0.68739825,93.04912
0.7232279,90.31956
0.73795015,88.37862
0.6212294,86.74333
0.6566565,90.25857
0.7474609,88.79866
0.7487434,89.13111
0.545143,88.37207
0.5989732,88.4688
0.6134379,85.72215
0.46675408,88.63976
0.48389432,85.93308
0.46223807,85.62198
0.3549319,88.02263
0.37205252,82.738144
0.3251154,88.50844
0.2654274,85.49029
0.19185549,87.2762
0.20426442,89.62719
0.29073456,88.35043
0.21567732,94.15283
0.29899406,93.24215
0.3215637,97.41306
0.34742254,93.969505
0.3193206,96.57822
0.51166797,99.21735
0.43326917,103.327835
0.5154941,104.2362
0.50686747,106.89831
0.6300976,106.835754
0.745507,107.033615
0.7824058,110.21833
0.83334893,111.49591
0.83635986,118.1785
0.96966666,117.13298
1.0042214,120.06215
1.0906496,119.84178
1.1199323,122.92899
1.2317185,124.82375
1.328883,132.58194
1.3101798,132.26158
1.2532203,134.1087
1.3588378,138.3804
1.4431232,135.10982
1.5041848,140.31445
1.3916724,140.10146
1.5588303,143.13805
1.5378611,145.42137
1.5543994,144.02753
1.5255516,148.43532
1.5550096,151.15526
1.5779635,147.25873
1.4479231,149.2376
1.6034101,152.05731
1.5992693,152.10818
1.6087656,153.76512
1.5202262,151.31795
1.4522617,150.67831
1.573197,150.5491
1.6139382,149.27953
1.5902706,154.69615
1.515841,153.69208
1.5364572,154.81328
1.3902673,154.0241
1.3886794,150.70432
1.3573371,152.93437
1.3995243,151.903
1.3489106,150.69287
1.2817163,150.69275
1.3263537,149.59523
1.2647964,150.2908
1.2074429,148.69176
1.2310857,147.62155
1.0645249,143.43993
1.0861346,144.16315
1.0811181,142.69388
1.1435401,140.55371
1.0505128,139.5382
1.0968444,136.61841
1.069189,134.91501
1.0501143,135.12584
1.0184705,133.38084
1.0025412,131.41322
1.0569534,132.78752
0.9643991,132.49738
0.95518124,129.87471
1.0290955,131.35751
0.9109451,127.21606
0.9418713,124.04962
0.8985429,126.12243
0.94529045,123.28963
0.98997223,120.44969
0.757317,119.24081
0.8405918,123.49587
0.8578195,120.95744
0.8687461,118.71496
0.7404039,113.71894
0.7695901,117.91837
0.60127705,111.76903
0.63904035,114.07162
0.5120342,114.290436
0.6416714,107.677315
0.579988,108.810844
0.51069343,109.37322
0.44453788,107.71941
0.41881335,103.64043
0.4419322,102.750916
0.41376594,100.751724
0.34577656,101.51663
0.36598018,100.520935
0.32562107,99.78248
0.4188252,97.93881
0.3809003,97.73612
0.41761363,94.04751
0.29285815,95.684586
0.37512964,94.62993
0.3707939,89.47385
0.37248304,92.61807
0.3426765,86.77788
0.39512637,89.35677
0.3242898,88.53848
0.30495435,88.03183
0.36929834,88.39895
0.23220609,86.44528
0.18296981,85.25801
0.17380208,83.55281
0.12876987,84.129555
0.15291952,87.37291
0.095697105,85.81493
0.023287598,85.46484
0.048382338,87.948296
-0.14126262,86.209175
0.072295725,88.37817
-0.03661413,89.18382
0.006942003,84.10923
-0.024211206,87.1061
-0.03849329,89.04848
0.018906027,92.8975
-0.039398484,91.29304
-0.03382497,93.03781
0.032960653,93.84358
0.0064128037,94.84543
0.13478397,101.56813
0.16957171,100.688614
0.15467314,104.468
0.20437261,101.27769
0.25615308,107.4277
0.40354177,110.251305
0.59041977,111.05951
0.49071002,113.61329
0.69398135,114.99681
0.6749133,116.16965
0.7013716,117.624374
0.80510694,119.676056
0.75287,124.7411
0.95700717,127.48092
1.0598487,129.14731
1.0610844,132.76161
1.0817947,134.96448
1.1537817,136.51277
1.2155923,138.59174
1.2839406,139.32788
1.3391474,140.00838
1.2933321,140.3921
1.2576007,143.43564
1.3543681,148.84279
1.392625,147.42651
1.3647593,145.96489
1.4126856,149.4332
1.3291131,151.20657
1.3950677,145.75708
1.4364773,148.5011
1.43889,150.84253
1.3101653,151.21487
1.4430002,152.50594
1.3758055,153.3096
1.3622171,155.65544
1.4407418,154.40775
1.3777174,153.24513
1.3116393,155.5202
1.2972258,154.88165
1.2541543,154.80568
1.2366718,153.07407
1.2483886,150.0507
1.188255,152.6036
1.1593342,151.1518
1.1644425,150.52718
1.0748804,143.97491
1.0820795,147.80368
1.0800589,145.14975
1.0925587,145.06572
1.0196334,147.3365
1.0353004,140.87994
1.0570611,138.42232
0.98298603,140.08571
1.019696,139.06989
1.0169854,138.23174
0.94072014,134.68588
1.0172296,133.56621
0.92984277,135.84679
1.0329012,131.05756
1.0352753,132.23647
0.9633454,128.5073
1.0135745,130.86832
0.9991943,128.12463
0.88881326,126.47267
0.91186523,124.12785
0.8394189,124.42597
0.8474151,119.735306
0.88573205,123.52024
0.82645833,120.658615
0.8123982,121.18884
0.87593985,117.78977
0.81013334,116.758934
0.7946363,118.83501
0.6600597,112.58537
0.637929,116.14572
0.563345,112.46221
0.5985663,111.22357
0.67850786,110.90753
0.6114133,107.60219
0.5564153,104.96428
0.48893425,108.461945
0.5621684,104.38728
0.44288567,102.77002
0.53137803,102.59144
0.49777752,99.97142
0.4565962,99.341736
0.47446814,99.48092
0.45932734,99.37513
0.44369823,95.51826
0.50898665,95.201996
0.43722847,93.22482
0.5346957,93.00745
0.458656,90.84046
0.55292124,89.971405
0.37883395,90.26576
0.47250462,87.059586
0.44601622,91.633194
0.4668995,88.65136
0.34065163,89.40635
0.41690263,87.5822
0.3434469,85.973305
0.34718442,87.74371
0.30880678,83.475746
0.3365202,89.44805
0.19943699,85.32107
0.15508863,85.19462
0.18903604,82.48723
0.18603326,89.00761
0.11607639,87.866295
0.17662008,87.970375
0.2040401,90.46055
0.114653416,89.54285
0.18567738,91.67379
0.20523688,89.89668
0.20705111,93.6363
0.1951836,95.18569
0.27399424,95.18729
0.33386287,94.88247
0.4114202,98.09143
0.51991075,100.18797
0.49262097,104.045265
0.5220083,104.051125
0.62474006,110.59104
0.70064175,111.47637
0.7165205,111.88209
0.8873818,114.753494
0.8792566,115.57656
0.9869694,118.93815
1.0734,118.782104
1.2055974,124.729034
1.0985867,124.48052
1.2875382,129.11147
1.3755691,125.67516
1.3670977,132.86812
1.4439186,134.74838
1.5454162,133.99039
1.5500785,136.17317
1.5241501,139.69858
1.5887771,141.30296
1.6047424,144.70393
1.6030487,145.19713
1.678608,147.00711
1.5678848,147.47357
1.7513967,148.85513
1.6488887,147.21274
1.7418284,150.20688
1.6900399,153.66455
1.7693993,151.99023
1.6344744,153.73335
1.672102,155.42078
1.7062324,155.36153
1.6663665,151.26555
1.6735723,154.41794
1.6300406,154.92743
1.6748184,154.2687
1.6317807,154.03073
1.6345159,151.80812
1.6756239,153.12883
1.6017874,151.64415
1.5318356,150.1352
1.4987879,151.07823
1.5672007,148.86009
1.4862714,145.68861
1.4935126,146.52203
1.516949,144.48193
1.4008776,140.93231
1.4901752,148.58247
1.4479703,142.55566
1.4529834,142.72963
1.3811454,138.90192
1.334604,140.3996
1.4056433,136.27563
1.3637605,135.73952
1.4381956,137.67563
1.368509,136.22844
1.3146448,132.3712
1.3205551,132.6578
1.3504145,132.00394
1.2578114,129.06491
1.3025739,128.57063
1.3340249,127.91497
1.3380708,125.2944
1.3140877,126.053505
1.3520217,120.54114
1.2161723,123.964165
1.1691661,119.71835
1.1591017,120.06332
1.241327,119.10923
1.0748256,117.38601
1.186869,115.49376
1.0885432,112.39203
1.086821,113.835655
0.9703179,115.451035
1.0595219,111.15452
0.9611665,110.55079
1.0291234,109.22793
0.89627,104.58911
0.83328444,106.99437
0.8646033,107.14463
0.91423786,103.78863
0.880992,100.509674
0.86504364,101.37835
0.88079494,101.17491
0.86677223,99.06752
0.8820889,96.69767
0.76381266,92.82483
0.90837777,97.53171
0.8465255,97.33417
0.7993342,92.62056
0.8220084,90.91961
0.8842438,90.85272
0.865841,89.516106
0.88682353,87.56957
0.9434679,88.24695
0.8425404,90.014496
0.86918217,88.89533
0.7674287,88.47698
0.7658238,85.83727
0.86191195,86.12325
0.8061276,87.93346
0.7279788,85.59558
0.7029473,82.1135
0.63858837,82.8796
0.53165317,87.80788
0.52941096,87.55511
0.6166086,87.985565
0.5885759,85.649445
0.54941976,87.11334
0.49841878,89.51025
0.540205,90.74355
0.6001957,91.36229
0.6005635,93.178825
0.5581159,96.645515
0.65719223,95.37779
0.64035165,96.646996
0.72427166,100.48691
0.74656993,100.92097
0.7624859,102.73374
1.0255746,106.23818
0.87574756,108.99751
1.0679384,107.03745
1.1085697,107.874115
1.1259831,116.1197
1.128494,115.8557
1.3267293,117.140594
1.3500814,121.27922
1.4818171,122.03049
1.4829683,127.294624
1.5904596,127.09427
1.545879,130.53142
1.672155,130.99243
1.7849371,131.33276
1.7394841,136.76892
1.8704414,138.2001
1.7826144,141.59578
1.8809329,143.43637
2.018962,143.07343
1.8821985,144.94278
1.8916776,148.72691
1.9580097,148.63258
1.9525949,145.42145
1.9553275,149.28677
1.9374053,151.08029
2.0158637,147.40285
2.0045288,153.3333
1.9498557,156.01294
2.0508254,156.08797
1.9572178,152.53023
1.9544126,153.29558
1.8500462,151.89847
1.8970611,156.33977
1.8584913,150.71588
1.9795127,155.10243
1.8904876,153.66245
1.8897723,152.0059
1.8446506,147.6843
1.8078663,149.3658
1.8535585,148.69986
1.7498189,147.85893
1.6842992,148.52986
1.6888344,146.4945
1.5990895,146.53716
1.6449144,147.46986
1.6844449,145.82884
1.5959091,145.09839
1.5116532,140.01535
1.5754843,139.1455
1.4968636,135.2414
1.4763883,136.42198
1.552599,139.59741
1.5066245,135.99802
1.5419152,132.8743
1.4676808,130.24275
1.4190942,133.21889
1.483032,128.21542
1.4612036,127.27029
1.4075445,126.57807
1.467608,127.8301
1.3865433,125.84001
1.417227,126.247986
1.2492212,127.805435
1.41391,121.18024
1.2879348,122.66234
1.3183589,122.56697
1.3195833,118.78155
1.2745686,120.94288
1.1354501,116.11436
1.1272018,115.13956
1.2341261,115.33393
1.0236795,110.73641
1.1318836,109.797264
0.98579,108.9711
1.0727656,108.87052
0.9643214,108.604485
1.0052136,106.40505
0.9251052,105.16573
0.89209193,102.71912
0.9038288,102.88151
0.8583209,100.28063
0.84215003,98.36928
0.86840636,99.092064
0.94114816,98.853096
0.8254113,93.65064
0.9047151,93.17973
0.9001985,95.34997
0.87160015,94.36463
0.8847292,94.17004
0.8273,92.80209
0.8613214,88.41861
0.72444564,88.73845
0.75514346,89.32687
0.73709315,87.11985
0.74942946,88.720085
0.6703607,86.118996
0.5817984,88.75257
0.6423491,90.28507
0.5650108,79.55204
0.6214142,86.3089
0.5067112,86.26117
0.5571286,83.80419
0.5136943,87.7278
0.49154046,89.12726
0.46761844,88.29345
0.4493565,83.931335
0.39327168,88.404366
0.47916263,88.2672
0.3979046,90.65741
0.33776373,95.2829
0.3304052,97.229
0.38543868,93.374626
0.45601296,93.88297
0.52840453,96.232285
0.57220596,99.268295
0.57447886,100.54289
0.67984813,104.85587
0.69049335,104.58902
0.70133626,107.86141
0.91329116,108.84826
0.92848593,114.259926
1.0009155,115.39729
1.1171368,116.194984
1.0711058,117.6773
1.2273476,121.13415
1.248137,124.6411
1.3211812,123.97777
1.2132653,127.57644
1.4553255,132.04372
1.4757395,130.07603
1.5458701,133.86804
1.5369409,136.52863
1.5538303,139.77486
1.517854,141.03685
1.6424319,141.7038
1.6903356,142.92287
1.6182418,145.26286
1.6609666,145.20013
1.6107665,147.11316
1.6895767,148.15468
1.6721153,149.98232
1.6437455,151.88391
1.7424772,151.39981
1.6250155,151.4272
1.614509,152.3834
1.6358037,153.30064
1.646993,151.23155
1.6505678,153.45132
1.6232363,155.24919
1.630126,152.16866
1.5358213,155.32848
1.5420115,153.41019
1.5245092,152.31584
1.5299816,155.18141
1.5625943,149.46083
1.5289116,151.0722
1.5338446,151.8234
1.4318343,154.12381
1.3744756,150.13129
1.4153023,148.01514
1.3663532,144.89587
1.3079622,144.00859
1.2415267,144.01357
1.2438217,148.2974
1.1849163,143.09474
1.2312361,140.5928
1.166715,139.10147
1.1671605,142.32043
1.1664084,137.83595
1.1873784,131.43576
1.104058,135.25464
1.1468842,134.19931
1.0267333,131.79977
1.0530274,130.08723
1.1352297,128.62181
1.0713897,128.47124
1.1069696,126.31364
1.0455664,127.59173
0.9393179,125.83607
0.9261059,126.60011
0.9428114,126.25966
0.9090946,121.81393
0.90937537,116.7932
0.91190624,120.3447
0.83182174,116.22211
0.75134635,113.63331
0.8074548,116.19981
0.81212646,113.77052
0.7761593,113.92962
0.7799458,110.397675
0.677739,109.13384
0.624698,107.0999
0.52838963,107.59236
0.55149287,108.70332
0.4917723,107.027245
0.44651407,105.5711
0.5299152,103.98528
0.43874785,102.55755
0.44771522,99.97791
0.390384,100.62844
0.39008605,98.07827
0.41906548,92.383255
0.50966877,91.645935
0.52893186,93.9327
0.38538912,92.31794
0.44670495,91.60775
0.3895197,91.68728
0.34296727,88.94452
0.35469174,90.70278
0.3060167,88.45827
0.32920584,86.39075
0.3686685,88.35326
0.30507702,85.43616
0.24855593,85.7071
0.16143769,85.092804
0.22962195,84.81132
0.25449967,84.51629
0.19936316,85.337265
0.12715355,83.77241
-0.043628562,89.43592
0.09138809,85.83781
0.20416637,88.11864
0.032526534,86.77085
-0.051793102,88.49203
0.030853089,92.26719
-0.033270497,89.603836
-0.020004721,93.105774
-0.0013768378,92.46075
0.091736935,96.21376
0.11530224,93.89569
0.08065819,98.05431
0.07923055,99.49659
0.14712586,102.61195
0.2003467,102.13041
0.27854058,103.4333
0.36613527,106.32721
0.3899569,106.91409
0.57552403,111.611786
0.63946044,113.65049
0.69668174,117.420494
0.7561704,119.52912
0.7742467,118.797134
0.8344816,123.35887
0.9058925,123.46968
0.9701718,126.27872
0.97471476,128.69673
1.1248493,129.11423
1.1045399,133.2178
1.1625092,134.63771
1.2007914,137.5985
1.3007346,140.60115
1.248296,140.8572
1.2564923,144.8978
1.3649257,143.95601
1.3376368,144.32559
1.2683316,147.62582
1.402635,147.14508
1.2932819,145.6156
1.4735268,150.5848
1.3338343,149.29448
1.3418093,148.42053
1.3461062,151.51643
1.4257629,154.36081
1.3560612,154.94656
1.3160478,151.32895
1.2974541,153.80484
1.2851698,155.35861
1.3026178,156.4859
1.382009,152.1752
1.3104802,152.05522
1.2313446,154.7856
1.2052182,154.35292
1.1941714,151.73871
1.2485163,152.41737
1.1450262,149.741
1.0809902,148.08319
1.0664221,145.07973
1.0473908,146.56795
1.1636605,147.85396
1.0395806,142.34518
1.0320868,142.37
1.049393,145.37596
0.98797643,141.71173
1.0166711,137.97499
0.98035884,137.45003
0.93630946,137.37056
0.99169475,134.66908
0.9245709,132.7824
0.8636867,135.19536
0.8023086,132.1446
0.9343594,131.85089
0.8800639,128.27174
0.8997936,129.5132
0.7960429,125.5967
0.8602215,127.13357
0.83449763,123.18575
0.8930983,123.433716
0.88027793,122.63438
0.7524782,122.847336
0.83387727,119.958145
0.74991006,119.29048
0.75132376,117.89751
0.6260007,117.91574
0.67568105,117.91632
0.5925145,117.63162
0.59235686,112.31861
0.54823464,110.91957
0.4734174,111.71027
0.47333506,107.664406
0.4821684,106.53542
0.5351926,106.42351
0.39411595,100.744896
0.4185833,103.81188
0.3418813,104.49191
0.40924004,103.41817
0.45881864,103.0672
0.42826995,98.58741
0.43014485,97.68958
0.36721197,93.89597
0.3961494,95.70184
0.3492778,94.884
0.32825416,92.95389
0.34992158,95.512794
0.43057916,88.44556
0.31915113,91.7803
0.441187,89.89928
0.37344134,87.935104
0.3982079,89.374916
0.38490322,87.29813
0.3069078,87.05328
0.26503152,85.802956
0.31913286,85.77494
0.20237775,87.63886
0.22726992,85.76004
0.21059285,86.154495
0.15890889,87.35645
0.11945822,89.74115
0.075735316,87.99361
0.17452551,88.14614
0.08250728,87.64451
-0.0020304276,88.16924
0.030362481,88.697586
0.14740193,85.82012
0.028849162,90.9752
0.08349833,91.18205
0.10006741,93.49524
0.060731295,98.001
0.11240763,100.76744
0.1532791,99.56192
0.2628547,101.21427
0.26889884,105.90835
0.38252595,101.66247
0.4216181,106.8282
0.580792,109.09811
0.7055899,110.2479
0.72046083,111.73149
0.81261927,117.52048
0.7753229,117.25652
1.0176,117.574036
0.987259,120.04188
0.95535386,128.26524
1.0914129,126.7584
1.1844816,125.378815
1.3119295,132.10814
1.2455178,129.24251
1.3414265,133.3272
1.4327618,136.29005
1.3915025,136.98666
1.503508,143.62698
1.5014086,139.78055
1.458019,145.96916
1.6105917,145.884
1.6502904,146.53764
1.5437055,147.06174
1.5311959,148.79636
1.614428,150.44403
1.5747902,150.5787
1.5560106,153.27579
1.5903049,150.7855
1.5878221,156.66377
1.5001061,150.6268
1.6404095,152.76064
1.5563372,154.14912
1.5801055,152.01715
1.5662844,150.4339
1.5208176,154.69572
1.5490483,149.70831
1.5290631,152.04935
1.4801991,152.50264
1.4631829,149.7064
1.4271917,152.11882
1.4343253,148.88724
1.3706952,150.43948
1.4203016,145.47551
1.36827,150.23155
1.3715504,146.18074
1.1973233,142.4002
1.27789,142.37947
1.3551714,142.79597
1.3272535,141.63872
1.2937229,140.26558
1.3192736,135.52625
1.3362943,139.10255
1.2578336,133.5521
1.2005109,137.36621
1.2251666,132.21202
1.3227446,132.34506
1.2576331,128.6281
1.2039514,131.71495
1.2876158,129.09158
1.2318598,127.50178
1.2190591,123.124115
1.1233977,125.54857
1.1418645,121.71755
1.1380708,123.84159
1.2635528,121.32497
1.0381062,121.53121
1.0922965,118.84266
1.0289909,122.290184
1.0024066,113.93678
1.0196363,114.39487
1.0254512,114.253105
1.0152842,109.71173
0.9541002,110.86502
1.0083514,109.56616
0.8253122,107.60497
0.8459304,107.59766
0.78378916,104.71053
0.8850726,105.695076
0.80416083,101.80187
0.7542263,104.109184
0.75344324,101.83929
0.68883735,99.52788
0.7820902,100.82109
0.70125777,98.702644
0.73659194,95.49098
0.7272867,98.6585
0.8084786,94.16468
0.73172,94.07232
0.7756358,89.08458
0.8274915,93.99713
0.72865456,90.553986
0.74755466,91.15072
0.80280876,89.26276
0.7152491,87.42318
0.71680814,87.55141
0.8246955,83.90975
0.7224761,88.48571
0.72050774,85.32555
0.65463924,85.58021
0.66178095,84.71191
0.5610483,83.202995
0.58359146,87.15449
0.62732375,84.86515
0.4828233,88.84001
0.5619788,87.76076
0.525235,90.87585
0.35116434,86.82123
0.45804995,88.87663
0.44300428,88.38841
0.49267155,93.019714
0.51692325,92.99697
0.59449416,91.16839
0.5991757,93.23628
0.44463852,94.09911
0.5765242,100.35118
0.6495483,99.50702
0.76172835,101.812416
0.7814464,104.74775
0.80061024,107.768234
0.9581292,105.67995
1.0486857,111.23871
1.0501372,112.969086
1.0230997,115.808205
1.193686,115.64898
1.2922772,118.792305
1.2440258,121.20641
1.4410753,126.25548
1.4703674,125.194275
1.5293542,128.32234
1.7680328,129.14584
1.5667087,132.97046
1.7176867,134.89297
1.7158743,137.50327
1.7341073,138.1373
1.7516638,142.27837
1.7899485,143.99788
1.8966182,147.22989
1.8792342,144.00522
2.0105844,152.66074
1.9614989,147.80936
1.9429234,146.85
1.9665496,151.54822
2.085105,150.42459
2.026667,148.1928
1.8340633,150.5201
1.9776446,156.05104
1.9022121,151.52806
1.9113221,152.94208
1.8305551,151.00145
1.9707321,155.82022
1.8966992,151.77197
1.9092112,157.53421
1.8420235,155.37114
1.8629797,152.47272
1.8067092,150.83386
1.8522085,149.08582
1.7985165,149.89528
1.685806,148.16805
1.7849194,151.5075
1.7004538,147.75653
1.5521746,146.73956
1.7172244,144.33202
1.6223515,144.18373
1.5322433,144.63617
1.5334711,141.37805
1.6287718,142.69952
1.5810244,140.10373
1.5969682,140.8726
1.4492922,138.77759
1.4802431,139.87437
1.5925161,137.6843
1.4638714,134.32391
1.5865836,130.41568
1.5322868,132.48572
1.4827614,130.16785
1.4754361,134.09782
1.4598829,131.59763
1.4454417,126.064384
1.5082827,125.19089
1.4183724,122.65484
1.4172636,122.37403
1.3686162,123.27595
1.3489401,123.07357
1.281662,122.712166
1.2840492,116.89575
1.2681376,115.84347
1.2581755,114.6628
1.1603359,112.42942
1.1524029,113.53958
1.1556815,111.06955
1.1693747,110.323
1.1798073,108.97677
1.0667039,106.49144
0.9799142,105.942116
0.9255515,106.16831
0.9899142,102.13171
0.9077722,104.09282
0.9109181,102.12618
0.9826741,102.36939
1.0003992,99.24858
0.8997989,96.970436
0.9630571,98.9315
0.94343805,94.18262
0.93364245,98.37794
0.86179376,93.088486
0.77228904,91.28899
0.9398005,90.65308
0.9561454,89.71289
0.8951619,89.11552
0.8553787,88.57592
0.7690703,88.36273
0.8504064,87.645355
0.7572904,86.426254
0.8523059,88.69914
0.7139838,87.15574
0.81547946,83.53916
0.72697276,86.581215
0.674856,84.60957
0.68366855,87.8789
0.57140684,82.68919
0.5971789,85.35772
0.5755219,86.7288
0.543226,88.4451
0.45989218,89.63892
0.48596022,86.12839
0.49865916,87.07919
0.43699333,89.8873
0.40703967,94.92316
0.5685587,92.8324
0.4914835,97.0183
0.50795406,98.56743
0.6644116,101.946884
0.70407236,102.02244
0.6765679,102.87799
0.708016,105.47508
0.7912522,109.61532
0.85730505,109.87498
0.8970448,108.4842
1.0762787,114.73974
1.0152406,114.425026
1.1260748,115.04795
1.1564559,119.71072
1.3588283,119.69698
1.3973862,124.08171
1.491846,126.19909
1.526406,123.500916
1.4500989,130.39984
1.5893434,133.97548
1.4996765,132.34271
1.6424348,136.3399
1.7172061,136.17444
1.68452,139.44225
1.7849166,142.79317
1.7143512,145.9932
1.7725312,146.2177
1.8043444,150.32236
1.8032371,145.96344
1.8364931,150.022
1.7918749,150.87408
1.8407578,148.5075
1.7437955,151.2963
1.7860761,153.73868
1.8087474,154.45828
1.7992676,152.33752
1.7605469,154.77594
1.7205011,153.16273
1.7970997,151.48526
1.6869475,155.27283
1.6073383,155.49284
1.6478859,150.99045
1.6261803,153.76909
1.6991838,150.41335
1.5834057,152.88245
1.646797,152.39317
1.5944773,151.21074
1.5504773,149.22818
1.5602121,152.02466
1.4841367,147.72559
1.3945962,146.08252
1.3769568,144.42511
1.3489366,146.09212
1.4066411,142.03036
1.4366851,140.46791
1.2454723,138.83875
1.241549,137.3729
1.3172098,141.20726
1.3020865,135.84778
1.3425455,136.12895
1.2179514,135.57684
1.1998186,135.96423
1.1060543,132.02344
1.1878244,130.38167
1.1887066,131.58261
1.149774,130.29068
1.0831894,126.60603
1.2491913,122.89294
1.1946522,124.89785
1.2363968,126.439644
1.1241103,121.33205
1.021092,122.16976
1.1237738,121.24837
0.99665135,120.315796
1.072252,115.82546
0.8503955,112.2409
0.8935777,113.888214
0.79617894,115.27319
0.8824534,114.92934
0.7494063,111.380165
0.7367168,112.37416
0.6886534,107.956856
0.6427225,110.74191
0.7066162,103.73509
0.6443423,107.20499
0.58926946,105.17686
0.4706869,101.575645
0.52614415,99.04519
0.5710273,100.95096
0.54664755,97.91539
0.43428162,97.23541
0.48570296,94.35729
0.496057,93.23792
0.5934687,90.702
0.4843166,95.41191
0.56536734,91.102585
0.62489855,93.02192
0.48131615,89.771614
0.42995408,92.35096
0.5196376,90.6428
0.42599538,92.77254
0.3736118,85.620514
0.49902168,85.63531
0.45086816,86.352936
0.28611797,85.92973
0.33745793,86.45777
0.24461423,88.5033
0.24910772,88.05215
0.2932888,86.49241
0.24738717,86.6209
0.1588073,88.3814
0.042990394,87.845665
0.1824709,87.0168
0.11342164,89.18931
0.059878517,89.66278
0.066230826,92.96843
0.00025888998,94.44709
0.10995006,95.76101
0.0789204,95.42758
0.1831716,95.722725
0.13446198,100.1987
0.17478937,97.63006
0.19438504,102.06797
0.30035236,101.097946
0.25017676,103.45706
0.35987738,106.15064
0.53657156,109.342896
0.6775147,111.38016
0.6808495,115.04104
0.7532785,120.29522
0.8442591,117.50939
0.950161,116.94145
0.9681565,123.121376
1.0079122,124.61905
1.066374,129.18144
1.0401981,130.65092
1.1691062,132.46155
1.2514372,134.65942
1.2338766,132.44347
1.2805146,136.9154
1.3221207,140.82126
1.3455251,140.03954
1.3469547,140.168
1.388584,144.12561
1.4023103,147.4287
1.4399698,148.15877
1.3699917,147.60596
1.362213,153.12213
1.3738647,149.25296
1.3225943,154.14316
1.3362079,152.71527
1.4767596,148.72502
1.3667878,153.28094
1.325878,152.17738
1.4570552,152.33186
1.3626958,152.18437
1.3696797,156.02835
1.3495029,155.01729
1.3725721,152.88359
1.26782,155.24109
1.2657646,150.28093
1.3881611,151.31805
1.2878385,147.86975
1.23302,148.7722
1.1368912,148.93695
1.2224133,146.1823
1.0844198,145.08643
1.1332206,145.5878
1.1040456,146.29543
1.1087683,141.03409
1.0729103,142.89188
0.97445846,141.60521
1.0556257,142.92494
0.9326245,138.84727
0.97579217,139.49998
0.89590114,134.71713
1.0244843,136.3249
0.9939486,133.49312
0.9541548,135.68665
0.9010968,131.21837
0.79933405,132.3868
0.8551559,128.46445
0.83493567,127.64643
0.9297025,125.5045
0.93468916,124.2222
0.7998271,124.751854
0.8385564,124.00159
0.733376,123.41114
0.8286598,119.63764
0.69757205,119.81049
0.7257946,117.66189
0.70549315,119.5191
0.6530699,114.23605
0.672728,115.24169
0.49183193,115.8803
0.5246616,112.225
0.53071964,111.656204
0.5388196,109.59381
0.3494537,110.75425
0.5233849,108.23353
0.46136388,108.45046
0.42444786,102.29863
0.39586374,104.56325
0.37411785,103.73066
0.36124521,102.283134
0.37601057,99.511635
0.35284087,100.09602
0.27889755,97.64679
0.48145336,95.73148
0.32376012,90.63523
0.37747124,95.040794
0.36241418,93.94533
0.29104537,91.03337
0.2486836,92.85037
0.26103446,91.04849
0.2713163,89.62273
0.32834303,89.049934
0.33569404,89.99337
0.26955354,87.15965
0.17596003,87.18778
0.22736019,88.380486
0.21098027,88.99869
0.22093727,83.70632
0.15762226,87.36795
0.20221052,82.81668
0.14784974,83.65201
0.04696968,89.00599
-0.03860071,89.58731
0.02109075,87.19626
0.048364326,85.88886
-0.033027768,89.00811
-0.10597905,89.45648
-0.061549906,91.29488
-0.029022824,89.302315
0.004407903,91.44111
-0.016437639,93.91576
0.09968869,93.13936
0.015145706,99.00464
0.123703524,99.629425
0.16103685,101.689476
0.18218842,102.38577
0.3194569,104.55993
0.38426143,106.72388
0.4919208,110.70507
0.607074,110.770164
0.5440782,110.44645
0.62753636,116.154366
0.87964237,118.76248
0.81545514,120.88721
0.7754534,122.787674
0.8866824,124.99144
1.0573821,126.52002
1.1276512,131.55913
1.1199517,130.1212
1.2504271,135.47195
1.2691281,133.64035
1.2697664,136.96793
1.3363261,139.49785
1.3844295,140.00879
1.3355817,140.24763
1.3356172,137.73154
1.3410715,146.95149
1.538777,147.08987
1.4986136,148.54448
1.4244413,152.04895
1.4799056,147.42274
1.5082093,153.23299
1.5771428,150.76375
1.4405823,151.86032
1.4937211,153.87268
1.4790348,153.58804
1.405573,153.18358
1.4189099,149.68253
1.4775772,153.01558
1.3862423,153.67323
1.4413408,153.32358
1.5044113,149.72792
1.3467128,154.7229
1.3946096,153.81506
1.31931,151.25322
1.417946,153.57553
1.3373816,151.46675
1.2447721,151.54503
1.2513741,147.077
1.2523854,145.62112
1.3146942,142.35732
1.2131265,146.46373
1.2247683,145.61073
1.1493746,141.59088
1.203211,141.69096
1.186849,140.28172
1.1683524,137.43567
1.1936674,137.79599
1.1138887,137.11366
1.1924095,135.99692
1.1542053,131.60387
1.0642054,136.75516
1.039006,130.4344
1.0154742,130.4316
1.0799679,128.31844
1.056242,126.72799
1.1614994,125.29649
1.1921834,123.650696
1.1018447,126.62889
0.98539543,119.56967
1.0162888,121.41996
1.0484596,123.21025
0.8952945,117.76006
0.87984204,120.74458
0.9334098,118.80516
0.8968404,115.43676
0.9201052,113.576035
0.8912285,114.61497
0.8095064,108.69728
0.734907,111.78583
0.75758255,111.945984
0.77159655,108.51491
0.6847527,108.20047
0.59581757,106.15367
0.7430434,106.24077
0.65533143,104.06515
0.66429645,104.401245
0.7568171,101.066154
0.68828595,99.95122
0.6513266,100.17738
0.64385676,98.65228
0.57620895,93.33838
0.72469896,90.74992
0.6284412,93.486824
0.5900124,91.45776
0.7232962,90.95159
0.59731656,93.580185
0.7184215,86.50229
0.6486098,91.80874
0.7415229,88.76123
0.6321541,88.938835
0.6064683,87.582016
0.60859865,84.866264
0.6392175,84.19557
0.5188186,86.22112
0.52812093,84.80365
0.47751185,86.272835
0.38764298,87.10668
0.4660308,86.42627
0.4834681,84.27865
0.42685962,82.22542
0.36041233,88.44203
0.3525661,88.21457
0.3029419,88.42639
0.3325514,92.77233
0.29676822,89.051346
0.37181926,91.507744
0.4485894,96.36271
0.44509608,93.523155
0.49509832,95.63856
0.5798465,101.617546
0.59850234,100.77609
0.62121135,103.83386
0.68034756,104.237274
0.8286145,106.32851
0.8943123,108.37895
0.91225874,113.547066
0.9784112,112.17889
1.045802,114.234566
1.1735644,115.311
1.2879734,115.23052
1.3998424,123.4272
1.4674214,125.31879
1.47051,126.44678
1.5440286,131.66579
1.5702631,130.69736
1.6306487,130.30931
1.6953069,134.94786
1.6874329,139.2793
1.7898577,141.11221
1.8090369,142.05383
1.7844667,139.51347
1.8342816,142.9346
1.8442864,145.67944
1.9784533,146.29419
1.8819606,147.19603
1.8991928,151.25642
1.8731986,151.54166
1.9336057,150.33241
1.850768,156.10693
1.8912487,151.1437
1.9152535,153.135
1.804484,156.45187
1.7983587,153.53934
1.8821305,152.3491
1.846273,152.75159
1.8475076,153.94249
1.7964168,151.96756
1.865936,158.13228
1.6868057,150.47032
1.7310288,152.89377
1.7792679,152.58678
1.7628778,148.39432
1.6661674,150.52243
1.6451099,151.14801
1.5981435,148.49506
1.645367,144.16022
1.5264487,144.92955
1.595838,145.54912
1.6123347,144.4654
1.6796759,145.13371
1.5058757,144.06703
1.5376861,140.37924
1.6203139,139.63916
1.5119451,136.00052
1.5001984,134.69748
1.4693265,137.6661
1.5254949,136.55939
1.3933483,133.50076
1.431988,132.47862
1.4156814,130.78665
1.5207361,127.258316
1.4381505,127.125465
1.4062873,125.97071
1.3874445,123.373184
1.2839407,125.35479
1.2693111,123.47823
1.4406035,121.60407
1.3184338,118.24185
1.3189462,118.08037
1.2764388,118.645645
1.2491429,115.4852
1.2079463,117.30845
1.2235591,114.613174
1.2198769,110.74573
1.229393,108.80464
1.2288783,110.60282
1.1228359,109.11838
1.0138038,111.9891
1.0497394,104.48326
1.1218816,105.33524
0.90352935,101.70322
0.93896085,100.90642
0.919098,101.42509
1.024552,102.868805
0.869156,98.48714
0.8659104,98.20582
0.947919,96.18606
0.9231142,93.52368
0.9419552,95.18807
0.94116294,91.90156
1.0020683,90.98188
1.0185614,90.950226
0.9195408,91.02846
0.8008286,86.39357
0.8035413,87.66304
0.8142607,90.53652
0.8726266,88.81946
0.8537892,88.912
0.9827092,86.31211
0.78812176,86.72723
0.7329469,85.53739
0.8102972,86.549
0.6720727,83.73187
0.61694586,85.09183
0.56905377,85.99591
0.570956,86.41774
0.6576495,88.06559
0.49498534,89.720924
0.5093978,85.8405
0.5820074,87.61692
0.5114985,93.075455
0.6404472,90.26845
0.57108647,92.62871
0.599253,92.77771
0.5525017,94.69463
0.65299344,95.31378
0.6110142,100.149254
0.77512777,101.34456
0.7185207,103.18573
0.69700396,104.44468
0.9480697,105.27587
0.9605885,104.792114
0.9978814,111.07253
1.211143,110.85512
1.1100359,114.37572
1.2624494,117.54203
1.2734947,118.70554
1.3978148,118.89483
1.5069972,121.914024
1.4894046,125.99047
1.6269348,130.32101
1.7030253,136.10936
1.7012279,132.11691
1.6585557,136.37587
1.7741438,137.2831
1.8552252,138.94609
1.8866453,143.20146
1.8533524,141.4326
1.843122,141.29027
1.8460957,144.92383
1.8480201,144.08781
1.9705354,149.40997
1.9478289,151.77228
2.0108812,150.01181
1.8520843,151.346
1.9594382,151.15767
1.9177746,151.90926
1.8282285,152.57812
1.8229605,155.87286
1.8923578,152.80179
1.8921965,154.65353
1.7851244,151.39247
1.8920425,151.83775
1.8119107,155.09134
1.7593216,152.2462
1.8286562,151.32375
1.767091,152.25694
1.6868166,149.06467
1.6644783,149.0729
1.6820972,149.49387
1.6338639,144.8158
1.5361611,147.58072
1.5636401,145.66208
1.5186938,145.92667
1.5493882,147.47537
1.3499603,144.90773
1.437299,139.15248
1.486143,138.94664
1.5231214,141.16199
1.3712394,141.63638
1.3306538,133.94675
1.4079984,137.8976
1.3155558,136.61694
1.257442,135.2257
1.394685,132.48943
1.3420933,129.09897
1.3515012,128.25406
1.3042406,130.16968
1.3410857,127.18956
1.1979543,125.89349
1.205996,126.939896
1.1421605,122.513565
1.308502,123.27714
1.2104347,122.561195
1.050893,121.53761
1.2345113,120.33178
1.1056828,121.066086
1.0870454,116.29615
1.0195343,116.89574
1.0984812,113.04889
0.9553524,112.235466
0.8520418,112.48619
0.9157592,111.52208
0.90102375,108.75731
0.90178216,106.524315
0.80576277,106.1798
0.7427075,104.65074
0.7547836,100.92188
0.7473445,102.21765
0.768523,103.57465
0.7389657,100.6936
0.7487084,98.40241
0.64838547,96.0808
0.6510027,95.980255
0.68025845,93.80019
0.6349576,98.195786
0.5930346,94.736206
0.625143,92.963295
0.7015189,93.02052
0.5350778,90.523865
0.6077703,89.55668
0.6093894,88.115036
0.59914297,88.52623
0.6023648,90.19393
0.5075011,85.739044
0.5070901,86.92494
0.48307,85.5521
0.482595,86.73762
0.4624748,86.10908
0.32216883,85.1433
0.42648214,86.960434
0.3496191,86.03518
0.2718088,86.35831
0.27622566,91.13829
0.27151972,86.98663
0.28273582,87.43474
0.15543772,89.885185
0.23253621,87.67935
0.15629378,91.08042
0.30938676,90.83881
0.20529832,94.94211
0.33783913,96.54151
0.32130715,93.81757
0.2965861,96.70863
0.36762276,101.783195
0.44196543,104.96753
0.39938623,99.66223
0.46679094,104.16843
0.55725193,109.5008
0.5916016,109.742004
0.7089694,114.295815
0.7850983,114.64371
0.8247787,115.3681
0.9097929,120.237915
0.8782016,124.64762
1.1306423,120.169426
1.0988986,124.46043
1.2309093,127.68535
1.1989478,132.513
1.1717284,131.58578
1.3490776,135.03012
1.3562605,136.92871
1.3744558,136.45793
1.411208,141.76448
1.4108515,145.82993
1.4389262,146.82404
1.4060179,144.90446
1.4547067,145.81017
1.6192232,146.65138
1.5005077,146.48424
1.4706421,148.63861
1.5249916,150.70242
1.4668794,150.71933
1.422646,152.21043
1.4628276,155.26474
1.4095914,153.40056
1.3867022,154.35081
1.5198276,156.0715
1.3722589,155.71089
1.4695486,151.18478
1.4578106,151.61073
1.4056126,156.73647
1.3488337,154.90187
1.2867683,153.42921
1.3042958,151.29211
1.2233357,154.91757
1.1099457,148.463
1.194768,151.11014
1.1671141,148.71422
1.1283684,144.08492
1.145537,146.49811
1.1402546,147.13213
1.1131735,148.11612
1.0557692,144.37675
1.1039242,142.95271
1.0955145,140.15648
1.0289496,137.85977
0.9431687,138.93874
1.0592184,139.08379
0.8879353,133.36693
0.94811153,134.42155
1.0044001,132.45404
0.9205331,130.84355
0.91825986,130.48183
0.95008916,129.89252
0.91622293,127.37427
0.86263126,124.96341
0.82962143,126.72449
0.91304654,123.1804
0.8276314,123.03816
0.8990135,117.63353
0.82960594,122.520706
0.83851,119.90657
0.73579055,119.39506
0.7576916,118.772804
0.7551989,114.706665
0.6125177,116.03059
0.5220687,109.95643
0.62480164,112.89033
0.5756851,112.57341
0.50556874,106.57463
0.4880434,109.35222
0.4409179,109.94196
0.41001034,108.567505
0.5115168,106.049446
0.3795183,101.39686
0.32550463,100.82172
0.41308105,101.05664
0.41391215,100.95344
0.34830922,95.878075
0.4184451,96.326035
0.30885738,94.4573
0.3478855,93.324585
0.39881536,92.03375
0.28061175,91.123215
0.2582482,92.3776
0.18286909,91.41584
0.19784488,92.61507
0.33555606,89.3109
0.39148107,87.31035
0.40085876,87.491905
0.2494609,84.02934
0.28199026,87.90897
0.20933028,86.1506
0.16679361,86.66227
0.09111818,86.62786
0.16066377,85.40139
0.06086568,85.026665
0.0033011907,85.79652
0.050059624,85.68175
0.06537067,88.07316
-0.06504186,87.87784
-0.037779078,87.68564
-0.055491902,86.98727
0.03074963,89.63611
-0.06769416,92.27642
0.11324599,92.94367
-0.060962558,90.6394
0.10213273,97.28793
-0.022603575,98.36638
0.079965845,95.18315
0.020454772,97.73097
0.2697549,99.407104
0.22351202,105.34321
0.33454227,104.90496
0.3534939,108.3623
0.38639095,109.02787
0.5955483,112.93187
0.62554103,119.49833
0.66971076,113.539894
0.7199924,117.2748
0.84387386,120.37093
0.8429848,121.879074
1.0137464,128.51743
0.93220216,129.62979
0.97265875,128.62007
1.0220524,133.57777
1.093723,133.76796
1.2383578,135.3373
1.2431186,137.82721
1.3323456,139.14899
1.3037821,143.64325
1.3331324,143.67381
1.3506835,145.80779
1.4112281,145.81363
1.394595,144.93117
1.4249972,148.90654
1.2604439,152.46387
1.4323266,153.2284
1.4309175,151.11063
1.5073097,154.06047
1.3535163,151.36858
1.347981,151.72127
1.4338623,151.99861
1.4515729,153.3073
1.4410678,149.38185
1.327945,152.20502
1.3209493,151.05254
1.413583,151.61441
1.2931223,157.06999
1.2864614,152.11887
1.1944321,155.24753
1.243341,152.86234
1.2354199,148.13152
1.2728698,151.79181
1.0952789,151.75797
1.1307529,149.79189
1.1798066,148.00978
1.1126091,145.00246
1.0975096,145.85426
1.1332589,144.82956
1.0632267,142.52774
0.9957318,140.5269
1.0839788,138.98224
1.0431498,136.90761
1.001483,133.76044
1.0161548,132.99158
1.0325408,130.97821
1.0502678,136.4913
1.1408587,129.80171
1.0366688,128.99326
0.97788894,129.95969
1.094808,129.8054
1.009523,126.81745
1.0269754,127.153725
0.8917843,128.8667
0.95606863,119.951836
0.91101396,125.736336
0.9810707,120.90443
0.87688017,120.80421
0.9027429,115.54438
0.892967,117.862595
0.8260459,116.63409
0.75107837,114.27081
0.7139388,111.49684
0.7415029,115.97238
0.6443286,107.71047
0.6593371,107.08884
0.6175533,111.235634
0.6169586,106.784004
0.63509244,106.33517
0.63823193,104.54257
0.58909875,102.98342
0.519287,102.53461
0.5497808,103.94447
0.55401444,97.805756
0.5551092,97.93952
0.4910794,98.97293
0.5495123,96.69997
0.52650285,93.853096
0.51184905,93.043205
0.5434177,94.57972
0.50136614,91.06976
0.48880622,95.07884
0.47936526,90.718
0.38208026,94.08102
0.58313984,88.08155
0.46902192,87.66844
0.5261162,84.49312
0.45950857,89.29952
0.38664117,83.57367
0.42719468,85.90376
0.43907,87.3408
0.41641352,85.2402
0.3519945,85.347595
0.3311535,84.75521
0.3263157,86.52159
0.40855286,86.86298
0.27608675,83.16328
0.2721208,90.30648
0.17216927,90.49531
0.22148302,88.99549
0.32228872,92.16466
0.15155607,90.70214
0.26393464,90.69607
0.42434105,95.76974
0.33303133,99.82641
0.26441517,98.15053
0.42885157,103.55172
0.45849413,101.4383
0.55273044,104.5185
0.55068874,102.08671
0.6742478,105.81563
0.78649175,110.4396
0.85444945,110.33053
0.9960885,114.494644
0.9122395,115.27871
1.0728796,120.357796
1.0916411,120.27959
1.1605688,122.42536
1.3111476,126.594505
1.3100201,126.233345
1.4055794,131.77261
1.4564505,132.55331
1.537594,137.36058
1.5735278,136.42868
1.5792341,135.87292
1.7293756,137.93979
1.6402754,139.65152
1.6901946,142.09253
1.8392451,142.08368
1.8129576,144.47383
1.7743089,146.40439
1.7004994,149.40694
1.7484412,149.66997
1.8033915,150.24594
1.873083,152.17166
1.7408438,152.26434
1.7461109,156.08806
1.8186063,152.6351
1.7969269,156.37692
1.7563944,151.42868
1.7718562,153.71735
1.6750903,151.68095
1.8269079,154.3927
1.8171744,149.55414
1.7227486,155.39194
1.7115595,152.58513
1.6627344,149.77133
1.7061833,147.92017
1.7244658,146.48235
1.6771969,148.01683
1.6456914,151.57855
1.6254275,144.18756
1.42257,146.29498
1.5308343,146.36409
1.5021144,144.0867
1.5542879,143.14868
1.4592755,141.59448
1.4356539,142.15784
1.4016068,139.70015
1.5679525,139.23596
1.4480027,136.8782
1.4447038,136.82614
1.4908693,136.74281
1.4471008,135.94817
1.3944083,132.29614
1.3781698,129.58673
1.5304426,132.94698
1.3887211,126.41384
1.2781446,126.329506
1.3515481,125.56069
1.3026363,124.02231
1.3459811,128.13034
1.3551303,125.8172
1.266443,119.207306
1.280184,119.93649
1.2176399,118.65664
1.1919442,116.397804
1.1380596,115.48049
1.1561486,118.03623
1.1938654,116.407295
1.1249139,110.5433
1.1773914,113.38013
1.1739146,112.18129
1.0351455,109.96465
1.0069863,104.87903
0.9805105,103.93277
1.0173156,105.944595
0.8790358,103.83967
0.946468,101.600296
0.87943906,100.97509
0.86148167,99.61529
0.8623567,99.85406
0.858092,98.00502
0.8739289,96.19617
0.90678877,95.59015
0.9605199,92.69599
0.9082988,95.19867
0.95948255,91.439156
0.97824776,91.59908
0.8985725,90.3592
0.9406342,89.05546
0.8342751,90.176254
0.8902878,83.56638
0.83968997,88.325676
0.7899464,90.19806
0.800429,89.98681
0.77789044,86.168304
0.75657296,84.15163
0.8413401,87.566124
0.69691753,85.068634
0.56707793,87.36859
0.69592816,90.13352
0.5335148,85.04791
0.5265925,89.344246
0.6101033,90.21375
0.57845664,88.911995
0.5173499,90.21378
0.48865643,90.53271
0.51469904,94.090096
0.6321468,93.59042
0.6590916,94.31234
0.60066813,97.70792
0.6204914,97.85066
0.6746376,99.03424
0.75530034,102.28392
0.86571705,107.208015
0.81856567,101.72648
0.8918481,106.15421
0.9827495,107.34331
1.0431225,115.20443
1.2056891,115.86438
1.2138803,116.505035
1.2981108,116.101265
1.4011543,118.894714
1.4549836,120.07603
1.4451064,122.81253
1.5509664,125.057884
1.5598359,129.8431
1.8098745,131.31291
1.7673707,133.9147
1.678697,132.26881
1.7708385,136.17003
1.831605,136.88376
1.9635493,141.57791
1.7888011,141.15837
1.953071,142.02289
1.9330146,144.24243
1.8822134,149.16023
2.0144491,147.69855
1.9146591,149.63828
2.0081704,148.91408
1.9233865,153.23778
1.956553,150.80354
1.9613948,154.55063
1.99851,151.68695
1.9703063,150.6709
1.893123,153.24399
1.900913,150.93939
1.8303897,153.64725
1.9464656,154.23845
1.9227953,151.60094
1.8469845,152.03973
1.744288,150.08165
1.7801621,150.14006
1.7082105,148.74698
1.7565671,151.86755
1.7771648,149.03368
1.7206589,148.33209
1.6818061,148.59128
1.619236,148.59506
1.6468967,144.39589
1.6225243,147.02094
1.4553553,142.35777
1.5105913,140.4743
1.5156982,141.42638
1.5277895,137.53769
1.493063,136.65497
1.4362466,137.31418
1.4613485,138.57777
1.4592769,137.40681
1.3618594,132.4944
1.3709692,134.53369
1.432984,131.38205
1.3720688,130.70865
1.4292737,127.27748
1.4691727,129.1652
1.4565,124.63827
1.3442945,127.56535
1.2734709,122.90561
1.3189706,125.885025
1.3575599,120.76779
1.3634348,121.60938
1.2280523,122.50378
1.2327095,119.97525
1.1761394,116.58106
1.1792744,117.22557
1.140313,115.2001
1.0814502,109.82298
1.0642884,112.24073
0.95011276,110.064674
0.94663477,110.64659
0.91481483,108.3719
0.98955643,104.72652
0.8227829,104.8894
0.9229805,105.41689
0.83969367,103.167
0.87835425,99.56362
0.7632442,97.72696
0.9058189,97.460815
0.7830854,95.10178
0.7540034,98.15741
0.79220885,97.02286
0.7015237,93.519844
0.7254907,97.12204
0.6484395,94.739746
0.7687724,93.38278
0.81791526,90.19604
0.7844906,90.303535
0.7354306,88.11648
0.6770878,91.17484
0.6856944,87.39955
0.723776,88.10271
0.54999894,84.25426
0.53657514,86.434235
0.59163195,83.47035
0.50857073,87.87424
0.5674617,86.2565
0.39634544,87.95029
0.40740243,86.67026
0.4168825,86.95127
0.4333246,85.52049
0.38791627,89.88794
0.36655927,89.3685
0.32268897,86.87182
0.29126492,91.991356
0.39238375,89.24116
0.29403052,92.48594
0.30178386,93.48812
0.33209413,98.10629
0.4418745,96.13136
0.37628344,103.10633
0.46572384,101.380356
0.5176559,101.7435
0.6369288,104.50662
0.7098716,104.57326
0.7236092,107.9453
0.7624529,108.687935
0.95109725,110.11507
0.9094203,113.54034
0.91515905,118.56352
1.1045017,119.50861
1.0965743,120.94254
1.1782447,121.69791
1.1913973,125.46526
1.2338415,132.67155
1.2519026,132.33426
1.3802133,133.71881
1.3455988,136.88324
1.4373971,137.15721
1.4712561,141.3956
1.6161046,139.88823
1.5738088,138.38608
1.5494244,143.30397
1.5935215,145.24806
1.5831378,144.25229
1.5776857,149.01231
1.6652567,147.01103
1.5766262,144.88602
1.5405953,152.91577
1.5737375,154.23952
1.5335605,152.03548
1.6851865,154.22044
1.5769368,151.86922
1.5707061,152.01598
1.5905095,153.39572
1.6026472,152.40126
1.6060154,154.37007
1.4359026,153.84335
1.5038842,155.24422
1.5126703,152.33931
1.4053824,153.50768
1.3660662,153.45895
1.3792479,150.69618
1.3715878,149.58209
1.301569,150.19182
1.2442809,146.7005
1.289391,147.46938
1.2319399,143.99287
1.2187582,144.68155
1.2267644,140.48724
1.1505046,140.26073
1.1911025,143.80452
1.0969833,141.27742
1.1492723,138.5513
1.1294132,139.73761
0.9682511,137.42535
1.0819085,135.94415
1.1180598,134.57289
0.98860645,134.6581
1.0484787,130.43063
0.96008235,131.99005
0.9505873,130.38905
0.88684344,124.61591
0.94915193,126.77537
0.9764508,126.09124
0.9533503,123.54459
0.99765015,126.05581
0.7963852,120.92485
0.9045517,124.998985
0.82081467,114.399414
0.79496855,114.92084
0.7879295,117.3223
0.7787649,113.51977
0.69698,117.009224
0.8039058,113.60295
0.61746264,110.19875
0.59432256,107.01671
0.6091875,110.46811
0.5781745,108.380005
0.50854254,108.06371
0.4507857,105.27064
0.48266968,100.29755
0.41063115,103.93217
0.38254002,102.68058
0.4239808,99.110695
0.35106423,101.00674
0.37521052,97.54172
0.40558282,99.552574
0.33365592,93.6599
0.33675945,95.88618
0.29742733,92.312706
0.3290715,91.18509
0.32481945,92.53713
0.31482446,87.5417
0.26256946,90.06663
0.28748626,91.8861
0.31099924,91.18782
0.24514629,90.561005
0.25292596,85.31627
0.13119984,86.1136
0.20145561,86.85645
0.12886927,85.1161
0.09772833,87.54475
0.07112833,85.58966
0.038986497,88.47302
0.13718036,87.7087
0.09557705,87.27646
-0.042831834,85.81083
0.021053594,85.972664
0.0057611526,87.80143
0.0067096613,92.093636
0.033408277,92.536
-0.045502283,91.1836
-0.001564139,90.85775
0.030697186,91.781624
-0.032802425,94.66578
0.074346915,98.19198
0.041374166,97.96522
0.17318784,99.92798
0.08790788,103.604645
0.30994216,102.25211
0.36859435,106.89694
0.3053055,106.433685
0.50808793,112.74573
0.51087457,109.97387
0.6918532,114.355896
0.6219734,118.45104
0.88911307,116.24708
0.89825636,118.8571
0.8130293,121.71299
0.8636941,122.913765
1.0041794,127.86279
1.1604522,129.70679
1.1414182,130.10529
1.1496893,133.44789
1.2394096,136.81586
1.2236035,140.98604
1.2503455,141.17375
1.2564179,142.72014
1.2989885,143.37471
1.3118833,142.77303
1.1960688,148.1488
1.272302,147.81386
1.3980018,147.15004
1.3799034,148.2569
1.3289539,146.8905
1.3800429,149.5883
1.3863556,150.62567
1.3237661,150.57747
1.3055303,152.51505
1.3250754,155.41246
1.4135737,154.45749
1.395589,154.41287
1.3030965,154.02396
1.2669139,151.69449
1.2452371,151.48224
1.2815812,151.74634
1.1893413,155.26932
1.198515,155.02396
1.1283442,154.45583
1.1862166,151.96046
1.1696153,151.20348
1.0996176,146.7594
1.1007341,149.53401
1.0679522,148.44547
1.0892869,143.76842
1.0473809,143.8709
1.0853486,144.1843
0.9573415,142.9074
1.0171709,141.42264
1.0277908,140.2029
0.9360567,136.04587
0.93087286,136.50583
1.0021505,133.2009
0.8811565,136.85507
0.94528276,131.07321
0.9396047,130.28223
0.85674727,129.19469
0.9215971,128.28961
0.9276912,126.63804
0.85178006,128.86688
0.8067392,127.46297
0.8465163,123.72146
0.7994392,122.340355
0.90084153,123.15233
0.77766484,122.08648
0.7493184,118.85209
0.76762044,116.93234
0.7632254,117.38589
0.7841665,116.94784
0.7169415,114.199005
0.6378791,110.652504
0.5998833,115.6058
0.4914776,107.942024
0.49701843,109.444786
0.5473064,110.42356
0.43692133,106.9135
0.49593088,109.35796
0.4450841,104.64205
0.4788837,105.28991
0.40850687,104.70435
0.38866103,99.07292
0.48236322,102.40461
0.4788372,97.29573
0.3698184,97.77653
0.4514338,94.712204
0.49088028,94.32313
0.50063795,92.44815
0.48662493,96.015656
0.4393844,88.85426
0.41372806,92.49775
0.47365758,89.74739
0.3977381,85.35438
0.42623857,88.44335
0.33830443,87.855965
0.33929652,88.3558
0.4630277,86.005264
0.38184187,86.58891
0.3337224,85.30629
0.38584933,85.11207
0.20918515,87.76679
0.21349414,85.35465
0.21489255,86.30793
0.2285821,89.08557
0.239481,89.09571
0.16827807,86.91679
0.13841337,91.96366
0.08700145,89.82642
0.12713906,89.10564
0.09913737,89.59262
0.20806715,92.86098
0.16727605,94.22041
0.29179066,96.85667
0.18079543,97.13902
0.16040377,95.007454
0.3151134,99.79649
0.34579843,104.511856
0.4010105,104.2505
0.4737749,104.84376
0.6037885,106.638794
0.7230605,110.21847
0.7267205,112.76936
0.84909034,113.1353
0.94776165,114.08005
0.92969376,119.57889
1.0611489,120.809364
1.0725352,120.50815
1.1309059,126.89457
1.2766277,127.83496
1.3408546,128.2248
1.3500564,132.2841
1.4106306,132.63702
1.4646595,137.51958
1.577267,136.72256
1.5787194,136.89354
1.5621289,142.13033
1.6297547,139.76854
1.6922771,143.31398
1.665577,144.58728
1.6423923,144.87312
1.6443197,144.72296
1.6528196,151.28905
1.6652455,148.25421
1.6533158,151.3522
1.7044187,153.6836
1.7292497,153.55116
1.7029134,151.97382
1.6472944,153.11485
1.570238,152.77853
1.673541,158.01924
1.5878073,153.19963
1.685754,152.63377
1.5706328,154.3999
1.5918347,148.84793
1.6099663,157.19759
1.663403,152.3005
1.5334119,150.51996
1.5122741,150.88654
1.5395726,148.12764
1.494837,151.47435
1.4861165,149.24472
1.4511108,144.76982
1.47989,146.29758
1.4826584,143.02014
1.4109601,143.70807
1.3884577,146.00313
1.4012635,140.5886
1.4929631,142.3115
1.3469721,138.51122
1.4188035,133.29668
1.3106321,135.97409
1.3237666,135.67776
1.2898976,132.00145
1.2173663,132.12282
1.2889175,131.36191
1.2653764,129.45428
1.358043,127.612625
1.3345906,128.57678
1.2932346,126.36396
1.1656271,126.037544
1.4560317,127.5394
1.2756284,121.20526
1.2738575,120.92534
1.2947927,121.403564
1.1357092,117.380875
1.1032085,112.37935
1.1853616,112.6849
1.0408382,114.02092
1.0714185,116.92856
1.0795201,110.00311
1.0113133,112.680145
0.9637849,109.48246
0.96752095,109.28006
0.93028516,110.492775
0.8756294,107.86323
0.91439235,108.06188
0.8604947,104.671715
0.9971297,101.691795
0.8309666,102.207214
0.8098214,98.450195
0.8814677,99.02197
0.8334927,100.85989
0.89830333,95.61889
0.8813757,95.39794
0.7816921,92.2344
0.9034266,93.69184
0.87529135,93.54983
0.9041703,90.612854
0.91884816,89.751816
0.759802,88.28925
0.84113073,88.82422
0.85928756,87.839905
0.825481,88.297386
0.8034609,86.96294
0.78788316,85.772606
0.6538198,88.43147
0.707317,90.401794
0.7165109,85.11112
0.70604146,88.185646
0.57623094,86.573425
0.57852966,85.240486
0.5853579,87.762825
0.6424477,88.51152
0.44274494,86.47991
0.5698779,89.4864
0.55297595,90.00376
0.56725544,92.57978
0.49683464,92.028076
0.5914194,93.4775
0.5802584,96.61381
0.6135635,98.31543
0.72851807,95.09638
0.6335472,100.942955
0.7874832,100.78828
0.8315205,100.41608
0.9670385,108.60116
0.91301656,107.3608
1.0163069,109.599724
1.0607523,112.14259
1.1784198,111.44626
1.1982168,116.836784
1.3358972,119.853485
1.3502266,119.06265
1.3726238,125.815956
1.509627,125.914856
1.5552216,127.944145
1.6167293,129.32338
1.5893714,131.48518
1.7317187,132.81184
1.737268,137.72461
1.7079875,136.3511
1.7922822,139.9133
1.8518124,143.44151
1.8875091,140.07838
1.8886665,146.60765
1.8956293,146.53322
1.9211283,145.95703
1.9542956,147.31725
1.8777542,152.75056
1.9120241,150.50716
1.9621663,151.90381
1.9266652,154.11546
1.8836087,151.68352
1.9767749,150.22833
1.9424003,153.11803
2.0020516,153.09349
2.0467713,154.91594
1.9198269,151.9062
1.8361185,152.88573
1.8322754,151.84927
1.8799932,155.34216
1.8726685,151.7345
1.8176761,152.80956
1.863775,150.98112
1.8112719,148.20876
1.7978102,147.5225
1.6589102,147.96141
1.5848578,151.50653
1.6785793,145.40033
1.6547267,147.47957
1.6996379,145.29677
1.532695,141.40135
1.5472279,143.05696
1.5862712,143.00296
1.610703,140.34415
1.5218904,139.3455
1.5794648,138.37584
1.4800944,138.14935
1.5546029,136.74008
1.5018756,135.3945
1.4279965,134.50548
1.5020267,132.12582
1.5046254,129.47519
1.4714046,127.39526
1.5158687,127.18126
1.428568,127.50481
1.377756,126.73153
1.4380332,123.07597
1.2496421,124.6291
1.3545331,122.5202
1.3888623,119.603226
1.274288,117.32073
1.2102922,120.14016
1.3232806,115.68049
1.184839,110.30584
1.1922082,112.822105
1.1108265,114.215675
1.0073344,110.32355
1.075015,111.45589
1.0704709,109.77136
0.97090566,107.998726
0.95707417,102.41497
0.9196718,104.97377
0.923663,104.19849
0.967829,103.290215
0.83196515,101.78405
0.83663356,101.16267
0.8466901,99.48325
0.9006909,101.92303
0.8216074,100.24087
0.86236614,95.06358
0.871884,93.87723
0.81599027,94.352806
0.8791148,93.67821
0.866557,90.290535
0.8651979,93.241974
0.9152169,88.86114
0.858392,90.49366
0.80890334,88.12429
0.7161389,89.38043
0.7362655,85.32364
0.6913962,85.208206
0.6883424,86.229294
0.6137431,85.16127
0.62123513,87.43732
0.5668266,87.40398
0.5227978,86.13188
0.47636577,88.75995
0.45217106,87.664024
0.51385957,84.305725
0.47619244,86.44798
0.36608103,87.85716
0.38383293,91.82984
0.40725207,92.8998
0.38336414,93.745544
0.3629904,89.84387
0.42547622,91.46743
0.4686103,94.21742
0.48144832,99.76544
0.597567,98.801155
0.57278633,103.123405
0.6612243,102.10436
0.7054631,101.6713
0.74923855,105.737236
0.80157036,108.34767
0.9414595,112.370224
0.94307363,112.20061
1.0069163,116.05149
1.1882428,118.871826
1.1847485,119.75567
1.2211381,125.0468
1.1975571,124.883514
1.3810749,127.88962
1.359085,128.0587
1.4274089,129.07635
1.6093587,134.23737
1.5106442,133.1462
1.5650265,138.93828
1.6328622,137.71349
1.7048163,142.27216
1.6884091,140.84991
1.6620338,144.25212
1.6272578,146.6796
1.6373628,146.93985
1.728663,148.62372
1.7139258,148.8548
1.6114962,149.54433
1.6668411,153.07932
1.8123215,149.45772
1.6703498,154.73479
1.657769,154.19283
1.6957682,151.8733
1.7091947,149.8277
1.7388868,150.62242
1.6718143,151.3105
1.6644852,156.60568
1.610589,154.31421
1.5997823,150.584
1.6330131,155.25327
1.5982523,153.1838
1.4312758,150.06996
1.512645,150.17293
1.418934,150.79192
1.4027383,149.63765
1.4290391,145.3243
1.4119811,146.73921
1.3281517,144.29913
1.330032,141.90526
1.2197074,142.49469
1.3757299,142.13747
1.2392257,141.98073
1.1791191,140.98482
1.2435987,139.66812
1.1851425,136.98906
1.0999352,136.57222
1.1791751,133.60796
1.134077,134.08968
1.0596901,131.29762
1.0836154,130.30891
1.2033904,130.56677
1.1692461,129.54126
1.1565969,125.16273
1.028967,127.741264
1.0098336,124.96608
0.965149,120.41376
1.0354835,121.12436
1.0007746,122.39526
0.9110986,122.9163
0.9077084,120.94553
0.88491344,117.94348
0.8017278,119.827484
0.8337667,115.80107
0.73413336,117.53166
0.7925426,113.27895
0.68532073,111.91996
0.75287545,109.985085
0.6130235,105.692184
0.62458706,108.03452
0.6749286,103.96316
0.5613657,104.47597
0.6230574,102.04253
0.520899,102.35554
0.47225475,100.19322
0.54736,101.63665
0.39723292,98.158195
0.62669253,94.53553
0.47003433,97.26999
0.4892276,95.46658
0.47425053,94.95735
0.5090104,91.4407
0.50136375,91.81035
0.44035,87.85662
0.3667074,90.42054
0.43666506,87.06721
0.33933356,88.90811
0.37385422,89.30722
0.42346323,90.31859
0.2509383,85.28048
0.34858397,88.21053
0.31920248,88.274574
0.24413873,86.081825
0.24735183,85.47106
0.10520578,85.06905
0.08082927,86.25558
0.17806941,85.857155
0.12422371,85.18674
0.14440858,87.06343
0.025776112,90.239716
-0.034908388,90.49518
0.063843295,89.460594
-0.008848846,89.67531
0.060935456,91.66151
0.056208182,94.61064
0.022248495,93.052956
0.04244586,94.175316
0.09763234,95.23345
0.21798453,97.70287
0.163588,99.987305
0.24879059,105.133736
0.4079458,102.901344
0.35417196,108.41406
0.44805756,108.29474
0.4858303,109.67292
0.56416816,112.87428
0.56324065,118.9075
0.73443586,115.28818
0.73060244,120.713165
0.82654893,122.64002
0.882964,122.2001
0.9953472,127.87317
1.0448061,127.785
1.0623739,131.24934
1.1665361,130.7345
1.169345,136.99654
1.2422745,134.26436
1.261287,137.16974
1.3556182,143.20758
1.2531775,142.37946
1.3404329,145.36119
1.3414402,147.11938
1.2694046,147.39384
1.3425708,148.95988
1.3171242,145.52718
1.502748,147.43031
1.4181483,150.49197
1.4305977,150.23988
1.4260073,154.35384
1.3360488,151.53197
1.3066906,154.42685
1.333141,153.54349
1.3447677,152.05475
1.3988129,150.78413
1.2971971,152.94104
1.3015585,153.36488
1.202279,153.51453
1.3028998,150.5078
1.378629,154.16568
1.2967402,149.74739
1.1925368,150.1125
1.2110307,147.8546
1.17396,150.00113
1.0356544,150.61975
1.0535638,146.85596
1.0306222,143.86906
1.1254022,143.78491
0.9869088,144.86879
0.95168215,143.19875
1.0183281,140.82248
1.0056832,140.78659
0.95553845,143.55382
0.93719083,142.23903
0.9477769,137.09192
0.9946233,137.65382
0.9348076,135.1197
0.8771111,133.18939
0.9153155,129.50806
0.831155,128.80096
0.7591658,130.20778
0.85431415,127.13362
0.86839616,127.91845
0.8490884,123.96948
0.8011597,123.71985
0.8463778,122.45699
0.8647658,122.81477
0.7573637,113.00996
0.8067238,121.200966
0.7470232,119.20591
0.7144753,118.2906
0.6920277,117.95892
0.5961685,111.3838
0.6345227,112.45315
0.5769919,112.872444
0.55598027,112.35457
0.5662407,108.21439
0.40247542,110.22511
0.4777548,105.04629
0.45028734,104.88104
0.35987088,104.9292
0.4035775,103.91746
0.35169297,104.87499
0.41961917,99.70871
0.32362103,98.770065
0.44439745,97.75538
0.3727468,94.82827
0.40637854,96.756744
0.3640553,92.94266
0.43527454,89.73491
0.24244727,92.62387
0.3766617,93.5391
0.32016796,90.3609
0.29135674,87.47597
0.26387435,89.732086
0.3935211,86.953354
0.33138242,89.67616
0.28903317,87.583435
0.2186754,88.263115
0.31790534,83.97798
0.24952252,84.36498
0.17458165,88.35695
0.2359405,85.75209
0.08882994,90.0388
0.17964675,81.8958
0.07881533,86.710625
0.03751774,87.18832
-0.051977932,90.04114
0.09205272,90.94181
0.08229317,87.350105
0.023602987,90.17367
0.107111186,91.50232
0.11000356,94.035416
0.111674465,92.12685
0.05808401,96.49715
0.1571056,95.096344
0.25514293,100.11428
0.21221156,100.83016
0.27980605,102.269844
0.3743973,106.70393
0.44952214,106.71798
0.59096795,106.04355
0.5626654,108.35438
0.7462783,110.5062
0.78649825,115.372765
0.8593393,117.19528
0.9678204,117.65225
0.8597261,122.88139
0.95349103,123.40054
1.0555483,127.003204
1.117095,128.0902
1.2218251,127.8029
1.2747705,132.1746
1.26974,134.36311
1.3149703,134.91876
1.3991928,142.06615
1.368205,139.92165
1.461689,138.99213
1.4899795,145.9478
1.4908694,144.91083
1.5055842,145.35078
1.6180443,144.54408
1.5451115,147.6453
1.5483725,148.53516
1.4521265,148.2262
1.5251396,152.44838
1.5119784,152.61111
1.5881536,155.94946
1.5459074,153.64848
1.502149,151.59637
1.4935755,151.4387
1.4532242,149.70471
1.472336,152.32495
1.5628293,153.08183
1.5625116,152.23381
1.4955837,153.29774
1.5150237,153.21379
1.4311063,149.30617
1.4493763,152.06026
1.4321404,148.70535
1.4075496,149.75423
1.3046784,148.63278
1.3317788,145.47993
1.4092802,141.9311
1.2804797,146.02533
1.2950306,143.754
1.3549064,143.8267
1.3526429,139.83719
1.2246001,142.17868
1.2248563,141.11005
1.3917848,138.61618
1.2134365,138.21931
1.306257,134.2729
1.2578543,130.22014
1.1635633,132.06413
1.1113888,131.77988
1.2758456,131.08177
1.293358,133.34117
1.206339,125.24002
1.144039,128.28633
1.1604247,124.8183
1.0883546,123.80112
1.1233393,119.71787
1.0720092,119.554985
1.1061693,120.196045
1.0319842,118.538734
0.9726866,120.29895
0.9545579,117.09423
0.9330621,115.093025
1.0687718,113.12673
0.9009013,113.575424
0.95354,111.490326
0.91190803,109.73537
0.91654545,110.64647
0.8789235,107.93658
0.8745428,109.19146
0.87708557,105.39875
0.85552245,101.860565
0.7834622,103.529106
0.8002381,99.96597
0.7171718,98.237236
0.7298634,97.20757
0.6952933,97.869736
0.7536185,95.63728
0.7630948,97.676834
0.77374685,94.50726
0.7715015,94.27009
0.77897453,94.435776
0.82908636,90.48296
0.88067263,92.069595
0.7281577,89.26466
0.7553978,90.9484
0.79146177,89.17994
0.7395801,88.065926
0.65210474,86.1715
0.6335679,87.16006
0.6302216,86.694565
0.6020163,84.849556
0.6167434,84.37724
0.60142905,86.716965
0.52142453,85.48118
0.43980482,84.83821
0.47158837,88.772675
0.57323736,87.37195
0.5199089,86.93728
0.48985118,89.74109
0.47964448,90.03986
0.44569713,93.33062
0.3788109,90.03141
0.5196564,95.966896
0.39747894,91.767845
0.5642265,96.70547
0.55387926,96.802635
0.59518635,98.90137
0.5975839,99.80692
0.73675454,105.28012
0.66466695,103.9634
0.8008843,107.06065
0.9513298,106.11861
0.89322335,111.24982
1.0076983,113.21305
1.1217788,116.020706
1.2202333,116.3157
1.2642074,119.3268
1.2914311,120.16984
1.5054635,122.6159
1.4204143,124.273315
1.467002,126.728516
1.5659732,130.59488
1.6530957,134.47643
1.68385,132.54262
1.7245485,134.33553
1.8116615,136.74046
1.7758443,140.12263
1.850981,142.85973
1.8707248,145.26474
1.8006288,145.30223
1.896138,147.97456
1.8942229,146.59445
1.9281286,148.49785
1.9403828,149.18863
1.8567368,148.49962
1.8433026,147.8874
2.0129945,150.78406
1.9248434,151.84378
1.913245,150.62466
1.9230536,155.6973
1.8160217,153.64775
2.017637,149.92291
1.9162105,152.55063
1.8755344,153.26187
1.8108062,152.6035
1.8782109,148.38171
1.8651209,152.87488
1.7912548,149.75328
1.7755799,151.4727
1.7466328,151.2878
1.6739211,148.17389
1.6960047,149.46169
1.6890364,145.81242
1.633306,147.16765
1.6953306,145.13242
1.5535566,144.5623
1.6356668,144.88396
1.6253577,141.06711
1.5030011,138.16649
1.51923,139.6911
1.5953051,140.21527
1.5772936,136.12277
1.531811,134.29123
1.4252442,132.78104
1.4446573,133.52095
1.4781927,131.54025
1.4672279,132.9772
1.4174713,127.35787
1.4244878,129.9455
1.4055941,124.887764
1.4384309,126.93273
1.4852198,122.57445
1.492702,123.64524
1.3799062,123.15596
1.3294786,120.80009
1.3670734,116.904144
1.34152,116.97447
1.3387184,116.67941
1.2928082,116.459496
1.1909153,117.60726
1.1249043,115.02771
1.1087749,111.641136
1.1195539,109.851364
1.1052477,109.64563
1.0684912,103.65455
1.0014379,108.75382
0.93678004,110.483536
0.9718941,105.39971
0.97114044,103.15028
0.9435971,100.660835
0.94633627,100.38759
0.9179598,99.26217
1.0070871,99.20471
0.8206376,93.19232
0.8659005,97.024254
0.97471684,93.468185
0.86938536,93.64589
0.83258456,93.68572
0.9324204,89.319984
0.8289735,88.208244
0.7787855,91.99497
0.8261534,90.781044
0.85871154,88.77545
0.8437324,88.81357
0.90379196,83.956314
0.85320485,86.669495
0.76483995,88.2785
0.7198228,84.95813
0.73001444,87.72944
0.6435215,86.99563
0.6654242,86.92383
0.6204488,84.86623
0.6203875,88.02733
0.51824206,86.22076
0.50269336,83.02416
0.45128077,89.35085
0.5182342,89.946434
0.45396608,90.14778
0.4993381,90.86671
0.4862961,94.11388
0.5868154,92.332466
0.5793001,94.79736
0.53314114,95.35926
0.67648387,96.5409
0.66364944,97.73247
0.7547873,102.918625
0.6935661,104.70317
0.7753963,107.99954
0.8537002,106.70773
0.93665445,112.69937
1.0343058,112.48523
1.0242575,110.312675
1.146869,114.98657
1.2576153,115.96136
1.3734268,123.93727
1.4897966,122.85032
1.4939411,126.421326
1.4394708,128.39389
1.6045046,128.0905
1.5475312,134.78656
1.7045765,132.15636
1.6610641,135.46863
1.6223054,137.24983
1.7246827,141.1592
1.7121023,139.04941
1.8562425,142.3412
1.839829,142.20682
1.8439407,142.5193
1.8584163,146.54922
1.7201147,149.7717
1.8577969,154.9246
1.8473299,150.50317
1.8466871,150.49367
1.7972512,149.42012
1.8142375,148.86562
1.8328751,155.5486
1.8517083,154.75085
1.7939879,150.45476
1.8040898,152.67986
1.7445744,153.2794
1.7963766,154.6207
1.6449326,155.62323
1.6983341,150.77144
1.6866198,152.8107
1.5690852,151.06422
1.4879421,155.63742
1.6416818,151.25339
1.455647,149.44965
1.4428489,149.4864
1.4945699,146.76971
1.4584308,143.64192
1.4940721,144.59306
1.3752409,143.67278
1.3923957,143.8029
1.3699666,139.51288
1.3538301,140.28264
1.3689328,140.12404
1.2623494,137.66344
1.3085375,136.94131
1.3275177,139.5188
1.334288,131.46254
1.2570775,132.77304
1.3556187,134.41707
1.2915629,128.2856
1.2028903,126.75086
1.3155755,128.61525
1.2657971,127.56502
1.179808,125.40117
1.089556,123.842384
1.2588178,122.04309
1.0692701,123.09487
1.1616763,119.3418
1.1188831,118.28212
1.0347377,115.62951
1.1023176,111.86512
0.9959654,114.83866
0.9840609,115.24404
0.8320046,113.66264
0.9198939,112.37986
0.7684552,110.97435
0.75598925,108.69634
0.75355184,109.26853
0.7443413,104.60728
0.65375507,103.12152
0.69925964,105.6054
0.6357533,101.77929
0.5288016,105.00502
0.6042745,101.99169
0.4421255,102.16911
0.5343137,98.527016
0.53919506,97.85665
0.5365055,93.98687
0.6203846,96.53545
0.5699979,96.678764
0.52833605,94.14111
0.6420911,93.49372
0.532776,93.20866
0.42272893,93.71339
0.44023943,90.957115
0.46399108,90.08006
0.51346797,90.42044
0.48612723,85.66242
0.34635925,83.40722
0.38484374,85.58054
0.39566618,85.60641
0.31458747,87.75723
0.23889834,86.82761
0.3302999,85.89537
0.26582542,85.388115
0.13753709,84.34474
0.20527092,88.67217
0.11828791,89.04607
0.07840463,86.88207
0.10754383,88.82458
0.14106674,90.0148
0.088318214,92.69915
0.20262541,97.157005
0.08847459,91.08708
0.15994506,96.88906
0.21347068,96.793236
0.22795597,95.89503
0.27509192,98.09525
0.23599221,101.557205
0.3814094,102.96733
0.2806526,104.69283
0.453832,104.12552
0.47282,107.48304
0.60184515,112.27492
0.7182436,111.09035
0.7152295,117.64815
0.8487658,121.74482
0.9406767,119.51351
0.953483,121.37649
0.87009156,127.59216
0.9728992,126.43885
1.086657,131.12259
1.2664126,127.51637
1.1850705,135.45943
1.3046274,135.62822
1.3508906,137.6751
1.3339139,138.82298
1.3516589,143.47833
1.306228,144.00172
1.3922925,145.11299
1.4824841,146.27534
1.416718,147.81798
1.4012719,146.9318
1.4016916,147.66151
1.449525,149.41057
1.4497595,153.13591
1.442735,151.443
1.4467379,151.9435
1.3892722,154.59071
1.3494737,151.54544
1.4324992,151.95178
1.395199,151.60939
1.4421767,156.19145
1.3286377,152.75305
1.2670819,150.41878
1.3534536,155.18987
1.2031833,151.80695
1.2880707,152.87117
1.2197149,155.23868
1.2112648,150.41231
1.1320728,148.55936
1.1444513,151.10399
1.1799614,149.31078
1.1080421,144.15302
1.069537,142.68338
1.0183899,145.81079
1.0622084,144.12596
1.108925,140.43234
0.9593841,141.57082
0.99537766,139.96457
0.94446754,137.63054
0.97868586,137.68974
0.9522505,135.97215
0.9231477,137.54706
0.84957516,135.33737
0.87618226,134.28209
0.9214051,131.91617
0.86552095,130.91054
0.9045291,126.50687
0.88293386,127.65244
0.842925,123.51269
0.8866214,124.715355
0.84354955,122.664154
0.8061816,122.85511
0.8011841,122.359276
0.7051087,121.179665
0.77783036,118.32901
0.7768912,118.36054
0.6484168,117.55641
0.68397146,114.02339
0.5713635,117.64476
0.63289064,113.34819
0.5483543,113.000275
0.5492094,111.1566
0.4152668,107.888336
0.38033086,109.26979
0.48007283,104.0772
0.36061013,106.10781
0.40053436,105.18328
0.3639865,103.727684
0.35359895,102.0904
0.24651676,101.34694
0.38722005,103.63005
0.3849563,95.9738
0.27801067,95.91088
0.343647,97.66309
0.34741983,91.64784
0.31428638,95.33744
0.39208072,93.143486
0.23190536,90.52512
0.24871868,89.71948
0.29091346,89.24233
0.38104823,88.339836
0.31940985,86.09315
0.21686503,87.49205
0.21535006,89.44125
0.17184187,87.3524
0.20885839,87.293304
0.28661683,83.772835
0.055483066,87.41012
0.067857035,87.14858
0.050088968,88.61412
0.06214039,87.83556
0.07057001,87.6962
0.11476412,87.112175
-0.041026674,85.0045
-0.04959171,87.38635
-0.07537431,88.04139
0.038302917,93.685074
-0.030400202,90.06011
-0.041170817,92.052795
-0.031846773,97.76767
0.08654197,93.77465
0.17131682,92.92105
0.08090086,102.473946
0.21841563,100.373436
0.2646225,99.365135
0.3338415,105.584274
0.38738903,103.68412
0.36116692,108.505295
0.53784406,108.34033
0.49295482,111.141685
0.728439,114.410484
0.6207939,117.90936
0.80226904,117.48368
0.9257506,125.039894
0.8775422,124.04177
0.93149173,127.275055
1.0975666,127.35045
1.0254834,130.73474
1.0753282,132.78235
1.2070429,135.0956
1.2565119,136.96887
1.3395785,139.99918
1.3853011,143.22911
1.3380156,141.02625
1.3722149,140.87901
1.4571222,146.10875
1.3606545,145.65776
1.4043653,147.0034
1.3893604,148.93454
1.4261763,148.4782
1.4645278,149.55966
1.4219806,149.74355
1.42726,149.53726
1.5162541,152.36612
1.2879968,154.84189
1.4649042,153.36214
1.3983829,150.70525
1.4244897,153.15874
1.4450969,153.17589
1.3821163,153.95413
1.3322879,151.97707
1.3807846,149.96355
1.3563191,151.5846
1.3593317,151.0041
1.2762008,147.91452
1.3398623,148.5732
1.2379379,148.33664
1.2477512,148.98663
1.2650592,147.79115
1.1651291,147.086
1.2407873,143.45918
1.2310964,142.27824
1.0915811,140.66971
1.1887654,142.82146
1.1445541,139.95862
1.1677171,137.47156
1.1782726,138.81374
1.1515558,137.28694
1.1108898,135.5064
1.1234019,132.54324
1.1070542,130.59706
1.066042,130.69406
1.0945024,128.80933
1.0885415,126.82799
1.0616343,124.41363
1.0377018,129.69127
1.1003302,122.85572
1.1169975,122.2801
1.0520825,121.971245
0.9252951,120.42884
0.94439095,117.40719
0.9957315,122.03875
0.9294636,118.75582
0.84133714,119.349434
0.83203894,112.69412
0.82726324,113.30674
0.7581855,110.59868
0.7665198,107.2891
0.7879398,112.02793
0.7963001,106.25529
0.72555184,107.36771
0.7705985,106.59112
0.6278617,105.400955
0.70628023,102.41846
0.6632119,104.927986
0.6045965,104.836464
0.5734356,101.46693
0.6465254,100.19648
0.5986758,96.72377
0.63087434,98.082466
0.6385237,96.49306
0.53722656,94.30611
0.62265,93.58988
0.5562137,92.31877
0.56976616,89.95789
0.63041455,93.644585
0.6637284,90.4936
0.6672443,89.80283
0.64183825,86.934105
0.5290081,90.45976
0.62180424,87.72747
0.54612577,87.71317
0.5846373,87.945145
0.46034598,89.33331
0.4166482,82.849976
0.46585122,81.42581
0.4097296,86.942055
0.4679871,89.36943
0.38835627,86.6167
0.46066916,86.36537
0.28473914,84.31
0.43755123,87.16032
0.35409185,88.957596
0.26742628,89.21433
0.43883753,93.61161
0.31038582,91.20412
0.3702724,92.72763
0.35121027,97.50191
0.40867224,94.763885
0.45125154,98.94765
0.5181132,101.456764
0.55257905,103.82483
0.676074,105.77911
0.7994749,108.18436
0.73984873,108.00364
0.8728343,113.323006
1.0046979,114.0356
1.027307,116.3359
1.1494637,115.84479
1.1660787,120.24964
1.2391523,122.94782
1.294855,122.634605
1.4272577,130.47878
1.4705184,127.97222
1.4697948,130.55763
1.6459386,134.06401
1.5842512,136.16661
1.6143785,138.37811
1.7560197,142.06837
1.7255412,138.90662
1.6912425,142.42609
1.788096,143.9466
1.7299262,143.12776
1.81636,146.37215
1.7821109,147.65591
1.8048167,145.78345
1.8557291,151.41623
1.8688124,152.73468
1.8860536,152.54358
1.787431,155.0183
1.8373692,151.55435
1.9217818,153.1118
1.864588,153.18495
1.8595878,155.89452
1.7709717,158.36069
1.8041792,154.53928
1.8387417,153.4385
1.8773072,154.01927
1.7260822,147.92361
1.7371602,146.0799
1.7072843,151.4015
1.644235,150.27684
1.776346,148.22218
1.7030338,148.67273
1.6450009,149.05385
1.6348121,145.17012
1.5498873,147.49818
1.6312003,143.08691
1.5333066,141.61465
1.6401597,144.74107
1.57707,140.6499
1.5526658,143.22644
1.5427783,139.05727
1.5396191,139.5974
1.4664575,136.7834
1.4678559,137.79538
1.3866204,135.07362
1.4804481,133.33679
1.5115639,133.90451
1.5133984,130.59631
1.4126912,128.37883
1.3665551,126.00216
1.3844823,124.552956
1.4163274,125.037285
1.4170915,123.0764
1.4793727,122.68547
1.3545636,121.61479
1.3753655,122.24518
1.4007332,120.927895
1.3468173,120.709625
1.1745527,114.872894
1.2411081,116.28738
1.2034626,111.80671
1.1383818,115.06565
1.1920844,112.171585
1.1129515,109.13908
1.1339009,109.53888
1.0511156,108.145355
1.0298244,105.38479
0.96699125,107.33787
0.9968835,102.39985
1.0099621,103.56313
0.87519324,102.43046
0.88803405,101.29672
0.79351926,98.357216
0.8426488,96.45801
0.98467785,95.53846
0.8580334,94.747925
0.9978242,94.898544
0.87118614,93.10154
0.94432914,92.73381
0.90561765,91.367424
0.93337995,90.644394
0.95296526,89.26004
0.8420547,87.06704
0.92407376,86.9228
0.8322216,89.9078
0.8386968,86.879074
0.8251507,85.96312
0.7632027,86.84662
0.80164844,87.03164
0.7678533,85.78157
0.6829895,88.885254
0.7211139,84.243164
0.6094791,86.48984
0.60517263,85.936966
0.5364213,86.05574
0.6101981,85.847015
0.48066807,88.73789
0.59146094,91.0225
0.5685842,91.17931
0.5169935,92.56239
0.5926084,92.63199
0.47748193,93.859795
0.54901856,94.31528
0.6643004,94.70624
0.6063131,98.62453
0.75492454,101.7683
0.76423734,101.92914
0.8809287,100.76016
0.83237904,106.4458
0.9372478,110.25203
0.9231406,108.708405
1.1073883,112.45397
1.1398852,115.38538
1.2040209,116.31578
1.2174938,119.6607
1.3642974,119.13968
1.4336545,122.06589
1.539496,127.74248
1.518473,127.381165
1.5954367,129.71349
1.6124299,131.85901
1.6482093,134.71758
1.812134,135.92815
1.8698331,138.16653
1.7045288,140.43709
1.8341122,143.80151
1.9609454,140.98709
1.9665676,148.82278
1.9230977,148.50758
1.8250015,147.05545
1.9461156,152.3967
1.9136806,149.93192
1.902967,152.96712
1.9709069,151.27713
1.9115105,151.31273
1.9172635,149.38004
1.8687522,152.20413
1.9056002,154.64894
1.9347035,157.79263
1.8808799,151.16772
1.8932594,152.96019
1.7833357,153.17711
1.8781726,152.07092
1.7682813,153.307
1.7172279,153.96448
1.8047929,151.45956
1.7339178,149.12454
1.8030674,150.88077
1.5945538,148.8826
1.6521261,147.15956
1.5297486,145.34114
1.5258961,144.90825
1.5237919,143.2737
1.6251545,146.49484
1.5202769,145.80727
1.5036975,140.24438
1.4907013,141.40991
1.5128194,138.43668
1.4720962,140.28891
1.3861078,138.40482
1.3440503,138.2167
1.4134436,134.09132
1.318437,129.12738
1.4307609,134.54445
1.327058,129.75536
1.334702,132.71048
1.3779695,127.4621
1.382581,127.30543
1.2716628,122.42211
1.2486919,124.34448
1.2997994,120.34376
1.1433431,124.47442
1.1278541,121.40846
1.2102365,120.3555
1.0776253,119.9139
1.1400272,116.79878
1.0816442,116.402214
1.050902,111.9427
0.95641714,112.03622
1.008826,110.80971
0.88057697,110.600586
0.83762634,110.54066
0.918525,109.25778
0.8833477,108.923996
0.72109956,106.78815
0.8055773,104.22598
0.80991983,102.86115
0.7843833,103.13648
0.6717674,101.38745
0.7699291,97.173874
0.7039793,98.63088
0.75152665,100.56055
0.7073194,94.294136
0.61817485,92.85229
0.6516448,95.92799
0.6937878,92.855515
0.7485947,90.247536
0.71671337,88.80888
0.66928655,89.632576
0.64803976,87.38399
0.6207986,87.09149
0.53793895,89.51734
0.6672864,85.40389
0.48237017,84.81281
0.42953372,87.01529
0.48480904,83.77384
0.46976233,85.18655
0.43634704,85.63328
0.39399713,84.8958
0.35198843,82.019035
0.27992636,89.13132
0.33861774,84.405014
0.16750468,87.88531
0.20323434,86.337265
0.17838341,86.813934
0.19505216,90.35245
0.19984186,89.15023
0.14555477,93.88861
0.2658514,96.03858
0.2819172,91.981544
0.21059853,94.42747
0.3904211,95.25883
0.46272856,99.59543
0.34273043,101.01469
0.46004894,102.40431
0.5092452,107.82102
0.5086943,106.999504
0.58326864,109.28715
0.6895888,108.37909
0.76238465,113.48048
0.7861084,114.86247
0.8235563,120.43359
1.0273937,122.96787
1.1597075,122.5778
1.0901412,126.814316
1.1876343,127.71295
1.2045151,130.27824
1.3095783,133.03947
1.3742791,131.8847
1.3520887,136.95114
1.3689876,138.99814
1.3996246,137.12811
1.5237739,139.5886
1.4670638,144.41313
1.4122307,143.02956
1.4832441,144.3625
1.5392531,145.32657
1.5018629,148.67888
1.5018697,151.79913
1.3848668,150.4434
1.4828101,149.78357
1.5020399,151.86485
1.565778,152.28801
1.5571073,155.16689
1.5445882,154.68358
1.4691736,151.55414
1.3730929,152.4878
1.4787798,150.87842
1.4162484,154.02945
1.3375642,153.87941
1.4387121,154.78482
1.3837162,150.94672
1.3422458,150.35345
1.2914611,151.66032
1.3568106,149.79895
1.2800587,148.2737
1.232452,148.58528
1.1832639,147.86313
1.1520408,149.77827
1.1979637,144.41289
0.93984854,145.95541
1.1357236,140.71877
0.9725565,146.11084
1.047167,138.54767
1.0307941,139.83052
0.92662114,138.9407
1.0704798,133.70927
1.0228533,134.75499
1.0367314,135.40971
0.9724052,135.93083
0.9546078,132.18918
0.8553305,130.92883
0.9569873,130.00674
0.89663947,127.299
0.7834918,125.17714
0.93374693,124.621475
0.9488957,122.31637
0.9674376,122.28026
0.77686065,124.25581
0.907313,120.96366
0.78871876,119.72155
0.71041876,119.92719
0.7356965,118.448845
0.68789333,118.15049
0.6113439,114.34205
0.6901707,112.95089
0.5002296,111.46767
0.50598603,110.8906
0.5261721,106.33287
0.5387235,106.39348
0.42816323,108.66124
0.463677,106.49996
0.5012378,106.19329
0.33100682,104.97885
0.2832286,100.4671
0.34769475,100.03313
0.38792458,101.667
0.34291345,98.952385
0.32265067,93.27344
0.2738112,96.05219
0.37780955,97.81721
0.35650432,95.86853
0.28763834,90.92935
0.3522198,90.76562
0.33208272,90.60808
0.3540229,87.45737
0.3106691,87.18627
0.20118831,87.435196
0.118099935,88.67577
0.29991195,87.53381
0.2272669,87.34312
0.2937891,82.91056
0.1253801,85.03309
0.16399772,84.45516
0.06174979,84.16545
0.002500616,87.306915
0.089832574,84.3492
0.08700823,88.06153
-0.042079628,87.49765
-0.04516626,87.6432
-0.0076419846,87.79112
-0.11958759,88.02803
0.0027495653,91.51277
-0.047444608,89.97491
-0.07506461,92.15444
-0.03539208,93.23662
0.029908791,93.04078
-0.0711674,95.89468
-0.024430223,96.33662
0.07393381,100.61845
0.24526179,102.40694
0.3135202,101.82397
0.31586316,102.748184
0.34437665,105.970795
0.41508487,112.71865
0.415702,112.36739
0.47231585,114.25905
0.72484386,115.47976
0.7692548,117.08684
0.77352715,122.93172
0.83766586,121.225044
0.87671757,127.30189
0.967335,127.67242
1.1106316,129.14325
1.126685,129.03491
1.1790061,134.21953
1.1629002,137.37683
1.2923461,137.75142
1.2274141,138.42825
1.2103662,142.0833
1.2886351,142.59132
1.418435,146.02776
1.4474063,147.36044
1.3613678,145.05643
1.4728489,146.23009
1.4085908,148.22687
1.3995216,149.19981
1.3959177,152.82199
1.4372857,152.69925
1.358638,154.66096
1.4047006,151.90256
1.3650022,152.0719
1.3949443,154.64035
1.3724346,151.87958
1.3998007,151.31897
1.376149,149.96255
1.283565,151.10483
1.3112211,151.31976
1.3222846,153.99164
1.2491015,151.67293
1.1840988,150.58873
1.2464048,148.15799
1.1827708,151.27884
1.1402602,149.77869
1.1054021,146.79543
1.2418338,145.42677
1.1265016,143.50696
1.1660748,145.41693
1.0673442,142.57713
1.1295758,144.76859
1.0726587,140.34549
1.0175222,142.54608
1.0156835,137.55089
0.96256626,136.54329
0.9101642,137.70062
1.0101553,135.33397
0.994257,133.40443
1.0424076,136.14198
0.95881844,128.48415
0.97000504,126.34745
1.0673084,129.54712
0.94392055,124.65022
0.9400659,126.64715
0.86619353,122.35282
0.9552677,123.519936
0.9292817,122.51906
0.86816406,118.62246
0.87218785,116.93625
0.8312117,119.05337
0.79798734,120.055176
0.8658486,116.698
0.74687326,115.44891
0.82993585,114.96757
0.7409575,109.91938
0.75091183,111.33262
0.56353146,109.68551
0.6170013,110.12233
0.54609233,107.1152
0.5723919,103.421524
0.61680704,102.64924
0.5333463,103.04868
0.44906914,101.86856
0.53389615,100.93872
0.6732774,99.477684
0.59933466,97.70258
0.39963466,101.554924
0.56198007,96.337524
0.5433576,92.90155
0.5218735,95.428696
0.4950563,94.25491
0.4536009,92.380646
0.57414645,93.17211
0.5770563,91.99431
0.5345799,86.289536
0.5655387,88.838455
0.41632754,88.28576
0.4911976,87.98583
0.3236803,85.28596
0.39470595,85.70841
0.35681692,84.04696
0.41563067,86.03361
0.43052945,86.47588
0.29693767,87.1856
0.3576428,89.78951
0.1986681,87.27933
0.23178953,88.44154
0.2613692,84.31007
0.2149264,89.72966
0.24775723,89.45015
0.23437697,89.36795
0.18963324,87.186485
0.16332385,92.68946
0.29124066,93.816315
0.21116814,95.001274
0.30400288,94.12068
0.35425612,97.18886
0.35683137,98.60896
0.42692453,100.50291
0.49338678,105.215645
0.6403934,107.719215
0.6230756,106.01925
0.69670266,107.72657
0.69631785,109.6234
0.8408669,111.250175
1.0156658,116.34649
1.0474147,120.63452
1.140096,120.139725
1.1553862,122.10873
1.2498494,123.76027
1.2877228,126.554054
1.3565326,129.72758
1.4116093,130.42628
1.5413054,128.9415
1.5369005,135.29512
1.5941015,139.45976
1.5947164,136.21797
1.7032268,139.8775
1.7272803,141.01367
1.7145928,145.43791
1.7603321,142.36627
1.768532,147.55249
1.7525959,146.69025
1.7181896,146.92065
1.7605338,151.14342
1.7960563,151.50697
1.8307006,151.07155
1.7847105,150.00526
1.8067923,153.16237
1.6943914,151.58855
1.7715747,154.09097
1.7869313,154.19728
1.8259807,155.68057
1.7933164,154.19907
1.7430432,152.59177
1.6627822,149.34044
1.6972882,151.61476
1.6633507,150.27762
1.6895866,153.81506
1.688458,149.4191
1.6290478,146.22826
1.5420799,149.86946
1.4945779,150.1549
1.4652057,148.53252
1.5637709,142.76015
1.4717673,145.72618
1.5163243,142.51088
1.4978462,142.88771
1.4674714,140.10585
1.3961604,141.91797
1.4537215,137.63452
1.3757026,137.3978
1.4155736,138.28291
1.3783603,137.38464
1.351963,132.36009
1.431227,131.66806
1.4371254,133.03471
1.3475199,131.38696
1.3671429,127.651985
1.3762524,126.77114
1.3059591,128.59224
1.2731187,124.28314
1.4181452,120.77667
1.3802713,125.89823
1.3485949,123.3581
1.2058518,118.7088
1.3295615,115.88294
1.1858447,116.595894
1.243495,113.16902
1.1571853,115.433044
1.2036574,114.0687
1.1371253,113.87409
1.0796025,111.288765
1.0524212,110.82838
1.0396391,104.93376
0.97118896,106.95765
0.97922546,105.39376
0.99088556,104.7042
0.9867325,103.5033
0.9215107,99.27089
1.009639,101.45283
0.9342463,102.0654
0.9669877,97.17273
0.8872867,100.4693
0.88366365,95.15396
0.83699995,97.66536
0.82265776,94.70899
0.9598507,93.08896
0.8875221,92.63282
0.92811215,93.86185
0.9200247,90.55496
0.8917585,89.074394
0.822735,86.34475
0.79027724,88.208466
0.8216736,86.55895
0.87353,86.58678
0.7406595,88.49561
0.7848559,90.02263
0.68451244,85.29696
0.7292213,84.92606
0.6274899,83.33689
0.61075455,84.79769
0.6592272,84.39701
0.66372365,86.748604
0.58617795,87.62747
0.541303,84.33057
0.49360827,90.182465
0.5986184,88.09092
0.5496247,93.15094
0.58210504,90.39239
0.56335574,92.687675
0.6304754,94.090675
0.6833313,93.512764
0.7524429,94.83156
0.60991496,98.28706
0.70236546,100.240585
0.8767535,103.83789
0.8518262,102.72704
0.9755978,103.402
1.0090795,106.306564
1.0114965,114.54967
1.0744824,111.996056
1.2772632,115.29183
1.310088,118.70134
1.296846,117.965294
1.294988,120.168785
1.4804727,121.97855
1.5575578,126.807785
1.618673,126.68961
1.6785275,131.50874
1.7808032,134.20477
1.7927088,132.20216
1.764685,133.20018
1.8391169,137.2751
1.8299913,141.26024
1.8773899,140.35841
1.9873502,146.08476
2.0073652,145.3193
1.9511818,145.17375
1.9738083,148.08086
1.9445336,150.36407
1.9743621,149.84402
2.0016556,151.8295
2.0105574,152.44843
1.9183261,145.1522
1.993563,150.87387
1.8825475,151.09503
1.9478775,153.24257
1.9034772,152.81987
1.8906474,153.12363
1.814948,151.54312
1.8484279,152.36382
1.8679032,154.36737
1.8365315,154.47388
1.8515006,150.32428
1.746976,152.0907
1.8195536,150.44751
1.6808494,147.32753
1.7783678,146.75587
1.6570257,148.44688
1.6834242,149.05002
1.6564552,145.4164
1.5506274,144.41898
1.6761845,147.41037
1.4920346,144.18132
1.5268525,140.38344
1.5775112,137.33156
1.5809602,139.77493
1.502336,138.2226
1.4577442,133.44731
1.4619538,135.66168
1.4548798,131.39626
1.4588394,133.52959
1.4230138,129.8683
1.4754026,125.99884
1.511787,127.21371
1.3562502,128.08308
1.4588708,127.50457
1.4150314,126.174576
1.3607405,123.35805
1.3273683,125.7761
1.3105334,122.239655
1.2676008,121.63305
1.22248,121.94942
1.2562333,119.167114
1.1733983,115.72304
1.1500612,115.0866
1.2354866,113.770454
1.1065333,111.5553
1.0216119,114.50661
1.0374583,115.08347
0.96209323,111.75267
1.0070465,108.581505
0.9014434,106.39558
0.8684742,107.28847
0.94465286,103.9582
0.89719564,104.03189
0.88656026,102.20739
0.84906965,100.5818
0.91943425,100.19696
0.96696794,97.40294
0.88504666,96.195984
0.85666215,99.90169
0.7834984,96.457275
0.80116194,97.96803
0.7680996,90.75731
0.73678195,89.225945
0.8048006,90.380646
0.72751975,90.21892
0.77801025,85.920944
0.670734,91.81
0.74287236,86.45348
0.7351437,87.367966
0.66540873,84.960335
0.5849604,85.43122
0.5454851,87.34817
0.54033023,84.26958
0.54146177,88.56148
0.5234739,86.76166
0.41884974,86.09641
0.47492373,88.28468
0.5415836,82.54691
0.34015256,83.2965
0.33096355,89.25264
0.34772056,87.24489
0.4471111,90.682846
0.24516715,91.5209
0.36385146,93.368256
0.43228212,96.44041
0.33507097,97.13215
0.3583207,98.21846
0.38010508,98.14072
0.52254486,101.88815
0.51620525,101.22923
0.6211003,100.95459
0.7207127,105.7166
0.67364806,111.5252
0.81990963,109.19536
0.94851214,111.11435
1.0782285,115.43893
1.0236903,118.619
0.93267155,118.82399
1.1245543,124.07674
1.2190485,125.148926
1.2561901,125.3972
1.2768577,126.830215
1.4024911,126.20065
1.3217247,136.55042
1.4828985,135.96861
1.5827341,138.39285
1.413265,138.37956
1.5663441,141.12851
1.5613749,139.01883
1.6489574,141.86873
1.5121032,143.64664
1.6287055,149.19174
1.7135234,148.58745
1.5949509,150.63556
1.5941086,151.5426
1.637748,150.30246
1.7086704,152.44308
1.656282,150.95981
1.6653926,155.78647
1.5429643,155.38339
1.5623711,155.93112
1.4829005,153.25581
1.5343736,152.98701
1.5588868,153.38422
1.5719252,153.6953
1.4832125,152.69576
1.4751036,150.24718
1.398818,155.20045
1.3961823,151.32869
1.4254253,151.4391
1.3467246,150.31146
1.3790492,146.55191
1.2950524,148.65752
1.3062571,147.93715
1.3258532,147.06683
1.1365404,148.14519
1.2518768,145.74402
1.1626947,143.9461
1.2160285,141.10268
1.1636415,138.20477
1.2235032,140.52838
1.144172,135.14395
1.0110191,137.44542
0.99580896,138.46962
1.0736724,131.85248
1.0701646,131.2995
1.0320807,134.33096
1.0379574,131.86977
0.9875908,128.67131
1.0293474,135.39359
0.97687477,122.21549
0.9848658,126.65895
0.96321887,126.79218
0.9941572,122.01913
0.91982585,123.08014
0.9026427,120.08481
0.85888267,118.757416
0.86638343,122.56541
0.9039586,117.558075
0.7296156,115.600365
0.75116944,111.00922
0.6927824,112.12643
0.60027,110.136284
0.55917394,113.51818
0.5390511,108.92547
0.62874407,110.17172
0.63448536,105.88125
0.5749764,102.61029
0.3814005,103.32086
0.39599818,103.24606
0.43239737,100.91034
0.40315625,101.44455
0.3989116,100.316086
0.37779355,101.13347
0.38389415,93.79176
0.3402114,97.24474
0.45466977,91.04003
0.27925348,93.598236
0.3634592,94.80548
0.31696987,90.10948
0.353709,91.157
0.4107081,92.38809
0.38694832,89.099754
0.43854737,86.50953
0.21345353,91.81055
0.3217665,85.079506
0.29469323,89.94329
0.2614972,84.51875
0.25114086,85.27559
0.17860875,87.13389
0.15771846,87.51566
0.11594894,85.21542
0.101146854,85.76357
0.052427083,88.93374
0.11324271,87.473526
0.0076442184,84.89096
-0.03130035,87.244644
-0.07801346,90.4708
-0.078978024,88.69093
-0.06901288,92.44796
-0.015556332,90.73308
-0.11487411,90.922714
0.01376215,95.45569
0.054605667,98.90995
0.057774283,97.69925
0.0763518,98.505646
0.19944917,99.9297
0.28699374,101.152565
0.3940507,106.96844
0.33694714,106.46888
0.41536957,107.24901
0.5927474,111.86647
0.6412919,114.57904
0.70928365,115.217445
0.7417204,119.42457
0.880541,122.30906
0.79383457,127.45055
0.83377534,127.98306
0.8650961,126.03327
1.0671935,128.35416
1.1282454,129.42021
1.1208729,137.12106
1.1908339,135.57994
1.2050618,139.11732
1.2862784,139.55284
1.1821208,140.49315
1.3737719,145.62798
1.2657036,143.9739
1.3659669,145.31792
1.3693947,148.4976
1.3001142,150.26248
1.3313905,149.79489
1.3558656,150.15857
1.4427598,148.56357
1.4720056,152.45905
1.4589252,152.19429
1.3023685,153.85303
1.3530833,153.46313
1.2525132,150.78282
1.3571709,152.60445
1.370188,153.6112
1.2603709,154.1651
1.2489161,151.79793
1.2555186,152.86865
1.1465675,151.67528
1.3081353,150.30396
1.3036278,147.63113
1.2120516,150.04103
1.1639595,147.67499
1.0765398,146.36452
1.1196893,147.68275
1.0771484,144.59947
1.0911622,144.2026
1.0342865,142.00386
1.0722282,144.02039
1.0318829,138.92879
1.0027812,139.07219
1.1058239,139.3976
0.9629552,138.25436
1.0710316,135.99997
0.9335867,132.97638
0.9590583,137.12508
0.993272,135.29884
0.8892177,133.98573
0.86245835,128.72911
0.9562537,130.78111
0.8576246,127.84122
0.82459694,129.23541
0.8073129,126.22304
0.8409256,127.4199
0.8813956,122.25797
0.8323522,123.68851
0.8561732,122.65635
0.6911336,118.153656
0.6516382,118.10872
0.6857858,115.21364
0.80931586,115.63581
0.65044826,112.58711
0.7047295,114.09585
0.63890904,110.995316
0.6431778,108.14438
0.59410983,113.60008
0.5786856,109.201035
0.47641185,104.77182
0.48102048,103.15071
0.38975868,102.65418
0.532062,100.962395
0.41637805,103.8665
0.4005205,100.52882
0.41865373,99.10763
0.27070457,99.863815
0.3432759,99.019196
0.3135055,97.72164
0.37217855,97.489204
0.43314636,93.790764
0.28430456,92.273346
0.40873376,93.00309
0.44796968,91.39408
0.31255078,87.5435
0.34159273,84.18356
0.37991995,89.068726
0.44219536,86.717384
0.3516375,87.14051
0.3559828,85.09985
0.34747478,85.356705
0.28297406,85.749985
0.29631135,85.9376
0.23324095,85.62634
0.26698333,86.68165
0.1317853,83.97384
0.17113335,89.9759
0.2614409,87.178444
0.115261704,86.31919
0.13779919,89.06215
0.13013634,90.788
0.21102633,89.473274
0.15141945,89.48424
0.11784013,94.569885
0.23360947,91.84995
0.09776858,96.84615
0.21776552,97.041084
0.27450424,97.194084
0.30096707,99.968956
0.3414106,99.41236
0.40591893,103.74937
0.42018533,108.28733
0.47887146,108.08223
0.56856126,109.62162
0.70848334,113.201965
0.72849935,113.32192
0.89247,116.65475
1.006716,117.72387
0.9908034,119.761826
1.059892,121.860504
1.1669819,126.18129
1.1818638,124.25289
1.1762869,132.13852
1.3785287,130.0057
1.3602041,135.0259
1.3344429,134.53915
1.5150905,135.33572
1.5165662,140.15657
1.4817504,141.83679
1.55835,139.99736
1.5202463,146.90938
1.5857828,147.05542
1.58146,151.18884
1.566029,146.79828
1.6607913,147.8854
1.6617664,148.27313
1.694024,153.00233
1.7289749,152.63791
1.6192983,152.48848
1.6821768,153.75006
1.5635939,149.16156
1.6565092,155.31393
1.6680394,152.74573
1.6451181,153.02695
1.6319087,155.05234
1.5925103,150.92882
1.5340792,153.47516
1.5862771,152.70934
1.5271336,153.02603
1.4903824,151.06812
1.5609359,148.79291
1.537382,153.4478
1.4438488,149.15572
1.4096167,148.44017
1.352451,145.75024
