ppg,abp
1.0350548,83.87258
1.1170566,87.87531
1.1996142,92.298386
1.3665097,101.7594
1.2837065,100.76297
1.3073523,104.11951
1.4250364,111.605804
1.4775566,109.87059
1.5271617,114.33162
1.5717866,114.091805
1.6568199,118.54248
1.7043273,116.18445
1.5726471,121.17065
1.7413725,126.62269
1.6363117,124.56588
1.682595,130.66628
1.7470459,123.4936
1.7759554,128.94096
1.7408526,132.39151
1.8486466,130.20728
1.7632545,134.14209
1.6512069,136.75589
1.8287615,137.3584
1.7400671,133.45241
1.6001822,135.52855
1.7816395,131.52954
1.6829082,133.87407
1.7210013,138.77763
1.7212684,128.81808
1.6980586,131.23508
1.4909723,130.38155
1.5387691,130.78178
1.6245266,129.42738
1.553231,124.46479
1.5504156,119.286255
1.5374999,124.42695
1.5003518,126.07155
1.4760729,118.83022
1.4769344,120.80658
1.3795929,121.733025
1.4689982,122.86917
1.4674675,112.87769
1.4278678,111.4749
1.3774215,110.75659
1.3201557,109.07527
1.363417,102.684364
1.4515778,106.3546
1.4098727,101.587
1.3823518,100.953835
1.2628441,97.51651
1.4303082,99.499695
1.326756,95.56921
1.3004694,97.888
1.3068869,86.64692
1.348965,91.66886
1.2258651,87.47017
1.1956921,82.90529
1.294049,84.88427
1.3679787,82.67624
1.0243144,85.07248
1.1001889,81.15389
1.1230808,73.67262
1.0394237,73.96564
1.0597256,77.41502
1.0334225,74.52012
1.0237815,67.53489
0.9164682,68.4159
0.8725574,65.01327
0.91595024,60.27962
0.92872167,62.89312
0.8520782,57.39841
0.84924316,57.35802
0.847416,57.562614
0.9516142,52.243534
0.8816478,52.96388
0.932882,50.032043
0.90058,47.091434
0.8049466,49.097725
0.92334735,48.52163
0.95923835,48.64511
0.7457363,40.0
0.8965306,42.58002
0.87018466,44.925247
0.8620447,40.94973
0.8118739,40.0
0.80977434,40.0
0.8001593,40.0
0.6834839,40.0
0.63814604,41.35545
0.73016125,40.0
0.6602121,40.0
0.5844481,40.0
0.5574286,40.0
0.51931524,40.0
0.59795403,43.986805
0.48508593,42.034904
0.5830766,43.90483
0.5849569,47.331566
0.60205805,44.481476
0.55411506,47.31997
0.48531282,49.286346
0.52193105,54.203922
0.6191383,51.463596
0.84225166,57.675537
0.73197585,59.591015
0.845784,63.91806
0.94483805,67.45959
0.98963666,65.79062
1.1038964,69.1293
1.1241611,74.446396
1.1125966,77.49275
1.282077,80.85134
1.3431176,86.686356
1.3966956,85.14305
1.4697734,92.70938
1.621333,94.62756
1.6725807,99.096245
1.6454412,96.80694
1.7639916,104.708664
1.6918359,110.96921
1.7574867,110.17733
1.7471719,118.17105
1.84582,115.233665
1.8109317,121.50828
1.8701769,123.93587
1.9374037,121.18362
1.9598756,123.091255
1.9617282,129.03552
1.8629053,123.01235
2.0074582,130.5788
2.015528,130.99043
2.0891316,134.49875
1.9538219,132.61795
1.9342381,135.4777
1.945431,134.51405
1.9492017,133.40984
1.8480791,137.20947
1.9176579,137.16211
1.975,130.76816
1.8323915,129.82947
1.7941028,131.18788
1.8963752,127.108086
1.7841334,125.30564
1.8319439,129.16254
1.865655,125.32961
1.6309812,125.69428
1.6382345,129.53828
1.7247971,119.79708
1.6122454,121.3606
1.6253687,121.09407
1.440002,119.48758
1.555908,117.2244
1.5265244,112.41418
1.5953759,110.40969
1.530622,110.448715
1.5194347,107.02747
1.3753417,106.761116
1.5458043,107.33537
1.5014118,106.059845
1.4355131,104.05329
1.4304585,98.02067
1.4896809,97.233025
1.4063629,96.90387
1.5513992,95.24136
1.3482399,92.00715
1.4633011,93.93259
1.3963138,88.879585
1.3433642,86.357124
1.2169735,87.895905
1.2932085,85.42642
1.2860489,79.71627
1.3569921,79.3239
1.2270564,81.184746
1.0782107,77.299286
1.1296566,76.02518
0.981862,71.31813
1.0024602,71.18068
0.9299963,69.16465
1.0291535,62.92193
0.9807158,69.29601
1.0385681,62.5044
0.8591986,61.512264
0.90783894,57.76804
0.83046246,56.596382
0.84052086,56.62602
0.85867935,55.35559
0.85867584,51.862465
0.7529175,46.869446
0.85983855,52.02254
0.9153657,49.95415
0.75813425,44.6578
0.8154263,47.40663
0.73289114,43.522144
0.7489547,44.674507
0.7916333,41.30568
0.69454026,40.0
0.75936776,40.0
0.6262162,40.0
0.60897857,40.0
0.55894464,40.0
0.5343934,40.0
0.5149457,40.0
0.4244207,40.0
0.5745419,40.0
0.44019648,40.459393
0.40866983,43.357483
0.38581145,42.28105
0.38181707,43.098984
0.42511895,45.011284
0.434073,41.830452
0.51786655,47.541145
0.44788828,49.952713
0.47408092,50.714592
0.45196927,55.144657
0.36742958,50.30196
0.57566696,59.52492
0.682781,59.000275
0.6766963,62.27011
0.7080171,62.82116
0.7929198,73.784584
0.9097047,70.23694
0.9534715,75.47511
0.94708544,80.64028
1.0986797,82.79708
1.1986794,85.95823
1.2387639,89.694305
1.3215016,93.20515
1.3195481,97.48321
1.4363874,98.54474
1.5403851,105.18677
1.4477748,108.99296
1.5760083,111.59883
1.6072081,109.89851
1.7730373,113.10284
1.6798161,116.01502
1.6555624,118.74086
1.7844099,119.3085
1.652734,123.24795
1.6673579,124.17921
1.7350854,124.41561
1.7390518,131.0674
1.7032441,130.12036
1.6700608,132.3639
1.6882952,133.1603
1.7073547,130.10391
1.6343969,137.70387
1.672623,135.7513
1.6870766,133.0268
1.6208681,132.69514
1.6217208,134.93707
1.6506748,132.54335
1.4897497,132.57283
1.5904106,130.7385
1.5429212,130.52846
1.5137916,130.50998
1.3659135,127.762314
1.5035247,129.23991
1.4879491,117.82775
1.3361032,128.05325
1.2902192,124.14291
1.2346972,130.45851
1.1463931,120.69659
1.2907194,115.85418
1.2851071,115.41389
1.2265986,114.98305
1.2878416,114.14771
1.1523961,110.357346
1.2311311,114.210464
1.2203726,105.076
1.2269493,105.9804
1.0627996,106.67334
1.1021516,100.0609
1.0704765,100.391525
1.1329538,102.27835
1.0149931,101.617294
1.1322838,96.574135
0.9661367,95.20459
0.90582514,90.98088
0.9293098,87.58976
1.0085257,95.06965
0.87569916,86.06492
0.8222517,85.61275
0.88642746,84.13064
0.735694,80.10958
0.77702594,76.44235
0.81699175,71.57948
0.591148,67.749535
0.6815086,70.48424
0.739537,70.69299
0.6354959,65.921814
0.5625046,66.77962
0.51609874,62.525845
0.5373315,65.899796
0.52669084,65.357925
0.52227426,55.547913
0.48124617,63.769333
0.48775375,56.063297
0.41920862,51.345963
0.48977572,49.99955
0.45921808,52.504795
0.51711273,47.209305
0.28612992,47.643368
0.33906347,41.359924
0.46475545,44.35232
0.42030284,41.625107
0.3584794,40.0
0.3811846,46.087345
0.3727322,40.0
0.44173235,40.0
0.22642525,40.0
0.320845,40.0
0.21118236,40.001427
0.1911953,40.0
0.22491355,40.0
0.3039665,40.0
0.14930773,41.895287
0.01913911,40.0
-0.03803578,40.0
0.21981035,41.814125
-0.036610454,44.245598
-0.09968186,42.5238
0.12435758,48.218014
0.0071354513,47.059116
0.07450963,45.46197
0.1308181,50.512848
0.09450079,49.707016
0.18203153,52.85744
0.25018102,57.61902
0.1609202,62.95726
0.35931695,68.99711
0.4452937,66.3258
0.44829693,68.63802
0.48175406,71.175354
0.5539151,75.6899
0.7126534,79.77539
0.6862771,81.35758
0.8371528,85.64578
0.7848704,87.21703
0.9639137,93.37652
0.9863602,96.56677
1.0426769,97.91625
1.1417936,102.47693
1.102982,103.00368
1.1624432,105.98138
1.2142246,113.99794
1.2384065,117.71682
1.3043597,111.89096
1.4199811,120.48375
1.2620595,120.56619
1.3338144,122.26682
1.4040235,125.6549
1.2731738,127.347046
1.3641491,126.53624
1.3628063,131.27618
1.4316202,127.25739
1.486827,132.34322
1.3171173,132.01184
1.349443,132.46597
1.3676337,132.73976
1.4261597,134.85141
1.3927203,134.44409
1.3547937,132.50668
1.2481515,137.80304
1.2764131,132.26303
1.2763822,132.22827
1.1845033,130.59302
1.242439,130.05081
1.1825047,128.57501
1.2695012,130.08644
1.1775508,128.37666
0.9854857,127.61294
1.0336385,126.40482
0.9395588,124.63736
1.0121816,122.432594
1.0288283,119.2943
1.0411022,117.52385
0.9595366,117.653824
1.0240182,116.48462
0.96570325,107.56429
1.0532726,106.40762
0.87181365,107.677795
0.86472076,100.95033
0.9972882,102.82762
0.88014394,103.69028
0.8546733,99.213425
0.97722834,96.47529
0.9382538,92.671196
0.76192296,97.63525
0.8318898,93.47105
0.7641282,91.84683
0.8052387,89.65042
0.80074686,89.60147
0.76571196,85.03085
0.69126135,82.70287
0.74973524,82.46313
0.6927097,79.71639
0.48747796,72.268524
0.6211421,73.69288
0.6514195,76.15082
0.5174083,74.02971
0.5048685,69.65274
0.4143773,69.01055
0.41307092,68.76274
0.42287168,63.778217
0.26480743,60.95565
0.46307984,62.542984
0.28891867,60.393547
0.41380212,59.20172
0.41529882,51.66059
0.43411592,52.865925
0.3497218,51.145706
0.22086032,55.429745
0.33282277,50.519833
0.32158336,48.504322
0.33989784,51.35606
0.33043337,43.151997
0.343905,45.12436
0.20473063,45.68772
0.26968238,44.849827
0.3292411,46.189526
0.33083028,40.0
0.23955579,40.0
0.3526906,40.0
0.2296346,40.0
0.16086605,40.0
0.03837492,40.0
0.17131513,40.0
0.11286176,40.0
0.05118904,40.0
0.021236109,40.295315
0.029251656,40.0
0.06977957,40.0
0.06364147,45.073032
-0.04591041,45.52085
0.041295625,47.147423
0.055187155,51.514256
-0.036146287,51.226307
0.14678721,54.65959
0.15437847,51.366352
0.18817753,58.377182
0.30110893,63.992634
0.24016182,63.587265
0.44457743,62.443142
0.53776956,69.04303
0.5368889,74.575455
0.58630073,78.22161
0.73789644,81.24709
0.7503853,82.810326
0.9247339,85.59896
0.90532917,86.826065
1.0827235,93.770775
1.1364985,95.52312
1.22666,101.88412
1.1785605,101.61434
1.245446,104.66345
1.2515358,107.45285
1.4288708,111.42235
1.3926169,109.8507
1.4933267,116.77883
1.4237505,119.79082
1.455083,126.52108
1.5096333,125.84394
1.4943339,125.07214
1.6184118,130.22775
1.4350641,128.53499
1.4849794,131.23251
1.5932617,137.203
1.5077618,132.23555
1.4946494,133.46877
1.5203925,130.99063
1.4777691,133.26413
1.4730444,136.31438
1.510653,133.97577
1.4647126,131.77863
1.5461658,134.45363
1.5545666,132.80379
1.5331624,130.92184
1.532371,133.34532
1.430128,133.05313
1.2742811,128.0221
1.4016598,126.095055
1.4243747,129.07912
1.2529525,127.55968
1.335725,123.82986
1.3387938,122.49033
1.2803493,118.32597
1.1574389,120.28282
1.2730242,114.35055
1.2495106,110.63381
1.2936643,112.593956
1.3021588,114.14963
1.2300292,110.29082
1.1424309,105.152664
1.0853691,102.02935
1.0759634,100.34433
1.1371704,103.25444
1.1206557,98.3464
1.1481409,98.65951
1.209913,101.609
1.1328942,95.51733
1.081093,89.127
1.2094544,88.59168
1.0712892,91.304756
1.0976056,84.98114
1.1263436,84.2298
1.0683175,80.452286
1.0042512,80.33636
0.9023775,83.80278
1.0198548,76.167274
1.0563278,73.01202
0.95666075,74.06522
0.89274275,75.54195
0.8883906,69.22512
0.69987005,72.07357
0.71106166,62.884727
0.666959,65.127426
0.69951564,61.352283
0.7195543,56.178352
0.73645616,58.160904
0.76622593,59.803898
0.7715312,54.803223
0.7996651,55.43512
0.76558816,52.75129
0.6706812,52.94622
0.77676356,46.24676
0.70543486,46.284492
0.7588669,44.404587
0.73675734,43.602932
0.72754633,46.816597
0.75225043,42.018806
0.6128177,40.597263
0.68625927,40.0
0.6512318,40.0
0.61369425,40.0
0.5879501,40.0
0.684435,40.0
0.5707354,40.0
0.47211167,40.0
0.51878357,40.0
0.53576463,41.067833
0.33977488,40.31507
0.46902204,40.931213
0.3716243,42.816708
0.38740686,40.204052
0.35200056,40.245056
0.32897887,46.156708
0.4870563,45.551243
0.4138392,48.811024
0.48792094,50.78527
0.46053007,54.51014
0.5531588,55.053097
0.5929811,60.825356
0.64616114,58.623753
0.70180154,63.943127
0.75326496,69.79105
0.9297007,72.256096
0.9052254,74.87021
1.0232586,77.2499
1.1333177,76.876434
1.2121314,88.54217
1.3147111,90.39516
1.27247,86.8857
1.374937,92.66548
1.469679,98.75148
1.6076614,97.467125
1.6475037,100.15002
1.5632329,108.02525
1.6708944,111.11174
1.7826415,113.1813
1.9021689,113.48672
1.8895955,112.47486
1.8378001,123.44231
2.008534,124.92159
1.8771238,118.2993
1.8652827,125.15208
1.8919815,124.30067
1.9051943,130.7483
1.8449302,130.73648
1.8970608,133.91588
1.9126254,133.55038
1.9417363,132.02245
1.8979361,130.61636
1.9075612,132.13239
1.9240147,139.34044
1.8498361,133.64331
1.9622535,133.61641
1.880553,130.01799
1.7928156,134.52493
1.6795347,133.59552
1.7641891,128.56277
1.6707441,132.3354
1.7965729,130.2446
1.783113,127.38671
1.7032187,125.71584
1.6635933,127.75526
1.6401671,126.10938
1.5892391,120.67607
1.6609131,117.15246
1.6126827,114.8687
1.638688,116.842674
1.6332537,113.95586
1.492374,110.18254
1.4861567,109.73434
1.5204873,110.525604
1.4867865,109.36215
1.5895311,103.50688
1.4691617,103.810295
1.5355663,104.054184
1.5091796,99.426765
1.5045242,97.197914
1.5361354,94.862854
1.4296607,94.23179
1.4043744,92.67189
1.4130867,89.55249
1.2185359,87.11022
1.4070925,91.32963
1.2945756,88.355896
1.4121279,81.934265
1.247592,76.366806
1.1616617,80.27873
1.3379538,79.274284
1.2070369,77.98221
1.0727727,67.87154
1.1631464,70.05491
1.0496794,68.36652
1.1738291,69.59543
1.1366168,64.99452
0.9845432,66.91316
0.91851526,63.844677
1.0026196,59.220318
0.89787567,63.42603
0.8891989,59.98022
0.8472965,53.526302
0.9172523,50.381744
0.9403649,50.07026
0.9125806,54.263153
0.91310847,49.42292
0.9272232,45.630302
1.0093665,46.439663
0.80247897,50.008617
0.9218131,46.66886
0.9262757,45.281837
0.9777132,43.349957
0.90985835,40.0
0.74656403,40.0
0.7440087,40.0
0.8297493,40.0
0.76486903,40.0
0.7586403,40.0
0.7475541,40.0
0.6681979,43.417007
0.628645,40.0
0.49879938,40.0
0.5831491,44.188065
0.5630442,40.0
0.45406654,43.830685
0.5912733,41.889156
0.5257951,45.17951
0.63840884,47.459137
0.5914036,51.45411
0.63541895,51.202972
0.552245,56.25
0.5233203,54.612576
0.64650226,59.18894
0.8464544,55.94093
0.8399756,61.04464
0.79598975,68.035866
0.89945084,72.16274
1.0774606,74.89395
1.0333946,76.64893
1.1806672,85.124886
1.252656,80.87896
1.1514522,86.68483
1.4056389,91.088135
1.4658823,96.64369
1.3936491,95.17086
1.4987551,96.06357
1.5623801,105.91355
1.6686169,106.99046
1.7937522,108.60425
1.8025504,109.40026
1.7931751,117.56516
1.897412,115.68706
1.8095694,121.17897
1.8865178,121.84079
1.8416301,125.73469
1.8809826,125.45509
1.8412595,129.33414
1.866672,128.84282
1.912644,129.14249
1.8865436,129.38855
1.9111546,135.3328
1.8896062,138.27606
1.8886102,134.5
1.8692476,133.3719
1.8283275,136.35802
1.8337709,133.36133
1.8429208,134.13043
1.8187494,129.90707
1.8072565,132.55045
1.6969085,131.66472
1.726763,131.39745
1.7401497,129.75046
1.5759408,130.08398
1.6346631,125.37882
1.6090596,125.052505
1.4163058,123.5928
1.4709831,121.83429
1.5030814,123.89759
1.4670378,122.75013
1.3831064,122.093704
1.4684488,114.17135
1.5098852,113.31283
1.368514,110.47368
1.2744179,110.58184
1.4078012,113.35458
1.3610092,106.2915
1.3842971,107.47415
1.3233703,104.20529
1.3686711,101.56002
1.2387646,98.23816
1.3156108,97.21766
1.1990424,99.87578
1.2991606,95.1489
1.318239,92.83543
1.1212416,94.63731
1.1559987,89.67206
1.1158669,84.16006
1.0701096,85.476135
1.0657237,87.02241
1.1277084,77.30198
1.1174586,79.98954
0.98484594,79.273575
0.91064864,74.44748
0.803565,74.29124
0.8473834,75.73289
0.83271915,67.48846
0.79889536,73.25178
0.66487885,68.42979
0.72975093,59.8277
0.7479026,60.771244
0.74799305,64.14027
0.66404027,57.273766
0.6110442,58.30525
0.71550333,57.237793
0.6001767,53.489475
0.522753,54.50906
0.71025294,46.739956
0.6762779,48.27727
0.5774883,45.584526
0.6442815,48.115562
0.7097008,44.99954
0.5843524,41.759792
0.6113827,40.0
0.60642284,42.304222
0.37811586,40.0
0.5396388,42.296974
0.47148818,40.0
0.4016279,40.0
0.31806222,40.0
0.52404845,41.081127
0.39881286,40.0
0.31883475,40.0
0.3266553,40.0
0.21018787,40.0
0.23338346,40.0
0.25111842,41.78969
0.21158955,44.130444
0.15335022,43.65169
0.16204077,42.429344
0.19486026,46.2469
0.17490959,52.51589
0.28074005,48.57105
0.30740482,54.264412
0.33242595,54.830894
0.30331326,58.469063
0.30486616,61.91091
0.49193525,64.27523
0.5316596,66.99163
0.6325214,71.40186
0.5196564,77.41282
0.68165636,77.777054
0.78058034,81.62453
0.9424988,86.530014
1.0691024,86.689964
1.0162315,92.48609
1.0379813,91.09855
1.1309338,95.45382
1.1784706,95.46985
1.2589542,101.73187
1.2653383,109.35902
1.3280982,112.05478
1.338405,108.451675
1.506066,116.76147
1.344951,120.47986
1.5443542,119.62946
1.5097781,121.70121
1.4857296,119.63672
1.4992241,129.1377
1.4315202,124.37502
1.3986946,132.41159
1.4400105,133.15816
1.5076233,131.20078
1.6831609,130.51227
1.4461906,134.85008
1.3811146,132.12437
1.483876,131.8988
1.4814001,137.09642
1.4414498,135.74568
1.4900025,133.84209
1.3774561,132.91989
1.3410772,130.66835
1.303748,128.15979
1.3200458,129.79941
1.2873186,129.69917
1.2759447,124.93593
1.2601535,127.95255
1.2101175,122.24458
1.1754332,121.99625
1.1487756,118.79403
1.1134906,122.40619
1.0792418,122.43676
1.0641739,114.55061
1.0604889,118.1312
1.0150107,111.70077
1.046962,113.48792
0.94317174,113.12984
0.9916769,114.08247
0.88885266,107.666985
0.94683444,105.5329
0.96545273,101.001205
0.9202666,103.88729
0.9788866,98.96517
0.9799718,96.048676
0.94267225,98.06566
0.850909,94.3254
0.7920591,94.62655
0.7587836,86.07595
0.62832344,88.22382
0.8525527,89.96866
0.70126736,83.09914
0.7788638,81.17027
0.7205578,78.19655
0.5792272,83.48044
0.5969033,73.2076
0.7020376,80.36587
0.5821392,78.11501
0.5499949,75.26742
0.54637116,70.2115
0.55608594,70.33355
0.46520972,69.851395
0.417906,66.602486
0.3710305,59.154156
0.3010105,59.39226
0.3027136,59.53354
0.31664565,59.46465
0.38370028,55.853825
0.2512638,52.84338
0.37445927,49.1079
0.41110027,48.079144
0.361729,52.697025
0.48673937,48.59731
0.33878794,46.55555
0.27402386,42.186096
0.40516365,40.09299
0.31250456,45.398056
0.31088698,40.033855
0.34388924,43.534477
0.274563,40.30797
0.24030624,40.0
0.28932858,40.0
0.114112735,40.0
-0.013639326,40.0
0.16528729,40.0
0.018113146,42.000793
0.018659025,40.0
0.10121073,40.0
-0.027275292,43.29805
-0.081605196,40.0
0.0018272963,45.3813
-0.09851281,47.433624
-0.029233504,47.795483
0.010053071,46.425415
-0.06614648,46.891487
-0.026562171,49.910007
0.04936301,56.083935
0.12020475,56.243336
0.034487613,61.27048
0.2912538,63.536148
0.24054,62.82678
0.41127473,67.16516
0.45159543,67.67382
0.46590945,77.26643
0.7011872,72.98163
0.63046616,82.775856
0.6321535,85.41447
0.73392516,88.933815
0.85974497,87.69576
0.8562794,95.81704
1.0061343,93.56848
1.0878433,98.336555
1.1400677,101.69903
1.111005,105.64006
1.2470764,110.51486
1.2053196,103.42702
1.3198731,116.16545
1.3112707,121.87324
1.3562487,124.439255
1.3620783,120.67567
1.334191,127.393814
1.489416,126.389015
1.4392719,127.59264
1.4570693,130.15279
1.4734248,129.57262
1.4774421,132.369
1.481271,131.65265
1.410415,133.37837
1.4227735,132.85692
1.3586794,138.4205
1.3310167,133.35086
1.3185456,136.04218
1.3456173,134.78516
1.2660556,130.5763
1.2983265,131.47273
1.2981739,134.01797
1.380743,131.56917
1.2120614,130.20673
1.2169273,132.47342
1.1883647,126.74717
1.1101456,120.707886
1.1386858,126.512634
1.0935055,125.0495
1.0914193,118.67278
1.1184369,123.261185
1.0824121,118.42267
1.0446875,119.0223
1.0304426,120.03354
1.0429425,113.574646
1.0468583,108.56276
1.0621207,106.75932
1.0486095,109.06934
0.9519022,108.651146
0.90661824,104.44948
1.084234,94.271324
1.0103287,97.27578
0.9483558,98.90371
1.0210582,92.89716
0.9719859,92.77616
0.84705096,93.5586
0.94034016,87.663414
0.90073234,88.4479
0.8918941,85.40525
0.8973668,83.850784
0.8233003,86.499115
0.78100365,79.093895
0.7863013,73.21388
0.7602138,78.58221
0.76363444,72.38915
0.64792514,74.17098
0.5814807,72.21731
0.5504739,69.812
0.5328291,68.4405
0.60515845,70.176834
0.4640721,63.495174
0.62655425,62.29793
0.48857266,60.600517
0.5180247,57.284378
0.5314379,56.568256
0.54733455,58.267807
0.5323547,56.594482
0.71494454,50.293762
0.46561715,52.41973
0.67208546,48.2673
0.50817436,47.348564
0.44216436,47.185238
0.5039516,45.31235
0.5626562,44.761307
0.5199537,42.169395
0.5539278,40.971027
0.600463,40.0
0.43909538,40.0
0.43420634,41.111515
0.5133091,40.0
0.4824091,40.0
0.39283517,41.52551
0.28321496,40.0
0.23276384,40.0
0.25247708,40.0
0.23871338,40.256077
0.25530696,41.9001
0.18967727,40.0
0.11658206,41.187923
0.26374835,41.050964
0.25917965,46.84792
0.19018264,51.297924
0.2690794,49.95895
0.2418477,52.32207
0.31998855,51.017834
0.45310605,55.9906
0.32879266,55.71778
0.4418897,61.987667
0.50671303,61.38536
0.5771027,71.33601
0.7403248,76.629005
0.8349354,76.49983
0.85984373,79.95189
1.090467,80.31207
0.92106426,85.57625
1.0859128,92.20227
1.193842,92.17041
1.2170835,96.00774
1.2489033,96.24633
1.4287196,104.455475
1.4845514,101.96683
1.5807986,107.90474
1.5015464,112.83648
1.5869297,115.02768
1.7471362,116.672295
1.6226382,115.8328
1.5432421,121.55075
1.6243026,124.45137
1.7620909,125.68652
1.7828906,129.0478
1.8268298,126.46578
1.7311469,130.99791
1.8271791,131.63513
1.8599026,129.58218
1.8032701,126.54737
1.7258317,133.04579
1.8441268,131.32457
1.8481534,140.11188
1.7177485,131.7195
1.7060847,132.37761
1.8118688,131.39102
1.7732527,133.13545
1.6214012,136.4039
1.4962928,134.9567
1.6104628,133.12729
1.6456739,129.51706
1.5457342,132.30174
1.5319159,128.98795
1.6285285,122.56518
1.4645208,117.400826
1.55197,123.971565
1.4955957,116.79281
1.5217913,119.293396
1.4458414,118.19288
1.4287913,115.59975
1.4145517,118.86717
1.3974096,112.04482
1.3021199,112.24996
1.3514143,107.51649
1.3919606,105.912476
1.4101931,105.36841
1.3735731,106.3841
1.3345205,98.75382
1.3525826,103.84375
1.3156563,99.552216
1.3728892,95.373
1.3998421,94.09438
1.3198621,96.56198
1.3512619,91.89099
1.3160499,91.25279
1.304518,88.58361
1.2441343,84.12863
1.3082712,82.58252
1.1987338,80.92169
1.1843427,75.70466
1.0906459,78.50083
1.17428,74.437
1.0576746,74.71776
1.1224966,72.079025
0.9326976,70.57959
0.98101175,70.16688
0.94038624,61.557125
0.92036015,63.909668
0.9130137,60.856033
0.9780592,60.774757
0.9956677,60.654335
0.83936524,54.05633
0.9606693,53.55371
0.85328853,52.586224
0.8878098,52.250153
0.85126454,47.023846
0.85008746,43.08097
0.9640904,48.670647
0.84935695,45.03975
0.9133581,45.387196
0.7441409,44.883457
0.7409274,40.51629
0.91017467,42.237034
0.80868745,40.0
0.7905322,40.0
0.83156264,40.0
0.7642391,40.0
0.7025886,40.0
0.79566765,40.0
0.5758853,40.0
0.7260967,40.0
0.6783394,40.0
0.49900717,40.0
0.49672624,43.147797
0.64505166,40.458168
0.5229169,40.0
0.46405566,41.67102
0.5618185,47.574974
0.5076169,45.280617
0.579802,46.344204
0.5910361,55.01306
0.6310163,55.664
0.58247906,60.623127
0.77848196,64.102165
0.7658027,57.106567
0.8136368,64.406715
0.9701992,67.11241
0.90260345,70.92128
1.1051027,74.70122
1.2559572,79.93158
1.2597817,80.402695
1.393043,86.2688
1.3652745,85.70362
1.5136262,85.92816
1.4431131,95.01752
1.5594624,96.72986
1.665556,99.82604
1.7562746,105.55035
1.7536267,106.9637
1.813443,113.453064
1.7484679,112.607895
1.8931165,114.70605
1.8728297,121.396576
1.8882115,118.19087
1.9271381,121.10869
1.9796679,123.54577
1.8925188,127.43854
1.9853238,126.80885
2.0421584,133.51003
1.9468349,134.84944
2.0051625,130.59692
1.926157,133.60283
1.9772859,131.80821
1.9049445,130.08397
1.879682,134.7176
1.8712132,133.74966
1.9197485,133.63844
1.8263514,134.46957
1.8462917,132.21298
1.8324803,134.36955
1.8757468,130.24744
1.7427504,133.81723
1.722843,132.80539
1.7923715,130.29005
1.6876905,128.66673
1.6782689,124.95744
1.6634917,124.88123
1.682666,118.23616
1.6301489,121.95869
1.6586826,118.3162
1.6336694,118.71037
1.5742091,117.13438
1.5380614,119.75364
1.595388,112.20644
1.4939259,108.546265
1.4698522,107.48822
1.3930829,104.0647
1.5282028,97.87703
1.4504153,101.2649
1.6178541,99.95134
1.4686556,99.271614
1.4139287,96.111824
1.3768318,96.36962
1.3469156,93.462006
1.4465953,91.544235
1.4027389,92.69192
1.3170155,84.42553
1.2558283,90.438736
1.2877551,83.138016
1.2852011,81.7114
1.2651101,80.16877
1.1659924,75.96158
1.1576089,71.71336
1.033908,74.07895
1.014311,72.40225
0.97539747,73.291405
0.9443666,72.314606
1.0172426,67.68094
0.8803003,65.78107
0.8114987,64.020966
0.8998082,66.269066
0.79910815,59.297672
0.8764669,59.1709
0.88945556,59.112976
0.91943187,55.625065
0.7844273,52.04731
0.894719,58.25986
0.83043194,47.75127
0.89916414,46.84555
0.9645443,46.171432
0.85822994,48.28232
0.8263213,40.300884
0.79546803,43.06829
0.66710407,40.0
0.7360605,40.0
0.6636287,40.0
0.5831173,41.83377
0.6773547,40.0
0.72301674,40.98458
0.49646014,40.0
0.7146546,40.0
0.48520994,40.0
0.47956854,40.0
0.5060586,40.0
0.4180956,40.603188
0.5109719,40.0
0.4268839,40.0
0.3008783,41.05137
0.36276084,45.858604
0.3985919,46.630474
0.48574734,47.132423
0.33856437,45.046223
0.4252877,53.800438
0.3542933,53.541195
0.59311116,57.472847
0.477358,60.902676
0.5866835,62.866535
0.65926814,68.331825
0.9214589,66.82851
0.6946124,67.04867
1.0165762,76.36974
0.985819,80.65477
0.8644516,80.36534
0.97040784,86.22025
1.1073267,90.27022
1.2673532,91.7165
1.265863,97.17322
1.3110573,98.58179
1.3483721,102.91767
1.4028697,102.20946
1.3916537,111.04502
1.4282817,103.99578
1.5807464,110.61274
1.6832764,115.990944
1.5526892,118.75475
1.700494,122.526306
1.6130936,125.02203
1.695465,127.352264
1.6506115,129.47797
1.4946365,133.43939
1.7024664,133.761
1.6168149,132.86125
1.6896647,132.23958
1.6646236,133.313
1.678048,134.70667
1.6310617,133.38065
1.5835278,130.25505
1.693701,134.49501
1.6466472,138.79042
1.5135771,133.59326
1.5091678,135.49942
1.5324936,128.3532
1.4460177,130.02467
1.4981047,128.49748
1.3738986,131.19786
1.5028343,128.29742
1.3960999,126.50822
1.3525587,128.37851
1.2854993,129.33632
1.3287967,122.67088
1.219799,122.14771
1.2977258,117.50667
1.1989975,118.90461
1.1899117,116.351364
1.2702897,114.579575
1.2201455,109.88432
1.2055601,112.20483
1.1391761,116.409065
1.2497325,105.391014
1.1129017,106.578575
1.0327957,104.31327
1.1444036,98.134415
1.1253738,100.90953
1.0283518,100.659355
1.0549697,92.54813
1.0842878,93.61352
1.1212294,90.600044
1.0669997,83.92401
0.9628569,87.19265
0.8303872,82.6479
0.9117652,85.13806
0.8831827,83.1199
0.74349153,81.66569
0.74664015,80.4273
0.73508644,80.70101
0.73790294,73.48733
0.5333565,73.16327
0.6223541,74.188644
0.62427616,64.53993
0.6419317,67.997826
0.5130409,60.937103
0.55483276,64.53008
0.4554907,67.632835
0.5071056,59.387333
0.47140762,57.593853
0.45026943,54.650093
0.37470314,59.491413
0.43414426,54.786736
0.4240093,53.265556
0.41897783,49.693493
0.4398961,47.127728
0.36053008,42.533623
0.39157137,47.262684
0.2661631,45.115025
0.36131078,44.34121
0.36703676,41.24028
0.3466843,40.0
0.34241757,40.0
0.22027504,40.0
0.3368929,40.0
0.31821328,40.0
0.27271163,40.0
0.1522956,40.0
0.2224597,40.0
0.12039688,40.123917
0.07728394,40.0
0.041796867,41.996204
-0.014173876,46.827045
0.08783003,44.93853
-0.061274465,41.518448
-0.07588726,43.868546
-0.010675533,46.29347
-0.09493631,51.39263
0.035423853,47.629025
-0.028845252,52.4138
0.12932855,54.69391
0.11754409,55.55453
0.26184598,60.54986
0.3167315,58.403015
0.36607313,65.20262
0.50209343,70.97377
0.5607242,70.463646
0.5808654,71.77388
0.7058068,77.09842
0.8708032,82.800354
0.722377,87.01652
0.728139,87.45176
0.84975904,94.12503
0.9500737,94.356735
0.9469317,98.29717
1.0975935,102.31126
1.1254706,104.67848
1.2287856,108.16335
1.1989338,109.11107
1.3018281,111.10795
1.1692654,113.05818
1.3678638,119.76407
1.3154707,119.0204
1.3362085,120.92314
1.3294628,124.348366
1.3863108,127.50293
1.3436176,126.38936
1.3191191,129.31503
1.3484234,129.62216
1.3770792,134.03302
1.4031966,136.63913
1.2642754,132.09991
1.2995201,131.56415
1.3765409,134.97723
1.3194041,134.36913
1.3903912,131.87112
1.2636304,134.49452
1.2804947,132.69287
1.2383941,133.82993
1.2910097,131.90196
1.1674654,129.5234
1.0891142,128.67062
1.3098735,129.80997
1.236744,129.01797
1.0684404,123.351295
1.0877123,128.45729
1.1626447,124.3156
1.0369264,122.28159
1.0157697,117.28181
0.9560453,120.004745
0.9015313,118.37908
0.9767813,111.43119
0.8951614,109.99463
0.89345956,109.54495
0.9373306,107.684906
0.901988,105.617455
0.9615354,104.421814
0.9791978,100.2416
0.9609274,102.47587
0.8010708,100.34772
0.9182341,99.343956
0.85896003,92.05297
0.78969264,95.10834
0.86319906,91.59859
0.8273343,90.05434
0.706564,87.57722
0.7640968,90.481155
0.6870597,81.42424
0.74985915,86.29416
0.7448896,78.819855
0.6863068,82.27722
0.68103516,75.20846
0.5074943,74.945274
0.56072557,73.33906
0.47751614,70.465996
0.5760759,72.52014
0.5783341,69.50277
0.38891324,66.97533
0.45131394,65.60261
0.49254477,61.93982
0.4472314,59.223793
0.35163796,52.11184
0.3427123,63.189793
0.34432676,58.185883
0.39404047,54.12781
0.3943047,48.819206
0.5888203,53.31598
0.43884182,49.051888
0.43214363,42.172462
0.40065432,41.75242
0.36467603,41.658695
0.35244402,42.431034
0.36053482,40.0
0.45260885,41.05407
0.35529777,40.0
0.15430339,40.0
0.3083227,40.0
0.20732622,40.0
0.20458029,40.0
0.29009324,40.0
0.10683692,40.0
0.18280654,40.0
-0.00035769332,40.0
0.02075205,40.74331
0.031027105,41.282127
0.039236292,40.21872
0.0069665085,47.13845
0.06543748,44.254337
0.040880855,47.856995
0.04945302,48.853733
0.07511727,41.597675
0.12898132,56.155506
0.18735607,51.579247
0.22691245,60.061474
0.30156863,58.928986
0.3234559,64.939445
0.29238436,67.481766
0.50364625,70.18161
0.51286846,73.94965
0.60884905,72.94448
0.74800813,78.29948
0.8539493,80.0549
0.84991914,83.00382
0.93651044,86.00594
0.9752945,92.68967
0.98996955,92.52741
1.1452546,97.19405
1.2481414,100.48491
1.3554668,104.05107
1.2987025,109.41387
1.307066,107.09051
1.4783263,113.26056
1.4199494,114.9158
1.3803463,119.60786
1.427769,125.61423
1.4987613,123.392456
1.5096644,125.891266
1.4421897,126.1966
1.5660548,126.338776
1.7543232,128.74934
1.5092609,132.93423
1.4796826,134.00275
1.5435779,137.3657
1.5768615,134.95187
1.6341615,132.05478
1.654633,134.86635
1.5719116,137.01031
1.528202,133.68977
1.5125245,135.5117
1.4730849,127.70506
1.464024,137.27637
1.5043175,131.35765
1.4952706,130.55408
1.3162022,125.882484
1.4173154,127.08648
1.3360101,123.07386
1.3900396,123.17622
1.3004965,126.55013
1.2962904,127.08572
1.2914013,123.64571
1.2320367,120.422424
1.3180976,117.882126
1.4100351,114.68689
1.3274122,116.27056
1.258271,110.53798
1.2061557,111.44979
1.2457838,112.20785
1.2810183,105.67416
1.2890092,103.646
1.229976,105.7729
1.1829755,99.90454
1.1856039,101.750694
1.2276506,98.225266
1.1443801,95.571396
1.2006391,92.122215
1.1796168,89.06202
1.0687617,88.05363
1.0424699,86.53545
0.97482985,87.10533
1.005634,84.45091
1.0498368,81.42546
0.91371,79.589325
0.9080104,78.2625
0.96864045,76.305145
1.0194032,77.28135
0.82724684,75.8845
0.8478478,76.74425
0.86746585,63.70276
0.83408296,69.818436
0.6388993,63.765728
0.86026937,65.6314
0.8288465,60.474632
0.7828777,60.972282
0.72169757,58.61609
0.8149794,55.663513
0.59185576,56.399338
0.72062975,53.113625
0.74160725,46.58527
0.6135568,49.5349
0.7756306,48.804146
0.70291334,51.663074
0.81859666,44.399704
0.78653485,44.891293
0.73416245,43.115665
0.69554704,40.0
0.7195457,40.0
0.64098585,40.0
0.58601654,41.99731
0.71447617,40.0
0.54382825,40.0
0.54285866,42.383003
0.54488146,40.0
0.5933934,40.0
0.51852137,40.0
0.5094002,40.0
0.35424197,40.0
0.4030246,40.0
0.41068697,40.0
0.3930068,44.234093
0.42243043,44.740696
0.41751912,45.136642
0.49905694,48.722813
0.5093427,46.6371
0.41933843,49.470158
0.53060776,58.17594
0.6792634,55.992603
0.50609726,55.1794
0.76056725,65.994354
0.6961602,66.01088
0.900448,67.84256
0.9438592,70.050125
0.9541098,76.11195
1.1724437,78.15804
1.1774498,81.05092
1.3074933,86.81967
1.354121,89.45662
1.3466508,94.84103
1.418934,95.123955
1.602005,99.79438
1.5595943,104.91523
1.7082304,107.60477
1.7523335,111.54667
1.6802957,112.89645
1.7641345,112.32192
1.9055538,115.73072
1.8188964,120.59435
1.8330567,122.41155
1.9361159,125.05785
2.030513,126.04402
1.8354834,122.12424
1.9427649,122.93626
1.9507719,127.56277
1.8837621,137.73895
1.9101328,130.69034
1.9565213,127.76128
1.9882259,134.35121
1.9024655,132.33975
1.8619682,136.77292
1.9612697,135.93867
1.880892,133.62508
1.9524688,130.50021
1.8754557,134.56691
1.9048724,134.77248
1.773145,130.31296
1.6947782,131.88829
1.7400203,131.88647
1.788687,128.03822
1.6198062,131.06538
1.7193563,122.83767
1.6085534,127.17057
1.7721101,122.541885
1.6373601,117.2734
1.6684916,121.025826
1.5317869,116.784836
1.5448856,115.916115
1.5165085,114.654274
1.5572672,110.4436
1.4876143,113.979836
1.5737222,108.712715
1.4125744,106.74326
1.5441052,106.30031
1.4688252,102.76327
1.470769,98.56454
1.4843385,103.18929
1.4402317,95.228424
1.531943,97.65015
1.4529942,99.78108
1.3768647,94.08455
1.4662145,87.79774
1.4136627,89.98219
1.3796009,85.5337
1.370481,86.69891
1.1876583,81.77861
1.1299686,77.920494
1.1366193,74.4465
1.2134331,75.8367
1.131557,71.26088
1.0881771,76.39932
1.2257289,72.32235
1.0790983,71.50598
1.0389879,68.29722
1.1354815,66.386734
1.0095992,68.527756
1.0133017,61.319168
0.9500386,61.250587
0.75406814,60.29411
0.97205037,55.212208
0.90312314,55.883038
0.8240893,52.08328
1.0328102,45.922203
1.0002918,48.18951
0.9250686,46.59004
0.9490199,45.19935
0.8048808,50.218323
0.84462273,45.540028
0.8274505,45.84794
1.014297,40.0
0.7605849,40.0
0.8374553,40.0
0.78033006,40.0
0.7928611,40.0
0.7252841,40.0
0.8197452,40.0
0.64692694,40.0
0.6327795,40.0
0.5774667,40.0
0.7411856,42.425064
0.5901999,42.0213
0.44316977,40.0
0.44813883,40.0
0.462222,42.976078
0.5203683,42.53674
0.4181777,49.206123
0.47525236,50.032516
0.47065073,49.33505
0.6309243,55.947914
0.5497108,55.129547
0.61523145,55.55318
0.6645383,63.676857
0.78738797,62.56713
0.75067186,60.770226
0.91384095,73.05498
0.9902818,71.59961
1.0123676,75.91097
1.1758816,78.19139
1.1406329,83.75491
1.2764248,84.58357
1.3712254,86.024925
1.4628835,94.363235
1.5070294,101.04879
1.6006824,99.41278
1.5816835,103.383484
1.600367,107.86079
1.7114027,104.31717
1.7075156,112.24671
1.8096702,110.16206
1.7486849,119.96711
1.7408977,119.15562
1.8668572,118.862274
1.7689102,129.49683
1.8269471,126.7379
1.8541992,121.18868
1.9347166,131.26282
1.8718584,135.82707
1.9014043,131.11928
1.8042059,134.9174
1.923915,130.89427
1.9013684,134.34908
1.8537198,132.0468
1.7985148,130.0469
1.7474164,137.7384
1.761276,130.65245
1.7519841,135.47136
1.7886137,132.6902
1.6821626,138.06134
1.7433318,132.59645
1.6892357,130.73149
1.5398973,128.55725
1.6377335,125.26846
1.6778594,128.68663
1.4985676,123.68892
1.5150902,122.511635
1.5860412,123.367294
1.427503,122.92132
1.3427398,120.170105
1.4547611,119.27162
1.3879776,114.41416
1.4642088,107.96254
1.3900594,115.10659
1.3413317,108.63047
1.2803267,108.91867
1.4089832,108.009285
1.3435076,106.57992
1.2720631,107.87308
1.2326218,99.813385
1.1526532,98.34169
1.3317119,99.30185
1.23977,97.212
1.203202,95.33683
1.1992813,90.82309
1.153846,86.20123
1.0257459,88.251015
1.0864354,88.3409
1.0748233,86.487816
1.033553,82.88263
0.96108437,81.99197
1.0223557,79.324875
0.86983037,77.43429
0.92118263,76.870186
0.8086383,75.369736
0.88614815,71.76978
0.72436017,76.534775
0.7617742,67.20785
0.7119151,65.85129
0.7723888,63.443348
0.59134877,64.566246
0.6806914,60.852406
0.6624753,54.943462
0.5844778,54.985836
0.66101104,51.641945
0.50360703,47.55248
0.56871223,50.450268
0.62602353,53.094696
0.6563815,49.00926
0.52265114,43.009552
0.58910334,40.98617
0.48683882,40.36611
0.5463869,44.49869
0.40642902,40.22709
0.5643878,40.0
0.54892236,40.0
0.45036763,40.0
0.4048018,40.0
0.41038916,40.76827
0.35770437,40.0
0.41688356,40.0
0.25263187,40.0
0.18783414,40.025646
0.1917856,42.590885
0.13866591,40.0
0.23957182,40.0
0.05830713,41.51081
0.25157127,41.50115
0.18561387,43.260475
0.08028466,46.196606
0.25079343,48.835045
0.19531834,49.78131
0.23667417,50.799114
0.25797793,56.75415
0.33065405,57.8933
0.45135242,58.00394
0.5374213,63.3061
0.51051086,65.46825
0.5601339,71.515526
0.66571903,71.95316
0.61231875,76.89756
0.81936383,79.41578
0.6592121,84.592964
0.91059357,80.30311
0.9616729,89.41759
1.0342653,93.83541
1.0284798,95.86721
1.1326388,101.42721
1.135582,102.8164
1.2656584,105.528435
1.3152751,109.92436
1.3216422,111.538765
1.415143,110.12095
1.3337663,112.113
1.4528387,119.457756
1.4702424,123.9733
1.3621571,124.87035
1.3799615,124.46191
1.5356455,124.195885
1.441621,130.10886
1.4795427,129.70955
1.4857843,129.04593
1.4468964,133.20084
1.5834866,126.51917
1.4806138,133.07889
1.5235598,136.36252
1.4722754,129.80083
1.3672903,137.84947
1.391653,135.33275
1.3853502,134.42554
1.4088,132.22713
1.2627051,136.75223
1.2165068,133.27509
1.3035825,132.11713
1.2780553,129.39061
1.1987313,128.4793
1.0850471,125.82935
1.1697496,131.41083
1.062813,124.23684
1.0241364,121.54699
1.0548726,122.70174
1.1921508,117.506516
1.0428365,117.16743
1.0023426,113.33565
0.92726094,112.023926
1.052465,111.85415
1.0001823,108.231346
0.9563918,106.74965
0.975828,109.19928
0.82476217,105.18423
0.88281035,101.00693
0.82963914,104.97682
0.8586461,99.335754
1.0128883,95.4119
0.83001435,92.18829
0.88523334,92.04807
0.8519971,90.69672
0.83393055,97.205864
0.7658936,88.33204
0.8726116,83.350296
0.77669394,85.486404
0.6699973,85.521
0.62231296,84.43764
0.68509644,81.05807
0.6356897,76.554054
0.6434147,70.935585
0.5495325,74.439186
0.41321445,65.53812
0.46609378,64.72251
0.42354712,68.627014
0.39351025,65.65736
0.37885565,64.76861
0.29331058,61.678986
0.2703875,62.107246
0.3022518,55.6248
0.3908456,54.09699
0.15512235,53.008648
0.40321237,55.923256
0.36330616,53.34088
0.3318241,52.12685
0.48484215,45.97536
0.30008173,42.623623
0.34306931,49.78335
0.39065483,44.06208
0.32241789,41.30741
0.3311755,45.588955
0.27428532,40.0
0.3621601,41.697865
0.2540135,40.840946
0.14519751,40.0
0.16540447,40.0
-0.017613383,40.0
0.10127602,40.0
0.12313365,40.0
-0.0067128656,40.0
0.061815783,40.0
-0.033346403,42.098026
-0.09639355,43.146553
0.013889369,45.503445
-0.041526753,40.625244
-0.078028046,40.230755
-0.10097741,47.774544
0.017390486,49.350037
0.00674531,51.295147
0.10925552,55.83237
0.04043126,54.929005
0.06660072,60.772224
0.10578997,63.062885
0.2376726,65.74257
0.16662508,69.67528
0.38807625,74.25326
0.5718104,78.96949
0.47167176,73.82328
0.7470838,80.72003
0.66669476,83.05089
0.7728279,85.63807
0.8159022,91.05138
0.92931,94.461494
0.93968195,95.29981
1.0427613,97.731384
1.1237674,108.60669
1.2085439,110.91483
1.1940885,108.77605
1.2660354,110.54891
1.2540646,109.628494
1.3712306,119.2726
1.3964553,119.62276
1.34397,119.99031
1.3625224,127.46418
1.350047,131.02461
1.5390408,128.78502
1.4347429,130.29202
1.5196205,126.87174
1.2738959,128.57191
1.3996617,133.82182
1.3582891,136.1418
1.4337032,136.30495
1.4396149,137.13158
1.3932507,132.61423
1.4038737,137.03587
1.4139789,135.96225
1.3157241,133.13922
1.3276445,135.5851
1.497091,134.31927
1.2209182,127.73197
1.3382615,132.25
1.2018001,130.27887
1.2366774,125.55384
1.2419107,125.73502
1.1231087,126.739006
1.1649455,125.35596
1.1906824,127.29426
1.1039479,119.61099
1.066192,116.72659
1.0934078,116.75208
0.9855793,114.03994
1.083742,114.961296
1.122267,109.47244
1.1286492,117.01626
1.0073948,106.12942
0.91170084,109.079956
1.0139645,106.5527
1.0433184,104.02074
1.0139815,99.1342
0.92231715,95.7137
1.0582316,95.35053
1.0429748,95.7683
1.0089104,92.633965
0.96278954,90.30415
0.9318224,89.8745
0.8756185,90.33261
0.8984991,88.6948
0.8701598,85.32595
0.8455351,81.69348
0.77423936,81.6761
0.7853062,81.369835
0.83460754,77.84218
0.6750237,75.97175
0.66938823,72.896385
0.6725741,75.7871
0.62850195,69.51248
0.66498125,65.49921
0.61597145,64.64273
0.6737225,61.227192
0.5087967,60.434093
0.60954505,63.317963
0.647059,60.307766
0.5267891,53.683903
0.5390545,55.200302
0.47466037,54.61839
0.6202119,55.190247
0.6134056,53.94764
0.55194813,50.25975
0.62267244,46.6355
0.47597498,43.02953
0.5106484,41.742435
0.54905915,41.385628
0.47974774,40.0
0.56694174,40.0
0.5366,40.0
0.53152066,41.10897
0.51926655,40.0
0.3669729,40.0
0.4073371,40.0
0.4132942,40.0
0.31598836,40.0
0.3407653,40.0
0.15533656,40.0
0.22848527,40.0
0.28723794,40.0
0.22883998,41.330696
0.3095649,41.985775
0.29478836,40.44367
0.23158704,46.61949
0.30673376,49.54419
0.28827724,52.838432
0.3635881,51.99807
0.42609218,55.739433
0.34926417,59.85192
0.44597992,65.69115
0.5413947,63.739124
0.6633139,63.832092
0.6350832,64.23284
0.84889966,76.461105
0.84079677,71.85555
0.9138657,81.06822
0.9556528,81.87929
1.086115,81.54106
1.1953894,89.16503
1.1947343,92.05409
1.2951511,101.198166
1.4084829,98.58739
1.5466805,100.927925
1.4857403,109.55628
1.4755759,104.13123
1.6041204,111.2137
1.6948295,117.11879
1.5987309,117.651276
1.5719581,124.71248
1.7543671,118.889755
1.7345936,123.31574
1.8804235,126.76346
1.643887,127.05924
1.8720416,132.21487
1.8202518,129.62877
1.8117307,135.29085
1.8236023,131.67784
1.7829686,136.71864
1.77147,135.69142
1.7352333,135.15454
1.6587065,129.20103
1.7264999,130.34003
1.6312762,136.11232
1.7580208,131.70775
1.7092997,132.83952
1.7696705,134.84686
1.7787752,130.21678
1.7328866,127.66536
1.715353,129.72923
1.5830519,128.58943
1.6148487,124.39052
1.5200105,125.87249
1.5197402,122.79163
1.5276039,117.4812
1.5308305,119.62552
1.5186235,119.340546
1.4788326,117.01782
1.5156945,116.017044
1.494739,111.76496
1.468359,117.39468
1.4872458,116.612816
1.4112567,109.40581
1.4025034,108.166245
1.4796983,104.685
1.3987632,108.53056
1.4365091,98.75359
1.4111489,99.60501
1.3033036,98.582016
1.4475148,92.85819
1.362598,94.11658
1.4557809,90.10336
1.4690095,89.76619
1.2967957,88.038475
1.3135532,88.20304
1.2874506,82.1306
1.2890108,77.86397
1.2228714,80.356415
1.1951778,79.57289
1.0730046,72.82475
1.1804029,72.22669
1.0420122,72.43322
1.05574,71.57689
0.9163706,69.4239
0.93194675,63.92471
0.94735515,64.6102
0.92336106,59.329594
0.883749,63.896633
0.8768823,60.487305
0.794012,57.833298
0.8796255,57.59737
0.92183095,56.066555
0.89611673,49.299046
0.899561,48.08189
0.8792394,45.50981
0.81914926,50.705765
0.87882435,48.792458
0.819887,46.995914
0.8330761,43.123043
0.8549511,41.102127
0.87550145,43.807716
0.9371103,44.391415
0.9068536,40.0
0.9533285,44.389107
0.7664598,40.0
0.7450731,40.0
0.74845487,40.0
0.7433061,40.0
0.69607896,40.0
0.54707104,40.0
0.59558517,40.0
0.50177425,40.0
0.5934151,40.133965
0.54526645,42.396984
0.54292434,43.98721
0.4115731,46.66034
0.5983907,43.5125
0.61458343,45.851097
0.62188,53.296448
0.63561124,53.34905
0.6925782,54.441154
0.7386324,60.958664
0.77003366,63.08126
0.7456624,64.25516
0.8657498,67.28129
0.98478115,70.24566
1.017183,75.51092
1.1434225,78.7272
1.2192503,79.44162
1.2519088,79.226395
1.4065858,90.28774
1.4607139,87.6531
1.3269408,93.45513
1.6337982,98.78817
1.6605705,97.56277
1.5627319,102.500984
1.6601454,106.267876
1.8205416,107.354095
1.8251799,114.63636
1.9028084,113.84464
1.8247695,112.1411
1.9000913,119.26835
1.8968906,121.25152
1.8914976,123.388916
1.9278721,129.62624
1.901346,126.40198
1.8941585,133.85307
1.9729915,132.95345
1.867355,133.58455
2.0890403,131.53763
2.0105486,128.69012
1.9162334,133.23189
1.9123256,134.99606
1.9480144,131.86263
1.9148351,130.3148
1.8394372,135.06636
1.8588626,135.77037
1.891377,133.66676
1.6893907,131.66971
1.8312777,131.87047
1.8423901,131.17937
1.678323,133.42746
1.6775118,130.45764
1.7374212,125.34382
1.658622,128.27727
1.6471796,123.89401
1.6265075,124.82103
1.557699,120.768684
1.7727813,119.90835
1.5979409,112.29572
1.4994572,117.832855
1.4906112,112.121544
1.4914931,115.391495
1.4183142,110.116325
1.460606,106.38135
1.4176025,104.52786
1.4250362,101.864944
1.4175179,99.14977
1.4205918,104.9359
1.4533827,91.837746
1.3762804,101.51641
1.3482084,95.47997
1.375525,94.22213
1.2515161,92.07846
1.3193246,87.873955
1.2205291,88.16215
1.3500893,88.59199
1.2352268,82.54471
1.1666125,84.868774
1.0686399,79.35311
1.1461138,79.777565
1.037855,77.440575
1.1345371,73.80928
0.911959,70.522255
0.96924055,73.54575
1.0062132,70.005165
1.0579545,62.810978
0.8736855,66.53652
0.8266778,63.438396
0.8852819,61.44807
0.8124164,55.018837
0.77729887,59.674843
0.84206146,57.279087
0.7857154,52.757915
0.90031534,53.10652
0.85765237,54.99034
0.91962373,50.88515
0.83295345,48.110638
0.79366976,48.37027
0.71717256,42.64321
0.78666705,48.453186
0.72024363,40.0
0.7223976,40.0
0.73352766,40.60345
0.71395826,40.0
0.7233868,40.81355
0.5876519,40.0
0.51610243,41.563244
0.62238604,40.0
0.68485355,40.752117
0.39552984,40.0
0.5095227,40.0
0.430681,40.0
0.39550105,40.19037
0.3438483,40.0
0.39245254,42.18046
0.3320601,40.327484
0.36741823,41.589523
0.2592913,46.625828
0.39264235,49.67137
0.41352603,51.390472
0.48085847,50.761726
0.41428474,57.15422
0.48524392,53.80836
0.505598,63.40724
0.5495116,63.368958
0.7097682,68.40579
0.82864624,73.075096
0.9071425,71.18154
0.96457773,78.55593
0.9923308,81.560616
1.1246719,82.1874
1.074162,88.18429
1.1947091,90.692795
1.213093,92.0084
1.3936503,97.67666
1.4575205,98.45917
1.4177905,98.98137
1.3572705,106.61033
1.4424663,110.79919
1.4690063,107.22514
1.4319146,118.481186
1.6549207,116.68531
1.6402223,121.23141
1.5952942,124.250694
1.6229669,126.63395
1.5812402,128.62837
1.6482258,127.11951
1.6603189,127.79627
1.5864301,131.06677
1.6094638,134.12167
1.5272814,130.05132
1.6287502,130.8902
1.6202731,132.2144
1.6185673,136.67455
1.6317395,132.08612
1.4942487,134.56332
1.5741447,130.9581
1.6740803,137.03549
1.4748442,131.9758
1.4720265,135.03404
1.4731392,127.97998
1.3712122,129.95895
1.3651633,131.21832
1.3783981,128.64674
1.2142884,125.863556
1.3165932,125.834625
1.3146122,123.101036
1.3013421,122.7717
1.2394568,114.73052
1.2208269,115.77343
1.1890901,119.08303
1.2141132,112.608925
1.1664158,113.77955
1.1033134,106.38916
1.0181681,110.1312
1.0190502,111.0039
1.0173621,108.42742
1.0895516,98.7243
1.1269177,107.13366
0.98702276,99.60549
1.0790396,97.69591
1.0083865,93.373695
1.0066811,98.659355
1.0071578,98.18047
0.87220335,89.821396
0.9122265,89.234726
0.90324926,90.1047
0.9253854,88.93872
0.8155586,85.65243
0.86558145,82.65105
0.8535905,84.98633
0.72483957,80.74483
0.7505869,74.659615
0.6428889,74.896454
0.6608346,66.32377
0.5241526,73.7588
0.6425599,69.049706
0.4621897,65.744255
0.618686,57.539608
0.4777999,64.59391
0.5256845,63.966557
0.42137122,63.316437
0.44398826,53.57476
0.49377465,53.568657
0.3523004,54.17774
0.471924,55.86325
0.47068226,49.340008
0.39343205,44.18767
0.43652835,46.998386
0.40215856,45.20054
0.4586806,44.416576
0.43016863,44.646046
0.3662645,41.58734
0.3519189,41.36479
0.38826752,40.0
0.2406515,40.0
0.31842026,40.0
0.26962522,40.0
0.21682282,40.762417
0.18983889,40.0
0.13062447,40.0
0.15711151,40.68225
0.05372272,40.0
-0.04904027,43.428364
0.047636446,41.39593
0.054418903,40.0
-0.0031596443,40.297646
-0.064587824,40.673615
0.052544568,41.985123
0.021833237,46.416065
-0.02349535,49.24911
0.022383058,52.075317
0.21998169,49.33676
0.08343234,56.427197
0.18892181,62.45884
0.18859121,58.164448
0.30514535,64.568146
0.32282078,65.9385
0.44072375,71.363205
0.49382326,73.58547
0.5140401,78.64125
0.7574991,80.884834
0.69189346,82.553665
0.76450026,81.93436
0.95317984,94.08214
0.94158506,94.68406
0.9861764,94.76554
1.0320895,98.14719
1.1635826,105.451584
1.1429524,106.20525
1.1610384,112.717804
1.2917073,110.76689
1.2969649,112.39392
1.2520155,115.15966
1.2929943,115.671005
1.3065526,123.14246
1.3411585,126.06316
1.1993742,125.04724
1.3479778,127.6516
1.4658189,132.27783
1.4356585,128.61258
1.4715314,131.93117
1.4141198,130.6322
1.2560508,133.0746
1.2492715,137.49443
1.4400133,132.0826
1.3907343,134.47029
1.3608444,136.26738
1.4161222,134.61761
1.2694908,133.6719
1.297331,135.16187
1.2171112,131.69403
1.2321666,134.95941
1.1653651,127.674774
1.1856755,128.33607
1.2417405,132.132
1.114911,126.23414
1.1005569,126.729294
1.054521,119.97017
0.9599311,120.18112
1.0274452,119.35981
1.0082241,121.723305
0.90928,118.39564
0.82793576,117.45664
0.9449244,113.626396
0.9346138,114.94705
0.8956118,107.93745
1.0413626,107.38227
0.93175656,101.33003
0.86221075,102.67683
0.88908637,106.75764
0.9853068,98.12453
0.9208447,97.46912
0.873576,102.13614
0.84232277,91.06972
0.7686122,89.72879
0.96292776,92.41543
0.76673025,91.91342
0.80551076,86.36315
0.7847204,88.798164
0.7583203,78.80026
0.6931104,83.92808
0.7130829,77.88031
0.6278662,80.87167
0.5205372,78.66063
0.6006675,73.29654
0.548222,74.333374
0.4876365,69.405106
0.5502473,66.92064
0.49887908,65.33421
0.5051111,65.86525
0.4056687,57.169296
0.34277734,58.798203
0.31130376,59.312504
0.40464398,59.50821
0.37252465,54.229286
0.33352485,53.84473
0.3848539,56.254166
0.43663412,49.83097
0.42064548,45.864887
0.35364312,47.12857
0.39113802,43.655617
0.33083898,42.309364
0.27019313,40.0
0.4301047,40.0
0.35855147,40.0
0.1727326,40.0
0.31307435,42.371243
0.29761052,40.0
0.27981785,40.0
0.30633423,40.0
0.27459815,40.0
0.1361138,40.0
0.14114587,40.0
0.08929238,40.30541
0.08627135,40.0
0.11929764,40.0
0.0074097407,40.10978
0.059843946,40.29074
0.14659803,43.224365
-0.017623717,41.12927
0.04063947,48.16725
0.112448566,43.378624
0.08402972,48.59136
0.10262405,57.562187
0.1853884,54.013577
0.2830729,60.844166
0.28160462,61.019207
0.3638747,69.66144
0.46433142,73.92611
0.36421537,65.61333
0.63876706,77.976074
0.66015327,79.5296
0.80128014,84.24319
0.80062187,80.97795
1.0013198,84.972595
1.0198367,88.01759
1.1030537,90.98992
1.10545,100.67916
1.1797082,105.03978
1.372304,106.84424
1.331901,109.18537
1.3469814,108.948456
1.3229842,115.22386
1.4039854,117.55248
1.4881201,116.10685
1.5980481,118.75977
1.6004125,123.752625
1.6576713,128.0483
1.5599163,120.84501
1.5905943,130.61111
1.6458058,128.48875
1.5831221,128.16592
1.6510682,133.62674
1.6049286,130.18164
1.6235393,132.4791
1.5494512,129.71219
1.5117024,137.01753
1.5937079,133.40903
1.5958272,135.74785
1.4942887,131.04034
1.5596266,134.50906
1.4101096,128.4518
1.4157835,131.98666
1.4471698,133.86932
1.4628677,126.813034
1.3651652,132.07294
1.4305676,128.40355
1.3254926,126.78109
1.3982759,121.23469
1.4180112,121.69081
1.4035825,120.0722
1.2909966,116.67322
1.2929817,121.579346
1.2756184,119.2326
1.3706008,116.55243
1.3409201,112.55041
1.2854666,108.70315
1.2729397,113.38757
1.3100384,106.5667
1.3545936,106.32909
1.3303928,103.13285
1.2520635,104.0963
1.243914,101.677704
1.3738497,97.958466
1.1673988,92.51766
1.1727867,97.53898
1.1858066,91.09461
1.1262046,84.77008
1.2002556,91.46331
1.1803126,87.60278
1.1291798,85.5065
1.1038857,84.77543
1.1218594,86.43263
0.95689076,81.942795
0.9622936,77.40218
0.9071456,79.296684
0.9859588,74.49347
0.97128236,75.00269
0.8896009,72.69535
0.826466,72.69968
0.86948097,69.510315
0.755453,67.21091
0.81612617,65.01631
0.7447695,63.093098
0.72946495,55.383
0.76591295,57.079765
0.6062903,56.24355
0.7399813,53.203354
0.7016354,55.785812
0.7673004,53.126457
0.6104515,49.6956
0.7367897,48.311558
0.79971045,43.204174
0.64451605,48.835888
0.6579811,44.562294
0.74577355,41.0744
0.6922509,45.00373
0.82977444,40.0
0.6676027,42.955334
0.74603724,40.0
0.8055623,40.078217
0.6132517,40.0
0.5861462,40.0
0.6152934,40.0
0.6427605,42.881905
0.44442335,41.515697
0.5490109,41.57937
0.4772886,40.646732
0.37382057,44.281796
0.36338305,43.081055
0.5134662,42.784885
0.5229965,45.204506
0.49819925,40.78439
0.4796219,50.05521
0.6106636,52.2215
0.60815746,52.847294
0.61572903,61.847195
0.6515126,54.305355
0.73300457,67.07206
0.72104144,63.063435
0.8644651,67.77962
0.9153618,71.0414
0.8933313,71.208626
1.1646012,76.6148
1.1416084,75.81335
1.3289586,84.08605
1.353744,88.893135
1.3691996,92.08056
1.4315407,89.210594
1.5121955,102.270546
1.5740763,103.98411
1.6835066,104.59165
1.6852573,107.035484
1.7243837,107.596146
1.7811996,110.975204
1.7917546,120.88955
1.812294,115.04264
1.9123961,120.7337
1.8672148,120.576805
1.8492098,126.431114
1.9255525,123.15106
1.8721402,132.38701
1.9075997,126.32616
1.926453,134.89595
1.9885207,132.55983
1.8137399,135.61678
2.0074415,129.64897
1.9693561,139.53372
1.9701174,132.81844
1.9331205,132.86224
1.902104,133.40457
1.9557222,135.769
1.885231,132.34932
1.8742526,133.20044
1.8041222,130.91768
1.8100704,131.99762
1.8126056,128.70532
1.8290633,127.85796
1.6879908,121.49053
1.6345164,127.54331
1.7394925,120.55418
1.7917534,120.12125
1.6574063,124.756325
1.5785526,122.45326
1.6495814,116.68161
1.5801274,116.01187
1.5188973,113.87043
1.6230748,115.10019
1.5727886,112.23023
1.4347674,113.58698
1.467242,107.13815
1.5651041,111.33496
1.5412647,101.80211
1.4665554,102.05973
1.5148406,101.03442
1.4206309,99.039894
1.4629327,97.54645
1.424058,92.52929
1.3653212,92.24501
1.43135,93.85984
1.4177179,85.73492
1.4022295,88.41698
1.2960366,87.466385
1.3021225,83.53214
1.2382886,79.40979
1.0840266,78.42028
1.110887,79.4644
1.0785401,76.633224
1.0986873,70.593376
1.1966609,70.445465
1.0675236,74.33236
1.0212178,67.34864
0.9398926,65.11603
1.0044092,65.6754
0.9287384,62.788803
0.99773693,61.060246
0.99642324,58.123806
0.9566384,56.743908
0.9736075,55.28602
0.8624913,53.439285
0.9128502,50.228973
0.8591272,49.957417
0.92971027,46.72296
0.81328773,49.273033
0.8566527,44.91912
0.93518394,46.42897
0.97046256,43.333374
0.83160186,41.308678
0.91579145,42.84818
0.92010134,40.0
0.8238618,40.0
0.7587622,40.0
0.7717201,41.314262
0.7173174,40.0
0.7241084,40.0
0.6958735,40.0
0.4841386,40.0
0.6859292,40.0
0.5567837,40.0
0.61192566,40.0
0.5140226,40.0
0.589169,45.254284
0.46936113,48.353325
0.47136664,50.35811
0.53577274,46.271423
0.6563142,48.917057
0.49785388,51.12418
0.5284995,55.338432
0.52559924,57.909523
0.6222887,57.723915
0.70005924,61.212036
0.7814104,64.59023
0.8846934,67.25444
0.9152125,68.985725
1.0209005,76.48135
1.143021,77.19274
1.1843791,78.67165
1.24963,87.51233
1.2590348,86.50071
1.306123,89.13436
1.4198835,96.66547
1.4371055,96.96515
1.3357028,100.33028
1.6296176,107.23398
1.685591,102.050705
1.5424153,109.37424
1.703883,113.421165
1.8092879,115.68494
1.7385286,118.823006
1.8102269,118.121376
1.841512,120.62316
1.8192973,123.12596
1.8804196,128.88351
1.7812274,124.46316
1.7077708,132.83546
1.739844,133.20924
1.7684081,132.8888
1.6771332,131.95137
1.730812,136.7162
1.7554953,134.957
1.8735628,139.99583
1.6947092,132.95798
1.7612318,133.87848
1.6606089,132.1588
1.7622863,132.52005
1.7032994,127.37523
1.630099,133.33572
1.5515716,131.95279
1.6058055,131.89337
1.4885358,129.58736
1.523024,128.76196
1.4346336,119.995514
1.3704551,121.768715
1.4922568,117.420654
1.4561691,120.973236
1.3607159,124.21032
1.4645511,118.49145
1.2267058,118.3113
1.2707978,115.12075
1.3205906,109.11715
1.3957896,107.74059
1.3080882,106.25405
1.1553067,107.52698
1.2782959,103.98058
1.2719407,100.799065
1.1971242,105.182274
1.3030277,102.75436
1.2691566,98.06873
1.2630576,96.94703
1.1893954,96.26683
1.1395882,92.11015
1.048177,92.361984
1.0920516,83.534454
1.1238902,82.23205
1.0713452,78.35457
1.0170362,79.79316
1.0528442,79.016426
0.9976142,80.40263
0.9159061,83.41054
1.0040288,74.79455
0.8357687,72.95789
0.80434406,75.696
0.69108665,70.97516
0.84494805,72.55211
0.57205445,62.951485
0.7253136,63.801693
0.6148987,67.95264
0.7286058,58.0809
0.713357,55.465225
0.61413574,60.20922
0.58617336,55.464607
0.57743526,52.22599
0.5265034,51.781082
0.6179931,51.168243
0.54371953,46.438946
0.5637844,47.426025
0.5553116,47.46036
0.5962896,42.112335
0.4857953,40.0
0.54055315,40.0
0.5077409,48.21928
0.44143477,40.0
0.4678912,40.0
0.43291244,41.85532
0.43594944,40.0
0.31124252,40.0
0.35676834,40.0
0.12311584,40.0
0.2552881,40.0
0.29320303,40.0
0.30483735,41.891186
0.22524036,40.0
0.10175511,44.313633
0.23030587,46.87301
0.16509368,45.42483
0.15638797,45.888332
0.13526164,48.21693
0.06518604,51.123367
0.17756052,55.305573
0.1967751,55.241283
0.20277695,59.100742
0.30512613,63.596878
0.41602567,62.072933
0.44667408,61.006554
0.5127019,71.759026
0.5800039,69.95288
0.62949073,78.07848
0.7054033,79.46766
0.7432453,85.353546
0.9051336,82.7526
0.81479234,89.77342
1.051156,94.22921
0.9504739,95.10712
1.1416028,99.40941
1.0538996,100.10693
1.1838204,106.81605
1.2159414,109.274506
1.3402932,110.48828
1.2998359,112.885895
1.3154951,117.44886
1.3988771,117.65979
1.3602402,118.68603
1.4696771,125.88135
1.463854,126.00476
1.4644122,126.62952
1.5253494,128.10689
1.4204636,131.36513
1.4814336,132.52411
1.463044,133.72964
1.4301658,131.28926
1.4196159,134.11711
1.3160801,135.16565
1.4821022,134.71031
1.4015944,133.55827
1.3541093,136.63713
1.2850273,133.68848
1.2290736,132.66092
1.3501092,132.05391
1.3806413,132.19435
1.2743858,136.83546
1.3807962,131.82605
1.2496873,127.911644
1.1926942,124.952126
1.1242071,122.572075
1.0477341,121.49879
0.92166877,121.379326
0.95519304,124.94868
0.9760126,121.01445
0.99774104,116.709755
1.0361106,117.2806
1.1889098,108.92755
0.89900696,114.71928
0.88393444,106.32582
0.94237566,107.245605
0.9105022,106.61472
0.92986363,109.64328
0.9831771,102.08496
0.86274064,104.56645
0.8582058,99.99579
0.87784743,99.79468
0.8060443,97.548195
0.7803541,94.913185
0.84077823,88.43138
0.7482507,93.76722
0.7488936,92.2765
0.762043,87.52945
0.7556112,88.58753
0.6967172,86.78861
0.73918164,79.961426
0.65198314,80.016
0.6320301,78.060394
0.5455286,78.1949
0.4262696,71.96023
0.4843307,68.703026
0.4515767,73.52243
0.44523823,65.900665
0.36231887,66.37467
0.40456563,62.129784
0.45644584,63.68354
0.49310637,63.06199
0.30090395,57.8032
0.3293575,54.38396
0.31647542,59.80468
0.35752591,52.13053
0.3630385,48.20784
0.4060102,50.113953
0.3266123,49.890987
0.4149783,47.392956
0.35600382,50.011528
0.3023401,47.872597
0.25422242,44.179085
0.27488852,43.821144
0.20636237,40.0
0.17666578,45.452187
0.23895702,40.0
0.13552728,40.0
0.19375423,40.0
0.18649754,40.0
0.0058074994,40.0
0.12595826,40.0
0.09983381,40.0
0.0035944935,40.0
0.056772593,40.0
-0.101127826,41.585205
-0.10990222,43.617214
-0.05491707,42.83528
-0.06714524,46.55917
-0.02770796,49.65067
0.013698465,48.020382
0.024549473,49.552742
0.09325207,53.12156
0.054814488,54.383625
0.0062499074,54.406624
0.19410197,54.91324
0.14319801,60.46007
0.34220013,63.936993
0.32495183,67.72284
0.46846145,67.885735
0.5053234,76.724884
0.6387045,77.19445
0.7039672,80.27855
0.8284132,82.0263
0.863116,87.66197
0.8786558,94.57593
0.9767492,93.77607
1.0856658,98.24848
1.0510106,101.04325
1.1279047,107.7749
1.1959846,105.65529
1.1823473,108.216705
1.2352979,111.60502
1.2033533,117.20649
1.3165556,116.154785
1.3270748,119.69497
1.3780466,120.70403
1.4920609,125.07268
1.5006073,127.38652
1.4829226,129.45525
1.3057675,128.29575
1.4274162,131.60402
1.4758846,133.44554
1.3819835,133.31952
1.4808936,134.79329
1.3931159,131.52838
1.505251,128.62389
1.4384667,137.04875
1.4419563,136.61978
1.3252628,133.86032
1.3602979,129.00761
1.3663661,134.5015
1.3989723,131.30162
1.2835453,131.02798
1.363918,128.93147
1.1924269,125.66422
1.174568,131.92838
1.1532806,128.77596
1.0772285,125.89061
1.1805252,124.5294
1.1401955,120.142975
1.0917244,120.73963
1.20462,117.137856
1.1158588,115.12672
1.1095674,117.188774
1.0608839,113.97676
0.98123306,109.89643
0.9696299,109.58713
1.1041034,109.97642
1.0073318,102.512955
1.0661654,101.625114
1.107621,97.33291
1.092174,101.500275
1.0519834,94.03036
1.0167,96.16978
1.0213616,96.29522
1.007278,96.46177
0.9596579,88.24396
0.8998094,92.54033
0.87628967,87.43301
0.83781534,85.298996
0.8616868,83.23699
0.80193084,82.21624
0.7721922,79.8433
0.73097765,75.62923
0.76756054,74.53287
0.6063986,74.81672
0.71099293,76.56573
0.6939182,68.65867
0.7183192,70.896065
0.5841839,66.904816
0.5455938,64.822136
0.55866396,59.17658
0.5547004,55.9548
0.55613077,54.559605
0.60444343,54.56995
0.5642331,51.480076
0.52682155,55.79354
0.5890385,51.864777
0.4967985,49.130573
0.55473703,49.656902
0.59479374,49.81589
0.64272434,52.192863
0.5388257,43.984257
0.7227486,47.76177
0.5358589,46.22762
0.5820738,43.94533
0.4330131,45.146828
0.57836616,40.0
0.64835376,40.76698
0.37320036,40.0
0.4765311,40.0
0.40702063,40.0
0.41893062,40.0
0.35037833,40.0
0.2933352,40.0
0.25669008,40.0
0.35937896,44.17109
0.30295312,44.490204
0.28449726,45.03523
0.19176385,44.09454
0.12805322,42.97292
0.25136396,47.175007
0.3258646,48.132946
0.337358,54.787502
0.356462,53.122936
0.51343954,55.73511
0.38624254,59.45553
0.5043569,60.38709
0.75444317,64.8321
0.69288075,64.655205
0.8438786,73.99183
0.8216555,74.40283
1.0110124,79.84197
1.0926589,79.3351
1.1965495,81.048225
1.102662,87.88176
1.24058,94.90314
1.3204234,96.77543
1.3067267,92.06368
1.4273801,102.27837
1.5224262,102.74671
1.6117108,104.190674
1.6817915,110.49638
1.6256509,114.11445
1.6241845,115.74929
1.785995,118.348434
1.720615,121.3505
1.7272048,122.04807
1.7191695,126.99489
1.7774106,125.38511
1.7247524,128.40692
1.7491922,128.90935
1.8472071,130.43703
1.8587744,132.13089
1.8852274,130.21709
1.8701926,130.20459
1.7879899,132.15114
1.7137531,132.86545
1.7860593,131.30194
1.7503418,133.20781
1.6658137,136.68088
1.9468634,135.58551
1.774401,128.71738
1.784141,128.73926
1.6024257,130.51218
1.6101171,132.81047
1.6016631,129.01389
1.6581252,122.89234
1.5392408,124.52061
1.4689405,122.56027
1.5642092,120.907
1.5390562,122.19386
1.6199585,119.82272
1.4973941,119.99581
1.4829372,116.04294
1.3977768,113.106384
1.5567313,110.93056
1.4624557,108.53233
1.4584702,109.794014
1.4090568,112.19103
1.562188,104.40771
1.5720094,102.817406
1.3800069,100.97282
1.4367566,96.754295
1.3881254,99.846344
1.4603782,94.0166
1.3252296,98.14013
1.3004404,87.92063
1.3282921,91.1328
1.2876047,91.51177
1.2773124,80.377174
1.298168,86.516365
1.3478814,88.96454
1.3439695,81.836655
1.1214701,80.27363
1.124814,75.389206
1.2403965,73.833855
1.0116888,73.36483
1.1244771,70.960014
1.027543,70.26698
1.137595,68.03711
0.9726868,67.21384
0.92336625,65.47348
0.8563391,66.40857
0.9343582,60.976963
0.9625326,59.853756
0.8880795,51.30231
0.9138436,52.59054
0.87218523,54.497707
0.9447189,50.33517
0.93883514,48.992413
0.8467597,50.986115
1.0427705,47.028667
0.9895416,44.004555
0.923835,45.019253
0.96890575,44.84945
0.8469264,40.153976
0.88849974,40.0
0.86342716,40.0
0.8689289,40.0
0.66872334,40.0
0.7255213,42.548206
0.7902748,40.0
0.6800228,41.322998
0.64046067,42.55261
0.60035074,40.22141
0.5861949,40.0
0.73057705,40.0
0.5958105,40.0
0.50625074,40.0
0.451152,44.055027
0.5096193,47.213554
0.632622,46.68502
0.45401588,50.318485
0.68677914,51.060093
0.5757815,50.932236
0.72588193,52.69823
0.6581879,60.350063
0.76685315,52.19551
0.82246494,57.92536
0.8879589,62.405167
1.0468525,70.13466
1.110829,71.91613
1.0628794,74.53672
1.06448,75.94317
1.2941833,82.56178
1.2599081,84.8491
1.4650922,88.10147
1.5915649,88.44288
1.5020105,98.60309
1.599034,98.82655
1.6052918,99.57272
1.8428631,109.983376
1.7731838,107.86572
1.7789778,111.671616
1.9209142,111.261795
1.8009642,113.47337
1.9046378,116.13887
1.9688226,119.00048
1.9524575,124.739204
1.8501717,122.45451
1.9130044,126.15431
1.8814309,128.8762
1.9639049,129.23604
2.1435115,131.63365
1.8608372,131.92839
1.8575591,129.65874
1.9425576,130.21716
1.9107603,132.61868
1.9947652,136.48994
2.0458775,135.63927
1.9064372,130.74794
1.911451,135.55406
1.7016033,134.39014
1.7544672,131.97794
1.7645489,132.02025
1.8156947,130.70007
1.7990829,127.349106
1.6797174,130.62537
1.65736,123.83112
1.6510831,122.45916
1.6299125,125.87139
1.7137803,123.132484
1.6121264,120.260956
1.5250239,120.41277
1.6336635,116.949745
1.552768,116.2929
1.5172706,118.10009
1.6229055,111.20677
1.4079738,112.19251
1.4934471,111.898705
1.4547496,103.149284
1.4367803,108.3826
1.4565907,103.83145
1.4085435,99.17819
1.3293202,99.30249
1.3965212,98.71744
1.3548815,94.14294
1.3794124,100.28609
1.342747,92.58117
1.309087,90.88002
1.2690868,85.44456
1.1855801,86.00944
1.2930653,86.11902
1.1540061,82.313805
1.1823916,81.7881
1.0206228,74.63647
0.9280573,80.638794
1.0398816,73.071915
1.0269675,70.46685
0.95258844,71.23242
0.9960256,72.6952
0.87161607,67.03642
0.921838,65.1295
0.7657039,64.83032
0.9150541,63.106373
0.751365,62.337288
0.8190097,57.112198
0.77736086,56.05702
0.6972049,55.56164
0.8180486,49.758373
0.79594135,49.600937
0.75015485,54.442947
0.73840725,46.561134
0.7089662,42.61227
0.8913346,43.41145
0.75711864,44.432938
0.8195926,42.03083
0.68005055,40.0
0.7778059,43.699177
0.69550544,40.164505
0.6683231,43.570766
0.6490075,40.0
0.5617212,40.0
0.58140266,40.0
0.497898,40.0
0.45628494,40.0
0.37039927,40.0
0.41486362,40.0
0.3699214,41.79277
0.45691198,40.0
0.4691285,40.0
0.29744393,43.652946
0.33341962,43.61183
0.3193084,42.87244
0.4044339,41.87998
0.3005659,48.221954
0.32928658,53.988438
0.39894283,56.315735
0.6068893,60.53264
0.5010664,64.135086
0.58693355,63.986862
0.64157444,63.431156
0.7915206,71.22322
0.8620069,71.099495
0.9449703,73.84875
0.97975296,75.91065
1.0090207,82.97554
0.9987525,82.564545
0.9769034,88.204704
1.2869645,88.57483
1.1654234,93.028656
1.2250512,94.15089
1.3119463,101.749985
1.3565247,109.15069
1.3767114,108.47907
1.5254196,110.739296
1.5763988,114.49168
1.5106758,116.57549
1.5344713,120.80633
1.5405269,114.403366
1.5704051,126.0264
1.6265523,122.525635
1.5904547,126.06029
1.5939636,128.07869
1.6407417,129.3966
1.6581385,126.720726
1.6287613,131.49248
1.5868165,132.06224
1.6146874,128.46988
1.6587132,134.93355
1.5607252,135.31158
1.5507798,133.81123
1.5032617,130.54747
1.4827341,135.5895
1.4712647,130.56299
1.4263581,132.95862
1.4214822,132.43861
1.4443468,126.81105
1.3188857,130.658
1.26704,128.39796
1.3599246,127.6012
1.3555114,127.20311
1.1858358,129.87787
1.2291905,123.54966
1.2274389,117.15163
1.1282499,116.31398
1.157779,118.6857
1.1393704,117.83677
1.2109131,114.85032
1.0330348,112.56168
1.0971663,110.80687
1.0494874,105.14839
1.0335997,106.54121
1.0547333,103.56164
1.1185399,99.04791
1.092355,105.99703
1.0934435,99.22252
1.0743515,97.09928
1.0362071,96.59688
0.9809483,95.70951
0.9102032,91.110146
0.91046304,88.88246
1.0193934,86.356575
0.94363415,86.18244
0.85160196,86.90714
0.7643807,85.93588
0.72561723,81.325386
0.72158843,79.45571
0.7163413,79.33753
0.6390262,71.70288
0.6115867,73.0733
0.6271818,69.51392
0.49059236,69.482704
0.47564453,61.39009
0.379156,65.76906
0.48967972,65.49783
0.44572738,61.728523
0.44404307,58.641365
0.39660206,60.398396
0.42755556,55.707943
0.38217613,57.12993
0.30961758,53.710808
0.37962392,53.109913
0.48006755,51.02167
0.4056361,50.65621
0.4221188,42.589504
0.30479053,51.782784
0.42439142,42.707092
0.42496023,41.54362
0.37934467,40.0
0.38204682,40.0
0.26525712,41.48458
0.27154818,40.791027
0.20479953,40.0
0.18193631,40.107464
0.20804425,40.0
0.21296899,40.0
0.033008892,40.0
0.040006295,40.0
0.016088447,42.558067
0.057935465,40.0
-0.053255312,40.0
-0.030686352,40.0
-0.10714569,42.954422
-0.010356703,42.490765
-0.006712729,41.78859
-0.09518757,41.383633
0.05051445,50.246075
0.07874135,53.841244
0.11399464,53.90073
0.15783481,60.81906
0.22251752,60.73881
0.28977057,63.97158
0.3280471,68.604004
0.25800672,65.12292
0.4707696,67.36418
0.50226027,74.32595
0.539634,76.917786
0.67620033,80.91382
0.65985477,88.28156
0.87936,87.60093
0.8509779,94.612206
0.9594437,94.88702
1.0020841,100.70832
1.0385407,98.670044
1.1483378,104.33725
1.1918685,110.66719
1.1987022,113.56024
1.2205049,117.89709
1.2809222,118.07172
1.2104264,115.36343
1.2564785,119.397514
1.3705698,124.88465
1.3019177,128.0831
1.365779,124.05952
1.3431661,130.23541
1.265649,127.95471
1.3707087,128.56142
1.4697995,135.0722
1.3956975,139.51393
1.3806087,131.35545
1.3565474,133.37296
1.3295519,136.41022
1.3577685,132.54427
1.2430679,132.03143
1.2364606,135.97176
1.1860106,131.81674
1.2315305,128.74475
1.233027,134.16742
1.1559286,125.99252
1.3342353,128.70705
1.2025567,122.85287
1.063226,128.32207
1.1481256,125.737434
1.2082037,123.26634
1.0639578,120.508644
1.0865047,121.88699
1.0571315,119.15784
0.980943,116.4649
0.99552816,118.05463
1.0420157,117.0716
0.94919825,112.66097
0.96282774,110.90521
0.892517,107.127686
0.94995314,105.38191
0.91172796,102.852554
0.8427456,100.99989
0.9264356,99.22253
0.898615,100.817894
0.9454196,94.66088
0.886108,98.57338
0.90197307,100.327515
0.9018177,91.03863
0.8817093,89.3418
0.8218768,87.59163
0.84526783,86.870895
0.7150355,84.857994
0.72929454,84.49083
0.62867236,79.20878
0.6305145,81.61161
0.6575515,79.06839
0.60419357,78.638504
0.614783,73.58748
0.73062927,70.90403
0.49810424,69.11634
0.44883123,72.30963
0.35725087,66.12745
0.41907504,62.421074
0.51271707,64.21533
0.43214902,59.857075
0.31229883,58.57377
0.5202051,57.857723
0.33687752,56.76627
0.35242444,52.133045
0.4280248,51.2079
0.52855086,50.433434
0.4388596,48.79461
0.3775672,48.861847
0.42948893,48.013157
0.340389,44.33177
0.32132927,43.502483
0.4338196,40.0
0.3196698,42.55072
0.28149214,40.0
0.34650853,43.501263
0.22232465,40.0
0.24631311,40.0
0.30015194,40.0
0.20577441,40.0
0.13492958,40.0
0.12729155,40.0
0.088958584,40.0
0.15326373,40.27565
0.12353784,40.0
0.20085908,40.0
0.04116067,49.41852
0.06580378,42.095764
-0.034327734,48.318645
0.11916609,48.989616
0.16503714,46.036526
0.2990672,50.242012
0.23665775,53.3693
0.27165943,55.242813
0.29386002,56.956482
0.4983112,60.365047
0.41383943,66.051056
0.61153346,65.941765
0.50857526,71.52916
0.7329967,72.90254
0.8402093,80.008
0.8905054,82.9439
0.88204944,86.70044
1.0010849,90.453224
1.1297244,94.3965
1.0644705,98.10711
1.2082006,97.957146
1.2844279,100.08139
1.2653878,105.67878
1.3814536,106.10603
1.352647,108.58152
1.5166199,112.82883
1.3552483,120.161606
1.4878017,118.57181
1.5782822,123.3635
1.5372224,122.14765
1.625022,127.022675
1.5217116,124.20738
1.6435289,128.86177
1.6698121,127.51378
1.5812426,131.55019
1.5825539,131.43742
1.6954342,136.32602
1.6184986,131.75809
1.5487907,139.18332
1.6881083,136.13766
1.502258,134.72447
1.5140058,132.25333
1.6200331,136.93532
1.6232193,132.22849
1.6001234,133.90591
1.4676896,131.14519
1.4257426,131.61482
1.5920339,126.61467
1.4965947,126.792915
1.466651,125.33855
1.4857908,127.92434
1.4627178,126.039444
1.3956114,126.69561
1.387371,117.69586
1.332848,119.69587
1.2349445,116.593414
1.3705949,119.4772
1.3513203,112.884
1.3016785,115.0295
1.3862901,108.07019
1.185959,111.71192
1.1973145,107.810036
1.3079915,104.102684
1.2865605,105.416504
1.3341861,98.643585
1.1933796,101.89625
1.1128881,97.12812
1.176236,93.560425
1.3074043,95.93242
1.2483858,90.26748
1.2082269,88.73483
1.3370167,83.91813
1.1974696,84.27473
1.0801667,83.19312
0.9748264,80.602936
1.0697758,78.874405
0.9415494,78.87175
1.0348061,74.19489
0.9919129,75.50169
0.91642654,72.19375
0.891115,74.23134
0.8625984,67.67313
0.87227273,70.65208
0.8303052,66.811485
0.7581256,63.90578
0.8345323,62.207386
0.67673796,62.203262
0.76718795,55.15026
0.758775,57.518364
0.7754875,55.12504
0.83142024,58.20034
0.73323566,53.4875
0.8320811,53.398632
0.7301546,50.2164
0.82924265,40.39707
0.81341696,50.246506
0.7751731,48.056328
0.7540843,46.27353
0.8153859,43.785343
0.7052499,40.0
0.76555765,40.0
0.7628484,40.0
0.7202203,40.0
0.6891493,40.0
0.6258426,40.0
0.71252304,40.0
0.5354353,40.0
0.49546048,40.0
0.42294118,40.0
0.55982524,40.0
0.57029754,40.0
0.5030846,41.49875
0.5188321,45.759106
0.38994882,40.35008
0.4718794,48.519463
0.4476453,45.417313
0.5214424,49.66903
0.6344875,56.876938
0.62810016,53.06356
0.59498763,60.13221
0.6909034,60.691517
0.84989715,62.978077
0.74483734,65.688484
0.9142493,66.979
1.0340149,70.99691
1.0961533,73.63668
1.2059404,77.67522
1.1644,86.31611
1.340635,87.30958
1.2612278,88.54075
1.4276006,92.11247
1.4530877,99.65947
1.5887396,101.049416
1.5839349,99.73737
1.6162897,105.81224
1.6869819,108.71568
1.7390203,109.25895
1.7559448,109.01807
1.9393566,118.4691
1.8977104,122.164276
1.7440332,122.165764
1.8105078,123.26622
1.9606087,125.38541
1.8252612,127.119316
2.0028603,127.584076
1.9965572,132.92825
1.8892801,134.7733
1.9383463,133.62155
1.973719,133.56865
1.9693422,133.47734
1.8633167,139.2188
1.9317619,136.70445
1.9543515,135.17563
1.9842826,134.06598
1.9946687,138.94136
1.96219,132.571
1.759071,132.31268
1.7347586,129.40079
1.7814994,129.15076
1.7589303,132.44894
1.7558918,130.26659
1.6410224,128.83055
1.6771566,126.32672
1.6936022,127.912865
1.6857973,125.545944
1.5753682,123.538574
1.5252773,120.27166
1.4896108,116.267975
1.5466734,114.082245
1.6674956,116.08626
1.3972863,115.024445
1.5848087,110.58381
1.4840229,105.59593
1.4708692,111.814575
1.5054823,100.44868
1.5320059,97.45253
1.4268556,104.07231
1.366576,100.30931
1.5069696,96.100174
1.4898639,91.70189
1.4791335,90.347206
1.4485838,91.0552
1.4644982,94.82088
1.2874993,84.011024
1.357032,86.487144
1.2541071,86.514595
1.285524,88.47271
1.312976,81.50337
1.1696882,78.45125
1.2667279,75.8093
1.2348562,72.6258
1.150776,77.81328
1.0059633,71.264206
1.0823474,69.47517
1.0508256,69.04009
1.0514824,65.3914
0.9502641,61.445415
0.9488217,62.83764
1.0222379,57.480583
0.92009926,55.678043
0.90154946,56.08521
0.94128984,59.30892
0.9358617,55.62697
0.8033286,54.259144
0.88374895,48.01076
0.87432057,44.43311
0.8760038,48.68511
0.94718635,47.073765
0.8530447,44.281357
0.9166653,41.707592
0.8579009,42.727825
0.8952785,40.41115
0.7999941,42.068043
0.828252,40.0
0.7769812,40.0
0.7197218,40.0
0.7613932,40.0
0.5989193,40.0
0.6989319,40.0
0.66679335,41.33986
0.65180457,40.0
0.46224156,40.02032
0.57015246,44.556477
0.41404694,40.97869
0.4537068,40.427223
0.56679964,42.53533
0.47139484,50.91552
0.51441544,50.52172
0.49043563,50.26374
0.60188484,55.822033
0.56988776,53.54938
0.7018811,60.935165
0.60799664,60.308064
0.7305742,63.32262
0.70671564,62.822258
0.8533348,66.55454
0.9640325,74.62271
1.0266826,75.25686
1.062825,77.618286
1.1658098,85.13544
1.2202079,89.30381
1.2693325,91.38936
1.3638043,93.96759
1.4859369,99.29095
1.5410601,96.27568
1.508683,101.43161
1.6868458,106.72844
1.6082325,111.61828
1.6962976,112.1901
1.7606757,117.419334
1.6159338,115.30506
1.7475195,117.40288
1.7806169,117.36199
1.7676754,121.94591
1.8521413,130.07866
1.8402979,130.615
1.8956678,131.93465
1.9275634,133.26836
1.855218,137.69579
1.7162374,135.74113
1.8948686,131.93681
1.7978367,132.95485
1.8499168,133.26875
1.7787666,137.9685
1.6184703,132.02779
1.6435744,132.90941
1.7069457,134.9048
1.6832564,134.36143
1.6281273,137.10242
1.6540391,129.87804
1.4927429,133.45534
1.566616,128.34952
1.6401474,129.12997
1.4560263,128.06796
1.5395132,124.17809
1.4312936,123.046684
1.4153641,124.36094
1.4534707,123.13213
1.4070663,118.10431
1.4074925,118.085625
1.3330196,112.99512
1.3626487,112.19466
1.381708,109.22572
1.3430395,107.95101
1.31932,110.407524
1.3124989,109.549416
1.2513336,106.25635
1.2031877,100.703445
1.2726754,100.66557
1.1979316,100.4199
1.1297878,98.00064
1.0772811,96.7408
1.002909,89.07766
1.0970285,88.998795
1.1160434,87.39003
1.0532546,87.34061
1.1489697,86.130905
1.0513812,83.0372
0.9840169,80.7003
0.89732426,82.290794
0.87476915,79.8916
0.8296053,73.26167
0.7476339,74.41571
0.90000725,71.83533
0.7591112,71.60083
0.5956368,70.61088
0.6865752,67.59345
0.6938546,69.33521
0.64061916,63.534607
0.6334802,64.140854
0.6054478,58.918987
0.6506578,57.665005
0.5643228,54.70665
0.520362,53.065315
0.53848356,50.93594
0.5620522,51.0146
0.6246388,49.276745
0.5999833,42.06124
0.506001,46.478966
0.5822621,45.15268
0.4708961,44.004353
0.5598079,41.22416
0.47376972,40.0
0.5034587,40.56497
0.47803256,40.0
0.41371813,40.0
0.35776094,42.243168
0.30075482,40.0
0.17275509,40.0
0.20572166,40.0
0.24170624,40.0
0.19062984,40.0
0.18562244,40.0
0.2038122,40.0
0.13966687,44.76171
0.07548579,43.567474
0.09441758,40.0
0.018367609,43.603043
0.10168503,43.745884
0.17734984,48.70315
0.2660727,51.855614
0.15376453,50.18604
0.11007754,54.482918
0.26134306,55.72158
0.31668174,59.76784
0.3896818,64.56408
0.43769455,66.11373
0.48104846,71.11688
0.54332155,74.343346
0.5767581,71.29939
0.71099037,80.31867
0.7252593,78.41474
0.9546001,84.758644
0.8391881,87.78371
0.9138663,91.36014
0.9526545,100.044586
1.0845114,99.534966
1.2057686,102.833466
1.2483228,106.6483
1.1845375,107.890656
1.2656057,112.1962
1.3178123,112.381905
1.3306229,119.44438
1.4170517,119.432335
1.4517894,121.17798
1.3707215,124.53381
1.4273243,126.39283
1.4732249,126.0062
1.4559178,127.31696
1.3447732,129.82428
1.2795818,130.04044
1.4711918,133.07468
1.3164841,130.96396
1.4393425,131.77046
1.3155487,132.79666
1.3224295,132.42885
1.3460252,137.87057
1.3794396,135.46257
1.3094708,134.8814
1.2907896,131.95573
1.2722361,131.70697
1.3698918,130.11269
1.2395757,127.76644
1.1894637,124.680786
1.127195,125.444084
1.259774,126.54335
1.0633036,130.50333
1.050555,123.3758
1.1067545,126.575195
0.9768554,118.80276
1.0600747,118.97188
0.9844345,119.23267
0.91171795,116.43224
0.9472628,112.547
0.8796614,109.47961
0.9608179,105.30963
0.9350083,110.280556
0.8975008,107.51581
0.91451484,103.72262
0.815615,106.609955
0.8952208,102.83902
0.956565,102.48745
0.7523292,93.84765
0.85312986,96.28035
0.9127279,93.29147
0.89697987,85.75778
0.89576304,89.34985
0.7536711,92.14171
0.7677859,86.82527
0.8024127,83.471115
0.68611133,82.648895
0.5456102,80.06593
0.66286033,81.67387
0.691326,77.23365
0.540099,74.53114
0.5794225,77.23167
0.5378878,68.52511
0.44107988,69.308044
0.34365374,67.93323
0.45886183,65.11506
0.34012547,72.86674
0.40252927,62.451595
0.35327938,58.711384
0.46012214,58.626038
0.27845842,57.52006
0.32823738,54.779846
0.3811808,52.375744
0.3541493,51.081257
0.22137558,51.007214
0.30812892,49.001842
0.4744952,43.688774
0.25503394,42.25242
0.3050442,46.136707
0.43481314,43.322884
0.2965755,40.0
0.21035463,40.0
0.2296143,40.0
0.26382926,42.093662
0.18883498,40.0
0.1048029,40.0
0.06643411,40.0
0.17003888,40.0
0.03175193,40.0
-0.018537235,40.294304
0.029436128,40.0
0.053410374,42.129898
-0.077644356,40.0
-0.06786078,41.94794
0.03284869,45.684624
-0.058038756,46.068943
0.049606584,43.997295
-0.07492193,46.326294
0.09185176,50.271343
0.123165436,49.670033
0.12125774,56.26005
0.099684276,59.81031
0.21645501,59.35572
0.26865074,61.2165
0.3078408,71.28252
0.38527006,69.42081
0.5798602,73.439735
0.608533,71.54612
0.58995503,78.61851
0.90292007,84.14143
0.8236049,84.50456
0.86905056,88.1527
1.0160145,96.834305
1.0527695,94.53742
1.1414058,94.28683
1.0820243,104.28838
1.2394111,103.2699
1.1847366,103.87927
1.2501698,111.09592
1.3608004,116.515656
1.2893907,116.89438
1.3465822,119.790924
1.380705,122.36511
1.3984029,118.89852
1.3403623,126.4429
1.4488691,124.94391
1.3923576,128.99812
1.4931653,125.600975
1.3949513,134.57552
1.452322,132.61174
1.3990908,137.95126
1.4652916,135.11494
1.5068069,133.83882
1.3921397,132.34506
1.3959641,135.94995
1.4147707,134.53351
1.3566629,135.23753
1.4080597,127.982895
1.3332236,134.10513
1.448224,132.60321
1.4190803,129.95216
1.1934994,130.27818
1.2364796,128.77444
1.2648488,128.25943
1.160122,124.03305
1.1184639,123.441376
1.1531976,118.607376
1.1150883,120.29393
1.1716392,118.09812
1.2507808,115.275536
1.1297884,116.77115
1.2241797,111.66596
1.0216585,109.07871
1.1227639,113.15104
0.9522109,105.85056
1.0961219,107.665726
0.96905065,104.10377
1.0917975,101.05128
1.0723922,100.36327
1.0662551,99.210175
0.98900014,93.87486
1.0665565,96.60416
1.0460027,93.49172
1.0007833,89.71377
0.91712433,94.20665
0.94853884,88.893906
0.960717,88.97437
1.036843,88.42486
0.9069802,79.3537
0.85676074,76.07211
0.8465401,76.03153
0.75702107,80.03036
0.8157549,71.73411
0.63648283,73.498924
0.6725576,71.52582
0.64087135,66.82393
0.67409724,65.131516
0.6361998,67.409386
0.62868124,61.69176
0.5972593,58.24087
0.60638726,58.389717
0.48699805,58.91119
0.64868736,55.225826
0.64507896,50.94812
0.54303443,50.29852
0.6178947,47.36014
0.61069244,48.77164
0.55851024,49.447727
0.6257412,45.197342
0.67151344,46.266773
0.63052803,48.9829
0.60155976,43.524952
0.56381655,40.0
0.5654117,42.55072
0.52317935,40.0
0.60218877,40.0
0.46477744,40.815002
0.52619225,40.0
0.5470178,40.0
0.42309272,40.0
0.41567138,40.0
0.35367134,40.0
0.3653129,43.15125
0.36416295,40.0
0.31999353,41.623142
0.32613906,40.0
0.2628644,42.05389
0.19468091,46.372185
0.33038694,45.09499
0.33822852,55.18983
0.36642334,48.877617
0.40734237,54.68723
0.45489967,59.30334
0.4818399,61.834095
0.57132465,60.384277
0.6221529,66.079994
0.79531103,64.92578
0.6786873,65.10878
0.82716745,72.58274
0.95228505,73.211754
0.9812869,79.390015
1.0873991,81.9322
1.0988954,86.60339
1.2531432,91.05862
1.3927994,90.16346
1.2933929,92.18716
1.3731421,97.334236
1.570792,103.25011
1.4744545,103.240585
1.5826266,108.79857
1.6855651,109.67915
1.7326037,113.56678
1.6519492,115.5679
1.7092017,120.88546
1.707497,120.20322
1.7698303,121.589775
1.6573998,126.411964
1.8914545,129.3123
1.8201178,133.02055
1.8623297,129.49828
1.9044621,131.02591
1.7927426,132.83153
1.8362359,133.91307
1.8205323,131.12613
1.6899847,134.15436
1.8045304,127.05763
1.8921363,137.63742
1.785121,132.4494
1.6635659,135.78069
1.6841567,135.47496
1.6671052,130.5343
1.7485539,130.13301
1.7397432,129.70473
1.7041905,126.81233
1.6401743,129.95802
1.5752909,126.75487
1.5564175,120.71484
1.6997535,121.213234
1.7112697,123.00148
1.5973811,115.42346
1.5091076,116.676025
1.5132978,115.12996
1.5144386,114.143776
1.4774835,117.812294
1.4702805,111.133156
1.4277236,111.32327
1.4236276,111.60776
1.4450513,102.49195
1.4588238,105.91535
1.3906697,105.89108
1.4259121,104.55662
1.3589791,102.97502
1.5110042,99.41699
1.3652955,91.61283
1.5029957,94.414345
1.4166081,93.311356
1.338542,91.45586
1.3400623,90.980446
1.3091142,86.22695
1.2593851,84.2658
1.2539026,82.34583
1.1832817,82.69877
1.2719573,78.95953
1.0528083,73.889824
1.1853092,75.38162
1.023181,75.57594
1.0720258,72.59558
0.97437525,68.20794
1.0285107,63.97726
0.9011824,69.838104
0.9202892,65.15479
0.9814948,59.53583
1.0072687,60.57102
0.8888201,58.433613
0.87389106,55.015133
0.9233998,53.57364
0.7959648,53.04142
0.90935886,49.868904
0.9157769,45.09609
0.85346967,49.87668
0.9773445,51.81691
0.9598898,46.765434
0.80140716,45.962505
0.8493384,43.763462
0.9371635,40.0
0.894844,40.0
0.8968874,40.0
0.8341277,40.0
0.8513352,41.674847
0.79398215,40.0
0.70643204,40.0
0.7192234,40.0
0.6588775,40.0
0.65257406,40.73946
0.6723805,40.0
0.5222513,40.0
0.48109978,40.0
0.5691609,40.0
0.66094464,44.16054
0.5020659,43.47348
0.63253695,50.31283
0.6293206,52.654667
0.52440655,49.109543
0.64460677,54.15487
0.6115399,51.766144
0.7091066,57.4283
0.7871054,66.32112
0.86439955,66.37814
0.9039995,68.73065
0.8101984,70.206055
1.0168962,71.22026
1.1316661,80.86076
1.1707237,79.82265
1.4029926,87.786606
1.3358474,86.0683
1.4954569,88.53982
1.5327991,90.17755
1.5233268,99.03588
1.5951414,99.61696
1.7108265,99.624214
1.5972806,109.694725
1.7298988,106.470215
1.7021164,113.85489
1.9107326,112.580246
1.882139,117.411316
1.9156462,117.59403
1.7916028,125.074425
1.8996581,124.34618
1.9902161,122.6408
1.8321351,128.93869
1.938144,129.72389
1.9540055,128.2717
1.9537859,130.65172
2.0064948,133.46222
1.8904057,137.47104
1.9111329,136.91885
1.9456382,137.25674
1.9230043,135.7167
1.748398,130.81038
1.8085597,134.14203
1.9515529,133.51634
1.7952403,128.13593
1.6392151,135.04851
1.7228689,132.9185
1.7078979,130.50392
1.6882923,133.06934
1.7467108,125.34961
1.6315069,127.03409
1.6133592,126.07908
1.5702642,131.56754
1.6067687,121.77716
1.5213037,119.44451
1.6327492,122.92252
1.5116297,115.48845
1.416239,115.41841
1.4569619,114.44498
1.4877738,109.32925
1.4851807,113.36088
1.4478227,109.297134
1.4068311,104.79645
1.369179,105.365166
1.5020027,103.176895
1.3547082,101.78906
1.3147207,100.6714
1.3993338,96.12358
1.2743088,93.745804
1.3101364,90.80567
1.3059787,88.343056
1.3152827,91.17785
1.202322,85.63747
1.1892469,84.03725
1.217429,85.565346
1.3042153,86.1682
1.208642,78.50423
1.1566322,81.32315
1.0775564,74.505325
1.0927219,69.535995
0.88967824,72.2163
0.93325675,70.807045
0.9293277,67.15134
0.8057526,70.46671
1.0047127,63.53348
0.8515244,60.101974
0.8982474,63.815796
0.7909838,56.959034
0.7707066,59.565125
0.83000237,55.472656
0.8207915,53.452057
0.790598,51.179157
0.6853385,52.556038
0.777851,52.51257
0.77219963,48.119816
0.76114106,45.685787
0.6463867,43.92998
0.6960065,43.14691
0.626333,42.76773
0.73558754,42.933704
0.6453505,41.599293
0.677429,40.0
0.61157066,40.0
0.61167735,40.0
0.58211476,40.0
0.4967248,40.0
0.41325012,40.0
0.5410643,40.066624
0.36571932,40.203857
0.36235747,40.0
0.30172974,45.48284
0.35210776,40.0
0.36847886,42.674828
0.31294337,46.165024
0.3727913,40.943
0.18178321,48.67388
0.33207035,53.19591
0.36886615,51.439777
0.40447313,52.785778
0.49010116,57.0765
0.6066227,55.459206
0.5594867,56.71252
0.63127774,64.18776
0.53926146,67.69446
0.68441945,67.66615
0.6990569,74.73261
0.8389944,75.13707
1.010597,78.6308
0.9502772,84.46734
1.1264673,84.13808
0.99402946,86.78976
1.3051759,88.85103
1.2986946,97.173256
1.3004564,97.43233
1.3941066,101.164116
1.3628703,108.454124
1.4830505,113.865906
1.5372424,111.745964
1.4704144,116.06971
1.5730278,120.186935
1.5299436,115.29158
1.5251778,122.664276
1.4922976,125.41722
1.642435,126.68316
1.5679132,130.29845
1.5616881,129.7178
1.6948895,126.41476
1.5341166,133.29768
1.5823109,134.74432
1.5727223,135.4534
1.5916951,137.92662
1.5554816,139.29533
1.5543889,134.16408
1.3885931,133.87192
1.462532,135.27979
1.397545,134.48064
1.4675629,129.43295
1.4818043,128.82007
1.4093555,136.50526
1.4222399,132.21333
1.3940972,128.12215
1.3642002,127.21789
1.2176418,127.31143
1.3109705,121.08462
1.2065136,126.10579
1.266969,115.92964
1.1717848,116.694176
1.248461,119.11884
1.1345179,117.29039
1.2190318,110.726746
1.0568382,111.77799
1.1840823,113.348564
0.9255001,106.47507
1.000738,106.507034
1.0582722,110.762726
0.9215252,102.88928
1.0589879,99.40492
0.96308583,99.37806
1.0243208,99.53173
0.9954585,96.19713
1.0651526,97.784744
0.9895062,94.82283
0.9286247,90.77837
0.9917966,93.070694
0.85418034,86.39371
0.7328353,87.74117
0.7147536,83.77654
0.7598933,79.337944
0.71233356,80.46771
0.740909,73.07735
0.59427494,74.10205
0.6006905,73.202034
0.64512026,75.786316
0.46810856,74.26117
0.5416008,70.04892
0.4424358,66.43475
0.43626353,67.768974
0.51254755,60.96575
0.4894878,57.3173
0.4702233,56.873024
0.44001895,57.089355
0.41488522,57.684467
0.35273254,53.100666
0.40262267,58.847435
0.29962936,52.92443
0.3764976,50.260216
0.43640736,49.998337
0.35861638,45.529217
0.27730998,47.164978
0.39283162,40.0
0.19447686,43.626194
0.30874455,41.524715
0.36815012,42.263493
0.2726392,43.08497
0.1710446,40.0
0.20068683,40.0
0.1790444,40.0
0.06355122,40.0
0.03150939,40.0
0.06218032,40.0
0.07283159,40.0
0.088011034,41.33483
-0.057244517,40.0
0.091734245,40.0
0.016203616,47.040016
-0.009518061,42.87755
0.04493568,46.06426
-0.106439255,43.836956
-0.0055584772,48.277267
-0.050369434,47.93176
0.11176107,56.130955
0.12970415,54.979465
0.05972129,57.801155
0.23012742,58.911213
0.3563317,65.84573
0.38976792,64.79445
0.28208643,68.45006
0.49387053,77.79214
0.51951534,78.498955
0.6455918,79.9554
0.7326424,82.04594
0.7749008,84.983574
0.82120645,88.210106
0.81763875,94.641685
0.97011936,97.43099
0.9353634,98.1999
1.0502865,104.28262
1.1519161,108.36287
1.2501326,109.78024
1.2037553,112.27685
1.3717703,116.60529
1.2731563,117.21116
1.2811418,119.55135
1.3036389,122.863976
1.3064595,124.72647
1.3813245,124.31652
1.3700801,126.24706
1.3852978,131.86375
1.4439484,130.54437
1.3028209,133.10078
1.3208901,131.74188
1.331152,134.1894
1.3577237,130.50754
1.4133245,132.56113
1.2857226,135.07762
1.3219453,137.4633
1.3203307,135.77101
1.3266602,135.44426
1.287887,133.57733
1.1767122,129.53883
1.1791415,132.19461
1.1814419,132.46307
1.1932353,129.48409
1.1420288,127.09911
1.1546577,128.95325
1.0890235,125.175064
1.0946586,120.926
1.0789733,125.42294
0.96437186,124.346344
1.0533425,115.78688
1.0034492,117.29552
0.92910403,113.13569
1.0195788,112.96055
0.97385156,111.771385
0.9268492,111.91839
0.96160066,108.05239
1.0204703,104.8905
0.9629834,107.27008
0.966662,99.628815
1.0208981,95.23589
0.81343955,98.5711
0.98030305,93.80838
0.81250143,95.04717
0.9010233,95.38662
0.9945257,89.15212
0.7635574,88.30226
0.8069598,92.085556
0.7717242,84.42352
0.73836625,82.3997
0.6408625,83.06927
0.8307422,76.78322
0.6881522,73.56846
0.6444787,75.39306
0.60818416,74.87345
0.44920963,71.073944
0.41716853,73.7141
0.4756174,72.159386
0.38226724,68.7784
0.48994446,61.111626
0.48269343,63.06553
0.4511206,61.92067
0.4550653,57.181854
0.42839,55.94619
0.42715237,60.81987
0.4103481,51.782017
0.54468054,49.93034
0.40180045,51.41221
0.32283708,54.02359
0.4584798,48.1962
0.31275728,44.910088
0.40394643,45.964226
0.4015477,43.038506
0.3782055,40.0
0.40943685,40.32247
0.40803126,40.0
0.40192953,42.374794
0.46726486,41.605083
0.5015038,40.0
0.28605643,40.0
0.21959019,40.0
0.1690714,40.0
0.21733458,40.0
0.07731996,40.0
0.09589999,45.33557
0.07230495,42.399944
0.2684324,41.208252
0.15556973,40.0
0.047439884,42.525562
0.057887435,46.788548
0.12919275,52.16197
0.1734943,45.88429
0.14935927,47.63705
0.14798573,54.803257
0.26368108,54.517788
0.29980177,60.73904
0.295441,57.56533
0.39798597,65.3096
0.60226786,65.58091
0.64750564,70.37086
0.5879173,80.12187
0.6884508,78.6601
0.82205904,76.52108
1.0119425,87.36156
1.0304632,90.44567
1.026816,87.8674
1.1395391,93.6586
1.2362578,96.81906
1.334035,98.11557
1.3303326,106.7674
1.4051119,101.84213
1.4381067,111.28381
1.5366392,111.60463
1.3909924,115.27581
1.5371188,118.71324
1.5712522,119.307045
1.5870227,120.89429
1.6487821,126.64888
1.7429578,129.78828
1.6288371,128.72708
1.6320585,128.6038
1.7407106,128.16182
1.6055111,136.967
1.6597188,132.01205
1.6080993,135.95659
1.6783543,132.49385
1.602817,137.34152
1.6337823,136.122
1.7280551,132.57863
1.56822,132.33623
1.6277122,132.43199
1.545246,134.83055
1.6370779,133.22398
1.4595575,131.84741
1.5785583,128.00082
1.556047,132.96558
1.5621829,129.07133
1.3722885,125.39431
1.4243503,127.3951
1.4021826,123.13584
1.4517165,116.41956
1.3739153,122.2997
1.3372251,116.18719
1.4632618,114.022964
1.3419049,117.725555
1.359074,113.37989
1.4035567,114.0325
1.2716552,106.17779
1.2990143,109.35575
1.3246553,102.69392
1.3047748,103.82439
1.2476557,101.79453
1.2293342,103.18634
1.253132,97.713715
1.2749493,92.19365
1.2010596,92.628136
1.2670308,95.211685
1.241999,92.86157
1.3005092,96.34868
1.2135752,87.87853
1.1270261,85.432144
1.1072979,88.437614
1.1033231,84.1912
1.0691665,79.61064
1.0352625,82.4886
1.0227041,77.646614
1.0504293,78.30624
0.87165385,72.736534
0.82745963,73.62521
0.8246087,65.47519
0.85604995,70.24838
0.7045378,67.63917
0.876208,62.851894
0.7851049,64.802376
0.90523285,58.97679
0.80920726,57.34839
0.8570559,58.341187
0.85710293,54.197983
0.81448746,52.945614
0.74004245,49.69825
0.8087787,49.852104
0.78091663,52.32607
0.8442773,49.72765
0.79697233,43.350693
0.8217894,42.44589
0.71139526,48.409176
0.7582189,45.53032
0.6700647,43.442116
0.70479274,40.0
0.6832734,43.269882
0.6914007,40.564583
0.5789426,40.0
0.7486976,41.071083
0.6236643,40.759308
0.679552,40.0
0.57740974,40.0
0.6069515,44.29129
0.53135127,40.0
0.4547777,44.661545
0.50258446,46.07269
0.43273857,43.129513
0.43220022,41.78627
0.5525684,43.955902
0.66619456,49.83376
0.5663689,52.868767
0.45641747,49.21367
0.5727181,53.829308
0.7032044,55.140266
0.73612535,61.245235
0.80996305,64.5382
0.9154422,64.163506
0.8876589,72.656555
1.0146827,72.6037
1.109142,81.93564
1.1818068,83.286
1.3187846,82.770546
1.3142525,90.66747
1.4582818,90.737305
1.5893371,90.90017
1.5495502,99.88953
1.6925395,100.399956
1.6851623,103.14371
1.6751763,108.59109
1.7079626,112.40499
1.9264414,112.024536
1.7070941,114.39403
1.8175327,116.14818
1.880372,118.460205
2.0035233,124.765045
1.8777165,124.09746
1.9663367,128.33168
1.9632696,128.41608
1.9847103,128.4668
1.9256335,129.93195
1.8944273,131.60063
2.1098478,136.59804
1.9916033,133.8118
2.0095103,136.12297
1.9914047,139.21039
1.9585304,135.44908
1.9285692,133.93161
1.7852688,133.42581
1.8030491,132.5931
2.0264423,131.65686
1.8802285,129.71234
1.7507129,128.81862
1.7496898,133.10835
1.7860575,129.48001
1.8218182,126.054726
1.7335672,131.24136
1.7484583,122.926384
1.6864175,119.54023
1.6623476,123.5348
1.7562488,116.62627
1.7064393,118.18862
1.5702475,111.68151
1.5835327,112.371475
1.4939692,114.95929
1.5746447,112.116196
1.5208586,112.378136
1.4833843,110.17828
1.4564154,102.287415
1.5122604,105.594215
1.4872897,101.81964
1.3306173,97.08358
1.4683274,99.61468
1.4574736,93.74057
1.5410564,96.28122
1.411584,93.73562
1.4503795,92.04702
1.3136979,87.89031
1.3572135,85.88081
1.3013299,88.36558
1.3102435,82.0981
1.2880955,77.40041
1.3518064,79.80271
1.2181149,80.848785
1.1813973,75.37254
1.0539123,75.048416
0.9714101,72.23369
1.123076,72.55405
0.9398221,71.61413
0.9974672,66.030014
1.0588307,69.311104
0.9902649,64.18017
0.9764917,60.59793
0.8714356,57.411728
0.9572295,56.61523
0.8826649,50.22659
1.0582807,57.591473
0.7960054,52.11397
0.8730518,50.933853
0.80840313,50.206814
0.86709553,48.10468
0.9853858,40.099957
0.82426524,43.860275
0.9681417,45.811882
0.8902723,42.395527
0.8716155,40.307987
0.8220508,42.695126
0.7682725,40.0
0.61243486,40.0
0.7813492,40.0
0.75828797,40.0
0.7213279,40.0
0.71631235,40.77735
0.6386854,40.0
0.40673032,40.0
0.46202856,40.252075
0.525802,40.0
0.5238637,40.0
0.46931818,43.421543
0.48655838,46.11488
0.48017043,43.67563
0.43805957,45.220562
0.44591236,45.037037
0.48743,51.07518
0.5007887,55.266018
0.4677863,54.418827
0.6584473,64.5706
0.6403787,64.522125
0.7878582,67.68688
0.7633055,70.21227
0.9994698,69.26119
0.91694045,74.26164
1.1162885,75.34507
1.156544,81.20034
1.186952,84.116776
1.2312924,87.82945
1.2736837,91.0937
1.3714873,92.36774
1.4760158,95.36588
1.5662631,101.84521
1.5588661,104.475464
1.6029234,106.886536
1.6199737,113.15151
1.7963654,114.53616
1.7172948,111.19718
1.7407037,119.87294
1.7952745,121.946045
1.7785587,125.44041
1.7402945,123.5851
1.7758616,128.69797
1.8823425,131.07266
1.6816509,127.23425
1.7938179,131.64334
1.6224897,135.63342
1.7846423,131.08821
1.8232775,130.10933
1.8296268,130.58392
1.7433331,130.1701
1.8226107,131.4423
1.6864495,131.22536
1.7630692,133.55109
1.7167445,131.83386
1.6137593,133.04042
1.5950118,132.14697
1.5641456,127.370346
1.4712363,126.28271
1.6111422,129.18901
1.5348209,129.13947
1.5117527,126.6947
1.3735082,124.2392
1.3009564,122.409424
1.386844,123.03127
1.3476466,121.23704
1.3273029,118.53184
1.3348678,123.25551
1.3338096,118.79203
1.230302,115.168365
1.3171959,112.387634
1.3213925,112.687805
1.2159514,107.33425
1.2662518,105.22345
1.2871147,104.471535
1.2538093,101.2324
1.17952,101.5678
1.2798609,99.25819
1.0810812,94.27124
1.0893289,95.67267
1.0776799,90.14017
1.1553336,89.64701
1.0350391,86.35024
1.0157164,89.02376
1.0820698,85.76215
0.9035915,80.86779
0.9322971,82.20591
0.8902899,79.369644
0.8666047,79.287
0.8776272,75.201935
0.77796626,78.61245
0.80986786,71.161316
0.7156962,69.65346
0.6319413,72.079926
0.68062717,63.720814
0.61975956,63.11218
0.60956544,62.92298
0.66642743,63.696926
0.5197308,60.4884
0.5822527,60.835934
0.52148205,56.26095
0.63015497,55.694855
0.6426584,52.88779
0.4576964,51.230186
0.45842803,47.11129
0.5623607,48.205757
0.44902453,49.993004
0.42751735,49.148415
0.49261162,43.74804
0.48574853,40.0
0.35249048,40.0
0.4154432,40.213066
0.3840737,40.0
0.30253273,40.0
0.33944964,40.0
0.4143475,40.0
0.18715441,40.0
0.30603656,40.0
0.17508352,41.84864
0.15753658,40.0
0.17772959,40.0
0.082261935,44.160458
0.17637207,40.0
0.18087302,41.03613
0.046246212,40.0
0.13228089,40.972157
0.14081442,46.360813
0.16522749,51.93479
0.19884129,54.907383
0.1231864,60.985374
0.098767504,54.103287
0.25232184,57.6527
0.2941839,66.042915
0.22822583,71.924164
0.4910739,70.117645
0.46982384,73.19628
0.47124422,77.10276
0.61677283,74.98527
0.72445905,79.168564
0.83355176,88.63959
0.85403293,86.5155
0.89970416,92.24674
0.9970897,94.728294
1.0657505,94.283905
1.210058,102.14203
1.1055409,107.17141
1.181102,105.75038
1.3249393,112.41008
1.2977682,111.90625
1.3665892,119.16668
1.4052395,118.91901
1.3246849,117.639946
1.4302455,122.80152
1.3840333,123.93916
1.3838787,126.98993
1.4029903,129.24884
1.5255605,130.10797
1.3420465,133.52556
1.4465581,133.20847
1.3725193,136.4002
1.4907504,135.27014
1.2637602,139.01427
1.3562778,137.4731
1.3206772,133.55646
1.3083413,135.21979
1.3798451,135.81796
1.3140814,132.5957
1.2451007,132.30989
1.3073831,130.01205
1.2630162,132.35199
1.360966,130.96089
1.1861808,130.33908
1.1938493,124.89512
1.1832061,129.14366
1.1327896,124.896576
1.1043425,125.57161
0.99158204,123.493904
1.1131419,117.34927
0.9177937,117.129425
1.1298025,116.63983
1.0075803,115.06535
0.98838544,109.33637
0.80183583,112.15392
0.84137344,105.9235
0.9825837,107.74096
0.8688419,105.07802
0.9482421,101.16743
0.92085946,101.17674
0.9356899,99.83358
1.0452154,99.39076
0.8770642,97.27141
0.820009,96.37507
0.6871568,97.497986
0.81365395,91.0657
0.74520195,89.19819
0.7964755,87.400475
0.74058133,90.15242
0.6613665,83.299385
0.6717862,78.510025
0.68879557,81.411255
0.52130497,75.30513
0.56682336,77.206726
0.6172937,74.16507
0.46911302,75.482834
0.4851857,64.1868
0.41782424,69.47032
0.4801968,66.504265
0.3704621,65.30447
0.40256366,64.4995
0.36831453,60.261215
0.2650205,61.112213
0.3766786,60.22848
0.35099486,48.659187
0.29378438,49.854744
0.36697942,48.26624
0.33598933,49.29332
0.36984712,48.197903
0.29419044,49.519295
0.26732463,41.981995
0.36422312,44.530346
0.25898305,40.0
0.34772843,44.105713
0.3270168,41.974194
0.26522395,43.216232
0.27483585,40.0
0.24769494,40.405045
0.13373385,40.0
0.02544155,40.0
0.2472538,40.0
0.068585224,40.259377
0.03418408,40.0
0.053828757,40.0
0.01334837,40.0
-0.007288608,42.188847
0.0012507057,41.135887
0.03238989,40.0
-0.16288441,46.176975
-0.16479735,47.801586
-0.001630495,48.117035
0.045271847,48.029335
0.11969956,51.482407
0.14491992,52.90617
0.14068285,54.508896
0.1917159,58.048935
0.20907068,62.25739
0.2811661,62.921146
0.3869097,68.98047
0.46547642,72.50647
0.50252223,73.61863
0.64029413,76.26391
0.78658074,83.97331
0.7960669,88.57461
0.8930292,88.620705
1.0115551,96.520294
0.9569599,94.40299
0.8642064,96.79558
1.0800339,96.31605
1.1939943,105.65179
1.1179826,113.35506
1.2518517,110.58155
1.374873,112.59261
1.2825835,116.044586
1.3718802,114.44715
1.4256555,122.47751
1.4217302,120.93551
1.3933953,125.91122
1.3430367,127.05312
1.5047837,129.65944
1.4741416,128.11255
1.44206,137.93454
1.5091263,134.7391
1.5458862,138.37943
1.4686211,130.18454
1.4831971,135.87093
1.304635,129.79236
1.4362135,134.36882
1.4989545,131.4597
1.3815536,134.17918
1.5097433,132.95999
1.4411751,135.63744
1.4431723,129.28592
1.3192018,130.3189
1.2385317,127.944824
1.2817266,127.37179
1.3200567,129.12111
1.2758594,126.42682
1.3010683,121.773056
1.3725624,125.32314
1.1709914,116.89343
1.2207807,121.86607
1.1696936,115.931404
1.0811229,116.08856
1.0361059,113.30529
1.0826975,111.617455
1.0923117,105.9625
1.0471596,113.685616
1.0646702,115.55697
1.1033094,103.0185
0.9645702,105.94891
1.0207692,102.64698
1.0728104,96.7314
0.99085194,97.25394
0.8713407,95.1538
1.0705166,92.470436
1.0675043,92.41048
0.95096254,93.846275
1.0553507,86.42614
1.0352453,82.99577
0.9514505,88.66637
0.94298476,82.07492
0.91607654,78.80063
0.7829762,79.42936
0.88081306,79.12834
0.74221337,78.361595
0.7461408,76.45766
0.69315404,70.175934
0.73276407,72.635544
0.6129764,70.291046
0.60406965,64.3095
0.6981376,65.561066
0.59219193,64.9074
0.6738226,61.611935
0.7122044,58.14313
0.63024324,58.218994
0.6331166,60.099438
0.6351473,57.425404
0.62404656,50.346973
0.5818821,45.27506
0.5887812,44.435318
0.6796618,44.532463
0.6514725,47.201103
0.63900536,42.348186
0.5746827,41.054245
0.65349895,41.95678
0.56160945,44.24595
0.67903805,42.302486
0.68488854,40.787037
0.5200311,40.682384
0.49396336,40.0
0.42259747,40.61362
0.45015097,40.0
0.41768786,40.0
0.52201027,40.28095
0.29978713,40.0
0.37562838,40.0
0.28861374,41.736187
0.30873984,41.424534
0.32545885,48.88853
0.3800641,40.0
0.3933864,47.11225
0.3195609,43.603622
0.35224524,51.016235
0.38680318,51.401417
0.613825,54.80159
0.5266684,55.8108
0.57615626,56.16727
0.72691506,62.24792
0.6731421,64.85655
0.8260348,72.733986
0.95155835,70.4759
1.046091,78.56924
0.99995816,75.26933
1.0375563,81.68891
1.2398293,86.77587
1.2422628,85.16769
1.3424978,93.0051
1.3340055,90.03655
1.4679985,95.64385
1.4767824,100.63641
1.5192319,103.88005
1.4586259,108.32661
1.5959876,107.074356
1.645959,112.721016
1.7138178,116.27607
1.753945,121.20272
1.7846998,116.854034
1.7653134,120.21767
1.8838799,127.979935
1.790133,129.92833
1.9001453,129.49599
1.865657,131.61288
1.8673055,137.48357
1.8501906,133.2037
1.8528398,132.92506
1.8607502,134.92198
1.9617491,134.44313
1.804606,136.93741
1.87374,135.63939
1.8852179,136.50337
1.8648487,135.0156
1.7158593,132.85912
1.7448784,131.38718
1.8060374,135.62454
1.6627986,134.37743
1.6535478,131.43344
1.7267082,131.02701
1.7088506,127.84299
1.5663081,130.84108
1.7321283,122.4434
1.6842054,122.39502
1.5335815,117.233536
1.6093432,120.05239
1.5294327,119.09513
1.4548701,114.79593
1.5374769,112.73563
1.4554294,110.33861
1.5336891,111.14717
1.4556217,108.76345
1.4133345,110.9016
1.5782359,105.86872
1.3101482,100.38415
1.4949954,104.50048
1.3586457,98.92879
1.4179822,94.394875
1.4664595,92.499794
1.4030855,96.55642
1.4624714,94.45239
1.3558978,89.85652
1.462541,88.29781
1.3303236,85.23364
1.2950456,85.73808
1.3022542,81.39961
1.339595,81.643
1.2792152,77.20853
1.1932064,74.98609
1.0669681,75.1924
1.1945457,73.04155
1.138098,75.67015
0.97518647,73.735855
0.9399555,70.80323
1.0642283,65.90032
0.95572895,61.4135
0.9228671,65.13016
0.9088036,61.48678
0.9572516,64.41511
0.93841815,57.793255
0.99174947,56.68659
0.9816913,52.007587
0.9217617,51.128304
0.90965986,47.591076
0.85028434,44.769382
0.905937,47.029633
1.0304174,42.843613
0.9101466,44.315502
0.85863185,41.144577
0.74622613,40.238243
0.8981302,40.36945
0.7653124,40.19384
0.8132986,42.325428
0.8581576,40.865665
0.7066515,40.0
0.7225277,40.017456
0.7869811,40.0
0.59559286,40.0
0.6162054,40.0
0.63639474,40.0
0.6017392,40.0
0.55203426,45.473476
0.5446361,43.965824
0.53106755,40.0
0.55529934,49.91989
0.62989414,48.81407
0.5058677,50.443203
0.5804021,50.642193
0.6764626,52.418823
0.6075223,58.068733
0.7135878,55.755657
0.7629369,59.699745
0.9333639,63.84486
0.859856,67.547714
0.95313406,69.563095
1.0752627,69.24745
1.0365818,75.972664
0.999802,78.81218
1.2703714,82.15355
1.3797889,83.01091
1.4893324,85.46291
1.5143822,90.60174
1.4684451,98.47324
1.6522821,99.68933
1.5772947,106.04586
1.5882739,102.9985
1.734079,107.54371
1.7728543,112.85434
1.808442,113.2168
1.915384,117.45874
1.9116532,115.32464
1.7421607,118.590645
1.915518,125.95285
1.880508,124.051605
1.8261777,129.40123
1.9598494,128.2043
1.9092329,131.37953
1.8884758,127.992935
1.9359028,128.29779
1.8523432,130.73724
1.8578769,133.23073
1.9183236,135.67366
1.864532,136.58972
1.9428061,137.79741
1.9254688,134.66795
1.8213607,130.01134
1.7513998,136.83725
1.7036283,131.32
1.7691752,129.8238
1.7001376,130.48524
1.812886,131.54674
1.6960791,123.21453
1.5970572,121.34429
1.6460712,121.45716
1.6198417,128.23947
1.4040549,123.37359
1.631607,117.17604
1.5210634,122.97518
1.4967664,120.78304
1.4966613,116.4235
1.4373816,111.437614
1.3828001,112.95519
1.4079714,112.74984
1.3975093,109.09315
1.3706855,102.422226
1.3704363,106.52056
1.4733306,105.12195
1.3326597,100.973885
1.4078197,97.91301
1.2651689,100.40012
1.3101494,93.04011
1.3180166,96.92384
1.2964631,90.2665
1.3919717,87.10226
1.182388,89.13255
1.277507,90.67451
1.1478319,85.95576
1.1270542,77.57459
1.1014336,82.38405
1.072308,79.67358
0.9853767,81.0143
1.1041815,81.336464
0.91081965,70.71035
0.91449046,75.06506
0.7896009,70.44349
0.80275136,70.07612
0.85021174,64.89363
0.84327537,67.55861
0.7839448,65.00772
0.7239024,62.13452
0.713545,58.54601
0.74681,60.20345
0.69415283,57.974365
0.8508592,51.513615
0.6399835,51.61472
0.67091566,46.82033
0.68231255,46.28696
0.70276105,47.92095
0.7467968,45.665314
0.7030359,43.558193
0.5724505,46.468624
0.6499773,45.28442
0.6899936,40.0
0.690636,40.0
0.62712,40.45866
0.5215748,40.0
0.5068664,40.660904
0.50510293,40.0
0.5834013,40.0
0.46004185,41.104248
0.32466504,40.0
0.24351425,40.0
0.32937285,40.0
0.38046607,40.0
0.24695665,43.268986
0.3558791,40.425358
0.24497262,47.60115
0.2481969,49.81117
0.21395276,47.506927
0.30706006,48.001457
0.2927274,53.169785
0.37401333,54.44609
0.340016,57.106033
0.42248735,59.597965
0.4953735,67.708336
0.6578148,66.97862
0.5621521,70.27985
0.67698115,72.68995
0.8372853,78.3412
0.7873454,81.90176
1.0076073,82.28406
0.9459584,81.22246
1.0975428,88.15172
1.04896,90.68028
1.1622806,94.95232
1.216286,95.54512
1.2497504,102.43542
1.3686358,99.724
1.3227544,109.64648
1.3538245,107.39211
1.3831781,110.80769
1.4165087,115.333824
1.4180331,117.54833
1.4788008,121.87121
1.6232175,125.66063
1.5418121,128.0714
1.5106832,124.323044
1.6065056,127.55781
1.5352902,131.9857
1.4761051,135.34145
1.5388409,129.11076
1.6142985,130.99867
1.4461788,136.83218
1.4625866,133.36542
1.5591725,134.79788
1.5718387,134.7863
1.4623779,132.17073
1.3917494,134.5866
1.3122454,134.58937
1.4169977,135.45741
1.4171084,136.26619
1.3091861,135.34213
1.2556835,127.27038
1.1775318,132.42366
1.2767164,125.63732
1.2329211,129.46205
1.1960381,126.21542
1.1933784,125.06354
1.2379699,120.38961
1.1939006,119.50624
1.0841271,115.9437
1.0614234,117.541626
1.0531875,115.0372
1.0114348,113.37794
0.99380106,108.520355
1.0594347,109.05983
1.0900658,105.569595
0.93948716,104.63131
1.0008231,103.462265
1.0861793,105.64027
1.0624237,96.5861
0.9817252,96.28793
1.0026261,92.57381
0.869637,96.25946
0.8920335,86.035835
0.9129494,91.14168
0.9347467,85.29232
0.78523123,87.95964
0.8221746,83.10352
0.7704748,83.685005
0.6826082,75.576805
0.71613795,79.60226
0.62619954,73.351944
0.56355643,74.12451
0.67512584,75.07783
0.627461,70.08964
0.4479221,71.42092
0.42884097,66.38693
0.42772698,67.165344
0.43918732,62.440018
0.44632617,61.158245
0.35064617,64.34133
0.41941383,61.92154
0.22132646,55.35819
0.5057908,51.13244
0.2914028,47.73907
0.47300693,51.89933
0.3948678,47.383762
0.41052324,48.68354
0.2977671,46.749924
0.2981904,46.98129
0.24635378,45.150417
0.20954593,44.84668
0.20150712,43.86733
0.25755712,40.0
0.1838713,40.0
0.17783308,40.0
0.27799946,40.0
0.096125916,40.0
0.16908424,41.387527
0.08169916,40.0
0.1253528,40.0
-0.035999257,40.0
-0.008470608,40.0
0.030413391,45.19382
0.0569969,40.0
-0.05811073,41.85124
0.01674264,40.0
0.02748099,42.59413
-0.07164495,42.386883
-0.14153987,46.912075
-0.08126152,49.357273
-0.008736637,47.788025
0.014564386,49.58072
0.13488784,56.636513
0.15107755,58.710094
0.17844222,62.515587
0.2500431,67.28403
0.40362707,67.55745
0.3865067,72.35158
0.5301538,74.697876
0.6561625,77.35173
0.5965951,87.41599
0.65365523,88.14889
0.7686608,88.28625
0.87407166,95.23381
0.9710316,93.0992
1.0142766,100.35646
1.0367843,103.112625
1.0926586,108.42481
1.1162168,110.371544
1.1451181,110.36378
1.3615494,115.924515
1.3611786,116.9987
1.3684968,119.10214
1.3696017,121.81596
1.3782614,123.19117
1.2909685,128.7249
1.5477346,120.77331
1.2849525,125.357445
1.4703735,129.65474
1.4756421,132.29916
1.417492,132.64597
1.3869147,134.47458
1.3578737,134.08894
1.3795637,137.23563
1.3408251,141.68123
1.357423,135.38295
1.4369811,130.61865
1.1735319,132.50284
1.227615,131.46877
1.2811811,131.67397
1.1452485,133.57452
1.2260944,129.1428
1.1671607,130.58617
1.2108527,130.07722
1.0324601,126.70532
1.1248676,122.206635
1.1735102,124.583374
1.0359906,121.25883
1.0261492,118.437126
1.0133282,121.63007
0.8830843,116.995056
1.0562165,115.37456
1.0727252,112.80493
1.0791504,109.66449
0.9751162,114.1653
0.9567592,105.28003
0.8225386,105.76243
0.90774786,103.43687
0.8974909,99.84588
1.0245073,99.46523
0.91264296,98.21175
0.98164314,94.71143
0.8309842,89.81595
0.8370276,94.58967
0.9212091,92.74246
0.83404243,89.86533
0.77664065,89.91662
0.74113995,86.34288
0.90082604,87.08487
0.70667386,80.021736
0.71584845,82.305336
0.6650614,76.3174
0.63290364,78.86675
0.7725052,74.997665
0.6208708,79.84277
0.6124823,74.23842
0.4874874,69.84877
0.459053,65.4598
0.43726555,68.727264
0.4106514,66.42485
0.45412806,62.601757
0.4463452,61.022594
0.5071551,60.18884
0.351313,58.47902
0.41966483,54.96087
0.4481209,51.099514
0.45827264,50.148106
0.50807726,49.39171
0.478747,50.755375
0.41234827,47.415276
0.39863133,48.724842
0.469896,43.043274
0.33738318,42.382607
0.46369913,42.55095
0.48086998,40.781372
0.46465188,40.0
0.33055305,40.0
0.38632098,40.0
0.35743034,40.0
0.32389715,40.0
0.29251453,40.0
0.15516673,40.0
0.25394818,40.0
0.21688502,40.556347
0.18437049,41.90799
0.12653966,42.414356
0.16613872,42.27803
0.15279955,40.943855
0.23718576,44.214092
0.14125703,45.06049
0.11102425,46.57558
0.16158563,47.072098
0.28446296,53.046898
0.25717762,53.316074
0.34033215,58.84276
0.24846373,65.13928
0.48048055,63.24965
0.47765303,66.51464
0.64091134,67.4759
0.7096925,71.98828
0.69227636,75.99166
0.7954116,77.92333
0.91277516,78.75513
0.9274046,83.373405
1.0549558,85.84399
1.1803817,93.97836
1.1703856,93.214905
1.2205294,99.653076
1.3843131,98.80534
1.4911323,109.646935
1.400287,112.00897
1.4525225,114.05888
1.4091408,112.22755
1.6425179,119.40637
1.5872214,124.12838
1.5398381,118.74117
1.5453298,123.8335
1.7447903,123.177956
1.6593082,130.93542
1.6892408,128.05042
1.72201,131.05006
1.6344516,130.93497
1.7279389,134.40356
1.6370456,136.77405
1.6299224,134.59038
1.5981805,131.5267
1.6646913,133.8551
1.5996691,134.69893
1.6002767,133.38231
1.6121516,137.01846
1.7797194,133.36638
1.5978714,135.75966
1.6515981,131.2149
1.673662,130.46085
1.4719589,132.20334
1.461251,131.32771
1.453231,127.7488
1.5376345,129.54094
1.5457792,125.42481
1.440611,125.03844
1.4479766,119.40388
1.453294,118.83909
1.3678714,119.695595
1.4237983,120.55966
1.3295736,116.162186
1.3184891,111.52401
1.3074017,111.910934
1.2327898,110.35468
1.4128271,108.052956
1.2393391,102.99909
1.2290998,102.23008
1.366725,101.23644
1.2584406,100.02699
1.199519,94.23687
1.3103243,92.38247
1.2375406,92.407295
1.2396028,91.13133
1.2393491,91.94764
1.2325912,87.90789
1.2444301,86.33673
1.1442606,82.95108
1.2060173,81.960976
1.0782754,82.05353
1.152322,77.64487
1.013501,72.56974
1.1711633,73.56673
1.0102142,69.88634
0.94210255,71.27696
0.9528187,69.857864
0.86518615,67.02546
0.8766757,65.7888
0.8063697,63.199947
0.8608632,61.949608
0.82580024,59.544415
0.89518696,56.737553
0.86854297,61.972057
0.8170046,55.583515
0.8041727,52.738213
0.7782471,51.986866
0.90085745,53.744858
0.8058284,50.007133
0.7531506,42.821213
0.7580867,49.2014
0.84681296,41.535004
0.79674435,43.094555
0.7545154,41.989334
0.8869368,40.715225
0.8441613,40.0
0.82349914,40.0
0.81806535,40.0
0.6793183,40.916092
0.5842158,40.0
0.6807098,40.0
0.6227801,40.0
0.6047676,40.287914
0.5582656,40.0
0.54538506,40.0
0.3954877,40.0
0.46193862,40.0
0.49924013,40.033005
0.5912648,40.970966
0.41537642,46.30175
0.52723503,53.429897
0.5994043,43.299828
0.63969344,53.88069
0.67978156,51.82773
0.68752795,55.227943
0.76936346,57.463696
0.8342412,62.892086
0.858776,66.684525
1.0425224,70.2448
1.0832407,74.41435
1.0057391,77.17266
1.2607062,79.15198
1.2163756,83.186516
1.3883842,80.87515
1.4494208,92.685074
1.5334662,90.8561
1.6088402,97.45872
1.486429,100.947105
1.6596689,102.373314
1.7861698,102.899574
1.6797765,112.25068
1.8702726,113.670815
1.8037275,120.056725
1.8200696,118.154495
1.8107854,119.25092
1.9667614,120.13125
1.9662681,120.8464
1.9370332,128.39142
1.9176944,129.53574
2.0531697,123.72431
1.9941039,129.6553
1.9946967,131.99533
1.887765,133.89104
2.057261,131.21652
1.8982322,135.37926
1.98568,135.31079
1.9975317,129.31203
1.9232533,134.38391
1.9595634,134.55185
1.9316858,133.78148
1.9249455,133.66513
1.82672,130.19263
1.7942839,129.41956
1.7705655,134.12567
1.72799,129.04315
1.7320294,125.54772
1.7150033,122.122826
1.7028545,126.72496
1.6724266,124.71814
1.6504952,124.27212
1.5605011,121.32298
1.5692705,115.83687
1.563142,113.77646
1.5774353,115.63374
1.5841749,116.63396
1.5401702,111.742325
1.498896,108.64151
1.5781997,107.55327
1.4397527,105.913
1.5985978,103.257416
1.5253352,102.41284
1.3950956,102.67842
1.4555751,98.32697
1.5253524,93.74123
1.358596,96.730934
1.410405,90.1631
1.4317645,91.903305
1.3559849,89.44571
1.3382083,88.265686
1.3237371,85.92829
1.3510029,84.82284
1.2935488,79.51386
1.2503794,79.718025
1.1926718,79.659966
1.1317899,85.78578
0.979475,74.12657
1.0744693,71.60273
1.0217333,73.133705
1.0600743,66.564575
0.9124701,68.60875
1.0511682,68.65114
0.99771404,60.724613
0.9293512,63.162704
0.8324245,59.102474
0.87869346,55.810802
0.76018155,55.335068
0.8634635,52.806717
0.83653855,51.167107
0.9358781,53.705376
0.82280695,46.908054
0.95554113,50.149956
0.75093144,47.724365
0.73568827,43.346615
0.83333045,42.21717
0.8603055,43.623573
0.7865207,43.843052
0.7620753,41.11364
0.85213476,40.916855
0.7267683,40.0
0.61057603,40.0
0.6362382,40.0
0.7085981,40.0
0.7227854,40.0
0.587751,40.0
0.44889998,40.0
0.60042584,40.0
0.4644023,41.030205
0.46379048,47.44263
0.4057542,40.0
0.42782512,44.724487
0.44133615,46.10937
0.47264117,49.893764
0.5139657,48.716354
0.43148625,49.439686
0.5243526,50.6788
0.48424056,56.082504
0.6272428,58.308224
0.5902838,61.85692
0.70985574,65.50796
0.82156897,70.7804
0.8494235,69.95075
0.8847863,72.38646
1.0873959,76.35367
1.0558652,83.581276
1.134718,80.8605
1.1807011,80.39571
1.3290457,87.282135
1.3472885,89.79074
1.343178,98.189835
1.3048836,100.87757
1.5626096,101.85814
1.606968,101.63661
1.5280888,110.82607
1.6587692,107.622284
1.8035465,112.88763
1.7305635,112.83909
1.7723372,118.6024
1.8030794,121.82441
1.6480752,129.26678
1.7539884,126.75664
1.7664174,130.43605
1.7224305,129.27055
1.6945577,132.01271
1.7967104,133.89374
1.7623336,128.36327
1.788057,133.11887
1.651009,137.57336
1.6431309,136.15251
1.6943486,140.4881
1.7190487,132.53888
1.6082509,136.68077
1.5635835,139.51537
1.55306,130.56194
1.6687143,130.95926
1.5759466,135.16345
1.5233315,127.33434
1.5057888,129.36824
1.5348593,134.58226
1.5167187,124.90285
1.4406182,122.65046
1.3885579,119.50156
1.4062049,124.08355
1.3638738,120.53079
1.4399312,120.97877
1.2764798,121.85596
1.3530713,117.11274
1.2374436,116.82629
1.2666248,111.83728
1.2940876,108.7089
1.2619239,107.22709
1.1980133,106.76855
1.1347377,101.82466
1.0384533,100.325516
1.1483974,99.508
1.1819319,100.19682
1.1902403,96.40219
1.0969609,94.616035
1.1493425,97.47842
1.2030708,90.693405
0.9508956,88.6754
1.0374042,82.51295
1.0390892,88.17212
0.9285382,85.096664
0.93609124,86.01684
1.0022869,80.700485
0.94130063,76.51794
0.7492993,74.61105
0.72347915,76.272316
0.72947913,71.31281
0.7572077,67.47608
0.6352616,66.503845
0.55548316,65.77944
0.5338347,65.72674
0.53541327,57.9593
0.52350193,61.59039
0.6089001,58.365204
0.50150573,58.119644
0.54883623,56.33626
0.51711386,57.690582
0.38623512,54.98097
0.5196185,51.120644
0.5034361,50.504826
0.50425196,43.288387
0.49847966,47.44528
0.49980167,44.24483
0.40543467,44.698627
0.40409887,40.96059
0.4709796,43.499928
0.40520027,40.0
0.47315857,40.0
0.5383605,40.0
0.36903554,40.0
0.32246885,40.0
0.27778283,40.0
0.209115,40.0
0.16493005,40.77699
0.13099413,40.0
0.22235364,41.30762
0.11583559,40.0
0.09520881,42.454952
0.071835876,41.18253
0.040558875,40.585712
-0.009495001,44.59315
0.08537259,45.990047
0.07564585,51.782085
0.041160207,47.307217
0.1688538,53.740875
0.1678012,54.349392
0.17061481,53.91301
0.3433411,59.49437
0.31407374,60.34784
0.2963302,64.82717
0.49011752,70.55772
0.40904614,71.698654
0.5810149,74.92893
0.6136563,78.924736
0.7120026,79.62541
0.83659226,91.15458
0.9364804,92.61145
0.91793233,94.70763
0.9780971,96.585754
1.0560596,94.790504
1.0586169,103.59664
1.2087299,100.53275
1.1511899,108.859085
1.3575332,114.04882
1.3626626,114.66668
1.3084056,116.76493
1.348039,119.49124
1.334639,124.93869
1.3951268,124.17748
1.3056909,132.28735
1.4533404,128.08305
1.2636839,132.61926
1.3739142,127.33801
1.3497572,133.10771
1.3807955,132.26685
1.3334372,135.41737
1.3087018,138.41304
1.2797363,136.5286
1.3648007,133.65471
1.3338611,136.62059
1.3796513,133.96376
1.3148896,134.22412
1.2781305,134.0895
1.3199817,131.85297
1.2142752,132.86113
1.1700059,131.10178
1.179425,134.2291
1.0974523,128.70148
1.0867532,126.87406
1.0952693,124.74035
1.1494627,123.498634
1.0600313,120.65061
0.9600396,120.49118
0.99273056,114.14648
1.0185198,116.20923
0.9740286,117.30716
1.0071684,112.709465
0.9811233,111.9419
0.9578657,110.590324
0.9820517,114.6364
0.785823,107.40843
0.8913336,108.78804
0.8500735,98.73204
0.9356261,100.35311
0.79846287,97.06085
0.92267203,95.106804
0.8645311,97.204124
0.89396816,94.39067
0.8167366,89.44062
0.77491933,88.5591
0.76213217,86.68707
0.77753484,82.1655
0.679889,86.12748
0.52831024,86.490425
0.65168655,81.44214
0.574106,80.351524
0.55159694,75.454765
0.6750437,72.70892
0.5238169,77.72754
0.38672432,71.11303
0.42220858,64.72999
0.5220125,66.35804
0.49353412,63.31491
0.26236564,61.94088
0.45057076,62.892662
0.31316316,57.353405
0.267074,59.78937
0.30585474,57.225723
0.18673171,55.974003
0.43438348,48.763252
0.2858208,50.560406
0.28909978,47.83921
0.41322693,48.603527
0.2896363,47.37083
0.44044775,42.45591
0.303569,41.271503
0.3659529,45.6079
0.1782878,41.229435
0.36949238,44.26527
0.25907713,41.29861
0.19849399,40.0
0.30110466,40.0
0.21037926,41.52759
0.10039958,40.0
0.16798559,41.264374
0.12972714,40.0
0.045988537,40.0
0.075498424,42.129364
-0.07956298,43.07127
0.01304943,43.759033
0.011313318,43.577503
0.12790784,43.252872
0.00022701695,48.497635
-0.10740644,43.086624
0.022095604,49.816994
-0.0060749315,52.326485
0.06258329,56.45912
0.27386308,54.527935
0.1252089,55.674675
0.2431983,63.574154
0.3293605,60.37069
0.5040395,66.722176
0.48983026,72.67505
0.39699772,74.47857
0.55227417,78.76815
0.65785354,77.25035
0.9220878,83.525925
0.9535963,84.63286
0.8798801,88.51133
0.99928594,93.958786
1.0433398,99.70449
1.120745,97.54709
1.1832182,104.1401
1.1417149,107.453865
1.2791909,111.317474
1.2920502,113.37766
1.3156383,112.02899
1.2972991,109.18904
1.3448068,119.23936
1.3830075,122.88279
1.4056648,124.43352
1.5626962,124.571144
1.4670987,133.56648
1.4480361,126.61232
1.5176845,133.93576
1.5184557,130.3769
1.4966348,131.04907
1.4328411,132.68329
1.5356913,128.11632
1.4462438,136.45416
1.5547967,132.08621
1.549727,137.35864
1.4251513,133.65869
1.4744532,136.84505
1.4264697,131.52509
1.3564018,136.47638
1.427603,134.8965
1.2520849,127.92716
1.3680055,128.3896
1.3387917,127.580666
1.3303956,119.84545
1.2069311,124.95411
1.1951057,124.88236
1.2855666,126.23142
1.25231,119.19445
1.1530627,121.6556
1.2104404,112.97484
1.2453943,111.8814
1.0729034,114.38582
1.0761964,114.95408
1.1388234,110.27536
1.1160613,109.26273
1.1225805,105.18939
1.0708026,107.314735
1.2005813,105.96715
1.1791055,103.488976
1.0673194,97.69636
1.1579759,95.89732
1.0656556,97.4394
1.1006854,89.38454
1.0696898,90.52868
1.0984569,88.27665
0.99401844,92.51364
0.95878774,81.77622
0.98906577,88.40804
0.9747192,85.64553
0.9308148,82.13775
0.8373975,79.71498
0.79503816,76.427246
0.8483309,74.27406
0.82484066,78.00198
0.7457736,71.42716
0.7577247,65.52056
0.79366636,64.51935
0.7041229,66.86593
0.7067133,60.229404
0.64843476,57.111053
0.53949356,60.15142
0.6988184,65.82692
0.6157112,57.70128
0.6857161,50.8979
0.62413484,55.30352
0.71402866,50.165855
0.63399863,45.937107
0.6863596,44.194584
0.5990613,44.47586
0.5534933,46.12397
0.6865992,44.00935
0.5615848,41.16875
0.59727824,43.195045
0.62738895,40.0
0.659239,40.0
0.5316352,40.0
0.46925372,40.0
0.51791567,41.688126
0.47784013,40.0
0.4343268,40.0
0.48493752,40.0
0.39513025,40.0
0.41032043,40.82307
0.51743823,46.180935
0.38912308,43.087315
0.34512317,47.959267
0.3112273,44.250587
0.3787355,46.220047
0.32145575,48.281116
0.3548105,42.303013
0.4381285,51.01281
0.48884964,54.855923
0.48659274,56.397736
0.560382,62.212337
0.61535156,65.14582
0.6705503,66.549835
0.7625038,65.66109
0.8989824,67.691864
0.95202297,72.04021
1.0793641,76.79101
1.0886552,79.46991
1.1751684,80.848076
1.305303,87.85116
1.2940366,88.72156
1.2985784,93.89121
1.4841875,100.65192
1.5308827,102.02728
1.6238023,97.725784
1.5447426,107.223625
1.6693509,107.22506
1.7275438,112.63755
1.7407966,113.34211
1.7001371,120.421646
1.865622,122.14496
1.8909287,122.943565
1.8421909,122.82002
1.9524332,129.40286
1.8251184,124.730064
1.968267,125.17958
1.8922606,128.56535
1.9412472,130.9691
1.861322,136.92455
1.8944733,134.2185
1.9680607,133.75925
1.8738433,132.92036
1.914912,132.03906
1.808237,137.67831
1.8429025,139.04646
1.8036247,135.38968
1.6727194,130.46684
1.8203882,133.35252
1.7952021,129.61037
1.8074669,132.87788
1.8431535,128.97543
1.6199756,127.29181
1.6992799,128.12029
1.640323,125.935165
1.6650538,121.52812
1.6823952,123.4423
1.6899961,118.64141
1.7593325,118.26397
1.5294911,116.43234
1.4589788,116.4588
1.4668168,109.75019
1.5446548,113.58471
1.4154857,104.81327
1.515643,108.324356
1.5279757,104.074646
1.4448587,101.986145
1.4560562,104.726395
1.4742801,98.10236
1.5297099,100.062515
1.3890254,99.81633
1.4947813,92.31892
1.4203045,94.19557
1.4570621,92.91866
1.3689691,85.57962
1.3480165,86.35353
1.3558435,83.51398
1.1763649,82.221825
1.261044,85.47783
1.2134744,79.78363
1.220572,79.7855
1.0190928,76.59781
1.1468154,73.74392
1.0474641,71.507545
1.047906,71.1831
1.0455037,70.38921
0.9719457,69.171776
0.9653951,65.83496
1.0391732,65.21594
1.0351652,63.09015
1.0669914,60.122917
1.0793775,53.515392
0.9107056,52.925453
0.858658,55.067287
0.98209894,55.156746
0.87201077,50.818092
0.929544,54.327324
0.9295069,43.223213
0.9030255,43.158295
0.762759,44.543343
0.91567767,42.973377
0.83737665,43.04817
0.8104546,40.0
0.946964,41.604324
0.8188215,40.517303
0.85209143,40.0
0.82981324,40.0
0.8230311,40.0
0.66733813,41.325283
0.7507454,40.0
0.73359597,40.0
0.5452034,40.170345
0.6248376,40.0
0.63467795,43.252094
0.5742917,40.0
0.46887153,40.0
0.5160441,41.13746
0.5525758,41.9526
0.4710857,50.66031
0.51783824,48.36593
0.6170388,49.764545
0.65994567,53.096455
0.6238008,53.843548
0.7197707,56.40151
0.78985673,66.19871
0.92680264,62.378864
0.9034134,63.3419
0.9354108,68.05066
1.0404445,75.08034
1.1832594,77.654686
1.1441072,77.22961
1.3680903,82.87666
1.4574255,87.2465
1.3456284,91.35826
1.3597597,95.52968
1.6170597,97.375824
