ppg,abp
1.071462,71.069466
1.0841167,68.98946
1.2431213,72.159996
1.2938539,78.308586
1.3565239,78.48043
1.3452921,85.01077
1.4631418,85.449356
1.4838231,83.50658
1.5263861,90.71954
1.6554086,89.295006
1.6683464,91.503586
1.7713315,94.264565
1.7432204,95.58294
1.6987339,96.18665
1.6434406,94.47284
1.6532356,100.65906
1.7097106,96.89128
1.808337,95.775444
1.7294519,97.4047
1.6962243,97.25238
1.7084726,98.78493
1.8008262,102.61215
1.6448059,102.070984
1.7139498,95.36102
1.5569779,97.71075
1.6571248,100.843
1.5869824,94.42483
1.5813985,98.03974
1.510651,91.849915
1.4557728,99.354996
1.6073244,94.84299
1.519277,87.54507
1.4551604,94.710625
1.5048794,94.83594
1.4390492,89.693794
1.3536386,91.230804
1.3802431,89.51934
1.3281059,87.64032
1.4083523,82.087524
1.3709699,84.43183
1.3009818,79.727165
1.4376403,81.87671
1.3627557,80.870575
1.3419361,79.326164
1.3569729,77.27388
1.2984004,73.010315
1.2500057,70.27471
1.3209991,72.159615
1.3064917,72.31393
1.3248167,70.46855
1.142609,64.46137
1.1212437,65.15205
1.1731207,66.16984
1.0665796,62.06338
1.0457468,62.233707
1.0572051,60.727024
1.0461974,61.81061
0.9589267,56.939854
0.94763184,58.836105
0.9103757,58.531837
0.87136734,49.74832
0.8405704,50.986195
0.7508576,53.36714
0.8927488,50.685226
0.80557716,46.32011
0.87056774,45.752037
0.83283323,51.66647
0.914178,49.678417
0.8597056,40.0
0.7937998,45.62974
0.7901243,40.0
0.862627,41.24479
0.90145963,41.328827
0.8064919,42.706074
0.71739477,43.723743
0.68845695,40.0
0.6652844,41.66406
0.4922897,40.0
0.57729906,44.178463
0.6320528,40.0
0.4570374,40.0
0.54427385,40.53395
0.60974056,40.0
0.5321163,42.664272
0.49332172,44.252525
0.52664226,41.621742
0.62673914,45.300007
0.6413952,50.02174
0.63209385,47.487583
0.6244623,46.50369
0.68238,52.38516
0.89576703,57.317562
0.96477675,53.78824
0.975037,61.372814
1.1154579,60.586597
1.0666611,64.330315
1.1833768,66.33363
1.2214106,68.47871
1.3830156,73.79473
1.4577525,73.10353
1.6001228,77.720825
1.6772206,76.77088
1.5262984,78.14258
1.7762855,82.32284
1.7767212,83.788124
1.8362402,88.661255
1.8122472,90.69513
1.8805138,90.12952
1.8570232,89.72768
1.8495561,95.83159
1.9562566,94.783264
2.0053809,95.385315
1.9928524,96.5481
1.9172047,102.08702
1.9559375,102.21178
1.9463221,103.51502
1.9979489,94.79484
2.037294,105.597725
1.8609651,107.00247
1.8330721,102.003365
1.8668447,98.00489
1.9555926,99.71545
1.7731662,101.521484
1.8387293,94.44401
1.747686,99.68442
1.8036294,97.91174
1.7393616,94.51147
1.743997,92.855
1.6785055,95.24801
1.690246,90.05939
1.6558081,91.60525
1.6260179,89.67627
1.5537417,88.26685
1.6301366,86.8498
1.565339,88.99706
1.5216997,84.75137
1.5015587,80.27971
1.5652542,76.89556
1.5323448,80.62623
1.5304439,77.21657
1.2968879,77.10809
1.4836193,77.01251
1.4993172,72.97379
1.4302061,74.85755
1.3767883,74.5208
1.3247763,67.14715
1.4031651,71.28958
1.2366943,68.826866
1.2778393,68.17719
1.1468503,64.731255
1.2162894,63.612495
1.0799404,64.647575
1.0818753,65.71958
1.1123891,63.468544
1.045137,54.780327
1.016884,54.266132
0.89126736,58.934017
0.92493916,54.910492
0.96810055,49.627956
0.93097717,47.182438
0.8786914,50.856926
0.870684,49.580883
0.9553994,46.285378
0.85286593,48.808544
0.8607128,46.01854
0.8700513,45.589367
0.79910946,43.312622
0.8478366,41.515213
0.860789,40.0
0.85667205,43.204887
0.8116104,40.0
0.8497223,40.0
0.7167589,41.249638
0.7406778,40.0
0.6202947,40.329266
0.64617026,40.0
0.6795775,43.80433
0.6997658,40.0
0.55753976,43.04241
0.57537013,40.989323
0.53695345,40.751545
0.42909375,47.60444
0.5284793,40.82848
0.46768546,42.63079
0.48108798,45.746754
0.5249925,45.63221
0.67322576,51.6192
0.5853977,48.919033
0.76039386,52.613632
0.84225434,57.46979
0.89372224,58.021706
0.91655576,53.734383
1.0536441,58.394176
1.0967011,62.8918
1.1987256,69.74939
1.2794682,66.443726
1.3253298,74.75209
1.4172263,75.594604
1.5412413,73.68
1.5165637,76.925644
1.562887,80.36112
1.7239357,85.63377
1.6053975,88.20389
1.678038,91.21994
1.8455755,89.47339
1.7252322,88.784164
1.7522444,92.64345
1.7760487,95.31896
1.85525,93.93987
1.791977,96.163124
1.706096,98.42938
1.7532371,95.14835
1.7712365,101.72332
1.7814265,99.20596
1.8370203,100.5145
1.7050161,100.84079
1.7261451,96.801735
1.758477,101.63075
1.7073174,94.56294
1.6233388,102.559395
1.6141615,99.10816
1.638484,99.448524
1.6291443,96.43345
1.5549984,94.04673
1.4580024,100.06517
1.4346054,94.59345
1.3879975,92.27796
1.4669924,92.48779
1.337736,88.26959
1.4221333,92.90232
1.3019938,89.76942
1.3294742,86.56243
1.3146813,84.85591
1.2761456,81.1423
1.2855289,86.3493
1.1935267,78.43728
1.2101091,79.301346
1.2364367,78.408035
1.1179864,76.32479
1.1971533,75.0282
1.2473199,76.58039
1.1000738,73.27767
1.1108673,68.27619
0.9862975,71.04858
1.0528203,67.19144
1.0535893,68.10557
1.0491314,67.61154
0.96428174,64.30065
0.80259323,66.67997
0.8352754,64.56217
0.79735816,59.88191
0.7874285,56.74159
0.67265725,59.972496
0.87304986,58.28043
0.6666905,52.52073
0.7064391,52.973198
0.6147316,50.5986
0.52301675,49.865723
0.718712,52.538933
0.6004147,51.690758
0.55446887,47.74098
0.6697564,44.697876
0.561169,44.817093
0.577286,44.07855
0.57623136,40.093185
0.5814038,44.38978
0.4670696,42.369637
0.48008317,42.629623
0.50420743,41.91613
0.5034868,42.804165
0.46558926,42.83908
0.43936977,40.0
0.3917552,40.407337
0.39423552,40.0
0.27349684,40.40328
0.14437097,40.0
0.24131899,40.045
0.19030468,40.69185
0.095135465,44.148293
0.032424115,48.5494
0.12366962,45.698643
0.1362821,45.436127
0.21851966,45.8456
0.2738312,50.65002
0.24770267,49.751102
0.29467443,52.00075
0.38309953,56.64573
0.5338912,56.497486
0.5687902,60.727894
0.64639467,64.59959
0.6587273,63.604336
0.8146558,68.338165
1.0149524,67.76597
0.9636992,73.62247
0.9150709,72.48807
1.0076134,79.71265
1.223969,79.932144
1.1895283,78.12229
1.2543268,81.66803
1.3527687,87.153404
1.3372172,85.56226
1.3531518,88.57417
1.2413248,86.047104
1.4361316,93.79849
1.4821959,94.396866
1.4758428,97.14415
1.492797,98.11
1.4649626,103.40256
1.4463973,99.38023
1.4765857,96.578896
1.4649997,97.94692
1.4777031,97.014786
1.3871579,101.42227
1.3735365,100.504974
1.3478812,96.92136
1.3005733,98.48637
1.3280698,100.751205
1.2800798,97.93463
1.3006176,97.62835
1.3441867,101.07242
1.2501577,97.35489
1.1660634,93.83694
1.2724375,91.032486
1.1055281,98.377045
1.1699047,91.9042
1.1443661,90.74984
1.0802,86.6031
0.999666,84.82035
1.0090662,85.77277
0.93434685,82.77377
0.9550786,81.843445
0.9629897,84.57255
0.9426579,79.66537
0.9597003,78.44755
0.88923955,83.364784
0.9672582,74.1066
0.80990344,72.64585
0.81715494,75.38617
0.83476037,73.10084
0.9423274,74.100845
0.81648046,65.92216
0.7512309,75.92166
0.60927457,70.62894
0.6825904,66.69851
0.7087768,65.62096
0.59735715,65.403885
0.5482718,66.530556
0.6978678,59.265068
0.51285803,56.370014
0.48417568,58.141785
0.40962467,53.579365
0.43995634,62.881546
0.37258184,48.627945
0.38511962,56.02009
0.4135264,51.43464
0.36510983,49.99028
0.34903693,47.5619
0.30040976,52.443996
0.346938,51.019096
0.40378106,48.641735
0.3221595,43.062584
0.30413115,42.344566
0.30797115,40.884026
0.44403782,43.442554
0.3185179,42.068512
0.32586497,41.147022
0.16494273,41.560863
0.21892351,40.0
0.18219237,41.80747
0.044651404,40.0
0.16191937,40.0
0.014227348,40.0
0.048334714,40.26496
0.032350153,41.787582
-0.10591134,40.0
-0.015257966,43.20358
-0.049549878,41.661472
0.0014264536,46.807343
-0.07541509,45.717083
-0.015525154,44.82812
0.029421927,47.307175
0.07089923,50.42964
0.11458002,54.43874
0.17568462,56.39372
0.26805827,57.991905
0.40606904,55.88306
0.37369224,59.735783
0.59126085,58.996742
0.54731774,65.32064
0.7048796,66.22455
0.7687632,66.34801
0.7776454,74.99153
0.873057,77.63028
1.0719526,76.79895
1.0529715,78.75519
1.2275879,80.659515
1.2119164,87.32799
1.2361456,88.255714
1.2291944,93.70637
1.2581377,89.54068
1.3393102,89.60199
1.4165974,89.435776
1.2969415,95.563995
1.4015203,94.25859
1.3651668,100.59647
1.4805801,100.778366
1.3713952,104.40661
1.4024935,97.59801
1.3832917,101.81474
1.4307699,102.55915
1.3568125,103.24418
1.3282379,105.061775
1.2898011,101.07695
1.3364029,96.3233
1.1957885,97.63922
1.2959855,98.53063
1.179786,94.597725
1.1595113,96.07671
1.1570914,97.76561
1.2514248,96.33641
1.03318,101.745544
1.0975859,92.17528
0.9318023,90.92281
1.0493476,88.156075
0.99974066,82.16651
1.0820556,92.978874
0.95612043,90.01632
0.9670134,88.07331
1.0175912,82.84828
0.9665015,85.24702
1.0664359,81.63331
0.96881944,79.492805
0.9128202,77.88345
1.004047,73.58008
0.98286635,79.65878
0.93079543,72.09451
0.9254896,66.86129
0.7852431,67.200195
0.8568654,72.20003
0.8851387,66.18655
0.80106354,69.03755
0.8982227,67.89854
0.67097074,63.72226
0.53699434,60.59716
0.71941566,62.98441
0.70019794,58.7523
0.64480567,59.296112
0.46907997,54.73485
0.49556324,60.598114
0.45659938,53.988556
0.33670086,58.3713
0.43533462,52.814457
0.37264654,53.122837
0.41621545,51.210094
0.46569994,49.14584
0.3258774,48.175434
0.41568395,46.466087
0.52882993,48.533035
0.43365148,40.0
0.40319195,44.69294
0.43675455,43.995903
0.42786866,40.702633
0.42773202,42.547523
0.4299145,40.0
0.31669286,40.695408
0.407863,40.0
0.40233406,42.90823
0.31760067,42.5114
0.21494064,43.362484
0.13560829,40.0
0.15168305,40.0
0.17701559,40.0
0.2107145,40.0
0.061728586,42.319145
0.12519935,43.099464
0.15672615,40.0
0.20907474,46.688255
0.2281675,45.78715
0.2959744,44.50017
0.23796701,48.323227
0.44488516,50.950832
0.417704,59.401424
0.5094786,57.50207
0.621203,55.86572
0.8269376,59.0589
0.7410009,63.29837
0.94137174,67.86015
0.98220855,71.659134
0.9693086,72.74129
1.189047,70.89585
1.3253747,80.40783
1.3281443,82.57577
1.3044788,79.04964
1.4952053,82.679016
1.4908863,86.26517
1.5130737,89.130424
1.5768259,90.97203
1.5583166,95.87172
1.5084645,93.50783
1.6155176,95.24202
1.5731488,90.81742
1.5028744,96.54336
1.6878808,94.9555
1.5695117,100.718834
1.64808,100.37951
1.6866498,106.4263
1.5404336,100.967384
1.5636095,104.06595
1.7154626,99.968864
1.5163964,101.16744
1.7124851,99.12077
1.5530692,92.187035
1.7003652,101.592804
1.5597284,99.53355
1.5255584,96.2594
1.5983955,97.456795
1.4347802,96.31859
1.392659,94.88735
1.4792892,90.367355
1.3861611,94.04172
1.3985108,93.9528
1.469548,89.26858
1.3466835,91.37689
1.3034699,84.31275
1.3245593,85.72664
1.2285496,83.84793
1.2565211,84.27142
1.2900616,78.04332
1.3962108,80.13669
1.3463013,77.77159
1.3255687,77.0891
1.1944878,81.36075
1.2724322,78.1673
1.2259156,78.40039
1.3064531,70.80718
1.2023467,69.91906
1.1159133,70.81793
1.133972,67.48774
1.1462305,65.29814
1.144477,65.706276
1.0438673,65.403984
0.9917665,59.76614
1.085962,63.710224
0.99516916,60.700855
0.7726652,61.14982
0.86498404,61.317677
0.82067966,53.842415
0.7404679,53.38362
0.7291427,53.595417
0.8410648,55.81951
0.8712516,50.27435
0.85804653,52.49721
0.8501712,48.358482
0.7932823,40.86399
0.8368632,45.117413
0.8858769,44.995235
0.8334108,44.92713
0.8403602,45.339436
0.84617865,44.659653
0.838947,43.72819
0.82920194,40.0
0.75346535,40.0
0.6592776,40.57643
0.5795158,40.928085
0.6338953,40.0
0.5734179,40.0
0.6268149,42.502445
0.48324588,40.0
0.56362665,40.335686
0.4917848,40.0
0.40547252,44.55669
0.42992696,40.0
0.51462907,40.859215
0.52224064,43.89837
0.43142682,48.38019
0.5598503,45.652958
0.66456026,53.727627
0.7243168,50.48797
0.7022589,54.69407
0.9263023,57.704136
1.0508834,57.777313
0.985826,59.316704
1.0433218,64.77354
1.2488695,66.39047
1.2716618,72.89744
1.413768,69.63594
1.3971269,72.53199
1.4250854,76.97606
1.549183,79.59497
1.6062868,76.13359
1.7684132,83.14702
1.866237,84.173164
1.7146447,83.87176
1.8482358,89.01229
1.8113995,91.4446
1.9083463,94.429214
1.9665128,90.86554
2.030193,93.394424
1.9405022,94.95483
1.9728031,95.782196
2.0029356,94.16142
1.9735559,94.906075
2.0062075,93.61025
1.8875252,102.85571
1.9135718,100.37025
1.8695621,100.325966
1.8960485,98.88901
1.8476676,97.939766
1.9558274,99.52492
1.8277017,102.83449
1.8952582,100.43219
1.7810295,97.92749
1.6808915,97.301834
1.6674926,93.37088
1.623098,93.298515
1.679733,88.5173
1.706775,91.61631
1.7161715,89.1765
1.661678,90.656944
1.6653817,83.11037
1.5064242,84.768166
1.6085703,87.2872
1.4903674,85.185005
1.5403422,86.82263
1.5255468,82.412766
1.5320559,81.69003
1.5273814,80.77924
1.4883885,78.91143
1.3645501,74.81165
1.4091004,79.16489
1.4556704,76.25577
1.456707,75.0265
1.4581708,74.7571
1.2858825,71.51765
1.4067932,68.64026
1.3629597,66.38816
1.2648636,64.169304
1.1309105,67.02489
1.2058477,60.02772
1.1211503,61.335594
1.0905024,61.053974
1.1328274,58.294937
1.0417906,60.968857
1.0058149,54.93157
0.97859627,55.490707
0.95006305,51.43424
0.9207867,51.144352
0.90241385,49.554066
0.9624136,44.80551
1.0070688,52.221863
0.8182598,45.906353
0.9520984,46.306427
0.94226766,46.249367
0.86520594,46.38549
0.89027476,45.327534
0.7983441,40.0
0.87613755,41.29857
0.88480204,40.0
0.81887156,40.0
0.69701797,44.112595
0.72318095,44.07419
0.67991704,40.0
0.6987948,40.0
0.5942713,40.0
0.54664963,41.019432
0.5737966,43.8384
0.6064638,40.0
0.55400735,40.0
0.43823627,46.04101
0.46373564,42.683674
0.60687864,44.713863
0.49886018,48.61407
0.5987969,50.70299
0.6140243,48.647915
0.7429592,49.807037
0.69053924,55.308647
0.7541577,57.962337
0.84509856,57.81036
0.94904345,60.261932
1.0318805,65.74949
1.1218956,63.421284
1.1839055,65.27662
1.3342357,71.23206
1.4844058,70.38139
1.4074775,75.83709
1.5450268,78.225746
1.4622474,81.48829
1.6361827,86.00759
1.6270158,82.67074
1.7357397,84.67509
1.8063605,92.41934
1.6831799,87.66362
1.826837,97.368614
1.8648498,93.30494
1.8989542,95.6999
1.8512756,93.98494
1.8694242,99.84274
1.7703449,101.81651
1.838891,100.73772
1.8250412,97.71227
1.8521917,98.24942
1.8700913,98.674866
1.8413944,102.121735
1.7716565,101.370224
1.7444388,100.88869
1.8134562,97.66416
1.6693472,102.0376
1.7091172,96.49537
1.6490313,98.31266
1.5462017,94.90736
1.5366683,100.2607
1.5443586,96.73452
1.4539418,94.66209
1.611512,91.15987
1.4394187,85.59405
1.427619,94.18212
1.4319146,86.363
1.3798996,89.05093
1.2971474,85.72274
1.2747885,83.34717
1.3026155,83.40839
1.3600584,81.65071
1.155457,82.359566
1.3460896,77.309845
1.1949662,78.827805
1.173007,74.47371
1.1868944,72.15092
1.297227,72.13746
1.2049707,74.86908
1.1992278,72.08512
1.1517799,72.54876
1.0323695,68.01141
1.1053464,69.51937
1.0325398,63.124966
1.0118397,62.30762
0.9264953,61.112907
0.8253794,64.051544
0.8409145,58.66779
0.8699601,60.61866
0.7723983,62.15471
0.7027747,59.97821
0.68513674,54.939503
0.84004533,53.449352
0.67619616,50.605343
0.6286705,52.259964
0.5997824,52.287827
0.65659636,46.843506
0.6470435,45.860023
0.6950523,44.658157
0.68049926,44.531624
0.47760946,45.890766
0.55997723,42.676468
0.514687,44.877625
0.5134219,40.0
0.56408477,41.103867
0.5656975,41.12836
0.554265,40.305584
0.5230221,41.643764
0.36414093,42.04923
0.35186216,40.0
0.35960716,40.0
0.45185715,40.0
0.26621664,40.0
0.41233635,40.0
0.14439018,40.94789
0.13645987,46.83035
0.21867272,40.0
0.120589525,43.927006
0.26513553,45.58495
0.07552568,44.98325
0.26644728,52.360294
0.32134226,49.583595
0.433239,52.736828
0.39774138,62.705925
0.4511932,52.50177
0.62139916,57.498795
0.66631055,63.09578
0.738052,62.569435
0.83679795,63.935013
0.90017486,70.38194
1.0323347,67.94487
1.2050259,72.1499
1.0973052,76.58081
1.2785661,79.742805
1.235357,81.26184
1.3558817,83.62211
1.4331203,87.66972
1.4513884,84.91998
1.4795014,89.04575
1.4708736,94.6025
1.4309012,91.90162
1.4708604,98.65661
1.4794222,92.238754
1.4485,98.21385
1.506452,97.809105
1.4921198,91.952286
1.4547946,97.50682
1.4879272,100.804955
1.4763621,100.01979
1.5153828,102.42696
1.4331813,100.72987
1.423903,99.10879
1.4786534,100.82048
1.333608,96.94069
1.357549,100.07209
1.294465,96.81571
1.3239472,96.96087
1.165666,96.5784
1.2125865,95.40711
1.1996721,96.86732
1.0428687,91.65654
1.0625533,92.56256
1.0136384,90.05934
1.0172389,90.12707
1.0565637,88.65377
1.0422778,91.93353
1.0240754,85.77472
1.1087888,85.95675
0.98083,79.55022
1.025001,79.78812
0.90951896,79.42991
0.9336017,81.02314
0.90958863,85.36586
1.0232701,76.71339
0.92456174,76.761665
0.82522094,69.972015
0.9338655,71.029625
0.80348724,71.90048
0.7130632,74.129135
0.77720785,66.803085
0.7758778,71.063484
0.6486024,69.12426
0.68018425,60.828323
0.61393154,64.074326
0.6237365,64.050514
0.5221279,59.854645
0.4473141,55.83777
0.4356639,56.114628
0.38863143,58.21814
0.3502441,54.23657
0.34980115,51.555824
0.3872062,50.35612
0.365522,51.395794
0.3237564,50.115585
0.3490577,43.777813
0.3338249,52.545776
0.37119758,46.982113
0.4546682,44.525738
0.36684445,47.086784
0.3179038,40.0
0.31191587,41.124027
0.29680666,42.6092
0.28790575,40.0
0.12684046,40.985558
0.22597004,40.0
0.12625426,40.0
0.18975793,45.894787
-0.05786319,40.0
0.114147,40.660908
0.041151874,40.0
-0.028516235,40.0
-0.018143406,40.0
-0.041154657,42.51813
-0.08874856,41.32636
-0.010727585,42.177082
0.019044688,45.15796
0.015596905,46.471313
-0.018944584,54.580757
0.12816778,52.30205
0.13637288,51.05214
0.19136769,53.10091
0.21993747,60.209827
0.3835353,57.702705
0.49035692,59.054165
0.48952204,60.404778
0.5343804,66.72352
0.697135,72.83924
0.87543243,69.19
0.86094815,75.46752
1.0021071,77.26539
0.9643981,77.79317
0.9392887,81.759705
1.2323304,80.91209
1.2686741,85.44832
1.1684667,88.190956
1.2328752,94.31506
1.1895931,87.8713
1.420477,93.517265
1.2673912,96.35992
1.4699811,100.06351
1.4397761,92.73614
1.4439772,95.83534
1.3929379,97.05247
1.3330238,97.94095
1.3904823,99.404015
1.3852755,101.65797
1.3568666,95.084015
1.2734083,100.035675
1.2827226,100.80638
1.1293561,92.66686
1.2752631,101.97872
1.3964062,103.34887
1.2637408,100.14724
1.2651414,99.472626
1.2422513,96.39892
1.0644882,88.69594
1.0352646,94.71403
1.1752342,96.86998
1.087394,91.59039
1.1495212,87.574905
1.1120802,91.27212
1.0428582,89.358315
0.962633,92.48523
0.9346289,89.89859
0.9434572,86.56153
0.9940876,88.843666
0.80729556,80.68316
0.956129,82.84206
0.9065801,76.51785
0.97170675,78.55608
0.95508933,72.59678
0.9106147,77.07162
0.85130906,75.22743
0.9293661,71.993454
0.79049593,75.601814
0.9238464,70.119865
0.8607089,64.851074
0.6301083,64.80166
0.73081267,67.88269
0.66532165,67.574135
0.6831601,64.61548
0.55949724,59.817657
0.5399242,65.91863
0.49055195,60.176495
0.56072414,59.951332
0.5360279,58.51529
0.4158953,56.043537
0.4934326,50.22745
0.3447402,50.09722
0.4430638,54.16347
0.4710056,53.80946
0.42383873,48.06974
0.40249816,45.33906
0.47693706,47.614754
0.40815553,51.439705
0.429287,42.629337
0.37843466,43.335136
0.4617537,43.096115
0.47031772,40.0
0.46363685,41.02863
0.35073587,40.0
0.29253474,40.0
0.3081483,40.0
0.29365253,40.0
0.24222119,40.0
0.22871053,40.763836
0.237957,40.0
0.17562015,42.39133
0.080287576,40.0
0.16868034,41.07296
0.12487381,40.680683
0.11466223,42.920143
0.25291085,46.199432
0.13082771,47.442413
0.3164574,42.0267
0.17685375,52.890987
0.22407192,52.96733
0.33274508,53.877544
0.47128406,56.343014
0.48207167,59.444683
0.666985,57.88287
0.63387346,59.99039
0.78297925,68.10634
0.81777894,66.24267
0.91981477,65.42833
1.0060109,73.87585
1.1233747,74.74629
1.2359408,72.89994
1.2598586,76.50504
1.2730572,80.163925
1.3540665,81.47101
1.4736031,85.90192
1.4952965,88.54747
1.4464428,89.38936
1.4635279,92.13852
1.6191015,91.01366
1.5800056,99.32222
1.5852054,94.58728
1.6415124,97.23555
1.4455142,99.89746
1.6051844,98.04418
1.7182161,102.08948
1.7931621,101.74132
1.6810064,97.2338
1.6636413,104.94418
1.6339936,99.61412
1.4821441,99.345215
1.5769781,99.68301
1.4458791,100.6995
1.5521278,95.195496
1.4160305,96.01225
1.4703299,100.68488
1.4042165,96.90848
1.4430695,98.28436
1.4848877,91.88229
1.2955507,90.72272
1.4112207,98.36916
1.398998,89.33373
1.3705999,85.70056
1.3698212,92.49292
1.2298887,86.86489
1.1513973,86.957016
1.3006172,84.01927
1.2324812,83.90765
1.2491122,83.093025
1.2451762,86.0829
1.3000461,72.818634
1.344461,74.4836
1.1609838,76.67167
1.2556571,76.10815
1.2217244,78.13779
1.1353745,73.4539
1.1217011,71.13869
1.1407568,62.986477
1.0556288,70.33609
1.1422431,68.90391
1.0089898,65.65104
1.0052261,66.52003
0.9233148,59.762493
0.9038764,62.40353
0.956997,56.68939
0.8030113,54.967003
0.863078,55.074795
0.7902488,60.034966
0.8254898,56.10196
0.7350297,51.95274
0.8082062,51.822605
0.8204554,52.14471
0.7272614,47.15218
0.7634937,47.411354
0.776988,45.320827
0.802913,44.505817
0.73573774,42.94481
0.7638467,44.83251
0.7790895,40.0
0.6902063,43.97008
0.6791542,40.0
0.74879575,40.0
0.6904143,40.0
0.6689136,43.174503
0.6124521,41.577137
0.5890845,40.822002
0.6111366,40.701313
0.60310096,40.0
0.5255664,40.0
0.36254212,40.932243
0.4099831,40.0
0.31000423,40.0
0.44373843,40.0
0.42600545,40.0
0.32977173,43.94937
0.51498294,48.05064
0.56046414,46.18278
0.5173722,49.282692
0.74161136,55.925407
0.7227643,54.48949
0.86646295,55.128815
0.7884092,60.30717
1.0397619,64.35206
1.1690588,63.39048
1.0526392,64.19942
1.287704,67.696526
1.3515537,71.79267
1.4803262,68.78993
1.5004423,77.858894
1.6004343,77.0867
1.6083113,76.11829
1.5499458,85.053085
1.6988343,86.613464
1.8018277,86.69748
1.6376032,89.02358
1.846,91.76241
1.7550753,90.25906
1.8657131,92.39299
1.8766259,96.063194
1.9833453,95.16917
1.9548963,99.59617
2.0038605,99.662605
2.0453305,98.38462
1.8554052,97.85866
1.9012716,101.04449
1.9953407,99.38689
1.9385219,97.237785
1.916965,99.07094
1.789158,99.863335
1.8210586,104.278915
1.8226035,98.823845
1.8093742,98.14859
1.8042289,98.22174
1.78499,95.87991
1.7703063,95.54698
1.7400565,94.69458
1.6570276,89.951324
1.6715561,89.3706
1.5848088,90.84477
1.646813,92.45557
1.6109208,89.77394
1.4453428,87.82405
1.384159,83.768135
1.5764312,89.55604
1.5289857,85.55533
1.4805902,86.190186
1.4896244,81.130974
1.4239461,80.838715
1.560354,77.75979
1.3886203,79.41308
1.5273075,77.39261
1.4434993,74.351746
1.3912091,74.6652
1.4214753,75.06347
1.396748,67.846725
1.2814919,66.56336
1.254147,63.80475
1.2645103,66.84892
1.275992,66.078316
1.0170022,63.189983
1.1273955,66.24984
1.1108793,59.345463
1.0267036,62.89869
1.0927635,59.57272
0.99903774,58.981506
0.93258524,51.435707
1.0345448,55.2816
0.8757415,50.90616
0.8600729,50.706264
0.9227054,48.866146
0.9599352,49.388454
0.8785592,44.92601
0.9065496,46.15502
0.9837148,41.965015
1.0264349,48.818233
0.7976957,40.921146
0.87017846,48.345146
0.9565591,41.701893
0.9259658,42.135773
0.8811123,40.0
0.71738285,40.0
0.83575815,41.90209
0.71503085,40.0
0.7433485,40.601044
0.75227666,40.0
0.5806472,40.0
0.60071725,41.17436
0.521538,44.059982
0.49855265,40.046314
0.5533359,45.554882
0.61021566,42.2723
0.52783614,43.17433
0.5848065,44.536114
0.5157769,41.32273
0.60568005,51.95182
0.6843905,49.226532
0.875122,55.528633
0.8406656,50.147583
0.9747315,57.45139
0.8579263,59.032436
1.1244539,60.835537
1.1886406,67.576324
1.1991267,71.64
1.3066926,71.55061
1.4581347,69.55587
1.5966563,71.8333
1.5406891,78.32377
1.6049682,78.92444
1.6906134,80.99653
1.7286178,84.49759
1.7568879,86.02717
1.7860708,88.37167
1.8496842,90.305214
1.904336,91.68905
1.8431282,93.22478
1.7437387,95.45155
1.8760418,97.862946
1.9526083,98.9142
1.9327474,100.56933
1.9450072,101.50143
2.0345201,96.60871
1.8840201,100.63536
1.961803,104.110825
1.791135,101.982574
1.8075445,101.54989
1.7884281,100.07487
1.7990385,93.79529
1.7210163,102.79266
1.7893647,103.03618
1.6476557,95.45685
1.7451731,95.48644
1.5692949,98.1944
1.636692,91.86077
1.5928975,95.373924
1.4551004,93.737755
1.4932563,89.20725
1.5108114,89.17479
1.3423048,89.09607
1.4532784,89.48982
1.3573453,86.34537
1.4918604,85.285
1.4406017,83.10032
1.3249921,83.268425
1.345437,82.120445
1.4577849,82.66893
1.3958628,74.75926
1.3400134,74.3156
1.4481916,72.458786
1.366011,73.13951
1.2726412,69.94997
1.0942676,69.1372
1.1396633,70.78847
1.1495053,69.577415
1.106162,67.38124
1.0975566,64.56534
1.165544,66.62395
1.0109261,64.69686
0.9647802,64.624146
0.8475958,61.78943
0.9021068,61.229897
0.8447662,59.101883
0.8401662,55.85094
0.8010956,54.65383
0.70397526,54.270237
0.7139824,54.186863
0.7724142,49.524853
0.70854044,52.079758
0.74656105,50.387474
0.7417134,50.625206
0.68861324,44.770847
0.7682286,41.253628
0.7242283,43.046883
0.6470848,43.112095
0.7472454,42.426586
0.810555,40.0
0.54879975,40.0
0.63663834,40.0
0.55966574,40.476837
0.5765267,40.741932
0.46107882,40.0
0.39206493,40.0
0.40862212,40.5232
0.30517584,41.21282
0.35134146,40.0
0.28729817,40.0
0.29535183,40.0
0.3010272,40.0
0.15856498,43.60244
0.2831746,50.825905
0.13486494,44.653797
0.36965948,45.80246
0.32966772,50.345333
0.3003061,50.965084
0.4440264,50.13847
0.5485218,53.04605
0.53473926,60.149937
0.6138737,59.805183
0.7981588,61.192192
0.92876405,65.95326
0.9311704,67.788445
0.8398596,71.47514
1.1019535,69.56586
1.1696062,78.38846
1.178943,74.43242
1.2815135,83.42863
1.2895336,83.01294
1.3722757,90.34656
1.5238022,85.87852
1.5218242,85.20461
1.4231228,87.489395
1.5960745,88.761665
1.6382833,92.783
1.5596645,92.8115
1.4189049,96.71399
1.4097245,96.93137
1.5674355,95.4626
1.3965249,100.04356
1.5897928,99.042534
1.5970356,97.88472
1.6039644,97.740555
1.4734322,102.21973
1.3919464,100.54964
1.5326976,100.95558
1.497308,101.760445
1.3625567,104.9153
1.3810525,97.412636
1.3876661,99.675865
1.413564,99.02667
1.2022655,94.995735
1.3076814,95.024734
1.1571344,91.96643
1.1863109,93.45089
1.1828187,93.769135
1.1644635,87.587105
1.1914473,89.615364
1.081999,89.6817
1.0730746,90.793785
1.0708463,81.253105
0.9727352,86.47062
1.0393335,85.03501
1.1336968,80.49275
0.99345803,82.49628
1.0342412,80.00456
1.0224301,82.9703
1.0157298,78.6509
0.87532383,75.355675
0.85227954,72.74879
0.9341092,75.53634
0.773491,72.68043
0.8354645,70.82514
0.84294045,71.647316
0.7655681,69.76872
0.8013732,63.273674
0.7803605,61.412872
0.6342144,61.09111
0.674339,62.167294
0.6721927,59.770706
0.44374964,61.822838
0.4910967,60.5912
0.43091747,54.6332
0.29672655,55.3572
0.40522432,51.724712
0.36418208,46.21962
0.26909313,53.966915
0.45349908,50.634357
0.31095505,47.87352
0.33939108,48.76147
0.33048287,43.412247
0.3365548,47.731377
0.4392907,43.822197
0.30551258,45.316704
0.2903434,44.37399
0.30346453,40.0
0.30411172,41.45791
0.31093323,40.563477
0.17141037,43.25533
0.18225643,42.656902
0.12034555,40.348755
0.11239847,40.0
0.08887002,41.7972
0.07364298,40.0
-0.036888894,40.0
0.011435905,40.0
-0.080088876,45.15674
0.010777428,40.0
-0.00062616065,40.119747
-0.059666667,42.498363
-0.018044211,45.153343
0.030424187,50.385963
0.08223681,48.50457
0.15090464,52.71032
0.2037755,55.131054
0.2295801,50.863937
0.30604702,57.671814
0.4260599,58.065365
0.60658365,62.938293
0.59388614,64.81642
0.63135105,70.19734
0.760723,69.97524
0.9743575,76.05455
0.7565101,75.38401
1.0971446,81.19629
1.104028,76.285484
1.0998931,86.10042
1.1965151,84.284805
1.1936506,88.147484
1.2549921,90.42756
1.2633158,88.81894
1.2415323,89.5932
1.3403624,97.065094
1.2375101,95.21483
1.2921207,104.94868
1.2792599,94.45761
1.3857969,98.01294
1.3748285,99.549255
1.4479084,96.6477
1.297091,97.682106
1.3000313,103.051636
1.2569877,96.208725
1.2823354,103.25267
1.3659936,99.27912
1.3261113,99.03832
1.224752,98.75561
1.3426676,101.404625
1.234906,98.14592
1.1403651,98.456726
1.0838861,93.42217
1.1536558,89.61979
1.0773392,94.26703
1.0592602,91.864136
1.0102023,92.93896
0.95223254,93.5069
0.9691195,89.61718
0.8496732,85.327194
0.8453533,85.60123
1.0674564,84.81288
0.98939395,85.85605
1.0199397,82.61292
0.9792902,77.082504
0.975935,73.81287
0.9621411,82.09586
0.96913826,80.02579
0.8272597,78.01327
0.8558241,72.905396
0.76502573,76.27075
0.77621806,71.80545
0.8228605,73.10388
0.8045648,69.42503
0.7929445,63.70813
0.6869579,65.72364
0.5702756,62.72448
0.63438517,64.22604
0.62452626,62.40174
0.55717593,62.016285
0.58891,61.19924
0.4585125,61.286194
0.41096783,53.32197
0.40001372,57.874393
0.45598015,56.594044
0.38048416,50.27572
0.46188557,50.410297
0.41513848,48.412525
0.35580122,48.563698
0.30482817,45.256634
0.3786062,50.479317
0.34592488,42.95216
0.4118557,43.719162
0.41512284,43.545254
0.3019178,41.38041
0.35472897,42.335445
0.3000921,42.016365
0.25452086,40.0
0.39479265,40.0
0.34881502,40.0
0.10005736,40.0
0.16516784,41.218727
0.22551106,40.0
0.063136406,40.0
0.042715468,40.0
0.026927337,42.519337
0.06561003,41.717834
0.12443688,43.27095
0.12722798,41.390102
0.0277752,43.958073
0.09409477,47.008747
0.082852125,47.117973
0.12552719,48.844425
0.33230484,50.96672
0.33428,55.315628
0.40950176,53.62527
0.5452302,57.25975
0.5815563,59.471542
0.51647097,57.552734
0.7036997,65.948524
0.871567,65.74978
0.9365616,71.4985
0.8991923,73.58159
1.0662298,75.468254
1.1506053,76.09331
1.3207986,81.33405
1.235448,78.81249
1.32283,83.142456
1.3711956,88.49276
1.3225814,91.18587
1.3254999,88.35514
1.4671702,97.13651
1.4449484,94.58578
1.5073518,96.3875
1.4595791,95.76218
1.592604,98.9229
1.5853361,101.938034
1.5613871,94.10255
1.6506836,98.86684
1.5093457,100.27325
1.5925498,99.82735
1.5402845,96.54002
1.5363835,99.921936
1.6251099,108.335915
1.5188707,96.76921
1.5257944,97.17602
1.4392097,98.694214
1.4034914,98.25813
1.413795,97.55097
1.423905,92.937195
1.3608352,96.53307
1.3203758,90.77527
1.3505132,94.482124
1.230686,90.96332
1.2481289,89.46822
1.196518,87.84399
1.2056916,85.50453
1.1167859,83.46599
1.2417424,84.77474
1.3130457,83.90943
1.1955748,80.026215
1.2259209,85.69232
1.234134,73.834656
1.3484677,77.31611
1.2143332,79.60697
1.1006664,73.268196
1.2049296,74.14781
1.158287,71.841995
1.158643,69.05983
1.0126445,69.73344
1.1510886,71.4428
1.1590216,68.82743
0.90873265,69.99782
0.90703857,61.307137
0.94383276,64.58597
0.8519328,66.285286
0.92749774,64.097145
0.8179045,59.341766
0.7173895,60.7247
0.90811926,56.999573
0.6075457,57.045033
0.74295837,57.021145
0.77660424,55.14769
0.7994155,52.92335
0.69884807,51.265095
0.6166876,49.92584
0.72427285,47.116756
0.8200922,46.859905
0.6714661,45.668545
0.7450726,43.742058
0.698269,40.0
0.8195087,40.0
0.7058737,45.06888
0.6683414,43.49215
0.7761267,41.778152
0.6716418,40.67159
0.6136546,40.721256
0.5867075,40.0
0.60538834,41.341286
0.5428789,40.0
0.43145353,40.861153
0.55711555,40.0
0.47008437,42.975197
0.40940782,40.0
0.44489965,44.169014
0.46988088,43.521965
0.43798903,45.81658
0.53004664,49.33572
0.4189006,44.612473
0.61445135,48.244427
0.5115792,51.243946
0.61781514,49.383533
0.649524,57.03
0.7818356,56.26663
0.87784415,60.038445
0.95202583,61.923508
1.1645005,61.516674
1.0623008,67.82849
1.201833,65.861946
1.2789705,69.391846
1.3503289,74.3269
1.5234278,76.749466
1.5910462,72.836555
1.6394562,77.14649
1.5897368,82.11065
1.7400848,82.13434
1.8211858,88.40007
1.7238613,88.07596
1.8224092,90.21446
1.8446468,92.60473
1.9657313,99.84041
1.7645817,95.3579
1.9945817,96.79811
1.8691957,101.58146
1.9082255,97.437485
1.8752116,98.28137
1.9251044,102.39637
1.9299151,97.80401
1.7957186,95.52681
1.8968871,100.60494
1.8757426,96.05874
1.838145,98.695595
1.7949268,100.03478
1.7984068,93.03004
1.8067316,97.44712
1.7760252,94.86048
1.6953233,90.228714
1.7181225,91.6084
1.680348,93.79239
1.6105887,93.87392
1.6829016,91.49124
1.541848,93.465195
1.5874292,92.25207
1.6207482,91.93131
1.5095965,87.55705
1.5118256,87.05513
1.335074,82.30952
1.5293714,84.46709
1.4820225,82.2705
1.4784999,83.11462
1.4873303,77.60382
1.3772103,81.667465
1.494998,76.98265
1.335657,79.14267
1.3528152,77.72297
1.4183068,71.892006
1.339283,70.16443
1.2942419,70.16274
1.37226,66.22992
1.3017392,68.417915
1.1934291,67.23991
1.1825285,65.663734
1.2083381,62.825558
1.1611481,59.604374
1.0865495,59.327717
1.0187789,63.035995
0.9729448,59.75051
0.90221715,59.058002
0.90572447,55.73244
1.0428017,52.541656
0.8257104,52.724064
0.9308962,49.508934
0.9143635,50.720047
0.9110089,46.08756
0.97142416,45.996185
0.9077046,49.752464
0.8873631,48.73152
0.9485646,40.87089
0.88398683,41.722992
0.99862736,42.381165
0.834668,43.973377
0.85366005,41.848118
0.8974774,40.0
0.7514401,40.0
0.7134409,41.32943
0.73911095,44.414898
0.65070343,40.645256
0.79177296,40.0
0.58899647,42.350792
0.4587093,40.0
0.54538053,43.895958
0.5859668,40.0
0.34432927,42.37175
0.70080495,42.976227
0.61141723,45.646626
0.6144056,46.192127
0.6534738,46.101604
0.5798407,50.041656
0.61484873,53.791367
0.7529157,56.20762
0.79917955,51.000538
0.8961056,55.877804
0.9784544,60.72508
1.1627346,65.86073
1.1485156,63.35914
1.2241093,65.86353
1.3818327,69.60466
1.4365537,69.62207
1.576757,74.792915
1.5582598,79.15057
1.5677172,82.75828
1.7100825,79.889015
1.844101,84.125244
1.7679096,87.27501
1.7167513,86.33314
1.8364123,85.94771
1.8243947,92.83015
1.8219825,92.11492
1.8876033,90.33831
1.8758833,93.4892
1.8189862,98.74498
1.9014628,96.675285
2.0145118,99.55853
1.981752,99.17065
1.9398649,103.88489
1.9697143,101.664986
1.8653095,103.7779
1.928211,100.28092
1.836241,102.43641
1.7463213,95.1483
1.74709,96.71082
1.7296124,95.2685
1.729819,103.06446
1.7107123,99.87099
1.5430413,96.45532
1.6354088,97.01309
1.6982901,98.58073
1.6138204,93.130775
1.5088319,84.69389
1.6670231,93.59032
1.4681566,91.7807
1.4394249,86.40744
1.4603133,87.283646
1.4886085,85.62527
1.4081249,86.07914
1.4509381,83.75657
1.3217255,81.07135
1.415682,82.65785
1.4251052,81.60042
1.3463402,75.403206
1.3686547,75.01483
1.3457505,73.263985
1.3035171,73.268684
1.2291093,74.38459
1.2163439,72.112724
1.1871169,69.43568
1.2356128,67.96046
1.1488621,66.674934
1.0840274,64.51363
0.9616268,59.784218
1.0380175,63.38819
0.95913804,63.172176
0.88414514,59.097553
0.8550689,55.701576
0.78522074,57.85573
0.79260033,53.782917
0.7591227,54.469723
0.82321167,52.41112
0.6521895,50.759586
0.7355069,51.33521
0.6855007,46.63789
0.6584154,49.76833
0.69244003,47.486763
0.6339342,41.09037
0.768763,41.732807
0.7650216,44.26914
0.7274509,42.751053
0.7510297,44.488205
0.7433704,40.0
0.5492171,40.0
0.4780136,40.0
0.5782241,40.0
0.60103893,41.279026
0.44905543,40.0
0.44154942,40.0
0.5265966,40.0
0.3220216,40.0
0.29143557,40.0
0.27302822,41.642723
0.20241144,40.0
0.3377878,44.05364
0.2992235,49.065266
0.32153136,40.0
0.34995636,50.123318
0.49217713,45.429413
0.43001652,44.780746
0.4362231,50.247776
0.6169028,53.68683
0.6574941,53.42601
0.72973853,55.88585
0.7007922,62.276333
0.7391227,65.22915
0.7957149,67.453384
1.0771589,68.62338
1.0678662,72.805954
1.0888458,74.541275
1.2243493,79.23737
1.3727459,81.04758
1.4543843,77.12211
1.3971503,83.943146
1.5036162,85.80821
1.4866819,87.18368
1.5965122,87.08026
1.5598007,90.14408
1.5632879,89.53229
1.4401253,91.589355
1.578842,98.41389
1.636831,96.26292
1.7347696,97.18647
1.5985982,98.73776
1.5308739,102.10126
1.6410725,97.9994
1.4527411,98.68647
1.5668967,97.803474
1.5617975,98.2328
1.5853616,103.18924
1.4962019,97.42341
1.3974364,99.337585
1.3615891,97.84049
1.4498265,96.516655
1.3985496,95.256584
1.3458834,97.49752
1.316636,96.47706
1.2864052,95.72139
1.2951899,95.32401
1.2460924,94.74958
1.1867114,93.07799
1.1737463,86.97956
1.1788319,92.405205
1.2482183,93.05104
1.0944625,86.05696
1.0614076,82.55357
0.9958928,84.23634
0.98370177,80.43424
1.0675819,82.08579
1.05819,80.17636
0.96185005,78.30365
0.9911971,72.12143
1.0456474,76.429474
1.0192506,74.596596
0.9375791,70.26787
0.92645705,71.02478
0.84102523,66.94221
0.84727263,68.39656
0.8832839,65.451996
0.7039884,70.28513
0.6882483,61.001995
0.6655017,61.297623
0.67522496,64.351585
0.4837163,59.59223
0.5205143,59.071022
0.56793976,55.78899
0.569542,53.431488
0.49443778,54.560833
0.44977236,50.023666
0.4008445,53.598972
0.4089359,51.856308
0.35569328,44.944557
0.42451733,46.437748
0.48981318,48.285202
0.3855393,44.788223
0.30806202,46.250824
0.34707442,46.208138
0.397919,45.107998
0.35856596,44.53299
0.34191313,40.935806
0.2959954,40.0
0.30341905,40.0
0.23593387,40.631596
0.27857605,40.18765
0.29527792,40.79871
0.113363266,40.0
0.17535706,40.0
0.13527244,41.994396
0.10244319,40.905422
0.0042744856,40.0
0.006675522,41.35762
-0.10128365,44.347008
0.0048811827,47.013645
0.07873734,46.84734
0.0036090193,44.229874
0.03380909,49.36312
0.11273196,49.854286
0.22325242,55.54946
0.22924227,56.432842
0.24151371,57.817318
0.40940258,55.040546
0.45079574,62.01864
0.5660828,67.006454
0.6696472,69.80765
0.7051211,66.0582
0.8448385,71.17423
0.8620597,73.22174
1.0283607,75.72171
1.0362061,78.079735
1.0718348,82.09325
1.2580081,83.89921
1.0347892,85.46811
1.2477725,90.75896
1.3252932,92.613304
1.2588003,90.39233
1.2736542,96.25846
1.3861381,91.49178
1.2479689,101.048584
1.3030344,100.07607
1.3613777,102.056755
1.4693116,95.104675
1.3965955,99.17136
1.411744,102.67464
1.3279876,99.43365
1.2396001,99.69041
1.4006729,100.80382
1.3265941,104.03402
1.1788872,99.62324
1.1249967,101.042946
1.2191719,100.171364
1.1760577,103.24853
1.237443,97.13
1.0845693,98.041405
1.1102016,96.10702
1.1261235,96.837944
1.153778,92.75755
0.9893401,93.835884
1.0649095,94.62668
1.064787,87.27303
1.0515457,84.930756
0.9874174,90.20167
1.0744774,84.53438
0.96763456,89.395226
0.921128,80.64354
0.9303391,84.78678
1.013061,80.898155
0.90166795,77.49873
0.91575384,78.26008
0.883407,79.42369
0.91370034,74.64972
0.8263244,72.48703
0.93035984,77.282104
0.82349676,73.51152
0.7364609,71.029594
0.73539615,71.47384
0.7437176,72.05983
0.69081926,64.68417
0.64910096,66.25762
0.5354994,64.222664
0.59627694,65.24271
0.5016936,57.80176
0.5236639,63.49672
0.53047246,53.403122
0.40854892,57.51711
0.3421255,48.85992
0.3487058,56.327473
0.44986695,55.699738
0.32396302,53.986393
0.35930452,54.630863
0.4130111,44.731407
0.4819304,46.388794
0.39160177,47.756756
0.24738903,44.98406
0.39885303,41.779686
0.39774445,44.957985
0.3307174,44.249302
0.2968623,40.0
0.34283346,47.738846
0.36571273,40.0
0.31682837,43.850006
0.22194222,42.74661
0.31137234,40.0
0.19718416,40.0
0.19110264,40.0
0.076595046,40.0
0.07291239,40.562195
0.020361068,42.364635
0.11762357,40.0
-0.055307426,40.14711
0.050480984,40.0
0.0938197,40.769
0.025308343,47.117405
0.16207159,50.911385
0.1109558,49.681473
0.17300864,48.463585
0.2359156,54.991673
0.38083446,54.23039
0.40101773,56.861507
0.47306785,57.771507
0.5637487,61.206276
0.66953987,62.895214
0.73907095,65.31683
0.7826941,73.21644
0.9936529,73.374146
0.9888982,73.79125
1.1189557,73.05491
1.2315396,78.76676
1.2262522,81.6774
1.3303132,83.236755
1.398239,86.001
1.3781393,87.8976
1.4508175,88.05391
1.3625022,92.713524
1.4376044,90.00383
1.553832,91.782616
1.482422,94.20919
1.5760052,96.15019
1.5159184,95.550934
1.4277673,96.75227
1.5925686,97.41393
1.5924948,100.62397
1.5881013,104.65715
1.5163385,99.58245
1.5988915,101.71693
1.4877211,101.96031
1.4763331,97.26144
1.414055,99.60066
1.4922365,96.31142
1.4734728,96.72791
1.4277836,91.66939
1.3073096,96.4681
1.2671187,94.99748
1.4116176,96.46524
1.3986319,94.468864
1.2215568,96.15041
1.1636633,88.37719
1.1455836,92.67749
1.2734259,91.35144
1.2007949,89.11003
1.1198086,87.98066
1.3083289,85.27566
1.1866846,81.61222
1.1241477,79.109344
1.1044493,76.469215
1.0445644,81.57935
1.1201442,74.06691
1.0641466,78.34763
1.1577475,73.99842
1.1750793,73.51907
1.0545487,68.69607
1.0300456,69.54396
1.0306523,67.46679
1.0491189,68.701706
0.91295195,68.03311
0.87601197,65.48868
0.9630533,61.855267
0.9424382,64.21388
0.89086413,59.32922
0.82818437,63.408607
0.7284898,60.27539
0.7258736,57.604843
0.6274598,56.351547
0.77375185,55.27775
0.7646517,49.6073
0.566289,47.968754
0.4901264,45.52266
0.76176816,49.054638
0.7216954,43.104042
0.63024473,48.05507
0.6707773,41.904125
0.67091185,44.64705
0.701498,46.25146
0.74258643,42.20996
0.55923647,40.251347
0.6990756,40.0
0.6311961,40.0
0.60770196,44.10307
0.55949575,40.467663
0.50451916,40.0
0.58247817,40.0
0.47848648,40.0
0.51115525,40.057404
0.47456583,40.0
0.41295448,44.186398
0.43814352,40.911022
0.39118254,46.16732
0.4089404,42.479794
0.33184096,41.61349
0.33722955,41.717873
0.42224216,43.446205
0.48171926,48.904827
0.5133566,50.406197
0.6118883,54.55842
0.6128937,54.27641
0.705001,60.704353
0.87995416,56.322586
0.96662784,54.59365
1.0555469,63.976013
1.0931178,69.65046
1.1042821,69.20271
1.2337266,68.85021
1.2887117,75.16355
1.3932736,76.84096
1.5082324,84.53392
1.6674097,79.45923
1.5933052,83.43735
1.668777,85.26108
1.7252862,89.42935
1.6255107,88.343315
1.7785858,89.9196
1.735819,89.15912
1.780213,97.10866
1.8381691,94.23943
1.7310445,94.94943
1.8956355,97.967766
1.9764502,102.5628
1.79152,99.30094
1.851712,99.48716
1.9496884,99.23153
1.9037423,101.75829
1.9422379,100.773994
1.9133515,95.22641
1.7572398,97.15214
1.8599141,101.25141
1.7770197,95.430855
1.7408619,105.16262
1.7287095,94.741
1.6153708,94.68451
1.5978593,94.715515
1.6584883,95.171745
1.5581456,91.508896
1.4740973,92.0151
1.6242592,89.50489
1.6618965,89.90387
1.5234611,90.963554
1.6046218,86.94044
1.4516282,83.84454
1.400692,83.95895
1.5475909,81.325745
1.3590424,78.44193
1.3861706,80.72257
1.4969587,77.20454
1.4281636,74.53829
1.4409592,73.980415
1.4455224,76.653336
1.4052031,78.525375
1.3950936,74.38066
1.3459114,79.216934
1.3945675,72.92621
1.3828819,68.09673
1.2931954,69.4206
1.3059168,67.14731
1.2298023,66.93229
1.0303357,60.587723
1.1565744,60.834015
1.0870812,56.380722
1.056447,62.23746
0.99791753,56.811703
0.93262386,60.106945
1.0818162,53.513103
1.0067116,54.412025
0.84678584,50.705948
1.027219,48.5277
0.8935166,51.433872
0.8329925,48.82638
0.8939297,51.001778
0.86491334,46.777325
1.0243988,43.65566
0.8511563,43.316223
0.8117661,41.991802
0.86185336,43.032543
0.81943315,47.11539
0.7925825,43.660057
0.8196957,40.70023
0.82361865,41.63238
0.7697765,40.397404
0.68993807,40.0
0.6647167,40.0
0.67470264,40.0
0.63849485,40.0
0.7514705,41.376705
0.59323525,40.0
0.6072524,43.11194
0.64575255,42.358013
0.62844133,41.53424
0.56711537,44.843857
0.5505495,44.419235
0.68759316,45.698734
0.6881171,50.278114
0.8489402,52.21003
0.85459083,51.462822
0.8582206,61.672005
1.0275558,53.79294
1.0266393,61.22602
1.1251466,68.29594
1.1383896,67.12372
1.2789426,65.60177
1.4244814,70.94727
1.3712432,67.74804
1.5210509,74.24135
1.6056645,75.20352
1.6699276,80.50452
1.7398108,78.41507
1.7574364,84.149475
1.7260442,85.90948
1.7685453,90.16597
1.8212961,87.88242
1.9885156,98.21399
1.9293525,97.30568
1.9695396,96.88713
1.8872428,96.35024
1.974001,95.94949
1.9310795,96.21734
1.8063064,104.17561
1.8733768,97.25168
1.818783,98.45818
1.896936,99.69661
2.014804,97.227295
1.9612081,94.7448
1.9413357,102.72996
1.8703126,100.80022
1.8547682,101.969574
1.7391365,98.62729
1.7367038,95.27551
1.6719099,99.398415
1.5756376,100.07523
1.6736103,95.42852
1.6223928,95.72064
1.5934075,92.40386
1.4934481,91.422295
1.5976554,90.241
1.5566,88.47528
1.4680856,88.27951
1.5385854,83.758316
1.547583,83.675674
1.5518008,82.3433
1.4149843,78.08025
1.404199,82.97217
1.3421681,77.62824
1.3720111,77.396675
1.4008125,79.81838
1.3484465,73.8261
1.4252214,74.28227
1.3857529,72.2093
1.272875,74.405914
1.3171108,71.92777
1.168378,68.21899
1.1648592,64.51746
1.2340885,67.979256
1.1645491,66.68608
1.0172904,63.819027
0.99064976,62.16848
0.97012025,63.79093
0.94497323,58.363716
0.9513146,62.555286
0.85520244,57.909454
0.80415434,57.913742
0.7977055,54.19041
0.7454219,53.509697
0.7540551,49.044197
0.7797523,51.636246
0.89722633,48.24953
0.8135015,47.71751
0.72600883,44.781456
0.7226165,44.068687
0.7485764,48.561363
0.78968644,40.0
0.72606117,40.08989
0.69724065,40.0
0.6217189,43.337837
0.69225776,40.0
0.6063495,40.783253
0.62792414,40.0
0.67514604,40.0
0.5279294,40.0
0.55495274,44.553127
0.4319358,40.0
0.4699438,43.723877
0.46308848,45.21279
0.40549728,43.31975
0.4023,42.04619
0.3867959,46.469746
0.38151494,45.838142
0.33728278,44.250553
0.3658921,51.469463
0.42067552,48.839508
0.39644343,52.83089
0.565198,55.997753
0.51433784,55.020805
0.65791994,52.82151
0.63689214,61.106148
0.82070255,61.993855
0.87890327,67.269165
0.93522984,68.95433
1.0681759,69.95443
1.1536069,71.90384
1.1683775,70.9174
1.3280076,77.52851
1.3623712,75.160934
1.3624709,76.76286
1.4205724,80.17077
1.5083693,85.59473
1.5625545,85.21091
1.5907745,86.32213
1.54148,92.80792
1.4906232,87.68596
1.649419,93.093285
1.5816672,94.64778
1.5287008,94.72414
1.6236471,96.92645
1.6058838,101.039986
1.5799893,96.602066
1.7461209,99.675354
1.6627003,99.028824
1.5612873,107.69045
1.5719339,98.87652
1.536505,102.52276
1.6176089,102.293526
1.605474,105.28103
1.5155903,99.591675
1.457175,94.39605
1.4573561,100.43516
1.387005,97.75366
1.3758948,97.140175
1.4115144,94.12768
1.3685031,91.7171
1.2778652,96.53959
1.2110777,92.14266
1.2008343,87.657074
1.125092,86.6897
1.0623556,89.266235
1.0304314,86.76193
1.0132807,82.91633
1.0215812,82.36427
1.1685979,84.48953
1.0925672,79.45193
1.0663797,82.73937
1.0367807,76.00343
1.0644103,79.61684
1.041758,74.85786
0.94070584,71.694176
0.89309907,76.637794
1.0461669,70.04999
0.92985576,65.31252
0.945171,68.27231
0.73554957,63.72941
0.85245633,66.9116
0.7617036,65.54416
0.61886454,64.43908
0.5962781,63.061905
0.44513863,59.37909
0.5464347,62.428345
0.54811525,58.023663
0.47200006,53.94344
0.51374316,57.36602
0.48807013,49.835056
0.4882557,48.397423
0.47039348,46.31361
0.46171364,55.068455
0.40062454,51.75425
0.38874674,47.10636
0.30804873,43.21809
0.5194136,47.272648
0.41109228,40.181786
0.30012205,41.65241
0.36682662,43.644886
0.36512688,42.21348
0.46051538,40.0
0.34806833,40.0
0.22727564,43.347218
0.29337725,40.0
0.1896701,40.0
0.15819287,40.0
0.041675955,43.564087
0.15140311,40.0
0.039220158,42.10112
-0.018398385,40.987602
-0.031982157,42.243412
-0.04069316,46.30623
0.061612044,44.177288
-0.013474385,44.41396
0.07059121,42.875813
0.14221789,45.351704
0.038131583,51.24225
0.17485163,50.20295
0.25739276,52.52201
0.35520777,57.75476
0.36284196,60.430733
0.57768935,58.618717
0.40271932,61.081646
0.6592012,62.97632
0.7768845,70.90555
0.7331117,66.474594
0.95346,72.35821
1.0303152,71.61497
1.0833097,79.6015
1.1253704,82.89542
1.1707512,81.359695
1.2208139,84.068085
1.2238971,88.840515
1.3825365,86.96559
1.3040503,95.46108
1.3778938,90.5652
1.427043,94.62643
1.3961805,90.8611
1.3663464,99.71104
1.339477,94.68272
1.5001292,97.527054
1.3979079,98.90096
1.4669421,98.35902
1.3112721,97.23897
1.4537413,100.09939
1.3044333,101.549
1.3607,105.934105
1.367969,103.57168
1.3033574,98.013176
1.1319965,101.8093
1.2275416,92.16185
1.226424,98.00615
1.1116499,97.34786
1.0920942,95.229866
1.1310939,87.81417
1.2010853,92.61021
1.0606251,93.05991
0.92120373,90.78529
1.0480634,93.26809
0.91656345,89.23969
0.8730166,88.57526
0.9246966,83.09364
0.9636586,81.66806
0.94424284,84.481445
0.84810466,85.81029
0.8541668,79.96394
0.9187935,75.33947
0.93940413,78.869934
0.8639302,79.64379
1.0733392,76.40257
0.79382384,76.724556
0.8303091,71.91111
0.77796525,67.494835
0.6597711,69.36145
0.75474924,71.82236
0.72190565,66.72824
0.73420304,68.86194
0.69958824,64.1277
0.5462485,63.49374
0.5267629,61.9186
0.5553404,61.730408
0.4517853,58.95307
0.51874,59.383972
0.43283325,55.198177
0.26764855,53.848534
0.38942054,54.266087
0.24219187,53.082893
0.46661845,51.284054
0.2513992,47.633595
0.4911581,47.371616
0.2592966,51.235336
0.2741211,50.757156
0.36546895,48.250423
0.31277055,46.321396
0.25327075,40.941288
0.37557444,44.211918
0.33363187,42.04384
0.27271342,40.0
0.33604845,40.0
0.29313222,44.493908
0.17050408,41.350883
0.26832658,40.619263
0.1537008,40.0
0.112526804,40.0
0.041829515,45.64673
0.01937806,40.0
0.008102375,40.0
0.035500564,40.0
-0.021945726,44.562557
-0.012660978,46.27916
0.018582704,44.32472
0.06805125,44.4669
0.03768358,47.530064
0.077089325,52.75438
0.17982855,52.110546
0.29247734,53.574223
0.29213196,57.13237
0.35869464,59.141632
0.49707356,64.63884
0.5722339,64.822075
0.68665475,64.14173
0.74771553,66.13523
0.81569374,75.48
0.93251586,71.96641
0.95847666,74.59103
1.0913619,77.92788
1.0606627,78.7025
1.2116684,82.209465
1.2334093,86.28468
1.3098271,88.89134
1.4584942,93.22155
1.3420941,85.867096
1.2381445,87.64008
1.4946344,96.9541
1.4561756,92.60219
1.4237742,98.80237
1.4681319,92.376205
1.4589627,102.22806
1.3582361,97.06912
1.5178976,98.62584
1.5102811,98.0119
1.4904869,100.16696
1.4058601,98.49012
1.4381399,99.70329
1.4453696,103.04399
1.3436762,96.03601
1.3310823,102.45714
1.370262,100.20038
1.3021036,98.55406
1.3074808,98.045975
1.4031327,99.46836
1.2608947,93.84952
1.2931693,95.235825
1.259914,94.03967
1.2430377,93.104065
1.2447305,91.77702
1.2487482,88.85363
1.1456466,89.03502
1.1076571,86.702515
1.2079191,83.999855
1.1465722,81.354454
1.183991,86.07199
1.1779457,79.164734
1.1291333,75.39103
1.151434,74.18356
1.2293854,77.47276
1.17331,78.53398
1.2127565,71.67428
1.0586414,71.91663
1.0448906,73.394646
1.0170738,68.76135
1.1095221,70.07187
1.0202987,68.33891
1.0201515,65.08662
0.8295693,68.3796
0.7954085,64.86199
0.7840588,61.0456
0.7677208,60.73897
0.78083146,59.237232
0.6437131,61.434288
0.78418857,57.40716
0.6418817,53.000294
0.6406469,53.39341
0.5882167,52.127525
0.59720075,57.794712
0.5484831,52.77405
0.6582853,46.500313
0.67086715,50.81054
0.59973973,50.035957
0.5880497,43.101948
0.6620313,42.542236
0.582988,40.693893
0.6152616,40.894993
0.69607633,45.4212
0.65118957,42.674458
0.6262141,43.63262
0.50912976,41.94356
0.46527168,40.49398
0.5012781,40.0
0.55947024,44.166878
0.40984598,40.0
0.35483518,42.680576
0.36784995,40.0
0.3731098,40.0
0.3420578,40.0
0.3321237,40.0
0.37222192,41.347343
0.37415096,45.312332
0.3719822,44.731663
0.42161995,45.279305
0.37394333,50.261337
0.4227896,50.829372
0.6109588,51.403023
0.597093,49.41542
0.6529634,54.141537
0.76461387,62.54672
0.8422573,56.89444
1.0431489,63.84512
0.95583165,70.411514
1.1376667,69.64511
1.1773113,71.00546
1.3960384,68.91423
1.3764836,72.50399
1.4810505,80.71399
1.5501808,79.14929
1.6055021,80.624275
1.5910683,86.921295
1.699243,86.69272
1.6836815,88.12993
1.770532,91.730125
1.6988308,95.153
1.7914455,92.846436
1.9253372,94.47649
1.7287707,101.27294
1.7484379,92.86893
1.8768171,99.68699
1.7632787,97.1045
1.8030587,103.76859
1.7578523,99.33457
1.9345406,95.10526
1.7005284,95.95451
1.7707764,99.08329
1.7235037,98.51357
1.7123581,100.90167
1.7907561,103.54923
1.7141385,97.939316
1.6693376,98.66589
1.6793894,94.938736
1.6690159,95.22138
1.6264209,94.28801
1.5441945,92.86166
1.570193,95.8389
1.6045107,98.41088
1.4997418,86.1379
1.4863359,79.79346
1.4887727,90.79197
1.4442431,88.486465
1.6301638,84.58447
1.4539475,83.22309
1.4162494,83.10639
1.4463564,83.78088
1.3768569,80.86089
1.4512851,80.21815
1.4039154,74.869965
1.3826305,72.58519
1.4334528,74.34085
1.3476808,74.006485
1.213299,73.42006
1.2695047,73.13574
1.2421786,66.33181
1.3272905,63.725845
1.3348726,65.74574
1.1832715,62.416878
1.1575447,62.01495
1.1586806,60.454006
0.9972953,64.0648
1.0828633,62.213226
0.97084004,59.05904
1.0618925,61.521233
0.948285,53.762806
1.0259988,53.905735
0.9068356,51.652046
0.9338266,50.900017
0.924308,47.678745
0.9029364,50.01718
0.9896417,48.549004
0.97339064,45.68026
0.8530368,42.28058
0.90811986,44.704704
0.8701677,40.0
0.85773814,45.252045
0.850215,40.0
0.9918462,44.05976
0.87932616,40.0
0.865562,40.84246
0.7196486,40.0
0.7189493,40.0
0.6787195,40.0
0.6377574,40.0
0.70399773,40.0
0.6505804,40.056408
0.60771304,40.42282
0.46830004,40.0
0.5752542,44.457108
0.62047124,44.18274
0.6058293,45.79853
0.6269639,47.815678
0.5935729,46.063004
0.653236,47.85107
0.7456963,54.90987
0.8012696,55.474957
0.89139843,57.023388
0.95233476,51.314377
0.96953905,57.076138
1.0692866,59.119263
1.1877319,63.45722
1.2582831,66.52473
1.4378008,67.92473
1.4006515,78.322876
1.4683772,74.86254
1.6126317,77.822716
1.6444919,78.33846
1.7762631,76.36355
1.7058469,87.74299
1.6357642,85.87593
1.8922334,90.300964
1.8253132,89.39534
1.9336585,93.46958
1.9238911,95.69088
1.9459225,91.15482
1.9160142,96.21523
1.9889537,98.41946
1.9420629,98.24292
2.0080519,99.71628
1.8993121,104.47272
1.9722226,100.344536
1.928213,94.17878
1.8501666,103.80384
1.8863423,98.91954
1.933862,101.36702
1.9726429,97.28875
1.9227935,98.6501
1.6355973,99.79592
1.8378212,94.29614
1.7671103,99.03531
1.6698633,97.60005
1.7113581,95.652214
1.6812804,92.3557
1.5735984,96.921555
1.5258403,89.38278
1.6830555,89.83355
1.4737597,92.24354
1.5245795,96.84967
1.4682761,87.35213
1.4622235,82.41685
1.4847986,80.32669
1.4371707,82.534485
1.490467,79.881424
1.4325173,81.35286
1.42695,81.668015
1.3767332,76.78891
1.2909594,75.207115
1.4009867,73.35073
1.3344306,74.10528
1.264067,71.59125
1.3366761,68.34345
1.2567532,68.33446
1.23169,66.79049
1.1508098,63.807316
1.1338158,61.694572
1.1371812,65.71786
0.98876745,61.74023
1.0513318,60.597973
0.9299946,58.31438
0.8889152,56.278267
0.96208453,61.202503
0.8634985,55.859505
0.9269102,55.373928
0.88335866,54.76913
0.7915318,49.63752
0.7984772,49.054146
0.8164559,45.160866
0.8205867,46.75942
0.7379694,44.404957
0.7814745,46.265327
0.7737891,43.705166
0.81439114,44.628387
0.8466802,41.786312
0.68088883,41.44966
0.751157,42.117916
0.76124686,40.0
0.6578436,40.0
0.53178644,40.0
0.6032098,40.562798
0.54279447,40.0
0.58203226,42.85077
0.41063082,40.0
0.48279718,42.486515
0.45374873,41.561737
0.46487436,42.24614
0.47073856,44.16784
0.3459499,46.664597
0.38759527,44.62586
0.41735455,46.478
0.36520815,45.25762
0.49593157,44.96917
0.51937777,52.36251
0.6399336,50.74577
0.71710265,53.82013
0.68479663,58.575523
0.83307785,58.13148
0.89491713,62.817413
0.9556378,59.825417
1.0741313,68.89987
1.1532109,70.1051
1.1405754,67.12046
1.2912678,75.908
1.4348799,72.65647
1.3175263,79.19892
1.4295237,80.85289
1.5030996,82.185905
1.4798588,86.78074
1.4531084,86.81052
1.5917153,89.99158
1.5804367,85.90166
1.7073015,91.74452
1.7105091,95.43275
1.727937,95.55156
1.7538311,95.39327
1.6821848,95.52882
1.6987793,97.97777
1.6869376,98.94688
1.7438655,99.84487
1.7196333,98.56013
1.6116446,101.60342
1.6988853,97.024864
1.6263072,101.34988
1.5609941,104.150795
1.4553139,96.77622
1.5511345,99.217125
1.5117822,96.92839
1.4692742,99.90402
1.3607296,98.53685
1.400727,96.39242
1.3519142,96.14896
1.3891515,93.28831
1.3058046,89.14719
1.2785974,91.5984
1.2375264,89.49998
1.1285418,89.26921
1.2360324,84.72219
1.1929119,87.7126
1.1548357,79.04269
1.1906972,81.88343
1.1272757,79.66077
1.0250491,76.890144
1.03756,75.689026
1.0137309,76.02159
1.1221368,73.85384
1.0173752,74.71291
1.0960308,73.752815
0.92124236,71.7774
0.97238714,75.02268
0.99152297,67.8128
0.809442,68.46757
0.9005075,67.313736
0.81191355,68.02823
0.8573969,63.443195
0.79246473,65.48466
0.74788594,59.55185
0.6512938,58.711544
0.54836816,59.139595
0.60340387,56.95072
0.5614948,55.798977
0.63992304,53.12203
0.5201466,52.606987
0.42801028,47.483883
0.55778,51.191696
0.5112591,47.405743
0.5525148,45.366695
0.46679074,40.0
0.43672505,45.03475
0.44453332,47.521843
0.48012972,45.384655
0.3823625,40.0
0.43921384,45.01239
0.4027812,42.139782
0.4209389,40.420334
0.33104312,40.0
0.36554646,40.0
0.26516652,40.0
0.28440738,40.600258
0.1322928,40.865887
0.31420454,40.86263
0.17440857,40.0
0.17441186,41.663223
0.08617624,41.326485
-0.0924812,43.401756
0.19484633,44.021194
0.115695186,45.61421
0.033783328,46.248386
0.036857944,47.20268
0.112523,46.055416
0.2123462,48.198692
0.110729545,52.78753
0.12143759,57.007305
0.35519135,51.892937
0.48625165,59.139584
0.5464016,58.361294
0.57253176,62.22451
0.74254274,66.972206
0.6674501,60.32255
0.8806536,65.69399
0.9191762,71.45191
0.98492384,76.261086
0.9803291,79.343895
1.0560619,80.94506
1.1828017,81.14703
1.2585156,82.81416
1.2830144,84.649086
1.3315009,86.158226
1.390807,94.90598
1.2437885,90.42091
1.3611772,96.12437
1.3761158,96.46093
1.4364287,100.13411
1.3578904,95.320915
1.4485748,97.42775
1.4042492,102.72361
1.4473333,97.6199
1.3833408,95.049225
1.3554178,99.0877
1.3640307,93.42141
1.3596301,100.711914
1.3012286,98.43256
1.2795286,98.02909
1.3083143,98.26325
1.265254,98.21652
1.2204492,95.88566
1.0846382,95.947105
1.20019,99.70317
1.1615427,93.88304
0.99041927,93.15374
1.0149251,95.45443
1.0731204,91.24036
0.9825204,92.008224
0.96739966,88.90366
0.9388366,92.21723
0.8778223,91.31557
0.7988179,83.07478
1.0355839,81.569885
1.0177265,84.80042
0.8976235,80.56135
0.93661135,78.00944
0.81524926,76.6373
0.87981045,74.930695
0.8059029,75.1506
0.9175236,74.96281
0.83795846,69.36554
0.8137055,69.86969
0.8409932,68.90953
0.7462232,66.33961
0.7236723,68.719574
0.7101358,66.01833
0.5770966,64.667114
0.5277409,61.30839
0.598039,56.723804
0.4933679,58.33532
0.46378362,60.727177
0.51685387,59.395523
0.26953018,54.55066
0.35604337,52.9529
0.3505497,54.965134
0.32627678,55.46532
0.3620562,48.088284
0.43853658,49.602184
0.26899102,43.533318
0.28782058,45.47303
0.3413857,44.51266
0.43012998,46.39263
0.30457714,43.052303
0.32549578,42.424957
0.40387523,46.677162
0.24520454,40.47856
0.24545887,42.66604
0.2822695,42.226994
0.2571057,40.0
0.084108666,43.924232
0.124098815,44.099064
0.074823625,40.0
0.13578781,40.53624
0.08635607,41.998833
-0.030771852,41.517105
-0.08642812,43.628933
0.05179597,40.0
-0.05620349,44.82328
-0.017161187,44.296753
0.06914661,41.435337
0.022652963,43.008198
0.11630319,49.332676
0.12760435,46.800957
0.08424805,52.736027
0.33668157,57.59304
0.2165564,56.390404
0.33591133,54.729595
0.35722777,58.214024
0.49314046,65.61057
0.6310902,69.79718
0.82062113,68.41719
0.8732695,65.829765
0.8577406,75.66931
1.1171056,70.523964
1.1166533,78.6725
1.0964034,82.62024
1.1873801,84.767555
1.0930804,82.80675
1.2558749,81.5882
1.3080585,88.1871
1.2539579,96.12392
1.3506887,92.538055
1.544723,90.159096
1.42299,93.64656
1.3918558,94.37797
1.5658393,95.62795
1.4320253,99.89379
1.5289431,100.032936
1.4332268,98.67839
1.343549,100.51826
1.4138144,103.15741
1.4274063,100.94478
1.3773118,100.359344
1.3830967,102.83115
1.3540332,100.96561
1.3650517,97.46347
1.430227,102.62756
1.2974961,98.09906
1.2653157,98.23845
1.2717823,94.870415
1.1586572,95.11032
1.1986467,93.67041
1.1642271,92.55415
1.0993719,90.35757
1.2198591,92.48759
1.1599874,91.30227
1.0350184,87.27028
1.1400948,87.206764
0.99947757,88.15597
1.1687273,84.23456
1.0487545,82.23537
1.1345731,81.01931
1.042885,81.6302
1.0510702,80.21337
1.1410596,67.21417
0.9694997,74.68549
1.0895692,75.844795
1.011073,76.208755
1.0193448,71.23785
0.9562484,63.11086
1.0063461,69.23718
0.8430508,65.74065
0.95781946,65.840866
1.0100931,68.77156
0.77805275,62.481895
0.77521116,62.62223
0.7004376,57.833267
0.6739332,60.713844
0.5357989,58.53741
0.6396758,51.713898
0.49916226,56.846867
0.5934864,53.229977
0.61437815,54.378216
0.6112786,55.408546
0.518335,50.011913
0.52133137,50.520298
0.605877,46.944267
0.5561712,47.194035
0.60950714,47.811016
0.6780576,44.557953
0.5355503,46.84759
0.5611005,42.812916
0.58977604,44.263195
0.51658916,40.0
0.58625853,40.0
0.5470862,40.0
0.46449977,40.0
0.551745,40.0
0.37801033,43.062798
0.41300392,40.706566
0.3985874,40.0
0.37900734,41.4856
0.36089522,40.412655
0.2895864,41.016632
0.28022224,40.0
0.28547353,43.763012
0.31660655,41.93946
0.28312078,44.53187
0.19971763,46.997536
0.41276604,47.877037
0.43801093,47.500526
0.43874112,50.89181
0.4684662,59.16015
0.46460935,56.915066
0.7582902,56.35917
0.88323283,61.331753
0.9099847,65.67426
1.0230576,67.87084
1.0195078,65.047134
1.1466525,73.97258
1.2536558,75.784134
1.3692613,72.66751
1.4063683,76.83145
1.5155838,80.80135
1.5338448,82.59369
1.6567738,83.7525
1.6149176,90.09098
1.6191223,90.01596
1.6812367,89.50385
1.7810131,92.58499
1.7081761,94.40126
1.7694591,90.86707
1.8121954,98.71926
1.9310614,101.91593
1.7479763,99.26155
1.8684881,98.57383
1.8020582,100.1788
1.8030415,101.6923
1.782834,103.2404
1.8309267,101.87037
1.7606589,98.29899
1.7440649,94.64624
1.6556292,98.49893
1.7018666,102.96031
1.6201433,94.948906
1.6140776,101.28842
1.7195551,98.45816
1.68758,98.80741
1.6299505,98.23909
1.5648698,91.959984
1.5590068,94.881294
1.4524975,88.15623
1.4352384,89.05919
1.4587626,86.64554
1.2971698,88.04512
1.4131123,85.41786
1.3083466,84.98965
1.4127604,82.53567
1.3753489,82.86904
1.3791193,79.02337
1.393265,78.933495
1.3865339,76.79949
1.3493345,79.34366
1.2568738,78.5814
1.3727745,76.538414
1.272062,72.95162
1.3874385,72.48814
1.3112626,66.166405
1.2277162,70.49788
1.243279,66.69419
1.1724566,62.859806
1.1115091,68.5587
1.0528668,64.065445
1.0844034,61.558582
1.0664412,61.30359
0.9912971,59.92296
1.0642848,62.297092
1.051705,49.24152
0.84826064,56.16548
1.0025403,52.61674
0.8496883,44.680065
0.9186276,49.07948
0.83276904,51.009033
0.86394894,51.975952
0.9061177,45.39425
0.9250793,48.67718
0.75693727,41.398933
0.8709521,42.14732
0.91534245,46.660435
1.0087912,44.210865
0.8740844,48.18254
0.7941081,40.923973
0.8312169,40.0
0.84456885,40.0
0.8234166,40.0
0.66398144,40.0
0.74485266,40.0
0.63201356,40.0
0.57381636,43.157166
0.5720153,40.0
0.59013677,45.02047
0.5653342,44.051113
0.5918574,42.139885
0.5155398,43.83016
0.6093532,43.00338
0.601696,45.264977
0.7070466,45.526043
0.58204514,53.342113
0.73608977,50.235607
0.8370592,55.519047
0.8984369,56.81343
0.835557,60.08267
1.0564187,61.797638
1.1760111,59.993923
1.186059,63.697803
1.2354431,66.63011
1.4331142,67.87599
1.3443389,73.215904
1.5464346,74.356
1.6208384,73.693436
1.6973919,81.257416
1.8029625,81.94379
1.7577344,87.07422
1.8571379,84.47156
1.7519691,88.96981
1.862853,90.466225
1.7459558,89.35462
1.8591388,90.5584
1.9281791,92.21222
1.9232916,98.59505
1.9016889,100.26837
1.9416385,99.577934
1.8711506,103.23243
1.9703596,98.149895
1.8648149,98.70133
1.8797815,99.16831
1.8462124,101.285774
2.020261,100.79341
1.920907,96.497894
1.9229927,96.7962
1.8250526,101.95895
1.8540931,92.42064
1.8395051,98.563416
1.7220896,98.1384
1.7249055,100.38435
1.672444,99.78496
1.7518022,94.017006
1.6658499,88.74005
1.5369004,89.47466
1.6938642,87.96318
1.6132288,88.416214
1.5553874,89.04173
1.3729895,83.29805
1.4462645,81.51421
1.4858727,82.12497
1.5668625,81.0624
1.499186,82.974075
1.559411,75.33964
1.5257353,78.31084
1.4263694,84.423645
1.3038148,78.73907
1.4442163,77.10032
1.3877652,72.72271
1.3145316,70.028885
1.4166526,67.82934
1.3018367,66.65455
1.1699256,66.435745
1.2256228,68.35482
1.1717443,64.578064
1.1356546,64.19302
1.1025705,58.57429
0.9821294,63.25842
1.0842385,61.023167
1.0042527,61.52361
0.93824804,54.631866
0.9529703,60.111008
0.8878587,54.640007
0.95099217,56.195824
0.7403848,54.88663
0.8521909,45.992287
0.9271904,52.328205
0.9018655,45.871788
0.8878421,43.127235
0.90953684,41.628544
0.7576896,48.04633
0.87080616,45.69196
0.74082875,43.728992
0.8807333,42.442577
0.78096277,41.97762
0.8115088,40.0
0.7776562,40.0
0.7050751,40.0
0.5905453,40.0
0.61700356,40.0
0.47279856,40.0
0.45080104,40.0
0.51449174,40.0
0.4860015,42.28515
0.41565278,42.930687
0.3749252,45.838306
0.50776285,44.596783
0.5666308,49.76146
0.47031632,47.550617
0.46865374,50.578255
0.45410833,48.427612
0.55478626,51.16052
0.6006331,54.019123
0.6641317,57.552647
0.8210555,59.86336
0.7914377,58.31914
0.9669968,58.599346
1.0213546,63.704445
1.0813313,68.59809
1.1867943,68.69356
1.2180429,79.70672
1.342581,76.297005
1.3320954,73.81081
1.4301153,77.8795
1.4966134,83.12089
1.5871577,86.10286
1.6305174,84.70359
1.6181053,85.73358
1.6763586,90.162384
1.588211,92.29702
1.792594,90.56616
1.6575819,94.86929
1.7546713,92.04816
1.8756138,93.25396
1.7799736,97.521935
1.7563406,97.25463
1.7611763,97.14215
1.7223997,96.33905
1.6876886,101.28564
1.7141246,98.16781
1.7342799,98.67442
1.6744773,99.484406
1.6420335,98.96026
1.5398321,96.79066
1.5851598,100.33512
1.536711,100.46354
1.5072386,99.32962
1.4910269,96.24332
1.4520295,99.37494
1.4060979,93.08592
1.4332628,93.87054
1.37818,89.38193
1.3476669,88.15451
1.3201236,91.09791
1.2307054,86.93611
1.3407837,83.25565
1.2837942,89.36261
1.1119697,85.1335
1.204274,84.33502
1.1413486,84.63095
1.1863797,79.11399
1.1016829,78.13846
1.1910756,76.231316
1.1303785,76.017685
1.1075369,74.63062
1.0581613,73.443756
1.0614908,75.06178
1.0869067,71.16433
1.0744025,71.973495
0.8730535,69.2012
0.9178887,66.96034
0.84782016,65.26241
0.80299306,66.2299
0.8706396,60.94346
0.67451596,61.194508
0.7139799,57.28246
0.6803146,65.0388
0.6402707,52.449043
0.6331001,59.910053
0.5858406,53.79536
0.54874676,55.9817
0.5404669,52.30471
0.47600132,51.997074
0.48136494,47.567368
0.4432855,49.828606
0.7185304,50.424934
0.41350415,44.66549
0.5927115,41.448044
0.484936,42.808556
0.48943686,42.405876
0.4317252,46.20465
0.4009717,41.2471
0.29236642,40.484356
0.3406929,40.0
0.36957037,40.0
0.35380214,41.187115
0.2492576,40.0
0.25731426,40.0
0.15524931,40.0
0.095975064,40.0
0.16935346,40.0
0.107551016,42.063095
0.17065954,43.554146
0.03562573,41.96498
0.2028695,43.719883
-0.06231778,46.295338
0.06225867,46.615414
0.23938127,46.480976
0.21766965,51.390854
0.17921615,52.48488
0.3163448,51.883236
0.3706503,54.767586
0.43402213,59.982388
0.53020054,63.350273
0.550867,64.96929
0.65238917,64.96324
0.8410274,65.76868
0.82950747,70.908554
0.98973924,72.626205
1.038425,77.48384
1.0532727,76.4189
1.0540272,74.8005
1.2100722,79.65412
1.2062395,83.4059
1.2727102,85.762184
1.3381013,90.814125
1.3907961,87.14593
1.3795197,89.14282
1.3514361,96.73127
1.4606677,94.91453
1.3694583,95.03127
1.4451962,98.466064
1.4391196,97.68804
1.4816407,98.241684
1.3438675,99.43919
1.4245288,98.62169
1.3983328,93.35105
1.3777356,98.57221
1.3184073,101.15229
1.4035772,104.6019
1.3533684,96.52124
1.2742398,99.339
1.2575591,102.11574
1.2746542,98.94531
1.1362844,100.8844
1.1483935,92.81076
1.1758044,91.87068
1.1307852,92.3573
0.9768464,91.90579
1.0788754,88.548256
0.9728884,90.28788
1.1120557,87.53493
0.9902856,88.44391
0.9945829,87.03466
0.95399415,84.55135
0.9824819,83.32105
0.9121029,82.92386
0.8024495,86.2132
0.9470504,78.934395
0.86677563,73.5191
0.88846743,82.19768
0.8472411,74.00726
0.826615,71.269
0.8653189,71.90033
0.79701924,77.28195
0.76262546,68.757675
0.7261338,71.899864
0.6768103,61.210484
0.699701,64.68611
0.55032754,65.52964
0.67060643,64.538025
0.43214658,59.74191
0.5265783,56.818535
0.38982832,55.38208
0.48578492,57.594036
0.39587924,55.783813
0.43708304,56.678596
0.31845045,53.87778
0.23883428,52.646976
0.2987201,49.563374
0.33849818,52.94204
0.38971037,47.511185
0.4373046,49.58921
0.29551873,46.44224
0.27187064,47.902107
0.40319306,43.764965
0.36546755,44.49165
0.36365026,42.099873
0.22715673,42.035713
0.339454,40.0
0.21021023,40.0
0.09981875,44.618717
0.13753292,41.72683
0.16804603,40.0
0.04543269,41.374123
0.03852688,40.0
-0.09486342,41.42087
0.09310121,40.0
-0.10230524,45.76042
-0.00038912767,40.0
-0.17110947,40.0
0.013146053,42.075542
-0.050513998,44.534916
-0.037643254,47.942944
-0.036119886,45.690956
0.04342325,53.150284
0.06898712,51.86326
0.18290119,49.87867
0.3213947,55.26275
0.18011951,56.164032
0.3795793,59.150642
0.56142443,62.876377
0.5137738,65.401276
0.7990994,66.89196
0.8315935,71.55659
0.8656662,68.5908
0.9115222,72.81907
0.90474623,74.74415
1.0685697,77.14612
1.085345,82.293785
1.1482258,83.59298
1.2524971,85.55758
1.3078324,85.540764
1.2692006,91.80754
1.4299161,92.72256
1.3161005,92.05497
1.4174954,91.84913
1.4687892,94.410255
1.3621482,94.15788
1.3266851,95.84554
1.3996677,100.86962
1.5555371,102.36803
1.4838681,101.93119
1.3668162,105.94071
1.3265754,97.75236
1.3335775,105.07362
1.4396405,97.273605
1.4252456,101.1069
1.3145127,104.00716
1.3192707,96.88841
1.2198597,100.823105
1.2302353,100.37663
1.2669213,96.37415
1.2414652,95.812
1.096366,91.19519
1.1511229,95.58248
1.079799,93.902626
1.1395751,89.55063
1.1401236,90.44128
1.2206237,91.416405
0.89930314,89.8235
1.0857576,86.06436
0.9687631,81.542496
1.0360115,80.96442
1.1036572,76.09263
1.0952399,79.48032
1.0351841,78.81114
1.0701542,74.56815
1.069835,78.756134
0.9586413,76.72957
1.0399737,74.56604
1.0236012,73.513664
0.98169726,67.01723
0.9207007,63.58999
0.77883184,67.4819
0.84070927,66.96077
0.8836735,65.842
0.7924072,65.02715
0.7304863,64.356224
0.7131457,59.380527
0.7093528,58.51556
0.6489015,62.17493
0.5475986,55.39298
0.412517,55.151268
0.6725144,53.635002
0.5319925,49.983505
0.47605294,50.450314
0.5630819,47.814995
0.4863157,49.395184
0.6204357,52.161877
0.5576574,49.543217
0.5698973,45.955765
0.5260807,49.24316
0.5428479,44.687798
0.5583551,43.167686
0.5331731,41.983498
0.5629275,40.386368
0.48348507,40.0
0.3943645,40.0
0.43710968,40.633625
0.34092024,40.0
0.3946081,40.0
0.41114217,42.047546
0.2832769,40.0
0.21970434,40.43272
0.22646111,40.0
0.30358902,43.2963
0.17055699,44.348305
0.26898026,41.118637
0.2683163,42.794643
0.22908337,42.094154
0.27050313,45.80743
0.42706248,49.983303
0.41523805,49.500294
0.47184244,53.33349
0.4851795,55.51634
0.5604183,56.886826
0.6653481,58.43791
0.8925108,61.915356
0.8090733,64.819855
0.9475577,66.52066
1.0469242,71.12293
1.032045,74.05958
1.2464833,71.46475
1.3002508,77.74671
1.4141932,78.31652
1.4901847,81.637215
1.543592,85.07522
1.5009646,87.55741
1.5485332,85.38536
1.676023,93.38637
1.5875837,94.39391
1.6617167,93.06142
1.6946827,93.021706
1.741212,96.67526
1.6941037,97.51248
1.7390566,96.74057
1.7014207,99.38781
1.7359871,99.53694
1.6842074,104.78367
1.82193,98.78048
1.6856092,101.383736
1.685814,101.47633
1.7564939,104.10606
1.7674375,102.88551
1.643983,98.756165
1.6490842,102.67092
1.520533,97.89125
1.7119923,94.17135
1.615305,97.403824
1.4598229,93.0584
1.5159013,92.59752
1.5268445,97.941475
1.5234828,89.79895
1.4353225,92.129524
1.4947765,86.27716
1.3688087,90.73612
1.3740879,84.32586
1.3684618,86.221375
1.4823067,82.75795
1.4345645,83.30455
1.381662,82.89789
1.304664,80.87053
1.2502468,81.43819
1.4921768,74.77836
1.4096881,75.48961
1.2914536,75.44696
1.3849682,77.56087
1.2632692,71.5214
1.278625,70.63694
1.2082528,69.82182
1.2176794,66.87308
1.1179552,69.62527
1.0909796,65.139046
1.1083685,62.24189
1.1491969,60.781
1.1597035,58.887104
1.08583,59.819515
1.0192386,56.28758
0.83668613,56.176285
0.8616507,54.471405
0.87756515,56.000088
0.9955128,54.799137
0.91552407,49.293922
0.8933975,50.92369
0.8107002,48.245743
0.84334445,51.255394
1.0240692,47.992996
0.8764713,45.67864
0.78549993,43.33531
0.8907513,42.76463
0.8714047,42.502174
0.7797765,41.533558
0.89568144,40.0
0.8359164,40.0
0.72314847,40.0
0.8061825,40.0
0.77328664,40.0
0.7013533,41.079105
0.63123804,41.07175
0.48843822,40.0
0.57941043,41.099163
0.60062325,40.0
0.51036614,40.097206
0.54895,40.871124
0.42326227,42.408524
0.46740457,42.548183
0.5178776,43.871395
0.635085,50.241467
0.56023526,45.019302
0.6002143,50.362785
0.6589669,51.020393
0.7271036,53.347057
0.74536294,55.93
0.88346946,61.552612
1.0132881,60.343952
1.0726528,64.513916
1.134568,62.344578
1.2945111,66.49492
1.380115,68.039406
1.4564072,70.19011
1.473868,75.52237
1.6601499,80.37107
1.6823232,80.17052
1.6767305,83.01219
1.726308,84.05842
1.8520117,85.718124
1.838532,83.63685
1.866043,92.372406
1.880445,91.67116
1.9070245,96.52566
1.9629534,96.135
1.9924476,98.31205
2.0085063,94.565285
1.9738482,95.67535
1.96327,99.416405
1.9208317,96.40526
1.9707778,99.89675
1.9515691,98.97728
1.9212269,100.83463
1.7849246,104.665855
1.9011436,100.71143
1.8775024,97.234375
1.7465862,99.347984
1.8628482,97.131454
1.7310215,101.07854
1.8099598,96.143
1.75766,94.43282
1.8570454,94.13708
1.7807016,97.16893
1.6051396,91.26407
1.6302861,88.42544
1.5810852,85.59615
1.6160458,90.57819
1.5699071,88.49613
1.5130599,83.97347
1.6148205,83.63787
1.5632482,85.48512
1.3920325,83.2963
1.4371097,83.01057
1.5739073,79.15608
1.3785014,75.7618
1.3884765,76.34709
1.5026648,79.48718
1.4258707,70.47279
1.4525564,77.487885
1.4657394,74.01811
1.3497884,74.5761
1.3624476,68.699066
1.2948918,68.19687
1.1856179,64.22372
1.092719,65.63224
1.1486729,61.830467
1.1373675,63.476223
0.9878706,57.84864
0.9827775,58.78396
1.0402597,57.79533
0.96486837,57.53985
0.94802195,54.813934
0.9131621,55.279785
0.88077825,52.947353
0.96124196,52.065773
0.8788931,52.727345
0.9908889,47.697098
0.8431906,45.73698
0.7632382,47.682076
0.84677666,41.942417
0.82753384,44.47052
0.739384,43.426426
0.86067766,45.299313
0.8974815,40.46182
0.7955116,40.0
0.7091249,40.0
0.77056426,40.7839
0.72162104,40.0
0.6055417,40.0
0.6667414,44.080616
0.61769867,40.0
0.46460128,40.0
0.5415359,44.15992
0.5202542,40.0
0.4649987,40.725437
0.38179338,41.685036
0.3608219,42.557
0.49587554,41.021667
0.5313479,49.251762
0.5140746,47.61254
0.5836817,47.253677
0.57464874,54.7168
0.6893909,50.162666
0.711594,50.45066
0.7931447,54.129345
0.84994364,56.06443
0.97154146,67.989876
1.003894,65.65358
1.1230465,69.561905
1.2352753,73.79298
1.2735858,72.533485
1.3029425,71.675064
1.3590585,78.60051
1.4213266,76.55349
1.545302,80.02986
1.5935649,84.216156
1.6648847,85.83477
1.6244996,88.9749
1.6134573,90.11484
1.7775648,95.86201
1.7897673,90.49742
1.8140274,95.11773
1.7264527,98.01345
1.8051431,98.44956
1.7794268,98.793594
1.8106339,96.03988
1.7507313,96.29371
1.7820225,97.61072
1.8253813,104.61229
1.6973991,102.415726
1.7443751,96.25867
1.6766175,103.26578
1.6517223,105.417366
1.6162597,93.56431
1.6022907,101.34881
1.6135464,95.815674
1.6000934,93.917366
1.5526098,96.16354
1.5246842,97.28321
1.3642706,97.82999
1.4312015,94.666855
1.4276311,89.27049
1.3849943,91.56569
1.3113035,87.39051
1.2301538,86.727905
1.2998015,89.24569
1.2517163,80.56518
1.3586955,82.21216
1.2432635,88.05607
1.1876981,78.27015
1.1850486,81.4273
1.278219,81.77852
1.0897559,79.668045
1.1304238,76.02861
1.1367792,70.9897
1.0872645,75.96054
1.0006888,67.996796
1.2226739,72.841
1.0372918,64.940605
1.0386523,68.35346
0.9171969,67.80287
1.0078386,63.34457
0.8615618,64.106415
0.82792234,56.82715
0.86749625,60.623974
0.7385038,59.35302
0.6565232,61.188286
0.6703758,60.92189
0.65969425,55.836067
0.6514496,58.415874
0.5904636,54.019444
0.5541799,54.296356
0.5691692,50.93714
0.52864707,50.403763
0.6300171,46.01216
0.63698685,47.64839
0.5110371,46.102535
0.48005047,42.805027
0.7059647,45.370842
0.55000895,42.33599
0.5093286,45.382652
0.48279312,41.708702
0.60007685,43.314747
0.49864665,41.290543
0.40927848,40.0
0.327819,40.0
0.27147818,41.083263
0.26986277,40.0
0.33705524,40.0
0.2527959,41.72898
0.09547802,40.0
0.18688275,44.81656
0.19250779,43.185253
0.24710104,42.342144
0.1893935,44.349297
0.16925435,41.504738
0.1806168,47.540314
0.1552716,52.47823
0.24964413,54.96119
0.23821013,50.41854
0.41150072,52.92274
0.33030576,56.996353
0.50893104,57.5473
0.5130689,59.841145
0.69269735,63.546925
0.7565665,63.40462
0.80257785,66.09295
0.92429763,66.87703
0.9417679,73.70305
0.9368419,78.16027
1.1323632,76.73803
1.1087725,82.23559
1.2515808,81.424385
1.3424199,85.51737
1.3880626,90.11372
1.4121057,91.280655
1.3351841,91.30207
1.3463731,95.12675
1.5135609,95.66831
1.4647142,95.05777
1.4446092,97.67687
1.4716059,102.643745
1.4678949,102.64927
1.306652,96.93974
1.3449543,105.1587
1.5240221,101.17804
1.3960265,99.03213
1.4574444,104.202995
1.3113552,102.12843
1.4165641,102.70574
1.3634083,102.49867
1.2811816,98.91445
1.3203121,97.455185
1.1513132,100.267815
1.1869073,96.76461
1.1393323,91.65949
1.2090828,90.60169
1.0727326,95.99382
1.1052073,94.239746
1.045222,86.95031
0.9821854,94.49828
1.0524396,92.11131
0.9936458,91.02983
0.858767,88.072334
0.8640478,84.218315
1.0342977,85.1648
0.96581495,79.83552
0.8818921,77.59781
0.86014414,76.237236
0.9156009,79.929245
0.8690398,74.18178
1.0516222,79.290085
0.84747535,74.13102
0.8167575,67.53615
0.7541781,70.84025
0.7936781,68.29913
0.7700493,71.270134
0.74870455,73.412346
0.69162554,69.06464
0.6800487,64.74489
0.5982914,67.32479
0.5495691,60.49369
0.49036363,60.883274
0.47865412,58.836285
0.4462921,62.45851
0.3873287,53.878803
0.44415092,60.641712
0.43991482,52.339424
0.32493764,51.71648
0.36727765,51.65781
0.33125547,48.932373
0.35953328,47.347416
0.26638904,47.266293
0.20808847,47.721405
0.24712068,52.555325
0.44530565,40.0
0.34216046,42.23475
0.37318248,43.411106
0.22165553,40.0
0.2169136,41.74409
0.26677468,40.0
0.14070585,40.0
0.27552545,40.9448
0.12930672,40.0
0.062165737,40.0
0.044956334,40.0
0.08294311,40.0
-0.08523973,40.0
0.05587594,40.798046
0.01311446,40.565933
-0.09896389,42.23804
-0.017995248,45.53961
0.04048163,48.115883
-0.10618309,52.872326
-0.009264499,52.15569
0.021044401,52.39936
0.13246289,47.85663
0.16069221,55.558662
0.24097176,56.702717
0.26523462,53.85985
0.4707734,62.00004
0.55270195,58.628143
0.6385824,70.79025
0.6045469,63.38646
0.7474302,65.31994
0.85712636,75.39308
0.93417317,69.77325
1.1384339,75.21479
1.0772115,86.123344
1.1210773,82.80914
1.1364288,86.36308
1.1237555,86.08978
1.2912847,87.21329
1.3372238,94.189514
1.3029437,95.4563
1.3879666,90.448875
1.3496827,97.83702
1.2786793,96.455
1.2682629,100.049385
1.3896247,94.335144
1.402314,99.47864
1.3402871,99.27116
1.3751239,98.344475
1.4080389,100.21074
1.2600051,100.0802
1.4144293,98.80537
1.371188,100.57018
1.3150254,104.27745
1.4287772,99.27512
1.205638,99.53714
1.2032919,96.85214
1.2316328,96.00615
1.250415,97.612434
1.2077237,94.252426
1.1834403,93.53694
1.1665969,92.63073
1.1027964,94.19784
1.0834237,91.72507
1.1173085,90.69409
1.1932553,84.409164
1.1460111,83.51119
0.96905,83.63851
1.1284372,88.65235
1.0500427,86.06933
1.017415,84.638664
1.0043792,79.90037
0.915667,79.308266
0.9428966,76.858665
0.9711939,79.13649
0.9461125,76.25454
0.97128254,75.18645
0.7754407,70.9996
0.7772273,72.7129
0.8841049,70.86439
0.7801977,69.99431
0.78745013,63.991096
0.6356219,63.56068
0.6831681,66.123695
0.7357095,63.397846
0.687491,61.215034
0.61067677,61.90449
0.65704584,56.286507
0.43495122,61.318844
0.5337296,51.738075
0.54331326,57.36012
0.48779103,53.336285
0.4631497,55.235043
0.5351044,49.889893
0.4670254,42.547012
0.48241398,43.240643
0.41222608,45.71709
0.4464697,44.66306
0.4980826,47.88885
0.5637351,40.549667
0.5074228,46.53523
0.4492189,40.129944
0.5366215,43.309105
0.45588103,42.377068
0.3826858,42.61954
0.39283985,40.0
0.363915,40.0
0.38980195,40.18989
0.38368434,42.13541
0.24916005,40.0
0.18012764,40.0
0.19730611,40.0
0.23893322,42.661713
0.12356898,40.0
0.18399242,40.16852
0.06367397,41.00688
0.26052698,42.382828
0.21557154,46.71551
0.19508158,45.571293
0.4021811,48.750267
0.3856017,54.543125
0.4539459,53.86853
0.47322512,51.952236
0.65224963,58.947502
0.6856183,57.22368
0.89031297,61.234226
0.8660308,64.71134
0.9243446,64.96951
1.1047361,74.19695
1.1925853,69.136215
1.1758536,74.006676
1.239954,80.98681
1.3538365,81.86653
1.3060932,83.07963
1.4626563,85.52875
1.5340205,84.25879
1.5430791,90.208664
1.6146879,94.86826
1.5951543,95.41665
1.5814785,95.59461
1.6377839,95.46804
1.6179217,92.26063
1.6520208,96.13963
1.6287911,100.86774
1.705251,97.75626
1.7725817,99.59636
1.6734984,98.936356
1.6473354,104.50529
1.6963266,99.5025
1.6269001,101.57136
1.7525446,98.58175
1.6654814,101.83128
1.6391389,93.95488
1.5919285,101.12742
1.5587978,92.54872
1.5349178,95.79827
1.3890297,95.383125
1.4863791,91.89735
1.3838645,93.561066
1.4275643,95.62431
1.4727746,90.83265
1.43949,90.851524
1.3016007,85.092896
1.3689435,89.11665
1.4392203,89.285706
1.3921696,85.01111
1.3853236,87.58945
1.3123034,81.7526
1.2822284,80.494
1.2349045,77.10164
1.4407098,78.19046
1.2552888,83.29728
1.2422562,70.07868
1.2436082,76.70227
1.2272521,74.07762
1.182553,69.3826
1.1686281,67.15195
1.154383,69.848015
1.1398937,63.1685
1.0598094,66.42341
0.9978997,61.641445
1.0592191,61.080513
0.981974,59.660187
0.996162,66.57359
0.9636578,61.57885
0.9446758,55.49548
0.9178732,57.802113
0.8884236,59.644657
0.8444379,53.15116
0.8368256,53.514313
0.9669086,47.98085
0.80065346,47.848835
0.8068314,44.561943
0.8323964,48.632465
0.79242986,49.07084
0.8238573,45.392445
0.8319187,45.38584
0.75168765,40.018116
0.8433233,40.0
0.75919515,43.757084
0.760539,42.34927
0.8175566,41.22972
0.74398607,44.01938
0.7640361,40.707344
0.7088057,40.0
0.73199993,40.0
0.60661113,40.971172
0.5975144,40.0
0.49613515,40.0
0.57515055,40.0
0.57794106,41.38194
0.39374664,42.459843
0.5745513,48.071785
0.5331531,42.370686
0.5137186,45.84333
0.45402876,46.682
0.5674558,47.480644
0.6950138,49.7097
0.7552149,52.856716
0.7349323,55.317375
0.81319153,63.473442
0.9855377,62.20178
1.1064043,64.02369
1.2472996,65.689354
1.1980388,63.359035
1.275899,68.192795
1.4098738,74.98916
1.4891696,74.09905
1.6202955,77.71986
1.6789724,77.60289
1.6582584,78.33745
1.7629111,83.78421
1.8319486,87.83495
1.9026397,86.81112
1.9514037,88.61853
1.8096515,90.106445
1.8431106,90.03235
1.9495801,96.53415
1.8929317,97.33334
1.893063,96.43624
1.937889,102.9581
1.9268047,102.915016
2.075974,99.26941
1.9050024,99.72186
1.9592195,99.65675
1.9514601,101.28371
2.045628,102.02801
1.9246936,99.41779
1.8458523,96.521286
1.9683414,96.5329
1.8146951,100.49876
1.7704,100.39971
1.7755888,101.33805
1.722737,95.949234
1.7657961,96.98589
1.690233,95.114235
1.7641206,94.0501
1.6299578,92.008385
1.5662341,86.6233
1.5812109,82.23974
1.5842828,87.00627
1.555251,81.21548
1.6276606,86.4565
1.4828544,85.10697
1.6049386,82.742935
1.5062313,79.42962
1.4841623,81.51844
1.429726,77.4551
1.4626876,72.88565
1.4567083,75.82669
1.4568838,77.268845
1.5197442,73.366745
1.4729172,71.08215
1.45615,68.623344
1.2999337,69.92584
1.3122565,67.830086
1.3208251,64.48842
1.2699052,67.21087
1.2420049,64.444176
1.1306119,61.94502
1.1321481,60.994087
1.1160414,64.03211
0.97322255,59.205776
0.9098114,54.57502
0.92393124,53.638523
0.89873505,55.29498
0.8739186,53.01523
0.86648345,53.10686
0.87524724,50.08867
0.9614495,47.72017
0.88938594,42.925327
0.9783144,45.309624
0.9077702,43.934593
0.9043402,45.744522
0.8805296,44.569283
0.8768401,42.251328
0.77009165,40.726906
0.7944864,40.0
0.8383958,40.0
0.7904531,40.0
0.71738213,40.83186
0.7098582,40.833652
0.6752169,40.0
0.64880246,42.80585
0.6238502,41.266895
0.62414414,40.0
0.51483196,43.00171
0.50598675,40.0
0.5535261,41.807304
0.36076513,40.84509
0.44506678,40.0
0.43081516,47.542084
0.4758469,48.41644
0.58715236,46.991577
0.57078665,52.905952
0.7133114,56.111053
0.6723303,51.954323
0.90015596,56.58494
0.94986737,62.518757
0.9385494,61.84062
1.095993,61.460125
1.1892226,69.284485
1.2262539,70.61432
1.3920707,72.391945
1.4096209,73.82397
1.3716502,76.19825
1.4592092,74.66836
1.5437747,83.39662
1.6665236,85.390114
1.6810346,90.26822
1.7171547,84.806076
1.7461265,90.616455
1.8033364,90.54953
1.8132364,93.667625
1.777421,98.71236
1.8173631,94.17198
1.8345969,91.95727
1.879298,100.54263
1.772988,103.07656
1.7329843,99.25121
1.9347012,95.23488
1.7038777,103.95662
1.7521336,99.61591
1.7167789,100.93594
1.7960209,99.7004
1.7688746,101.25568
1.8890581,101.29181
1.6340255,101.448006
1.6347436,98.04256
1.6007718,91.91553
1.6476742,94.54308
1.5616548,94.87521
1.4452645,95.13733
1.5888733,95.96198
1.4002557,94.43176
1.461655,90.327324
1.5013682,89.13687
1.3353312,90.93254
1.3007591,89.419426
1.3681653,89.87094
1.4573542,84.65023
1.3150467,86.01236
1.3081783,78.98299
1.2009484,82.039246
1.2819545,82.15108
1.2204709,77.897804
1.2584333,74.42764
1.2125931,74.75368
1.1846437,77.69376
1.1378672,72.059166
1.2121834,73.832375
1.1571951,71.51627
0.9934552,71.28766
1.005261,66.01533
0.97355413,67.028496
0.9310094,62.139793
0.943504,57.89469
0.81805056,63.996216
0.8269557,62.717876
0.8313193,57.133495
0.6497413,57.352062
0.6588008,54.886974
0.6806916,54.239506
0.86410373,54.44311
0.6723174,52.612022
0.7001853,49.73182
0.57043564,54.06192
0.6301696,47.66656
0.5776706,48.55776
0.59426826,48.32308
0.5541678,46.601414
0.579612,45.48579
0.50525135,40.0
0.5580748,40.0
0.57826245,40.959934
0.5528912,40.0
0.5438596,40.0
0.38002217,40.0
0.39713895,40.0
0.36090094,40.0
0.28067282,42.131393
0.3676019,43.687172
0.15530387,40.0
0.24559936,40.0
0.26642922,45.966682
0.14664915,43.230175
0.09482636,47.093693
0.031016463,45.766846
0.27221325,45.37625
0.22975323,49.14399
0.15584353,47.399544
0.27517632,46.57015
0.34792998,52.417953
0.34643245,58.39384
0.41564357,59.426064
0.5043643,57.632023
0.6211792,64.091034
0.828933,60.78948
0.69069374,65.969795
0.92380863,65.56551
0.9777872,69.648155
1.1244164,76.219185
1.0316763,76.93078
1.1781573,76.11075
1.2608097,76.40246
1.3390112,75.59662
1.2353156,86.23706
1.4282235,88.839096
1.5737301,89.06744
1.4554734,87.80289
1.4725828,89.38395
1.4897505,94.93562
1.3899499,99.643234
1.4931396,96.59574
1.415252,97.060394
1.4310296,95.49001
1.4649518,96.36329
1.5249883,100.27806
1.4340229,98.194305
1.377179,100.3892
1.4196051,103.039986
1.3176544,101.68327
1.4217256,101.01158
1.2621732,97.242195
1.3641971,101.68149
1.3368735,98.97612
1.2998484,96.28228
1.20307,92.002235
1.2375929,98.281975
1.1150578,91.99483
1.089736,91.4445
1.18589,95.76504
1.1340519,92.15623
1.0840254,90.87485
1.1371696,88.59279
1.1269838,87.169174
1.0602748,85.500694
0.9782866,85.89213
0.8773623,81.85483
0.86533034,79.84447
0.8832114,81.06056
0.8821431,78.09227
0.9187597,76.33858
0.92987186,76.30283
0.8701946,76.46126
0.89832187,77.09521
0.89925367,71.89263
0.92354596,72.39325
0.74310774,69.31898
0.86839783,68.42029
0.8609161,72.0025
0.6810286,63.445824
0.5422672,62.20034
0.5574452,62.738483
0.48501068,65.86172
0.5794167,61.946033
0.48755148,60.343693
0.4342611,59.115986
0.3285683,59.19847
0.37568295,54.753353
0.37277025,58.059578
0.41407523,54.513084
0.46637037,52.42529
0.30603382,49.799706
0.34585202,49.246555
0.34095797,45.984978
0.23629475,46.204613
0.26455173,47.01629
0.24254121,44.427616
0.18014576,40.0
0.22582716,44.732212
0.26820812,43.470505
0.22139853,40.648346
0.2599579,40.05267
0.19223973,40.0
0.21122703,40.0
0.18475667,40.0
0.13438325,41.649464
0.15161356,40.403667
0.14013678,42.228962
-0.0024798326,40.0
-0.008169194,40.177975
-0.02526512,43.417667
-0.02531796,40.403824
-0.14934935,46.269943
-0.12692103,41.678753
-0.06620326,45.724808
-0.043226354,45.711033
0.19171059,46.38594
0.061873347,47.804016
0.18909436,54.369686
0.105316065,54.66024
0.36760822,57.774265
0.31379142,59.668396
0.50171447,64.54509
0.5443009,66.93825
0.6100273,65.27383
0.72493917,69.8986
0.8195582,71.73371
0.97395754,74.881485
0.8213129,75.6755
1.1355295,81.19233
1.1279299,78.05231
1.2762449,83.44166
1.1713169,79.48739
1.3038324,85.79738
1.2678548,92.69364
1.4203589,98.5953
1.2740418,92.74605
1.2770281,92.4294
1.4165237,94.46322
1.4325782,95.65485
1.2518841,96.63241
1.3533318,98.397804
1.4278318,101.27187
1.3069822,98.62589
1.4183968,97.95886
1.4530855,93.23613
1.4129657,101.91687
1.2870772,96.543785
1.3092666,93.843765
1.2523657,97.540215
1.3608392,98.31707
1.1843085,102.825356
1.2100495,96.54509
1.1802442,100.580185
1.0559242,95.18076
1.0872583,95.97801
1.1210206,88.96244
1.0481955,93.40986
1.0092728,91.41647
0.96640766,88.69384
1.0473891,87.3932
0.9895464,86.81685
0.9852414,85.91358
1.0187211,86.30906
1.059996,82.96061
0.896063,75.78253
0.98947453,80.75109
0.9797514,77.55286
0.97024864,80.90857
0.9127763,77.97466
0.9894276,77.61035
0.84084344,76.038765
0.8171772,70.58294
0.88111037,69.30926
0.8776386,67.37891
0.815241,67.60859
0.690736,62.9027
0.57722855,68.408966
0.6509752,64.79465
0.6571314,63.24161
0.64494365,59.854343
0.6065882,58.422356
0.50852984,57.049465
0.57839555,54.463253
0.40749305,52.49485
0.39651665,52.054226
0.44228396,49.08018
0.44930318,53.82226
0.46297204,50.080227
0.53986406,49.886826
0.3161931,46.29433
0.38328376,47.24117
0.494253,47.932594
0.36930767,44.408424
0.3816995,41.286438
0.48155403,43.573742
0.42816547,40.0
0.4174005,42.973866
0.32639915,41.812054
0.30725083,40.0
0.25125912,40.0
0.23816457,40.676735
0.20676255,40.0
0.26205727,40.0
0.25131196,40.0
0.29227006,40.63618
0.19813259,40.0
0.14277323,40.0
0.14604363,45.001038
0.05287246,40.3329
0.21711203,45.32661
0.11057181,42.358845
0.10504973,46.36934
0.24196635,49.20218
0.25784236,50.057243
0.33564267,51.413113
0.40438104,55.091557
0.47623017,54.979183
0.502128,58.30759
0.5701769,61.05756
0.8378748,63.388836
0.9032652,66.68967
0.91496646,71.21195
1.0677707,73.08436
1.1379036,73.07366
1.2056196,77.56494
1.341575,79.383
1.3397532,80.16669
1.2913729,82.677765
1.4251989,79.70339
1.5647726,85.011246
1.4218446,88.782486
1.5659219,87.36937
1.6386745,91.7032
1.5822021,94.9889
1.5542402,98.7195
1.6017005,92.63288
1.7420096,99.879875
1.6766449,96.696335
1.5852476,101.21024
1.5896604,100.84668
1.6890625,104.94629
1.6164582,98.953064
1.5813167,100.41966
1.6630784,100.11253
1.6024891,99.04182
1.5305128,103.2536
1.5828415,100.84812
1.505778,95.29358
1.4900619,96.83152
1.5247645,95.67406
1.4590873,98.3666
1.4816875,95.27125
1.470536,92.41541
1.4190829,95.77481
1.2888403,91.481255
1.4606272,93.69028
1.4218017,88.825966
1.2203233,81.20591
1.3654581,87.68839
1.3452551,77.91151
1.2297112,84.934
1.2405282,81.3833
1.2923341,77.077965
1.283468,80.20939
1.1941735,71.3968
1.3192534,75.53706
1.2028898,76.202446
1.1610479,76.72045
1.2067727,68.87504
1.2853593,74.69474
1.1137626,68.477234
1.0595201,71.271416
1.0558398,62.72517
1.103533,66.64633
1.0526302,67.85567
1.0742569,59.7595
0.89373404,62.585594
1.0503137,57.971924
0.90872127,61.50802
0.8236511,56.472507
0.7523211,52.748882
0.912142,53.82656
0.8121772,54.607494
0.7605377,52.993694
0.8144806,52.638954
0.8324086,52.87488
0.8521973,52.56846
0.8546076,45.10637
0.84866345,47.19028
0.7711847,48.557404
0.86931676,40.0
0.8351487,44.68955
0.8956187,41.913376
0.7939075,43.9357
0.68521315,41.265793
0.7426217,40.0
0.72277534,40.0
0.6801503,40.0
0.58378106,42.220757
0.47401413,45.242844
0.53091717,41.948673
0.5165624,41.329796
0.48113924,40.0
0.45343956,43.468513
0.47363418,40.72345
0.4708791,41.567375
0.4095453,45.97555
0.48852262,40.0
0.4171163,47.158554
0.5269971,48.404453
0.6041346,47.633316
0.71509004,49.752014
0.7472866,55.658783
0.9037722,55.3418
0.9033798,58.24701
0.9997495,61.387573
0.9846964,64.389244
1.0757163,64.69221
1.1757015,65.89879
1.2832268,67.82914
1.3817755,81.40459
1.4838529,77.35701
1.5376499,75.30838
1.5842991,79.89736
1.7076912,77.9564
1.7520424,87.48434
1.7948002,83.34565
1.8276232,88.28491
1.7852211,88.66315
1.8837937,95.05963
1.9091954,98.039536
1.9143473,97.51296
1.8852141,92.1234
1.9365007,97.00128
1.9677523,99.65966
1.975299,94.48664
1.9314216,95.91223
2.036372,99.81838
1.9772922,103.61608
1.9180313,98.13049
1.8563448,103.77954
1.9124178,103.02788
1.8601142,100.8268
1.8082507,101.03099
1.7436867,100.35922
1.7083124,98.25477
1.7516409,95.18518
1.7591126,100.02374
1.6065305,97.47432
1.6614305,97.606415
1.589381,94.732635
1.6107974,88.76825
1.6805166,89.13344
1.7075924,83.114494
1.5327857,89.71329
1.5248257,85.314766
1.4564894,85.28603
1.4385191,85.889305
1.4421393,85.25701
1.5159369,81.642044
1.4874921,82.316895
1.4139185,72.20441
1.5283846,78.47147
1.4937541,79.63233
1.463632,77.698
1.3864453,69.211945
1.3797765,71.26498
1.2781097,70.12007
1.3647605,66.79266
1.248451,63.58247
1.2307336,66.90647
1.1644993,63.665802
1.203925,63.146523
1.1718563,61.73788
1.2285874,60.486927
1.1148312,57.703526
1.0229484,56.98779
0.95537436,50.677517
0.9319147,55.016884
0.98474807,54.65559
0.88862485,54.383675
0.8948162,50.968483
0.88309836,50.24182
0.91771,47.14622
0.8097362,50.431232
0.91599095,46.079933
0.97386533,43.83965
0.84700644,47.01703
0.8366373,41.99102
0.8379629,41.112415
0.78137857,40.0
0.8560623,42.770702
0.8579404,40.0
0.80486655,40.0
0.70250535,40.0
0.7570426,40.71788
0.7065293,40.0
0.6085316,40.0
0.6799805,40.0
0.6151952,40.0
0.62779874,40.91404
0.55864745,43.378853
0.47530738,43.70299
0.5577511,43.83759
0.54674083,44.34393
0.57523733,44.708286
0.63069046,47.710907
0.60898966,52.323704
0.70677704,52.4739
0.6387056,54.611794
0.71617454,57.39424
0.89397126,58.547947
0.8949454,62.00617
0.99452513,66.59751
1.0780275,65.99616
1.1750579,65.67219
1.3122543,64.644966
1.3987056,67.46145
1.3892115,73.21
1.6092364,77.39832
1.553106,79.24301
1.5591837,80.64443
1.6449953,82.7006
1.7656902,86.57197
1.7802984,87.8588
1.8527843,88.201614
1.7039737,81.96554
1.7899002,87.91115
1.8664428,93.768776
1.8658322,91.87143
1.8628974,98.0093
1.8718275,96.931
1.8130218,98.95927
1.8049532,102.78972
1.856441,98.2192
1.8990862,104.058334
1.857681,97.73836
1.7981296,99.37373
1.7187697,100.59172
1.7357779,97.477905
1.7039032,98.472084
1.5974314,97.946106
1.666459,99.2947
1.5574565,95.87875
1.5984058,95.412994
1.6207795,97.36127
1.5823841,92.7939
1.5415524,91.310036
1.5236105,93.84178
1.5310334,88.896935
1.4653424,91.26815
1.306362,85.54458
1.3767914,92.82931
1.3181713,84.5743
1.3522478,85.41579
1.4357153,82.71795
1.288506,78.28845
1.4283178,78.80518
1.1753178,77.97214
1.3334287,78.16028
1.3248868,76.30141
1.2049118,75.46039
1.2922461,74.931274
1.1878539,74.11414
1.214756,71.502655
1.1835887,72.694145
1.1641257,71.532616
1.0820377,66.72097
1.1336462,63.354607
0.94226205,61.49191
0.8838578,63.006474
0.9399964,64.670906
0.79884416,61.38275
0.73036206,59.836937
0.77040803,58.60153
0.7818109,58.446125
0.67579883,58.47598
0.75320333,52.233974
0.72451323,51.733185
0.67618626,50.318653
0.65994024,53.183266
0.68348044,48.618904
0.6716653,46.715942
0.79945004,48.35947
0.63682306,43.587063
0.5806041,45.859318
0.70467234,43.279076
0.6124013,43.023132
0.5922498,40.0
0.5784184,40.0
0.5622498,40.0
0.47299013,43.492016
0.47345906,40.0
0.3216747,40.0
0.30074206,40.0
0.36868623,40.0
0.21815728,40.0
0.21118219,41.350273
0.24499828,42.987995
0.2552541,40.0
0.23604348,43.099613
0.17645678,47.248318
0.2204586,45.984165
0.24228401,47.757977
0.31570992,47.579227
0.29064825,48.24275
0.28635183,55.437817
0.44249794,48.992092
0.4461214,55.816273
0.64358336,61.24981
0.7619615,57.855316
0.7655187,59.60103
0.84180206,65.08408
0.88868093,67.45865
1.0325927,71.51606
1.0060928,72.187454
1.1672511,74.18785
1.2653844,75.76016
1.2350976,79.97177
1.2760093,79.99064
1.3005097,84.88453
1.3845342,85.22562
1.4238927,86.81747
1.5466722,90.294945
1.4727927,95.341125
1.506397,95.41845
1.5811725,96.57716
1.6032172,97.37896
1.601166,98.654175
1.4543291,100.405685
1.5725695,96.982704
1.4324076,102.45756
1.4404955,97.624016
1.4451507,101.819176
1.4059194,100.66652
1.4819849,97.1834
1.4805832,103.15294
1.5141565,99.15397
1.34594,103.85827
1.2542284,95.825775
1.3452289,100.14449
1.297613,97.566154
1.270058,95.22887
1.1654565,89.03044
1.1300495,94.08465
1.2098404,93.424385
1.1438519,90.8218
1.0864036,89.49867
1.0487021,87.96861
1.0555102,87.87808
1.0454475,86.47024
1.0590801,84.81139
1.0216843,78.75097
1.0210793,74.89324
1.0663954,80.68833
1.0956819,82.71434
0.9368413,80.674355
0.9322361,78.03916
0.9136227,75.54401
0.93760335,74.2205
0.78254503,76.01341
0.9519969,69.50396
0.80679685,72.99481
0.7717388,70.90268
0.8453738,69.205505
0.7625861,67.012985
0.7358519,63.534473
0.49225643,65.20259
0.570732,59.965847
0.62900656,60.5893
0.49965128,58.801666
0.5568867,59.758472
0.46340713,55.176918
0.48527354,56.12372
0.34492412,56.805145
0.38826317,55.574677
0.37751612,47.98136
0.39045274,49.80085
0.46111873,52.056473
0.21630408,51.04027
0.29616714,45.49904
0.39234492,40.291103
0.31364772,46.90175
0.40995207,42.531246
0.33492953,40.0
0.31240845,40.0
0.25973243,40.0
0.2522406,40.0
0.2471088,42.43189
0.13890433,40.0
0.12893006,40.66189
0.23669109,40.35715
0.09382668,40.40889
0.033479474,40.488686
0.050444357,40.0
0.016912278,44.206894
-0.09171941,40.0
0.0057777883,41.990795
-0.05344583,42.184875
-0.12487901,43.08073
-0.057277605,44.78014
0.017253645,47.769093
0.09518436,50.510098
0.023836475,48.65392
0.15729532,52.537907
0.17588578,54.992065
0.38427648,56.36373
0.3817039,60.279804
0.46541724,64.15288
0.59093875,63.38445
0.7793432,64.95026
0.75129026,68.670425
0.86545897,77.89536
0.82244813,75.31975
0.99125785,74.73047
0.9963002,78.47046
1.1379479,81.5023
1.2178401,82.946365
1.1947975,84.613304
1.2555736,88.556015
1.338237,86.44195
1.3027489,90.51843
1.3055155,89.87067
1.4863921,95.26691
1.2934337,97.138115
1.4003836,101.15609
1.3577222,98.71852
1.3328424,98.693665
1.4110664,102.91915
1.3433282,102.22518
1.3334516,98.49025
1.2797596,103.01701
1.3571011,97.62353
1.3264759,100.57324
1.2786583,99.48636
1.2878374,99.41248
1.1762081,101.0963
1.158411,95.79238
1.2724355,99.06318
1.1471013,97.77982
1.096056,97.138176
1.0516847,93.81774
1.144376,91.44863
1.0362536,92.858635
0.961198,85.951225
0.93420404,85.47175
1.0430268,86.08195
1.0227154,87.63397
1.1066426,85.73674
0.85956293,84.34646
0.85796046,82.71011
0.9507326,80.12299
0.9987963,81.81419
0.9093984,79.15545
0.9571832,78.817825
0.9406529,74.63003
0.90630305,72.20576
0.8986342,76.750786
0.74396056,77.18434
0.9386406,71.48914
0.87853307,65.23395
0.82890856,69.45586
0.82482094,66.95421
0.69331235,63.714916
0.68188334,66.06544
0.6748884,64.2502
0.61829007,61.616257
0.5213438,57.499355
0.56144977,61.171944
0.5248521,60.141693
0.46229804,53.687637
0.33130434,56.24217
0.30590552,52.458878
0.46967307,48.333183
0.40271673,53.249535
0.41737518,46.430008
0.45907074,46.59985
0.47310296,45.23013
0.37424454,47.979824
0.427993,44.137627
0.47555998,45.72864
0.32163933,40.0
0.43998066,47.09604
0.31277078,43.118755
0.26006627,43.120174
0.29715243,40.0
0.27938583,40.0
0.19684507,40.922962
0.35584003,40.0
0.24126197,40.0
0.03774105,40.0
0.14608154,40.586655
0.09055092,40.11094
0.08631934,40.0
0.18541764,41.723854
0.042560607,43.924583
0.07596852,47.398247
0.103315555,50.645046
0.19923247,44.62701
0.17932484,49.814976
0.17796712,56.338116
0.1550645,49.307983
0.47168577,59.11637
0.46262842,55.20215
0.5937744,56.31337
0.6125468,63.34686
0.7629608,62.479286
0.8252646,68.57728
0.7950051,68.37759
0.97297794,69.05217
1.1386403,72.97088
1.1679642,77.24379
1.2373794,77.69633
1.2924427,83.97225
1.264852,79.125015
1.4008046,85.51824
1.3579701,87.64838
1.4088099,87.67559
1.4990032,91.28447
1.5489722,90.63878
1.4199092,89.570755
1.526242,92.54942
1.6605968,102.638435
1.6197133,98.80502
1.6594769,98.2056
1.5940847,100.0688
1.5769371,95.26691
1.5837911,94.16329
1.5435058,98.0714
1.5642308,93.90036
1.5420567,100.430954
1.450844,101.34267
1.608158,99.08852
1.5081025,97.40026
1.4796066,100.822174
1.4961894,100.5646
1.4294988,93.12839
1.3957233,94.45676
1.3997521,92.11259
1.4552072,91.7881
1.316452,92.921364
1.3754109,87.67831
1.2909784,92.59244
1.3332632,93.33216
1.2842064,91.54157
1.2559935,87.67708
1.2638141,83.70248
1.2209748,83.3286
1.2383469,83.84911
1.1976808,77.38738
1.2792934,77.251114
1.1530979,81.16413
1.2291744,79.29035
1.2144481,75.666145
1.075868,76.717514
1.1970276,73.64365
1.1371298,69.48522
1.1297916,73.04931
1.0630277,68.32877
0.9379205,63.658432
0.9815805,66.16873
0.970377,60.72254
0.9699122,59.885555
0.86700463,62.71359
0.89592886,53.6865
0.8781854,59.061058
0.76216966,56.666153
0.79656357,55.3697
0.69925314,54.881474
0.7269843,55.970467
0.6975053,49.22067
0.7307434,52.89111
0.6779172,46.42095
0.730168,45.38289
0.8998391,48.99069
0.7588585,47.418137
0.81393015,41.990532
0.72469294,40.0
0.68319017,47.43096
0.69447017,43.12314
0.7334368,40.0
0.7838989,40.0
0.76458126,44.611923
0.7445525,40.0
0.6302162,40.283527
0.60363996,41.724876
0.5228142,46.024197
0.49450704,40.0
0.5247217,40.19539
0.32523105,40.0
0.4917476,40.0
0.3795089,43.311752
0.32109588,41.419777
0.42812952,44.529034
0.4202204,43.77017
0.4528324,45.920906
0.5553584,47.51748
0.5790556,51.175842
0.51001525,45.92213
0.6678129,52.194492
0.7801969,53.651737
0.76073384,58.27882
0.8379813,59.680218
0.96339756,68.94628
1.0529546,63.24459
1.2472373,66.416824
1.1823919,69.612526
1.290845,72.93106
1.5297676,77.77978
1.5344024,74.16421
1.5181189,79.313644
1.5756544,83.012146
1.621915,82.255554
1.7795362,85.01867
1.769941,87.41391
1.7400684,91.41198
1.8576635,95.9306
1.8640709,98.96754
1.809579,93.96924
1.8638333,96.04765
1.8733084,94.990715
1.8389958,95.14865
1.9601538,98.68034
1.9597725,99.35437
1.9217899,107.079025
1.9262941,99.18754
1.9019091,98.104385
1.9215376,98.32676
1.9505578,98.26141
1.9725798,101.789665
1.7292906,95.54995
1.7641923,99.94412
1.703119,101.529076
1.8099847,93.604416
1.7676442,95.07087
1.7054709,92.67007
1.6191684,90.91468
1.6578685,95.57482
1.5929818,88.705055
1.5618693,88.57547
1.6223737,88.100685
1.5130162,88.16709
1.6345013,86.15441
1.4437348,85.83808
1.4799256,86.571266
1.5145775,83.127235
1.4373491,77.4173
1.4955783,81.03811
1.5700736,74.90381
1.3770413,75.49587
1.3806466,77.51892
1.4274329,76.30051
1.5325047,69.65977
1.3435856,69.07758
1.4432405,72.30316
1.3433805,72.290146
1.2806822,67.379974
1.3140286,67.18557
1.1402704,65.74227
1.2563831,66.86454
1.1558708,65.704056
1.1060201,61.49956
0.9480398,62.505085
1.152095,57.772396
1.0414195,56.688858
1.0696096,57.863503
0.874181,51.593235
1.0817629,56.060497
0.85712665,49.371517
0.89985955,50.309685
0.9634362,50.165176
0.98074615,52.472935
0.9748347,48.11702
0.89839804,46.32276
0.8861602,46.4517
1.0110612,40.102303
1.0084379,40.0
0.7831334,43.68505
0.8747743,43.55429
0.92645776,40.79388
0.89707696,40.0
0.86637706,40.612976
0.8063484,40.0
0.6807275,40.0
0.7291389,41.106865
0.56257373,42.47865
0.53699714,43.864037
0.6609335,40.22598
0.5722562,44.00717
0.4864836,43.48871
0.584637,45.308197
0.5191003,46.755886
0.5592397,47.33181
0.63304543,43.914894
0.52308345,49.823093
0.7640959,53.530468
0.72708064,52.80815
0.81510365,56.017757
0.8929244,54.304405
0.93493515,60.48642
1.0158778,61.112247
1.1274303,61.017216
1.2260216,68.355034
1.2901673,64.23832
1.4468657,72.56955
1.4825168,73.95532
1.5595393,70.79233
1.5724816,80.376976
1.6082671,81.43857
1.740887,84.736916
1.7282066,85.3739
1.8520565,86.85556
1.809001,85.77921
1.8662331,94.80606
1.8390505,93.31316
2.0192811,93.6884
1.8316785,93.564415
1.9453977,98.660736
1.886075,95.51195
1.9257858,95.87322
1.8812973,102.0158
1.8500682,97.85292
1.9721454,103.15899
1.8215187,100.2916
1.7575171,101.27277
1.7797916,98.94318
1.7922702,101.480835
1.75421,103.538635
1.7581677,103.44963
1.6877766,99.82157
1.6213545,97.19331
1.6383638,98.364334
1.6409768,92.28168
1.4797044,91.705666
1.5478781,93.24437
1.5427107,94.463875
1.5413047,87.621056
1.4687358,89.08422
1.3626099,90.23672
1.4798045,89.66047
1.3820779,85.19528
1.4885947,85.52768
1.4727069,80.1106
1.4511245,83.18754
1.4187169,81.76521
1.3497769,80.43164
1.2443428,77.64505
1.4316342,77.663536
1.2992138,76.44756
1.1996948,73.01545
1.3452256,69.942245
1.1459478,69.83027
1.1687169,76.39683
1.1557559,71.86131
1.13444,67.94741
1.070828,66.391594
1.0107048,63.144604
0.991125,60.41281
0.9781615,52.85912
0.9864434,57.815853
0.8091489,56.921585
0.7340384,56.641556
0.8202385,53.239136
0.7009932,56.76675
0.7793294,51.05105
0.73971456,52.160267
0.6591281,47.169376
0.7124478,52.89537
0.7087447,43.65419
0.76821345,48.509636
0.6790155,46.60084
0.599225,46.53251
0.645094,41.699562
0.48481712,45.606823
0.6871102,43.67439
0.5708751,40.0
0.6218246,40.0
0.6772868,44.308212
0.6042796,41.20738
0.5410777,40.0
0.54957646,42.60215
0.3567377,40.207813
0.30909806,43.70079
0.36330733,41.13714
0.3744841,40.236977
0.30333945,41.119354
0.12807913,41.435272
0.2909565,41.990498
0.22617437,48.195923
0.14610273,45.150448
0.2763682,44.219933
0.24075702,49.472908
0.44073537,50.53716
0.3622092,58.10263
0.5133643,58.66004
0.55105764,57.60828
0.5209916,57.79681
0.6964691,61.82703
0.7794239,66.05152
0.8656487,67.35764
1.0020305,71.61274
1.0504502,68.18018
1.0958807,73.18224
1.1137065,77.72967
1.2298727,78.991425
1.4927841,84.1332
1.3535701,80.96979
1.4842886,84.02244
1.5609746,83.72241
1.4320247,90.01145
1.5421454,89.071655
1.5635517,94.38117
1.5747792,92.10017
1.4415764,92.542366
1.5143667,94.52468
1.5140389,99.03598
1.6344421,96.69102
1.7135932,95.81394
1.6797007,95.590706
1.581398,100.468445
1.5886581,95.423195
1.4519912,95.753235
1.4577748,103.03748
1.5086514,97.91663
1.4655755,97.93456
1.529825,97.25025
1.5575223,98.38733
1.2317071,96.2977
1.4087806,94.755135
1.3092909,97.050735
1.2671897,90.80612
1.1368153,90.15495
1.1384107,91.345795
1.0642902,93.958336
1.1672034,88.42563
1.2320092,86.062096
1.1031734,86.272415
1.0321518,88.49939
1.1078359,87.40437
1.1430304,80.56811
0.9986883,82.761185
1.0318962,81.08111
1.094767,79.68081
1.0733607,78.30306
0.96203625,79.42661
0.947158,80.38035
0.92451864,78.3825
0.9201779,77.0057
0.9259271,69.01125
0.9018917,72.54119
0.91525227,68.35078
0.76285654,68.098755
0.7604699,69.150505
0.6903298,69.333405
0.71127605,62.27165
0.5894594,63.59167
0.5529315,60.481373
0.60578,61.318146
0.4996281,59.032536
0.5735005,59.64909
0.5449259,57.05337
0.43351337,54.09732
0.38051203,53.049507
0.4482342,49.806355
0.36647195,47.738174
0.3991242,48.71782
0.405368,45.972443
0.40769958,43.53709
0.3886395,42.649956
0.34186205,44.93887
0.2787099,43.951424
0.28743324,40.0
0.34448308,40.0
0.39918205,40.0
0.32376063,40.0
0.26383296,40.0
0.26399365,41.362743
0.17366603,40.0
0.17564854,40.566536
0.0550672,40.0
0.09623457,40.0
-0.018020371,42.61556
0.11891193,43.58418
-0.031099172,40.0
-0.051851887,44.198124
-0.08958982,40.0
-0.11564132,45.141914
-0.046722986,48.58582
-0.011853497,41.906914
0.074702986,42.913704
0.1358388,51.12535
0.14785579,51.7264
0.21542339,56.037067
0.3606818,57.678623
0.42868048,61.294456
0.5167418,61.925262
0.59699225,64.990845
0.6145424,72.75424
0.5320313,68.20143
0.7596031,71.8398
0.8966471,73.99123
0.8838339,78.280365
1.0362399,76.01987
1.0505497,82.08021
1.1892066,84.30705
1.1308177,85.68411
1.2695358,89.405
1.2062601,89.36916
1.2853358,88.220314
1.2430892,92.66422
1.3297341,90.77627
1.2690543,97.03882
1.2591397,96.633095
1.3918171,102.81344
1.3869174,99.78415
1.4430852,97.49885
1.3166115,97.21402
1.2288133,107.58014
1.2938118,100.89645
1.3339713,99.043724
1.3237416,98.64128
1.2963481,101.0944
1.2684573,95.910446
1.3198423,99.130424
1.0840778,97.16165
1.1698719,98.30473
1.1018562,98.149605
1.0977786,91.313835
1.0652114,94.89757
1.0686076,90.40886
1.0759623,93.972786
0.9809873,90.283104
1.0559916,88.80801
0.97010714,89.08667
1.0152923,84.19973
0.942419,85.89349
0.83062583,83.14032
0.9549809,83.44326
0.9167712,81.43521
0.82712424,81.78107
0.8426036,75.63093
0.88368446,74.944626
0.8823117,76.720024
0.81563705,76.19717
0.78306544,75.36512
0.8315051,68.90018
0.76297224,68.3582
0.8323107,73.43456
0.6520039,65.79551
0.5908575,68.217804
0.79333705,70.181625
0.5805535,60.532383
0.48958802,65.20287
0.5506554,55.0756
0.56743896,58.089172
0.5599359,60.2803
0.43192515,56.44594
0.44792935,57.563103
0.4253716,57.61773
0.3986366,53.824078
0.34289038,53.68851
0.32581547,52.31694
0.34559724,52.13423
0.39247826,46.25172
0.46410152,47.5946
0.41460148,43.697582
0.32852745,40.71713
0.38949537,45.00818
0.36204544,43.112293
0.36971295,46.280903
0.37509984,41.976284
0.2814582,42.47297
0.31294826,40.0
0.3584599,40.0
0.19074275,40.0
0.30519614,45.89263
0.24167034,40.0
0.104279235,40.0
0.030647995,46.15158
0.10430991,41.30327
0.068623774,43.87146
-0.027844997,40.0
0.12790146,40.0
0.039042495,40.89961
0.08286249,45.49923
0.15051778,46.836018
0.12956929,48.534653
0.11295716,51.026913
0.2918097,47.502693
0.26956883,53.965057
0.38701707,58.12574
0.45171028,60.90391
0.6130202,57.123898
0.62219864,62.42855
0.7103818,62.34762
0.9452717,66.933044
0.81457376,72.74851
1.1087148,70.71101
0.9945437,78.70324
1.207821,80.76203
1.2134398,79.589195
1.2675323,81.46903
1.4374946,84.570076
1.3965588,83.942
1.4808323,91.34368
1.5184883,93.82667
1.3778511,91.41985
1.3907508,94.79255
1.6028994,95.58153
1.4197539,96.215996
1.5543671,95.70646
1.5507085,97.17568
1.5043391,97.854485
1.6076517,100.278534
1.5600433,101.11979
1.5478677,96.75074
1.5437968,98.82281
1.6317556,97.81709
1.523116,103.62242
1.3986671,99.967415
1.4217457,99.742294
1.4301479,97.88601
1.4825196,98.417145
1.3563492,103.51689
1.4252648,96.32707
1.2505097,100.554825
1.410371,90.47935
1.2998145,90.37564
1.3895658,90.486275
1.2164195,90.19991
1.1925391,85.170975
1.2733635,86.96281
1.198198,81.22439
1.2594306,83.963905
1.2269956,86.848595
1.3598559,86.47632
1.1691695,79.76247
1.1873257,79.32551
1.2343516,77.08312
1.2412696,77.39692
1.1685522,73.73047
1.1275576,74.20122
1.1901886,73.17208
1.0429308,72.64433
1.0242488,66.684875
1.0642426,68.547676
1.1376679,68.212555
0.9065799,69.39211
0.9345484,59.66391
0.92428035,61.89451
0.8244383,60.54653
0.8880163,61.210926
0.753373,57.717808
0.7767741,55.603916
0.7209433,60.39851
0.7072034,56.918552
0.7206952,57.02476
0.7280462,54.74496
0.6993403,51.571476
0.6768099,47.77911
0.7108182,48.736126
0.7392117,43.348125
0.76738876,44.973408
0.7499577,44.218597
0.6314608,44.63514
0.783287,41.010952
0.76671934,41.733345
0.6562879,44.67825
0.6325982,40.0
0.7231972,41.916187
0.6655538,40.0
0.64414227,40.0
0.67682946,40.02288
0.5485392,40.0
0.38396746,40.0
0.46469578,40.0
0.4242551,40.0
0.39157313,44.885933
0.2716613,41.011406
0.3043037,40.98953
0.31644106,44.717865
0.40153673,46.27658
0.3772769,47.633068
0.4477585,47.86256
0.48536065,48.12412
0.571473,50.791363
0.54312277,54.221012
0.8122668,55.89217
0.77290404,59.723427
0.789075,60.085964
1.0698291,60.321854
1.1035671,67.33225
1.1953009,67.26837
1.1924831,73.23981
1.302573,73.50986
1.4550686,76.66792
1.5406955,77.32032
1.5927753,81.453415
1.6149843,84.00689
1.6340833,84.38307
1.6685574,88.07272
1.6875125,85.50433
1.7678713,93.31603
1.7887999,94.213646
1.914052,90.551605
1.7065438,96.715965
1.7897643,95.1615
1.7995769,98.67272
1.8497405,97.09684
1.8295411,94.19862
1.926309,99.754845
1.9568791,104.30846
1.8643022,94.44095
1.8844917,100.408005
2.0158346,101.80307
1.7442951,102.11131
1.8905768,99.963554
1.8112643,100.36797
1.7412575,94.3602
1.7766103,97.27772
1.6418972,97.4918
1.7272276,91.801414
1.7313453,93.183495
1.701894,94.85032
1.6441498,96.65824
1.6289141,93.876045
1.5981574,90.50729
1.4787728,88.167694
1.5251448,94.205826
1.5335065,89.12307
1.5142288,86.40215
1.510188,84.43641
1.6512444,80.57763
1.5308775,77.662
1.4666029,78.1531
1.326721,79.016624
1.3525778,78.47051
1.4173168,78.11803
1.3698174,74.8324
1.310928,69.30605
1.4587803,66.274536
1.4652263,68.290955
1.2255726,69.723434
1.3380114,65.24289
1.2550219,64.52997
1.2352626,66.70873
1.1674801,63.980343
1.2639241,59.173904
1.0972471,60.874603
1.1402506,64.94893
0.9969091,59.405945
0.91625166,54.53084
1.114684,55.281673
0.9831972,54.263763
0.9382769,56.861332
0.959594,53.742996
0.88383734,54.296658
0.9844915,48.914112
0.9014106,46.88569
0.94256616,46.744553
0.9186205,42.172226
0.9453577,49.094563
0.9308444,43.251583
0.90113425,40.00073
0.82581353,41.38061
0.89305794,44.72716
0.8277364,40.0
0.8052308,41.871906
0.8177655,40.0
0.7381575,41.8381
0.7859872,42.57134
0.7070903,40.0
0.7074508,40.0
0.6900308,40.0
0.60649437,40.0
0.4958619,44.492184
0.5226733,40.676884
0.42182055,40.0
0.6244553,43.04268
0.6066655,45.207626
0.6730785,46.001266
0.66604096,48.2613
0.66294694,52.76459
0.7493053,54.531567
0.7961877,54.043354
0.88119954,55.467358
0.9529627,61.385357
0.9505708,60.489162
1.1951216,61.34651
1.2400614,68.00039
1.2914288,67.44351
1.3880389,73.38514
1.4240962,73.69711
1.5456367,75.8515
1.5105487,75.04403
1.6534724,82.008484
1.7457017,81.53407
1.8238431,84.303734
1.7989172,90.36167
1.8359665,89.00942
1.9038519,92.97362
1.9919186,88.689224
1.8741707,89.37848
1.929014,96.13789
1.8304912,96.36089
1.9105091,95.090744
1.9881732,94.279655
1.9505764,100.90549
1.798763,99.14002
1.8461832,97.69689
1.807815,102.35495
1.8829936,96.605835
1.8856723,96.78552
1.8424699,95.15696
1.8569559,101.18165
1.8774122,97.576
1.7492205,97.19527
1.8170328,96.681114
1.6839511,96.60623
1.6008409,98.37342
1.5939413,93.85274
1.6375369,89.44262
1.5253297,92.71614
1.562235,88.36872
1.5398906,90.64802
1.4322282,84.1874
1.4493523,88.86415
1.5930444,85.16702
1.4340732,83.057465
1.5319258,82.2701
1.5052164,84.02477
1.3870562,82.87614
1.3521218,76.04745
1.376875,76.54128
1.3395271,79.37231
1.3220929,70.29948
1.2809545,73.87324
1.3679153,73.22503
1.242097,74.17203
1.2742392,71.56925
1.1052252,66.94332
1.2451912,66.77759
1.1937052,64.663506
1.0804989,63.578686
1.0015724,66.6548
1.0584341,63.95832
0.9902603,59.004715
0.8223715,57.6365
0.8025087,59.87034
0.92937374,51.63526
0.8117109,55.77815
0.69259703,53.52769
0.7928895,47.165203
0.78631747,47.40094
0.5388725,50.15533
0.74998754,49.75975
0.8848527,42.80068
0.6990337,46.66402
0.7103824,45.337128
0.60016704,43.893787
0.6744924,41.81049
0.705607,40.0
0.6980018,43.972206
0.6772649,45.172062
0.63868463,40.0
0.6786221,40.3917
0.53044736,40.0
0.5026433,40.0
0.4775563,40.0
0.48064032,40.0
0.27051,40.0
0.3089514,40.21848
0.23060194,40.09716
0.21873288,42.50396
0.38103834,40.0
0.34196046,42.874172
0.2750225,45.022762
0.35817516,50.04427
0.3269678,50.347527
0.48970526,52.99101
0.47008336,56.386745
0.53396386,53.381588
0.61648315,55.628094
0.66953945,62.936367
0.8067109,60.487595
0.8596594,59.89645
0.90527314,61.623116
1.0243565,66.19197
1.0807484,66.16916
1.0310025,76.4197
1.2551407,77.28955
1.3150514,81.32587
1.3036069,77.94834
1.4618481,81.29837
1.3851846,83.876274
1.4627131,87.283
1.5141829,88.34042
1.4889491,91.154236
1.6229357,96.9559
1.7126276,94.86133
1.5890418,95.67388
1.6737443,98.59319
1.7132386,97.786674
1.6150857,98.24714
1.5715879,97.69896
1.5986804,98.838356
1.6161644,101.18538
1.4740536,100.54976
1.6050338,99.71092
1.5502993,97.36698
1.4536556,97.143295
1.5990567,96.03735
1.4686161,93.87154
1.5603368,99.14992
1.308521,98.326195
1.2251203,96.57875
1.2763454,101.5851
1.3510293,92.78927
1.3438256,99.27185
1.3105193,94.32307
1.23955,89.628296
1.138898,88.74335
1.230559,90.8182
1.1676127,87.16752
1.1980214,86.08813
1.0998411,82.94405
1.1195085,85.37786
1.0340081,84.787224
1.0280762,79.40657
1.2038093,84.53578
1.1869863,77.74997
1.0523738,75.97649
0.9452748,73.775635
0.9900336,70.53856
0.9513157,70.61647
0.9188125,73.276375
0.90152144,66.405334
0.7842808,67.84883
0.87480897,67.108185
0.78991795,67.76707
0.7305205,62.275963
0.6682427,62.506954
0.6692508,66.2576
0.5639454,62.300167
0.59589195,58.635876
0.6130213,58.029507
0.58763343,56.05888
0.4067456,54.731407
0.4081192,54.771255
0.42282853,53.254833
0.4432834,50.92321
0.46651646,48.728664
0.41534728,47.849564
0.43087232,48.327026
0.54892355,42.432884
0.2641815,48.117687
0.33644876,41.493305
0.3232259,45.076256
0.3894309,43.604813
0.39850232,40.0
0.29079473,40.0
0.2793248,40.24476
0.24645157,40.07136
0.23071265,41.26394
0.21384996,40.0
0.24674019,42.219044
0.08828271,40.0
0.08250276,40.132397
0.0098583,40.54991
-0.0009422161,41.164284
0.0045255637,42.947575
0.0043337853,45.951324
0.0149291195,42.060898
0.019615324,41.26928
0.02332137,47.87848
0.011570154,49.24155
0.11223363,50.841125
0.15628088,48.065216
0.1497997,52.423462
0.21843597,54.85259
0.33542943,53.809723
0.4917766,60.172047
0.43519816,61.959274
0.57467175,66.09878
0.6002946,64.51846
0.70342374,68.53612
0.95455575,66.025406
0.9560638,68.64698
0.98554116,77.83189
1.0280315,76.322586
1.117143,81.51488
1.1173671,86.903755
1.2229397,80.711754
1.2822537,86.459274
1.2482352,87.24133
1.4498304,89.44132
1.2621081,90.93598
1.3141471,96.622986
1.4226552,94.053825
1.3527462,97.898766
1.3686007,95.75029
1.3683242,98.016106
1.4879404,100.891304
1.3120064,101.45384
1.3999529,103.667595
1.3248826,97.45444
1.4203097,104.06884
1.3197347,95.06248
1.2314234,100.014755
1.231354,97.48694
1.2809118,94.709465
1.2514622,101.91568
1.2185639,98.68405
1.2754738,96.890434
1.10407,94.616615
1.0269274,96.218475
1.1063874,91.25028
1.08256,90.78433
0.96095395,88.741066
0.93469286,88.96891
1.0340514,88.728966
0.88315105,85.73292
1.0085071,91.144
1.118392,86.00466
0.9044787,84.48132
0.90880144,82.182785
0.83919084,78.354294
0.84945136,78.30734
0.8362203,74.2804
0.8335897,72.64167
0.8883604,73.36608
0.8452582,73.84134
0.8985254,71.24054
0.7831716,76.03134
0.6871774,72.76662
0.6906168,68.51122
0.73520863,67.117516
0.6629171,61.48734
0.5678068,60.2132
0.52603245,59.971085
0.54883516,61.549767
0.48973456,62.551678
0.48791716,63.0052
0.43539792,56.431534
0.3985584,54.633595
0.4441698,56.09998
0.4110015,54.381866
0.45238024,49.348717
0.4313571,49.250275
0.39506656,47.669685
0.37147966,47.652115
0.3574444,51.64557
0.2934862,50.505543
0.40247604,42.967915
0.46264008,46.2306
0.26579934,48.867626
0.39107594,40.0
0.25453615,40.0
0.2798167,40.0
0.26885527,43.384964
0.36207473,40.0
0.13438497,40.0
0.19803858,40.0
0.11457946,40.0
0.047553994,40.0
0.027470943,40.0
-0.05014942,40.0
0.0613705,40.0
-0.040431585,40.0
0.072196156,44.987713
0.087893836,44.297867
0.1514245,40.0
0.096694104,45.753967
0.063993335,48.61788
0.13542831,49.11338
0.22341092,50.298298
0.34261093,48.69116
0.36169487,58.680065
0.32141438,62.43218
0.4894789,59.193413
0.74462646,65.67039
0.57891953,66.02679
0.84222925,66.62741
0.846051,70.273445
0.9755007,75.86589
1.0011513,72.75627
1.0755906,76.83362
1.1706933,80.351295
1.3053361,76.561935
1.2250826,84.36805
1.1991811,83.87631
1.4219832,92.90412
1.3870952,92.541214
1.485518,93.7778
1.4141965,95.69864
1.5342014,89.24504
1.5733813,98.72254
1.4770526,95.1382
1.5925113,98.27406
1.5002668,98.5763
1.5230215,99.21397
1.4935861,100.34808
1.4896609,95.943306
1.3738372,98.63297
1.4154474,102.13495
1.4821995,103.48077
1.4163489,99.95466
1.3758522,98.95125
1.5301638,98.39772
1.2821289,96.92087
1.2893605,97.47348
1.2968215,95.310234
1.2750086,92.82648
1.3093647,94.49381
1.1478889,92.12803
1.1667085,93.61771
1.250176,92.3225
1.2628376,86.528496
1.203652,88.32396
1.0964445,82.807205
1.1662139,85.11528
1.1395446,82.41576
1.2065598,82.64969
1.1618341,81.91886
1.0751915,80.104935
1.1144795,78.02661
1.160966,73.88959
1.1442323,73.10571
1.077194,74.38215
1.1536237,72.25792
0.92166615,72.076195
0.9528084,68.149734
1.0032092,66.44433
1.0556874,65.58448
0.99210066,63.11655
0.8883999,65.19695
0.90931624,62.87739
0.80995286,58.46132
0.8522187,65.06697
0.8443148,62.710644
0.7121723,59.88264
0.5820756,56.34363
0.6605025,49.775723
0.6319858,55.192337
0.6531416,53.2164
0.6762986,52.01439
0.69984555,49.692867
0.6204109,45.68055
0.5859705,46.795467
0.599088,49.650192
0.70865786,40.0
0.75915325,40.14964
0.6696525,44.789738
0.63565385,40.009705
0.71726835,40.242943
0.63330126,40.0
0.5780738,40.098713
0.5695869,40.0
0.5684746,40.0
0.5847616,40.0
0.49767023,40.238205
0.43514884,40.0
0.39589462,40.0
0.34491527,43.765026
0.24065249,40.0
0.3759985,40.0
0.3051187,43.95556
0.40335032,45.044582
0.41961858,42.864174
0.37352958,42.951866
0.45925155,48.52971
0.5369166,46.802692
0.44745535,51.71756
0.7045492,51.763226
0.63871664,53.51837
0.78887457,58.961926
0.74566895,60.979866
0.9796165,61.463745
1.0573204,64.842995
1.2895411,66.9868
1.1892071,67.99032
1.2799116,74.09435
1.2946179,76.84365
1.5389713,76.74923
1.5171806,82.68438
1.6314013,77.02642
1.5947366,87.15822
1.6847739,83.941505
1.633048,87.99573
1.7392704,87.93738
1.7800547,86.04708
1.8585941,96.49754
1.8034215,98.5237
1.8673532,100.11349
1.8051714,92.83512
1.8994724,96.28175
1.8879553,103.6045
1.9323735,102.13175
1.8460462,100.06578
1.9047292,101.0502
1.8960901,103.20924
1.7955667,99.6432
1.7714227,98.01461
1.8358926,99.89276
1.6486884,98.19614
1.7157854,98.47121
1.6738292,96.37731
1.7541951,98.1316
1.5707574,91.92074
1.6162136,92.68688
1.6532953,94.42831
1.6228311,92.465706
1.7415853,91.036835
1.5528673,88.37427
1.4564743,90.328606
1.4123436,90.21025
1.4860933,86.89426
1.403623,82.65495
1.5456978,88.2237
1.4787107,84.55985
1.5034243,80.43109
1.456965,80.10543
1.4873209,78.5632
1.4790403,77.0466
1.567112,76.15981
1.4140166,77.44118
1.4053841,72.62764
1.4308183,71.58922
1.3044919,69.05742
1.3137972,70.63687
1.2833508,68.38039
1.2884482,65.19193
1.2735248,60.465183
1.1953747,65.411995
1.0399543,57.193195
1.1473072,60.815475
1.0608323,59.33193
1.0085336,54.098656
1.0553384,60.883488
1.0666349,56.23308
0.90475285,52.84855
1.0010233,50.50362
0.8911255,53.730408
0.9451834,48.489906
0.9065113,49.285324
0.9466031,43.919735
0.8474224,44.02505
0.97874624,40.46327
0.9272078,42.207172
0.8485472,42.295094
0.92025775,40.0
0.9447287,40.0
0.837316,42.198513
0.88257444,41.91538
0.9028393,40.0
0.8000478,40.0
0.6947345,40.95752
0.7191353,40.0
0.6503247,40.0
0.64015937,40.0
0.5470868,45.820484
0.50615156,42.29635
0.42393544,43.166756
0.58195853,46.66262
0.5241912,41.111355
0.66767186,47.082634
0.51652163,44.2597
0.6200784,42.394325
0.59891933,48.538498
0.73217744,50.511456
0.70119095,58.529396
0.7806536,51.21499
0.83692336,56.836857
0.984504,57.607243
1.0610265,62.895767
1.1729257,65.57885
1.1636063,66.00326
1.308964,71.09188
1.3710444,77.822586
1.4536527,74.430504
1.5814238,77.67389
1.5690019,78.12624
1.6438451,79.40883
1.7514906,82.567314
1.7392172,87.815094
1.8655232,89.48248
1.8817054,87.33095
1.8553334,90.733734
1.867804,94.768936
1.9051433,96.19325
2.0339758,93.99273
1.9050145,98.86909
1.9246367,95.789955
1.8545073,98.28525
1.8938462,98.168045
1.9779143,100.673065
1.9279635,99.64561
1.9400101,98.50991
1.9294015,106.114426
1.890902,96.52964
1.8479618,103.0614
1.81298,99.659904
1.7473623,98.5328
1.7463177,99.974556
1.7178882,96.24391
1.6838803,94.4233
1.7174523,96.30904
1.6918255,92.67359
1.6642239,94.18821
1.6323363,91.357056
1.6015279,94.14335
1.6002182,91.06418
1.5143977,88.91587
1.4864272,83.89367
1.522723,88.741554
1.5005652,86.49963
1.5194908,84.51356
1.4960072,81.47005
1.5715811,80.54624
1.4338462,79.04441
1.3274511,79.900925
1.2877498,80.04182
1.3768698,78.37815
1.3131782,77.15349
1.398339,68.28691
1.3226957,73.52202
1.2139218,69.341866
1.2600399,70.48921
1.1279278,68.166336
1.1744603,66.30843
1.0697643,64.130226
1.0094041,66.85328
1.0194092,60.17208
1.0438406,65.84725
0.9679199,59.626354
0.92736155,61.840363
0.9506612,61.10675
0.7867572,56.085453
0.86846113,54.324093
0.78340405,50.450798
0.7790935,49.776142
0.7562057,46.18466
0.85044456,50.930397
0.92081046,48.338932
0.7370598,46.598045
0.88962996,42.533875
0.79910785,42.85822
0.70436376,40.326782
0.65160036,40.601997
0.7812008,40.0
0.7718666,40.718082
0.6624365,40.320045
0.6778722,40.0
0.67864287,40.100304
0.48342496,41.225113
0.47079602,40.0
0.45001027,40.0
0.48588255,44.48265
0.3608142,42.58942
0.28315967,45.39937
0.39515382,40.0
0.40246886,42.19386
0.2830742,45.478626
0.32029656,46.060284
