ppg,abp
1.0862284,79.79843
1.1109322,84.14344
1.2168075,87.83607
1.211165,87.64296
1.4486858,91.520836
1.5725362,96.00462
1.530349,92.75618
1.6007777,99.55652
1.5735334,101.960236
1.6451639,101.61072
1.7241387,105.27033
1.7536261,104.996284
1.6789024,108.06993
1.8270617,106.48257
1.8207202,110.14749
1.6912353,109.462975
1.8095702,110.35752
1.7742424,110.7962
1.7097073,111.684586
1.7491685,111.34523
1.6239597,109.486176
1.6367147,108.7688
1.5573783,109.65681
1.5777814,107.65557
1.538477,108.06146
1.497295,104.15785
1.4949849,106.05087
1.3705573,100.56988
1.3527586,101.4501
1.3652343,103.13717
1.4322555,98.63221
1.4038787,93.870705
1.3779643,98.084595
1.3236101,92.80218
1.299464,92.05879
1.3030481,87.32675
1.2543433,86.48615
1.3180588,83.47449
1.3435794,87.96173
1.217511,84.47706
1.236088,81.79932
1.279527,78.008575
1.1733282,79.13729
1.1337638,75.626434
1.001825,75.46418
0.99807304,74.923256
0.9322639,73.38282
0.95707375,73.135315
0.97196954,65.952415
0.8255009,67.34495
0.79471755,62.39932
0.7002565,62.747623
0.7417068,62.25764
0.7360175,59.867832
0.86998546,60.874786
0.7436931,56.30369
0.76772255,56.34664
0.71992254,53.317276
0.7800287,51.40933
0.78288126,54.325554
0.83316857,52.29837
0.71232027,51.790066
0.74765366,50.58392
0.73922145,51.2782
0.71223176,49.51468
0.69005495,46.332874
0.6174127,46.540676
0.5273699,49.752567
0.56046253,48.39434
0.5479497,51.52985
0.43507186,48.991463
0.50972474,53.823772
0.5308488,52.20617
0.44742167,54.41344
0.47565135,56.7158
0.56198597,62.25611
0.61178786,61.077618
0.77317566,65.6986
0.9330983,64.0928
0.9187124,72.67924
1.1151704,72.90511
1.1403027,75.27784
1.2966725,78.688866
1.3403355,81.2777
1.4930236,79.64224
1.6602033,87.34252
1.6553644,88.07844
1.6462697,94.52033
1.7333394,91.42372
1.8631728,98.74776
1.8861543,99.79767
1.8332394,100.402374
1.966048,99.78665
1.8980479,109.159775
1.9271939,103.65615
1.9470471,108.46477
1.8969141,111.07469
2.054213,111.59579
1.8535262,111.45108
1.9157847,110.349174
1.871138,109.28444
1.9599136,111.544235
1.9277455,109.90454
1.9274516,105.807205
1.7371771,107.51225
1.7258648,108.251686
1.8452349,106.32387
1.6821584,103.61599
1.6306125,103.405045
1.6126776,104.97809
1.5611324,103.29015
1.5947436,98.73128
1.5259131,96.32323
1.4555589,97.70967
1.5794216,96.428696
1.6473806,92.71613
1.5331088,91.57125
1.532224,89.09119
1.5037259,91.63147
1.5612233,86.80627
1.5149273,87.336716
1.4544573,86.26073
1.4438721,80.067276
1.4403905,78.234795
1.3126193,76.356
1.2761621,78.54056
1.2862252,74.02915
1.2126768,75.21583
1.2230529,71.69124
1.1373783,72.30849
1.0927545,69.52146
0.9341989,67.397125
1.0843618,64.714554
0.92901695,67.150505
0.9668124,59.007378
0.9229639,59.315205
0.85247236,61.3254
0.8707708,59.09601
0.85723054,56.720978
0.88029975,57.309536
0.82561487,57.983826
0.8799639,53.283855
0.8737545,50.978466
0.962719,50.896122
0.87876326,54.000843
0.9059115,49.67226
0.8419142,49.122257
0.7338361,47.6417
0.7430126,48.070545
0.6111112,50.172276
0.57612634,48.8778
0.5638873,49.445663
0.5413574,48.60906
0.45757136,53.45124
0.5211145,55.505157
0.4884378,57.908672
0.5396761,58.53355
0.66254693,58.670555
0.7623751,60.82913
0.8036826,64.69341
0.7832242,66.06162
0.86841524,66.83024
1.0112932,73.180305
1.1508616,75.29059
1.1520538,77.74317
1.3054714,82.51052
1.4629273,83.26322
1.5300217,87.53754
1.6203564,89.014885
1.7181458,91.49412
1.7623053,93.89941
1.7468591,94.149796
1.7846466,96.00053
1.7845914,102.5721
1.8013525,101.32948
1.8265325,102.88737
1.9049134,105.79866
1.8239565,107.017654
1.9280006,105.43768
1.8912698,109.48635
1.8674858,107.84631
1.8615086,108.4552
1.7525616,113.36259
1.809115,110.80815
1.872924,110.02061
1.8963357,110.4126
1.8218396,109.34292
1.7693534,108.02931
1.7247579,106.52757
1.6096454,102.39764
1.6392813,104.27701
1.5226204,99.75316
1.5648459,100.62159
1.4940219,98.92907
1.4671122,100.61388
1.4407487,98.59986
1.4353311,93.000916
1.3937902,92.926796
1.3937538,96.32089
1.2937381,89.62139
1.4362429,89.08153
1.3491948,87.548706
1.3377763,84.527596
1.3007338,85.03553
1.2681156,85.016396
1.2221282,80.42568
1.2361395,80.481064
1.1869717,78.65116
1.2211031,76.07689
0.9844432,74.560425
1.0601919,68.64448
0.9925549,73.075134
0.9256618,67.76424
0.7893571,71.72734
0.87370706,65.75602
0.81426394,65.80142
0.7660576,61.475636
0.7540718,62.699654
0.73495257,62.031574
0.789326,55.329105
0.68529546,61.35981
0.730642,58.525898
0.6663733,54.56735
0.67495555,54.796944
0.68189806,50.6846
0.6869086,50.680073
0.64942986,49.431385
0.6325279,49.57214
0.5745769,50.883465
0.5638338,47.89538
0.4377778,50.26094
0.5171146,47.83959
0.42111352,47.293095
0.32398385,50.533806
0.3450377,49.5825
0.30068538,51.46983
0.3178986,54.407677
0.31596416,55.985466
0.36064604,54.14563
0.30066848,59.729225
0.44363612,61.64356
0.57100064,62.1776
0.5657454,64.66342
0.60760045,69.201126
0.7865989,73.04721
0.8237196,73.007164
0.8827078,80.13534
0.9853477,80.53265
1.1564945,80.22683
1.1943742,87.27814
1.3234658,87.11229
1.397525,91.39903
1.3723224,91.408905
1.4990096,95.997284
1.5574001,98.8376
1.524629,98.98815
1.663909,103.52627
1.649227,104.19751
1.6452475,102.46761
1.5220517,106.872116
1.651474,108.794945
1.6974778,107.79941
1.6064445,109.745514
1.5242797,108.3754
1.5777794,109.304985
1.7313576,108.64255
1.509476,110.43482
1.392652,111.925385
1.548505,109.10094
1.4643545,106.42798
1.4193795,108.24006
1.4622467,106.25149
1.354036,104.30363
1.3356947,105.00785
1.2369689,100.47588
1.1629828,102.13946
1.2838066,100.24431
1.1589254,98.40608
1.1667604,97.95611
1.1631857,98.114525
1.165112,90.905655
1.1020856,90.84727
0.91548425,89.177086
0.978287,86.72253
1.065859,85.775406
1.0147885,84.787766
0.9439916,83.88942
0.9363706,79.835815
0.991063,85.32826
0.9197072,79.7035
0.9118506,78.71309
0.83843637,76.50612
0.7152651,74.26126
0.70170003,70.931206
0.697857,68.800514
0.5305964,69.503296
0.51800036,66.13732
0.5282242,69.31558
0.47302756,64.03281
0.34665826,62.937294
0.5297609,60.740147
0.3908655,60.716553
0.46323794,55.552593
0.49978483,56.64999
0.5424462,55.535316
0.4098529,55.45564
0.41096607,51.39419
0.46004963,51.601208
0.47071066,49.67092
0.32385266,50.12087
0.30683097,49.861397
0.29324293,48.707874
0.23859379,49.85209
0.24246947,50.58892
0.118581496,48.832165
0.12036708,46.100716
0.07610095,50.603046
0.0038723256,50.67666
0.081793085,48.26443
-0.07910675,55.135784
0.001229263,55.520584
0.06800145,54.366936
0.15190054,60.365883
0.17607406,59.41515
0.32902056,62.938953
0.3188079,69.53359
0.4123242,68.73057
0.5891046,72.051765
0.7242968,71.59646
0.68588525,79.28487
0.8329122,80.85018
0.94302154,84.18758
1.0723977,88.626205
1.0914627,88.77577
1.0963348,94.391335
1.2748076,93.71518
1.2370145,95.91422
1.3377239,94.8288
1.3782349,101.97496
1.3522574,106.74134
1.3963277,104.754364
1.4756523,106.244446
1.3759688,106.615585
1.3751258,109.1049
1.3201305,109.19103
1.4146731,109.367226
1.3686421,107.40731
1.4102641,109.02492
1.413405,110.3237
1.3495599,112.37202
1.199975,107.47758
1.2431482,108.071236
1.1993339,105.36717
1.0672541,105.873024
1.129446,103.07881
1.1106498,101.89045
0.9805322,103.673096
1.0286481,102.64798
1.05673,102.93316
0.9774496,98.60914
0.97325677,95.0306
0.89197206,94.6122
0.96711016,94.19621
0.8944902,95.21828
0.87349576,91.97442
0.90734434,89.374
0.9326123,88.21271
0.84011436,86.08911
0.8724969,82.66737
0.8016234,83.381065
0.8640371,79.209854
0.6334622,78.483345
0.69455874,75.47366
0.72103494,75.34768
0.5720792,74.60466
0.46793294,72.65253
0.38765296,68.49855
0.4401328,71.39928
0.52548444,68.25266
0.5004255,69.33032
0.28529274,62.35443
0.35363346,61.517403
0.3823368,60.265026
0.37126246,59.431255
0.36565667,58.76682
0.19624336,56.757515
0.32728422,56.215862
0.38269377,54.17532
0.31880847,53.380993
0.29660818,52.6681
0.3830795,51.99052
0.28210032,50.391705
0.22409125,50.923615
0.2244154,49.83645
0.18988855,44.154865
0.077900074,50.61619
0.130307,48.75323
0.019269535,48.775803
0.022592599,52.673286
-0.053568214,49.462494
-0.023753434,50.85504
-0.0439465,52.30566
-0.0062339483,54.59327
-0.096925415,56.88203
0.040514607,56.45782
0.15916441,59.772602
0.24255955,63.4754
0.22921082,66.76768
0.38353488,67.872055
0.50694066,71.49448
0.59311396,76.967064
0.7996195,77.434616
0.7088559,80.143654
0.8499259,79.02466
1.0631166,86.104675
1.0117627,85.54636
1.2128795,90.77949
1.2074128,96.1889
1.2770585,93.098274
1.3090491,93.90855
1.2975978,102.274376
1.4484723,103.05306
1.4182299,104.11994
1.4264022,104.43689
1.3967153,106.66678
1.3673937,109.655785
1.4704355,105.01778
1.4361197,108.20036
1.3982269,107.004974
1.4699079,109.25836
1.4455762,109.21051
1.4118029,109.473175
1.2645365,110.36892
1.2830092,105.4042
1.275009,108.81494
1.1710739,105.45905
1.3183913,105.04128
1.2995675,105.581825
1.1667591,104.83299
1.1676929,102.372696
1.168895,98.3587
1.1308074,98.53541
1.1072407,96.01322
1.0363657,96.837456
1.1129155,94.00551
1.0352709,92.24686
0.9704806,88.65127
0.969651,90.192894
1.0331616,88.78173
0.8917713,88.87313
0.9541492,82.213715
0.9975379,82.162895
0.9665834,82.7644
0.879461,80.18819
0.8296236,78.94475
0.94200176,77.63368
0.7452531,74.88411
0.7436976,73.31196
0.72711456,74.93762
0.7590408,72.25135
0.6273562,70.78753
0.53135455,68.11117
0.47161373,66.34068
0.54588324,66.62978
0.4843407,60.522068
0.5901099,61.330048
0.38978192,60.19876
0.46477425,60.288544
0.48495328,56.97607
0.47314075,54.224117
0.5180056,56.82725
0.5267409,50.64648
0.5251847,54.02407
0.51251775,50.221554
0.5137591,50.77685
0.53079754,46.907906
0.39052266,47.472633
0.35146707,49.45197
0.30237362,48.42073
0.22082627,48.226475
0.19158371,50.40807
0.20063338,46.703728
0.15035707,50.88176
0.202491,51.909782
0.12010207,56.048088
0.28294528,54.470734
0.18928578,58.51648
0.3309525,62.854057
0.4360689,61.643547
0.37807095,64.91978
0.5376956,67.01175
0.66694343,71.39903
0.7037378,72.435196
0.7926223,75.605675
0.9447905,77.91117
1.1239681,81.12397
1.2321881,85.030464
1.2277246,85.590904
1.3489835,90.996666
1.3492006,89.58208
1.6281886,93.460625
1.538856,97.78205
1.6909876,97.09124
1.6277494,104.69319
1.61464,104.27829
1.7386559,101.90292
1.6373177,107.66208
1.7207605,105.01777
1.5920049,106.17036
1.5765113,106.704765
1.6134064,109.75249
1.65341,110.05987
1.6299864,110.53001
1.6387874,107.93661
1.5943666,110.467384
1.6766834,109.384
1.6247818,108.67141
1.516537,106.08164
1.4721922,105.87973
1.3788599,104.84431
1.538172,104.89939
1.264141,102.51018
1.4243915,98.96683
1.3876462,100.18022
1.3503214,99.6218
1.3231893,96.579384
1.3708823,96.56328
1.3556441,90.50143
1.4178848,93.76375
1.3518482,91.38129
1.2678871,87.235535
1.2326237,86.60392
1.3116878,84.324066
1.2105836,84.24595
1.2184441,84.21399
1.2171283,82.63094
1.0917389,80.67195
1.1511134,78.25897
1.1215031,75.3047
0.95759827,77.0216
0.9894537,69.85708
0.85951763,73.58987
0.9018822,67.828125
0.80667406,67.34504
0.77694243,66.63766
0.9217442,66.88725
0.80839527,61.757355
0.76958966,62.083183
0.7776498,59.129086
0.8188764,59.585335
0.90503865,60.632324
0.87029487,56.565933
0.85758585,53.30264
0.8593012,55.098595
0.8101245,54.668537
0.72584486,52.243504
0.7915903,48.830627
0.7139281,50.5719
0.65847945,47.26032
0.6625489,47.422737
0.5346958,49.430164
0.5534248,48.1985
0.58367765,51.009808
0.5880833,50.641727
0.40993685,52.25549
0.41953844,51.989937
0.5137766,55.229794
0.47357738,54.7917
0.45151564,54.72952
0.48244044,58.008602
0.5766412,60.475304
0.711625,63.716106
0.86339456,63.53481
0.9830507,68.64469
0.9534136,71.56425
1.1134655,70.85686
1.2466005,77.87466
1.2091037,79.23877
1.3897591,81.2588
1.485204,85.986534
1.6038145,89.726585
1.7285987,95.049164
1.7475936,92.62883
1.7302728,94.5662
1.8814255,98.23286
1.900427,101.123405
1.9097362,98.66802
1.913255,102.27039
1.8493519,103.812096
1.8938415,106.80976
2.012156,109.980064
1.8813292,108.92104
1.8839705,109.83577
1.9220425,110.014206
1.9386338,112.67774
1.8525599,109.209656
1.805022,105.85361
1.9458287,111.1395
1.810384,107.743675
1.7736225,107.7268
1.6811948,105.56398
1.7096586,104.652824
1.6788926,103.90686
1.6599412,101.210144
1.5766616,99.99686
1.5931995,101.47522
1.4993966,99.98884
1.5308939,97.834305
1.6211152,96.21952
1.5140954,93.724434
1.5056583,95.70267
1.5745498,90.53565
1.479246,90.51848
1.5835092,87.0973
1.4846113,85.306114
1.4971385,82.50308
1.3455707,84.08031
1.378739,82.27872
1.4314958,77.83987
1.250237,78.68249
1.1343439,76.36725
1.1859425,72.42571
1.1192687,71.00008
1.0963203,73.56592
1.1006525,71.32944
1.0203202,69.21137
0.92817366,66.12196
0.995633,64.27107
0.9646082,65.36344
0.99327666,63.29433
1.0289812,61.5181
0.90152717,60.157455
0.9663756,58.760178
0.92937285,57.577946
0.94413316,55.857716
0.9577484,51.85003
0.92453086,51.274834
0.97334903,52.086815
0.8260487,52.16185
0.92801505,50.614082
0.7449302,47.07282
0.83685523,47.22175
0.74159205,46.238293
0.6396959,46.80641
0.63347554,47.27197
0.42309642,49.744816
0.4535291,48.98714
0.59994245,54.31257
0.538046,56.1554
0.62415224,53.26357
0.6479264,53.314022
0.6052841,57.049614
0.70654374,58.701885
0.6599307,63.516827
0.80344117,65.921265
0.82036275,66.48212
0.944355,69.03387
1.1592976,74.37008
1.0675609,75.34287
1.2880682,78.560814
1.3915391,82.598495
1.5275143,84.587456
1.6468382,86.58072
1.6343709,88.128815
1.6448687,92.09574
1.747706,90.992455
1.8414038,99.497925
1.9012444,100.64183
1.8078612,103.80336
1.8683944,103.41716
1.8952712,105.36302
1.9164704,106.57237
1.9626102,109.28192
1.9233212,108.99268
1.8686227,111.090324
1.8499161,111.26716
1.9776047,110.9157
1.8220123,111.55554
1.890129,110.930664
1.7701019,111.02
1.894445,107.25053
1.7122053,106.19164
1.7276211,108.62339
1.6454632,105.031555
1.7537757,103.34412
1.5995221,102.04962
1.5433359,103.5252
1.481122,102.84223
1.4215493,98.07119
1.5241916,100.47501
1.3617238,99.02115
1.446416,94.37112
1.4854063,92.51712
1.3642746,91.11348
1.3396202,90.66369
1.404831,92.845955
1.293842,85.221275
1.3209156,85.66798
1.2769973,87.72984
1.2989652,82.532906
1.1605103,79.503204
1.2976428,78.784004
1.21939,79.92376
1.2022588,74.97857
1.102221,72.99613
0.9959078,73.09775
1.0218056,71.41518
0.8224504,68.71605
0.8818448,69.56996
0.87827235,67.0595
0.80455583,68.003716
0.87889826,63.97291
0.8247175,61.77376
0.7091793,59.503
0.7393222,56.419437
0.7865413,54.241978
0.68769443,52.391804
0.69916016,55.402336
0.7338135,56.39654
0.72769666,49.52083
0.716325,49.82122
0.5790751,48.571434
0.7129843,45.28062
0.614203,49.93973
0.61636066,47.87617
0.44112074,50.300903
0.49232486,51.112312
0.42652038,50.34233
0.42159688,47.967827
0.33219102,48.925262
0.28018543,53.726677
0.44534174,53.928154
0.36623436,58.92274
0.3897278,57.54418
0.40265658,58.721153
0.4598177,57.2844
0.556367,64.40155
0.62454426,64.325134
0.7589422,71.08566
0.77749014,73.11415
1.0308219,74.29152
0.9787536,81.8894
1.0611066,78.62562
1.2243878,83.93738
1.1920098,89.50053
1.2781634,92.082214
1.4083365,94.823845
1.4116616,91.6026
1.4899468,97.47444
1.5887756,98.39309
1.5706294,101.726585
1.613702,106.358025
1.6916387,105.38403
1.6411355,106.91124
1.6676633,107.05122
1.6385311,109.12655
1.6279926,107.52192
1.7075293,109.3032
1.6932247,112.38909
1.5817243,108.958984
1.5715492,107.88839
1.5257524,112.591
1.474415,107.18898
1.5120062,109.45705
1.4540386,109.7997
1.3697733,108.088936
1.3555789,104.8552
1.3548292,104.5875
1.2372603,101.06303
1.286445,102.4069
1.214049,100.37332
1.157326,97.21516
1.1888918,96.982445
1.2331587,91.95406
1.1998346,96.10058
1.084723,92.96846
1.0387245,90.3159
1.0451038,87.43578
1.0609323,86.8033
1.1521751,86.650665
1.0917441,82.18495
1.1768306,83.41157
0.98103195,82.336624
0.90941054,80.55007
0.9249575,75.92615
0.8300376,76.94287
0.78245,72.961685
0.78477657,74.30679
0.76002085,70.74998
0.66402024,70.48868
0.6851454,67.823906
0.5417095,65.94183
0.47272745,59.697582
0.6440164,64.420006
0.44244894,61.540874
0.51403165,59.518276
0.44028226,57.35535
0.4813295,58.121857
0.5082526,54.488426
0.4203132,53.402126
0.43723983,55.19382
0.35774773,50.997967
0.4844884,49.616642
0.43997765,52.141434
0.2600199,50.501255
0.39650616,49.120663
0.27591175,50.43482
0.24368888,51.355343
0.32098064,48.48042
0.12514396,50.002365
0.05913329,50.615295
0.20797521,51.40166
0.012533799,51.41254
0.047749113,54.72596
0.078200474,57.879166
-0.023375606,55.500996
0.057750408,59.73549
0.16965175,61.794468
0.25366765,63.941055
0.33393842,65.950485
0.43346992,68.89084
0.4157272,70.94183
0.53693503,74.79128
0.6317406,80.033936
0.8539159,81.484695
0.9102264,83.50352
1.0782236,84.38023
1.0521221,90.72985
1.1756788,92.89758
1.2803245,91.48101
1.227827,95.27179
1.2627702,99.255844
1.3705436,97.64327
1.3885549,103.528076
1.3649964,106.10701
1.4099026,107.48195
1.374462,108.22672
1.4316053,106.03588
1.3622922,109.336685
1.40617,109.29719
1.2615364,112.75391
1.2961391,112.7452
1.3420331,108.83792
1.3353628,111.27065
1.2926915,107.835724
1.2783183,109.43457
1.2557948,110.04032
1.2104167,108.68378
1.1517661,107.35383
1.1766003,104.666084
1.1187025,104.52532
1.086008,102.75628
0.99415547,98.59441
0.9636556,99.797325
1.0845848,97.12622
0.8866511,96.48903
0.91392237,93.031364
0.89329183,91.41917
0.93158257,92.42135
0.8272398,90.70639
0.87167877,89.8301
0.8545588,84.86186
0.6737445,86.894554
0.86110115,83.35127
0.87255716,82.04609
0.7517006,82.16181
0.77545166,78.07721
0.7961314,76.07008
0.6287036,72.075035
0.7055392,72.813126
0.3771915,71.639046
0.48819295,72.07221
0.40052786,70.45304
0.38711843,67.96913
0.32557523,65.5178
0.37028083,64.400246
0.3426966,64.81868
0.39343682,64.090775
0.33112606,60.850204
0.35765883,59.03675
0.33733603,56.14417
0.3192355,53.1094
0.33332387,55.37153
0.29116908,52.3572
0.32817617,52.137302
0.21175644,53.018665
0.2489822,51.90297
0.16271573,49.847084
0.24698018,49.642834
0.15786287,49.440353
0.06512743,47.908787
0.06085926,47.376556
0.029187655,46.710808
-0.0279241,49.170364
0.014174211,54.210163
-0.07466555,54.174484
-0.056047294,53.670895
-0.0020051308,56.77947
-0.030577332,58.483925
-0.069699325,59.47229
0.18112294,64.0121
0.28323668,66.88345
0.3304143,66.24099
0.305067,69.016754
0.48076183,72.800125
0.65625834,73.61658
0.79569453,77.81517
0.824998,83.30567
0.9274228,82.95871
0.9570626,84.423904
1.07136,91.49264
1.2418952,91.701904
1.1975347,91.35111
1.4066614,94.28852
1.2231513,102.03706
1.3201643,103.2029
1.4447815,102.31634
1.4720887,104.71099
1.4077215,105.06144
1.3429639,107.66937
1.4309037,107.33735
1.3085622,112.0388
1.3986373,113.645935
1.4660916,107.93375
1.4180923,108.73823
1.3593457,107.9141
1.4209323,107.720245
1.4440329,109.63858
1.2824926,106.82345
1.4224154,110.39793
1.2735469,106.22501
1.2253332,105.059395
1.2875874,101.45049
1.1699811,100.98505
0.9610206,100.230385
1.102081,101.41894
1.0931135,102.2809
1.0204141,100.581566
0.99886936,94.365845
1.0324267,95.66826
1.0387194,92.78183
1.0964462,91.52549
1.0184519,90.80731
1.0036349,89.07058
0.94900423,84.903496
0.9400038,82.5922
0.83999854,80.25707
0.84275424,81.42083
0.79146963,79.46896
0.74217963,76.99792
0.5911228,75.16003
0.7340494,74.22474
0.67929214,72.632515
0.6533842,71.4351
0.6362412,71.10353
0.5948434,67.648315
0.6529233,66.5057
0.6041532,64.42824
0.5310629,63.701473
0.55066067,61.08974
0.5328226,61.55223
0.54692227,59.519466
0.4855777,54.82866
0.58384967,53.78229
0.5285519,56.493034
0.43983892,52.419304
0.48925236,51.629032
0.43572858,51.967022
0.40668112,49.13177
0.48990133,49.05037
0.40048963,51.06676
0.3411788,49.359196
0.2927136,48.34069
0.3585562,49.061592
0.15955533,50.59888
0.2741947,49.050293
0.1328427,50.501762
0.15559617,51.199432
0.17484604,52.446346
0.18642981,50.985146
0.27350637,54.694748
0.28707507,61.768894
0.39733052,59.80854
0.49549258,65.05868
0.55669045,67.4026
0.5421326,68.388725
0.75279576,71.56983
0.7845739,73.89793
0.8136081,75.20517
0.934187,80.30128
1.1239419,85.100266
1.1887608,86.34996
1.3477547,86.3436
1.4476289,90.5615
1.4898403,93.80032
1.3998444,94.25488
1.598863,99.39586
1.5707791,98.14385
1.6461599,101.64046
1.677053,106.0451
1.6804589,107.14813
1.7015423,108.68489
1.6859716,107.08108
1.7369438,107.778694
1.6931804,108.09297
1.7271003,110.404655
1.6634043,108.98057
1.7698514,109.19679
1.6022415,112.688484
1.526242,110.769585
1.659339,109.79003
1.5254153,109.28965
1.5551115,106.31911
1.4606085,105.83737
1.4940289,104.85351
1.3616692,101.46751
1.3430145,103.56998
1.3213158,99.9392
1.3024471,99.79342
1.2829003,96.342186
1.3193194,97.93449
1.304876,96.099144
1.2936318,91.56555
1.1301588,91.57921
1.2642453,90.480064
1.2872785,90.246376
1.2198148,86.0717
1.1435078,83.76949
1.0758206,83.77106
1.248555,81.0404
1.1527308,78.0989
1.1671945,76.291435
1.1416935,74.78622
1.0851442,75.20095
1.0435594,75.60947
0.9150338,73.21668
0.9759463,68.76861
0.74017906,69.264114
0.75392,71.372635
0.81193644,64.57115
0.7000344,60.61989
0.78145653,63.428932
0.8298559,62.34913
0.83783114,58.0718
0.7383345,57.49248
0.72566974,55.29831
0.77810544,52.603413
0.8479219,51.610313
0.7304702,55.01084
0.8016221,52.419453
0.72853655,51.97522
0.6347274,54.070198
0.7251276,46.60266
0.5849998,48.344955
0.62517715,51.48972
0.61163574,49.048138
0.53496665,51.810925
0.5262496,51.65445
0.46891147,52.50827
0.45169756,52.335762
0.51322305,54.17909
0.49489254,54.77051
0.44952738,59.217197
0.5344168,60.425697
0.62857527,62.804337
0.67464715,62.738926
0.811592,64.67198
0.8278812,68.41422
0.8637086,70.71755
0.9375563,70.585754
1.0735575,76.34643
1.2335114,77.1134
1.2967758,80.65998
1.4565355,86.383064
1.5373089,84.86889
1.549431,90.07549
1.68539,91.20898
1.6648356,93.90855
1.8195167,95.92048
1.8051643,96.18735
1.8210124,104.08838
1.9134208,104.351746
1.9907248,104.824715
2.007234,108.96662
2.0575848,110.3029
2.0588453,110.47826
1.9725055,108.44304
1.8507925,109.74581
1.9954784,112.825
2.0084913,109.38843
1.9263083,111.120056
1.8809719,107.34629
1.9697105,106.56248
1.9301969,110.35661
1.6541343,105.92061
1.7843217,105.335556
1.7012353,107.753105
1.6586612,101.725365
1.622221,104.199005
1.6494437,100.228966
1.5924776,100.00421
1.6584405,96.82098
1.4779041,99.02998
1.5194993,92.20673
1.5671289,95.67313
1.5406982,91.917336
1.4889907,89.63734
1.4880445,87.82106
1.4583256,90.58737
1.4604268,83.55707
1.3474756,84.02818
1.3773717,80.8642
1.3234392,82.13902
1.2963908,80.10796
1.3599639,77.05996
1.2278538,79.62334
1.1287366,73.75306
1.1336578,71.75743
1.2106929,67.590935
1.015722,70.986565
0.9453536,65.66232
1.0133021,65.25664
0.9311459,63.08149
0.9600323,61.053604
0.87057334,61.138412
1.0012467,58.884377
0.9220827,60.20931
0.9235481,56.915977
1.0260186,53.86588
0.9227017,53.865616
0.96306247,57.450912
0.9267829,53.861732
0.92018527,48.941387
0.8449394,49.615364
0.85231805,52.354744
0.7671351,47.458145
0.6957065,50.607388
0.6385337,49.31519
0.545799,50.79095
0.5370261,50.17336
0.6020248,45.498634
0.4613898,53.26779
0.48606884,53.440132
0.5116197,53.750195
0.61109674,57.321716
0.5794121,59.167206
0.6159671,57.72095
0.64143157,61.001545
0.8315299,65.71042
0.8479504,69.784645
0.9474402,68.00029
1.0764805,68.99095
1.2305897,71.79435
1.242842,77.02747
1.3242627,79.87645
1.4919535,82.49193
1.5805285,85.90348
1.6112499,89.329
1.6826882,89.6316
1.6950461,93.390854
1.7708291,96.51514
1.7557591,96.38695
1.8723419,102.321526
1.8904068,104.07388
1.8805482,104.676056
1.9085197,105.32825
1.8926458,108.23246
1.9799471,107.88828
1.9054868,112.369804
1.934307,108.23985
1.9028736,115.604805
1.9021543,109.44312
1.9361815,111.14939
1.809771,107.386505
1.8871576,108.69592
1.7787919,109.77203
1.7604023,106.73878
1.6947135,110.261856
1.6804975,108.42914
1.6156799,106.125565
1.5910192,103.57295
1.5605515,99.62849
1.5010285,103.45674
1.5011775,99.757835
1.5404165,97.55397
1.4234811,96.53068
1.3960127,93.99895
1.3836968,91.3205
1.5129387,91.14878
1.4181472,87.33746
1.3446536,89.104645
1.3193201,84.476555
1.3749895,83.718
1.3165455,83.222786
1.2539817,78.129524
1.2708356,83.00448
1.1873947,80.093575
1.1770899,76.9697
1.0608431,74.05573
1.0411386,72.35371
1.0232718,71.76587
1.0242809,69.47527
0.8600544,70.26199
0.97206014,64.91782
0.84397846,63.980038
0.74872845,63.041134
0.75664026,65.659676
0.8100966,61.420334
0.8205379,57.887356
0.71833855,58.38386
0.83799505,55.027115
0.79259735,55.331028
0.7801774,52.546745
0.66245276,52.963066
0.66556376,49.63198
0.75468904,51.85572
0.6513566,48.187016
0.69049394,50.60308
0.52017826,49.079697
0.49663702,48.911953
0.4472409,48.247547
0.38307557,46.928158
0.30153018,52.16307
0.38001233,52.431286
0.35626054,51.683456
0.3634286,52.406963
0.33347893,53.637966
0.42336327,56.952377
0.39682135,57.851624
0.47194585,58.191296
0.54873824,61.67769
0.5951109,66.64832
0.6470545,68.27478
0.72982043,68.86662
0.90096456,71.91509
0.9569585,76.70151
1.0999252,77.15478
1.1479001,80.93734
1.3822557,86.78562
1.4125057,89.44331
1.3727833,91.964584
1.3939619,94.23418
1.5847108,92.7494
1.4410558,99.03828
1.5776365,100.62578
1.624915,102.7149
1.6984525,106.217514
1.6565909,105.64034
1.663138,107.60094
1.6778992,110.02552
1.7839146,109.07741
1.7136651,109.29797
1.6071701,107.36765
1.6451986,110.742546
1.595573,108.108536
1.5733812,110.186356
1.6595408,108.317215
1.5154285,111.27787
1.4033314,105.88868
1.436193,105.59558
1.3223164,107.22636
1.3390034,103.11879
1.356004,103.40875
1.2819916,103.6558
1.280972,101.48033
1.2583088,97.6198
1.1660292,96.27407
1.1383618,98.177505
1.1770811,92.74986
1.1821542,94.262505
1.1119083,90.46495
1.1182711,87.02836
1.1443672,88.5247
1.0412557,85.18956
0.99946475,84.404015
1.0033153,83.96301
0.99522424,81.79667
0.94594395,81.79702
0.9606991,80.22391
0.87776357,80.981926
0.89020705,73.58345
0.70082325,73.32782
0.753294,73.730064
0.6817995,70.987625
0.75308573,71.18407
0.73619974,66.8078
0.5139638,68.11672
0.52973366,63.497887
0.57143474,63.856144
0.61318403,63.236027
0.3676837,61.070488
0.46579322,59.388165
0.4226575,57.14301
0.42987692,58.352055
0.45874313,53.46974
0.44580048,52.99562
0.37560034,52.390995
0.35328394,48.1484
0.4111136,46.907295
0.36602223,51.698856
0.37082046,48.578465
0.25970125,50.474094
0.24192579,49.389935
0.1977148,49.451027
0.06750956,51.24143
0.04016854,50.33155
0.10194521,48.64724
0.099255994,52.00521
0.014347194,52.215347
0.05060997,55.78788
0.08856473,58.611893
0.08790701,59.237583
0.1835172,62.046158
0.20211917,64.234085
0.26853755,66.07246
0.39138117,69.80111
0.49792936,70.9575
0.7581208,76.24122
0.74971765,75.85481
0.8106133,78.34402
0.9938271,83.28644
1.0910102,86.952194
1.1618026,86.98983
1.2016178,91.78415
1.1597532,95.57253
1.2473086,97.204506
1.3462285,101.20688
1.3631063,101.8824
1.2600096,102.91563
1.3109393,103.28979
1.3792481,106.73248
1.3839169,108.23115
1.4106448,111.53283
1.347426,109.43366
1.4399031,113.06701
1.3863435,109.720245
1.3228798,111.61322
1.265346,111.42358
1.2951883,111.47885
1.2479209,109.77383
1.297776,109.325554
1.2061234,107.906166
1.1898268,105.584274
1.0254084,108.75075
1.0790143,104.0504
1.1036851,102.57973
1.0422153,103.91503
1.0600287,102.063866
0.9575434,97.267166
0.99665487,95.78094
0.9325154,91.46864
0.8390787,94.19894
0.91328263,92.55446
0.86583775,90.71863
0.8949176,90.70965
0.9174491,87.81289
0.9068188,83.66656
0.8914905,80.91875
0.92184794,84.41419
0.80255574,80.50252
0.77389246,77.53335
0.65012324,78.65545
0.6680968,75.47851
0.6706543,77.02154
0.41477114,70.50292
0.56294024,73.39237
0.53206396,70.05664
0.38649458,67.02304
0.49431476,66.49973
0.36783373,62.75344
0.2804611,63.66844
0.31617427,61.96644
0.3110798,59.853184
0.24240085,56.90169
0.2692253,57.521946
0.36621645,53.839985
0.32969788,55.667095
0.3197054,53.862427
0.2931491,52.60636
0.21758386,49.299873
0.2723289,49.8701
0.27375677,50.018234
0.18316133,49.59135
0.14529616,45.474686
0.11024711,46.81235
-0.0029441032,49.54762
0.030512482,47.248917
-0.022236267,48.999382
1.3976083e-05,53.226185
0.03251735,56.641857
-0.009340592,53.92001
-0.08883415,51.484608
0.051991455,56.145912
-0.0433442,54.96348
0.18839283,60.132618
0.12893681,65.261154
0.20755965,69.60145
0.3790315,65.09313
0.42698765,69.99063
0.5189683,74.51324
0.52259207,76.847534
0.8286311,83.010704
0.8804824,80.327545
0.9709605,85.24603
1.0597558,86.706024
1.083427,90.72042
1.0856707,95.24786
1.2283412,96.44503
1.2272997,99.16831
1.2685137,99.0166
1.3297672,102.47719
1.3863897,102.94949
1.3966718,103.41092
1.4184514,106.36822
1.4065048,109.81036
1.3848912,109.720146
1.4516735,108.23515
1.3617591,109.65133
1.452804,108.94672
1.4884849,111.99935
1.405962,110.55816
1.2872851,108.107124
1.4258642,111.31573
1.2396255,106.519554
1.0839671,100.73921
1.191047,103.02232
1.1080126,103.59793
1.0394566,103.95548
1.1435205,101.725136
0.99298525,102.309525
0.9653753,98.858215
1.0530956,99.331856
1.0454835,95.00407
1.1449168,93.33675
1.090736,89.58003
0.9849208,88.397095
1.0473692,87.27314
0.9780046,90.33424
0.9495364,86.145744
0.8738113,83.42601
0.90922433,84.063095
0.90045905,82.78468
0.93581235,80.98243
0.7945425,79.05056
0.81107396,77.2189
0.7140927,75.05004
0.7085122,72.40559
0.6521601,74.85218
0.5645684,72.29907
0.57306635,71.98512
0.5371506,67.62632
0.41198868,65.77092
0.44032893,64.755554
0.477177,62.63981
0.599402,63.057426
0.523656,58.517673
0.35756427,59.356903
0.4107671,55.69285
0.45837235,53.69232
0.5316467,53.994873
0.38121858,51.02357
0.42644635,52.03675
0.5197121,51.064236
0.35802975,52.380005
0.42861223,48.76415
0.31151944,52.49901
0.17989236,46.3079
0.3600877,45.031628
0.23368277,50.044014
0.14253527,48.849323
0.15812188,52.16235
0.057119507,48.98277
0.05313312,51.303707
-0.009135474,52.359764
0.27371785,54.604877
0.14754236,55.621315
0.23483755,59.507175
0.32372466,62.933952
0.30784154,64.18122
0.48915377,63.216667
0.62904155,68.318794
0.73091656,68.85673
0.77349615,75.207306
0.98876894,77.98545
1.0374584,78.03697
1.2283448,84.645004
1.1705717,86.721695
1.3742504,85.919876
1.5201913,90.99804
1.4902005,94.289894
1.518562,98.37863
1.3943502,97.89125
1.4202533,105.6855
1.6617483,103.4895
1.5770339,108.421524
1.6495074,106.95412
1.6635756,107.40268
1.6884406,112.1838
1.6652552,109.57136
1.6650437,109.3897
1.5964841,108.62476
1.7510906,112.33729
1.7138909,110.5306
1.5978433,112.01235
1.5262365,108.86415
1.545168,107.27845
1.4441495,106.83936
1.4606258,108.064804
1.3551325,108.40501
1.2698131,103.601585
1.376823,105.57993
1.3359615,100.17585
1.3588135,103.26206
1.4182466,99.38769
1.4023801,97.32336
1.3443139,94.44942
1.3614826,92.45937
1.2588967,92.23952
1.2039399,92.004234
1.2493695,88.145226
1.2553062,87.70638
1.3286905,87.65481
1.1988537,84.94125
1.2015479,84.16579
1.1470915,83.2167
1.1147956,79.419685
1.0554862,79.49039
1.0295807,72.98305
1.0091143,73.3472
0.9231695,72.27882
0.9196605,72.67267
0.89984775,69.11227
0.76776063,65.936874
0.87514395,66.400734
0.80767447,62.766933
0.78995156,62.54016
0.80073726,59.031704
0.6752658,58.426537
0.74685997,58.4877
0.72059274,56.843113
0.7716853,56.391613
0.79278594,54.98375
0.70583475,52.201782
0.6960364,52.77985
0.8024096,54.42578
0.8171662,51.170673
0.6856027,48.75466
0.70690036,44.604633
0.67033577,50.98176
0.65391994,50.45787
0.5849569,51.341194
0.62504125,48.22043
0.5173129,46.738567
0.45324403,51.862873
0.5361624,52.949474
0.47968554,53.71501
0.51827615,55.275482
0.36533478,55.347733
0.5002245,56.765087
0.5699061,61.0364
0.60615253,63.023266
0.70372826,65.72539
0.81062984,68.81618
0.9461197,70.45111
1.0986418,72.848206
1.168704,76.83458
1.3468386,82.78316
1.3752309,84.20685
1.4763051,85.09818
1.5248382,88.44128
1.7068344,94.75614
1.7113379,91.944244
1.7141035,97.408966
1.907228,103.14001
1.8428669,102.93841
1.6223297,104.12833
1.810339,105.6422
1.9337565,105.89415
1.873001,106.89684
1.9945757,106.78495
1.8603183,110.8866
1.8904748,106.70822
1.9045416,110.280464
1.9404935,106.90058
1.7739601,108.98759
1.8280367,107.49768
1.8460335,112.35124
1.7550305,107.55527
1.785749,109.15647
1.7927834,108.25247
1.6915773,105.52132
1.653088,105.763466
1.5958848,99.5025
1.5627453,103.28099
1.5677086,102.090675
1.5433155,96.738266
1.4840862,96.4783
1.4352608,97.29612
1.4741371,94.6866
1.4542189,93.29532
1.5410976,90.60871
1.5397195,88.49405
1.5019215,86.05849
1.5033332,88.27907
1.3537644,83.7897
1.329254,85.58671
1.3732898,80.44652
1.3443846,79.45107
1.3644516,78.260605
1.2214161,77.01965
1.2480114,76.248505
1.0802902,75.550835
1.0686158,71.442154
1.1506213,71.004425
0.9176812,68.816765
1.0276009,70.5108
0.97783804,65.562035
0.82536477,64.77505
0.9384944,63.637074
0.9477233,60.043686
0.9654962,59.91293
0.91915375,55.915325
0.8797237,54.4028
0.8983489,56.702023
0.9277809,53.561604
0.87450117,52.80643
0.8185686,49.177826
0.90083313,47.29377
0.8396778,51.7872
0.699135,51.569115
0.7302302,50.256527
0.8560415,47.40358
0.6314089,49.21957
0.66565096,48.68768
0.54696614,49.234756
0.5248366,48.34343
0.51588964,49.092865
0.47248662,52.998524
0.57787067,53.436035
0.60455096,55.130596
0.56922656,61.21521
0.66649425,58.97232
0.67390406,63.05721
0.7961008,61.603134
0.92512584,67.34714
0.9221496,68.358505
1.0692638,72.05664
1.2579556,78.283394
1.2916968,76.74394
1.4257793,81.8719
1.3827369,84.479546
1.6051023,85.21694
1.6595318,89.616356
1.6377934,96.492645
1.8366232,95.153984
1.7845747,93.19175
1.8857157,100.96721
1.8218696,101.45698
1.8741708,105.443146
1.9334201,104.51728
1.8476157,106.61937
1.8096268,106.719376
1.8535383,111.48106
1.9522357,110.31882
1.8988966,108.29971
1.8861135,112.09299
1.9776467,112.12596
1.8177744,111.29387
1.8908645,111.49829
1.7425578,109.213135
1.7402748,106.842255
1.7280409,108.20845
1.7016523,103.04618
1.6897075,105.66293
1.669896,106.39853
1.5591866,103.5569
1.5898151,100.06106
1.5073286,98.58764
1.5354859,96.96829
1.3511145,98.043304
1.5873435,91.42907
1.3840419,93.00535
1.4460914,92.37786
1.3109769,88.26434
1.3537484,92.346176
1.3890685,86.96142
1.3890314,85.72518
1.2823764,83.93208
1.34513,82.8026
1.3129364,79.32517
1.2111521,74.27868
1.270839,77.49221
1.1252095,75.82869
1.1503438,74.79536
1.1139796,70.972595
1.0115557,70.513504
0.8657146,72.59944
0.92573315,64.26234
0.78055596,68.27067
0.7750292,63.69359
0.7661973,62.066433
0.8120097,64.717705
0.7463087,60.47747
0.7389271,57.040184
0.77452505,56.21004
0.82660913,57.24561
0.78209007,55.257156
0.67373353,51.987724
0.7260244,52.776184
0.6879591,49.934082
0.6817454,51.3813
0.51928043,51.505306
0.64994746,46.95097
0.5650213,50.60778
0.48945886,49.543133
0.48545212,50.46875
0.53996325,50.342667
0.4012157,46.85491
0.32842806,53.035072
0.33296978,54.481182
0.42118216,53.771748
0.29665035,54.397312
0.5140255,54.60478
0.4933493,58.39437
0.45882517,59.865406
0.6183934,62.111748
0.5507403,63.765938
0.8447575,67.94731
0.7555279,73.93985
0.88617665,74.20736
1.0329819,78.54631
1.097996,80.825264
1.2702177,84.66484
1.2583497,87.48009
1.3839529,86.09695
1.5474448,91.89507
1.5840421,95.87452
1.614209,98.8767
1.5228976,102.45975
1.5991402,98.64861
1.709646,102.90628
1.734461,106.68088
1.7478968,106.71673
1.6195258,107.30057
1.6073518,108.861595
1.5582569,108.73544
1.7894349,109.159386
1.7197815,110.994576
1.6365876,110.62955
1.6222994,110.99819
1.6032636,111.23838
1.6381034,109.08701
1.4582915,109.08832
1.3692523,109.57082
1.5830557,109.45689
1.394495,107.32567
1.3380946,107.444016
1.2462332,100.69457
1.3030992,101.90586
1.2693999,101.08408
1.2233005,97.61629
1.2680706,94.76596
1.1881356,93.872284
1.2755148,95.828285
1.1127349,91.304886
1.1387045,87.507706
1.1157023,87.26847
1.1305461,87.280556
1.1087807,87.86942
1.0955353,85.941284
1.090348,83.016975
1.0931678,82.719215
1.0009365,80.54701
0.86161226,76.02381
0.8553792,76.32638
0.79660153,76.57725
0.8505102,73.34246
0.7659795,73.35931
0.74577165,69.33325
0.7080031,68.879135
0.51125616,65.30085
0.5672055,63.91647
0.5790064,65.641365
0.530963,61.79098
0.5597598,59.60501
0.557,62.239376
0.47669137,56.423008
0.4078955,57.971565
0.49851704,53.558994
0.38387492,52.613213
0.36119476,49.544323
0.46744788,54.08394
0.42326155,48.494614
0.40332535,53.550125
0.3856701,50.02497
0.21217945,50.94614
0.31014857,49.05602
0.30002373,47.851078
0.16323777,48.729492
0.18695605,49.289795
0.054209154,51.53942
0.06181215,53.00941
0.21258599,51.573387
0.18684234,55.76792
0.15108497,56.004005
0.07306195,59.400074
0.2157661,58.493034
0.32655132,62.675068
0.35114482,62.96417
0.39036393,68.34392
0.6292319,69.142296
0.62076026,77.72233
0.68955,76.32131
0.8889703,80.332405
0.97764415,81.53258
1.0254834,85.90307
1.1428908,87.04429
1.1282845,89.86084
1.1273696,90.18477
1.2507666,96.846
1.3478758,99.71009
1.4202859,97.59943
1.3333347,102.36362
1.387305,101.13263
1.3998374,104.39299
1.3162961,107.42813
1.3788041,106.806915
1.4782616,111.266716
1.4659767,108.530235
1.424452,112.52053
1.4802725,112.65969
1.2889646,111.356316
1.3278713,106.51698
1.3495713,108.99633
1.296411,106.39612
1.2371186,106.86338
1.3113606,107.5735
1.2032405,106.23231
1.190337,106.29852
1.1600282,104.92487
1.1109852,101.17621
1.0385253,102.67032
1.0279715,103.514984
1.0235927,93.71088
0.97084606,98.742424
0.870154,93.65898
0.82370013,92.534836
0.87509763,91.3334
0.9386148,90.124306
0.848349,86.71789
0.9012527,89.54203
0.85563135,83.50292
0.8279833,81.198906
0.66042054,82.46101
0.86008453,77.30792
0.7566986,78.76095
0.7424917,78.47947
0.74050236,74.547295
0.59948593,75.51039
0.6014543,73.90737
0.5488394,75.25714
0.48366016,67.69606
0.4427296,68.33698
0.45903403,65.97376
0.347072,66.62301
0.33928713,64.28131
0.35355562,63.21481
0.34540614,59.895
0.3992921,59.50552
0.19738352,59.60054
0.29064062,52.8074
0.22366734,51.82955
0.24539627,53.506207
0.4399158,50.772633
0.20851384,52.492046
0.28931057,49.78275
0.2216241,50.634422
0.15083252,48.16738
0.25958088,46.225903
0.13741669,49.22446
0.019927124,48.135777
-0.07862073,50.68491
-0.06229716,48.038853
-0.11556801,50.17085
0.0033770683,53.18151
-0.09920919,49.625774
-0.025426738,57.020527
0.050207775,56.489918
0.087906115,58.838036
0.16857111,61.21954
0.24002978,66.34862
0.28714365,67.35453
0.36840174,69.86647
0.5062629,75.60725
0.64908165,72.98393
0.7331749,79.6504
0.8820358,80.904755
0.9182852,84.90134
0.9138376,87.32143
1.1026337,86.01825
1.1571463,91.218735
1.2683494,94.373
1.2880055,98.14486
1.3180174,100.89651
1.3741196,100.63666
1.252144,104.55805
1.3466815,106.055885
1.3578492,106.689766
1.3824841,106.59567
1.3569822,108.85647
1.4015709,112.2088
1.454161,109.96159
1.4488636,109.04777
1.4638569,109.01955
1.2739064,110.2655
1.3221526,111.06132
1.3505986,108.81501
1.2667814,109.21597
1.2132196,104.5603
1.1511626,108.24196
1.1358817,107.601776
1.1116631,103.02279
1.0655538,102.52953
1.0304356,103.04561
1.032384,101.72811
1.070614,99.4068
1.0300578,93.7326
1.0024054,96.47962
0.96616143,93.41131
1.0726836,93.69418
0.8865722,89.95276
0.9164748,87.372925
1.0134104,88.75827
0.8775995,86.876816
0.8856792,85.004684
0.9552281,82.46941
0.85527104,81.98643
0.8841166,79.237175
0.7834946,75.60893
0.70524716,77.34805
0.75819546,72.98228
0.5299768,69.91293
0.5921286,71.598564
0.6121755,70.466324
0.54654586,67.18633
0.3809437,65.93027
0.36725765,64.72265
0.5489081,63.58791
0.37005144,60.874157
0.46219462,61.946938
0.37780455,58.38355
0.449041,56.28776
0.4608367,56.229202
0.40573037,54.617626
0.37115583,50.29539
0.50633985,50.675873
0.45900857,53.101803
0.41420218,50.24669
0.40920717,53.160828
0.28705937,50.412785
0.31211492,49.376083
0.30857426,49.215313
0.2551429,48.813686
0.16496955,49.841095
0.15949854,49.426453
0.12687421,50.02471
0.10540011,52.003403
0.23012248,53.608128
0.14123444,56.132114
0.14959596,56.185593
0.29270718,56.476616
0.2653329,59.62851
0.26116014,62.832466
0.38197666,64.72112
0.49564314,64.89561
0.63184184,70.744835
0.8470835,74.71472
0.8006566,74.98701
0.96149945,79.96601
0.99485356,81.74746
1.1433846,86.90896
1.2993647,86.87156
1.2873698,90.498535
1.4279125,94.5291
1.4330782,94.78681
1.557131,94.73019
1.4444063,99.56583
1.5501693,103.66146
1.5383486,103.423256
1.6448585,106.55775
1.5503434,105.29503
1.6683158,108.165
1.6897463,111.28712
1.6495613,109.674095
1.6759108,112.65817
1.5165703,108.45921
1.5932215,110.17793
1.6478016,112.840645
1.577279,111.51706
1.5677682,108.82171
1.4699489,108.65781
1.4030856,108.285416
1.428385,104.55766
1.4100639,104.96235
1.422612,106.04229
1.3624209,98.896515
1.3126165,101.78163
1.3169197,97.54047
1.2902122,99.47679
1.2429584,95.779564
1.2460283,96.388405
1.2060845,91.45244
1.2463588,91.935486
1.2628529,89.98164
1.2442253,87.96229
1.2346995,83.89808
1.229184,85.779785
1.1727027,83.82275
1.1939118,81.680115
1.1080183,82.506195
1.0559058,76.595116
0.9497789,77.41069
1.0787219,76.21461
0.93342954,74.19624
0.8329566,73.23999
0.8237707,73.15697
0.9163003,69.211334
0.71464974,65.314354
0.8115665,66.91976
0.74689883,64.608284
0.6094176,63.890453
0.75005764,60.264603
0.8132837,60.18755
0.7539517,53.888783
0.7448538,55.419914
0.84155214,51.730835
0.74546397,53.3162
0.7619576,51.89775
0.72774214,51.1952
0.79502386,50.14093
0.68975157,49.42283
0.73470396,47.240532
0.55299425,47.288185
0.5290429,50.76093
0.51635575,47.052353
0.4052982,48.259834
0.46340418,53.085056
0.5247491,53.902805
0.26224327,50.513863
0.4430199,50.519093
0.38929915,54.539867
0.45865363,57.90995
0.4635409,57.280277
0.5498966,57.930336
0.5615752,63.14841
0.6979311,65.29474
0.8056227,68.88631
0.9136068,68.56451
1.0254613,71.64564
1.1286793,75.52183
1.3314044,78.44303
1.3213164,83.98557
1.5198678,85.90177
1.5197098,86.87454
1.5852329,87.83224
1.6284373,91.26049
1.7746768,95.87165
1.7140566,95.02445
1.7852719,100.05338
1.8407435,102.10727
1.8080409,101.552704
1.8424127,102.178154
1.8777579,104.70078
1.8434743,107.53241
1.8880072,108.458405
1.8418132,106.56179
1.9637166,111.04177
1.9217099,111.51511
1.8566436,112.03927
1.9141346,114.68851
1.8914317,109.109566
1.8262223,109.49097
1.7385286,109.23818
1.6788421,108.59947
1.7205764,104.88248
1.6974633,105.78211
1.5583423,105.530426
1.6101991,101.86326
1.6028701,105.01668
1.5312922,103.15065
1.6296452,101.42643
1.5152304,96.29727
1.5517322,96.476944
1.5858476,93.90035
1.5472786,93.85064
1.5243825,89.675766
1.5205678,89.08771
1.3737599,87.89359
1.4485832,84.49818
1.33654,83.69258
1.3656968,85.76676
1.4217831,78.8119
1.2922258,80.161766
1.2079409,77.745735
1.201049,78.06979
1.1962397,71.9072
1.1988703,74.801575
1.1732897,70.71101
1.0637676,68.77266
1.0196923,66.910034
0.9489503,70.17083
1.0336597,66.14375
0.89840394,63.893856
0.9434701,61.17956
0.91675246,61.189213
0.92766505,59.969177
0.8690893,54.602646
0.96803355,56.13787
0.9844089,53.131546
0.8826642,54.77503
0.87918323,50.900055
0.907447,49.935486
0.7391808,51.839382
0.7640508,48.024437
0.7890241,49.02148
0.69840944,47.46081
0.8571177,48.410583
0.5774014,50.720284
0.72016937,47.9365
0.7334486,51.221264
0.4957185,46.803665
0.47805434,51.12061
0.6131764,53.34534
0.56508076,56.72909
0.58633816,55.200912
0.62353677,56.14362
0.7722797,63.01417
0.8205182,62.38049
0.8660177,68.46517
0.98458976,68.24503
1.140375,72.42187
1.2023872,76.59509
1.2672518,76.83199
1.3932487,77.77749
1.4767469,84.41229
1.5312749,86.477776
1.6554188,86.30498
1.6999655,89.77161
1.7926196,97.841064
1.8627942,96.14753
1.8249902,99.57425
1.945397,99.46443
1.81929,103.56712
2.0000432,105.03598
1.9497545,107.75891
1.891678,104.126854
2.002973,108.82534
2.0079181,112.4298
1.9970629,108.399734
1.9158978,111.38792
1.866436,109.036194
1.9424077,110.83758
1.8695856,107.169716
1.8154541,108.88347
1.8573909,110.445175
1.6901011,106.38321
1.665067,104.91479
1.699581,104.85581
1.6765429,108.00346
1.6186372,104.07959
1.6426363,104.41773
1.4094824,98.44213
1.5502305,98.66932
1.5259116,98.2317
1.595697,95.27478
1.4678328,95.172455
1.39669,91.88449
1.4833093,90.14505
1.5594671,89.53197
1.4392167,88.55154
1.4370472,84.34611
1.2997342,84.55055
1.2789851,83.36797
1.3035722,79.26812
1.262134,76.23851
1.3112781,75.37615
1.2455312,76.45349
1.1709366,78.91335
1.043179,74.51376
0.8983355,72.46871
1.0703243,72.18477
0.9754521,66.668236
0.94190294,66.37567
0.9303853,66.04714
0.8988891,66.95369
0.86271024,63.245224
0.765356,62.80887
0.7913048,57.017082
0.75632715,55.603146
0.9421847,57.49306
0.8350645,55.818996
0.8710724,55.92707
0.77439845,53.778946
0.7128804,50.450546
0.65453887,49.479805
0.6293117,50.87412
0.59852827,50.261868
0.67758316,50.837467
0.6068076,52.341198
0.39429975,47.034035
0.43473944,50.798317
0.51511335,50.396072
0.41886932,51.952557
0.348522,53.27434
0.2959782,56.13853
0.41547108,55.585667
0.4074223,56.480793
0.5298316,59.569588
0.4331478,59.912773
0.6152086,65.75792
0.62242573,65.89391
0.7838076,68.88454
0.7483888,70.257706
0.92641664,69.22717
1.0442463,75.92163
1.1230443,78.23028
1.2420819,82.24893
1.439398,85.31556
1.3969926,86.60094
1.4775882,92.35279
1.509799,92.911606
1.5672631,94.11534
1.6625868,96.45435
1.6475234,101.799324
1.7425936,102.22109
1.7051452,106.15703
1.6447906,107.51408
1.7016625,110.31186
1.6702448,110.64094
1.6696326,108.61498
1.699545,110.44249
1.72292,110.38951
1.6697763,112.33481
1.5731528,110.290276
1.534505,112.11734
1.5219898,111.205154
1.5430527,108.3186
1.5242126,105.313354
1.5240365,109.41324
1.5204988,105.95672
1.3670349,106.54676
1.353493,100.73893
1.3810644,101.264595
1.2460669,101.177956
1.3296078,102.40061
1.279861,97.29948
1.1198916,93.01134
1.1229739,91.64183
1.1266868,92.87105
1.2526563,93.585045
1.194095,88.28128
1.0844423,86.708244
1.1490321,87.8786
1.2211303,85.64342
1.1541628,84.43405
0.96901727,82.74013
0.9830349,79.2498
0.9857569,81.48239
0.9946992,77.91044
0.8076767,74.457985
0.79916114,75.37008
0.6802097,73.18565
0.72189057,72.33209
0.63185465,68.51687
0.5550028,71.39029
0.50059646,66.20954
0.5243327,63.87584
0.5397529,61.352497
0.49619433,60.633896
0.5237791,59.355843
0.45358774,57.153114
0.53708255,57.195614
0.53535205,55.124584
0.5142179,51.894573
0.44409257,54.87964
0.53579223,54.16229
0.36254257,49.83245
0.5314949,49.356865
0.3383588,50.598976
0.34224743,48.615147
0.28821743,48.60304
0.22249962,48.633095
0.21838857,49.639877
0.1073145,49.43675
0.19213499,51.05888
0.06411912,49.51154
0.17428079,53.27985
0.11328849,55.140682
0.1528242,57.802975
0.20448656,55.114716
0.21564212,59.98661
0.3009276,63.4672
0.30302498,66.72596
0.33649215,66.876076
0.50416356,69.105995
0.550652,71.18325
0.6128607,73.96396
0.80984104,78.30858
0.852805,81.169685
0.92752004,82.0244
0.94234014,86.60779
1.1405271,86.41249
1.2686117,91.99789
1.2573968,95.71832
1.2707213,95.14429
1.252938,98.93824
1.3875939,104.89242
1.3235033,101.64181
1.3990387,106.33141
1.4989498,107.772
1.3187863,105.50949
1.472812,110.41609
1.3404301,106.26735
1.3647505,112.19546
1.4021679,112.421715
1.3425143,109.49034
1.4306353,111.52262
1.1769326,106.9878
1.320304,110.27071
1.2596983,107.21351
1.2646992,104.95254
1.1747608,107.1651
1.174958,105.40821
1.1416508,104.43467
1.0913321,102.453835
1.0611427,100.50686
1.0683333,98.31946
0.9986817,96.63943
1.1253382,97.607704
1.0732248,97.89534
0.9741291,92.85367
0.9713576,94.08074
0.86492354,92.34084
0.9136689,91.896126
0.9811075,84.352036
0.9570281,83.20591
0.83333355,82.08711
0.87693465,81.618996
0.7541159,83.114975
0.7764859,78.03376
0.79365695,79.76419
0.70207953,77.29428
0.6187,74.64408
0.6201124,69.53577
0.4822903,70.367256
0.41444328,75.63897
0.48732072,66.65689
0.3330843,65.45744
0.3360358,66.84461
0.34358743,60.504898
0.3366386,66.18293
0.35244104,59.665863
0.2863671,56.90298
0.39848563,57.504
0.2729102,55.452473
0.37475345,57.151325
0.32832578,49.859203
0.28198028,52.862213
0.22717261,50.236034
0.2605055,47.142704
0.1881775,48.47966
0.19270621,49.935402
0.08575262,48.097866
0.11392643,49.48339
0.07513739,48.573315
0.022604143,49.1367
-0.094949834,49.10158
-0.030537035,47.83085
-0.15124285,53.06232
0.009083144,52.498104
-0.064502604,52.275288
0.012015829,55.944107
0.056537934,59.06278
0.085113876,55.44896
0.1497641,60.833984
0.29907617,63.706394
0.37448436,64.8539
0.33508295,71.458275
0.63700765,71.81414
0.6011284,77.79413
0.68113315,79.71249
0.8018391,81.67879
0.91503936,84.636635
0.9728101,87.63782
1.0681101,92.43612
1.1653851,95.270485
1.1652929,93.987114
1.2430067,100.7423
1.257385,101.84613
1.3186624,100.08916
1.2860397,102.34849
1.3352706,103.40227
1.4324709,106.01046
1.3842802,107.83699
1.4121178,110.64865
1.3789024,108.484825
1.3422464,110.25431
1.3190718,111.75178
1.3891299,113.18166
1.3185965,113.66659
1.3611603,110.22632
1.3000599,108.87692
1.2734584,111.91679
1.2161757,108.343475
1.1604724,104.707634
1.148104,103.96019
1.0356661,103.53522
1.0919257,99.95657
1.1333767,104.315834
1.1235044,96.17623
1.0834973,98.89612
1.0115961,98.28934
1.0666559,94.236115
0.9903479,91.982124
0.9615933,91.46179
0.92266023,85.835655
0.9371941,89.33856
0.96302515,87.813255
0.78905505,86.081505
0.89937514,85.75024
0.79577106,80.32069
0.86168134,75.87136
0.7231598,78.09557
0.7823055,76.69321
0.74127924,76.04921
0.68093896,75.860245
0.6470979,72.34689
0.59955543,72.69433
0.5144988,68.44663
0.4724323,70.3025
0.5026476,66.06064
0.5057168,65.053085
0.5319498,62.189964
0.45373082,58.505016
0.43504885,59.41446
0.357298,60.285034
0.4537067,57.45127
0.4293416,56.510265
0.52789366,54.249916
0.408622,54.297623
0.38265267,51.817574
0.3386079,48.045753
0.38794285,50.342113
0.32183707,47.644012
0.20647898,49.749405
0.1872107,48.984272
0.18442461,51.676807
0.14096364,49.460213
0.1674206,47.38248
-0.0012938433,50.919914
0.055030104,53.069927
0.21643381,51.124233
0.119168125,51.401737
0.09815623,55.314472
0.16962166,59.194534
0.23387384,57.409916
0.26366222,60.28791
0.42486233,64.99047
0.41658285,65.42371
0.52546054,69.41531
0.63128674,70.489876
0.7859119,73.347305
0.85911834,74.963066
0.94762844,80.67871
1.1344857,87.517494
1.1520228,85.138374
1.2484528,89.64815
1.334723,93.717514
1.5083805,95.1678
1.5213978,97.35742
1.5480251,96.23589
1.4476333,100.34253
1.5695579,103.10068
1.5101439,102.72061
1.5778333,107.10941
1.6381212,107.25092
1.5699207,106.535645
1.630225,110.41164
1.5193058,110.46815
1.5538067,111.1218
1.6023537,109.73012
1.5414897,109.97732
1.6048803,110.32976
1.5906801,110.09942
1.5279018,110.556694
1.51662,108.528534
1.4290968,107.10693
1.3932021,106.35163
1.3805104,106.007355
1.3113968,98.91196
1.2733524,104.457214
1.3150669,101.34371
1.369106,97.21939
1.2320172,95.139915
1.2079551,95.295494
1.1816328,96.07013
1.2359853,93.12071
1.26226,88.91157
1.2353528,87.02693
1.3128084,87.30996
1.1834584,85.25207
1.2355552,83.92352
1.2142221,84.97327
1.1781514,81.40014
1.0697961,78.89877
1.0462788,79.76618
1.0227568,76.44734
0.9397611,73.797226
0.8786723,75.92663
0.89170647,70.211365
0.73739636,69.795555
0.8253414,66.49568
0.77859426,66.00686
0.868625,64.65002
0.68201536,65.601265
0.8189614,61.936985
0.6323659,60.112213
0.78308463,63.007977
0.71561885,57.673965
0.620505,56.153576
0.6911593,55.30237
0.6137766,52.420563
0.75036824,51.591873
0.73436856,52.357594
0.6461794,51.91466
0.6936014,48.253933
0.5782239,48.85579
0.6932563,49.69008
0.5296264,49.370945
0.558123,48.558254
0.47083676,47.849976
0.44198063,47.94319
0.3998931,51.77264
0.37537384,51.646065
0.31339768,56.16121
0.33717787,50.381687
0.50428957,55.272976
0.55200446,57.323215
0.5878233,62.66489
0.63374746,61.956383
0.8499009,67.2575
0.8726753,65.35426
0.8876647,70.99882
0.98059464,76.046684
1.0106288,78.91758
1.199819,80.66305
1.4096746,81.70996
1.4135593,83.85168
1.419287,90.2277
1.5292494,92.2863
1.6093179,90.45472
1.6675959,96.85379
1.7849033,102.40684
1.8689395,103.122154
1.7977573,101.60461
1.8840312,103.14123
1.9344494,108.042496
1.9510858,107.2195
1.9849867,107.05978
1.9225715,110.068306
1.9899254,107.23784
1.8517141,111.65843
1.8497634,109.80036
1.8472509,109.18902
1.7685175,109.256065
1.7973596,109.13885
1.7116157,106.603966
1.6778245,109.45702
1.5888761,107.3119
1.7416921,106.60165
1.751022,106.87541
1.6082898,103.00564
1.6377057,101.481224
1.6835246,101.69166
1.5736912,95.874405
1.5346272,98.425606
1.481671,95.09556
1.3795252,94.60157
1.4405373,94.29596
1.4540092,91.904175
1.5214437,91.69494
1.5054777,88.31099
1.422547,83.85578
1.347635,84.42828
1.3644806,85.6597
1.3958632,85.68463
1.2791421,78.770615
1.3080424,75.30526
1.2684568,78.39483
1.1403601,75.130684
1.1741595,71.217285
1.1766155,74.37563
1.03688,68.39952
1.0738448,73.26887
0.955118,67.28555
0.8828007,65.29514
0.97942686,63.966454
0.8463333,59.772694
0.8434206,59.870148
0.8419995,61.02195
0.9547301,57.392937
0.92883134,57.289146
0.83988696,52.754387
0.84956133,55.477787
0.8704452,54.335926
0.8354686,51.624134
0.8600469,49.15552
0.90729225,52.978603
0.810213,48.223057
0.7133427,51.76982
0.7079228,50.31163
0.74085194,50.15019
0.6848123,49.472443
0.7158872,47.992767
0.56770235,48.794487
0.58239603,52.746147
0.51598936,48.56846
0.58155936,55.867676
0.55678344,55.074226
0.6131925,56.78107
0.6374667,58.745094
0.68252593,61.165733
0.7848535,65.409
0.9110051,68.07488
0.9079642,71.200584
1.1837019,71.32445
1.2093278,73.09759
1.318652,77.499016
1.4134555,82.58296
1.4786699,84.43822
1.5668894,85.34499
1.6036565,94.69407
1.7718824,95.392296
1.8113598,93.097694
1.8406795,95.592155
1.8965478,100.06153
1.8757889,101.60978
1.9676003,105.36401
1.9031296,106.03746
1.9409145,105.90628
1.9461685,110.6986
1.917942,109.67472
1.9205186,110.59477
2.0043468,109.43432
1.9085368,106.112175
1.8698854,111.70051
1.7966527,107.569954
1.7942399,109.16365
1.8162143,108.33174
1.7698386,106.94272
1.7434093,106.61008
1.7087404,107.18675
1.6476334,105.386475
1.5745796,102.63033
1.6239232,103.63591
1.5023196,100.57932
1.5711584,98.18202
1.4883024,100.35757
1.5605931,97.62192
1.4861171,97.407776
1.4947627,96.76787
1.4375315,88.75018
1.373357,88.39448
1.4443237,88.3453
1.3325183,85.05702
1.453929,82.69967
1.3089666,86.74865
1.4300398,83.51651
1.3401453,81.65883
1.2467105,79.65313
1.2171711,77.197334
1.1524478,75.842415
1.1055789,74.99268
1.063167,76.83905
0.99669534,69.7908
1.0203332,71.79775
1.0360217,68.716995
0.92541295,67.240425
0.99519384,66.41303
0.99729455,64.681015
0.87448305,61.38672
0.77044296,55.744377
0.77845967,57.839165
0.8390033,56.555817
0.8600406,55.500244
0.7975281,53.594563
0.7529698,56.36374
0.78350127,50.730804
0.7503508,50.17615
0.69568646,49.043182
0.6164095,49.501984
0.66178143,47.446354
0.49026692,47.865772
0.5463867,46.07638
0.5765847,49.03084
0.52963203,50.589176
0.47470447,50.25188
0.5123327,52.43287
0.40877113,51.21968
0.38828394,52.43327
0.3885834,54.9118
0.51338553,59.71627
0.51964384,59.95579
0.5452349,60.186382
0.69114923,59.49285
0.79555655,65.25192
0.9037026,66.49572
0.83707047,73.73657
0.91100127,75.42131
1.1067983,73.43725
1.2361522,80.63823
1.3299971,80.72696
1.3920659,86.375175
1.3073355,89.16866
1.6400136,91.360886
1.6139723,97.61074
1.6332982,100.632416
1.7067447,98.06158
1.6370945,101.6624
1.7620503,104.48538
1.916364,104.72602
1.7071006,106.547295
1.6689318,110.24686
1.724571,109.728485
1.842751,112.47317
1.6770971,105.5111
1.6027442,113.48046
1.6951226,109.16727
1.6870131,111.13649
1.6301397,109.57553
1.525051,107.5567
1.6735592,110.29818
1.3946251,104.99913
1.4861075,107.64811
1.4624492,105.053535
1.4477957,104.12994
1.4052539,103.147316
1.3922151,99.15446
1.2684103,99.25852
1.2415696,98.512436
1.3782269,98.01711
1.3783689,96.32369
1.2894622,91.19365
1.1803298,93.51645
1.083431,92.218925
1.1944996,85.79773
1.2193358,88.72299
1.1540024,88.07157
1.1408612,85.75793
1.1024741,82.10332
1.0828451,80.23616
1.0501354,78.23698
0.8573137,74.835365
0.95249194,77.36225
0.91742945,74.564766
0.8298113,74.514694
0.7196167,70.144775
0.7182025,71.01819
0.6526185,66.5485
0.55965316,66.28831
0.56077206,62.948273
0.660403,62.39633
0.6164249,62.234596
0.53850543,56.469604
0.6445669,59.891987
0.4294856,57.19497
0.5479157,56.214428
0.53308004,54.616646
0.51123273,52.989594
0.47326195,51.74091
0.458775,51.172066
0.49574813,52.464897
0.41876984,50.374954
0.39748016,46.913395
0.29600003,46.391228
0.27418795,49.4656
0.28046247,48.58155
0.11041317,51.254875
0.21996173,48.742935
0.14240433,52.86116
0.10916405,50.610043
0.111347854,49.001312
0.13386093,54.659843
0.1815738,53.92922
0.11624695,60.621525
0.17783543,61.500233
0.28754765,60.492237
0.3689734,65.68429
0.42578515,68.94259
0.5274426,71.46624
0.6267427,75.51265
0.8068311,77.76821
0.86045325,80.88627
0.9193456,81.350044
1.0728594,83.919266
1.1252118,88.51936
1.1978455,92.73467
1.2671795,92.64053
1.303281,96.91038
1.3808261,98.69847
1.4028056,102.23964
1.3999398,103.05425
1.519618,108.88696
1.4327165,106.40122
1.47059,104.7834
1.4773204,104.67105
1.4730947,107.91499
1.441203,109.61369
1.3907531,112.106125
1.489574,109.123024
1.4790518,108.63817
1.441147,112.2435
1.4388087,108.79347
1.3332986,109.47042
1.3217348,107.51315
1.2507619,107.072
1.1899554,108.2578
1.0859599,103.75177
1.0909077,103.540245
1.0932207,101.6658
1.0964911,101.61148
1.0075254,98.4027
0.9623137,100.41962
1.0788704,97.67428
0.947477,91.383934
0.9951994,93.23344
0.9814755,89.11276
0.93760735,89.83304
0.9970116,86.38804
0.96280104,85.92772
0.9220757,85.86539
0.897227,84.56652
0.8444597,83.6273
0.8191242,77.19388
0.7237655,79.21134
0.8021732,76.874794
0.6570956,75.9276
0.5562431,73.50209
0.6616031,72.43606
0.551747,70.8683
0.51036453,66.32682
0.4174471,69.9956
0.45739117,63.604248
0.3520183,63.873425
0.47355667,61.93813
0.30177656,58.936638
0.24927013,60.668316
0.34066215,61.796486
0.34597772,55.994484
0.25032568,56.34158
0.3010323,54.17108
0.27395558,52.349106
0.30136922,49.65969
0.27844614,54.38278
0.27838898,52.360126
0.31793746,48.157146
0.27707204,50.162106
0.17381401,49.308437
0.13627085,49.254864
0.09485587,47.51498
-0.066106565,48.47354
0.05208091,52.422153
-0.0071433536,50.572132
-0.018104954,51.881966
-0.05635675,51.556835
0.016802873,58.166576
-0.07397598,59.734173
0.14392868,60.30071
0.10870174,59.822044
0.2817588,63.827858
0.3112716,65.67592
0.32429188,68.176094
0.38626632,70.217094
0.54237556,75.21456
0.76537627,74.51565
0.7862777,81.28285
0.7493046,88.049
1.0085521,86.4666
1.076167,90.30201
1.1414448,93.11988
1.1495211,94.759415
1.2295008,94.124
1.323674,102.901276
1.3674753,100.269745
1.3710697,102.161285
1.4552872,103.40577
1.3830458,109.429726
1.2869624,105.93039
1.3802278,107.99881
1.390487,107.71259
1.3546956,109.8802
1.3351609,115.795425
1.3197832,111.21857
1.3573842,110.859924
1.2957369,111.252815
1.2706237,108.09932
1.2485607,110.565765
1.2625595,108.46695
1.1403133,106.34154
1.0372306,104.932556
1.1334572,102.95043
1.0673814,103.30002
1.0599825,102.343864
0.99098486,100.715935
0.96804917,99.87436
1.0254226,94.84647
1.0634786,94.2603
1.0511059,95.163025
0.8724392,93.802185
0.9986282,90.928925
0.8332895,88.92947
0.8882062,85.146484
0.8562683,88.450066
0.89205015,83.86547
0.8725658,83.17896
0.79182106,78.77742
0.82466704,77.30264
0.61750644,75.20257
0.60268646,78.02891
0.595566,70.01369
0.5796175,72.555695
0.58187795,68.40045
0.6268464,69.35778
0.53344923,68.233154
0.41252667,70.365555
0.42570612,64.67411
0.41457555,61.970135
0.4807568,62.20925
0.49440357,59.78351
0.38380402,56.34302
0.36820376,55.756325
0.33638838,56.941025
0.42528215,53.859726
0.47681662,53.65135
0.40280777,48.76907
0.39129037,49.705917
0.35260454,49.89842
0.28618667,53.748226
0.3025941,47.36067
0.26399368,48.832325
0.19975379,49.45343
0.19163068,49.684002
0.19743899,46.339725
0.12149605,49.29251
0.06573404,51.315716
0.16010197,52.138493
0.028371194,56.406654
0.091182105,54.86566
0.14638755,59.394527
0.10679092,59.59019
0.25727788,59.568638
0.3401289,66.135605
0.4148989,64.292915
0.46431476,66.40671
0.6522945,72.49701
0.7962675,77.090645
0.8029352,76.374825
1.0216876,79.28866
0.9529547,81.79345
1.0994091,83.82196
1.3113843,89.05819
1.2742158,90.696526
1.3740554,92.57316
1.4338313,96.80838
1.515458,100.2723
1.548701,99.676865
1.4762026,102.2358
1.5069172,103.35649
1.5299791,106.27612
1.5938953,107.713326
1.565184,109.538
1.6247934,110.82021
1.6384599,109.72968
1.6031145,112.44054
1.5668237,109.852936
1.6423522,109.67312
1.6305165,112.00637
1.4804597,109.31492
1.5067697,107.244995
1.5317878,111.07958
1.4529153,108.187386
1.432114,102.68015
1.360243,106.42766
1.2842357,103.13319
1.3357722,104.70448
1.2624327,102.534225
1.2477531,100.85065
1.2153269,99.81484
1.2005962,96.26801
1.228419,94.28952
1.1314435,92.92567
1.2502378,89.869865
1.1594694,90.03161
1.2527454,86.268616
1.1417927,88.387276
1.1387318,82.06037
1.1493287,80.41497
1.076039,79.708496
1.0414712,79.278
0.9880866,75.5294
1.0076604,73.89859
1.0091215,75.44609
1.0064523,76.366806
0.9707386,71.29288
1.0068847,69.36842
0.8619383,66.72946
0.76562035,67.04249
0.8640015,66.262085
0.7674303,65.275116
0.7121483,60.776196
0.6520014,61.215683
0.77415955,58.622307
0.73151886,59.497673
0.6015983,56.679344
0.7102174,55.756233
0.75772935,52.63763
0.7245802,51.382477
0.67570657,50.05083
0.79701006,48.00481
0.65638375,50.362698
0.5928814,48.186913
0.6995602,47.27493
0.3864135,49.555756
0.44416273,49.538242
0.42108005,48.6789
0.34637985,48.86759
0.38837647,49.463608
0.40319332,54.163548
0.3117395,50.21791
0.32339808,53.868946
0.36962453,54.48506
0.34126347,57.362213
0.46492228,59.419872
0.584472,62.41711
0.60376817,63.428707
0.7126404,68.114235
0.7883976,68.385284
0.91473436,67.777756
1.1092292,72.32354
1.1903207,79.21867
1.2260542,80.209946
1.3049577,84.71424
1.4934677,88.918686
1.5338322,92.02055
1.6737926,94.45819
1.6857117,97.44764
1.6885548,98.824615
1.7647313,100.51604
1.7764667,100.00279
1.8568814,99.41115
1.8942134,103.84911
1.8516777,108.56346
1.8337021,106.77684
1.8569669,107.00801
1.9774296,110.816284
1.7785606,107.09771
1.8916038,110.29888
1.796028,109.04959
1.8339913,107.78106
1.7935462,106.4815
1.9139427,110.69914
1.7614125,108.18694
1.7697114,107.19766
1.6889728,108.52507
1.5920601,106.24869
1.6404837,103.29113
1.5425196,101.00235
1.5782363,101.06144
1.4621491,98.91101
1.5743843,99.60163
1.5877004,96.6643
1.483326,94.22315
1.630765,91.84997
1.4528469,93.84174
1.3776548,87.45044
1.5552969,89.15367
1.4472599,85.323235
1.4456472,86.63784
1.5199484,87.79675
1.3516713,84.57192
1.3333507,83.8439
1.3365437,80.82063
1.3129795,77.29003
1.195283,74.37013
1.22158,73.48468
1.1161342,70.83725
1.1171036,71.87931
1.1049752,67.56619
1.0318745,69.86683
0.89620733,67.085724
0.9847309,66.788925
0.94557494,62.800755
0.9107162,61.26062
0.857386,62.29727
0.85915405,56.86925
0.954683,58.902195
0.97337955,56.965755
0.8863388,55.798607
0.95992607,50.78647
0.85247874,54.009888
0.82947874,53.899433
0.7637386,51.088394
0.7600037,48.43928
0.78430784,47.44747
0.77243793,48.9985
0.73707527,49.939945
0.61377895,49.911167
0.5774852,52.14899
0.653312,49.50074
0.57409155,50.779507
0.49207157,51.94539
0.61032677,52.42555
0.631603,55.928795
0.67915463,56.851562
0.5519518,58.52798
0.66679156,64.32167
0.923441,64.37353
0.8814832,66.08619
0.9863097,71.36422
1.1750109,73.25893
1.1380665,74.46223
1.1746163,74.658195
1.3529946,82.15106
1.4773601,79.892136
1.4806741,84.89709
1.597575,86.429565
1.6039256,92.485306
1.788012,92.32934
1.8121934,100.449814
1.7925904,99.68623
1.9045368,102.51451
1.8432763,100.95877
2.028604,104.9841
1.9390029,102.43188
2.0403109,109.09704
2.1183324,108.56025
1.8986484,109.04791
1.9077483,112.36212
2.0036163,108.22184
2.0431132,110.88406
1.9901913,109.44542
1.8207934,109.736626
1.9188023,111.53612
1.8884536,109.9716
1.8300438,108.64932
1.7428534,109.072266
1.7249162,107.39708
1.5788366,103.08749
1.7148999,100.48004
1.5551844,102.68402
1.5366371,104.327225
1.4706695,98.600746
1.5594664,95.81065
1.5438713,95.93535
1.5240688,94.16983
1.521051,90.77457
1.4822215,90.31293
1.434837,88.9727
1.4120796,84.904076
1.4917603,88.029434
1.2955048,82.11156
1.3386854,80.021706
1.3055333,77.293175
1.1901964,82.76628
1.2022545,77.19094
1.1840522,74.15838
1.1804143,73.151184
1.0579139,73.82794
1.0982941,69.18541
1.023807,69.84269
0.99328256,66.47558
1.0285884,70.16601
0.9121358,66.72597
0.7567215,64.25317
0.76689273,60.569046
0.74727786,61.71222
0.8138184,59.777485
0.8421913,55.37714
0.8767135,56.53699
0.8055144,56.08638
0.62663025,54.1723
0.75502247,53.402187
0.84364766,50.388756
0.8420373,49.008446
0.6924363,52.39179
0.74826914,47.778957
0.6746547,48.50051
0.5167554,50.91043
0.5842856,50.600777
0.49039906,49.014824
0.4621507,50.477085
0.37797934,49.46031
0.38676906,53.450054
0.4472876,51.802727
0.3489319,56.370434
0.5388569,56.158268
0.52063745,53.025078
0.45030588,60.756058
0.5756379,60.119186
0.6169613,65.28478
0.78910255,69.890816
0.83474827,70.205925
1.0255244,70.94968
1.0956109,76.558716
1.2004862,79.229706
1.272717,78.96213
1.2783598,82.44168
1.4336861,86.60167
1.4375882,89.593185
1.5201869,92.644325
1.7478162,94.188065
1.7023724,100.59139
1.6489717,98.08928
1.729523,101.52762
1.6997068,105.69735
1.7470989,105.76103
1.7859999,107.868385
1.7670277,110.59861
1.8064075,111.32593
1.8260673,112.7367
1.6328583,109.7141
1.7467345,107.361145
1.611859,111.10996
1.4825758,110.32189
1.5624409,111.67324
1.5916048,107.91008
1.5926989,105.5648
1.5750388,107.43932
1.4797221,105.506676
1.4240286,101.490875
1.3588126,106.287056
1.2948043,103.41744
1.3570025,102.55006
1.3176317,98.8532
1.3339056,95.09881
1.2134085,98.25898
1.2776959,93.675934
1.1801295,95.362686
1.1607814,86.349335
1.1937163,89.32276
1.1274097,88.51105
1.1721075,83.76743
1.146516,84.76921
1.1685205,84.72132
1.0670753,83.491196
0.98165876,80.91444
0.94520724,77.498985
0.9287749,77.700035
0.82901555,76.76966
0.8199948,74.163475
0.91734934,71.96811
0.6948035,70.294655
0.69142056,70.038506
0.6831633,66.33366
0.65661657,69.863144
0.60229766,66.35271
0.7084178,62.649643
0.68578553,63.163105
0.55493194,59.445282
0.5032488,59.68262
0.6384883,57.034023
0.58992684,53.391853
0.50295854,55.869663
0.5494455,51.236298
0.46793994,49.692066
0.46249747,49.339664
0.44728678,51.261993
0.44586065,49.13713
0.2828174,48.436947
0.29181093,48.49241
0.29225802,45.86229
0.20962186,48.568
0.1616275,52.26957
0.24659938,51.321983
0.12948878,49.73989
0.10841875,53.161587
0.026525278,54.660355
0.14405796,54.96259
0.15455568,57.447647
0.23830175,59.277916
0.34073406,64.741165
0.358799,64.9086
0.4699756,70.03668
0.59109527,67.465996
0.7144984,70.291016
0.771999,76.00384
0.8008101,76.92111
0.98421913,79.38243
1.0570124,83.66382
1.1206129,84.3096
1.1460036,92.737785
1.2296357,89.502846
1.2324448,95.17083
1.3073579,98.20598
1.4305313,101.77658
1.4848799,101.27005
1.3970051,101.54686
1.4021512,107.6751
1.4680802,105.945335
1.3818825,108.60108
1.4031209,111.033775
1.5182034,109.62886
1.4030895,110.56828
1.3797605,110.22598
1.4674828,112.28497
1.2894231,110.71887
1.3548416,107.701805
1.2769248,108.67019
1.2369065,109.28406
1.259559,109.29717
1.1847942,106.246666
1.1496106,104.86259
1.1067111,104.84145
1.1829596,103.19771
1.1114348,101.61403
1.0781766,99.81622
0.9979446,96.586685
1.039227,95.701164
0.92984635,97.27571
0.9389562,92.680695
0.95671237,92.933754
0.9940738,89.98317
0.92286134,89.560005
1.0069178,88.65437
0.9100055,89.39495
0.8867497,88.00006
0.9041897,83.18231
0.75200987,80.73767
0.7251555,80.38697
0.7166561,80.7522
0.68615335,74.371994
0.6696304,76.780525
0.59312606,71.412186
0.57297915,71.31339
0.532987,69.6634
0.37121454,66.6832
0.50742984,70.70272
0.38272896,67.65683
0.3631623,64.95334
0.23889066,63.285065
0.34207863,58.854412
0.36848173,63.28754
0.49082017,57.41431
0.33225134,55.921276
0.43833604,58.010017
0.3324199,51.879757
0.2822989,49.21855
0.28389823,50.65298
0.27613974,49.953968
0.2538847,54.64166
0.2980686,45.464214
0.046477817,49.881298
0.14227162,51.446915
0.109323435,51.11244
-0.07636783,48.934486
-0.03164191,47.85518
-0.053211626,53.249813
0.001578914,51.597878
-0.11684163,53.91004
-0.038781457,56.928795
0.04936191,55.614155
-0.05953381,56.616344
0.077563286,62.73329
0.15114357,59.742245
0.304845,64.25622
0.3585523,68.58451
0.36662942,71.71954
0.5598541,69.849525
0.64218724,74.908714
0.77596724,78.16388
0.92745644,82.94953
0.9177659,87.90382
1.0607575,87.48545
1.0949339,88.47945
1.116933,94.886375
1.1732063,93.76926
1.2576451,98.125824
1.3645247,100.483025
1.3214804,104.751114
1.310018,103.967445
1.2330893,106.36291
1.3466735,106.36869
1.3606077,109.76567
1.2880573,113.39781
1.3981253,111.96255
1.3108093,111.42501
1.2268775,109.82809
1.3660595,109.536736
1.2299527,109.7069
1.232427,109.87641
1.2487361,109.237625
1.1244916,106.49255
1.2257879,105.35043
1.0202307,108.29296
0.9776775,105.771706
1.1390318,105.53849
1.1199925,98.910484
1.0379937,101.81785
1.0358766,100.559845
0.9711942,98.838356
0.91731906,96.92677
0.96756756,93.90927
0.9023889,95.208015
0.86479783,91.03472
0.9131318,89.298546
0.9179161,86.65092
0.8828555,87.15291
0.91737264,83.456604
0.92305,83.65664
0.8401435,84.133064
0.78682584,81.79598
0.8137505,77.888145
0.75889367,77.234764
0.7041136,75.17866
0.6229244,74.27401
0.6205075,68.89911
0.62779343,70.510765
0.5611292,70.1339
0.4919061,67.980125
0.5145361,64.130974
0.612679,61.975746
0.41219437,61.992607
0.541804,59.893753
0.4259552,61.602947
0.42712933,58.897938
0.3570183,54.489906
0.41926447,58.88161
0.42452604,54.883377
0.33341026,52.824757
0.3443353,53.82618
0.34690896,51.824806
0.32243675,47.789913
0.41393477,46.57035
0.17260194,45.79699
0.3221606,50.05119
0.17911176,51.587875
0.18740736,53.35667
0.22235844,53.392178
0.06674931,48.447727
-0.010359167,49.94102
0.111409485,51.658943
0.0374503,54.74106
0.057697132,56.859207
0.14256638,57.265
0.22102593,59.171024
0.3772651,63.99815
0.40821257,65.13779
0.4576902,65.39885
0.5598252,69.26823
0.638842,71.48259
0.7698995,77.62891
0.8874812,80.9598
0.96812886,81.990425
1.1281117,84.716705
1.1572446,88.11664
1.2396345,89.92819
1.306332,91.889755
1.3878386,94.841484
1.3598961,93.86306
1.398162,100.816765
1.4771268,100.37465
1.4708815,107.1
1.4732767,103.59444
1.5522245,105.99701
1.6264488,109.607834
1.6361051,107.74709
1.6275597,110.33662
1.6473386,110.70209
1.4991213,112.35638
1.5267729,107.90387
1.5927501,105.85616
1.4100056,110.652245
1.5446982,107.34358
1.4333403,110.72596
1.475112,107.88565
1.3956646,107.362465
1.3427777,105.89139
1.385461,105.5273
1.3387479,105.672905
1.2997236,99.46971
1.259525,102.8896
1.2235364,98.05276
1.3514019,96.290054
1.2278306,93.921005
1.2744577,93.35348
1.2662628,93.24443
1.2626384,90.64516
1.120392,88.500305
1.1924006,85.81133
1.1669061,85.78307
1.1559584,83.05483
1.2201233,81.27265
1.1046827,76.26971
0.9795711,79.14766
1.0540947,77.20134
1.0484878,75.71382
0.9608552,74.96672
0.92196286,72.758156
0.7853429,70.39845
0.8571859,73.85408
0.7475909,70.31426
0.6904878,66.05415
0.669808,64.48909
0.7716805,64.38473
0.7482186,60.53281
0.73592234,59.490864
0.666178,59.192905
0.708937,58.820503
0.60681087,53.738724
0.61671656,56.05739
0.72407746,50.79868
0.70134926,52.07575
0.67159,50.446983
0.5324079,51.907623
0.66623116,48.564304
0.66782546,47.233086
0.51230025,50.3113
0.48244253,47.946262
0.45486042,53.00043
0.4159701,47.440544
0.4751956,50.02593
0.37040985,50.45726
0.45593268,51.922844
0.3743097,53.807865
0.37018418,52.96956
0.45112988,56.7761
0.42216048,60.195126
0.63620085,59.94013
0.61517924,66.479065
0.68117744,65.18052
0.7570847,66.95936
0.8952994,69.93358
0.9839051,75.268875
1.119517,76.61045
1.2422862,76.079
1.1898237,80.23338
1.4514741,86.458916
1.5278802,88.6662
1.542069,94.03012
1.6155852,93.14724
1.7907548,94.93983
1.7177185,101.09061
1.7172272,101.82771
1.8702989,104.70726
1.8282263,104.86358
1.8583267,105.341705
1.8746302,105.77999
1.7989783,108.338844
1.8897344,111.45359
1.8557453,108.64605
1.8925554,107.499504
1.8380932,110.90617
1.8343351,109.60116
1.8958493,110.36638
1.7201806,110.34165
1.7092592,107.31065
1.7133462,109.39968
1.675161,102.3415
1.7515138,106.89539
1.6858121,105.50627
1.5427625,103.592545
1.4622935,101.46346
1.5819865,97.39754
1.4953902,99.037415
1.5382842,95.277794
1.4755067,95.591286
1.3718312,93.46279
1.4256738,91.74106
1.4307231,90.46838
1.4915454,86.75921
1.4637456,88.57259
1.5557233,84.68068
1.4775412,86.525154
1.3793783,82.32101
1.3912802,84.924515
1.2952732,82.04072
1.2831705,79.56573
1.0830172,74.83085
1.1982564,73.172516
1.2075545,73.433426
1.1171407,70.13014
0.94625586,67.334724
1.0438282,73.88053
1.0660256,65.21545
0.96431774,66.964714
1.0871075,63.885105
0.96539754,62.407494
0.9270732,62.04132
0.947224,56.00098
0.86454576,57.933746
0.96061,57.543
0.86218137,55.232872
0.9470329,55.627296
0.91350424,51.500607
0.902812,50.571156
0.7786426,50.297077
0.9265851,48.53077
0.77857447,50.520336
0.80760187,46.092377
0.74162865,51.72802
0.6480474,46.864113
0.63488275,48.79153
0.64728844,50.557148
0.53056204,48.70023
0.51130736,53.651814
0.6023212,53.11869
0.51985705,54.023552
0.57589793,54.653442
0.56129396,56.737976
0.6384693,58.730495
0.6599836,61.117023
0.8281155,66.03409
0.8059207,69.67244
1.0030499,69.17688
1.1221038,71.79524
1.3238677,75.17697
1.2305928,79.40029
1.3722563,83.08743
1.5810667,83.1975
1.5260768,89.03174
1.7007887,92.54712
1.7554978,89.610664
1.8289251,95.479004
1.8647778,101.33043
1.8562974,100.439064
1.8505824,100.50148
1.9424561,105.87651
1.8939182,105.70239
2.0122766,107.710594
1.998704,105.57756
1.9655621,110.481995
1.9864887,108.092255
1.981354,109.06688
1.9780898,113.7472
1.9051639,110.8697
1.8558817,108.59662
1.7842667,110.07641
1.7439187,106.880325
1.8759943,107.85996
1.7945975,107.791405
1.6909261,106.84802
1.6346083,105.03535
1.7385373,102.97922
1.7012087,101.37269
1.571516,99.39367
1.7049322,101.696686
1.5771816,99.046906
1.5108094,96.46642
1.4595093,94.6516
1.5379882,94.08255
1.5078535,87.14431
1.4135116,87.61413
1.4051677,86.53539
1.5469383,89.33036
1.3942595,87.64929
1.4473453,81.66875
1.4438891,83.84355
1.2828523,81.333916
1.3535091,79.578804
1.2182481,75.5578
1.2180914,75.24802
1.171218,72.034485
1.1402669,72.77831
1.0008373,67.02226
1.0507197,69.85499
0.98474294,66.96887
0.9769136,64.550735
0.9293776,63.126053
0.8878934,62.3521
0.8518476,59.235157
0.80689913,58.337223
0.8465761,58.942886
0.72949135,56.783226
0.8151345,52.492424
0.7757335,54.27661
0.8230041,52.590168
0.8397367,52.565636
0.7869508,49.433434
0.8226006,49.90454
0.67869085,52.509888
0.62772536,49.498276
0.64320517,47.96265
0.66381305,49.244457
0.4151686,48.842564
0.4208801,52.812748
0.35605553,50.246895
0.47882354,50.580353
0.3499709,51.576286
0.439985,55.58104
0.42742515,52.406887
0.47290125,56.871666
0.49542886,58.873936
0.5843912,62.524853
0.7765268,64.17981
0.7901254,62.851402
0.7975378,71.567665
0.98968315,74.30323
1.0675055,77.54005
1.2211955,76.411606
1.239311,79.92901
1.3909284,82.55312
1.4339627,87.78021
1.4181846,89.04437
1.6591048,92.48598
1.5483737,96.51076
1.5894699,95.946884
1.7100495,100.46989
1.6682358,100.5898
1.7553865,104.7519
1.7967726,107.70458
1.7744807,106.56731
1.7290456,107.011925
1.8584058,108.53908
1.7629399,107.73424
1.7458909,110.25034
1.66023,110.357346
1.759611,110.32038
1.615355,111.2536
1.6149048,109.17624
1.6525198,109.90128
1.532362,110.370445
1.6059703,110.06586
1.5322902,104.10343
1.5602913,107.3665
1.444125,105.39376
1.2378218,101.063484
1.4376045,104.45425
1.3104036,97.27107
1.2509189,98.66296
1.2713908,99.125755
1.2679346,95.41007
1.3742552,93.04388
1.2427408,91.314224
1.199081,94.1067
1.1981795,92.87599
1.2615983,87.12426
1.1587875,84.591545
1.1663158,81.708916
1.1934896,83.44173
1.1749003,81.60877
0.9857613,77.7982
1.012041,77.555435
0.938437,78.72473
0.8510966,76.041756
0.8447828,72.05753
0.7953242,74.65912
0.75611264,72.17385
0.6986079,66.71215
0.6557723,64.51408
0.6967583,67.37775
0.6249015,66.10943
0.6764535,62.858715
0.6868291,62.108944
0.52797437,58.06833
0.48909944,58.39842
0.55922633,55.298912
0.6579507,53.295734
0.511592,54.4431
0.45313644,54.77289
0.5339321,52.70394
0.45022693,49.813587
0.40987456,49.774063
0.37996617,49.049797
0.3798667,47.25806
0.32917327,50.346687
0.3666769,48.192623
0.16875003,52.018173
0.2026589,51.59551
0.22405933,50.364727
0.17909563,52.92821
0.16024376,54.75998
0.16974038,53.037304
0.122629724,58.807163
0.1587151,59.14401
0.22737257,57.16972
0.27917585,62.211094
0.3449892,65.12793
0.4553976,68.86208
0.53172207,72.364006
0.6650319,70.85666
0.7959903,74.41876
0.8631499,81.0417
1.0551294,82.79423
0.93668413,85.96522
1.1617762,88.25154
1.2504649,89.78908
1.3686379,93.32911
1.220185,97.26516
1.2934576,98.951515
1.3855283,99.66858
1.4702415,100.19063
1.510901,102.7587
1.4791455,105.90452
1.4824803,108.709946
1.517556,107.40805
1.5732845,109.19622
1.4282192,111.00648
1.5456467,109.34846
1.4133496,113.82034
1.4626386,108.81611
1.3346858,112.32742
1.5526931,109.424095
1.3783433,105.0962
1.2408155,107.40642
1.2730852,106.77236
1.2782588,106.127304
1.1322339,103.55717
1.0724037,105.552185
1.1360503,101.65237
1.1076568,102.26413
1.0187527,99.458
0.9759215,99.20657
0.9967672,95.106125
1.0592712,94.15744
1.0276662,90.23661
1.0005019,93.170105
0.9926298,87.771675
0.91149575,87.25283
0.89928997,85.4029
0.8738792,83.557274
0.8859627,87.5343
0.8272253,82.71476
0.85972,81.4722
0.76269966,79.80156
0.6803307,77.4077
0.533714,74.757904
0.7282277,72.051834
0.5393928,72.7807
0.5645779,68.95995
0.36305073,66.46
0.43472847,68.18002
0.5383699,64.0627
0.38745117,65.0517
0.2775188,66.50108
0.39387962,61.602882
0.30037126,61.119255
0.3041606,61.71127
0.37563592,57.80459
0.34319335,49.74801
0.30402583,52.978867
0.21726729,52.839344
0.2111273,51.599113
0.26882577,49.232117
0.3207591,50.951103
0.2127981,51.026394
0.08145603,47.766293
0.15601751,51.26846
0.08702222,44.86135
-0.009299508,50.60591
0.0026289208,52.08935
-0.14172907,48.174362
-0.009060607,52.28518
-0.04112233,51.246616
-0.2531361,53.31172
0.01716504,56.241917
0.0077352896,56.066593
0.045133196,57.513138
0.17569228,61.38225
0.15657544,65.20968
0.34474668,68.28868
0.42871568,67.90256
0.43374002,72.92327
0.6038211,76.18191
0.73970944,78.671425
0.75571036,82.016815
0.79188615,82.16013
0.97482646,86.095535
1.084237,91.28193
1.035143,92.91108
1.1767389,93.84909
1.2182492,97.62739
1.30971,96.28985
1.403228,103.51646
1.3435872,103.72294
1.3204228,105.34162
1.4172875,107.05215
1.3980412,109.37379
1.3831595,105.22372
1.4511714,107.50723
1.3994734,111.28252
1.4607333,112.08202
1.3975347,108.98215
1.2525803,110.78194
1.3336741,112.095245
1.2544386,112.121994
1.2153887,108.57439
1.1760525,109.00878
1.1736584,109.02738
1.061988,109.84561
1.1681883,102.83909
1.1357914,100.764435
1.0769653,104.06542
0.9990167,103.20885
1.0927088,100.557076
0.9392837,95.92992
1.014197,95.96613
0.965574,92.393875
1.0784107,90.274895
0.84246635,93.47192
0.93380207,89.38393
0.8953818,87.202675
0.9158052,86.149345
0.840357,83.324814
0.87952775,85.43006
0.79491985,81.17373
0.8036842,80.130104
0.7565906,75.21763
0.714502,75.25589
0.70473903,75.679344
0.6295967,73.87187
0.5757763,70.0021
0.4725641,70.799446
0.58902466,69.20157
0.458778,64.635796
0.36503157,66.01388
0.40265054,62.98574
0.44314688,61.298088
0.45046666,59.63186
0.4326182,59.40432
0.41209492,55.651608
0.46964166,57.776257
0.30716565,51.716072
0.45731917,51.334
0.3473781,53.473248
0.40057728,53.57042
0.3190966,51.471714
0.30533934,52.87543
0.35635218,52.090256
0.30089182,46.852192
0.22321457,50.602535
0.08023775,48.802834
0.07988646,48.11986
0.018916758,48.584793
0.0942879,51.93901
0.13169193,53.522713
0.056089267,53.87218
0.1476677,58.24091
0.16593924,55.058575
0.2565464,60.9949
0.17463823,62.415215
0.18739702,63.655735
0.37637496,64.32126
0.50266767,69.47356
0.531655,73.13817
0.73870945,74.47032
0.7415193,74.87878
0.905667,76.34282
0.9790166,83.937805
0.9937519,84.517426
1.2149578,89.281906
1.1668082,90.913765
1.3005637,95.31828
1.3604964,96.16801
1.4435133,97.69014
1.5207863,100.93329
1.5532169,102.822014
1.5254953,102.863686
1.4712086,107.39746
1.6866412,108.80223
1.4708967,108.01284
1.4997889,111.428856
1.6022285,107.592155
1.5414566,107.520065
1.5030609,110.08193
1.5341032,110.14988
1.5419835,109.35594
1.3770024,108.39734
1.6135699,110.06103
1.4249402,108.19871
1.3964268,107.12347
1.4154111,105.92338
1.2782663,105.706314
1.4104894,103.639
1.3267006,98.838806
1.196249,101.29387
1.1186472,99.39644
1.2536495,97.500565
1.1811638,96.51945
1.2396002,96.64949
1.0880772,92.38138
1.0947708,92.838135
1.1965044,89.66713
1.1692666,88.99947
1.108791,90.05285
1.066871,81.69129
1.0958506,84.363014
1.0654868,81.94369
1.0861666,78.36933
1.1248397,76.52245
0.991591,75.30385
0.88865846,74.760414
0.88615364,74.314545
0.83051085,71.9506
0.8119417,71.38087
0.84097576,70.36626
0.6621369,67.583275
0.76690495,64.598404
0.71473175,61.658615
0.7133361,62.779346
0.7014364,61.056465
0.63245034,58.402325
0.7040898,58.40428
0.67744493,56.52601
0.7247908,58.11179
0.6927795,54.46014
0.67227656,52.536983
0.63702244,48.709587
0.5373134,52.349903
0.6602795,51.977318
0.6447258,50.248516
0.65296555,48.590786
0.52880806,46.359406
0.501077,48.83665
0.44804153,50.119137
0.30653912,49.175476
0.33864397,50.03197
0.3795857,55.04885
0.20849693,52.546387
0.28122586,54.38306
0.37840307,54.159054
0.44733888,54.94955
0.407797,60.992702
0.40950277,60.98368
0.63866335,60.74148
0.702881,66.960686
0.7928057,70.08912
0.9253176,71.23034
0.972377,77.14013
1.0169501,78.83568
1.3574102,79.58615
1.3081075,83.237274
1.5090975,87.31485
1.5384877,89.65493
1.6719557,91.481606
1.6424749,96.1067
1.771893,95.74541
1.7372078,98.12052
1.6585525,101.22884
1.7508886,102.49205
1.8381051,104.85346
1.8249743,105.9137
1.8126098,107.94897
1.8371794,108.01246
1.8446288,111.34795
1.9020097,108.98355
1.8503013,109.93752
1.8261051,111.44339
1.83529,109.33245
1.8183678,108.9032
1.6415445,108.89391
1.7018813,108.20914
1.7248814,106.62554
1.6867409,104.39633
1.655017,105.51351
1.6626991,103.381516
1.639642,101.91197
1.5459043,103.97904
1.5485777,96.04981
1.4188275,100.17471
1.3963592,97.61246
1.406465,93.48485
1.3350366,94.13465
1.4151235,92.74876
1.3943325,89.86962
1.3857546,89.62306
1.3980328,87.069725
1.3782727,85.62089
1.4392143,82.40581
1.4123775,86.05612
1.3250016,79.05773
1.2796195,80.268776
1.3007946,77.96235
1.1481999,75.81974
1.1793752,73.934555
0.98636526,70.99758
1.0067748,70.73477
1.0472978,70.892235
0.9871314,69.29526
0.9997714,69.61904
0.97187734,65.18783
0.9418915,63.010406
0.9201737,62.809875
0.84824526,60.47619
0.92046964,58.540543
0.85000944,59.393623
0.9189135,54.7063
0.9000181,55.414566
0.99985564,53.392796
0.80949044,48.969593
0.8567491,50.52714
0.7717965,48.518486
0.82112944,46.92736
0.7397897,49.33808
0.78513855,49.86915
0.6049385,49.66372
0.64699036,48.64363
0.73094594,46.169277
0.5693133,47.11077
0.48202097,51.965633
0.47985607,54.877357
0.5346141,51.90808
0.5425461,56.283745
0.63039017,57.48884
0.6170462,61.275696
0.7829207,62.197445
0.83261293,59.65259
0.82148397,66.34573
1.0130273,69.36511
1.0858262,71.09489
1.1638392,74.13179
1.3214476,73.54825
1.3543887,79.449196
1.4906665,80.45417
1.5481688,83.38239
1.5711062,89.70497
1.6540687,93.49666
1.7615671,95.63986
1.7052537,95.97935
1.9334111,99.28861
1.861358,101.87165
1.868567,100.89371
1.990099,105.31699
1.9170712,107.20065
1.9669927,107.65296
2.07281,107.35931
1.9422097,107.58917
1.905884,111.370865
1.9258848,108.34619
1.9412022,111.76503
1.8844482,108.416565
1.867147,108.77222
1.8285884,112.195496
1.73377,108.04307
1.8095247,107.16007
1.8905792,106.45977
1.7837816,106.59918
1.5860724,101.91749
1.7045504,102.54034
1.7179302,101.23071
1.5605676,103.05239
1.6430314,100.42013
1.5267961,96.71145
1.5329862,97.016495
1.5279223,93.84398
1.5516994,93.0085
1.5880398,93.934044
1.4028363,89.6138
1.3736848,89.87089
1.4247417,84.38737
1.3376065,82.57618
1.3095846,82.50581
1.3769376,81.772224
1.340411,79.98753
1.1640091,77.51955
1.2762911,76.833694
1.0913662,76.53149
1.1279312,74.72918
1.0939145,70.54337
1.0183436,72.351006
0.9722758,70.72144
1.0771092,66.20299
0.8417606,68.0974
0.93630797,62.443554
0.9375557,61.95047
0.8316376,61.36979
0.88870656,61.63566
0.9666415,57.84487
0.79517347,54.73074
0.9683051,53.713444
0.84183854,52.01817
0.9615406,53.088154
0.8190019,52.133408
0.7835002,48.787083
0.81413937,51.258846
0.8102664,48.63164
0.7565468,49.193806
0.72282386,48.47134
0.52271783,47.072823
0.42019245,50.350414
0.5458463,51.077854
0.42066175,49.190914
0.38024706,54.292805
0.3283555,52.104576
0.5157308,54.58654
0.50985444,56.970703
0.5882391,58.406876
0.47033104,57.807335
0.6007253,60.628227
0.7439812,67.43229
0.8097072,65.57131
0.95829856,70.69759
0.8990604,73.718636
1.0733125,75.726654
1.1869166,76.947556
1.4239943,82.19135
1.2965274,83.5302
1.3716626,89.07596
1.5654366,93.05935
1.550683,89.9986
1.7030478,94.388336
1.6799786,100.64899
1.7668321,97.058495
1.7045034,102.826004
1.8391432,103.22021
1.7793969,104.59962
1.7426518,104.90784
1.7076572,108.10456
1.7672175,108.40925
1.7853023,114.8997
1.6674042,111.68546
1.7552631,109.604576
1.796183,112.57478
1.80036,109.60273
1.6064725,108.0797
1.5488281,108.991844
1.6227142,110.11959
1.5349618,108.757866
1.5558721,108.0957
1.5787596,104.44389
1.4456949,102.75265
1.3728286,101.19336
1.288753,100.439354
1.2210408,100.36299
1.2971783,96.691124
1.297609,93.95301
1.2178487,94.48763
1.3054357,92.53358
1.2318739,90.531136
1.2637061,91.81567
1.184452,85.809555
1.1957061,90.14988
1.2080482,87.63949
1.1372377,81.821045
1.1983899,83.89907
1.0115501,81.27046
1.0356464,80.15583
0.9427813,75.07144
0.91300964,72.07442
0.8601749,74.221275
0.8475906,71.51795
0.79603463,69.51933
0.8171812,72.04955
0.6238366,69.51631
0.74144155,64.9531
0.6490726,64.27117
0.6468831,63.60072
0.64374304,61.80035
0.6159849,61.775066
0.6765989,58.049637
0.5974238,54.90735
0.5953443,57.647266
0.6283643,54.641552
0.5240339,54.968075
0.4641423,49.758617
0.6437521,50.083996
0.54825634,48.081547
0.45555046,47.604877
0.47249928,50.913055
0.36565888,47.26683
0.29901075,47.852547
0.30224305,51.07318
0.21920763,49.8654
0.11124572,50.913837
0.14554524,49.410072
0.13015655,50.126377
0.23980208,55.067608
0.14337108,53.255653
0.21477552,55.073803
0.2684217,58.90516
0.3195173,60.810894
0.43593732,64.874756
0.34817633,65.69158
0.454486,68.69397
0.5873597,72.632324
0.7808789,76.04689
0.84392303,77.855965
1.0692028,81.46451
1.0124116,83.19698
1.0458508,87.18157
1.1939746,88.733376
1.2563814,90.14902
1.39871,92.23726
1.2654779,100.3873
1.3091357,99.97545
1.441983,101.57536
1.4570796,102.97935
1.5396638,103.73396
1.51805,104.75258
1.5209968,111.824295
1.4380139,109.024635
1.521032,112.213356
1.5049675,109.31244
1.3892448,112.89439
1.393267,109.40082
1.3929379,110.77044
1.4228203,107.1917
1.3255651,107.71311
1.4673835,106.92452
1.268931,108.2164
1.2965251,103.296646
1.2752752,102.66813
1.1919004,104.92935
1.1968051,103.36491
1.1096225,102.4556
1.1332988,99.423515
1.1178756,97.17078
1.0815372,97.49198
1.0303187,97.884476
1.1241452,96.397644
1.0015956,91.434685
1.0300854,90.645004
0.9112271,89.76821
0.7824778,90.33633
0.93662685,86.86254
0.9200843,82.71534
0.84183216,84.434166
0.81254005,81.29449
0.73626554,77.67992
0.73560005,76.43984
0.6714001,77.4578
0.5754517,72.52271
0.592826,71.57786
0.60525614,69.76401
0.54692894,68.79115
0.47177443,70.408226
0.48871455,67.319145
0.45730597,65.219536
0.36781582,60.19914
0.4787781,63.490543
0.43192726,59.655476
0.36308238,60.722126
0.35735053,59.730125
0.37418303,58.65632
0.19989419,56.65697
0.16868487,51.654594
0.36657396,55.844566
0.32202807,51.876076
0.33044547,50.861755
0.2902351,50.049118
0.23976226,48.386826
0.3133529,49.677357
0.13435622,47.805893
0.10870042,47.703407
0.08534849,49.24652
-0.06146722,52.308018
-0.12697451,51.127953
-0.04453064,52.81804
-0.007888507,53.40626
0.00052682665,54.81806
-0.048421375,55.97268
0.00622652,58.836365
0.15507524,60.31425
0.21249531,64.45675
0.21700552,64.62959
0.33372355,70.317825
0.43056354,67.52686
0.5177847,71.30574
0.6750258,79.492294
0.76299477,77.51862
0.81028974,82.444916
0.9368438,85.62794
0.94091374,86.55126
1.1909894,90.042015
1.069564,91.567696
1.2364894,94.26675
1.1255193,97.895325
1.3313144,101.9397
1.3424213,102.97637
1.4132518,106.83935
1.37715,108.813385
1.4434757,108.695656
1.3070112,105.75143
1.3477833,109.68445
1.3967811,112.18994
1.2669123,110.94549
1.3873141,110.54036
1.2998828,110.5322
1.2622694,110.53871
1.3405049,110.12465
1.2511717,111.63867
1.2483318,111.34617
1.1932036,107.47044
1.1640844,105.88819
1.0360727,106.65294
1.1050429,104.015564
1.0324657,102.28096
1.0789233,97.68086
1.0765541,101.760506
1.0507137,99.083115
0.8959219,96.82348
0.9661685,91.3985
0.87373495,94.8841
0.92107826,91.599976
0.93466485,89.48051
0.89012474,85.9497
0.8256565,86.631905
0.81371266,81.982124
0.81596446,84.179985
0.84609336,84.88144
0.81161356,82.800354
0.7808139,76.577156
0.6945471,75.8177
0.5920369,77.530495
0.58951604,73.93875
0.6328885,72.73494
0.58288074,67.04812
0.5530008,67.54072
0.5654751,68.14904
0.48281306,65.91047
0.35628888,63.709766
0.42784232,61.223255
0.45852795,62.231037
0.33245683,56.6306
0.42630434,55.93283
0.38726988,58.94366
0.37932095,55.635174
0.3663212,50.826435
0.34895954,55.33809
0.37861824,49.512653
0.36275366,51.454567
0.35203442,50.964077
0.3184025,48.931076
0.26897094,49.80869
0.300629,51.349503
0.16380093,49.883667
0.075368926,50.836517
0.041693024,49.05507
0.08376603,50.11651
0.09341828,51.53097
0.02487958,53.417973
0.16146061,54.81404
0.06985618,56.152767
0.16580877,57.3876
0.20708244,57.20318
0.1590203,61.344067
0.4041445,65.86285
0.38212112,67.33855
0.5594444,72.632065
0.56121516,75.13315
0.7193745,78.349236
0.79330224,77.05528
0.9082846,82.26449
1.0340915,86.904076
1.0155864,85.50916
1.263376,89.47631
1.2486614,92.38402
1.2920579,94.54508
1.3382039,97.902245
1.4519689,99.86777
1.3930978,102.07999
1.5450925,103.202576
1.5160935,106.756676
1.5190691,105.80175
1.5769125,105.18341
1.5776678,110.415115
1.5608525,111.27352
1.6607956,110.14398
1.5654938,108.68055
1.5277313,111.06854
1.5595146,109.56327
1.3935645,109.08982
1.4544649,107.87188
1.3236786,110.0843
1.3302845,107.45405
1.3006029,108.651115
1.3693173,106.43972
1.2784961,103.83132
1.2388058,103.01372
1.205829,101.363464
1.2721552,101.10029
1.2193037,98.096214
1.2393044,97.227066
1.0997101,98.142365
1.2216288,93.38507
1.1533108,92.7022
1.0519428,93.63165
1.1556482,86.29085
1.0967106,87.08712
1.0753657,84.701164
1.1692113,82.1069
0.9535187,82.10018
1.0482442,79.98924
1.0902241,80.87013
0.95668375,77.900055
0.9685226,77.49614
0.9022328,76.3295
0.76976395,73.41551
0.86294913,71.67561
0.81782997,69.281975
0.7674543,67.84933
0.6760758,64.89631
0.7486421,66.732414
0.64888877,63.698036
0.73508304,63.838215
0.6513876,60.160725
0.6607623,58.745296
0.5898316,55.191505
0.63404673,56.194077
0.6811322,55.401
0.690156,51.341484
0.63330406,53.274395
0.64362526,52.376957
0.6030647,48.85127
0.6524578,51.613777
0.55071175,48.61062
0.4609604,50.48658
0.59349084,50.32606
0.44634855,49.59489
0.31604046,49.040928
0.36724457,48.065296
0.35059816,50.196125
0.25685018,52.001064
0.45008433,51.819363
0.35690498,53.951435
0.41984636,57.471283
0.47913596,58.434925
0.5778478,62.841278
0.5881597,62.670685
0.6530991,64.067665
0.79022205,69.64422
0.86026675,74.21536
0.9358621,74.30842
1.1206574,76.01874
1.06931,79.20396
1.2238972,86.16752
1.4558722,87.647385
1.3135556,87.88398
1.4800167,90.342476
1.6564422,95.80125
1.71303,100.538765
1.7035558,99.92601
1.7306087,102.03179
1.8714268,104.26152
1.9360108,101.9813
1.7992053,105.6379
1.8247169,107.46867
1.9092003,107.23737
1.7677649,108.7921
1.8267536,111.756615
1.7431657,107.68451
1.7840006,110.50433
1.8679782,111.406944
1.7990686,110.231186
1.8342959,108.8798
1.6601443,110.79337
1.6495956,110.34579
1.6705201,106.79983
1.6649323,104.711395
1.6187462,101.45847
1.597024,105.854614
1.5109351,101.07758
1.474118,102.81166
1.5559688,98.24768
1.4219135,95.74034
1.3081973,96.6662
1.5044006,96.88303
1.434485,91.596085
1.4030551,92.03595
1.2540435,88.69161
1.4756528,89.75373
1.4462143,83.99485
1.3618841,83.535034
1.4544873,81.9602
1.2255557,78.30625
1.3360609,80.436676
1.3006605,78.76539
1.1930919,76.11694
1.1889879,76.48767
1.1009831,74.99859
1.0923582,74.069664
0.99253833,71.13014
0.9013751,68.53176
1.0094334,64.12988
0.96096843,65.58684
0.97335464,65.07397
0.9875196,63.434635
0.8957745,61.902073
0.84137034,57.742935
0.79345864,59.814304
0.92714345,55.672703
0.91793126,57.92173
0.9009674,53.750877
0.8779822,48.36252
0.8975386,51.242104
0.7392605,49.458523
0.77736354,50.28537
0.7545901,50.22233
0.6808651,47.152367
0.80392444,49.616768
0.6239234,52.143913
0.59665227,50.23304
0.6080035,50.134434
0.5961616,49.610382
0.5601853,51.92697
0.45281357,53.11393
0.5417102,54.839
0.5685765,56.129032
0.6259309,57.144764
0.75284076,60.125687
0.7329851,62.642963
0.7525468,64.17282
0.8893231,67.392685
1.0076782,71.71525
1.1439219,72.83892
1.2427484,78.78296
1.3193035,79.77917
1.4411931,80.38023
1.4662645,83.63539
1.5454175,88.340614
1.6391714,89.896095
1.7831935,94.17359
1.7140855,95.14839
1.8852857,97.84092
1.9257402,100.45185
1.8219147,102.770355
1.8789865,106.83872
2.0288367,103.23368
1.981829,104.60049
2.0183098,108.71075
2.140439,108.7425
1.9377344,106.14141
1.8822489,110.16707
1.9240614,111.269455
1.8903722,107.983795
1.8915799,109.60104
1.8447257,109.03957
1.8423998,109.08023
1.9090394,108.47495
1.827737,105.75631
1.7534958,104.97149
1.755393,101.79672
1.5588651,102.99137
1.6399688,103.34454
1.6181041,99.094284
1.5495436,99.95079
1.4872963,97.83492
1.585328,96.23364
1.530903,94.52498
1.5393069,95.48026
1.5151657,91.34627
1.5082923,91.57763
1.4731075,87.281784
1.4045327,86.3377
1.3692788,85.190544
1.4698035,86.395836
1.3511829,80.40607
1.2794527,81.14737
1.3892524,79.65913
1.285346,76.875244
1.1923323,74.797226
1.1416218,76.43345
1.1973869,73.27141
1.0843408,69.71068
0.9853807,68.305435
1.0636203,67.59012
0.9574762,65.8867
0.9750195,64.54905
0.8865401,63.959904
0.9329009,64.44076
0.8419733,59.38638
0.90839684,59.20297
0.9688686,58.140427
0.8242634,54.959225
0.87187433,53.324413
0.7572952,51.969177
0.8549544,52.147343
0.82247084,50.27877
0.82957274,49.323986
0.78364974,49.85217
0.7938202,52.092316
0.6426908,47.11439
0.52110606,49.100266
0.54762685,50.35685
0.5138912,48.599148
0.55027163,50.211624
0.46747458,52.09706
0.56550896,50.321552
0.39155832,54.394184
0.50393605,49.713913
0.50258327,54.957294
0.5816298,60.885986
0.7016488,61.600735
0.7426515,65.63799
0.8955173,66.35917
0.8599402,67.67283
1.0147041,72.99695
1.1787121,73.072815
1.1759225,73.31033
1.2092471,80.29435
1.3087803,81.85713
1.5057607,89.24409
1.5187864,88.94992
1.5305116,91.65223
1.6533791,93.5085
1.6421529,97.310524
1.7665744,97.26678
1.7887347,99.94563
1.7847661,104.42346
1.8325292,104.80026
1.6934625,104.331154
1.8018233,107.62505
1.8020508,107.7374
1.8183649,110.1292
1.7516418,110.61351
1.7372208,109.060265
1.7178712,107.22652
1.7249447,110.222755
1.758918,111.334915
1.601441,111.48911
1.5708711,107.82086
1.6520569,110.06835
1.6296151,106.549324
1.482459,103.38023
1.4628158,105.7969
1.5083878,103.35649
1.482016,101.928955
1.3005056,99.07077
1.343234,93.95856
1.450111,99.22032
1.335784,97.522484
1.3072728,95.66823
1.2817948,93.87861
1.2809972,91.204285
1.2914075,91.321526
1.2649072,90.59447
1.29663,87.87294
1.3046248,85.0202
1.1209468,80.07118
1.0413319,82.32441
1.0600976,79.002106
0.9721625,78.5014
0.9817226,77.9375
1.0897527,73.52202
1.0036494,72.38508
0.86050665,72.214676
0.80588865,69.46792
0.7389438,71.22656
0.80933017,70.07274
0.70975393,63.468273
0.624971,65.83871
0.7378023,63.518944
0.6686111,62.219025
0.6587038,55.7321
0.6387312,59.13971
0.6502892,57.838345
0.53874165,53.245052
0.6716334,53.959183
0.6497895,56.1028
0.50616294,53.999493
0.44729635,51.019783
0.42336845,46.9374
0.48424247,50.566364
0.40466547,51.6381
0.4365353,45.74921
0.33097234,46.26467
0.18729906,46.636097
0.15863281,52.804646
0.14895877,47.94198
0.2538707,50.251102
0.23327109,50.40242
0.21049054,50.576492
0.1306154,55.610043
0.2016943,57.551815
0.24800889,59.241863
0.35157362,62.397213
0.39905572,62.587727
0.46316803,72.46023
0.5465924,72.24796
0.68421406,73.626434
0.8777088,77.03126
0.91969746,78.036095
1.0685393,80.044205
1.0969912,84.10691
1.1014937,86.29396
1.288602,90.93977
1.2649708,96.280205
1.4347991,96.06235
1.4511368,98.42998
1.4688579,100.59975
1.4565407,101.95782
1.5896853,103.18259
1.4429835,103.55022
1.5857272,111.89612
1.4565105,105.86433
1.5314493,112.32599
1.4355581,108.513916
1.6089448,109.208046
1.4270799,109.775925
1.4489334,106.856285
1.5577668,109.19939
1.4212009,111.20976
1.3607839,107.59618
1.3047692,109.1596
1.3346813,107.323135
1.3114254,103.07993
1.2227067,106.02925
1.1357766,103.17202
1.1219178,103.01717
1.0571883,97.954254
1.0094786,96.90558
1.1045743,98.35356
1.0609108,95.62859
0.99686354,95.57555
0.9845355,94.29894
1.0042989,90.39888
0.9276363,88.02615
0.93256646,91.08173
1.0163851,87.96341
0.9012327,80.05745
0.9071415,82.082855
0.89480776,83.29961
0.80042285,82.90775
0.8591837,79.97342
0.7653176,78.327644
0.7597278,75.24863
0.68755096,74.50693
0.5083168,72.16045
0.632116,70.65975
0.49547595,66.85115
0.5241972,67.756676
0.43324026,68.84994
0.30388632,63.772022
0.52934176,61.165485
0.39415398,60.99021
0.37981853,64.29234
0.40462178,58.72259
0.36493826,56.81037
0.314204,52.680283
0.33499047,54.57992
0.31912088,54.741997
0.3924996,53.97567
0.3319187,48.954506
0.43768212,53.338787
0.21272495,49.333706
0.20738393,50.699158
0.17109604,49.202087
0.17220266,51.706112
-0.0069461283,47.81079
0.064866655,48.801125
0.0669385,50.309753
0.0024972085,51.76965
-0.06395924,53.151775
0.09657927,53.194008
-0.065870635,55.954376
0.18849595,57.661114
0.07069704,60.65943
0.0035482764,63.212715
0.28373715,64.87813
0.2437377,65.65866
0.43801984,69.92357
0.5368314,71.498634
0.5771788,77.351364
0.70270896,78.42102
0.85410017,79.201065
0.8693886,83.77169
0.9459752,87.07584
1.0983211,91.28175
1.0810608,89.90576
1.2099855,96.7638
1.268391,95.63048
1.317942,99.16632
1.2762476,98.57275
1.3487607,103.09604
1.2759638,103.13681
1.4231995,110.304886
1.4323089,111.037445
1.3380377,107.7031
1.4309915,108.6092
1.3120321,109.283745
1.2661985,109.661514
1.4287935,110.711365
1.2928599,106.25777
1.2296447,107.297066
1.2249022,106.295105
1.212168,111.22621
1.233901,105.620255
1.2076633,105.961205
1.115548,102.87745
1.0244483,102.67496
1.0251911,103.89768
0.98304087,100.27715
0.86943233,99.155464
1.1407533,99.846016
0.8867066,97.538284
0.8539178,97.064125
0.9635787,92.78533
0.89932615,92.749146
0.9500323,92.48065
0.93106014,91.225334
0.92547375,83.6182
0.8522148,81.50693
0.8310422,83.886566
0.9263242,81.40926
0.7316162,83.330154
0.8529958,80.965096
0.7147588,81.733765
0.69289917,76.743324
0.6583748,74.64208
0.5596608,71.98279
0.5614739,70.46554
0.53792334,70.334984
0.43640482,66.42724
0.4846771,66.29196
0.40121114,61.77417
0.3444421,65.07238
0.3950909,63.6188
0.46521416,59.51341
0.42542583,59.08388
0.3650911,57.653473
0.39283448,53.74971
0.41529328,52.675793
0.3673901,51.483868
0.21256901,52.608566
0.28058773,53.03321
0.30650964,47.308784
0.31396586,49.93354
0.286358,51.087
0.22779572,49.281742
0.2294698,48.75665
0.12396294,47.31422
0.10590787,49.177765
0.003483226,50.486984
0.013511085,50.519745
0.0368569,52.110435
0.027383061,53.632328
0.012873639,52.26771
0.064914085,53.99503
0.062007263,61.67648
0.24170008,60.712967
0.26044905,61.392593
0.32608077,64.98458
0.36717233,65.33357
0.5166495,69.781235
0.67390555,72.69022
0.8674422,78.57519
0.9586874,78.71053
0.9071014,81.34729
1.0555522,88.26981
1.0831854,88.33878
1.290112,92.083084
1.3665645,92.51045
1.3395557,97.31825
1.3966727,99.03997
1.4044895,103.15614
1.5045593,98.331184
1.4959416,106.24196
1.4731274,105.535736
1.4712878,104.91449
1.4652865,108.00606
1.5300411,112.69956
1.5825777,104.1607
1.4210931,109.02576
1.4787221,111.00645
1.4079809,111.59549
1.3809619,111.74349
1.5249681,108.54971
1.4250236,110.56994
1.4975901,107.80866
1.3665478,106.13172
1.3252261,105.48737
1.188034,104.25051
1.2773952,103.04095
1.2391446,102.95496
1.2678523,101.34027
1.2158351,99.90426
1.1877733,99.03878
1.1840056,95.43741
1.2021973,97.14818
1.190797,88.98293
1.1534829,94.07912
1.1191015,91.13321
1.0267508,89.34267
1.1383098,84.93632
1.202502,83.28561
0.97388023,85.566696
1.1176654,81.90196
0.96708816,78.12931
1.0661043,81.436905
0.94237375,74.99684
1.0408456,76.10433
0.84573835,72.54278
0.87560743,73.12365
0.7223157,71.85895
0.701911,69.85224
0.6392328,67.90836
0.7906975,63.65829
0.7181704,63.129696
0.6954327,60.771416
0.71515113,62.47739
0.5030757,56.735695
0.6463898,56.531
0.6831105,56.584248
0.55264354,56.525604
0.61682785,52.404655
0.64956397,55.216206
0.59437,53.559452
0.5166858,52.42625
0.5443585,50.29176
0.45088,51.829666
0.565359,50.795662
0.507714,51.07149
0.47221243,49.39164
0.36149696,47.43206
0.35923207,50.269024
0.31934437,51.257225
0.38085255,50.031708
0.31706628,53.006496
0.35952425,51.96927
0.31908992,55.205032
0.45217198,58.33751
0.37832302,58.516376
0.43640068,62.573757
0.5401666,66.9817
0.68495864,65.92544
0.7984235,69.98686
0.8862393,74.06151
0.95616734,73.88834
1.1878481,78.22595
1.1782691,82.9196
1.2641732,84.739105
1.3359386,86.459755
1.4987009,88.37294
1.5275179,93.29127
1.5882741,93.338394
1.7015693,97.632355
1.636769,100.302376
1.8458204,104.570656
1.6811846,102.87612
1.8237649,108.2893
1.851719,106.683426
1.8092842,106.58637
1.783776,110.3125
1.7681664,109.839516
1.752961,111.52248
1.7373637,108.49268
1.7992506,110.24825
1.6874079,111.20558
1.7409146,110.97634
1.6388267,108.32173
1.6745124,109.072395
1.7321929,105.080025
1.6481934,105.7756
1.622584,104.26216
1.5257934,101.61789
1.482124,101.281494
1.5667461,104.77669
1.5492892,102.26034
1.3241886,96.85322
1.532371,93.41788
1.4556165,99.55982
1.4500753,98.688965
1.447067,93.12912
1.4702954,89.64055
1.4799602,92.434235
1.3338151,88.54016
1.3767264,83.87876
1.3449757,84.46986
1.3789377,81.44923
1.3367603,79.88981
1.329755,77.43276
1.225608,78.32092
1.2514439,74.87301
1.1598217,75.372314
1.1567618,72.298386
0.9553538,73.480515
1.0462822,72.09899
0.96200484,68.33378
0.92888814,66.10666
0.9363515,65.69169
0.95903224,61.46777
0.9028286,61.58111
0.9680115,59.40439
0.8536175,59.198288
0.8164979,57.689854
0.84206617,57.8836
0.7970653,53.078712
0.8305891,51.148884
0.8051299,51.681145
0.79916364,50.50006
0.88110983,50.5415
0.7832556,47.287148
0.7817581,50.83047
0.7081175,45.621998
0.7176028,48.888847
0.81113064,47.277916
0.6404927,51.22014
0.5700141,48.701912
0.61421216,50.81859
0.43193212,56.705994
0.54723585,51.31552
0.5243085,55.872803
0.44218838,56.649963
0.6622002,58.95967
0.7027964,62.347168
0.75010896,65.77785
0.8346977,67.04444
0.8816122,67.92541
0.9835287,69.595314
1.1658354,73.55154
1.1402569,77.75772
1.414664,76.882126
1.385073,80.03535
1.4797944,86.30312
1.720963,90.29059
1.7433391,91.8509
1.6304007,95.154686
1.8434883,94.13927
1.8966516,98.985466
1.8462281,102.6161
1.9403563,104.336586
1.9459437,103.18443
1.9235753,106.76157
1.9619123,107.43147
1.8784772,108.901505
1.9294662,106.57794
1.9589877,108.52906
1.9872134,112.99061
1.9586114,109.800026
1.9284718,109.86565
1.8903066,104.38219
1.8586522,108.25481
1.8802366,109.78517
1.8192776,110.674706
1.7561532,108.53969
1.6013532,106.422615
1.5800277,105.66827
1.5589889,98.682655
1.5874208,100.764694
1.6051826,99.78163
1.6469191,99.958305
1.6168846,95.91684
1.6705078,95.891266
1.5317153,94.02016
1.4392881,91.92099
1.4596206,88.99886
1.4607557,88.38481
1.4765902,89.33579
1.4032706,84.12024
1.3664024,82.92213
1.4758927,84.98191
1.3802977,82.59827
1.3717476,78.63135
1.3385375,77.799225
1.2426664,74.673004
1.1707436,76.71812
1.1786643,72.66161
1.0976448,70.73837
1.1276317,70.552155
1.0755298,67.928566
0.9533551,67.84198
1.0174552,67.64025
0.8499375,63.916157
0.9496723,64.16072
0.9114551,59.029224
0.85988194,59.28513
0.9348295,55.58038
0.77584845,56.781116
0.8211085,56.7941
0.88195777,52.831707
0.8574343,52.280685
0.8264427,51.775818
0.76660466,51.60799
0.7512973,49.118046
0.69002885,49.583996
0.7454836,45.976482
0.73224634,49.81479
0.5471651,46.10057
0.5917653,50.449368
0.5607316,50.882603
0.60882473,53.702686
0.5421619,49.859257
0.45468274,51.393265
0.56974757,55.663383
0.5311943,56.411427
0.61551535,56.909966
0.5622549,57.903755
0.66946787,61.0234
0.7729975,64.85848
0.82509214,65.553566
0.984064,69.23947
0.97219944,71.370415
1.0342052,75.21184
1.183533,74.81106
1.3404181,79.25567
1.4182198,84.18523
1.4293333,86.096214
1.5161,87.62002
1.6009662,93.54117
1.717007,98.02373
1.6767279,97.80745
1.8244348,102.1176
1.7439163,102.87789
1.8627257,105.66427
1.7940933,107.75375
1.8848126,104.460625
1.8579539,108.28543
1.7780436,110.341415
1.8564287,106.88081
1.8138393,111.14296
1.7718756,110.14966
1.7450718,111.35557
1.7528611,109.97567
1.8046992,110.1585
1.6397096,109.9561
1.6392274,105.54078
1.6245989,107.951775
1.442715,102.28605
1.5827823,104.70071
1.4321994,103.774635
1.4409331,102.37412
1.3664322,101.77381
1.3858669,98.63515
1.3913295,96.484116
1.3789113,96.352135
1.3408487,93.99024
1.2601091,90.897446
1.1937011,91.88911
1.3198315,93.192154
1.2078501,87.55697
1.2091581,84.34693
1.2190439,82.31607
1.4118898,82.60195
1.1723099,80.55925
1.1529584,82.82884
1.0037324,80.54553
1.0487314,78.62261
0.9597138,75.71372
1.0574245,74.09331
0.9044541,72.258606
0.88695806,69.7975
0.74319947,69.58362
0.6909967,67.23414
0.613553,68.276955
0.7205728,67.14596
0.6362719,60.899647
0.7090412,58.75137
0.5886625,58.36055
0.5725977,55.184742
0.68732107,56.470264
0.6239584,57.662415
0.5166157,55.384743
0.43041107,53.4203
0.5735818,50.12552
0.5943515,51.313465
0.5144894,51.018158
0.50690514,49.768047
0.4983069,50.51201
0.3680367,49.837257
0.3523454,48.095383
0.21740454,50.253628
0.3633993,44.435623
0.22641937,49.97503
0.19820666,51.437298
0.21645182,53.443398
0.17313711,54.35484
0.2115779,52.95647
0.17451833,57.051964
0.18771002,58.44256
0.24431,61.33108
0.34780952,59.601402
0.5238502,65.79721
0.5595952,67.20922
0.69157344,72.07813
0.88273156,76.02262
0.93150616,74.15954
0.85416216,80.60748
1.036908,85.040726
1.1879275,85.91333
1.163891,88.321526
1.197214,95.01404
1.3482652,94.63013
1.4710377,97.29978
1.5578719,97.400795
1.4917824,100.61921
1.6003692,105.47931
1.5181922,104.75398
1.6403795,108.36093
1.5046434,109.06152
1.4778956,108.231514
1.5113565,108.38422
1.5789264,111.28662
1.5855592,108.80469
1.4616088,107.5147
1.4472082,108.92911
1.3871409,109.68757
1.4424555,109.505516
1.3961954,106.840065
1.3359735,109.91543
1.240071,105.6803
1.1930697,104.55484
1.28119,102.62689
1.2552804,104.00516
1.0101905,102.2355
1.1276808,100.59182
1.1466367,98.2015
1.1099521,96.95008
1.1573945,94.683846
1.0101012,96.61866
0.98369056,93.14144
0.96449727,89.6252
0.88961756,90.29211
0.9767917,88.09869
0.90675646,84.434715
0.869267,86.47903
0.96300286,83.23146
0.9121421,84.286896
0.82791704,81.482895
0.8237368,77.11053
0.6260631,74.603325
0.73298275,74.9064
0.61098665,71.41892
0.64086646,71.81411
0.5455204,74.068214
0.43195966,68.286995
0.47272182,66.516785
0.47401953,65.56637
0.33237097,63.93865
0.45940518,59.71783
0.45985088,58.630695
0.44360217,60.00933
0.3826272,57.974953
0.4039147,57.98395
0.42136395,54.04745
0.30829528,51.81161
0.3459452,50.82976
0.2452632,49.85011
0.29269728,50.853462
0.27298364,48.656403
0.19001755,47.706264
0.2187317,51.535065
0.21584001,49.38788
0.16309837,49.721237
0.013363091,46.771458
0.0142935,48.528263
-0.10249282,50.38109
-0.002565642,53.248913
-0.054737676,52.19295
0.07333371,54.333057
0.05818258,55.401024
0.038467646,56.43444
0.030363295,60.051846
0.27187812,59.449226
0.31623882,65.114395
0.3437231,67.914696
0.53677285,67.31655
0.500452,77.08392
0.65178585,77.54476
0.73829895,81.743195
0.7089276,80.521515
1.0094001,86.75808
0.9400433,87.95483
1.1201723,89.454445
1.0893701,93.23554
1.2396467,95.35951
1.2428951,95.31135
1.3001866,98.73545
1.3238126,101.37177
1.3634126,103.00856
1.37678,106.37516
1.2369126,106.80252
1.5192922,107.19454
1.4065306,107.797386
1.372802,109.942116
1.3932966,112.40565
1.4069692,114.6118
1.3684058,111.93602
1.3410712,111.23871
1.2528512,110.47996
1.1419821,109.690254
1.2681931,109.18904
1.1566616,107.85507
1.2683643,106.07417
1.0374168,110.35593
1.0889145,104.91053
1.1298239,102.49466
0.9817525,100.72382
0.9828888,98.75703
0.94274646,98.73359
0.93933886,97.85628
0.83079857,98.12961
0.86767226,93.81739
0.83194387,91.34838
0.86011124,88.27264
0.79888093,88.25973
0.90266,85.31814
0.8446723,86.00213
0.77883464,84.533905
0.8579608,82.46584
0.8324939,83.68777
0.7710416,77.983284
0.65912014,78.8598
0.7119741,77.11623
0.5367101,74.79855
0.6654045,72.188095
0.4695331,70.40523
0.46215525,69.6614
0.46132386,68.56224
0.39889926,69.39469
0.2582116,62.28995
0.35469934,61.266224
0.3522925,62.54817
0.39130774,59.636814
0.30279547,58.776035
0.39917186,57.16058
0.44790792,57.313465
0.287554,53.809196
0.37066036,50.877453
0.4254084,47.895954
0.23216978,53.498558
0.33034918,50.465176
0.20026408,49.217854
0.17873591,49.19284
0.23768762,53.265484
0.22239843,48.283474
0.11315349,51.857883
0.13179262,52.44771
-0.0029091313,51.431854
0.07170064,50.31456
0.054335814,51.875927
0.006796622,54.21065
0.090681046,54.77228
-0.03558799,55.945225
0.06577419,58.908806
0.2102623,63.223022
0.34423226,64.738365
0.41535962,70.14232
0.50051284,69.355
0.52355105,70.51727
0.69432133,73.04197
0.8803621,79.570366
0.78945255,82.24557
0.98113316,84.12983
1.0513277,83.1169
1.1856256,89.39535
1.113279,93.127525
1.4012482,95.836
1.325617,93.25607
1.4257233,101.52976
1.4305621,99.39331
1.4124882,107.60091
1.5850447,103.95059
1.4398761,108.45883
1.5865809,108.08909
1.4654893,109.10725
1.5274965,108.11732
1.4631368,109.46814
1.4174676,110.88069
1.4088411,110.938896
1.380689,110.7456
1.36503,109.58365
1.4090157,109.15603
1.414285,109.607124
1.3212363,104.64727
1.321371,106.5217
1.2738374,106.86699
1.2742344,104.0707
1.3193134,100.51702
1.2324616,101.03985
1.2817477,97.360245
1.1190649,98.67043
1.1114933,100.3776
1.0439628,96.350006
1.1584526,91.05694
1.0714396,93.68716
1.050711,88.44061
1.1351175,90.11994
1.0958153,87.82529
1.1480838,83.9769
1.0465817,86.52405
1.0603794,83.33745
1.001082,79.22782
0.9763016,80.690216
0.95610815,74.69439
0.80981183,74.743126
0.91660863,77.501564
0.79320633,72.22083
0.84150404,71.31728
0.70209306,67.62272
0.6537803,66.85282
0.65952504,68.065475
0.6763239,66.65969
0.63684577,64.44745
0.5762192,63.183437
0.5734298,60.152447
0.58770704,56.04997
0.61862886,58.62124
0.63149416,56.39375
0.53122795,54.399155
0.5668815,55.550503
0.5178147,52.12502
0.5953116,49.565212
0.60819507,48.811813
0.4351368,47.007633
0.5673434,49.52118
0.57964957,49.56244
0.44127208,48.819016
0.37877032,47.897232
0.36315262,48.166603
0.2667457,49.754913
0.33809212,51.485226
0.35069802,52.72525
0.3631837,57.32109
0.34998006,55.159737
0.28967145,59.211437
0.39316455,58.485603
0.46488103,60.45853
0.5523767,63.51601
0.6157061,66.062675
0.6863611,63.875755
0.7947221,70.90296
0.9167523,71.54876
0.96567804,76.8166
1.0372943,79.86677
1.2178484,79.01293
1.379773,85.18206
1.4276794,88.87799
1.4325162,92.05131
1.5054489,92.6377
1.5702794,96.11824
1.5667869,97.78289
1.7510537,99.75118
1.6852766,98.90411
1.7563531,106.40487
1.8150051,102.5134
1.7602335,105.32771
1.8053514,105.81116
1.7849361,104.164986
1.8310671,107.015656
1.7997366,111.733604
1.8060024,111.203766
1.761747,110.02224
1.7241881,109.02824
1.7240845,107.56915
1.8545014,108.54821
1.670585,106.70577
1.6268331,107.40968
1.647457,107.12943
1.6379693,105.16683
1.4632196,102.64964
1.5931765,101.83917
1.4983029,97.64659
1.5404142,100.04302
1.43756,98.6541
1.3998462,96.61965
1.5439426,94.331566
1.4229712,90.61238
1.4714178,92.334526
1.3740864,89.8606
1.2623618,88.38358
1.31549,86.16245
1.4238716,83.763374
1.3276865,83.49881
1.3199075,82.1326
1.2643188,80.3758
1.2030115,77.13519
1.160476,77.67801
1.1613172,78.42438
1.0349605,71.76933
1.1141714,72.62957
0.9369376,69.33147
1.0186616,68.9651
0.9351495,66.98235
0.93041277,64.28802
1.0055186,64.30092
0.94910944,62.156574
0.8371748,57.478123
0.9055129,56.924816
0.86694276,58.542545
0.79402673,54.459343
0.8795331,53.77796
0.9443999,57.584248
0.9382968,54.11449
0.91331804,49.611523
0.7402655,50.577248
0.8018321,50.358883
0.6176794,49.446636
0.7681917,44.52118
0.7284015,50.283962
0.6262926,50.850895
0.61089,49.346573
0.48131534,47.92632
0.5305864,52.429756
0.47064576,51.1725
0.5553606,52.902267
0.69007564,52.821842
0.54214776,55.634537
0.5291551,58.407158
0.7729186,61.836254
0.6493468,60.55013
0.80792314,61.249058
0.92831457,68.20296
0.9629124,70.75518
1.152694,71.7006
1.2663946,75.42668
1.2686508,78.6741
1.4181874,80.636734
1.6159507,80.70204
1.6647379,85.90516
1.6307169,89.98827
1.6520498,93.02479
1.839944,91.82919
1.8360385,99.37939
1.9044858,100.33309
1.9234486,100.02288
1.8375225,105.32986
2.013205,103.92036
1.9652668,106.35869
1.9588628,109.58531
1.975364,109.99024
2.0075123,111.58531
1.893435,107.65601
1.8912251,112.22212
1.9691777,108.48298
1.8630402,112.69628
1.901233,110.8145
1.933561,105.8123
1.8661174,107.14613
1.7671999,106.20228
1.6680694,107.07229
1.7194966,108.12646
1.631302,105.63494
1.7108665,101.31262
1.6026232,100.20916
1.588124,96.619446
1.5672251,96.523415
1.4933761,95.136795
1.5524673,93.94142
1.4352102,91.36269
1.3646957,91.59335
1.460301,92.88517
1.4902668,90.22821
1.376228,86.6986
1.2849703,85.16514
1.3845016,83.493355
1.3978069,86.7324
1.3576473,83.2999
1.2923992,79.65081
1.2908937,77.70911
1.2578439,76.57766
1.1693752,75.0768
1.1268001,73.76733
1.1799815,68.80607
1.0745616,70.93048
1.0518036,67.75976
1.1037852,64.66853
1.0446585,64.15864
0.8710682,64.170746
0.897785,60.79677
0.76645696,58.61243
0.80999494,59.450344
0.82164073,56.810196
0.99004966,57.139584
0.8794772,51.959785
0.87169665,51.088634
0.9437422,53.890274
0.85968727,51.50003
0.8299803,51.268467
0.7697686,50.614086
0.66346776,50.44364
0.68180335,47.349102
0.6808738,47.341084
0.5993404,47.095757
0.4423291,48.519577
0.43033913,50.10016
0.530431,51.231518
0.5005655,52.813908
0.47883686,55.233997
0.4414966,54.385357
0.5637794,53.38128
0.48949987,55.76837
0.66719127,61.893204
0.71645844,60.746975
0.7244465,67.65563
0.8716222,69.94296
1.0511584,67.49209
1.0658332,74.26927
1.2416577,78.462074
1.3221287,81.39298
1.3903759,83.70396
1.4452143,87.1815
1.4891847,91.001686
1.6758684,91.286354
1.6797756,95.6758
1.5992805,95.98308
1.8072764,101.93598
1.8762748,101.155876
1.8482652,102.41647
1.8352171,107.39558
1.8745284,106.25
1.8428167,105.32197
1.8319874,106.2711
1.9234679,111.4711
1.7862216,111.84337
1.7564142,109.9572
1.9165084,110.29183
1.7433399,111.86311
1.779115,108.773964
1.773731,109.949455
1.6851622,107.802315
1.6333356,109.42246
1.5371618,105.42131
1.5727432,103.545074
1.509523,102.51337
1.4628655,102.02319
1.4491016,100.79443
1.3769137,101.52168
1.4874998,100.96343
1.4097914,99.34196
1.3714882,93.47119
1.3715034,92.76371
1.3120373,92.381966
1.2925177,89.12525
1.2692535,88.75957
1.3442837,87.986336
1.292041,88.7054
1.334782,82.88503
1.1294307,83.12624
1.3092126,81.63614
1.0511117,77.618256
1.0130016,77.17084
1.1117626,73.9448
1.0147101,75.39811
0.8941832,71.810936
0.7575032,72.29963
0.8891964,69.88581
0.83516574,68.65821
0.7894218,66.11533
0.74928516,65.794914
0.7255386,66.44683
0.6641576,62.541237
0.7267502,57.536083
0.7260496,59.379105
0.69299257,59.190357
0.66155845,56.983955
0.72506344,54.43527
0.6102837,52.466732
0.5954604,50.22205
0.5374827,50.02978
0.61940444,49.68948
0.71457094,47.1721
0.4748844,48.4363
0.3451858,49.298664
0.41116875,47.69108
0.35592028,45.782635
0.3002201,51.82105
0.31103298,46.817028
0.2138496,48.970615
0.3149739,49.92301
0.18949173,54.732468
0.3362587,54.557858
0.2427038,57.416348
0.2777901,58.24375
0.3473129,58.06917
0.33704016,63.571384
0.49328217,67.6615
0.5890454,66.27289
0.6125425,71.68627
0.71958107,74.74535
0.8508507,75.39357
1.0035924,77.368866
1.1788751,81.87513
1.107499,84.96653
1.2776713,87.18065
1.3271927,91.53644
1.2649355,93.62223
1.4016513,95.57163
1.3772509,96.39805
1.5166086,100.13399
1.5369909,99.44581
1.4659774,104.597664
1.5114549,105.96855
1.5988921,110.23313
1.6029544,108.591484
1.4730814,109.078514
1.410054,107.8669
1.6267443,112.13398
1.5857946,113.30316
1.3926562,108.31245
1.5148958,108.414406
1.3669875,107.9257
1.4356403,110.39831
1.3768827,108.35396
1.381887,107.14383
1.1171374,103.382935
1.3402092,106.44608
1.2102727,104.31127
1.1247698,105.938545
1.0892915,101.20239
1.089105,100.18877
1.1070901,100.21626
1.1978422,94.80521
1.0700732,95.30429
0.995737,93.30151
0.91393787,89.86484
1.0297154,89.558945
0.9379106,91.268005
0.8507211,88.30482
0.9433688,85.72549
0.8390907,83.84645
0.84850967,83.51753
0.8632754,79.69365
0.9100908,78.03513
0.7529795,78.979904
0.7843248,74.553505
0.76583827,73.55284
0.56531787,72.46272
0.5492063,67.68013
0.4840653,70.1999
0.52101845,65.46409
0.3503796,64.93742
0.3386725,63.47021
0.37037784,63.494904
0.33592364,61.074005
0.45586622,60.750084
0.35409307,60.47512
0.3772794,57.86865
0.32506493,53.8109
0.34264073,54.103893
0.3237404,50.76169
0.29478532,50.733307
0.2828486,51.31668
0.28681198,50.733257
0.32462758,49.40765
0.22892113,49.896744
0.20795482,47.3399
0.21519174,49.503036
0.07396149,51.394894
0.026128765,50.56407
0.009232451,51.367527
-0.019932862,47.666313
-0.09159195,51.664707
-0.040754966,54.48547
-0.13350312,55.78119
0.055791654,58.95263
0.037690096,58.209137
0.26722893,59.47219
0.21597745,64.36431
0.3966325,71.9438
0.3323625,71.86424
0.46318707,71.21934
0.5708364,73.943436
0.71291083,79.23838
0.8262277,82.42765
0.8123542,83.91522
0.97678554,87.810814
1.075688,84.57317
1.1571574,91.73703
1.1098528,93.93922
1.2690187,94.90479
1.154331,100.15022
1.3029838,99.228355
1.4337236,103.75841
1.3384634,105.00318
1.2810966,105.32516
1.3928847,108.563866
1.315687,108.514145
1.4329102,109.321556
1.4321933,109.977394
1.4060854,107.96661
1.2724988,111.73646
1.3125085,110.046974
1.2811354,111.09644
1.2688515,107.18891
1.3650267,107.72769
1.1841149,107.814835
1.1143558,106.68106
1.1962458,106.6036
1.1976427,103.25726
1.046641,103.27991
1.0526102,99.7806
0.88493013,101.71981
1.0775633,101.20818
0.94492805,95.72337
1.0049427,95.65615
1.0075605,93.92967
0.9387758,90.001465
0.8772533,90.51042
0.8750732,87.3009
0.9284573,86.506454
0.8349844,87.634575
0.7620025,85.07156
0.8910592,81.8855
0.8377076,81.456665
0.7956779,79.18445
0.7137532,76.31581
0.69771034,75.67854
0.62697595,74.24163
0.54101163,75.37446
0.5819454,71.407104
0.44091263,71.222786
0.4940302,65.9609
0.4393754,68.648476
0.30356392,65.45194
0.41644648,62.126907
0.39051118,62.943283
0.36456528,62.28912
0.29197317,59.762737
0.41006532,60.041203
0.26101515,56.35243
0.35214266,54.093315
0.2805924,51.604733
0.28696185,52.22244
0.31671724,49.73574
0.30510187,51.86298
0.274948,50.675514
0.13545172,48.600864
0.13316195,54.532276
0.0919103,47.404556
0.117320225,52.551132
0.061608594,50.079556
0.07459588,50.148956
0.038554605,51.068596
-0.059551053,50.69133
0.0020268145,53.001694
-0.038734782,55.634445
0.04148597,57.776527
0.17636989,60.01791
0.21046764,61.801113
0.18148436,65.488106
0.28941008,67.63714
0.34343627,68.10858
0.46439767,66.69331
0.7704303,71.80279
0.7561678,76.86627
0.8458995,79.72509
0.86851984,80.14295
0.93006796,85.61567
1.0733014,86.51904
1.1015435,94.29542
1.2760538,93.53488
1.284485,96.615776
1.3799002,98.073265
1.3787241,102.23659
1.3888643,102.786865
1.4263668,102.20324
1.4841993,110.0772
1.4118919,104.25111
1.478312,106.0019
1.4600862,108.243645
1.4738194,110.44842
1.574773,108.68245
1.4149401,109.87974
1.4846244,109.540115
1.4543223,113.39978
1.4716758,109.556335
1.4432621,107.060234
1.3700192,108.1343
1.3221812,109.35851
1.249346,105.16249
1.3866781,106.61225
1.3246284,105.06255
1.1635891,103.99792
1.1434132,102.19552
1.0746759,99.024796
1.1103975,96.03093
1.0368228,95.9634
0.98892206,96.12417
1.0664341,95.32476
1.1081187,90.025116
1.2066016,89.00215
1.0367608,87.91213
1.1011723,86.9445
1.0288379,83.08882
1.0217183,82.777534
1.047176,82.8541
0.94671285,80.036476
0.97989726,76.84872
0.91921115,81.05709
0.8490179,78.40728
0.819986,69.19631
0.81849813,68.799675
0.6878139,69.645004
0.78381884,68.85778
0.5406077,66.24646
0.6003109,64.73139
0.6468517,62.655148
0.48213518,63.911537
0.5115995,58.542423
0.6632843,59.335884
0.61673003,56.695335
0.5317869,54.589493
0.5948134,54.902973
0.60491073,54.172096
0.52379334,55.475143
0.6089589,52.116093
0.5621297,49.114933
0.5420064,50.798817
0.52076507,50.876347
0.36644623,51.59255
0.35201788,48.2441
0.45418617,50.13662
0.29357406,48.70755
0.3126414,48.72855
0.23582198,49.82494
0.31576893,47.995922
0.31435087,54.77046
0.26795238,55.544773
0.29827154,54.90831
0.2526957,53.82527
0.45877364,57.242386
0.48239976,61.562527
0.4718254,63.91503
0.6334148,66.12504
0.81845707,70.60423
0.79266423,76.74783
1.0056095,75.3041
1.0979782,74.16461
1.1730952,82.93165
1.2650954,83.50037
1.2947646,85.53351
1.47648,88.54561
1.4994041,92.51337
1.5896097,90.93501
1.6234426,97.76988
1.6159617,97.699394
1.8069035,101.097694
1.7384052,103.00763
1.6632693,104.79237
1.7776976,106.762436
1.7490784,107.75353
1.8377268,109.81206
1.836064,110.63571
1.7405887,110.56054
1.7543004,108.421555
1.744242,109.74978
1.7917331,110.0571
1.7458364,110.16171
1.6683171,108.133804
1.5938972,108.34856
1.6809669,108.58416
1.5873854,105.93811
1.5999603,104.774345
1.42943,101.474556
1.5048219,101.2725
1.4871179,100.0608
1.5271324,99.51169
1.4337857,100.04783
1.4547822,96.757675
1.2777992,95.3773
1.4021567,92.94851
1.276601,92.126366
1.4754974,88.27295
1.3223251,90.21913
1.4140736,87.87384
1.3663522,85.236244
1.3044325,82.776146
1.195882,83.52175
1.4026399,82.14117
1.2391933,78.978806
1.1834801,75.84247
1.1043265,77.557304
1.166509,73.96921
1.109259,74.61855
1.0203422,66.762054
0.84418833,69.38044
1.0504378,65.85582
1.0345377,64.57093
0.8281619,63.192295
0.72217155,63.736385
0.8304656,62.73836
0.8220442,57.41167
0.75977045,57.80436
