ppg,abp
1.0885217,84.245514
1.0859516,89.33292
1.1940644,93.65204
1.3315307,92.98674
1.4686482,98.142685
1.5174807,100.410805
1.5114728,103.81331
1.5529149,101.45046
1.7021214,105.986916
1.6741145,109.30304
1.653279,112.70327
1.6953462,112.06822
1.7936269,112.56279
1.6978724,114.09605
1.6388482,114.09611
1.6602411,117.487816
1.7492722,112.712845
1.6638409,113.244316
1.6544144,112.36997
1.5883442,113.29806
1.577567,110.57906
1.5203093,109.82763
1.5797167,112.576485
1.4441906,106.20397
1.4973829,110.778534
1.474629,108.19388
1.4032274,106.35758
1.3204116,103.59258
1.3273042,102.06788
1.2670417,102.40396
1.3400487,101.51782
1.2792498,97.64513
1.2554736,96.98851
1.3274153,95.635864
1.4203348,94.42996
1.2495053,91.94871
1.1655141,90.619125
1.2359192,87.9234
1.1687429,87.90311
1.1902639,87.448494
1.0968463,83.16257
1.1050059,84.7605
1.0392065,81.224915
1.0425473,78.392456
0.8941916,78.50396
0.8112535,76.424835
0.89028776,72.16267
0.8998348,74.0975
0.8189713,72.97774
0.8443121,67.40723
0.73716414,69.2148
0.8326509,65.61776
0.8399399,67.06426
0.7515922,66.63567
0.7007248,64.55209
0.8455723,64.33903
0.81394374,62.558796
0.79472077,59.40955
0.6582506,60.034714
0.6072996,57.302547
0.6089374,60.052654
0.6469038,58.910164
0.57308537,62.070404
0.49547434,60.755463
0.5548305,60.5701
0.49504477,62.732136
0.45181823,64.41276
0.49003056,64.24166
0.51999456,67.56276
0.61947584,71.38084
0.6804328,68.472275
0.83950573,72.043274
0.8725221,78.79765
1.0509875,80.141174
1.1254584,84.12791
1.1631733,79.75079
1.3792326,88.36153
1.4720943,87.87711
1.5124401,94.26122
1.5952716,96.00994
1.6663725,101.767006
1.7778381,100.06191
1.7839894,106.11124
1.8160325,108.725624
1.9560572,108.33226
1.9385525,107.639854
1.9228562,108.0554
2.0342884,113.97391
1.9570524,111.324486
1.8964121,112.90504
1.9658965,113.695335
1.9265234,114.27813
1.8032044,115.53524
1.8656068,116.49271
1.7937657,113.171616
1.7257737,110.02991
1.7203435,112.60051
1.7108619,110.08797
1.6482282,108.05701
1.7058226,108.56232
1.5410026,108.13576
1.6714548,106.08029
1.7073956,106.578026
1.5237247,100.882996
1.5569006,103.36599
1.487791,101.77455
1.4930575,101.159935
1.49686,96.04273
1.4630425,94.79929
1.4520558,93.216034
1.4677106,91.11307
1.406896,91.473755
1.4739525,90.336006
1.3317121,87.53346
1.472464,87.83403
1.2918391,84.884094
1.2456801,82.827065
1.2020446,83.63068
1.1394352,81.41741
1.1374534,78.788574
1.1087259,75.41603
0.9753002,76.07344
0.98332804,75.62577
0.94742846,74.74034
0.8859472,69.80984
0.88123417,67.18141
0.99468696,69.06389
0.87447363,71.612656
0.9109843,64.21743
0.91767836,63.22862
0.93255615,63.17824
0.84292704,60.452675
0.8808513,63.380775
0.85341674,60.260307
0.80997276,63.648262
0.6262408,60.116016
0.70441973,61.322647
0.7448926,57.65622
0.644149,57.763603
0.54272455,58.946705
0.56246644,60.804226
0.56903636,62.03133
0.4918275,65.6354
0.5937446,68.53336
0.68545175,69.41838
0.6377868,70.202545
0.74512094,71.511246
0.7972387,75.9344
1.0296844,78.16348
1.0942725,81.09694
1.1432081,84.799416
1.2470721,87.48723
1.383392,90.726
1.5272605,91.45658
1.6058613,93.65949
1.5939635,97.83955
1.6975466,99.55594
1.8355455,102.98934
1.9738818,103.53824
1.9315312,106.450325
1.8553137,106.76271
1.962012,110.930466
1.960704,113.60419
1.9095271,113.81717
1.9363524,111.136505
1.8881439,113.94347
1.9266224,115.454994
1.7728933,113.547585
1.9128218,117.258255
1.8056896,110.87436
1.8489629,114.10836
1.815566,116.007744
1.6637734,112.926
1.659335,110.52504
1.653274,110.57608
1.575703,106.956665
1.6342223,106.92973
1.5277662,105.34494
1.5286043,104.64538
1.4993021,103.673515
1.4731251,99.67671
1.4232999,100.60146
1.4448776,103.495285
1.4264364,99.4264
1.4048036,94.57763
1.3394465,94.79884
1.3901116,93.14382
1.385132,90.9927
1.3907895,91.38122
1.2488852,83.67079
1.3093106,87.97742
1.2030063,85.53937
1.1395779,82.39132
1.1166046,78.918175
0.96650934,81.290306
0.9765349,82.07103
0.8966862,77.48934
0.92856336,77.931206
0.8270983,73.45457
0.8415105,72.85532
0.80715495,72.46679
0.7325021,67.052246
0.81616867,69.16671
0.7812114,67.247665
0.6852519,69.66446
0.81961954,63.589718
0.6271898,63.743095
0.85898405,60.181675
0.7259326,61.104412
0.69589347,60.752064
0.6687404,61.457115
0.5962035,58.398735
0.5920697,59.01591
0.55496234,58.863373
0.46147943,61.28948
0.4113388,60.53782
0.34206122,63.01174
0.36740917,61.909428
0.34664452,63.993275
0.3902607,66.55208
0.43295807,68.710594
0.401108,69.7972
0.6710115,71.44953
0.73221743,76.09726
0.80108994,79.77743
0.8550718,83.86276
0.9338252,82.22559
1.0449768,88.018936
1.2283205,91.1725
1.3067365,91.303696
1.4037737,93.60545
1.3357714,97.12311
1.5748204,100.06554
1.5624886,100.443756
1.6335993,104.5882
1.6734864,104.51554
1.7247268,109.78282
1.7002045,113.43298
1.7093121,108.30374
1.7046903,111.350716
1.6924255,115.89261
1.7428392,109.7152
1.7796551,113.66811
1.5908412,114.015915
1.6108105,118.80433
1.6221654,112.77644
1.5362397,113.04144
1.4859684,113.73991
1.4728938,111.0778
1.4735476,111.27399
1.4107375,109.7487
1.4212703,106.879585
1.4271276,106.77824
1.2693949,105.08261
1.1000034,105.94413
1.2293385,104.56201
1.192124,103.36736
1.0848184,100.34767
1.2123257,98.49886
1.1181965,95.70155
1.1845175,96.11858
1.1609801,96.013824
1.0987858,90.32332
1.0505804,87.781525
1.0078773,87.7044
1.0369037,88.014404
0.9493197,87.6548
0.89814615,83.11941
0.7896625,84.16685
0.68646437,80.98234
0.72590494,77.11521
0.7200565,79.67391
0.55627835,76.21649
0.55610806,74.52734
0.58026063,75.98073
0.43980932,71.45035
0.5501914,70.31881
0.55807346,69.597595
0.59175,67.62188
0.48345816,66.76185
0.5379189,62.68563
0.59254956,64.53068
0.49799258,61.701424
0.5007169,62.390263
0.3982422,58.460403
0.4285459,60.43474
0.36290863,55.99813
0.38281718,58.828922
0.28280118,60.818527
0.19446063,64.26549
0.20451781,61.93315
0.07595576,63.315575
0.098117284,64.261765
0.11251893,65.86789
-0.007015216,69.69613
0.1601008,66.95106
0.2872639,68.822365
0.15905814,71.31426
0.26019558,73.25611
0.4255459,78.917786
0.4921826,82.01478
0.5654875,81.39049
0.72029275,82.575516
0.81432694,86.05141
0.8571884,92.16952
1.0249269,94.75784
1.0408087,95.41301
1.1958042,97.56113
1.2995563,102.04095
1.3706913,100.39553
1.3863493,107.26759
1.3471649,108.85992
1.3273377,109.743126
1.470218,109.95032
1.3977212,112.29227
1.4196666,112.37134
1.4693644,114.22186
1.3492736,113.6978
1.36927,114.42382
1.298188,112.53695
1.3984729,111.29701
1.3158506,113.24953
1.3903128,112.74136
1.3248147,110.1368
1.3214418,113.47673
1.1268309,111.558334
1.1387796,109.18034
1.1633791,105.37297
1.0920374,107.797295
1.0852357,107.388
1.0092542,104.25421
1.0224476,101.27427
0.8984634,102.99429
0.9225705,96.84119
0.9246706,97.05079
0.85269904,95.336205
0.91936636,93.63899
0.86272204,92.751755
0.906248,90.09972
0.8224843,91.318375
0.76900077,91.670715
0.8647259,87.486275
0.66206515,85.53012
0.6085197,82.88354
0.6254691,84.63031
0.6306558,82.10671
0.55892223,80.50159
0.37494832,77.56942
0.37355292,76.266464
0.47163412,77.26493
0.3689495,71.87082
0.29780287,71.7088
0.37832958,71.13094
0.34652624,67.64373
0.3371593,66.16825
0.41726857,68.75147
0.3463788,68.49875
0.3125082,61.38175
0.26048735,63.135956
0.32850888,60.38778
0.26632312,59.70666
0.29554525,62.71858
0.2466177,58.07856
0.17797218,61.525433
0.009313035,55.334003
0.024128724,60.907944
0.013265558,59.933144
-0.06074971,61.769875
-0.052663345,62.092346
0.0010186428,64.244026
-0.03262371,65.552795
-0.04221388,66.02033
0.13265131,71.244804
0.13283922,71.97015
0.17437306,73.50397
0.29261512,75.99018
0.47350156,77.634415
0.5009004,84.980415
0.62859595,84.05452
0.6797316,88.21687
0.84476143,92.36556
1.0053886,90.418724
0.9973486,96.24365
1.136518,100.930244
1.165889,102.12105
1.2613007,107.16404
1.3304503,104.79764
1.2304544,109.52983
1.3812311,109.89751
1.3625724,112.07032
1.3751204,112.967
1.3981245,113.7633
1.3009892,111.95351
1.3384148,113.94217
1.4411852,115.86808
1.2447859,114.760635
1.3206356,111.56803
1.2549739,115.96493
1.2504114,111.95769
1.2073873,110.563515
1.2343434,113.56522
1.224784,110.340294
1.0818715,107.3751
1.0264796,108.8103
1.006977,105.31328
1.0948998,106.15794
0.9074475,104.082794
0.9633097,101.589165
0.94473326,96.55451
0.9608802,97.34975
0.9820056,97.553314
0.797002,96.63576
0.8727152,93.40034
0.8803151,91.37936
0.9118309,90.26757
0.78679514,89.60907
0.77477,87.328804
0.6987748,86.695
0.69090873,84.66688
0.6453515,85.18782
0.6297011,84.00669
0.5744072,81.13429
0.45733207,78.61327
0.5344465,77.854095
0.41539052,72.81533
0.45298764,71.99477
0.40751982,75.09059
0.378824,67.101074
0.42351,68.03227
0.37817186,70.49382
0.41703227,66.99881
0.36149368,65.08066
0.4473048,65.44805
0.36981001,62.924347
0.35585442,61.19242
0.24214166,64.49258
0.3723118,60.047073
0.29748574,61.041218
0.28041223,60.812675
0.19615656,61.10728
0.17636473,59.211773
0.15701583,60.290966
0.028907036,61.71535
0.08092927,61.74373
0.06272953,59.91773
0.078990154,65.98698
0.19466555,65.89996
0.23450534,65.08853
0.14166284,68.92942
0.28470525,71.95383
0.27575007,75.161
0.48795676,78.55444
0.5613002,80.10562
0.65754735,81.60759
0.75145745,88.01479
0.9531924,91.98244
1.0349307,91.33864
1.1279024,92.555664
1.246634,95.472336
1.2923762,100.004684
1.3369303,103.43176
1.5005757,105.56102
1.496426,106.66907
1.452978,108.51192
1.5459566,112.0434
1.5696892,112.67166
1.5296971,112.16436
1.5771024,112.1981
1.4695742,112.52507
1.5492891,115.25019
1.441435,113.03821
1.4827788,113.38259
1.4951178,114.799
1.4706508,113.99352
1.4746029,111.2886
1.4142209,110.96612
1.4271806,111.59187
1.3214405,107.4668
1.3052119,106.249825
1.3286822,107.10157
1.1870335,106.70693
1.1883396,107.42145
1.2249727,104.29799
1.1547154,99.54212
1.150846,99.38671
1.1280257,99.90486
1.1209823,98.478004
1.089471,96.60895
1.1154195,95.052734
1.092771,90.53739
1.0270975,89.30328
1.0847042,88.467606
1.0754403,87.09354
0.9733374,87.09456
0.9315083,84.52048
0.88100415,84.715485
0.9089778,80.25374
0.7899558,78.99411
0.7909392,77.968094
0.7880113,75.75503
0.684904,76.314354
0.6510329,74.03659
0.6364757,73.851585
0.5804847,71.11228
0.62521005,69.35002
0.6467391,70.45993
0.6861017,68.48945
0.65013087,68.01676
0.6695474,63.3312
0.6551786,62.833603
0.6516079,64.44682
0.5411442,62.469196
0.6185992,61.05523
0.55089855,59.57415
0.47378466,62.15472
0.49771577,61.099148
0.35030377,60.0187
0.30928916,58.28725
0.3534561,59.980404
0.30349478,64.50929
0.3148506,63.58106
0.33694288,64.99033
0.2909473,65.21848
0.55940604,68.29577
0.4084412,71.848495
0.6758693,76.49169
0.62371653,78.24423
0.76001763,80.5813
0.9020523,82.371414
1.0236349,89.15543
1.1329373,85.670265
1.267385,89.31217
1.3669612,92.23855
1.2928864,94.21787
1.5387949,97.27219
1.6225606,101.017426
1.6679311,101.42043
1.7609621,101.75941
1.738246,107.64144
1.7766377,110.66138
1.7741795,109.48364
1.7528322,108.22946
1.8069346,109.5674
1.781203,113.19019
1.7695196,117.40576
1.8748966,112.976204
1.7346089,115.47153
1.7885302,113.390396
1.6991402,112.800514
1.724034,111.55862
1.5751451,112.75804
1.6324389,111.77106
1.622339,110.09606
1.5308397,110.8225
1.5660766,106.84132
1.5161816,106.75199
1.5729764,108.67578
1.4388105,106.42356
1.4112732,101.127686
1.433248,97.98674
1.3788658,100.48723
1.453419,97.30614
1.4396526,97.129036
1.3872826,97.02482
1.3929746,93.161995
1.4599696,92.66202
1.3870765,92.11525
1.4006993,91.032364
1.269551,87.591255
1.2708361,84.90539
1.2018261,85.25934
1.2106304,83.622246
1.0290622,81.09108
1.0899457,80.51379
0.9858123,80.1904
0.93272793,75.77945
0.8984578,75.74415
0.92284316,73.88788
0.7844743,72.37538
0.88565755,73.57926
0.8971471,69.61796
0.7599666,64.90021
0.89079183,64.08701
0.8558291,66.59344
0.8320952,64.75411
0.901659,61.382854
0.8967806,60.85882
0.9094736,62.180416
0.91713685,60.88524
0.6626127,58.392902
0.76376784,60.251633
0.62534595,58.94937
0.6484395,56.401993
0.6172189,61.535866
0.5906918,64.98836
0.5330387,63.19666
0.5650521,64.28983
0.5364994,64.75119
0.54960585,68.306046
0.6003082,67.4356
0.7021528,71.35754
0.8656158,72.839584
0.8827925,72.92199
1.020094,77.51699
1.0950994,81.97516
1.2267015,86.616005
1.3048481,86.07141
1.550362,85.83801
1.5346981,91.49647
1.527096,95.60964
1.7259017,98.53595
1.8644342,102.942406
1.8114992,101.335724
1.8175173,104.31406
1.8933954,109.14216
1.9376038,110.345116
1.9401922,112.553055
1.9317216,110.428406
1.9023511,112.73988
1.8033152,108.22003
2.0033724,115.843636
1.9110961,114.4158
1.973571,116.93465
1.9774507,115.88133
1.852538,112.654396
1.8990942,113.86139
1.797494,113.65427
1.7675856,115.41613
1.6888161,107.35229
1.6882911,107.24312
1.6496364,110.38218
1.604703,111.60397
1.6442213,103.93296
1.6882722,105.99761
1.611299,103.9079
1.5681468,101.39896
1.5663428,100.8483
1.5389119,98.98734
1.5406265,95.12416
1.5257585,93.53287
1.5243896,90.39563
1.4664872,92.80972
1.3686486,94.147125
1.4183829,92.462906
1.4618294,83.90865
1.3207635,83.27614
1.2241557,84.338295
1.1866922,82.80149
1.2058533,80.950935
1.1376381,79.68796
1.0238585,77.7717
0.96433306,76.88425
0.8915141,74.38507
1.0613185,76.08919
1.007377,68.51097
0.92822134,72.12563
0.8618444,71.99477
0.9418911,71.06645
0.91405296,66.21596
0.8545964,63.098152
0.87848836,62.485886
0.8939969,60.85591
0.9245236,60.20659
0.8059276,58.90301
0.7790855,59.09743
0.70571125,62.106255
0.689325,57.49272
0.6269596,58.783527
0.5370838,61.444088
0.6024134,61.1606
0.56060183,63.492897
0.5245413,62.979443
0.5653951,64.34028
0.5195735,66.229416
0.51179516,66.15181
0.58985156,69.116234
0.6664428,71.700325
0.804932,75.20367
0.8291108,77.205605
0.9845615,81.17976
1.100405,82.86379
1.2302829,87.19936
1.3356806,87.64745
1.4275937,89.497635
1.4917551,92.20574
1.5206419,93.86943
1.6383305,97.68691
1.5756001,105.21005
1.7258871,105.06566
1.7727212,103.825645
1.8552431,106.09124
1.8678647,111.93532
1.9714805,111.80392
1.8009751,113.45276
1.9243368,112.19648
1.9111384,112.78395
1.8792255,115.36348
1.7874221,114.802605
1.8416402,113.62622
1.8247031,114.094284
1.8080153,115.071075
1.6168058,113.967964
1.6659833,113.20852
1.6132027,111.185196
1.5722165,110.9464
1.5685456,110.63333
1.5188885,108.34812
1.5011295,108.01412
1.3177335,103.184235
1.4280356,102.54421
1.4622104,103.123726
1.4098884,99.983444
1.3437765,98.21257
1.327622,97.13944
1.2816395,95.42399
1.3366451,97.16812
1.297656,94.71499
1.0665302,92.47826
1.1878611,89.74349
1.2395427,89.92498
1.1362205,88.44701
1.1395398,88.08075
1.140035,81.25927
0.99123156,82.855576
0.84956497,80.57471
0.86766946,78.105095
0.8709163,76.59043
0.86204535,77.35191
0.7040263,74.74015
0.75997066,72.32355
0.704619,71.27554
0.73420924,68.13635
0.6323801,67.043274
0.66713005,68.3242
0.67694974,66.4136
0.6812665,65.870384
0.62908065,62.71613
0.6118223,60.06215
0.67669314,62.556187
0.60305625,64.16534
0.5606672,63.427715
0.48732123,62.885624
0.47606122,60.962605
0.31164306,59.27351
0.3223179,59.801952
0.29184908,63.58013
0.18716262,61.756443
0.21908763,62.861366
0.24732673,66.20641
0.31008425,67.83509
0.3124989,65.42731
0.3571433,66.20212
0.4889282,73.05378
0.5803526,76.238655
0.638944,77.78968
0.82854855,81.37783
0.73501,83.41031
0.9713298,86.36434
1.0699697,92.050735
1.1654043,88.99279
1.2389657,94.89398
1.2598734,98.559875
1.3923311,98.456375
1.4502392,98.08479
1.500049,104.290085
1.5533092,105.5785
1.5041833,106.12943
1.6458856,111.98575
1.5908501,112.14589
1.5220275,114.34363
1.5709877,115.28268
1.5557133,112.42482
1.5811832,116.13016
1.576752,111.2733
1.5211964,114.71796
1.448384,113.46157
1.3745452,114.74413
1.4868761,110.4715
1.395594,111.411865
1.2655821,109.04898
1.3372093,109.952934
1.2372754,109.570885
1.2070968,109.61848
1.3096277,105.05498
1.1416272,105.479485
1.2414327,104.78168
1.1551875,100.835686
1.0273637,101.11989
1.0616281,99.563255
1.1121166,97.594185
1.0886989,94.45673
1.0912524,92.030426
1.0539603,93.50673
1.0213199,86.51936
0.9368733,88.237564
0.90926373,87.840065
0.89203405,84.21884
0.81803644,87.027695
0.7904918,84.45338
0.69115925,81.956604
0.5871041,81.265175
0.56669325,80.1013
0.54970324,77.57866
0.48686334,76.179146
0.4432037,75.44099
0.45633796,74.0619
0.50826824,71.579956
0.35294577,70.83102
0.404643,67.582726
0.4052257,62.107494
0.44938782,64.82961
0.3821686,62.939907
0.40242156,61.641434
0.4576767,64.14636
0.26413837,62.95031
0.2971545,64.06318
0.20473135,62.212185
0.12005313,57.653244
0.11007488,60.832714
0.12493505,58.39009
0.12083795,60.20668
0.16176705,63.769405
0.030024534,64.80951
-0.037010316,63.46218
-0.0026778684,65.34731
0.038885195,68.508125
0.066315606,66.67594
0.22918198,71.930954
0.27482358,74.46515
0.4070598,75.10667
0.42505777,79.47287
0.51651096,80.5979
0.6086342,84.02224
0.7754222,87.846756
0.80210465,89.96938
0.8994626,92.525024
1.0308613,97.23676
1.1618267,94.53932
1.2105722,100.09657
1.2731282,100.7537
1.2957164,106.911255
1.2142731,104.32433
1.5061209,110.82265
1.4549738,108.017586
1.3467839,114.68579
1.4297309,111.945015
1.4034605,112.60821
1.3592846,115.84153
1.320166,114.760056
1.3214185,115.094604
1.3002607,115.5936
1.3278453,113.274994
1.2233021,115.09571
1.2870555,112.549675
1.0495291,113.36154
1.1546092,110.052086
1.1020651,111.43272
1.128115,109.18446
1.0425826,106.65308
1.0061321,108.5526
0.9402856,103.491295
0.97333294,101.264366
0.9708305,102.71091
0.94379604,99.47798
0.9345329,100.24549
0.95522267,98.31248
0.86053956,91.775475
0.88881403,94.64033
0.8565088,91.11315
0.77207583,89.278206
0.81478107,88.85419
0.8185805,90.98339
0.7549327,83.66064
0.7568343,86.00239
0.58294034,83.49561
0.6434787,79.97211
0.52609533,81.02175
0.48027486,77.00527
0.38390335,78.299286
0.38226393,73.98967
0.38181573,71.792076
0.35781658,70.52533
0.27814803,72.79286
0.391989,70.549965
0.32161105,65.41666
0.3451777,67.48333
0.25624147,64.65147
0.23026122,65.64875
0.31286517,60.627533
0.24156363,62.852722
0.21637559,64.24614
0.16175848,61.92638
0.1751273,61.154106
0.18536684,61.49714
0.0977381,60.548233
0.045135092,58.784336
-0.017801108,61.826897
-0.0034365184,62.19817
0.030239394,64.9892
0.0027464128,67.34156
-0.12022189,66.456245
0.04498627,68.10793
0.0435134,71.88425
0.14217828,68.76991
0.15657507,74.76287
0.3878781,76.18717
0.46967494,78.08054
0.5402789,82.22538
0.6717837,83.732086
0.7649223,87.43197
0.79303885,92.06336
0.9781029,91.598785
1.1229522,94.54313
1.0831072,98.48078
1.2105706,96.77723
1.2549318,100.49736
1.3000528,104.98309
1.4091482,108.37043
1.3794932,109.20605
1.434141,108.455956
1.4387912,109.55391
1.4006022,114.464005
1.3981524,115.69174
1.3600031,116.134415
1.3437783,115.11599
1.387011,112.670944
1.3375928,114.564384
1.4150512,115.33378
1.2560147,114.28679
1.2576236,111.57935
1.1640207,109.351295
1.096201,113.34783
1.2498616,112.80935
1.1581782,104.88271
1.0055674,110.972824
1.1048533,104.71142
1.0458931,102.63357
1.0820178,101.59884
1.0591629,100.88638
1.0255481,100.19823
0.91236454,99.18677
1.003324,96.1961
0.9837626,95.05792
0.9765048,92.14359
1.0433111,90.74179
0.86192447,92.47657
0.89348996,88.79603
0.88581383,83.10224
0.88647145,86.74228
0.7534043,83.17507
0.68131274,84.67942
0.6946956,80.34928
0.56535774,81.07825
0.61932737,77.229454
0.58552307,77.31445
0.44991186,76.88563
0.4947139,73.02583
0.4395394,71.59753
0.45701954,69.03629
0.48077026,67.55699
0.41598994,64.57641
0.5510218,64.6127
0.46587855,63.32733
0.42757335,61.684547
0.42436802,60.822533
0.4673771,64.533585
0.46487156,60.913994
0.43102944,58.883316
0.31784424,58.81751
0.26356843,60.610382
0.2487921,59.099186
0.22885075,62.22409
0.14909418,59.16789
0.1772431,60.633945
0.03191324,62.928745
0.14050747,61.05851
0.18350466,65.66147
0.32273635,69.850685
0.29747975,69.953545
0.2564628,72.15266
0.4468131,74.85083
0.62400323,77.27751
0.7211399,76.879456
0.8257925,80.3559
0.9435728,88.16129
1.1137019,86.51334
1.0869592,90.14187
1.2006146,90.20585
1.405117,93.8825
1.4507326,97.78286
1.4710134,101.28405
1.4328774,102.631294
1.4538684,106.554924
1.5658422,106.97979
1.5779911,111.780106
1.6993577,111.64035
1.5830951,109.27322
1.7074137,111.010605
1.6309069,117.61871
1.6787347,112.14715
1.5761069,112.42493
1.6786401,115.447876
1.6226947,113.024826
1.5947366,113.98596
1.5341653,114.2393
1.506535,113.20562
1.4193345,113.33738
1.550942,111.16098
1.4257665,107.88775
1.3572152,107.16866
1.4367115,108.202
1.2734088,102.83727
1.2698684,103.91486
1.3141551,101.48211
1.2685245,99.58836
1.2715298,100.87249
1.2297069,98.78688
1.2922513,96.50965
1.2176001,95.318855
1.320091,91.874016
1.2085186,91.54649
1.2465785,88.71252
1.1500634,87.19716
1.0870483,86.42997
1.0669521,86.00648
1.0544807,80.28055
1.050467,82.766655
0.8572741,78.65127
0.9292456,79.47486
0.8835617,79.28578
0.8167874,77.72165
0.84776366,75.97592
0.7569389,74.24281
0.74381465,67.99324
0.736337,69.389244
0.7762535,70.38818
0.73809695,68.63048
0.83049804,67.6859
0.68081725,66.415794
0.7720854,60.837105
0.6863957,61.09034
0.6639963,60.60892
0.6090221,60.364796
0.6037794,58.889393
0.6346135,60.237457
0.6794821,60.505627
0.45167133,59.6394
0.38859442,61.19026
0.4820907,60.44136
0.45433107,63.038586
0.40062776,66.03976
0.43578964,68.01836
0.46322197,66.68546
0.48102054,68.127304
0.5930351,70.49633
0.7188901,69.537445
0.6864983,74.48175
0.9296612,75.77869
0.96394557,80.06273
1.1619252,84.48786
1.1841209,85.5198
1.3031406,86.42965
1.4510562,91.8943
1.4818345,94.85936
1.6012146,94.05249
1.6830347,99.62228
1.7137165,100.31015
1.8270127,103.65236
1.8378663,106.49922
1.8909465,104.122406
1.8358608,107.848434
1.8983929,110.00421
1.9225874,112.01175
1.9909377,110.840294
1.8844877,116.0784
1.8475477,116.528564
1.8638322,114.35423
1.9154881,116.371635
1.8269179,115.01644
1.8900758,116.23042
1.7412335,115.304886
1.7673777,109.15401
1.6451583,109.0635
1.6671636,108.572
1.627513,109.62149
1.6200477,104.72074
1.5393007,107.85376
1.543204,106.00727
1.467688,103.53175
1.5968866,102.60766
1.4793328,98.80127
1.4782722,95.372154
1.4893578,99.31645
1.4655039,97.306244
1.4191194,97.25938
1.4725752,93.56165
1.4290746,90.71944
1.3444537,88.30522
1.3117527,90.49517
1.2911191,88.13577
1.2890682,83.74155
1.2130963,84.452614
1.1259824,79.966736
1.1308082,81.85682
1.0663278,80.19042
1.0144527,74.32503
1.0077757,73.07409
0.8944758,73.215576
1.034856,72.80752
0.99218714,73.55705
0.9757855,69.90942
0.8913073,68.513626
0.98741245,68.774445
0.8480748,66.00333
0.8989842,65.66958
0.92722183,60.749126
0.8115206,63.045
0.83789855,61.925896
0.7612193,63.094482
0.7699827,60.483723
0.7890495,61.317024
0.7412649,59.45578
0.5837531,63.23238
0.5787374,58.18077
0.6000727,62.426197
0.621784,64.32973
0.6060025,68.78416
0.55611897,63.555298
0.6323134,63.971493
0.6634396,67.45596
0.7646909,69.90057
0.7601377,73.62039
0.8155912,75.30836
1.0323665,80.20182
1.1149172,82.86983
1.2180222,84.81333
1.2782568,84.55147
1.3880614,87.7398
1.5198258,87.82477
1.591883,95.95902
1.7579736,97.063614
1.7075225,99.12699
1.7960621,99.8057
1.8658476,103.0866
1.8240149,104.643456
1.9332658,107.377075
1.9717696,109.01984
1.9545884,112.353195
1.9492172,110.782585
1.9311858,114.692245
2.085706,114.6684
1.8972782,113.436516
1.8856062,114.60862
1.9598821,115.45106
1.8354015,116.47595
1.8031,113.3162
1.7926817,113.36546
1.7511772,111.036064
1.7145144,107.709114
1.7093083,107.96589
1.6986467,110.95036
1.592111,104.974846
1.5794052,109.43883
1.4993434,104.28277
1.4957957,104.817406
1.4735051,101.67036
1.4223493,100.54233
1.5082711,95.835556
1.4289018,93.97565
1.4749537,94.827324
1.3597994,94.29151
1.4001789,92.97049
1.3215507,88.58445
1.4027623,89.078026
1.3160876,87.16944
1.2877002,88.14554
1.2030934,81.770905
1.1161785,82.003716
1.1153709,84.31662
1.0569437,79.18263
1.0427516,76.98222
0.96519274,79.3687
0.9584361,77.65181
0.90310186,72.285065
0.92923695,70.267624
0.77437395,69.98773
0.93278086,69.72947
0.81322485,71.79486
0.9148943,66.43701
0.8410008,65.430885
0.7838917,64.993
0.85121727,61.32666
0.7906525,62.450035
0.6731204,63.136032
0.677527,61.62905
0.7201091,60.52893
0.4639486,61.100132
0.6295332,64.0005
0.5465791,60.58733
0.56869763,61.40586
0.37162372,62.325954
0.41004708,62.4905
0.40549576,63.65847
0.34461913,64.52459
0.4719379,65.97947
0.53068066,68.251144
0.5443241,72.811844
0.68219084,77.29446
0.7463275,74.708885
0.8396665,77.96356
0.8561193,79.76215
0.99579114,83.517494
1.1068298,87.11535
1.2078893,92.83998
1.3530604,91.14009
1.4616925,98.484
1.5202221,94.65227
1.6593809,102.31172
1.640216,101.37903
1.6954397,107.24616
1.7265517,108.215034
1.7726644,111.47766
1.7781692,109.91848
1.8173225,109.3533
1.8044181,114.21948
1.8491468,112.658295
1.6717219,113.33598
1.7845585,116.02393
1.6722032,114.47253
1.6204926,112.66824
1.7206689,113.18217
1.5724245,115.954704
1.5372998,111.96367
1.5153849,111.78722
1.4811218,109.50053
1.4197528,110.35578
1.46755,109.20628
1.4285426,105.515434
1.3863865,107.09081
1.3390802,104.45964
1.3828019,105.26768
1.2740803,101.89797
1.3707978,100.52869
1.2540373,97.0983
1.1712552,97.5465
1.2077847,92.81924
1.2294449,96.80038
1.056062,91.614075
1.104019,90.58559
1.1100904,88.49047
0.9774507,88.75784
0.95178896,88.222534
0.93421614,83.13605
0.9994508,83.571754
0.78370553,79.59289
0.7575275,79.79505
0.69857275,78.072464
0.6783825,72.574104
0.6144804,74.36047
0.60489476,74.11469
0.6385039,71.68371
0.514412,71.15457
0.59757566,71.833626
0.58443844,68.22344
0.5858291,67.31446
0.5673665,65.5103
0.58467865,66.41915
0.5173376,63.105373
0.4545483,62.41719
0.4726927,63.47954
0.4023116,61.276863
0.29840505,61.55858
0.33643278,61.019466
0.31967473,60.279594
0.22872123,60.71402
0.124586076,64.49078
0.18624856,60.58682
0.17128804,65.99045
0.18886036,65.48266
0.17409144,66.575264
0.19314495,70.031334
0.30434003,70.050385
0.32638967,72.027664
0.4635481,74.23898
0.55451566,78.814606
0.6309992,79.95398
0.79537666,80.917465
0.8212622,84.388374
0.8229002,86.31462
1.0658276,93.726135
1.0831989,91.97727
1.137902,96.98012
1.2649196,98.51721
1.3065536,102.131096
1.445086,100.819954
1.4665157,107.21757
1.5136442,107.38465
1.4456128,109.79685
1.5164344,111.08366
1.4510356,113.21637
1.4708391,111.87048
1.540537,110.78744
1.437693,115.20471
1.3885788,112.00847
1.3959008,115.76393
1.3683288,112.122375
1.3561041,113.79567
1.3969514,114.07821
1.329526,113.22671
1.2860038,112.56563
1.2654554,109.26867
1.2056642,107.97131
1.271885,108.52261
1.0452842,108.24067
1.0484117,103.4495
1.1111835,100.54753
0.9774636,100.962425
0.9353559,99.86532
1.0344523,98.842804
0.9897109,98.09734
0.9675376,97.35927
1.0283458,92.13252
0.8510217,89.43816
0.9168853,97.004745
0.85201246,92.66953
0.888869,91.101204
0.77423817,88.54176
0.6414693,87.06292
0.56024367,85.03977
0.5781805,83.12229
0.6418831,80.63339
0.5599048,80.756645
0.5826953,77.138435
0.49426743,75.19303
0.38360617,76.20205
0.46006715,70.26073
0.36359164,75.4792
0.26383686,69.79564
0.43370724,67.886955
0.36656135,66.35356
0.35448098,68.53057
0.42205828,68.19498
0.37610698,63.272766
0.33910468,62.123524
0.2873893,60.03502
0.23549727,62.918877
0.27777714,61.004578
0.28815702,60.53071
0.0898591,60.517082
0.029527597,60.627148
0.03523628,63.01524
-0.030307295,62.941494
-0.053859454,59.73376
0.022959528,63.99845
-0.07855477,62.99316
-0.041512884,63.973145
-0.013689226,69.51719
0.06403211,72.363495
0.16960557,72.002975
0.2574176,75.490875
0.3803257,77.72872
0.3398304,78.19763
0.50745076,81.12634
0.7431437,84.49481
0.764497,86.73952
0.85090804,92.86504
0.94577426,93.58047
1.0782347,97.487816
1.248024,98.57465
1.2164553,98.87327
1.250128,104.55183
1.2587254,106.44352
1.361042,109.240845
1.3684245,111.231926
1.3533525,110.11624
1.3081608,109.07596
1.341149,113.89455
1.3724049,110.90729
1.3380558,112.27243
1.4060584,112.49573
1.3347749,111.19389
1.3160739,113.40988
1.2074816,113.26652
1.187922,111.840576
1.1559763,113.760826
1.1563519,112.81574
1.1701714,109.91667
0.9779492,106.966034
1.0125417,111.32638
0.99907666,109.00508
1.0631771,102.818085
1.0552324,101.706985
0.92667013,101.49429
0.9017406,99.799774
0.91773087,97.25085
0.9365454,95.29053
0.9769055,95.92326
0.8365202,92.82693
0.8242781,90.50947
0.87068343,94.12851
0.8364039,89.25015
0.7498189,87.06966
0.70348555,83.44401
0.63424873,86.48355
0.65087974,82.44066
0.6136597,82.86337
0.50199354,79.3304
0.5333536,76.28947
0.5601875,79.60325
0.4440308,74.28004
0.48912928,73.673096
0.34238806,68.650986
0.40003094,69.554146
0.34134257,71.69797
0.3145111,67.505264
0.35300565,63.972782
0.3500887,63.349632
0.28555152,66.94485
0.3920454,64.18658
0.39757505,63.721252
0.28213018,61.889362
0.2914433,58.988735
0.2638076,61.89429
0.1861107,60.01073
0.11756855,59.546043
0.15730475,58.449413
0.15066215,60.440277
0.0030549606,62.94305
0.016760718,62.13328
-0.047683325,64.40433
0.080103464,64.963646
0.055629972,65.85782
0.141007,68.63017
0.18602976,71.93186
0.29489604,70.608505
0.29836202,76.01369
0.44231486,77.70249
0.5804123,81.71609
0.655763,85.6925
0.8713962,85.80038
0.87317604,89.49262
0.98611987,89.16835
1.0578036,92.543785
1.2356783,96.310745
1.2914715,100.6774
1.3351818,103.63227
1.4554598,104.007576
1.4393445,106.13422
1.3966111,107.47
1.4454072,109.45686
1.4604719,109.98273
1.5154732,111.30781
1.4902276,111.18478
1.562725,113.97141
1.4827012,116.52882
1.4951298,116.87336
1.4758468,116.35042
1.3807031,113.34594
1.4265834,111.024666
1.5692891,113.77121
1.3741742,110.806046
1.3164512,111.62626
1.3181587,113.17102
1.1600182,109.3678
1.2415303,107.08766
1.193603,106.67554
1.1978402,106.02097
1.2055732,103.60962
1.0450128,101.407486
1.1594504,99.42767
1.1988053,98.615135
1.1219883,96.92026
1.1420691,97.56597
1.0298849,94.98151
1.0744511,91.334984
0.96456194,90.142334
1.060783,88.116
0.8899365,88.629524
1.0967579,87.23461
0.91859055,82.60235
0.88291043,83.191864
0.8306926,82.262566
0.7903403,80.78146
0.67130244,77.76826
0.66841567,77.865395
0.5684419,75.148636
0.59443235,72.42094
0.68881327,69.09489
0.5892057,70.59797
0.6136916,68.22241
0.5780662,68.690186
0.7259294,67.26631
0.6515831,64.54645
0.6088545,61.952286
0.5909597,63.913113
0.47110486,65.74455
0.5948039,60.660206
0.44949606,60.557117
0.4757682,59.253563
0.47073504,62.944668
0.46521023,60.989708
0.3802137,63.92385
0.33049467,59.993618
0.2592419,61.32586
0.2266601,60.560284
0.35554206,64.60308
0.27473184,68.46596
0.31170243,66.95505
0.2365264,68.6145
0.38750044,73.01682
0.5600895,74.745094
0.64529353,76.60018
0.7191021,79.802536
0.8497385,81.322945
0.93101835,85.991806
1.0779357,87.431694
1.2025046,92.00618
1.2899512,92.276115
1.3844153,94.871544
1.50258,98.20724
1.5832996,99.13592
1.621,103.77914
1.5326903,105.09063
1.7347727,106.87752
1.8061754,109.40977
1.8239874,109.477875
1.8220885,108.84403
1.7764792,115.19571
1.8047959,115.12521
1.7796109,114.419395
1.7713438,112.19122
1.720461,113.377754
1.7369382,114.77136
1.7479447,110.24811
1.7218528,112.3287
1.6756005,111.567024
1.6380187,111.84547
1.6421183,111.19811
1.5208397,108.223434
1.4691864,109.839
1.5201756,107.93009
1.3849027,104.99305
1.4799694,102.84045
1.3822147,104.45183
1.3001388,101.06576
1.3340977,98.27827
1.381443,98.89748
1.3071707,97.03912
1.3838359,95.323784
1.3191828,93.72274
1.3312414,89.412766
1.2618499,88.64583
1.2306991,89.0661
1.2250385,86.5276
1.1354929,86.86808
1.2077907,83.711426
1.147261,85.72832
1.0496416,82.42553
1.0523039,80.19258
0.9900749,75.46941
0.91466844,77.10945
0.94617474,74.96289
1.0463349,73.24704
0.8518293,70.25003
0.8588278,67.5958
0.8721614,68.527855
0.9341429,66.693375
0.8983642,67.991554
0.8933131,63.95977
0.79432124,63.739197
0.89168787,61.81885
0.7844036,62.3918
0.77154785,60.299202
0.83889467,57.871357
0.6553402,59.1976
0.6125463,63.78951
0.66908145,59.773884
0.5913874,62.115917
0.46473104,60.94995
0.46821505,62.203827
0.5110577,61.51795
0.49303696,62.460316
0.63388056,64.90217
0.591317,68.43562
0.6231186,71.81636
0.66564715,74.313484
0.76682633,73.73162
0.9187751,77.07786
0.868746,79.92934
1.1157062,77.52437
1.2138611,85.58813
1.3047969,87.727554
1.4038103,89.335495
1.5158167,92.68048
1.6467453,93.98639
1.6626047,96.48159
1.7604134,100.32124
1.8548174,103.15985
1.8714318,103.67881
1.8780391,109.02668
1.9792222,111.90416
1.9436197,110.82358
1.9792697,112.74331
1.8840958,112.64897
1.980439,113.29582
1.9574181,115.72307
1.898502,113.49883
1.9742389,113.70175
1.9394658,114.503296
1.8062273,113.756615
1.9200464,113.4076
1.8074739,111.24535
1.7027694,114.15534
1.73189,108.68676
1.6631621,108.13625
1.6454678,106.251144
1.660915,102.06677
1.6728199,103.41535
1.5646819,104.86786
1.5817208,101.32437
1.4684416,101.12024
1.5478803,97.40783
1.5187633,95.46963
1.5180016,95.962265
1.4790307,93.96066
1.4070086,92.00669
1.4384887,94.52241
1.4407245,91.55402
1.4066144,86.99541
1.3502204,90.107506
1.2690991,83.154686
1.2236334,85.82021
1.1794639,81.03556
1.167178,79.192955
1.1081158,81.28448
0.9645331,78.88823
1.0634248,74.78558
0.96623486,77.02159
0.9511798,72.356865
0.9538275,74.0301
1.0049907,71.50118
1.0321156,69.48052
1.0193794,68.496155
0.9681001,68.12643
0.98654526,63.72742
0.9848399,61.16533
0.85217124,62.987774
0.9272083,63.048737
0.80362046,60.06327
0.7936286,60.44753
0.73103106,58.89657
0.68660116,62.00511
0.6669352,59.993855
0.5645336,61.10562
0.59583706,63.111507
0.6101665,62.061504
0.5874234,62.04569
0.55945164,63.732048
0.64606786,65.87215
0.6161557,69.30314
0.70014244,67.9752
0.7793283,75.13494
0.8636921,77.56139
0.8675193,78.667114
1.011299,79.67175
1.1437918,82.82559
1.2234862,82.92118
1.283355,88.783134
1.5023035,90.087425
1.586565,91.615486
1.6434506,93.68677
1.6246339,100.928635
1.7372121,102.78171
1.7894179,103.1157
1.7858503,106.031494
1.8265475,106.20293
1.9515566,109.80114
1.9660819,111.37342
1.8297101,109.71258
1.9373434,115.40791
1.9201953,111.89966
1.8215714,115.83929
1.8032222,114.30737
1.8927628,113.90844
1.7988293,112.56756
1.7864411,114.635605
1.7390199,114.17502
1.6271718,109.92059
1.6688746,110.09874
1.6390673,109.19425
1.5982516,107.696754
1.5888864,109.2962
1.621559,106.25913
1.4920499,104.203255
1.4968091,104.540344
1.4162359,102.28934
1.3713194,103.374084
1.4390217,101.075264
1.4332211,97.739845
1.3089122,93.00801
1.264629,91.327324
1.3834622,92.18011
1.2759942,91.55918
1.3851699,87.9315
1.3305066,88.70165
1.1904131,86.0026
1.1586932,87.906395
1.011195,82.515396
1.0077211,84.97561
0.9307789,82.91417
0.8454533,76.729225
0.80957496,77.69816
0.8560174,77.00664
0.85173446,74.54325
0.82834035,71.09475
0.735539,73.974815
0.7836628,69.387726
0.77776176,69.456474
0.7661425,69.396194
0.8027962,66.26673
0.68720025,66.00457
0.68323696,64.7114
0.6566919,63.76312
0.7122621,63.940155
0.6733988,58.88851
0.55250806,61.876972
0.56204027,59.82699
0.4043424,62.263287
0.39498892,63.18491
0.3449752,61.13135
0.35315374,60.85545
0.3130005,60.54107
0.29775617,63.684925
0.3167562,65.25086
0.38195357,67.64194
0.4105651,70.80758
0.3841845,72.317314
0.5700488,74.08128
0.58621675,77.663734
0.7741759,73.998795
0.7618926,80.960236
0.9278494,81.70002
0.99907184,86.975914
1.1562326,87.40854
1.2001877,92.68128
1.2271904,94.31114
1.3531122,95.985176
1.5465899,101.11812
1.3932624,101.29667
1.5423839,102.22918
1.5015225,106.701195
1.5863538,105.43455
1.683304,111.60827
1.6345373,111.60775
1.6242518,112.28355
1.6127678,113.43398
1.628476,113.06313
1.652199,115.247475
1.6153132,114.27622
1.6187482,111.106026
1.5781308,114.74447
1.4472855,113.85387
1.5731788,113.95248
1.5551323,110.39641
1.4194902,110.29328
1.3332301,110.53366
1.2826923,109.87827
1.2884537,108.0025
1.2504754,104.46337
1.2424378,102.56881
1.1331794,99.59999
1.1901274,104.14711
1.1711403,98.342766
1.1174026,99.25654
1.0131471,97.05273
1.0867733,94.182076
1.0548236,92.597916
1.1012918,92.89921
0.9444236,90.592285
0.9707829,89.54811
0.96110374,83.90125
0.8952327,88.6376
0.8079827,83.83892
0.7847978,81.59781
0.7172288,82.83602
0.75060046,79.4667
0.6723495,77.42345
0.67662954,74.21934
0.59143716,75.77724
0.6116641,73.93883
0.5334312,72.50519
0.57983035,71.4371
0.510799,71.068726
0.45579824,71.27423
0.51581657,66.85432
0.51087236,65.071556
0.41244513,65.48977
0.3489802,64.37673
0.3558228,62.384506
0.4501884,62.170357
0.31040558,61.189426
0.2388147,59.475838
0.20442766,61.62412
0.16562924,59.49067
0.1254537,59.993347
0.119468465,62.256428
0.14277856,62.239143
-0.020974401,63.24724
0.011132243,64.84008
0.0103136515,67.46298
0.14075904,67.33359
0.11900592,70.860756
0.30058274,71.38805
0.29911217,73.50804
0.41033375,73.80608
0.469541,78.958885
0.64196587,83.12855
0.7050904,80.010864
0.72943336,85.868546
0.924192,86.0383
0.9711199,88.480385
1.0661854,95.24062
1.1492436,98.776146
1.2956648,101.557014
1.252735,100.006996
1.35667,101.17388
1.296377,105.52361
1.3410776,107.99527
1.2712381,109.524956
1.4113162,112.765114
1.4706125,112.089195
1.4114037,113.86092
1.4495548,112.42376
1.4151783,113.784225
1.4289818,113.40471
1.3430178,114.536865
1.2262441,113.15159
1.324535,114.776405
1.2570556,111.23637
1.2264119,115.04224
1.162367,108.3668
1.1333387,110.72323
0.94463617,111.358025
1.0163298,106.959236
1.0972459,103.746796
0.96304274,105.04288
0.97515297,103.223434
1.0071672,101.61105
0.99694145,97.282234
0.99558085,95.56767
0.91772735,97.78909
0.92830527,96.76185
0.91285825,94.43212
0.81738806,88.837204
0.82699275,89.51552
0.7849054,88.5423
0.7979056,88.87068
0.6047812,84.32448
0.58324695,84.507774
0.6706677,84.04991
0.5200356,83.05007
0.45171463,79.78097
0.44576982,75.11548
0.45217142,76.950516
0.39565995,77.25082
0.2959157,73.47336
0.34915257,72.21361
0.3896013,68.12756
0.37787372,71.43236
0.3219835,69.583725
0.36500117,63.790333
0.4210072,66.89987
0.36482388,62.668926
0.377448,61.083656
0.2760123,62.03904
0.27668005,59.086655
0.24603216,58.84574
0.17150183,58.955452
0.14400907,61.222683
0.1411285,62.398823
-0.0105099585,59.864056
0.1140868,59.521927
-0.083708785,62.176655
0.064866394,61.374546
-0.03966218,63.750698
-0.05966103,69.71962
-0.013306846,69.00605
0.08141627,67.809006
0.07277566,75.311516
0.17906214,75.078415
0.3699578,74.15749
0.5213154,79.73809
0.5106151,80.8231
0.618925,83.804474
0.7092885,84.25335
0.808005,91.105225
0.97538924,94.09284
1.0384439,94.86662
1.050461,100.36972
1.2488139,103.5742
1.2618513,104.11544
1.3104835,105.00977
1.2702708,106.50199
1.3280632,110.65205
1.3440828,111.56587
1.3496426,109.70675
1.4335164,113.58349
1.4552251,115.3092
1.3978455,113.70016
1.4601858,111.998795
1.3640897,112.35412
1.3014717,113.69447
1.281604,112.313736
1.2138293,112.421425
1.2680053,113.53453
1.2096571,110.609665
1.2363663,112.78786
1.1387268,108.13434
1.0507479,103.82613
1.1262872,107.27131
1.0835954,106.66884
1.0480314,104.41932
0.9679959,100.314926
0.94865566,99.528336
0.93200994,98.23531
0.9692831,96.75788
1.0290263,93.56417
0.95388484,95.27897
0.92224467,91.59198
0.8124991,92.515816
0.8847428,88.93128
0.8652307,90.275314
0.785556,86.10423
0.7103417,86.16662
0.6683766,86.01265
0.6665529,81.75626
0.6363829,79.290794
0.64187837,74.78095
0.60524744,77.15236
0.55186707,79.118866
0.45331237,74.20391
0.4343576,70.42147
0.48735395,70.252884
0.4427624,71.56153
0.45660436,69.827705
0.47014207,68.498146
0.4666162,67.2832
0.48501104,61.74314
0.39706546,65.49784
0.5112203,59.530693
0.32678875,60.54798
0.3127917,57.592922
0.3516255,58.602577
0.28503639,59.7513
0.2927196,59.469883
0.15794253,60.51358
0.20589066,60.725132
0.08989915,61.245323
0.099487245,59.97018
0.0968917,61.642204
0.058042742,63.27103
0.14614435,66.82749
0.20311095,66.38857
0.23733583,68.73783
0.26575997,70.74259
0.35003477,74.64603
0.43314487,76.40355
0.6124873,79.91945
0.6668265,83.73108
0.85213894,84.28936
0.9610461,88.78767
1.0732965,92.43163
1.1468154,93.57313
1.2456306,96.58636
1.2820753,98.32662
1.3700979,100.113625
1.4391572,103.87237
1.4738795,104.28463
1.523558,104.28716
1.5606213,108.15567
1.5800235,109.49137
1.5679946,113.994
1.6230459,112.16052
1.6206728,112.048874
1.46491,113.61617
1.597421,112.92749
1.5296853,114.32353
1.5451403,113.53836
1.5301299,113.78389
1.4942487,112.738945
1.433697,114.98198
1.389562,109.095215
1.4084537,111.24825
1.4392366,108.4707
1.367752,110.332375
1.224337,105.814926
1.3527682,101.55145
1.2340215,103.09268
1.2906178,100.672485
1.2199192,101.46779
1.1183426,100.56587
1.2391778,98.6406
1.1453729,96.4891
1.167852,94.812874
1.0664396,94.764786
1.1111126,92.21431
1.0913354,93.25631
1.1323704,87.69607
1.0710387,83.98788
0.98403543,85.22659
0.90918666,82.55523
0.8673598,80.39316
0.8961931,81.139915
0.7987839,78.08818
0.78840905,76.08117
0.67750424,77.75638
0.7452753,73.30845
0.7184713,71.97301
0.6697622,74.10665
0.78831303,71.555626
0.6826582,67.521286
0.6939622,67.48187
0.69405204,65.61086
0.7213363,61.803314
0.70000565,63.034977
0.6925688,62.53048
0.67125994,62.48127
0.7119693,61.86848
0.60446334,57.908092
0.6066448,59.805958
0.4911293,59.67552
0.4923715,59.312088
0.4808095,60.8098
0.39085177,60.51302
0.42067376,64.11326
0.44544545,63.910816
0.35868117,64.86874
0.44408646,65.80736
0.44694823,66.40578
0.5005674,69.28301
0.59104663,74.32078
0.772544,79.908714
0.8475878,77.5378
0.9562486,81.49298
0.95676357,83.583405
1.1302892,84.03548
1.2671824,88.37329
1.3534455,90.55922
1.4453276,91.81401
1.5135529,98.75226
1.5771048,100.25934
1.7359613,100.83083
1.7363741,104.264244
1.8192774,109.769485
1.8143663,107.061325
1.8877159,109.77481
1.8435992,111.540146
1.9002168,117.40494
1.8913115,111.26942
1.7935562,112.82112
1.7697405,116.353096
1.8839285,113.95739
1.7776119,112.81985
1.7569977,111.82085
1.8177688,112.55682
1.8633671,112.428154
1.623453,112.00526
1.6801999,113.69065
1.6277726,110.690094
1.7271165,108.35458
1.6277032,104.617485
1.636741,103.76925
1.522179,103.24011
1.4557958,103.9073
1.4389716,102.206406
1.560091,101.60553
1.428451,99.044044
1.4166136,98.24502
1.3368474,94.89495
1.4134167,93.73764
1.492269,92.313736
1.3692765,88.47397
1.3250033,88.19534
1.3982301,86.67435
1.259336,84.266106
1.2092521,83.32632
1.2085333,82.72378
1.1676884,82.7955
1.1055424,80.93541
1.0046355,79.78177
0.95369196,79.65759
1.0231998,77.386284
0.93207675,74.96916
0.91787577,73.609436
0.93547815,67.791565
0.93986773,72.3359
0.86338377,71.30213
0.9398003,68.99557
0.89079213,66.85648
0.76210517,64.57957
0.88807577,63.082016
0.8865183,58.943916
0.7672597,63.07765
0.7096331,60.55351
0.7026942,58.70012
0.6790682,62.504578
0.731637,61.7859
0.60390496,63.54319
0.56228954,62.46736
0.54089046,63.867588
0.56067765,61.64259
0.5604275,64.82729
0.61339563,65.829994
0.45312318,66.59304
0.61139154,69.49437
0.7127041,65.81987
0.78434056,74.49747
0.87280613,73.71546
1.061392,82.19774
1.1975935,80.70593
1.2802234,81.31495
1.2995607,87.93697
1.443442,90.5487
1.5390495,90.8521
1.6124616,92.3607
1.6546469,96.699974
1.8003002,102.27466
1.8476633,101.62727
1.8570412,105.53429
1.9045775,105.60114
1.8494766,108.88273
1.887958,108.058044
1.9897383,112.09598
1.9349207,113.35114
1.9677626,112.56509
1.9001136,111.71735
1.9678919,114.52417
1.9106523,114.21696
1.9148718,115.30515
1.8873383,112.32729
1.8185068,112.48953
1.8634499,113.67795
1.7840775,109.96187
1.713187,109.315025
1.7412117,108.111305
1.6635569,111.08033
1.612915,103.57208
1.5385778,107.47984
1.6040038,101.38669
1.5109606,102.566696
1.6123686,103.363716
1.5204389,100.87915
1.5154096,97.58664
1.4215673,99.45928
1.480799,94.95145
1.497556,93.78114
1.3180648,95.95796
1.4053227,89.293945
1.4481874,91.595375
1.3060884,90.34658
1.2593609,88.28316
1.2297796,86.76119
1.2137557,80.24298
1.121649,79.18949
1.0942136,82.11405
1.1054108,78.17676
1.0460514,76.64446
0.9099595,71.209724
0.91217947,73.30428
0.9122889,73.11489
0.81827444,70.1255
0.9303331,69.88036
0.8310266,67.86737
0.89475816,64.00055
0.94488156,65.02969
0.84806055,62.941322
0.74734604,62.37822
0.8141717,60.790447
0.75968224,61.347992
0.81247026,60.87162
0.73734105,59.50607
0.6688624,58.303535
0.59933496,59.53661
0.55618095,59.329964
0.41923627,63.532654
0.5728671,61.209644
0.5370105,65.094696
0.5624436,63.73018
0.5100567,66.02838
0.5037095,64.92571
0.5623641,68.53098
0.6642026,71.2958
0.68090683,74.287994
0.79274374,75.8832
0.96051514,79.26526
0.99947715,82.986336
1.0871712,85.23327
1.1684923,84.3524
1.3575022,90.1088
1.4620057,95.01713
1.475162,95.56175
1.6521825,98.78909
1.658391,103.386566
1.6916864,102.840935
1.7330785,103.137
1.7731327,107.65808
1.764291,109.41481
1.8399602,109.32393
1.7929277,112.14307
1.8290464,114.84227
1.8718164,114.14995
1.6707163,112.3591
1.7085956,113.117584
1.7521466,111.46322
1.7148035,113.281105
1.7089485,114.594536
1.723423,113.80633
1.6966462,110.73116
1.5467012,113.07759
1.5194086,110.788216
1.5041472,110.07274
1.509108,106.86522
1.4891638,105.83052
1.4451569,104.600174
1.4567498,106.14548
1.3509433,101.85293
1.401653,101.19306
1.3131653,99.47244
1.3588969,100.15888
1.2760864,95.33525
1.2638577,93.001884
1.3124644,91.2358
1.1625527,90.85807
1.1654456,90.76934
1.1132805,88.485405
1.0754035,83.68402
0.9876061,84.52062
0.990199,85.952515
0.89074326,82.38395
0.9851291,82.627426
0.80081844,81.27482
0.77671707,78.416725
0.8359095,77.304146
0.758013,73.84376
0.62115216,73.16565
0.6258278,73.948326
0.66214687,70.15265
0.69112855,66.94647
0.658166,65.4009
0.59721005,65.58402
0.67754775,61.472275
0.56984305,64.27091
0.60173273,61.883766
0.65825415,63.317966
0.52487713,61.77053
0.50445294,61.176876
0.48994607,59.582966
0.39124086,58.931618
0.2935121,58.282433
0.30434778,61.925014
0.2755734,60.019997
0.20510297,62.16444
0.15748127,64.85377
0.1334582,65.37185
0.19217533,67.65821
0.21624821,68.40475
0.25590497,69.87
0.4154166,69.41936
0.47996536,72.90452
0.5470375,77.616806
0.7029886,79.44007
0.75052774,81.87193
0.8031228,83.36588
1.0176703,89.138565
1.142124,91.12834
1.186455,96.07035
1.3833638,94.81308
1.3779055,101.65632
1.3918403,102.530304
1.3743712,104.18914
1.4921678,103.81752
1.4540119,109.60318
1.5162747,108.87179
1.5246631,109.4467
1.547486,113.86878
1.5665295,114.090675
1.5281179,112.21456
1.5562204,111.79475
1.4871962,113.03533
1.4731853,114.66982
1.4777886,115.1679
1.5659984,111.81742
1.38074,112.15913
1.3613975,110.771164
1.2969215,112.17539
1.307088,109.908936
1.2168908,110.06436
1.2448887,106.767654
1.1471366,110.12802
1.2115605,105.10328
1.0988472,103.7328
1.0543377,101.84807
1.0349133,98.39568
1.0289557,102.34741
0.972698,97.622154
1.0437071,97.6596
1.0136013,95.33107
1.0053623,91.94776
0.9231925,94.05264
0.8299741,89.14981
0.93558997,87.84952
0.78990376,85.611984
0.7504115,87.23456
0.7380801,84.89776
0.680501,83.01157
0.6170724,81.69881
0.6602267,79.59413
0.49114144,77.74725
0.49206614,75.70977
0.39692762,75.01339
0.47425112,71.100716
0.47178003,70.856285
0.42321387,66.44929
0.34561914,69.933495
0.44356325,66.39848
0.42271763,65.145325
0.40504768,62.916924
0.38356522,62.304386
0.3526927,59.306282
0.31654185,62.60535
0.27114648,61.461086
0.23113327,60.82584
0.14515509,61.519295
0.135973,62.45931
0.14499429,59.11269
0.06513506,61.72981
-0.0033746136,61.814938
-0.055877957,61.44837
-0.060872056,61.388557
0.040598597,65.26813
0.031998266,65.6667
-0.011599727,66.47863
0.11926446,69.69763
0.13361152,71.15115
0.1963153,76.44999
0.41925022,77.934296
0.46865916,82.59296
0.48458245,84.36355
0.74297404,83.273544
0.77250326,90.0171
0.88414377,93.19523
1.0913962,95.370605
1.0602454,99.071846
1.0760972,97.180405
1.2341481,103.187225
1.2766539,103.81796
1.3072941,103.67569
1.2358323,107.57396
1.3412676,110.52925
1.2574865,110.86483
1.4323561,112.36229
1.3960149,115.964226
1.3995582,112.93755
1.2572664,111.22436
1.3415693,112.62433
1.3574102,112.04001
1.2616355,114.16018
1.3087217,112.38208
1.2460532,112.74252
1.2002915,113.38045
1.1970423,110.77071
1.1480273,109.35977
0.9913561,109.43663
1.068223,108.3231
0.96991074,106.23492
1.0126925,106.822754
0.98655313,104.774704
0.9402265,101.653656
0.97216547,97.7293
0.9420925,102.62987
0.9782817,96.36066
0.8431791,95.33212
0.9297176,93.41381
0.87888366,91.495926
0.9567559,88.90125
0.7439675,90.546234
0.81477195,85.25416
0.7847249,86.900154
0.6622529,87.72579
0.56340086,83.383736
0.5446501,82.55824
0.56115603,79.306244
0.41047922,78.6675
0.51445764,78.49915
0.37601203,76.333496
0.376471,74.286934
0.37046772,74.372475
0.3304048,72.90563
0.25724825,70.14969
0.33940542,67.970695
0.39981228,69.35382
0.3693583,63.15946
0.3399214,66.756645
0.33856294,64.51969
0.39260972,64.338486
0.3009807,61.511852
0.24590643,61.183384
0.20381728,62.073826
0.20774752,60.383568
0.13347863,59.7423
0.05511427,63.34056
-0.06755639,64.12933
-0.03867485,62.532005
-0.0327368,64.970314
0.04542194,61.81479
0.012734104,64.6272
0.08214762,67.38073
0.17525177,69.31457
0.12249089,70.39516
0.2908605,75.529915
0.28533307,76.717476
0.35066086,80.90965
0.49112096,82.46502
0.68888986,82.72338
0.77896935,89.77938
0.90209347,89.19061
0.9833803,94.17164
1.0224302,94.68639
1.1130408,97.23629
1.2388793,99.32676
1.3594353,103.04054
1.3622712,102.85682
1.3321654,105.44105
1.4552712,110.78812
1.4730546,111.25128
1.4747169,113.86005
1.5272075,111.1124
1.5235418,112.852936
1.4240569,113.97181
1.4656024,113.929756
1.5103376,115.702126
1.410606,114.64391
1.3646257,114.63606
1.4212939,115.48322
1.3044422,111.01225
1.1752445,110.75672
1.2337631,108.05889
1.2253261,110.74372
1.1915791,108.272415
1.2223154,109.13552
1.2702259,104.24967
1.0775883,101.37427
1.1102551,102.3386
1.1682658,102.365486
1.0429082,100.665535
1.0505035,100.297676
0.9988844,97.88365
0.9760295,96.98711
1.007575,94.55332
1.0390509,92.86058
1.0500213,90.144585
0.9573504,86.771736
0.84374076,87.10745
0.86647236,83.74224
0.838205,82.75052
0.80839264,82.55021
0.715249,82.59614
0.57231724,79.48578
0.63121593,78.76771
0.677994,75.995514
0.65947247,73.1618
0.5984473,75.923134
0.46533963,71.995865
0.4854436,70.94398
0.49659923,70.1009
0.4973734,69.036545
0.4909237,64.61401
0.57166827,63.115017
0.5926999,64.447296
0.5278367,62.73776
0.47620293,61.0736
0.51779205,61.16036
0.43014804,62.99142
0.40863392,59.981155
0.3965162,59.331997
0.2941037,62.56175
0.23015216,60.084763
0.21132196,59.825737
0.28611103,61.26322
0.25922918,61.369656
0.15790543,66.53597
0.28102732,65.632324
0.23464145,68.89056
0.390246,68.85079
0.31858233,74.01433
0.45104185,72.71137
0.5844571,78.89659
0.6654985,76.087616
0.75349444,78.892426
0.97038436,86.09027
1.0108215,85.340805
1.1730644,88.69023
1.2938046,90.41303
1.296946,97.76883
1.5057613,98.42209
1.5104334,100.37394
1.5853952,101.416
1.6119239,103.70841
1.6590235,109.58344
1.5535468,106.21456
1.7437778,112.38239
1.7079141,111.772156
1.8012176,112.59617
1.6386759,115.919235
1.7771072,111.39543
1.7202615,113.68372
1.6847407,112.54338
1.7046133,117.0535
1.6185526,116.43127
1.604112,111.9364
1.534002,109.971375
1.6097205,110.94994
1.5081795,108.85292
1.4876689,109.3027
1.3639754,108.59405
1.4600564,107.959015
1.3217198,101.608154
1.3702031,102.94781
1.3123107,102.50953
1.2965348,102.84039
1.223181,96.263336
1.30708,97.066444
1.1994263,95.95078
1.2689699,91.56014
1.2520735,92.73508
1.2669914,91.4137
1.2438568,89.14657
1.2407522,90.998924
1.1591195,88.18305
1.2150625,85.30858
1.162085,85.35815
1.0563784,84.532295
1.0612291,84.34417
0.9398617,79.10026
0.92511535,76.207344
0.8778455,72.18545
0.90134645,75.79617
0.942023,73.50562
0.78722465,73.29442
0.91401434,68.65828
0.7891061,68.78271
0.8634649,67.775085
0.78696567,65.65425
0.8807136,61.815662
0.8093826,65.22512
0.806872,65.94259
0.7744221,61.247105
0.8086288,63.30931
0.71477926,63.15791
0.7632996,60.43081
0.73478293,58.960423
0.5710696,60.99545
0.5521869,60.819237
0.50819343,58.314438
0.5000342,60.7585
0.5016867,64.48669
0.4798906,62.836124
0.49172723,67.589775
0.5482581,67.948326
0.6304208,69.95849
0.6393422,74.19848
0.8288503,73.24445
0.8798354,75.6066
1.0231684,73.51246
1.1350024,83.26343
1.3133869,87.69434
1.2550869,88.88942
1.426356,90.22109
1.505619,93.66852
1.5516572,93.153275
1.7140355,97.23159
1.7595671,101.46732
1.6897157,105.257324
1.8563989,108.818054
1.7538725,106.14876
1.8705312,107.17881
1.935488,109.90842
1.9259785,114.66329
1.9676461,114.95469
1.9470568,115.42214
1.9557621,116.504845
1.9761416,116.16449
1.8741466,115.354546
1.9461033,112.87919
1.9031596,110.09967
1.762551,113.78915
1.847223,110.43403
1.7252841,113.00262
1.6412654,112.29092
1.6421454,107.92534
1.6612936,106.577866
1.6666552,105.91724
1.6141297,105.62817
1.4759191,104.276474
1.4810162,100.77022
1.5117284,100.43587
1.4343728,94.235054
1.4970137,96.12797
1.5429852,97.531
1.4122943,96.53531
1.4199486,95.17178
1.3882579,93.311745
1.3968905,91.21983
1.4055581,91.914246
1.3410474,85.89706
1.3225975,83.7059
1.2780362,83.036156
1.1735913,84.06422
1.1236882,79.9988
1.1085595,78.44861
1.0059187,78.32747
1.0574713,76.38325
0.985898,72.79254
0.90545225,73.01939
0.94866437,71.17957
0.86713016,72.13081
0.952527,67.38943
0.9173467,66.0434
0.9728886,65.63486
0.93081945,64.67391
0.92231935,63.32416
0.8998615,62.30834
0.8654194,62.012012
0.89481664,61.46167
0.74498576,62.42114
0.65876126,60.66607
0.72448796,64.03064
0.67418414,59.363605
0.62496537,59.07801
0.69174784,64.16871
0.5020061,58.537193
0.55384696,63.204605
0.5757461,65.76002
0.605606,67.28327
0.63471,66.9583
0.65817326,67.048706
0.79671514,73.841446
0.80807734,74.69274
0.94432,77.998695
1.0304542,81.70087
1.1690435,85.646866
1.1987972,81.75551
1.4131151,89.17045
1.504971,91.284904
1.6254793,92.5347
1.7595506,94.37541
1.8027413,100.65347
1.828063,101.05173
1.816208,103.36134
1.8488021,106.116356
1.8689159,104.40095
1.9221302,107.81865
1.9042197,112.87728
1.9428133,112.039116
1.9842855,113.23533
1.9509138,114.05808
1.954102,113.47956
1.8577037,113.15314
1.9042988,114.69552
1.823733,115.950676
1.7886271,111.6027
1.6994436,113.06794
1.6758034,113.84757
1.655448,110.54473
1.7148157,113.794464
1.65046,105.767815
1.5889395,107.434166
1.4773291,109.03786
1.5449531,103.1886
1.5092789,102.30723
1.3994305,102.38727
1.4149891,101.90851
1.482477,97.25645
1.4315511,97.34056
1.4072007,94.78884
1.4063674,95.02609
1.366722,91.97508
1.3942822,91.12865
1.3070139,89.09172
1.2124625,89.63469
1.2387822,84.65657
1.1531028,85.976944
1.1055906,81.066154
1.0756203,78.14999
0.9640803,81.493286
0.9619296,79.00512
0.89745283,78.54355
0.87187237,76.35123
0.8171916,74.01652
0.87594485,73.21304
0.81753457,72.45487
0.88721627,71.08187
0.8259785,67.04426
0.8100513,65.15735
0.71596676,66.75838
0.7714275,63.217857
0.7895207,63.076153
0.71206635,60.490788
0.6820921,59.3939
0.69320744,60.88034
0.63348657,63.723846
0.6198106,58.363945
0.5554229,61.570683
0.4418132,62.930347
0.44323155,60.944866
0.44432643,61.793407
0.3455004,61.185898
0.44689405,62.752327
0.39051726,65.19496
0.35233203,65.37772
0.4342233,69.33203
0.50120294,71.75675
0.64882195,70.74038
0.7397508,75.28605
0.73838276,81.39819
0.87238157,79.918304
1.0057065,83.622795
1.1559554,88.017136
1.2477207,89.538124
1.293481,91.30546
1.3554823,96.82713
1.395836,96.67403
1.4548668,100.62389
1.5489737,101.80536
1.6245385,105.998116
1.6168616,107.76028
1.6546676,109.601494
1.6949693,107.14581
1.739169,113.613075
1.7183173,111.70256
1.6567131,112.43614
1.6831368,112.28185
1.7422781,112.609055
1.6053741,113.074936
1.6287214,113.23715
1.6280814,112.89169
1.5736399,112.23418
1.5683151,113.02746
1.5716509,111.4732
1.4444311,110.04822
1.3820978,107.07792
1.3057299,108.1666
1.3710858,107.29608
1.3593751,103.804634
1.2635894,103.69388
1.2406591,103.899704
1.3167286,96.02995
1.205117,98.61978
1.245828,101.21713
1.1735277,95.2952
1.1009197,92.40363
1.0212111,92.65002
1.0418731,92.65649
1.0915028,90.43492
1.0315535,88.619286
0.9505216,87.70675
0.9996321,84.83509
0.9374734,85.535774
0.8042341,82.191025
0.75744903,82.26999
0.661047,79.54324
0.7879357,79.666824
0.6194351,74.14144
0.41865596,73.340385
0.50225824,72.55876
0.4610522,72.43822
0.57199776,73.028404
0.54461074,72.61196
0.54437906,67.95096
0.5535148,64.59647
0.5397568,66.153625
0.4313514,64.41852
0.40313667,61.646282
0.46090245,62.559265
0.4321821,63.35104
0.36115363,62.237347
0.29852048,60.2978
0.2613129,62.759033
0.18217956,59.69698
0.2397675,63.1491
0.15795471,59.021793
0.15422893,64.83287
0.12154372,63.419273
0.1628432,66.21203
0.14350516,64.61583
0.15712869,67.392426
0.20842388,70.954414
0.32111683,72.808014
0.33308437,72.33157
0.4269191,76.25246
0.5142964,77.0811
0.63061464,80.79746
0.74916047,87.09901
0.9758618,85.260895
0.9663067,91.39406
1.0818127,93.57523
1.1831136,95.02953
1.2712849,95.35714
1.3145052,100.56816
1.3226066,101.472305
1.3698142,106.21387
1.3424275,111.29772
1.4133403,107.39975
1.468009,111.73324
1.4725573,109.11793
1.4655266,112.38995
1.4645885,115.4954
1.4596121,113.77507
1.4362018,115.07457
1.365946,114.90356
1.3151519,115.0914
1.3680458,114.64277
1.2561704,114.469345
1.3341976,114.44261
1.2259053,108.97014
1.2202793,110.52656
1.0774491,108.2854
1.0662998,106.910805
1.0848581,106.8464
1.090041,104.03803
1.064034,98.40498
1.0309787,101.70137
0.93050796,101.74335
0.9821242,101.89843
0.91645294,96.45781
0.9454036,93.15996
0.8746845,93.902084
0.9007013,95.99336
0.9278709,92.02081
0.9050181,87.37795
0.84805655,84.74125
0.73595405,89.03601
0.73247564,82.54489
0.7166581,86.954155
0.56182164,82.48019
0.6296396,82.43855
0.6071858,80.13881
0.48947826,75.05185
0.4265504,75.97265
0.35555398,75.13395
0.2880694,72.1885
0.34245843,71.52144
0.25874355,68.86468
0.38046604,69.05751
0.2755093,66.09637
0.42850453,65.490654
0.40725964,63.979053
0.3606291,63.073334
0.35363328,62.20554
0.23823142,61.77288
0.27383822,60.485245
0.12358575,61.686825
0.25611427,59.337402
0.07448895,59.620815
0.15005194,59.621826
0.05329293,64.378845
-0.080033734,62.43526
-0.052514356,59.735653
-0.0064717596,65.31978
-0.01518787,60.957966
-0.023475602,65.26565
-0.0067450954,67.542
0.056702804,72.89638
0.1762107,72.83336
0.34030816,72.93444
0.28139186,78.87709
0.40297246,81.14667
0.6198121,79.365036
0.6375152,87.59096
0.7360779,89.61787
0.87015855,93.233406
0.961278,94.6682
1.0921866,95.57305
1.0948241,99.018715
1.187666,99.24886
1.3080858,100.80109
1.1744027,107.55562
1.2015762,105.9084
1.2988229,110.40744
1.2238811,110.7153
1.30681,111.04054
1.3606031,113.18468
1.479643,115.13948
1.4085441,112.492805
1.3227091,115.23318
1.2522391,115.44839
1.2562795,114.024
1.2313346,111.66937
1.2895174,110.97701
1.2559115,110.16506
1.1564746,111.670784
1.1162112,109.67475
1.1056472,110.948044
1.1089026,103.01128
1.0506823,108.807205
1.0008569,104.667274
0.99718946,102.68041
0.9710237,102.36143
0.95538205,96.04301
1.028767,98.746796
0.95612574,98.89656
0.8771768,94.77337
0.8887133,95.96746
0.96125555,92.94368
0.8171387,96.07438
0.9152058,89.81416
0.7834176,85.90915
0.7680136,91.31773
0.696168,87.32453
0.5662537,85.024956
0.6628557,81.16055
0.6053631,79.91604
0.55377406,75.84163
0.49496254,76.49633
0.3950778,79.74011
0.44497487,71.67003
0.41201144,75.808014
0.33238184,71.25545
0.45833203,68.99089
0.4921161,67.66759
0.3779327,67.77142
0.41671145,62.298527
0.32996148,64.27765
0.38265634,64.9614
0.34837034,63.188026
0.3680894,59.718346
0.32825723,60.04524
0.24841876,62.936356
0.23672949,60.16215
0.23331574,60.880627
0.14758088,57.853523
0.08334727,59.234722
0.12448293,62.197124
0.03998728,65.57934
-0.008587088,63.353672
-0.01748541,62.991585
0.046638496,65.95333
0.11558525,65.79175
0.2661818,69.23051
0.3019778,70.7217
0.40593785,74.94379
0.48766017,79.4521
0.5734573,79.75472
0.67713815,82.03235
0.86657095,85.3143
0.9107642,88.07029
1.0088633,92.01697
1.1615078,91.26015
1.1416755,98.3033
1.2521136,99.764984
1.3814906,103.29949
1.3511012,105.03312
1.4086214,104.31757
1.5579787,108.107475
1.5062509,109.74805
1.5547025,109.04805
1.5330439,113.3455
1.5349525,112.025635
1.5480893,112.30361
1.6191722,112.21812
1.5503963,114.486565
1.5870669,116.0386
1.4788591,112.63192
1.4861393,113.60171
1.4944434,114.32755
1.3525342,113.12174
1.305648,109.28258
1.3521094,111.07831
1.2770855,106.677986
1.2871213,107.30752
1.1405108,101.62006
1.206586,102.53257
1.2300969,101.36181
1.2000402,100.799675
1.1010861,99.4099
1.122103,99.24466
1.1205,97.57246
1.0922064,95.33814
1.0881203,98.250725
1.0717798,89.88684
0.9553136,94.56445
1.0757924,86.208206
0.95758533,85.40275
1.043918,85.20544
1.0293993,83.73796
0.91383857,83.854324
0.8688797,83.75804
0.85466945,78.84161
0.7598398,81.5751
0.794372,76.29095
0.6735189,77.44748
0.6656836,74.15807
0.68924636,71.11628
0.5753255,71.80051
0.65704274,70.615875
0.6251953,67.81036
0.59801847,67.418076
0.6420984,67.07871
0.62330586,63.779934
0.6004886,64.23003
0.65303445,63.22571
0.55964303,63.04403
0.5335033,59.80589
0.592447,60.30639
0.4556948,59.87001
0.47932738,58.879242
0.41365424,60.676357
0.36119986,60.25625
0.40299335,59.735577
0.34274635,62.30041
0.42074215,61.417305
0.32365018,65.19474
0.3681609,65.87466
0.31287447,68.6572
0.51234084,72.60607
0.58934176,70.82845
0.5924814,74.43751
0.7968763,78.159096
0.9943697,81.02464
1.1205806,86.92606
1.0513207,86.777374
1.2339481,88.49859
1.3751862,90.86209
1.4496884,96.49316
1.4982612,100.010635
1.5379051,98.71565
1.7075491,104.12771
1.6564257,104.26766
1.8192039,105.181915
1.7100011,110.11448
1.764479,110.38455
1.9499998,111.30673
1.7946922,110.91505
1.8424326,112.875175
1.8036027,114.06159
1.837438,116.25069
1.7454661,114.036064
1.8114365,116.93254
1.9159602,112.6231
1.750699,113.90425
1.6623058,111.721634
1.6137836,110.99629
1.7122587,111.863235
1.5467542,108.82722
1.5310628,111.97511
1.5409795,108.565575
1.522718,106.40408
1.4698372,105.3437
1.4739618,106.19371
1.4544946,100.21967
1.393843,98.61565
1.4416975,99.78089
1.4126159,98.789665
1.4040623,94.75471
1.3667128,93.39169
1.3462777,90.69657
1.3282152,92.477425
1.3574632,89.633194
1.322897,89.944305
1.3156756,87.09336
1.149525,86.21138
1.0647459,81.39119
1.1051773,82.18321
1.061051,78.302315
1.0147922,78.38848
1.0424311,75.483284
1.0079489,74.65382
0.8307476,69.7525
0.8895545,72.76826
0.79527515,69.65
0.92045397,67.88093
0.90035987,68.571
0.9020017,65.96655
0.88459927,68.44152
0.8349536,63.431717
0.92306197,62.321743
0.84831107,60.908665
0.8147901,63.545094
0.7539111,64.80442
0.7678403,60.219986
0.64339864,58.995987
0.8249611,61.499825
0.61984986,61.01304
0.52381957,60.5607
0.5726135,61.295074
0.5709969,65.472115
0.5396268,62.384594
0.5340887,63.929848
0.5125096,67.81531
0.5939705,69.651276
0.715071,68.7876
0.75845385,74.19428
0.94857395,76.54751
1.0096412,76.9617
1.0644387,84.22168
1.179374,81.14968
1.3427421,90.71764
1.5394875,89.80409
1.5934983,92.9976
1.6025463,95.758286
1.7082485,95.76804
1.779481,100.69086
1.7831004,103.51015
1.9722494,104.0833
1.8101525,110.84495
1.9369712,109.80159
1.9961041,110.336586
1.9949921,116.21717
1.9004074,113.76985
1.9146577,115.47981
1.9913666,113.59905
1.9294887,113.94433
1.8663554,114.947815
1.9239539,111.45906
1.8783493,114.828064
1.7791784,115.19303
1.8793175,109.23823
1.6927437,112.1706
1.7267133,109.4322
1.7329394,108.44838
1.7306116,109.44586
1.6255622,106.65801
1.6779314,106.22957
1.6350658,104.79489
1.5199432,104.777435
1.4937444,102.24178
1.5698329,97.02619
1.555056,100.032166
1.5346055,95.78842
1.4537009,96.416985
1.4554144,93.53303
1.4049152,92.273865
1.3826478,94.83056
1.4112327,86.98622
1.3177826,88.67474
1.2820756,84.987946
1.1843424,86.20572
1.2000458,80.17552
1.1210154,80.1587
1.0700297,76.88701
0.9659321,79.674736
1.0219032,74.81914
0.97489184,76.99712
0.9205825,72.80341
0.886382,75.74757
0.8952972,71.30406
0.8447697,67.40101
0.9086926,69.190384
0.93592113,65.34541
0.8749702,67.65685
0.8914562,64.48854
0.9137158,63.718563
0.8419667,59.978348
0.8360284,57.26283
0.7919348,62.62016
0.743374,60.037506
0.70317674,59.574837
0.50700885,61.13657
0.5834724,62.732967
0.5691584,64.27055
0.5717861,64.117485
0.63187337,63.99661
0.45670986,64.83434
0.48416418,65.956436
0.5728478,69.39369
0.57958955,69.92637
0.7393807,72.07043
0.7978377,72.95749
0.80815834,79.427124
0.9748846,77.14487
1.0645208,82.734795
1.2126714,86.18035
1.2169888,88.90092
1.3884145,91.02937
1.526748,93.90064
1.5961483,95.9501
1.5881491,100.72106
1.6599115,103.508194
1.7894379,103.248276
1.7297125,104.23639
1.7203026,105.384056
1.8287187,109.68014
1.7660154,109.733215
1.8828979,111.06538
1.9179575,110.14502
1.7470888,112.03207
1.7669673,113.356476
1.8693075,114.21548
1.7649591,114.04738
1.80776,111.99992
1.7129451,113.72993
1.7993286,111.05141
1.6699569,111.48315
1.6507423,110.26209
1.6483712,112.100136
1.5286294,110.567856
1.5312036,107.01547
1.5068431,103.21061
1.401826,106.91168
1.3859595,103.98967
1.3770008,100.10202
1.355039,99.19682
1.253379,98.25868
1.3277963,97.50016
1.2755405,95.47054
1.2972825,92.30749
1.2839408,92.45523
1.2635235,92.58608
1.2336391,88.74308
1.1501864,86.31682
1.1362915,84.48982
1.0456704,88.81289
1.1421559,79.33872
1.058229,81.360916
1.0003272,81.27685
0.9509775,80.18581
0.76842165,76.7078
0.83229434,77.4152
0.7666725,75.4248
0.73845214,71.39384
0.7279001,75.660995
0.78731894,68.1764
0.73584694,71.17723
0.66688144,66.22035
0.7197387,68.20092
0.7281126,63.281418
0.7764145,64.07776
0.6549807,62.16135
0.65079784,61.958927
0.648604,59.899536
0.46145704,60.545635
0.4915244,61.780933
0.45267832,61.571434
0.45189145,61.942505
0.33766592,61.35282
0.3751923,59.979824
0.29092798,64.47109
0.2891062,62.48535
0.2445963,63.088207
0.32131362,65.57392
0.2228887,70.35099
0.4315798,73.526695
0.42027828,73.54755
0.5413256,73.95576
0.649844,75.36442
0.81330454,80.332275
0.76067233,79.86706
0.93664104,87.525246
1.0063968,87.72259
1.1809893,92.98617
1.3878454,94.09208
1.2488792,98.20795
1.4470727,96.72875
1.4727982,101.81319
1.4521226,101.78026
1.5441782,108.031044
1.685621,105.80053
1.5649318,111.22601
1.4609026,109.65298
1.5988386,108.73947
1.6100526,113.06481
1.653157,115.10372
1.5326176,116.86612
1.5740889,114.78658
1.571497,112.94058
1.536428,113.2355
1.4272586,116.490456
1.4365054,114.098724
1.3609872,111.43286
1.3670506,110.51214
1.2289363,109.53425
1.2786651,110.76173
1.2388656,109.07598
1.1262134,102.40492
1.1742798,102.767784
1.0832888,101.84733
1.0428255,102.60606
1.0183009,97.50511
1.0066384,103.308754
1.1697562,96.040344
1.0012046,96.12703
1.0522585,93.35357
0.9669683,93.20996
0.9818165,93.94818
0.9705509,87.77951
0.9015084,87.1179
0.87790465,85.33371
0.7864656,84.051704
0.8063355,84.475365
0.7509871,82.10125
0.6155059,77.81096
0.5775107,78.50079
0.6361655,76.51904
0.49786404,75.3473
0.43280357,73.64923
0.37781,70.353966
0.3712202,69.527054
0.42877737,68.83819
0.48648873,66.614365
0.45423487,65.44743
0.3976826,65.727165
0.4186485,63.818565
0.36484876,61.722202
0.43454856,64.276955
0.4165394,62.48465
0.32796687,60.397377
0.25183034,60.449726
0.26457492,57.699287
0.15550688,57.165794
0.117596805,60.216778
0.12543502,62.145866
-0.00069211394,62.913795
0.17799017,61.71386
0.02018431,62.780743
0.1038812,65.554115
0.0815986,68.045876
0.023924055,67.56438
0.12702994,69.36638
0.20903838,74.71591
0.2224226,77.7165
0.41298223,75.8197
0.50212955,78.91823
0.66686726,81.53935
0.7079908,85.88932
0.9205044,89.21443
0.86522925,90.709915
1.0924505,93.605545
1.1205653,95.66317
1.2620865,101.02191
1.1777893,99.82477
1.2548046,105.641594
1.2647752,106.751144
1.3881413,106.96035
1.3745936,108.02952
1.3644403,109.91276
1.3743057,110.38561
1.4995897,113.99739
1.3688064,115.99724
1.331662,114.289474
1.2943816,116.88904
1.328427,114.239876
1.2526305,112.770676
1.2571238,115.901276
1.1279807,110.637314
1.1431086,111.08999
1.0922066,112.444565
1.0129311,110.36995
1.0279186,109.816185
1.0400523,109.55974
0.9822293,104.139206
0.9783249,101.777664
1.0123878,105.40556
0.9004169,99.38742
0.7729288,99.34055
0.89080125,98.32925
0.79098815,94.89202
0.8732756,93.20302
0.83322847,95.91954
0.89262867,89.71958
0.81329435,92.32501
0.70389175,85.398224
0.72865546,87.16077
0.7149319,83.74655
0.62128526,86.65549
0.6570579,86.03621
0.60726845,80.855
0.5131868,79.17031
0.38380113,79.71303
0.47646216,74.77394
0.42269188,73.505684
0.3832306,72.632545
0.32793012,71.17465
0.31779164,69.88723
0.276823,67.73689
0.29289106,67.89125
0.3771057,64.77022
0.34754243,63.76817
0.27628776,65.677284
0.42259485,61.701473
0.28217876,62.28636
0.32491744,61.814816
0.29114518,60.50643
0.19614443,60.931004
0.17281684,59.230145
0.07164958,61.903282
0.021500811,59.750206
0.0059524504,59.649506
-0.06251586,62.687344
-0.07512041,63.703827
-0.06379349,63.559532
0.010723947,66.870285
0.025419526,66.32034
0.06536701,70.83497
0.1295109,69.39827
0.10219025,72.570786
0.36240634,74.215515
0.39677826,77.0094
0.56240636,81.76631
0.7599868,82.055214
0.76307493,86.80025
0.8083399,88.41474
1.0156305,93.02433
1.1626779,97.823456
1.0322782,98.10551
1.1717573,100.795815
1.3224355,104.475784
1.351372,105.325485
1.3315984,109.29414
1.4353775,107.83265
1.3805623,108.10179
1.3507094,109.44814
1.3764108,113.81833
1.4022298,114.00491
1.3919718,112.07132
1.3111879,114.2492
1.3301892,113.79063
1.4354862,118.12248
1.3434814,113.58883
1.3244834,112.94076
1.2758337,111.35761
1.1770818,113.08378
1.2113079,112.29702
1.1699647,110.39722
1.0424027,106.908615
1.0620153,106.119774
1.1778374,106.44152
1.12623,102.16827
0.988757,104.75366
1.0090075,101.609
0.95065725,98.829414
1.0224758,98.895546
1.0370039,97.078705
0.87217504,93.94819
1.0263683,92.30571
0.8987938,90.00294
0.93108904,88.74348
0.88549525,89.053474
0.882774,89.491196
0.7998743,86.855255
0.7615531,83.75406
0.7327335,81.774475
0.6749385,80.16066
0.7247307,78.903786
0.53356975,77.649025
0.5932105,76.55394
0.537712,72.98244
0.49308392,74.02416
0.4414107,71.6136
0.48094654,70.3979
0.4704656,71.8242
0.49192864,66.72339
0.39914453,66.53042
0.3929808,67.68635
0.52652174,64.50921
0.5085902,59.216187
0.5513512,62.332893
0.44537106,58.78798
0.46083945,61.10248
0.40586606,59.845387
0.3151408,63.20217
0.28722277,61.848694
0.268582,60.983875
0.18045092,60.74787
0.2547575,62.72823
0.22980732,64.70345
0.24288075,66.81251
0.07917392,66.99524
0.17546055,69.06085
0.36820266,70.06395
0.31922737,72.35128
0.45661655,75.09789
0.6517516,74.79151
0.71971333,79.79114
0.66822135,81.61019
0.9892977,86.45785
0.9856278,86.72264
1.1529039,90.01096
1.2216452,91.00938
1.330095,95.23919
1.346041,100.016975
1.529664,103.23365
1.4968275,103.95956
1.5891687,107.771866
1.530313,107.11409
1.6380383,110.14986
1.6676267,111.47691
1.6095881,112.19341
1.6882584,113.48564
1.5832266,114.44942
1.685778,115.72136
1.6517246,110.057465
1.7254293,113.88398
1.6984273,117.59733
1.599415,115.137764
1.621138,117.12494
1.5211855,110.72702
1.5751939,109.17484
1.3471158,112.31401
1.3844082,111.1485
1.3115884,108.100685
1.3943484,105.623405
1.3193923,105.07731
1.333918,103.74803
1.2044061,101.43036
1.350287,100.461395
1.2724305,97.40339
1.2441831,97.98415
1.1982211,98.00631
1.1534203,94.95574
1.3037629,92.29878
1.2682711,93.82031
1.2389383,89.9271
1.1757338,87.975044
1.1641515,86.05554
1.1082397,83.54463
1.0711604,84.14761
0.9899567,82.960785
0.954006,79.77513
0.936871,78.243645
0.8064852,76.57717
0.8512256,74.14773
0.67425424,74.225334
0.74978995,71.48006
0.8356448,74.987465
0.71496534,68.18568
0.9245291,65.091835
0.69257426,67.530266
0.7128172,67.561935
0.7265549,63.700047
0.7676956,62.255978
0.7613732,59.735863
0.6716957,60.6917
0.6429565,61.51689
0.73420405,57.052803
0.575689,58.727207
0.5304735,61.86201
0.5561245,62.38848
0.52072084,59.987694
0.50342745,60.484573
0.41624817,65.17659
0.42257494,60.85505
0.40451303,65.41527
0.49765006,63.389828
0.4635975,70.86639
0.504289,73.748
0.5913174,71.75949
0.7300813,74.76565
0.7966127,72.97163
0.8784823,79.34207
1.0892504,85.01142
1.1645864,89.21356
1.3029002,89.366615
1.4220011,90.55292
1.5797992,94.84247
1.6345919,99.01004
1.763191,100.91061
1.6977196,103.5168
1.7895734,105.04903
1.8122667,108.88822
1.7725469,107.48065
1.7857592,107.533516
1.9064528,111.03916
1.8244334,114.8228
1.9022249,114.065346
1.9577999,112.79509
1.962553,115.65157
1.8510526,113.744545
1.8256735,113.82526
1.8118525,116.717125
1.8118963,117.54759
1.8125318,111.99594
1.7374607,111.92435
1.6680161,110.01765
1.6889213,109.6239
1.721415,110.85036
1.5711895,108.78059
1.5945382,106.06669
1.5414659,101.362946
1.5780295,101.74201
1.5028806,102.81994
1.6028997,102.142746
1.4510517,101.91529
1.5013374,98.27564
1.4858274,95.83383
1.4132364,93.73506
1.3298094,92.94265
1.3748804,91.8219
1.3773464,91.37833
1.2869664,87.17304
1.277886,86.13609
1.2022103,86.56147
1.2313935,87.62742
1.0806475,83.12895
1.0888222,83.52218
1.0807123,79.95433
1.0863322,78.9399
0.96156067,74.27664
0.9518711,74.89007
0.9202363,74.24167
0.90405655,71.565414
0.9859776,65.69677
0.9355191,70.10989
0.90781224,66.63106
0.9630018,65.87103
0.8434401,61.955887
0.9274042,65.423706
0.8536091,61.035736
0.85685855,60.861927
0.8781084,60.09837
0.825348,60.58119
0.6791156,59.804714
0.6207771,61.856606
0.6360681,60.07555
0.4966957,64.20236
0.6544563,60.53654
0.4953298,62.65411
0.5427148,64.91956
0.51121795,64.954506
0.5350151,65.70908
0.7162724,68.07801
0.72953045,70.62672
0.6910447,75.279686
0.80415547,75.30967
0.9180994,77.64518
0.9888843,79.83666
1.1730745,84.01199
1.3603594,87.07577
1.4113214,87.42404
1.5517522,89.65788
1.6251297,94.58192
1.7624832,97.89799
1.7267103,99.023
1.8706068,103.446625
1.9592278,101.943985
1.87645,107.54007
2.105978,108.79006
1.9861385,110.723694
1.9189712,110.59951
1.9383969,114.16081
2.0053403,112.03121
1.9920164,113.37409
1.839781,113.9093
1.8623208,114.5793
1.8956351,114.31167
1.9832171,115.16731
1.805949,115.514694
1.8471681,112.54935
1.7477124,111.924515
1.7140192,111.08094
1.6329032,107.53907
1.5988855,105.57744
1.583967,108.48469
1.6037252,106.86611
1.5418855,107.07378
1.5751555,104.41813
1.5132089,102.23997
1.5543903,100.968605
1.4006293,98.588104
1.3958855,94.66658
1.4591489,94.37318
1.4976182,93.04495
1.3393308,94.58284
1.4022526,89.91748
1.3765484,89.13836
1.2451813,84.09214
1.2536905,86.790695
1.2230568,86.345055
1.156336,82.504456
1.0954818,81.890465
1.0636941,78.78562
0.90878797,78.02092
0.9884842,78.03949
0.8755018,75.03532
0.9397468,76.584206
0.8467869,72.84184
0.9147687,68.983475
0.8794305,68.13671
0.86861724,67.448944
0.8702195,66.999
0.9278655,66.03295
0.77616376,61.45439
0.8332069,65.35913
0.90206075,62.99132
0.74704546,61.110493
0.7425526,59.018883
0.7302146,61.537994
0.5685148,61.45078
0.5429874,61.568634
0.58325756,63.408997
0.51964664,60.076656
0.3776006,61.561073
0.38171905,61.70656
0.41089037,64.57847
0.40565297,64.08927
0.4789627,70.07255
0.5205229,74.04686
0.6382044,73.10709
0.648865,76.56727
0.6843807,75.30732
0.84052914,80.84705
0.8976302,82.77518
1.1671149,82.99804
1.2226443,87.48122
1.2695824,93.05014
1.4001458,93.06471
1.3435978,98.19009
1.589138,97.21295
1.6380647,97.77116
1.6564298,99.79368
1.6840302,106.47257
1.733645,106.69809
1.7210438,108.24135
1.7544494,111.65452
1.7037288,113.75554
1.8175803,115.33231
1.780524,113.20546
1.7196977,113.05564
1.7398605,113.89518
1.794777,114.91622
1.7269269,113.096016
1.5601099,110.53006
1.6283447,112.734
1.6080644,110.1087
1.572015,110.595505
1.582467,110.279236
1.4474412,109.78404
1.3732958,106.94831
1.2918881,105.60216
1.3606004,104.91019
1.3609657,104.1315
1.2358304,98.15587
1.3333675,101.64226
1.2932287,98.83501
1.2005618,98.26614
1.2551367,95.403946
1.183585,94.187126
1.2336718,96.60774
1.0723395,88.62576
1.1088599,89.970276
1.0638466,85.58473
0.98057544,88.22573
1.0490656,82.92614
0.91177976,84.77978
0.8524152,82.49872
0.77906245,76.32285
0.7508984,79.22692
0.738965,78.049355
0.7317749,75.4307
0.622292,75.78308
0.68446106,73.61454
0.61379516,73.84314
0.66977465,72.06635
0.5550453,69.6727
0.6061083,68.2219
0.5347958,65.39513
0.6257901,66.35331
0.543584,62.996826
0.41924462,63.44611
0.6067856,63.180416
0.53732157,60.006283
0.43868676,58.34422
0.5080196,62.495487
0.3593853,57.725178
0.26302657,62.452747
0.33172023,58.55364
0.2613109,58.693394
0.18046518,62.44188
0.17451532,59.703033
0.064997375,64.48444
0.099309765,63.622562
0.17553996,68.02182
0.22963607,70.65654
0.4141189,73.57455
0.46606404,74.77342
0.46808904,74.27578
0.5656122,79.06579
0.69253534,80.88769
0.88181585,85.57695
0.95959514,85.70531
1.1602677,88.61729
1.1506008,92.93934
1.1354923,96.084015
1.321974,98.60138
1.3305497,102.2222
1.3868941,105.06063
1.4223107,107.326546
1.4521458,107.28561
1.5137912,108.132454
1.4155957,112.129654
1.4509405,109.44593
1.469575,111.709076
1.4306345,115.39065
1.5276068,114.87533
1.400951,113.57162
1.540993,114.22885
1.379346,117.36519
1.3738903,114.94496
1.3249902,113.28807
1.305444,115.38795
1.314291,112.77021
1.2324728,110.10303
1.1918111,109.80796
1.140202,109.39264
1.1679857,111.53985
1.0466913,104.03194
1.1155013,101.087135
1.0037067,100.94898
1.0370467,98.23829
1.0278231,100.74584
1.069071,97.63148
0.97363454,97.570076
0.9068134,95.19229
0.96417856,92.51841
0.8535759,91.54029
0.9606936,89.74136
0.8688654,88.91011
0.75729483,87.42509
0.7883557,88.25624
0.6585914,84.32701
0.6565385,82.10664
0.63058054,80.379944
0.51317495,77.67053
0.5803138,82.32203
0.5322025,76.358215
0.37380892,74.47596
0.3659085,73.59581
0.375821,69.48442
0.3152954,72.034904
0.324526,69.836296
0.45856753,70.48716
0.37809187,64.41986
0.31712234,63.239925
0.39439642,60.76498
0.28858453,62.323418
0.28972864,63.466034
0.31133386,60.581688
0.253273,60.847195
0.12764026,60.30746
0.13514931,57.329002
0.13727261,59.773262
0.13169517,62.01418
0.0026309544,61.376717
0.005255909,61.909737
-0.010499857,63.64636
-0.010847984,65.700165
-0.023527304,66.116875
0.049518816,68.01952
0.03631734,73.41331
0.19907047,73.352516
0.19641963,74.07013
0.32194257,80.12201
0.4320228,76.80801
0.5036613,84.7738
0.7196886,85.62066
0.8152489,91.35147
0.9452064,92.11636
0.9289103,93.68691
1.050828,98.81093
1.2487937,97.32693
1.2118047,100.24838
1.2805043,102.00507
1.2878219,107.0147
1.3127253,107.75664
1.3336251,108.74526
1.3111731,109.92536
1.3446137,113.667725
1.4865204,111.43895
1.3414181,112.12151
1.2983092,114.466446
1.3444494,116.88801
1.3315837,116.37085
1.2701043,114.03185
1.3408833,110.598305
1.2768123,112.9684
1.2234848,112.40068
1.2504187,112.792786
1.1290779,111.76867
1.0661798,108.60678
0.9924049,108.73655
1.0776448,106.23915
0.99359626,106.20857
0.93186986,105.92942
0.9480304,100.70876
0.9754889,101.58661
0.89773417,99.523445
0.97716206,95.827545
0.91876966,95.52247
0.8318585,94.16079
0.7928313,91.96784
0.8759906,92.59311
0.8796128,87.88623
0.8184843,87.8385
0.78775287,89.312195
0.7800544,84.30174
0.70575327,85.16439
0.60818535,82.18499
0.5445487,79.72394
0.5509704,77.576904
0.4831915,76.82666
0.42447996,74.9882
0.42035714,73.40755
0.44525298,71.70285
0.3016325,71.38426
0.40749478,67.86443
0.3396375,67.80057
0.36616287,65.99436
0.28018486,64.51505
0.34625557,65.24515
0.350592,64.36703
0.31095478,64.08871
0.34079987,59.75173
0.30713025,59.369957
0.2493102,59.975822
0.22260393,61.714233
0.18034966,58.82732
0.06103609,60.650986
0.032099932,60.51886
0.061421346,62.15141
-0.049325246,62.58592
0.04126357,65.61212
0.052358046,63.949265
0.108696476,66.13951
0.13491157,66.42658
0.25081939,70.3816
0.30587807,72.87912
0.2770576,73.34982
0.45753703,75.54598
0.56970567,83.23027
0.7404681,82.840614
0.80847,84.699615
0.9263189,88.369995
0.9443409,89.83089
1.0477868,94.92944
1.2285671,98.96294
1.1934823,98.52787
1.2955735,104.17777
1.3229032,105.454056
1.2786733,106.559456
1.3795904,108.73926
1.3138726,108.717964
1.4336995,112.24301
1.459635,111.78895
1.4832051,114.46086
1.4818022,114.425514
1.4198266,114.81268
1.4138333,117.23043
1.377046,112.63248
1.4722173,113.10272
1.3481097,113.576965
1.364995,115.743866
1.314302,113.131744
1.3388815,108.951645
1.2149752,112.91751
1.280678,107.43192
1.2250978,108.74219
1.1501646,105.353836
1.1572953,103.8586
1.1541194,100.813484
1.1243169,103.65384
1.0138918,99.09872
1.1215746,96.0348
1.0892673,100.23984
1.076516,95.34364
1.1272227,95.1556
1.0332171,91.92822
0.9939226,89.51975
0.9365614,90.0616
0.9873037,88.430176
0.9670127,82.91873
0.9110237,84.59937
0.89357877,81.775986
0.7670752,80.0794
0.8109285,80.705696
0.70360917,77.21369
0.6828462,75.958565
0.6266852,75.95874
0.65024835,73.27298
0.47737473,75.05679
0.70352656,70.67796
0.568039,68.209114
0.5848505,67.26859
0.57389325,67.925026
0.60915595,64.46784
0.57947344,61.638226
0.48541948,62.402943
0.5048997,65.39046
0.5431714,60.25447
0.5237066,58.753986
0.51799494,59.168076
0.38100106,60.64437
0.40712103,64.05831
0.34442335,57.26444
0.31166196,59.252316
0.26599115,61.577892
0.35690334,63.717785
0.24005362,65.38289
0.21091855,65.80975
0.37692377,68.2208
0.37029168,69.75247
0.57218194,72.94142
0.50597817,73.99166
0.61722445,74.39295
0.6914969,81.193794
0.79361045,82.94154
0.94212145,83.92162
1.110041,89.38657
1.1650492,88.3439
1.2664204,93.7267
1.3918498,92.826385
1.4309444,96.08966
1.5817224,100.205025
1.6173093,103.8745
1.6749532,105.16377
1.6387932,105.68724
1.7278204,108.902756
1.6946275,110.59285
1.75948,108.75979
1.7829088,113.97422
1.7573546,112.94201
1.695774,111.87588
1.739247,112.83701
1.7649904,112.45833
1.7279146,114.812416
1.6787349,113.49783
1.6516598,114.80469
1.5933546,113.91915
1.645976,114.02294
1.6567402,112.05756
1.4939044,109.094826
1.3843554,110.466064
1.4358897,108.383804
1.4904057,104.67559
1.3438083,101.943184
1.3810552,104.12937
1.3677552,103.11899
1.3423806,101.309784
1.3504521,96.862045
1.3200802,95.69209
1.3671262,94.77543
1.2199824,92.75947
1.3287748,91.78733
1.2592252,87.78176
1.2423282,91.537025
1.3343014,87.864525
1.1530932,86.1367
1.104031,83.26839
1.001488,84.21442
1.0845389,80.95698
0.9958652,79.5801
0.9756077,77.225914
0.95303184,77.06396
0.96594226,73.30688
0.87315124,75.02659
0.87655395,72.29723
0.85990345,66.53962
0.85558337,69.090385
0.7815851,69.85408
0.8044878,66.77462
0.790888,66.37744
0.92814887,61.56745
0.72464716,65.42318
0.81602657,59.747375
0.8001283,60.511417
0.7860933,56.843956
0.7522431,60.042587
0.68903166,58.642994
0.6754095,60.75609
0.5955196,60.716064
0.60641915,61.006706
0.45045197,61.699593
0.4747522,62.540573
0.5174255,63.223747
0.5262998,63.603317
0.60013413,66.56964
0.64465255,69.3856
0.6547551,76.32868
0.8526203,75.4484
0.90362644,75.32585
1.0326655,83.02812
1.0654594,80.68623
1.1873707,87.48841
1.3384771,93.09567
1.3800012,91.888885
1.5130628,91.09264
1.6561327,95.59604
1.6177067,96.065125
1.7705855,101.040886
1.8389264,103.20152
1.9750448,106.3325
2.0340347,110.44577
1.9319365,108.77345
2.0041933,111.990555
1.9833448,110.93172
1.9843909,113.2099
1.9949657,114.39689
1.9042752,112.78643
1.9243397,117.06403
1.8963947,112.11959
1.9095144,114.38025
1.8676368,112.97389
1.8198869,109.72597
1.890316,111.68167
1.7189736,109.62277
1.8539656,111.921295
1.6931715,108.27967
1.5678355,108.564
1.638362,105.766884
1.669671,105.816505
1.5991796,104.007774
1.5697521,102.70119
1.5554682,98.89759
1.5276958,98.89408
1.487755,98.01969
1.5863501,95.18638
1.4486629,96.52419
1.5091739,90.65302
1.4510298,92.85477
1.479271,92.17909
1.3042597,88.94209
1.3448882,89.13023
1.2845523,86.89592
1.2593386,85.79938
1.1807293,83.11374
1.1164998,77.7993
1.0617045,77.07392
1.0908957,75.954895
1.0202334,77.77785
1.0436993,73.15604
0.92697287,71.94579
0.95766336,71.23539
0.98735845,68.9073
0.9571173,69.74389
0.8972654,69.279945
0.8482248,66.209465
0.8703732,66.46616
0.87201375,61.533585
1.001086,61.504337
0.8380293,60.584053
0.8307755,61.76349
0.8222841,63.08567
0.680685,60.848793
0.6949842,60.77816
0.6827434,58.29564
0.60447085,61.3707
0.50778764,61.293114
0.5673229,61.907303
0.53065646,61.50005
0.5874397,66.35692
0.5943332,66.0239
0.6499809,67.42763
0.5991812,68.44852
0.78235024,71.49946
0.8818363,72.90891
0.97530687,74.25515
1.0101056,81.330414
1.1620309,80.6485
1.1539606,84.43665
1.3773588,88.43631
1.4315667,93.092834
1.5785235,89.853264
1.6403953,96.817375
1.6779265,99.374016
1.7939389,101.38393
1.8250952,104.2278
1.7988707,102.669975
1.8309284,107.32822
1.850328,110.78297
1.9005934,112.587395
1.8563652,111.3495
1.9074597,113.17693
1.9089743,115.3099
1.8541028,115.42309
1.8679708,116.31768
1.94317,115.8642
1.9289784,112.98483
1.7950475,113.66639
1.7676492,111.73311
1.6607006,113.239136
1.6937666,110.24031
1.6193162,110.22207
1.5881174,110.26833
1.611051,110.23519
1.558121,105.90989
1.5420835,105.99196
1.4128865,103.360115
1.4420444,101.567566
1.397796,97.67521
1.390075,99.825195
1.3674815,97.27761
1.4447755,99.151245
1.3498894,95.35818
1.370176,93.20945
1.3141729,92.69537
1.2801372,89.86471
1.1395997,86.51498
1.2360961,86.75505
1.1393844,83.88662
1.0734625,80.88745
1.0669745,82.1694
1.0043803,80.259186
0.9027351,80.510666
0.86774904,79.035736
0.89276826,74.238655
0.8396724,75.85546
0.80435836,77.67252
0.79888195,71.48115
0.76573694,70.68155
0.75766045,67.54922
0.7401167,67.26014
0.7482016,65.48325
0.66609,63.7546
0.7263347,61.81664
0.6450445,62.855515
0.6685465,62.89806
0.6335098,62.161655
0.5788474,59.001656
0.54024917,62.53394
0.4794121,58.136154
0.49309844,63.149082
0.44998014,59.36797
0.33890724,59.7221
0.39830798,60.929516
0.33263406,62.493896
0.34427875,67.81595
0.39330503,66.386215
0.42815945,70.258484
0.54170537,68.33311
0.49990463,73.15167
0.60911125,74.914536
0.7117242,80.41457
0.8309508,78.17123
0.86246973,83.32424
1.080815,85.2542
1.2074959,88.160805
1.2814333,93.53892
1.328109,96.380424
1.3432685,97.258156
1.4284395,100.65508
1.4850705,103.6487
1.6003876,106.44059
1.6735973,107.562256
1.5895905,109.803505
1.6299424,110.58059
1.6110386,113.00973
1.7211448,109.884415
1.6067877,112.75296
1.6396742,114.382385
1.6282482,111.239075
1.5593776,113.49263
1.6357042,114.59887
1.5962539,113.17861
1.4760191,113.56118
1.4203802,111.90529
1.4704236,116.81358
1.32993,111.0819
1.4196336,110.17662
1.2740719,105.89588
1.3031297,108.70119
1.3056874,106.895355
1.2565018,105.36908
1.1834592,104.79142
1.2098826,102.55639
1.0827361,100.60909
1.1570605,95.003044
1.1488204,95.7118
1.1335406,95.78275
1.2417336,95.588234
1.0886368,92.16879
0.997733,90.31587
1.0163946,88.633484
0.908811,87.31634
0.8419315,84.07151
0.83279663,85.819115
0.8321673,80.79299
0.82468224,82.23094
0.7184227,81.40848
0.6593585,78.17913
0.64919245,78.92735
0.52963793,77.67903
0.572069,76.23649
0.5551121,67.79106
0.4563779,70.06809
0.48725188,70.85579
0.4967075,67.13507
0.48635048,65.10077
0.44471934,67.840004
0.4771415,64.76107
0.4687691,62.872055
0.37333384,61.501995
0.48467332,57.40123
0.37489915,61.42581
0.36346596,61.951042
0.2581469,57.57829
0.21078487,60.02383
0.11393994,61.366837
0.07221499,60.606327
0.09346063,62.020428
0.09718081,65.27535
0.15465096,64.66083
0.16156012,63.76298
0.24755976,68.38469
0.08420483,68.47328
0.19528854,71.78795
0.29937956,75.57685
0.45024303,73.52346
0.39492643,77.6235
0.5556413,79.493744
0.68069756,84.41446
0.86070555,86.562
0.85370195,90.12225
0.9243452,92.50889
1.0212173,94.80128
1.1259415,96.62828
1.200063,103.325485
1.278614,101.60149
1.2683927,101.75243
1.3656725,107.42543
1.3837992,106.686226
1.4728572,107.287254
1.4532669,110.853165
1.4642732,111.6659
1.3761432,111.817276
1.3632028,114.913185
1.4324051,111.18515
1.3791941,114.87591
1.342042,114.80393
1.2771548,114.324425
1.2109902,113.22998
1.2594641,110.66705
1.2451243,112.07151
1.124647,111.080444
1.2116058,111.76535
1.0005995,110.76361
1.0878973,107.73989
0.9900743,105.56178
0.9895256,107.509865
0.9523702,104.40534
0.9854454,101.47166
0.95083493,99.86541
0.95720905,99.23215
0.8864884,97.179
0.9229125,94.20124
0.881269,93.19847
0.9037976,91.53323
0.92401046,88.0938
0.8464719,88.4701
0.7601259,85.84988
0.7344632,85.84066
0.6911714,84.71045
0.6901041,82.501854
0.53129005,81.70065
0.54270655,79.88478
0.46321073,77.642624
0.39291406,78.38192
0.34060356,74.39995
0.37862182,74.68571
0.4093305,69.49653
0.29697913,72.19314
0.3938069,67.617455
0.313486,68.74932
0.358305,69.22654
0.37590152,66.31508
0.3245899,63.878155
0.25408053,64.734566
0.30732098,65.3752
0.24963254,62.515636
0.21271007,59.41804
0.09829716,61.672375
0.086481646,61.971287
0.12056721,59.65888
0.05281333,57.60091
-0.07806987,60.77757
-0.13795646,60.939106
-0.07993603,66.06598
-0.05043093,64.85643
0.10140064,69.2756
0.015209004,68.05925
0.042458072,69.14917
0.120788015,72.04783
0.22741719,74.72737
0.35715696,78.145485
0.3940518,79.89191
0.55757695,82.95778
0.6231527,83.65113
0.7150758,85.87263
0.9192383,89.16482
0.9924288,92.721825
1.1410893,97.1184
1.1085074,97.497154
1.1668513,101.97703
1.1265702,106.3942
1.3070868,102.155365
1.3333986,107.22043
1.4059294,111.17268
1.3948677,112.255226
1.3742563,113.05978
1.4578803,113.480675
1.3723147,111.983315
1.4016916,114.73055
1.4621779,116.61578
1.392039,114.04722
1.3920126,115.46448
1.2870625,116.22167
1.3339913,113.9551
1.2441653,111.09699
1.2368971,108.34999
1.0849353,113.77295
1.2781366,108.1671
1.060022,106.54678
1.0962604,110.6562
1.0035661,103.86758
1.0158718,104.312065
1.0081879,102.64057
0.99156976,95.00879
0.89169484,99.09204
0.9096683,98.81638
0.987534,98.139465
0.8497014,96.275024
0.96871084,95.85878
0.8429931,88.47638
0.8883069,90.4171
0.9182202,91.67642
0.7959129,86.77535
0.726609,88.231766
0.7685152,82.59883
0.6793485,84.35906
0.67563725,83.32005
0.49765745,79.41052
0.5266294,77.97965
0.5103881,73.49605
0.39086887,73.37811
0.5525251,73.40189
0.41272163,70.16366
0.40257704,69.8204
0.44545478,70.69305
0.4261311,66.8129
0.3896798,67.05891
0.42047888,64.77862
0.46350402,62.263737
0.40824756,62.41922
0.39300707,61.40853
0.46994415,62.50931
0.44541252,58.87085
0.3879745,58.435272
0.1733913,58.64756
0.18896422,63.473534
0.30591962,61.145176
0.14074725,62.167866
0.1073215,61.990257
0.08253487,62.06266
0.05813038,64.00115
0.15270168,65.90869
0.10399155,68.40721
0.22814418,71.11273
0.3887043,72.17729
0.43811163,75.54927
0.5263679,74.744095
0.6303277,80.58989
0.81877315,84.07539
0.87450194,84.56079
0.97775406,90.25582
1.078027,90.00912
1.117129,95.97879
1.317023,92.279076
1.3010471,98.71366
1.4840782,103.66924
1.4263369,101.06767
1.4058626,105.893135
1.522031,108.43181
1.558471,106.74762
1.4985123,112.91575
1.5615028,111.11169
1.5961844,113.09809
1.5944805,113.66435
1.5886861,113.00989
1.518306,112.83293
1.5454177,115.21953
1.6198567,112.62026
1.594344,114.70237
1.466689,112.89286
1.4217585,111.59065
1.4899122,113.76537
1.3750644,108.14787
1.3625453,107.406166
1.3256307,107.881874
1.3527858,105.06525
1.3285336,103.97752
1.24905,100.90919
1.2328807,101.724045
1.3125482,98.0642
1.3052423,99.04431
1.1806756,96.61149
1.2741284,95.17678
1.1290646,93.41921
1.2203302,95.01913
1.2037691,91.94295
1.1803046,88.62618
1.1274745,87.51263
1.0269696,86.099045
1.07045,86.75991
0.9310771,84.5127
0.9766167,81.6379
0.9324245,80.49201
0.8515785,74.66468
0.7300094,81.199104
0.63964814,76.795784
0.8149938,74.15173
0.7147785,72.484474
0.7078019,71.26218
0.6847769,69.01701
0.7599245,69.63015
0.74059033,65.5209
0.7253071,66.85532
0.64609945,64.53915
0.68491703,63.084206
0.6830456,60.331104
0.6271235,60.208977
0.61887175,60.87236
0.60136557,59.78061
0.5657498,59.50531
0.4835554,58.118538
0.45354638,59.75109
0.48911232,59.12808
0.42516497,58.30134
0.28060126,61.51816
0.35038674,67.784004
0.39614317,63.130333
0.4287894,65.84858
0.5222359,66.82165
0.5429459,72.05285
0.6544015,71.923615
0.7353499,75.834755
0.7905301,76.09924
0.9419367,79.901794
1.1257154,81.85692
1.1921062,87.892685
1.2370989,90.273544
1.4258835,90.51669
1.4033487,94.1495
1.5009339,95.98787
1.5877206,96.754395
1.6459826,102.241585
1.729599,104.094696
1.781376,108.79867
1.782415,108.44743
1.8110404,107.91798
1.8220576,108.90231
1.871334,115.49485
1.8128916,113.119675
1.7962381,115.96856
1.8637735,115.18818
1.8455064,114.22013
1.8384113,114.17195
1.8176088,116.53044
1.7647936,115.1871
1.7651366,113.58001
1.7203839,111.323135
1.6546109,109.43047
1.6168222,107.78767
1.6253027,109.555695
1.5576434,109.1294
1.5017997,106.33071
1.5745364,106.27798
1.486191,103.397
1.3645134,100.94699
1.5349679,99.02866
1.4921519,99.642876
1.4122992,95.65243
1.4471353,97.36368
1.4444956,92.95541
1.4973878,95.35437
1.3756123,89.29612
1.1907946,89.56143
1.2839348,88.09949
1.2426498,85.72041
1.3058733,87.38012
1.1591629,85.62961
1.1698327,85.15362
1.0638461,80.78449
1.0804648,81.782394
1.0457087,76.20066
0.87372863,72.51758
1.0951796,73.88036
0.95085734,74.09086
0.908779,73.383606
0.9229393,70.29007
0.9473007,69.28813
0.9250557,69.20314
0.89186954,64.38394
0.9347389,64.10472
0.8569962,64.750984
0.9395424,64.92094
0.81264174,62.729763
0.7322387,61.357883
0.6929636,60.542526
0.7146757,59.647194
0.69637537,61.91707
0.6870607,59.241814
0.5988705,60.477737
0.52392554,62.605316
0.61093235,60.578842
0.41130644,64.80191
0.54988927,67.19314
0.4950064,69.59409
0.6641712,67.73877
0.66394454,70.227974
0.85538626,70.431526
0.91558945,76.25023
0.8934206,76.78509
1.0889937,81.40894
1.2600228,84.79989
1.3177502,86.60101
1.4458464,88.60091
1.4891719,94.02802
1.6121093,96.89656
1.7868025,98.1936
1.7113287,100.546974
1.7668024,102.73785
1.8976325,104.936264
1.8466694,106.00017
1.9320054,107.4887
1.9797513,108.26348
1.9152913,110.03183
1.9751898,109.45869
1.9749783,112.337456
1.9189471,116.29134
1.9464881,115.48293
1.9570037,113.829094
1.9564992,114.09195
1.8993034,115.905174
1.9388307,112.44256
1.8611784,112.4578
1.7935177,112.2544
1.8303417,109.49828
1.6903987,110.14924
1.6617526,109.75489
1.6410009,106.61219
1.5826548,102.958916
1.6092157,103.18736
1.5674311,103.327576
1.5214059,104.44316
1.5995958,99.69009
1.4789752,96.84595
1.5143627,97.42575
1.4961001,93.27156
1.417318,92.68705
1.478552,92.077965
1.4779754,89.24808
1.4552195,89.284454
1.3061124,90.67246
1.2470938,84.44038
1.2817581,87.942665
1.2628053,85.71261
1.1620566,81.18841
1.0655507,78.047005
1.1287757,75.14097
1.0247105,75.63594
0.95146185,77.37063
0.8906512,71.81414
0.91209537,71.74308
0.8304334,72.69447
0.8461181,73.67281
0.90255046,67.33492
0.78760093,66.005875
0.8173127,65.74513
0.8220177,63.357002
0.8426438,62.98929
0.8143276,62.38657
0.80128443,62.432346
0.73122984,62.474743
0.69350195,61.375393
0.5904207,59.113983
0.50636333,62.028614
0.6279535,60.309082
0.60570806,61.022327
0.45932612,58.79458
0.45549896,64.89796
0.5886103,64.07036
0.40018252,63.766323
0.47561485,67.3387
0.5761505,69.546036
0.6098862,70.692085
0.74643755,73.75159
0.827652,78.21606
0.9518523,80.19007
1.0547401,81.031784
1.0235164,86.22515
1.2655325,85.478294
1.3416876,88.59867
1.4639474,93.65839
1.4266828,96.77924
1.5960757,100.632805
1.6593854,103.63313
1.7054415,103.96372
1.7207117,108.80482
1.7641599,106.539856
1.9068836,106.69674
1.9284394,110.70532
1.7056317,109.246216
1.7915502,113.065895
1.8073376,114.33637
1.7715018,116.557335
1.8916506,115.81123
1.7189422,111.00603
1.8465112,112.85887
1.6722872,115.234276
1.6519624,112.25068
1.6092567,111.15922
1.6069014,111.552475
1.5487943,111.09583
1.5503143,108.6839
1.5016267,107.82286
1.3956978,105.04396
1.3758149,104.648964
1.3917866,104.50129
1.3557749,103.81241
1.3366307,100.29644
1.3570418,95.92258
1.3813142,97.09395
1.2993647,94.63084
1.3398927,96.34623
1.1960298,93.41723
1.1525677,93.26104
1.2463222,88.307014
1.1730692,85.88022
1.1800187,84.46358
1.0870006,84.456215
1.0078316,85.962654
0.9486769,81.61369
0.82032084,80.63235
0.8117347,80.342545
0.7731824,77.56427
0.70620674,73.92487
0.7385587,76.34195
0.7179751,73.7547
0.55212814,74.0771
0.6194787,71.486015
0.6904381,67.05579
0.556041,68.89705
0.65577734,65.31944
0.71031576,65.7899
0.6610005,66.14076
0.6017726,63.918922
0.5266941,59.424007
0.50834256,62.804718
0.4500201,60.69768
0.3777602,64.44452
0.49298003,61.979527
0.32254028,60.38852
0.36491716,60.34784
0.34637406,60.42147
0.23531255,63.057186
0.1623698,66.53836
0.1392037,62.301075
0.29540285,66.49843
0.28330788,66.86797
0.2774875,70.71956
0.39245152,71.08832
0.54398215,77.502
0.53396326,78.83819
0.64795566,79.5536
0.76677424,80.31798
0.87104696,81.459236
0.95045954,87.289894
1.0056527,91.02325
1.1538286,91.90992
1.259641,96.023895
1.3790249,96.77715
1.396284,99.85366
1.4653212,101.60043
1.4218318,103.28983
1.4760569,107.90098
1.50238,106.28367
1.4760895,110.26746
1.4718366,113.669716
1.5462048,113.42919
1.561056,112.60684
1.5866679,114.90147
1.6191144,113.951744
1.4696192,116.10798
1.4224455,112.16957
1.563474,116.50619
1.4136336,113.45575
1.3718543,115.87024
1.3366747,111.35183
1.2926058,109.77858
1.2151273,112.10038
1.2665943,107.83834
1.135177,107.838326
1.1589665,106.00376
1.1286417,103.76865
1.1055995,102.031296
1.0880477,102.141106
0.9379617,99.83584
1.024496,97.66975
0.93021506,96.097885
0.9516834,91.12065
0.9858551,92.22976
0.92969227,92.05763
0.8039363,84.66399
0.8409339,89.85976
0.85393953,88.48942
0.8117892,82.41311
0.76267093,85.14864
0.6297126,82.989204
0.6870576,82.354935
0.58870965,77.926735
0.4964116,78.62686
0.44508225,75.920784
0.3703821,77.25912
0.47628474,73.87996
0.40141493,71.10679
0.46693963,69.77041
0.41506243,69.05857
0.3796989,67.42018
0.36117637,64.61718
0.3889172,64.035965
0.38191244,64.9756
0.36222902,63.890488
0.3330817,59.55572
0.3031682,60.290478
0.17395632,60.557037
0.26512077,58.881317
0.190047,59.5506
0.047017217,59.47781
0.022133404,63.270317
0.08552761,60.22928
-0.10137216,61.350918
-0.03322867,64.94157
-0.076999746,66.61032
0.058088027,69.23872
0.064678475,66.608055
0.18193227,71.83532
0.20750798,70.3068
0.27308807,76.072624
0.38034466,78.329414
0.49051294,79.81155
0.5338304,84.77697
0.6762359,86.61949
0.72184265,89.072876
0.89309716,90.846504
0.8767474,93.000435
1.0798789,97.25828
1.2106134,100.2763
1.2380624,101.946846
1.2082908,105.71554
1.2935758,107.47495
1.2689924,107.0528
1.3951056,110.539154
1.378305,109.26622
1.4352531,107.55068
1.3793836,113.78385
1.3765253,114.396675
1.4373271,111.7479
1.3213814,115.95363
1.3555917,114.69698
1.3585931,111.70159
1.2756191,115.34636
1.3592765,115.175995
1.2435751,113.13873
1.1631818,111.35768
1.1782484,110.58289
1.083121,107.07035
1.0881991,107.20502
1.0800706,107.58745
0.9818438,105.84568
0.97213566,100.50707
0.97811073,98.342224
0.91448456,102.61787
0.8665076,99.01362
0.88520855,96.502266
0.86302656,95.63642
0.951933,91.8186
0.86007535,92.02427
0.83791226,90.99532
0.9005519,89.489975
0.8530498,87.22556
0.7747469,85.15532
0.50297165,85.35583
0.6814893,82.08436
0.60366136,81.79898
0.48875445,79.37854
0.6017238,80.86534
0.42880017,76.57578
0.42381585,74.065056
0.3365935,73.13202
0.41547638,73.75595
0.38513646,70.734474
0.25002226,71.95563
0.30325872,66.43989
0.31641334,68.5083
0.33652002,65.75685
0.36011466,63.874172
0.3309617,63.584347
0.34168172,59.356728
0.22044307,58.73214
0.23019567,62.320316
0.2578913,60.761856
0.10699884,62.556725
0.119157806,61.138573
0.11383357,59.618706
-0.008017995,59.885918
0.05382434,59.457977
0.022044854,62.602074
0.008317766,64.0221
0.0817131,67.79239
0.032874744,66.19747
0.0902403,70.22858
0.1124283,73.27552
0.20673488,71.331955
0.2864643,74.652695
0.40294,78.735115
0.5828792,79.16443
0.5860472,85.55965
0.6984198,87.31275
0.86303127,88.21358
0.96530974,89.97671
1.0733371,96.57345
1.2218143,99.117096
1.1937673,100.7881
1.233823,103.7055
1.4418402,105.63344
1.3673787,108.27429
1.4316248,108.3956
1.5005063,107.447
1.3616515,114.303215
1.4398028,112.28541
1.4637061,112.3012
1.3964518,114.23566
1.4104774,115.53064
1.3924372,116.99056
1.4722514,114.54491
1.3050032,114.74833
1.3310299,115.47722
1.3953254,112.91946
1.3564374,113.509026
1.3345408,110.16607
1.2078019,110.06903
1.2235647,109.979485
1.1454799,103.90301
1.0859977,108.176956
1.0400983,103.07821
1.0480715,102.946236
1.0446359,102.87584
1.097547,99.6023
1.0657119,99.5714
0.9956487,97.45626
1.0373815,96.71911
0.993113,92.12814
0.8585905,95.30013
0.99148357,92.99556
0.9324578,88.004456
0.8739821,86.99557
0.9464496,86.816086
0.7669195,87.812294
0.6558448,81.57503
0.7133373,81.120056
0.6927006,80.47513
0.5837432,79.442215
0.6358715,77.860085
0.6528992,76.43776
0.5867746,74.70062
0.54146385,73.01865
0.4654524,68.40008
0.56372756,67.20635
0.5070077,71.62334
0.6087445,66.9278
0.53166074,63.04161
0.5145459,64.190956
0.5748879,64.67436
0.43875945,63.143394
0.37048858,59.399483
0.41582042,57.990578
0.49372938,60.39621
0.339241,57.525166
0.31374398,60.330666
0.33270574,59.64091
0.20986982,59.80549
0.24575368,62.701485
0.2423273,61.188274
0.25545645,65.35851
0.28676087,63.723404
0.29362515,68.742226
0.3584564,72.02664
0.3494576,72.94017
0.44567433,75.81324
0.6248955,77.80588
0.6240125,77.15433
0.76421815,82.70037
0.98842233,86.4244
1.0495578,88.755585
1.1681372,88.724045
1.1764057,96.0006
1.2935966,94.774216
1.4729464,97.45656
1.5006506,101.3147
1.5686631,103.19668
1.4845865,105.23545
1.6017573,105.802055
1.6647534,110.592125
1.6593326,109.354416
1.6015518,112.27876
1.7059717,111.4321
1.6630868,114.22536
1.5907488,116.06137
1.6704322,110.997986
1.7450597,114.82385
1.6146361,113.738464
1.7127187,113.02144
1.6212875,109.35449
1.6486411,112.44301
1.5176388,112.869545
1.4928883,110.55885
1.5130982,109.25409
1.4807222,109.78517
1.4861503,105.919754
1.4391823,109.451584
1.3656845,105.777794
1.2553091,103.90309
1.2943728,99.96149
1.2780622,98.67639
1.3047043,94.947014
1.3251199,98.59649
1.4077101,95.1632
1.3150275,92.13259
1.345021,91.31795
1.3232954,89.64663
1.3031912,87.64027
1.2125256,86.49028
1.1676321,82.17844
1.0015529,83.81094
0.9665778,83.11883
1.0605451,81.41582
0.95019615,76.65952
0.88751847,76.82881
0.8804452,75.77059
0.8403907,74.92245
0.85531205,73.09865
0.7661755,71.36199
0.83047825,69.29297
0.70301265,69.08472
0.8795729,64.70016
0.848779,66.76376
0.81261647,64.86295
0.90182525,63.252934
0.7696377,64.14558
0.7265307,64.727486
0.7003554,60.754936
0.68399197,62.724316
0.66398454,58.47815
0.6238311,60.736736
0.47677237,65.475174
0.5523143,61.291832
0.473639,59.48622
0.515584,63.232918
0.4401846,61.64992
0.45827067,66.6993
0.49157482,67.81338
0.47085097,71.281006
0.5150816,68.71193
0.5774889,74.710815
0.81135195,72.88072
0.92339647,74.22007
0.9968602,76.62599
1.1287466,81.89689
1.1774071,85.46475
1.2300255,90.01157
1.410527,90.43122
1.4900517,94.01291
1.5643255,95.32864
1.751873,99.742226
1.6636249,100.73929
1.7271128,101.25809
1.7822171,106.5693
1.89163,108.53881
1.9099993,106.836365
1.9561993,110.63165
1.9332175,111.9648
1.8982325,113.59116
1.9588087,112.243835
1.9310567,118.581215
1.9571532,114.31266
1.8886145,113.655106
1.9006569,115.794975
1.8991984,112.499344
1.8157033,115.14331
1.7108651,112.32883
1.78569,110.204
1.6187805,112.55665
1.6325138,107.65586
1.6565846,106.8294
1.6377835,105.50085
1.6347305,105.433075
1.4590703,105.13074
1.5167351,104.153175
1.5239122,102.77438
1.5496193,98.52136
1.598266,97.33634
1.5003124,93.2348
1.5058748,96.015305
1.4869952,92.5944
1.4473356,88.58451
1.3868077,92.87189
1.3923576,87.36467
1.4197284,86.835724
1.2776276,87.46737
1.1102257,83.242714
1.2533646,85.18152
1.1824348,83.82372
1.1294359,76.68088
0.984097,77.966736
0.9413032,77.69157
0.8635635,75.63564
0.9942701,75.15398
0.9173403,70.081696
1.0256097,71.72887
0.93964154,72.20962
0.9207924,65.09939
0.9257035,66.51599
0.9336245,63.992126
0.991651,62.35651
0.932131,60.966667
0.8084425,60.571434
0.7537685,64.427284
0.875939,60.262608
0.78348297,58.396683
0.7513137,63.892757
0.6308775,60.052547
0.5784001,57.745964
0.6328677,61.715508
0.5727567,61.25527
0.511615,64.496346
0.55892557,66.078964
0.5989736,65.502495
0.63993305,68.08557
0.62356544,67.482574
0.77758896,73.6552
0.8069926,74.09665
0.9919561,75.01076
1.1123774,80.82847
1.1635997,83.57027
1.3039296,88.22817
1.3759252,86.52823
1.4185755,92.87332
1.5091431,95.20202
1.6414013,97.03454
1.610636,102.20273
1.7984263,103.569466
1.7839863,104.420105
1.8230752,102.31233
1.8670803,108.24926
1.9423038,108.05666
1.974455,113.37693
1.9826648,115.872055
1.9341933,115.04549
1.9739804,117.148796
1.9296786,113.83001
2.0064552,109.83395
1.8437546,113.057
1.8165283,112.87874
1.7987242,113.59479
1.7401454,112.96596
1.7288569,110.827095
1.7962356,109.8965
1.6404521,111.356575
1.5998286,107.8666
1.5591263,106.40285
1.4629812,109.01162
1.5439157,105.09097
1.4383166,99.591896
1.4635171,100.59563
1.5568653,102.3039
1.4445165,100.022896
1.4215266,93.6042
1.4565967,96.38671
1.4339186,92.6249
1.3311431,94.72934
1.3533773,89.965485
1.3751129,88.95524
1.2794039,87.0923
1.29564,83.6886
1.170162,84.31362
1.050511,84.0636
0.9461732,82.68023
0.99542314,80.04762
0.96447533,77.07701
0.9684303,76.79859
0.86630666,77.119934
0.8826502,74.5826
0.7852499,74.04626
0.80937684,70.48781
0.8331658,68.928215
0.8476944,69.79095
0.77854425,65.18231
0.78107995,68.251915
0.7637485,64.495605
0.67160755,61.638035
0.7057443,62.523537
0.6972206,62.166653
0.67604566,59.32
0.6108869,59.527378
0.5771249,58.678066
0.5587977,63.10528
0.4787759,60.11045
0.4010175,60.63444
0.38695818,64.513535
0.41296956,61.624416
0.40127015,69.02403
0.40303847,62.738415
0.3798015,67.19128
0.47291675,71.68374
0.5007938,67.52965
0.676103,72.41303
0.64412844,75.84443
0.8615562,75.364494
0.8673412,83.25516
1.0097926,82.60521
1.1311691,87.22935
1.1611062,90.17131
1.4233341,91.56752
1.4016008,95.14281
1.433051,95.91784
1.5202857,99.6966
1.5930718,96.66859
1.6675893,101.81115
1.6667084,107.84837
1.6797396,109.23801
1.7161436,108.26489
1.7064866,112.70463
1.840331,111.30563
1.7058471,112.58007
1.6613301,114.72553
1.6145473,116.7958
1.6322033,114.42937
1.6784269,115.38372
1.6420792,112.224976
1.596243,111.02535
1.4402094,112.840195
1.5493367,109.67714
1.4869071,109.564316
1.457156,108.818794
1.3351281,108.24152
1.3477817,107.03469
1.2955256,104.59423
1.3512706,103.37306
1.1705015,102.589195
1.2545685,104.614716
1.1822957,97.43297
1.1917845,98.39389
1.1688126,96.133064
1.164949,95.313416
1.1576242,93.663605
1.1022747,92.225334
1.179016,89.937004
1.0605211,89.02868
0.98507404,87.37574
0.9595543,84.98653
0.92502326,84.32739
0.7808116,83.516304
0.7533747,80.31012
0.723681,78.67144
0.62522596,78.084854
0.67518157,78.2039
0.54784966,74.253586
0.6474771,73.86251
0.58803666,72.81586
0.4979104,70.76584
0.4831038,70.95631
0.5455052,71.142746
0.46314338,64.52
0.5472217,63.500973
0.49728805,62.96909
0.45953727,62.976364
0.39479384,63.899883
0.41140622,59.933575
0.38324228,60.070156
0.3340709,61.966434
0.33870316,61.67395
0.26329082,56.633823
0.22874646,59.741283
0.20530623,59.680706
0.16398709,59.571854
0.06599461,62.80218
0.07185565,61.595955
0.15963659,66.83552
0.16319582,71.90871
0.14306992,66.08286
0.31603768,71.31421
0.31712246,74.05334
0.29660043,74.1987
0.52959675,78.10224
0.66376644,82.100845
0.6918168,85.17114
0.83312935,88.76887
0.96715665,90.50787
1.0779651,94.87863
1.1412776,96.70835
1.2832808,96.90133
1.2465031,99.06398
1.3008767,102.57659
1.4084316,106.27382
1.4674232,105.1057
1.3783581,107.35568
1.491022,107.24421
1.382565,109.367645
1.4638629,113.98728
1.3269621,114.07097
1.4254478,111.7657
1.3786179,116.2233
1.400803,114.93496
1.365081,114.59626
1.3528627,111.24306
1.3315381,112.25538
1.2506499,113.73465
1.2120501,112.67154
1.2570081,111.038246
1.1145843,109.65046
0.99761665,106.70394
1.0709226,106.70021
1.1183547,105.77183
1.0634596,104.996635
1.0593215,103.04081
0.9931833,99.30777
0.91963685,100.82083
0.9703852,96.30506
0.9519467,98.66094
0.88145554,95.77139
0.85603434,92.388054
0.94894326,92.78547
0.82003033,88.51853
0.9479745,91.890144
0.7683354,88.94661
0.70616895,84.415855
0.6744673,82.87109
0.6915634,83.05055
0.5946563,80.12025
0.612036,78.38946
0.51298565,79.89016
0.39420342,76.481
0.38686186,75.83746
0.37785208,72.57026
0.25985265,75.828255
0.32034588,68.23968
0.35633227,70.84479
0.3283661,67.58019
0.28935426,64.289055
0.24738796,64.12579
0.34793845,64.863174
0.2855102,64.22926
0.3014262,63.761253
0.27358317,64.51735
0.2149125,59.95523
0.15201013,58.232517
0.17551813,62.143295
0.022907997,60.783566
0.007894057,63.005672
-0.013292128,62.50747
-0.079294674,61.48484
-0.10943448,62.506256
-0.049766675,64.80434
0.02329068,67.565544
0.090093985,67.10514
0.0151321,68.666275
0.17254116,72.88328
0.3078746,74.61165
0.3252461,77.22757
0.36417598,78.05282
0.6219011,80.77942
0.7008313,82.301186
0.7380908,88.672585
0.8965814,90.94733
1.0552088,91.54285
0.97810656,94.8813
1.1717011,97.9852
1.1898156,99.9284
1.1724409,103.59697
1.2367429,104.025215
1.263535,105.27034
1.370179,111.610695
1.3697422,111.12276
1.3375791,111.97422
1.4171613,115.85296
1.3631653,112.92514
1.3120505,113.136925
1.3416686,110.6166
1.2549372,117.36189
1.262087,112.73338
1.2858424,113.92641
1.1786063,114.819244
1.2898355,112.47336
1.1846795,112.21168
1.1854604,108.24381
1.1393061,110.22908
1.0823948,108.062454
1.0492984,105.26206
0.9957992,103.83782
1.0076314,101.97988
0.9424063,100.51973
0.9443057,100.33503
0.96349317,101.124275
1.033412,97.83306
0.9265853,92.645706
0.8764511,93.28598
0.87093717,92.92817
0.78163034,93.41545
0.80453765,90.7998
0.81275797,87.021515
0.6738914,86.758316
0.71156645,85.438705
0.70388377,83.074844
0.5568803,79.16286
0.6446046,77.9803
0.52052045,78.45773
0.45827514,78.500496
0.471134,76.38887
0.42553878,76.43257
0.39150566,74.45867
0.4114294,72.66442
0.3896146,73.062935
0.36234212,67.97067
0.36622176,66.17163
0.39628074,65.55608
0.3879481,63.47392
0.3554599,62.48657
0.41318083,62.25296
0.34216133,61.0155
0.25922066,63.65222
0.36160538,62.609173
0.2525074,61.21513
0.21300657,60.31705
0.10594507,59.62207
0.0926765,60.667
0.10433815,60.777294
0.018285558,62.838753
0.0059969397,65.08545
0.058758132,65.582184
0.08509336,66.69296
0.13799702,66.78885
0.23394771,67.9525
0.2881718,70.23847
0.4374124,74.63442
0.5024539,77.005714
0.6300144,82.13619
0.7163914,81.10225
0.8863649,87.47531
0.9391977,86.36497
1.113165,91.388245
1.1679698,94.70199
1.2258021,95.57992
1.1886433,100.62991
1.3029802,101.98131
1.3995984,102.270386
1.5229939,107.09205
1.5374639,110.61273
1.4210908,109.691956
1.437345,112.5954
1.5648814,113.16823
1.4821403,117.163635
1.5283687,109.65543
1.6324515,112.11746
1.5847919,113.63878
1.5113688,117.09226
1.4782401,115.37217
1.5414162,114.924194
1.4424244,111.45082
1.3759364,113.19778
1.334139,110.833664
1.3732067,113.93457
1.2463325,108.107834
1.2728243,104.33971
1.1723826,107.705154
1.2619835,104.408585
1.1735817,104.78334
1.26318,102.56401
1.1085707,102.07716
1.2552421,99.48035
1.0731909,99.13403
1.1208098,96.57049
1.0245891,91.843
1.1199908,92.320465
1.0796803,88.843285
1.0803735,89.669754
1.0220008,90.29877
1.0729585,86.33339
0.98149604,83.15705
0.96229714,82.50871
0.83858204,84.450455
0.828442,80.60486
0.8607109,81.50106
0.7342003,77.51823
0.67784196,75.473526
0.59057754,73.50596
0.66172016,71.58599
0.6478849,74.1678
0.6630528,69.152466
0.6635764,67.669624
0.6144425,68.23321
0.70401496,65.72306
0.6257699,64.13839
0.67898977,62.690174
0.65102595,63.2435
0.5684347,60.443493
0.725479,62.553253
0.4790053,60.321957
0.4038432,56.785995
0.4159976,62.37624
0.5031825,61.653908
0.41966358,60.463333
0.3306853,58.731167
0.44735688,64.71333
0.3783346,64.62327
0.33743867,64.5432
0.3924242,65.55085
0.34346867,68.65733
0.45890275,72.47656
0.5490296,76.199326
0.71494454,76.19448
0.68823665,76.50773
0.92283314,81.38777
0.93462265,82.361115
1.1214051,89.38849
1.2034988,89.65627
1.4066046,88.598
1.3448143,94.43081
1.511595,98.61441
1.6916631,98.49237
1.6176555,101.97675
1.684989,103.542
1.6908664,104.69346
1.8624678,109.58958
1.8970033,110.04622
1.8213965,111.90913
1.852387,113.239204
1.8448697,114.826675
1.918061,113.89076
1.8463428,115.55323
1.8710448,112.05586
1.7354676,113.21746
1.7531825,112.718636
1.7229527,113.92221
1.7775499,114.73315
1.6890165,113.0746
1.6278803,112.733505
1.5314316,110.80088
1.6006347,108.85269
1.5406427,106.48759
1.4922478,107.16779
1.5921555,104.440575
1.5011925,103.38368
1.4912663,101.800934
1.4484061,98.59269
1.4548088,97.00195
1.3650569,98.637146
1.3702742,91.61524
1.3415602,92.10584
1.2732656,92.5289
1.4085803,90.45513
1.2478207,89.60418
1.3061129,83.74601
1.2840223,85.21797
1.2562691,82.66818
1.1562241,83.71622
1.1343,81.92978
1.063736,79.86299
0.96359175,78.96805
0.97139055,75.23946
1.0093904,76.37095
0.8871013,70.74804
0.9155565,71.71684
0.9165503,68.37248
0.9530024,68.347885
0.8234493,64.130775
0.86654055,63.626667
0.9138953,63.50643
0.87797236,63.983147
0.95789105,60.457775
0.8306571,61.846077
0.7730422,63.064346
0.8175071,63.3115
0.7513377,61.92178
0.6948182,60.46512
0.64385486,62.682148
0.60692096,62.549156
0.5333595,63.19152
0.545884,60.43939
0.49326503,62.990555
0.4171914,63.89802
0.50551105,67.33978
0.5310116,68.39134
0.6987384,67.29713
0.75072175,73.794975
0.7973558,73.29313
0.8210817,77.910255
0.99016625,79.524376
1.1204767,80.99836
1.2343768,87.66419
1.2999425,88.16825
1.4516867,92.10575
1.4358742,94.59904
1.7098911,94.6336
1.7114046,97.84786
1.7985556,102.56595
1.8327744,103.280106
1.9401288,103.70569
1.9319862,106.330215
1.9364672,109.18854
1.9273807,110.242744
2.0122316,112.089485
1.9195265,112.17954
2.0472744,112.82702
1.9642287,115.242226
1.9974028,112.484634
1.9763739,111.15083
1.8587518,114.76427
1.887454,110.66304
1.8051437,115.51876
1.8323278,112.88842
1.7278113,113.60218
1.7183611,112.53161
1.6739165,108.66981
1.7641281,110.09173
1.6750678,109.05574
1.6440088,104.991486
1.5317585,103.16418
1.5584512,100.612526
1.5595846,103.51746
1.5951769,99.19464
1.4975064,97.492
1.4014585,97.61863
1.4963067,95.26373
1.3905079,92.96083
1.481265,91.52065
1.4218714,89.70346
1.3627931,91.62733
1.2902578,87.06787
1.3580685,88.020195
1.2438797,87.345345
1.1250249,85.97946
1.1697129,80.314896
1.076398,79.432465
0.97449034,76.93448
0.99511725,75.74121
0.9529852,75.59286
1.0187013,75.22407
0.97740835,69.297325
0.8804155,70.548615
0.88495284,70.75618
0.8732915,70.00468
0.8687241,64.6431
0.8615938,66.78202
0.8792622,66.159744
0.90457165,64.0735
1.0299774,59.41561
0.7744209,60.77952
0.75256985,56.901688
0.73485833,62.398342
0.6221702,57.006657
0.5660438,62.81526
0.56593585,62.784554
0.5259762,60.799156
0.521886,61.842896
0.5184754,64.67914
0.4900816,63.46066
0.4888804,70.22749
0.50283563,68.742134
0.6686119,70.94033
0.7648864,70.928825
0.8627836,72.66229
0.8501693,76.478096
0.8710175,78.22784
1.0779327,81.056114
1.2136456,84.54502
1.2449822,86.54179
1.321536,90.53169
1.5017983,95.88118
1.6182982,96.880394
1.6963342,97.7782
1.7425941,102.21816
1.75392,105.11739
1.7812698,103.85207
1.8711601,106.66725
1.899095,110.24959
1.8059736,109.118164
1.8575822,110.68437
1.8582823,114.23234
1.8782815,111.22855
1.8182184,114.24973
1.8367351,114.20235
1.8119234,113.37122
1.894481,116.27594
1.6564255,116.485466
1.5759757,111.335205
1.6778735,112.19709
1.6300867,111.46353
1.6094828,110.242355
1.5635271,110.44622
1.4140779,104.72799
1.4237922,111.64821
1.4973521,104.70134
1.4005079,104.79042
1.3952385,102.18256
1.3188322,97.25382
1.3140107,94.06569
1.3219047,98.644554
1.3019567,92.520195
1.2859573,96.78137
1.3175946,94.97092
1.2247777,94.04531
1.3126427,88.195404
1.1788979,87.430244
1.1817307,87.25079
1.100045,81.77647
1.0985335,81.23051
0.9870427,81.48701
0.9107083,84.537544
0.8962201,77.15502
0.86023337,74.19678
0.907509,75.8756
0.6973746,72.97001
0.76864225,72.81471
0.71395755,72.40153
0.76016515,69.4966
0.74419266,67.4918
0.733024,67.38359
0.759455,66.32177
0.73247665,63.57229
0.67667484,65.48589
0.6534356,63.8416
0.6324551,64.08998
0.5636594,61.452152
0.49380398,61.61165
0.4607719,60.428158
0.45672485,60.09054
0.33611548,60.3765
0.35111722,58.74679
0.3561801,61.778973
0.34500703,62.12944
0.33916014,63.21337
0.23287986,63.002205
0.29374915,64.787254
0.32932252,71.75422
0.43640342,70.46325
0.4154619,74.070465
0.5612946,75.329956
0.64871854,75.36869
0.77817285,81.498184
0.8374184,79.10922
0.9292602,84.86851
1.1086847,90.51329
1.242855,91.84648
1.2292519,96.63667
1.4375442,98.133316
1.4819235,100.73965
1.4757577,102.19293
1.5108218,104.892586
1.515649,106.271324
1.5420226,110.1541
1.5909133,111.28398
1.5444344,111.65596
1.5973786,111.63879
1.545283,112.33022
1.4814997,112.43599
1.6282563,111.80943
1.5856684,114.21957
1.5535465,116.23467
1.5653492,116.07537
1.4501668,115.26016
1.4588233,114.49463
1.3882165,113.68692
1.3454025,108.41194
1.3150742,109.811226
1.351762,109.75394
1.2460382,107.26326
1.2316582,104.96077
1.211151,103.274704
1.1633221,103.169365
1.206414,100.64874
1.1811761,98.5607
1.1617225,97.23134
1.098632,96.636955
1.0059804,93.964966
1.0044839,95.2347
1.01347,93.22912
0.9380942,91.137985
1.0022571,90.02205
0.9151896,88.99354
0.9110655,84.15897
0.718242,82.97163
0.6321704,84.89572
0.7195401,80.0542
0.6690532,83.40887
0.5168892,79.09422
0.59089506,74.637085
0.6832202,74.16528
0.38527173,75.662964
0.5368866,72.159004
0.5357252,70.81782
0.34598342,66.826614
0.32342172,70.27931
0.42685044,68.00838
0.5183593,62.59473
0.4480596,64.66971
0.39639175,63.01449
0.34408844,62.167828
0.39107057,62.37515
0.32641244,61.84144
0.22562908,61.699223
0.28821325,58.775776
0.2975319,61.972412
0.19381495,57.813995
0.020676922,59.516506
0.0029947294,62.143578
0.067760035,60.724716
-0.033406846,61.220913
0.06250691,66.36074
0.07505446,69.68716
0.024261579,70.36677
0.19945268,70.55303
0.28484026,72.89553
0.38347346,73.468216
0.3642269,75.394615
0.45954803,82.55464
0.69289535,83.85802
0.77208525,88.19855
0.7938723,90.08615
1.0013841,91.4957
1.0934749,93.17789
1.1408807,101.061165
1.2844352,98.98125
1.3137578,99.85195
1.3430414,105.62186
1.4288824,108.23996
1.3238919,108.29146
1.4962336,107.060905
1.2785852,112.744606
1.3989592,114.5868
1.4817402,112.38606
1.411311,114.83706
1.3620999,115.558876
1.3172565,114.45168
1.3261858,118.778656
1.3660321,117.05633
1.2659147,113.34254
1.1664641,112.29422
1.2399188,108.759514
1.1412874,110.7986
1.0901731,109.41501
1.1152605,108.96175
1.079026,107.44459
1.0320256,103.06416
0.9647299,105.79796
1.0549526,101.053055
0.9854395,103.36932
0.91193664,97.14218
0.89435494,98.75259
0.9495262,96.77021
0.88468665,92.56809
0.93086594,92.67917
0.82003677,90.775185
0.7875257,89.05418
0.7519856,90.79598
0.8331576,86.45089
0.7070538,83.1306
0.6737792,82.040474
0.5535008,82.8976
0.5414547,77.991936
0.48163676,80.07336
0.42815387,78.4899
0.39092797,76.94774
0.3495413,73.86257
0.4575154,72.09494
0.3545168,73.47303
0.2990038,68.67526
0.46325245,69.19318
0.31746787,66.5597
0.2885875,67.7411
0.29016852,66.01389
0.26858142,62.655262
0.35079867,64.21709
0.28595337,62.802296
0.2678321,61.017086
0.18697043,61.600418
0.18523666,59.868755
0.14126724,61.047184
0.119277515,58.79847
0.015928,61.46117
-0.07537483,62.048122
-0.08043556,60.239185
-0.008783295,64.485886
-0.053217597,66.3203
-0.01429688,68.58498
-0.036589496,65.31683
0.08925336,69.29056
0.1326064,71.49766
0.22312482,76.4736
0.35837454,78.68366
0.44993,75.34006
0.549186,84.73278
0.70003945,85.19945
0.7186149,87.91284
0.8319801,88.581696
1.0566256,91.0118
1.0725547,95.265625
1.1184157,97.62095
1.2498443,97.14014
1.2243365,102.885376
1.3247112,105.437126
1.452682,109.53371
1.4197878,108.74358
1.4091351,111.958244
1.3579968,110.89396
1.4874086,111.35545
1.4640493,113.99961
1.4120567,113.07271
1.4606357,112.84724
1.4091628,115.263275
1.3590062,112.19855
1.3561474,112.66371
1.2712822,114.95291
1.1503594,112.06376
1.211577,109.32469
1.2023767,112.414345
1.1074882,112.120865
1.1767521,109.25185
1.0412518,105.68399
1.1151017,104.45785
1.1483028,101.54922
1.0010138,102.838776
1.0549331,100.34194
1.0911841,99.53751
0.9598478,99.494385
1.005241,97.84938
0.9869454,95.127144
0.92101294,91.21248
0.87784284,91.62624
0.9900712,90.251686
0.97359365,88.07279
0.84974146,88.83036
0.77538985,85.346054
0.8141996,86.14295
0.7684391,82.01415
0.6569894,80.416664
0.6653357,79.19461
0.61663413,79.18731
0.61695343,75.24594
0.4874003,75.689384
0.5247025,73.87648
0.43597668,70.26999
0.4379117,70.133514
0.46689525,68.30847
0.47281733,67.59908
0.466248,65.15445
0.45780483,65.58198
0.42662162,63.97795
0.45804077,64.41265
0.46593344,64.00825
0.51743156,59.964245
0.40339178,61.83699
0.35646817,61.06919
0.35098618,61.518517
0.27029908,61.12051
0.26961213,60.635483
0.2506361,63.482887
0.18277791,63.34477
0.23532401,63.692474
0.14641659,62.784103
0.12125743,67.34698
0.2563059,68.641365
0.3345939,68.941
0.35618785,72.41363
0.51487094,76.80993
0.51561767,75.26503
0.74201816,79.5474
0.74758124,82.618195
0.8612136,85.580124
1.0237064,88.59137
1.1198837,90.97604
1.2158599,91.23976
1.2923142,97.63609
1.3596244,100.51255
1.3717663,101.57059
1.458541,104.316475
1.5747838,104.22972
1.6660341,106.0418
1.6089574,110.78045
1.6965189,106.37371
1.723496,109.602066
1.6760356,111.96472
1.6945939,111.52446
1.668007,113.9983
1.6862377,116.088234
1.5868269,115.51224
1.6309884,114.36752
1.6041712,113.16256
1.5171748,111.42919
1.5282595,108.74433
1.5280619,112.3562
1.4093952,110.43772
1.4216558,107.526054
1.448783,111.82954
1.335055,106.606285
1.3968911,102.63261
1.403168,103.61652
1.3131522,104.040955
1.2915454,99.64095
1.2849274,98.57317
1.2709589,97.552635
1.2522641,97.80887
1.2921791,95.83776
1.252971,93.29628
1.2430973,92.077194
1.1671022,91.02574
1.115045,86.6921
1.063859,88.25739
1.069612,85.832535
1.0716659,85.9337
0.87812376,80.824425
0.94583905,80.64382
0.88862026,80.909164
0.83253264,78.083755
0.9196669,77.31995
0.6944565,77.00782
0.771859,71.458565
0.82989866,72.60146
0.7649416,73.16624
0.7513219,69.75702
0.8022456,68.8653
0.6971804,67.66987
0.8031821,66.182785
0.7198127,66.663124
0.739729,64.49364
0.68113333,60.7084
0.656952,60.165314
0.6286855,63.26168
0.678701,57.61766
0.5628384,61.051216
0.6061741,60.28183
0.49006602,61.972157
0.3845559,60.322746
0.4400715,61.594715
0.35782337,63.05342
0.45267498,63.794914
0.4954108,66.38981
0.46722445,68.03574
0.5757661,70.74357
0.68435323,72.35992
0.74146825,76.06021
0.83557016,77.30489
1.0131401,79.36275
1.2071509,82.93837
1.1730629,84.839516
1.2656027,85.79657
1.4113793,91.08736
1.478792,94.77223
1.5634999,98.055885
1.6354508,96.68891
1.778207,100.89046
1.7288487,106.667145
1.7536852,105.54272
1.8103501,104.858604
1.911131,108.57513
1.8836579,110.280365
2.010556,111.72948
1.8737127,112.50884
1.9124974,114.36701
