ppg,abp
1.0118364,76.91636
1.1722761,80.52433
1.1599588,87.06473
1.3252524,89.954445
1.3584872,90.353386
1.4970953,93.040146
1.5567325,103.20029
1.4980475,103.25677
1.613465,105.3151
1.6904022,109.00902
1.708617,118.93319
1.7276003,114.48008
1.6609749,113.66237
1.7032223,116.79804
1.6775224,117.506226
1.7403882,119.27973
1.6492885,116.90396
1.6898211,116.261856
1.7133416,118.54425
1.6498634,116.958015
1.5480002,115.05177
1.6191995,110.622154
1.5894494,113.26649
1.5537803,112.97207
1.4038733,111.570244
1.4430864,109.2874
1.366163,100.568665
1.3221844,103.74384
1.4053605,100.09221
1.3906014,99.46898
1.2690806,97.54917
1.3720012,93.73697
1.242502,89.58472
1.2895638,88.763504
1.3974966,90.13809
1.3345342,86.90148
1.3329049,82.97988
1.2876409,78.52629
1.2747822,85.41756
1.2093599,77.66606
1.0793502,72.74438
1.1102722,73.40678
1.0987147,71.16827
0.9819246,64.681885
1.0418822,69.886284
0.9354763,63.29314
0.8860629,63.14049
0.77405214,59.68206
0.9817412,57.816315
0.7632495,54.59496
0.7662875,53.694218
0.8201577,47.989697
0.7291526,49.959576
0.7928325,50.511486
0.74024916,47.62847
0.7911396,43.706223
0.76024264,45.255306
0.84809065,40.0
0.75718135,40.0
0.76432073,40.0
0.77990806,40.0
0.71738964,40.0
0.6193799,40.0
0.54641724,40.0
0.4777999,40.0
0.557565,40.4277
0.48734793,40.0
0.46060905,40.58092
0.44714397,44.440407
0.54875493,46.02952
0.49302533,48.46535
0.5777266,53.278534
0.71314126,54.852505
0.823456,57.37672
0.8558143,60.67693
0.94313943,62.549
1.1045611,70.915405
1.2297072,73.765625
1.2732841,75.7447
1.4564395,80.78833
1.5609121,82.32043
1.5946146,91.72722
1.6643234,97.22664
1.8272247,98.02897
1.8095078,97.86984
1.8261404,104.00547
1.8377783,107.133354
1.8133801,111.48904
1.9020997,114.546646
1.9617804,107.24167
1.9860471,117.976326
1.8735703,113.52428
1.8974329,116.291435
1.9215145,116.5328
1.9323115,117.16699
1.9266387,119.22446
1.9030201,115.51391
1.7247385,114.294014
1.7625015,117.85916
1.7602935,113.7295
1.7145977,116.56855
1.7059406,114.88471
1.68204,109.04127
1.6916422,109.13815
1.577665,106.24899
1.6567441,104.99672
1.5608816,105.35085
1.6530813,95.6746
1.4366579,99.953835
1.5971316,95.66421
1.480283,97.11581
1.5414342,92.55954
1.4899817,88.552826
1.5239697,87.70272
1.4929482,82.34834
1.4667099,77.77485
1.2979693,76.43213
1.3295004,75.73432
1.2995774,73.23371
1.1966585,74.084114
1.2292355,69.85759
1.1981858,67.27449
1.23769,64.96389
1.0307751,61.814682
1.0173602,57.004623
0.97680175,59.82669
0.972792,53.923992
0.90692365,52.31005
0.9796834,53.32815
1.0029004,52.476753
0.93684113,47.49938
1.0183944,49.956062
0.7875409,45.15059
0.99425155,41.126934
0.92432386,44.761463
0.92115,40.789467
0.8382506,40.0
0.79760796,40.0
0.8246609,40.0
0.69013494,40.0
0.6189415,40.0
0.6215568,40.0
0.6781881,40.0
0.6829278,40.0
0.6678448,40.0
0.5406365,40.0
0.4570914,45.444508
0.47194028,44.84685
0.53570163,47.350475
0.57417864,56.93257
0.68459415,55.76405
0.796685,58.50325
0.940187,64.93605
1.0000727,60.757587
1.0447774,68.66586
1.2497349,71.454094
1.2356753,72.666435
1.3549244,78.021286
1.4424129,85.43996
1.4795849,89.61657
1.576908,94.66995
1.6781918,96.146385
1.8541431,102.59268
1.8410025,99.03873
1.8536923,102.90606
1.8553538,105.745476
1.8821495,108.28111
1.9909167,110.43112
1.9361149,113.70087
1.9133027,119.487144
1.8760248,115.63579
1.8556876,118.68244
1.8846872,112.82134
1.9111569,114.145355
1.8324863,119.37213
1.8018034,117.79721
1.7730434,112.97054
1.7300394,112.87922
1.8246461,112.73301
1.6957024,107.74738
1.6231228,109.3792
1.6131359,108.20695
1.5747201,108.15457
1.4701602,105.83535
1.4873759,98.15
1.4496315,100.51768
1.5038428,96.24582
1.5461293,96.3743
1.4661385,92.21134
1.4131845,89.44946
1.4172112,88.28615
1.3782529,88.2576
1.3987104,83.82462
1.3074464,84.18878
1.2713785,79.97155
1.285176,79.28389
1.2217935,75.657036
1.1438795,73.26036
1.0962902,70.86901
1.0520434,69.49217
1.004033,65.30815
1.003222,64.86141
1.0853194,63.369408
0.84599936,57.771793
0.8398228,56.00072
0.9214915,56.445198
0.6839543,56.11988
0.80865115,48.22736
0.73938346,48.66512
0.76804113,47.751827
0.70513654,43.688435
0.7423438,47.701412
0.70638937,44.596085
0.7587611,42.63834
0.59417784,44.13398
0.7031424,40.0
0.59876937,40.85759
0.62556595,40.0
0.5331725,40.0
0.48095164,40.0
0.49400425,40.0
0.51017845,40.0
0.347345,40.0
0.3688885,40.0
0.39031947,44.150448
0.35212478,44.059025
0.42045522,48.29806
0.47950423,54.34225
0.50986415,52.851288
0.5970699,56.58475
0.62058,58.801266
0.63275373,63.046898
0.8605655,66.53023
0.98007876,70.98416
1.0752418,73.45296
1.1588316,84.96312
1.2777859,82.10564
1.4276252,90.95191
1.3809265,87.720406
1.4684842,95.58723
1.5120915,103.31838
1.5721939,102.956245
1.6232313,104.81163
1.5608749,107.90693
1.7077774,114.73704
1.7239783,110.191925
1.6118736,112.439644
1.6684018,113.03463
1.6694938,119.63158
1.6049674,122.3015
1.6820769,116.232216
1.5943835,116.69336
1.5319297,113.181564
1.4735693,117.84955
1.4575579,116.76975
1.5874782,116.705444
1.4311266,112.87271
1.3940514,111.2543
1.4376817,108.86989
1.3225899,106.842735
1.264944,105.37449
1.191022,103.96938
1.2314119,102.98864
1.2243165,98.198006
1.277274,94.84534
1.2554132,96.008354
1.1471446,92.71804
1.1703542,91.98738
1.1252301,92.00775
1.0906844,86.812965
1.1344944,84.8127
1.0341284,81.173935
1.0282526,79.20205
1.0608065,77.45811
0.8788216,75.80418
0.9033036,74.86698
0.9072414,67.79854
0.67407423,69.767494
0.68571895,67.07786
0.6820156,64.345985
0.6519394,62.55924
0.51299894,57.941795
0.6067341,62.38063
0.5955067,51.935276
0.54462147,53.345997
0.5355312,56.156445
0.5661935,51.03351
0.577888,47.705086
0.51467854,43.897034
0.38666296,42.37773
0.41377425,41.349022
0.48319873,42.278362
0.45861664,40.0
0.41687274,40.0
0.35673192,40.0
0.31714612,40.0
0.26327953,40.0
0.2871919,40.0
0.20156156,40.0
0.13387653,40.0
0.12034248,40.0
0.1807714,40.0
0.026816994,40.0
0.061595634,44.985012
0.09275176,46.823353
0.13858789,52.06496
0.15053104,50.877907
0.27860567,55.839485
0.29523593,58.787693
0.49257353,61.394775
0.50998753,65.83979
0.7066264,69.85203
0.80090463,77.32427
0.96165365,82.59132
1.0437067,84.51334
1.0111481,86.300934
1.1796107,87.87984
1.2249243,95.746574
1.3343492,99.618576
1.3328327,101.60999
1.3404461,105.738144
1.4261197,111.65682
1.3827703,109.88074
1.4338408,110.11414
1.4630275,112.625465
1.4163929,111.77242
1.4327595,111.75153
1.340962,115.89044
1.3583302,117.95431
1.4131277,118.188736
1.3655406,119.97008
1.3424824,116.16746
1.2687273,119.03606
1.3135508,115.84868
1.2568722,115.259026
1.1732956,109.1146
1.1578045,114.54873
1.0761757,110.3663
0.99577147,108.036194
1.1197225,103.47191
1.029586,103.337265
0.9676712,102.10641
0.97335404,96.22451
0.9075114,94.10683
0.879094,92.13206
0.90902376,91.795654
0.89140195,89.20935
0.9148956,89.62936
0.8877404,84.86627
0.89780396,82.66105
0.8318964,77.12682
0.84162384,78.1398
0.7636243,75.75684
0.7464512,71.05422
0.6587243,70.114655
0.6110385,66.88688
0.5491535,67.78144
0.49512178,61.172806
0.5021679,60.390694
0.3907748,57.80025
0.49399146,54.311153
0.2894054,50.31942
0.38944852,54.71305
0.29249036,48.31507
0.2802315,48.31106
0.27924472,46.25384
0.39055967,44.877304
0.35575473,45.877228
0.38149694,41.962627
0.2758977,40.0
0.27554736,40.0
0.24368827,40.0
0.2676597,40.0
0.13951482,40.0
0.15555716,40.0
0.08794985,40.0
0.058214497,40.0
0.015092278,40.0
0.038634416,40.0
0.013767633,41.788143
-0.07677395,41.1759
-0.0709066,45.04709
-0.06434899,43.944378
-0.007906075,46.180122
0.0889101,51.958855
0.120514736,57.414097
0.2747376,59.35489
0.3518107,60.269344
0.47094008,65.08427
0.5394305,69.69547
0.67633855,76.75926
0.76013714,81.2408
0.8742418,80.479385
1.0532043,86.91569
0.99023825,89.53625
1.1342722,92.24035
1.2447363,94.79708
1.2540741,98.38044
1.2407761,104.23146
1.25117,105.7209
1.3001372,111.25905
1.2997464,111.55732
1.4441606,115.27329
1.3573169,116.468994
1.4060688,112.18339
1.4501604,117.90906
1.2912613,117.89125
1.3602636,120.60658
1.4587574,116.46958
1.3207752,115.31426
1.2723144,118.01201
1.2761556,116.76385
1.202117,110.53851
1.1820083,108.339195
1.156494,110.302
1.1787463,104.677185
1.0403268,110.877
1.0437008,104.934044
1.0140386,102.992256
0.93682486,101.36096
0.89038587,95.03219
0.987002,95.1517
0.97556984,97.745804
0.908809,91.215965
0.98904306,87.408035
0.8615521,85.2022
0.91030765,80.63614
0.950362,85.90078
0.79228574,80.07962
0.81627697,75.08396
0.80980825,72.47203
0.862895,77.04758
0.7467066,73.361565
0.63125795,69.16826
0.6321147,68.11926
0.61357325,65.733345
0.5201616,63.45333
0.5018546,64.50921
0.47488385,59.82499
0.36714482,60.687325
0.42767185,50.4871
0.40633285,51.96076
0.47382116,48.49892
0.4699305,46.927326
0.48003674,45.202694
0.47371453,41.60761
0.4721643,40.0
0.38951698,40.0
0.33888143,40.0
0.39674154,40.0
0.5018763,40.0
0.2764275,40.0
0.18982314,40.0
0.1939764,40.01305
0.13499002,40.0
0.12915112,40.0
0.09976377,40.0
0.11510664,40.0
0.12633832,41.262974
0.06727298,44.934822
0.19514012,47.090893
0.21111229,46.43854
0.30942836,48.900322
0.2730482,52.389683
0.397855,57.42918
0.57416505,63.37977
0.7241772,64.93969
0.6671069,69.10941
0.8158057,70.55757
0.9613399,76.84786
1.0364836,79.60863
1.1385428,86.020615
1.2552136,88.74571
1.2984487,92.00571
1.3425589,96.965385
1.5073565,100.34194
1.4399234,104.3006
1.546305,105.07204
1.5826224,109.189835
1.5097308,113.82746
1.6021273,113.357956
1.5837785,112.90351
1.6037871,117.82503
1.5661775,118.12331
1.5822784,118.05816
1.617464,118.43559
1.5669202,119.495766
1.5254749,115.82504
1.4537064,117.783134
1.5699195,114.40099
1.4187917,114.558205
1.4285222,114.59798
1.3329705,110.067505
1.3399483,107.16708
1.2535757,107.854935
1.1840981,102.71241
1.2816515,103.440414
1.3672053,102.18938
1.1990442,101.10627
1.217589,95.999016
1.199031,92.887794
1.1646012,92.69553
1.1128966,89.74729
1.237524,87.90909
1.2664536,86.266785
1.2548752,75.70157
1.1614076,80.03818
1.1100045,78.78095
1.1226594,80.969444
1.0681572,74.08965
1.0179561,68.71673
0.93465626,70.134605
0.8602441,70.26544
0.9053093,70.44084
0.898929,62.0261
0.8297908,55.192516
0.7035771,57.91243
0.72519124,55.583225
0.70413506,52.18386
0.6115466,51.864693
0.7258529,46.399696
0.74529827,49.07457
0.6572786,46.45148
0.70786756,44.333927
0.772393,44.54657
0.76836777,42.10747
0.6757618,40.0
0.7091617,40.0
0.5987526,40.0
0.60107756,40.0
0.59904027,40.0
0.5744923,40.0
0.48668554,40.0
0.44344094,40.0
0.38934255,40.0
0.37993944,40.69975
0.33711678,42.162464
0.39148012,44.479862
0.34100536,48.512672
0.4951772,43.207085
0.517864,51.473785
0.64911157,56.189217
0.6611145,57.04382
0.7186088,63.928085
0.96421385,68.674484
0.9309273,70.42096
1.2110199,73.73334
1.2378505,79.21562
1.2259588,81.09913
1.4426392,82.133934
1.4221567,90.98092
1.5106106,96.12963
1.6164372,96.11097
1.7977339,98.98439
1.7063303,104.069214
1.8479958,109.30301
1.8186793,108.60208
1.9185774,112.18566
1.7995359,118.12053
1.7414495,113.99763
1.875565,115.69447
1.8448048,115.636826
1.7890825,115.883995
1.8784399,121.63415
1.8109013,117.72294
1.867997,116.38999
1.7549832,117.20922
1.7523382,113.65805
1.6698399,110.72368
1.6483856,112.63164
1.6157376,110.0205
1.5297966,107.399765
1.5449704,107.21199
1.5738151,104.27417
1.6056494,104.6695
1.4947649,101.552635
1.5175834,100.96153
1.4391491,95.75989
1.5910845,96.0007
1.447126,90.98438
1.3589857,90.217545
1.397937,91.87718
1.332856,85.78758
1.3563803,87.54994
1.4602015,81.92204
1.3526295,79.343185
1.2613686,79.03201
1.2091331,75.216324
1.1607304,70.54017
1.1836978,68.77039
1.1374317,66.40188
1.1552123,67.22433
1.1249163,62.487865
0.94680303,62.200546
1.0456065,58.902184
0.9859498,54.694607
0.87882006,55.52248
0.9542681,53.269096
0.903755,53.250484
0.85504556,48.63373
0.9724764,43.324123
0.8884022,40.44664
0.833731,43.575497
0.87275016,42.136795
0.8785368,40.0
0.7989099,40.0
0.92070323,40.0
0.73464864,40.0
0.71080494,40.0
0.49692652,40.0
0.6050103,40.0
0.6218401,40.0
0.5971995,40.0
0.57183367,40.0
0.4515785,42.749477
0.5611454,44.4834
0.52889204,46.89722
0.65165854,44.68323
0.7084451,51.66156
0.72215146,53.950947
0.82100767,55.068707
0.8707063,58.04205
1.0824949,64.00825
1.093655,66.32618
1.2151926,71.97525
1.3479385,72.911415
1.5002091,76.75661
1.5041534,82.46601
1.6707531,90.71808
1.6753881,93.46655
1.7357258,96.11668
1.8286651,99.30831
1.8776717,100.90708
1.7901682,104.47626
1.9373863,107.121925
1.8985728,112.08888
1.9515196,110.18236
2.0191348,110.73765
1.8488095,117.52919
1.9808623,114.488945
1.9559422,118.72442
1.9253262,118.59145
1.8990258,118.54818
1.8823862,115.82605
1.7489237,116.00977
1.8709086,113.13147
1.8156736,116.76581
1.7671633,115.36007
1.6138138,110.99951
1.7089977,109.50604
1.6869011,111.57314
1.7255313,107.46515
1.4972686,104.54986
1.6712717,103.4895
1.5881659,98.431145
1.5555646,97.705505
1.6013651,92.10875
1.4028757,93.716805
1.4328098,91.5293
1.40513,86.73374
1.3019303,86.38059
1.4410408,84.34298
1.411061,82.15565
1.4595068,81.22584
1.361632,77.81063
1.2946056,75.2264
1.2589294,75.24808
1.2156918,66.084145
1.1879827,68.19803
1.0984013,68.32734
1.1250303,63.64506
1.0970818,65.65271
0.95286006,58.398304
0.9265272,56.31664
0.87680644,57.336697
0.84430885,54.57945
0.8762188,51.085686
0.89911723,51.319645
0.82886964,44.93391
0.89702606,41.411434
0.8406012,42.769924
0.7968987,40.18719
0.7869928,42.9386
0.8455519,40.020184
0.7669402,40.0
0.6830348,40.0
0.7207587,40.0
0.6527114,40.0
0.5363073,40.0
0.5247729,41.67656
0.44648308,40.0
0.37086695,42.76041
0.43921083,40.0
0.4714555,42.746063
0.5971356,42.770386
0.47752076,48.808693
0.6092236,52.57765
0.6218083,55.793102
0.642867,58.553993
0.8068097,61.096333
0.9319043,63.571815
0.94694823,66.91559
1.1296436,72.23896
1.2091995,74.753914
1.3481011,78.4462
1.4153619,85.13384
1.421639,86.9946
1.6006391,94.19908
1.5595279,94.53103
1.6295726,100.60819
1.6477733,102.09517
1.7927175,105.73499
1.786134,113.33668
1.7233127,108.17903
1.8932872,112.15219
1.8504941,114.31105
1.8220859,115.52354
1.7917023,117.686714
1.812766,119.769325
1.7533553,116.046776
1.7324121,116.476295
1.6615365,119.529594
1.7226974,114.49954
1.6829487,111.45482
1.7046717,112.23693
1.6437589,112.14116
1.5168033,109.46646
1.437836,111.749725
1.4109074,111.258705
1.417058,107.80043
1.4024698,101.58295
1.3826697,101.75002
1.3177615,101.87437
1.2856874,100.183784
1.2618713,93.76851
1.3213118,92.89202
1.2537171,90.18584
1.2914675,86.03822
1.1813816,85.50803
1.2383158,85.48681
1.1371837,83.69216
1.1613872,79.12431
0.9981344,76.50801
1.0601758,73.24114
1.0164294,76.416664
0.9658764,68.67572
0.88564336,65.10855
0.7499079,63.874268
0.77016205,64.45067
0.7020819,61.575226
0.71264774,60.330063
0.6580209,56.029274
0.6609237,56.648655
0.6501098,50.26124
0.6050322,48.61624
0.68981415,46.37696
0.59787536,51.484657
0.5357313,44.877213
0.5777923,43.460953
0.5583765,40.0
0.65206677,40.0
0.5696609,40.826077
0.61720455,40.0
0.4033196,40.0
0.3824032,40.0
0.36987847,40.0
0.4145127,40.0
0.31085753,42.144257
0.1237727,40.0
0.16284601,40.0
0.19627284,41.33746
0.12575343,40.0
0.21351515,45.035656
0.16349418,47.14494
0.30284587,49.006405
0.3650224,55.932625
0.4662305,55.299667
0.5649994,60.032635
0.5768066,63.590694
0.72609264,66.98497
0.71275526,72.588005
0.96232384,75.20022
0.96163744,80.86705
1.1123701,83.068565
1.2329769,85.965355
1.291654,90.98246
1.3662968,94.46746
1.3710645,97.9026
1.4224336,104.11401
1.4638393,110.718895
1.4739685,105.98256
1.4272957,109.37376
1.4708884,109.65595
1.51999,113.11076
1.5154015,115.836205
1.4572637,115.89804
1.4866153,119.9705
1.5915223,116.68497
1.416514,116.87764
1.4419334,116.39253
1.395417,116.295265
1.3242254,115.745094
1.351876,117.14057
1.2519226,114.079254
1.2396164,111.870056
1.2381977,109.03383
1.0517546,108.21693
1.1160766,104.824936
1.1032225,107.231094
1.0945381,100.236855
0.99749553,102.86247
1.1782913,98.97578
1.017385,95.210304
1.0989249,93.382195
1.0294701,89.757256
1.0330122,91.43911
1.0007316,87.27543
0.9310481,83.73825
0.8257265,81.03636
0.81927806,79.28422
0.8878973,77.257935
0.7283362,76.24394
0.7380014,72.301956
0.66835964,66.608574
0.62917024,68.34505
0.56872666,67.26941
0.5489283,61.30677
0.61384094,62.48235
0.40492216,61.77706
0.3857599,57.867317
0.44156185,51.076714
0.38402155,52.741215
0.3573416,52.64965
0.31610325,45.19
0.27350315,49.727833
0.35281995,42.81744
0.41395432,45.281048
0.3242659,40.0
0.39470705,40.0
0.3237885,42.16302
0.22769652,41.400887
0.2354492,40.0
0.26006594,40.0
0.12379516,40.0
0.107007466,40.0
0.024222588,41.29569
0.097545825,40.0
-0.0714257,40.114204
-0.10396716,40.223656
-0.09314926,40.55934
-0.12353069,43.77311
-0.034782916,42.19387
0.1071639,51.61523
-0.01166774,53.61227
0.15457296,56.64311
0.3253174,59.338745
0.32779458,63.196903
0.56365466,68.044754
0.66016716,76.47676
0.67158157,75.484665
0.82841206,78.05638
0.88839936,82.649574
0.947855,86.912125
1.1354034,91.30003
1.1302553,95.6253
1.1949311,99.88101
1.281878,101.27134
1.311999,104.347885
1.3340098,107.06985
1.388546,106.91839
1.3450329,109.59678
1.4000291,112.9163
1.3899873,114.15873
1.3362612,116.716736
1.2849405,113.37972
1.2688129,119.69398
1.3270386,117.45468
1.219266,118.73935
1.2646672,119.996796
1.3885099,117.10591
1.2230221,110.54518
1.1289742,113.57356
1.1289927,110.35767
1.0765151,110.22401
1.0080935,108.40999
1.102783,107.55543
0.99741185,107.6144
0.9824819,100.18303
1.0280775,104.46853
0.9396725,102.93714
0.8614054,95.99585
0.87294656,93.61339
0.90832406,94.86211
0.9017458,88.88162
0.8562621,88.28246
0.8767044,82.78525
0.84490395,80.77821
0.94066304,77.672264
0.807356,76.90579
0.8037433,76.89867
0.666932,75.396034
0.70244396,73.0571
0.6162382,70.16566
0.49179608,67.20715
0.60445803,59.990826
0.43363532,59.872143
0.45100176,62.968674
0.41979554,57.447647
0.38641316,55.71167
0.34805745,50.94369
0.33848283,50.666603
0.4187495,52.02224
0.2985831,45.68094
0.34497884,48.20112
0.38374263,43.087254
0.34647223,43.863853
0.31853655,40.595516
0.2821721,40.312206
0.20758185,40.0
0.16861367,40.0
0.22773282,40.0
0.14033607,40.0
0.20734693,40.0
0.14311546,40.0
0.038057968,40.0
0.03609088,40.0
0.054420497,40.63119
0.06450968,41.483086
0.006281231,47.400295
0.0340433,47.93573
0.058427587,50.888714
0.20557845,54.23871
0.2836447,55.527447
0.3395598,56.52037
0.36297417,64.72255
0.53925395,69.01608
0.63670456,72.33079
0.8359872,75.858475
0.9626693,77.07546
1.0313905,84.117256
1.019539,86.97322
1.0834358,92.41149
1.2223084,95.24333
1.1428257,99.882065
1.3429774,102.70234
1.3531079,98.925224
1.4979938,108.41678
1.5176721,108.95292
1.4915305,111.375435
1.4675096,117.087036
1.4614388,117.22709
1.5323759,120.55778
1.5577847,121.04435
1.4945797,118.58041
1.430741,115.21701
1.5271131,118.4543
1.4558058,116.78209
1.3100245,115.49064
1.2930379,116.608505
1.3144279,111.22786
1.3034451,115.661316
1.2213573,111.79571
1.2240936,106.69075
1.1838652,106.87646
1.1785511,106.66443
1.0833057,101.06488
1.1371312,95.739334
1.1172214,99.5204
1.1531036,99.59703
1.0771718,94.614456
1.1138135,92.479385
1.0912336,85.12264
0.98609084,84.44281
1.094592,88.465294
1.0892191,86.78743
1.0071195,78.6137
1.0211672,76.75606
0.92566544,73.80584
0.9161351,76.08
0.8386469,71.61957
0.8471818,68.88749
0.7516287,62.26378
0.6865335,60.377224
0.71533334,62.54349
0.6935943,57.130047
0.61320823,56.331203
0.59820694,55.210426
0.6059289,57.42196
0.5544094,47.818768
0.5983257,52.881824
0.57683176,46.67104
0.6734735,46.677475
0.5829027,45.336998
0.65397495,42.790928
0.5729144,42.76546
0.58522904,40.03003
0.5890117,40.0
0.45222017,40.0
0.48488304,40.0
0.34613633,40.0
0.37509868,41.84533
0.31772232,40.0
0.19173805,40.0
0.30776662,40.853477
0.268356,40.0
0.25835562,42.5003
0.34585974,44.46465
0.35875633,48.489697
0.24407138,49.393307
0.38032714,51.44018
0.5789164,55.75832
0.59499824,57.540207
0.771791,61.245567
0.8161692,66.67638
0.90184015,70.3891
1.0034372,73.791336
1.1013826,79.24557
1.2471144,83.54133
1.375881,86.53954
1.5367994,90.71338
1.5268633,93.43678
1.5178005,95.32461
1.5965283,102.46668
1.6241399,106.18983
1.7271472,107.844986
1.7938272,107.27442
1.7565645,111.97753
1.7408676,116.35142
1.7028595,114.80771
1.6992123,113.08472
1.8443463,115.92118
1.8106672,114.96924
1.7378325,119.711655
1.7222868,113.13383
1.7282653,114.4732
1.701498,115.832985
1.5843536,110.729996
1.6123949,114.90228
1.6252315,112.22569
1.5421084,109.09271
1.5458642,108.36708
1.3677266,106.81715
1.4598931,104.54927
1.4545208,103.02208
1.3503209,100.178345
1.3426405,96.73743
1.4304293,94.73081
1.3698574,96.179344
1.3749704,93.27673
1.3983427,85.76343
1.3457352,84.908134
1.363212,85.68977
1.4197983,80.66766
1.2268425,84.816025
1.3485596,77.18513
1.2156969,74.84201
1.187852,74.59288
1.1112955,70.59068
1.1041881,70.13457
1.0454278,69.93249
0.9665035,64.96649
0.99070823,64.96965
0.94183785,61.976254
0.87341285,59.546963
0.8669652,57.335003
0.85055506,55.636494
0.8464291,52.560383
0.8671426,46.325092
0.84787047,49.27965
0.85055506,41.3515
0.86961323,41.649055
0.8774026,42.253468
0.79063624,42.928463
0.887208,40.16161
0.8135065,40.0
0.77675325,40.0
0.6946382,40.0
0.73552847,40.0
0.6486495,40.0
0.4853523,40.0
0.6115692,40.0
0.5811796,40.0
0.54174465,40.0
0.55292475,40.0
0.44273978,46.32594
0.5030301,42.738255
0.6242044,47.524406
0.6086598,49.7586
0.7596869,52.2164
0.8582232,58.991074
0.8547041,63.44856
1.1008424,66.81633
1.151915,67.50847
1.3108356,76.115105
1.4220464,78.99737
1.479096,79.44821
1.5151016,85.878
1.6624149,87.35752
1.6234415,95.13509
1.7721798,94.25548
1.9051794,99.68529
1.9124937,105.84611
1.8842659,105.24537
1.9074454,111.39036
2.006162,110.14262
1.9105853,112.53351
2.021741,116.16386
1.9928834,116.40378
1.9391427,116.299286
1.8836331,114.10914
1.8843359,114.63761
1.8180884,113.986885
1.9246808,115.77484
1.8705168,114.629585
1.8434995,119.15435
1.7593355,115.05326
1.7432101,112.04152
1.7327185,112.79643
1.780507,110.39717
1.7196285,110.7983
1.6019913,107.96795
1.569454,104.0781
1.5374565,102.00866
1.5340464,98.43075
1.4811709,92.804245
1.5339807,95.79706
1.5239235,93.42628
1.400921,90.6653
1.4800023,86.31406
1.5422832,87.32899
1.504257,82.27291
1.3988969,81.684654
1.3562847,79.38033
1.3850452,77.49558
1.2341655,70.48217
1.3192652,72.75928
1.2260576,70.927444
1.1426849,67.15809
1.0793774,69.93364
1.1158277,60.620815
1.0736781,61.174236
0.8950064,58.11888
1.0777391,57.379868
0.91114336,52.00136
0.9322712,49.69257
0.9730465,49.722977
0.9143264,47.487324
0.8551389,45.710606
0.8643985,45.080605
0.8866889,40.0
0.8450435,41.066345
0.8860832,40.0
0.79068637,41.297684
0.90892285,40.0
0.7806563,40.0
0.6764576,40.0
0.75214154,40.0
0.6974655,40.0
0.49170732,40.0
0.42890552,40.0
0.4449807,40.0
0.6041022,41.691696
0.5664638,40.0
0.50255835,47.028885
0.54439116,49.794975
0.67456466,51.068428
0.7512107,56.082775
0.79484874,57.832283
0.92361844,64.35651
0.9975939,65.12556
1.1075791,70.28093
1.2330714,73.71377
1.330492,75.54167
1.3806186,80.08478
1.5444012,85.36097
1.6507779,88.89799
1.6771082,89.99978
1.6519529,95.682045
1.82349,102.500885
1.8273684,103.88419
1.8295622,108.81087
1.8642261,108.31586
1.797764,109.70079
1.9160115,110.81891
1.8372808,113.40347
1.8755263,115.941376
1.880357,118.60519
1.8433943,119.90759
1.8172742,121.50348
1.8113647,114.118546
1.8146478,116.49922
1.715367,117.52972
1.7497642,116.37684
1.6339986,116.177345
1.5736588,113.2499
1.6331552,104.809784
1.671836,114.3263
1.548874,105.85956
1.5448669,108.580956
1.3926148,102.016685
1.44457,102.12127
1.4496914,96.97662
1.3849987,94.323975
1.4259263,97.495766
1.4015894,96.552475
1.4078383,88.39396
1.2889009,88.107864
1.3353125,86.89551
1.2770308,83.01507
1.3388859,79.715805
1.1994182,79.078835
1.1577046,76.6384
1.215224,75.925156
1.0016046,74.4636
1.0537663,73.47319
0.932775,65.85508
0.9671357,68.54
0.84552836,61.181213
0.88932586,61.21154
0.87460923,61.111248
0.87066895,57.965626
0.70156556,54.79592
0.80192095,52.740673
0.84793484,52.93391
0.72940546,49.484627
0.6955065,47.044266
0.7660631,45.323986
0.664052,40.0
0.67922837,42.89644
0.60763645,41.49303
0.5826839,40.0
0.6079181,40.0
0.5249002,40.0
0.57528985,40.0
0.45248935,40.0
0.33183762,40.0
0.31183216,40.0
0.37306216,40.0
0.30799702,40.92241
0.22637445,43.0811
0.29453254,44.021908
0.24455124,46.26029
0.38925365,50.933697
0.35533026,52.437584
0.39773944,52.433308
0.48576838,57.84962
0.71336055,62.557354
0.7826716,65.9569
0.75249857,66.28907
0.9958871,73.76013
1.0598116,78.64977
1.107176,85.74315
1.2407506,83.542816
1.3303043,86.6898
1.3196867,92.14924
1.4312339,93.49146
1.5439963,100.03867
1.5452477,104.741844
1.531052,106.751595
1.531388,108.8712
1.5175341,108.565125
1.6389018,114.533936
1.6328914,112.532555
1.6631107,115.82029
1.7225386,119.044136
1.6111532,119.624146
1.520408,119.70892
1.6023506,117.88516
1.4144871,117.42982
1.4304298,117.321754
1.4626143,116.58415
1.4577402,113.22868
1.3631864,110.9497
1.2952609,112.83055
1.3600775,105.24137
1.2895557,107.718796
1.1132717,107.54682
1.1867958,105.28885
1.1340483,101.2424
1.1892221,95.03033
1.1531125,97.57947
1.12716,94.65842
1.1451597,90.19673
1.0625783,90.87268
1.1369944,86.574234
1.0313197,90.61746
0.98316956,86.73399
0.9880803,82.087456
0.896298,78.39813
0.8959956,79.670105
0.95373815,73.42857
0.8244677,72.65292
0.7809757,68.21306
0.7506608,69.44794
0.6504753,68.30676
0.6269902,63.23705
0.60698545,58.74696
0.5151113,61.31207
0.48101157,56.157368
0.49753064,58.358257
0.47312567,53.996777
0.48998427,50.388615
0.39872098,50.013725
0.52978706,49.09959
0.42799973,47.01926
0.5151917,42.52167
0.42341298,42.29852
0.24183558,40.590034
0.33505464,40.0
0.38641554,40.0
0.36640212,40.0
0.2699906,40.707287
0.072425626,40.0
0.20020513,40.0
0.17567869,41.796333
0.038104948,40.0
0.033597216,41.457474
-0.09870506,43.674458
-0.02239801,41.74268
0.09563422,46.627235
0.056180663,45.24107
0.028956695,52.787888
0.1852886,53.869583
0.19723465,60.08682
0.38698032,58.82641
0.47053248,67.853745
0.5138976,67.551186
0.6466522,71.819534
0.80080646,79.26679
0.8311197,77.46928
0.9501112,86.53643
0.961881,91.29509
1.1804705,93.76647
1.2210407,93.82845
1.2933948,101.44761
1.1983216,100.32039
1.3378924,102.399536
1.4768146,109.65806
1.3537889,111.98783
1.4564826,109.55206
1.3889308,110.158295
1.3863798,116.48066
1.4476814,117.613686
1.2558352,121.324646
1.3866158,117.000946
1.4248515,120.59842
1.2012032,115.14202
1.2168347,117.04663
1.3228486,113.77644
1.1645263,115.5007
1.196555,113.00503
1.1157591,116.753395
1.115263,108.129745
1.089453,104.8964
1.0776292,104.63907
1.0807737,100.20778
0.996613,102.32741
0.9708994,99.35616
0.9394125,97.34776
0.98831624,93.290085
0.88323766,95.688774
0.89091766,91.20197
0.86281145,89.36527
0.8442789,86.50798
0.75417376,87.0266
0.83077985,79.582504
0.8242045,77.55995
0.7398375,81.25075
0.74955255,76.51487
0.7041989,75.02122
0.6032343,71.253975
0.5311251,65.49256
0.612104,67.72319
0.42544657,65.977486
0.45779568,63.16927
0.35552186,59.076256
0.2706136,58.744263
0.3543856,58.531
0.34110954,54.36495
0.39923632,49.882004
0.48724267,50.74384
0.24855497,45.750877
0.3116459,45.789772
0.33749884,40.70786
0.3667601,42.703545
0.3275552,40.0
0.2631029,40.0
0.23779827,41.913647
0.23542646,40.952324
0.16062944,40.0
0.06797062,40.0
0.08905375,40.0
0.004358094,40.0
0.0089352215,40.0
0.008225753,40.0
0.0056929397,40.0
-0.056413554,46.030792
-0.05505938,44.749115
-0.014003886,47.502777
0.103829384,49.713978
0.09690529,52.42611
0.22483435,57.220924
0.3115365,63.084354
0.41039523,61.702354
0.52070874,70.28331
0.6085091,71.97003
0.7224467,75.25114
0.82968456,80.49731
1.0292583,83.98847
1.0494562,87.31734
1.0927866,88.80833
1.2804444,94.64888
1.2320029,102.410645
1.3182917,99.449615
1.3046179,107.81004
1.2769529,107.17497
1.3310856,111.205215
1.3425475,111.64336
1.3263369,115.95778
1.4220893,114.83449
1.4642227,115.443016
1.316528,115.28855
1.3744684,115.746315
1.3926809,115.88291
1.3153079,116.58564
1.448895,117.6589
1.2360424,114.176575
1.33921,111.50684
1.2594811,112.30404
1.2837284,111.649734
1.1853129,108.59538
1.0910985,111.07482
1.1001815,108.54656
1.0462358,102.709335
1.0228702,99.76653
1.1089478,102.71547
1.0159466,100.55816
0.92155194,92.60598
0.937536,90.45775
1.0599875,91.99465
1.0447259,88.583984
1.0241401,89.35373
0.9805972,85.12244
0.912203,81.32863
0.9211876,77.83541
0.7198645,73.56684
0.8160495,77.63989
0.8598526,76.02746
0.74003875,67.684944
0.6894325,67.012405
0.63939786,65.77098
0.55536896,66.87645
0.53297985,61.363766
0.51004094,59.18545
0.5586252,55.49349
0.46540177,54.470306
0.48074073,52.189335
0.4293223,51.064037
0.47860852,47.464462
0.51998544,46.07948
0.42856318,42.814285
0.541678,44.204926
0.41295782,42.158054
0.5833557,40.0
0.41803062,40.0
0.34277108,40.0
0.43181342,40.0
0.35892177,40.0
0.32387266,40.0
0.2700683,40.0
0.117928065,40.0
0.17749114,40.0
0.14716798,40.0
0.110564254,42.681637
0.22578162,45.452297
0.14019373,45.73539
0.21802422,49.146576
0.24752288,51.809986
0.39857826,53.85217
0.43901068,58.79366
0.42458108,59.60186
0.6056229,62.02095
0.7196942,68.9402
0.8700728,73.82665
1.0881588,72.81539
1.0435921,85.36964
1.1774304,84.68912
1.2214615,87.19899
1.3915757,91.141136
1.3791168,96.40797
1.5851048,98.50418
1.4982805,99.421936
1.5305575,107.39936
1.5652596,109.22598
1.6013337,106.338715
1.6560749,114.07175
1.7036108,116.8019
1.6784577,113.58196
1.6771419,116.93187
1.5361627,113.48248
1.7416342,117.32927
1.6065397,117.437065
1.61624,117.15953
1.5439801,113.621254
1.5814438,116.768906
1.5872666,112.984886
1.3734442,113.890564
1.4530578,111.98595
1.4306753,110.92945
1.3617514,106.740654
1.2771202,107.44595
1.3943357,103.72946
1.3572409,103.80296
1.3256768,100.82703
1.3292526,98.89319
1.282891,97.16524
1.3758914,92.26344
1.2660909,92.86684
1.2525702,87.62426
1.267697,90.51292
1.2076817,87.22755
1.1925691,83.79985
1.0940545,78.55439
1.1289513,72.84446
1.1158084,74.21193
1.1227375,75.43778
0.9526652,70.65231
1.0299119,70.74112
0.87854344,67.28843
0.83529466,65.678894
0.8945652,61.01372
0.79968256,58.73539
0.83728784,60.40337
0.7788819,53.842648
0.7570442,49.326683
0.8065089,50.6316
0.71587336,49.863792
0.79842323,52.69048
0.78770727,46.223366
0.8550669,44.62162
0.78409404,40.0
0.7465207,40.0
0.7368074,40.0
0.7684449,40.0
0.64533824,40.0
0.63879406,40.0
0.5651246,40.0
0.5815386,41.56421
0.52700704,40.0
0.4899016,40.0
0.49045843,40.0
0.44166392,40.0
0.38691038,43.2448
0.43608344,46.418682
0.4428502,48.78386
0.6067273,45.11068
0.5484905,52.764782
0.6553056,54.685394
0.77240086,60.296688
0.9293705,65.7277
1.0575346,64.317474
1.0207303,71.94895
1.1414535,72.0057
1.3550638,80.412025
1.4404218,83.78648
1.5103164,85.55573
1.5591177,87.98873
1.6792606,91.95109
1.7334906,98.21294
1.857752,104.51509
1.8621689,108.82564
1.9054518,107.4756
1.7670059,110.06048
1.9100848,111.523926
1.9016522,114.519196
1.953021,113.34637
1.8223671,112.30834
1.9371843,115.07356
1.962338,115.76945
1.932675,118.62628
1.8345748,118.943504
1.9029766,115.9904
1.6439418,115.24185
1.7247564,112.38567
1.8171865,114.86601
1.6475085,111.447334
1.638871,111.74588
1.635323,107.945274
1.580731,104.551636
1.5646241,101.63358
1.5037787,100.583336
1.4756275,100.87446
1.5314631,94.45457
1.4483876,96.62054
1.4223773,89.774895
1.4371266,89.175224
1.4052083,89.26066
1.4571083,86.13979
1.4849118,89.62936
1.4637314,81.13112
1.4488177,81.571686
1.3936164,79.31107
1.3647292,79.713554
1.3215388,72.780914
1.2557324,67.50892
1.1904361,68.748375
1.1019262,70.44929
1.0121694,61.38083
1.0043857,63.007877
1.0047822,61.01753
0.9127325,56.803864
0.91702145,61.45945
0.9310176,55.278584
1.0179298,51.801212
0.96878123,51.02469
0.89791536,43.732506
0.9510549,45.08366
0.79828465,41.590744
0.914759,43.962185
0.90559596,40.0
0.8359193,40.0
0.79950714,40.543575
0.8111923,40.0
0.7699452,40.0
0.64420915,40.0
0.7014599,40.0
0.63977134,40.0
0.6029932,40.0
0.59544474,40.0
0.6096122,40.250847
0.58596885,41.54181
0.45382518,47.437622
0.63920826,45.96741
0.70719236,47.546867
0.64424354,51.624454
0.7599197,55.13188
0.8778313,59.267654
1.0157791,59.93452
1.1216186,67.99925
1.1407849,72.79716
1.2578067,71.38465
1.3431991,76.22249
1.5120827,85.35106
1.5719016,83.614395
1.7186638,90.52501
1.7162788,99.98239
1.7633562,99.05629
1.7997581,98.949326
1.8233315,102.49281
1.9551655,106.816475
1.8660265,106.872536
1.9541758,115.129135
1.9386014,113.76878
1.9970138,113.349434
1.8968414,117.56933
1.9786007,118.39659
1.867386,117.86432
1.8850377,119.5666
1.9855325,117.77657
1.8048321,116.77674
1.83509,116.93411
1.8497318,114.12619
1.7856848,113.31908
1.7185796,110.59432
1.5739431,110.8619
1.543495,112.66491
1.6313254,106.86353
1.513016,104.86296
1.4705179,101.805824
1.4777559,98.913704
1.4566299,98.24979
1.5143425,94.53434
1.4214964,93.33859
1.4708433,92.56647
1.4949743,88.66693
1.4764792,84.79965
1.2888876,85.68522
1.3008842,80.28538
1.3184979,80.590996
1.3102614,74.756096
1.3068818,77.23125
1.128712,74.84106
1.1446202,72.69189
1.0816021,68.597984
1.068963,68.844925
1.0500058,65.933205
0.9547593,61.46174
0.9760073,61.068874
0.9385036,60.64592
0.8884204,56.420628
0.8005844,53.03041
0.84485453,52.66005
0.84839255,52.334625
0.8175381,49.362297
0.91060233,44.660763
0.84554106,42.092285
0.85282534,40.0
0.7899999,40.823586
0.6976273,40.0
0.8257183,40.0
0.766656,40.0
0.6229019,40.0
0.6321548,40.0
0.5861928,40.0
0.5846116,40.0
0.49603078,40.0
0.4818852,40.0
0.34155315,44.13997
0.36736554,45.474537
0.36614403,42.652565
0.4131875,44.38175
0.4287461,47.52813
0.54061246,51.684216
0.56285405,55.397358
0.6310883,57.202526
0.76583076,62.62444
0.94964945,59.458244
0.9344634,70.02663
1.1385654,74.700195
1.1778063,77.315506
1.2277484,85.6806
1.3302857,85.114944
1.4075254,91.44766
1.456858,92.72769
1.558016,97.14174
1.6786318,99.20512
1.6108272,107.45805
1.7397479,107.93078
1.6233913,112.51249
1.7760082,107.5511
1.7575992,114.3781
1.6493567,113.92726
1.7732476,118.53987
1.7331259,116.95598
1.7586682,114.006454
1.7703193,117.337746
1.7250258,117.2393
1.6290482,116.504166
1.551237,113.09737
1.5772675,117.72374
1.5177629,113.4353
1.5532784,110.78233
1.5124153,113.740944
1.3844862,110.04317
1.4392797,104.520905
1.2594833,103.41958
1.377434,105.18946
1.2647794,100.81016
1.1797733,97.88026
1.3385278,96.721504
1.222343,92.43773
1.2522852,92.46812
1.0615755,90.36169
1.2200805,88.71723
1.1696185,82.75109
1.179627,82.420845
1.0352447,81.033035
1.1503597,78.640884
1.0150558,76.3166
0.90449,74.246925
0.93356407,72.84758
0.7566174,73.27832
0.78253514,69.45364
0.75638896,60.104332
0.66266686,62.79147
0.68424815,61.14222
0.6837945,56.73036
0.66381234,54.657516
0.5701219,51.293324
0.47386837,53.01622
0.5488531,51.348766
0.52211016,45.461433
0.5544098,43.704655
0.5247035,42.03804
0.61868876,41.06747
0.38048747,40.08864
0.5406394,41.87739
0.44861624,40.0
0.39469144,40.0
0.34472102,40.0
0.31723955,40.0
0.25025114,40.0
0.25140414,40.0
0.23816845,40.0
0.1446626,40.0
0.19537145,41.592415
0.12703218,41.688484
0.13572569,42.527363
0.11601163,48.071625
0.20687148,45.692127
0.26245058,50.589638
0.2497453,53.315395
0.46015874,59.170418
0.50688964,60.996956
0.5779994,68.134476
0.6408948,66.14427
0.78112066,72.6433
0.98338175,77.8397
0.9865071,81.683495
1.1165044,84.52651
1.2477059,92.1087
1.2882934,90.54609
1.2790588,99.342415
1.2407827,99.55835
1.441648,106.50441
1.4593867,106.11658
1.4907895,107.128494
1.3859417,111.46067
1.4751788,113.74037
1.5160545,115.92322
1.4505433,112.234535
1.5175701,116.59964
1.3994722,114.070595
1.3517638,118.202484
1.4556627,111.55331
1.2865889,117.08076
1.3542787,116.614174
1.29899,112.52313
1.1980813,117.30442
1.2827169,111.66345
1.1906785,112.02366
1.2389946,109.01815
1.1468995,108.468994
1.147504,105.37139
1.1053473,103.89148
1.0116854,101.63509
1.1008204,97.70071
0.9925643,99.14902
0.95703095,96.89066
0.9439565,89.88453
0.8840737,93.35287
1.0050313,89.43402
0.8804981,86.31865
0.8395489,84.87068
0.8696758,78.48933
0.83705705,77.96126
0.7353325,77.46025
0.71251136,77.29311
0.7033683,74.675186
0.6545908,70.213745
0.68255925,69.27799
0.61181957,64.598854
0.46013615,61.966934
0.53517973,61.37487
0.4025381,57.257374
0.42525205,55.90768
0.3635779,52.127968
0.3518568,52.08187
0.4057976,48.56069
0.4013,51.27517
0.42502534,47.16277
0.33997378,45.69909
0.3590225,40.71724
0.2394217,40.449078
0.18723007,40.0
0.29976645,40.0
0.27765965,40.0
0.25157934,40.0
0.10107893,40.0
0.13213868,40.397404
0.053875722,40.0
0.09123977,40.0
-0.056822646,40.0
0.021975284,40.0
-0.1090557,40.0
-0.026854768,44.84802
0.008426097,46.249958
0.0018380674,45.348095
0.052221343,49.494633
0.12393184,53.227688
0.22159646,57.093597
0.33886093,63.775578
0.40420142,69.70455
0.4865659,70.42484
0.62150514,71.105095
0.76307446,76.572075
0.8423317,81.794235
0.9337657,85.097885
1.0516686,86.68892
1.1121588,93.819855
1.2179826,94.40842
1.1919773,99.64172
1.2446735,98.55735
1.2195293,104.88433
1.3259065,109.30595
1.2477146,112.37323
1.385692,113.414566
1.3348109,116.46603
1.4874387,116.753
1.4218842,116.575386
1.2535441,115.672554
1.3228067,116.13853
1.2761469,117.1682
1.3062116,114.64056
1.260737,119.51559
1.2222595,116.01433
1.2387881,117.6466
1.0989344,111.9134
1.1078598,111.23078
1.1523162,110.07246
1.0650975,108.717766
1.0080944,102.30841
0.9931003,100.351494
0.9408461,98.63736
1.0046939,100.57275
0.9567201,97.19411
0.931513,90.21312
0.8424951,94.45949
0.8416073,88.17906
0.8757048,93.21535
0.84507215,89.56246
0.8872363,85.05724
0.9090299,82.28917
0.8486762,81.77043
0.7486461,79.928825
0.75643516,75.728
0.7186005,76.64914
0.7300473,72.48262
0.60982263,67.181885
0.59528136,69.34232
0.47135723,63.775253
0.54959154,58.65915
0.50994205,54.791283
0.43486032,55.275177
0.47885543,51.982094
0.38212958,51.404495
0.43433103,51.006245
0.42599574,48.6453
0.3722,44.818638
0.38766456,42.920868
0.33740193,41.968246
0.31765231,42.787403
0.38120642,40.0
0.3251395,40.0
0.25851294,40.0
0.3553611,40.0
0.28442046,40.0
0.19643784,40.0
0.1747086,40.0
0.04722599,40.0
0.10001536,40.0
0.04520394,42.888817
0.017661177,42.82366
0.09329053,42.818546
0.05559563,43.80282
0.072715566,48.87408
0.13898785,49.87707
0.36520085,54.01912
0.36947975,59.129124
0.36169696,55.646847
0.587829,65.199425
0.63616353,63.036533
0.76866317,71.25397
0.9665727,76.64739
1.0779835,80.703835
1.0338584,84.315186
1.1422023,88.848145
1.1665837,97.95033
1.4213748,98.229546
1.4667182,102.49958
1.4038614,101.608955
1.475378,110.23404
1.5025576,110.672226
1.591909,108.21143
1.5687606,115.77718
1.4991858,116.81217
1.4983128,113.212616
1.4833463,119.8199
1.4755322,115.67692
1.4708381,114.909386
1.4989797,118.746155
1.4283648,118.11143
1.4778037,117.254906
1.4544111,111.622955
1.5056597,114.83245
1.4115857,109.3878
1.3365021,113.176735
1.2935811,109.57917
1.3332334,105.57441
1.2137002,105.95795
1.2917529,102.71547
1.2496505,101.33458
1.1630452,96.18004
1.1666707,94.85829
1.1450176,93.00259
1.2351204,93.258675
1.1850705,88.96654
1.1222934,88.43032
1.0826558,89.06966
1.0177039,84.48434
1.0502478,80.45518
1.0646119,77.30623
0.9253794,77.02057
0.9368845,72.20462
0.9379876,72.67028
0.8360399,68.489105
0.8558285,67.36589
0.8931771,67.0207
0.76110965,65.84769
0.797908,63.335564
0.7045646,57.06203
0.62256503,58.201504
0.65487605,52.953663
0.6597788,49.208725
0.55653656,48.131027
0.57808226,45.590073
0.73191166,44.57303
0.6308975,43.672005
0.67519754,43.358078
0.61525106,40.662796
0.5725658,40.0
0.61918443,40.0
0.5375221,40.0
0.57807124,40.0
0.66611105,40.0
0.46121916,40.0
0.47980374,40.0
0.39160275,40.0
0.41005063,40.0
0.19634338,40.0
0.35674602,43.9369
0.28582877,43.63931
0.34429553,44.49265
0.426935,47.889866
0.46227518,47.819065
0.47802398,54.41324
0.514254,55.637535
0.67296076,64.110886
0.7715776,63.54383
0.84296095,69.35878
1.0797241,72.7795
1.1372446,75.49755
1.2337109,80.48491
1.3278022,83.40833
1.4168171,90.72111
1.4999225,94.11818
1.652367,95.011986
1.6448758,95.79385
1.728634,102.40356
1.7480482,103.327255
1.8266013,103.92773
1.7903785,110.55365
1.8022321,112.35027
1.8153383,111.473564
1.7919226,113.62888
1.8411274,114.98176
1.8574756,115.77195
1.769901,118.843185
1.7746406,123.235275
1.8195825,118.00796
1.6861572,118.02295
1.7408626,116.24392
1.6616535,119.09866
1.7366093,114.98816
1.6422614,110.31588
1.5648378,111.71261
1.6122801,111.07043
1.48449,108.32723
1.5127087,98.8351
1.6100513,101.74255
1.5138313,100.86904
1.5575879,99.953285
1.4851304,98.221375
1.3137397,93.483795
1.380541,95.79168
1.4340457,88.07427
1.4286824,88.54294
1.382659,82.53948
1.3498819,81.59304
1.3307934,81.70542
1.2615235,74.605225
1.2398559,78.54037
1.1967462,73.06107
1.1219715,70.73613
1.1060859,68.38344
1.0775974,69.006836
1.017832,62.363552
0.98555624,61.138157
0.8691867,60.586884
0.97305965,58.205738
0.91563207,56.57968
0.9046601,53.2375
0.84990585,46.88444
0.91693646,48.15526
0.9097254,46.726955
0.8924293,45.79842
0.92052203,41.921135
0.88570553,43.508842
0.8471844,40.13784
0.84412974,40.0
0.82172227,41.164143
0.77334744,40.0
0.7623717,40.0
0.64703315,40.0
0.6727338,40.0
0.65717137,40.0
0.5349816,41.563046
0.3893749,40.0
0.5693565,40.0
0.6003468,43.706127
0.5044922,43.948006
0.5423165,43.49118
0.59817535,48.397224
0.67867905,55.454937
0.82079875,55.88668
0.91741717,55.129025
0.90663034,62.72541
1.0726886,65.188
1.2072703,69.111374
1.2680565,72.08446
1.3566515,78.298805
1.520533,82.530365
1.643195,91.03228
1.6519936,91.49555
1.7062017,97.03002
1.7599711,97.63282
1.8416275,101.218155
1.8986967,104.14238
1.82967,109.03142
1.8916875,107.096596
1.9544177,113.24897
1.9253192,113.74052
1.9719344,116.83909
1.9144495,117.05474
1.9996799,115.062904
2.015388,120.33973
1.9355187,119.492516
1.9568655,116.25044
1.9057952,118.646126
1.8742014,114.85299
1.7784942,115.35863
1.6572286,108.77785
1.7953763,111.89112
1.7328392,112.276115
1.6482432,108.12985
1.6628609,105.052956
1.6346902,104.93719
1.6095359,102.72164
1.5110638,99.56536
1.5532706,94.83596
1.5608622,92.8946
1.5040903,94.654976
1.554413,91.79948
1.5015262,88.99432
1.47673,85.3315
1.4187086,86.04959
1.3985605,83.13955
1.3653996,80.64565
1.2364947,78.27464
1.3121284,78.77578
1.2706182,73.48803
1.1402917,72.40278
1.140187,68.18581
1.0984106,65.69465
0.98540777,65.45705
0.9297213,61.921955
0.88143325,57.909096
0.9962659,59.134865
0.9614911,55.674072
0.9132138,53.66445
0.90109044,52.129375
0.94523215,49.162624
0.9789223,45.298717
0.92577595,43.580673
0.8712021,40.92847
0.86669916,41.49746
0.962174,40.0
0.8380508,41.658726
0.8442847,40.0
0.7797358,40.0
0.74713576,40.0
0.6200281,40.0
0.6348806,40.0
0.5424481,40.0
0.54850006,40.0
0.55910397,41.242966
0.5202485,40.0
0.52896196,45.245987
0.46577963,45.72266
0.4965794,50.253235
0.47947025,49.494034
0.67513645,53.301174
0.83999556,56.98257
0.7561379,60.06085
0.8806608,64.37478
1.0758009,71.009125
1.1221551,68.10915
1.2489258,74.37873
1.2701489,78.088936
1.4498801,80.39931
1.4522976,87.40948
1.5955234,95.357185
1.6403228,94.37583
1.687007,95.623146
1.7252793,99.35321
1.8226072,101.989
1.9019283,106.610405
1.8290235,110.42197
1.8409461,115.95891
1.852095,113.10786
1.9248805,116.14151
1.9646889,113.80538
1.827507,118.80529
1.9068556,120.24489
1.7783767,118.92549
1.8049016,115.21472
1.7372153,116.18471
1.7362069,114.84126
1.6600119,115.814926
1.6072253,113.89378
1.5789,107.42126
1.60551,110.23361
1.476135,107.356476
1.4631457,107.179756
1.3782382,105.64348
1.3897418,103.56578
1.323436,101.313416
1.3209198,98.995804
1.3983253,98.22164
1.3146746,93.590904
1.3343319,92.68802
1.3311787,87.98098
1.2622027,86.5501
1.2289824,89.09381
1.2316681,83.691826
1.1299613,76.99508
1.1409577,82.0528
1.0603076,79.18173
1.1089271,72.41851
0.9801212,70.16298
1.0199815,67.336296
0.9123965,68.11671
0.8357356,65.88844
0.8462941,63.530518
0.7985726,55.740223
0.8013925,60.458187
0.6501649,60.2519
0.688046,52.939476
0.7305496,52.629627
0.7447518,50.214424
0.68807924,44.862236
0.62887216,48.79573
0.59982026,46.469414
0.66212285,45.60835
0.59365165,42.5005
0.60812765,40.0
0.6414464,40.0
0.5207317,40.0
0.4906066,40.0
0.38794902,40.0
0.5334195,40.0
0.30885088,40.0
0.2266041,40.0
0.1853526,40.0
0.23264883,40.206734
0.16046675,41.552006
0.22082984,40.480328
0.28737482,44.655647
0.35196337,49.89224
0.45070982,49.536858
0.4597737,53.948154
0.5456621,57.368122
0.58478725,64.20276
0.7253539,61.161625
0.78270084,67.6066
0.9656023,74.325165
1.0616503,78.5365
1.1385057,82.76277
1.233667,85.47018
1.3676448,87.673836
1.3269122,93.20303
1.4122021,100.27273
1.4549658,100.000084
1.4700886,101.7402
1.5192189,108.40774
1.6350724,110.53738
1.5350528,116.5558
1.6230813,113.7147
1.4780723,114.739105
1.5769733,115.26254
1.5339456,118.47697
1.5302149,117.31074
1.5582082,116.665184
1.4095769,117.097824
1.407441,113.0707
1.3412728,113.579796
1.4010595,115.814896
1.3983457,114.873886
1.2360505,111.45447
1.3115115,113.7205
1.1717851,112.60287
1.1620686,106.35155
1.1845982,100.93283
1.219763,101.883064
1.1468794,97.32722
1.084739,99.328514
1.0360494,97.512115
1.157341,94.08027
1.115094,93.16448
1.0502717,92.29286
1.1138337,88.79742
1.0500026,86.31523
0.9425682,83.80503
0.98658985,79.728516
0.87789714,81.05997
0.82508564,76.5627
0.7820237,74.74498
0.7222067,73.22255
0.69690686,67.62681
0.588288,67.33662
0.58324826,68.07886
0.65641266,62.559208
0.54694974,59.21407
0.515338,57.41715
0.4593485,57.877472
0.45040146,55.362114
0.41373742,53.763744
0.46073675,51.020485
0.42170388,46.307896
0.33825353,44.802082
0.3639132,45.681023
0.39664,40.0
0.35424253,44.872513
0.3594217,40.0
0.32823056,40.0
0.31718522,40.0
0.2730155,40.0
0.1555863,40.0
0.09125944,40.0
0.12666695,40.0
0.09087133,40.0
0.07796942,40.0
0.024332618,40.0
-0.025669875,40.0
-0.07647791,49.26956
0.029219821,44.140995
0.11944211,48.956085
0.08121657,51.78078
0.20104799,55.537937
0.3320816,56.584373
0.37323782,65.05097
0.5314024,63.257755
0.5835309,69.87722
0.6088192,76.75176
0.79192775,76.634766
0.91096115,84.32436
0.8819862,84.68639
1.0915343,88.60166
1.1860396,91.49023
1.2820846,96.21152
1.2406448,97.07846
1.2178956,102.31261
1.315659,107.02779
1.3406636,106.092865
1.3911803,108.561966
1.3965552,114.03181
1.337497,116.42131
1.349383,115.141624
1.367511,119.11849
1.3940767,119.36959
1.3239305,119.766655
1.2733638,118.43991
1.2925864,121.53086
1.1690238,113.27372
1.3245844,115.751175
1.1945977,110.965294
1.0643953,113.55529
0.99962807,109.9799
1.1628208,107.07688
1.0867295,107.97365
1.0122278,105.54328
0.96143997,103.0366
0.83442444,100.211075
0.9673996,97.44962
0.9347058,96.61742
0.8997429,92.2739
0.86953735,94.79932
0.9051738,91.44033
0.9084905,84.34592
0.83718187,87.420334
0.85030675,82.04206
0.878308,83.53529
0.86761856,78.28877
0.7296189,77.50468
0.69632125,76.47645
0.6998278,72.209465
0.5000213,71.12222
0.57842726,68.05402
0.6132725,68.03587
0.44463482,62.047768
0.41719803,60.25645
0.3686415,58.896088
0.33837304,54.66745
0.34598845,54.619507
0.30677956,47.73376
0.26270816,53.85066
0.37557814,47.028095
0.35683423,44.800854
0.36415517,42.837242
0.3880888,45.373882
0.2752935,40.763783
0.29993293,40.216286
0.3258844,40.0
0.21504594,41.251545
0.19387907,40.0
0.11235444,40.0
0.05885717,40.0
0.08475832,40.0
0.026897859,40.0
-0.09273847,41.17994
-0.08734469,40.0
-0.021147463,41.148937
-0.042477433,41.83404
0.060068194,44.597916
0.07664888,48.08528
0.11451397,52.148293
0.07647344,53.04658
0.27677408,56.988102
0.37923193,61.849968
0.43654248,67.40495
0.58687663,67.34365
0.71553993,76.02497
0.84093845,78.25478
0.97910917,83.07399
1.0432096,87.34807
1.0770327,87.61437
1.2555314,91.25566
1.2161903,96.98984
1.3383706,99.759766
1.3408861,105.06063
1.4171776,102.828545
1.4154329,108.44807
1.5056003,112.99484
1.4273027,116.47434
1.4766386,116.054245
1.4160347,121.06521
1.4923403,117.19178
1.3085592,119.44346
1.3696266,116.508736
1.405845,119.799484
1.2904379,116.84827
1.3226037,116.084404
1.2668618,120.51007
1.2869995,114.53924
1.257709,113.62888
1.2717441,114.15302
1.1862772,113.019104
1.2256042,106.99958
1.1378704,106.65795
1.1621556,102.80598
1.0942999,102.85097
1.0534852,97.97849
1.0737674,99.72309
1.1194075,96.96459
1.1216773,92.641014
1.0679836,89.10154
1.1197491,91.39066
1.0567249,84.12474
0.9567202,90.96031
0.98057634,84.05409
0.9410731,81.45847
0.9214124,76.57688
0.84473747,73.10292
0.7823495,75.5482
0.74725366,71.3672
0.83415604,70.45579
0.7199508,64.213875
0.691691,65.21398
0.57352555,60.195415
0.49818948,61.32696
0.5993082,57.067326
0.55241525,56.15922
0.55769825,51.783436
0.5462728,50.041046
0.52559936,51.089485
0.5439072,45.50397
0.5494493,40.774197
0.6044511,40.259007
0.58594733,41.789272
0.53163517,40.0
0.49348414,40.0
0.44869828,40.0
0.48013642,40.0
0.29939392,41.00571
0.30255336,40.0
0.37875727,40.0
0.25638607,40.0
0.22163622,40.0
0.20489861,42.62901
0.17714722,41.919724
0.24618112,44.464157
0.33011115,48.43343
0.2785958,50.425194
0.2859851,49.372665
0.404674,55.675247
0.5277142,58.045345
0.6099691,63.826637
0.607712,60.252144
0.7907858,73.44779
0.92559385,69.145
1.1329695,78.490685
1.2183172,82.64148
1.2319084,87.51102
1.3451086,88.86895
1.3771303,89.51008
1.4800103,92.32719
1.5361274,99.68583
1.5411451,100.634315
1.6577096,104.71261
1.7851887,109.47616
1.6426798,109.35207
1.6480523,113.80354
1.8132147,115.156784
1.6892004,114.923134
1.7343439,117.617966
1.7780454,117.087006
1.6571519,118.87704
1.6536537,117.25364
1.6393139,116.33054
1.5753706,117.856125
1.6703497,117.85633
1.5627108,117.20822
1.5470116,110.53761
1.4485124,111.1788
1.4954128,109.13433
1.4650774,107.86582
1.4084463,106.60585
1.4356111,102.07968
1.3250836,101.11376
1.3279961,104.00033
1.4171017,101.67797
1.2848638,91.73231
1.4294002,95.181274
1.3678277,89.63878
1.2817559,88.59168
1.2337214,85.61313
1.2446893,81.69842
1.2409627,81.83759
1.2674558,80.33576
1.2895473,78.244415
1.2340846,74.94733
1.1161551,71.03703
1.0995066,70.11957
0.96057934,67.67371
0.974452,65.4028
0.9128011,67.18965
0.8519631,61.696033
0.86333615,62.453823
0.76223725,55.140965
0.8932114,54.52714
0.7694953,54.219852
0.8835601,48.62508
0.87511855,48.380894
0.7828571,48.69872
0.8019993,43.583096
0.81139845,45.259808
0.7807049,41.172733
0.7467768,40.739193
0.80225486,40.57187
0.67730284,40.062523
0.678105,40.0
0.57558674,40.0
0.7644916,40.0
0.62145543,40.0
0.50243425,40.0
0.5770545,40.0
0.47078726,40.0
0.45015875,40.0
0.4671807,43.457233
0.55479664,44.361427
0.55422825,44.199734
0.49052632,53.235363
0.75924337,49.253998
0.7582608,56.32933
0.78620476,60.839855
0.9754818,62.180145
1.0561756,70.939545
1.1589607,77.37344
1.1960373,71.6312
1.4725517,79.85939
1.3823997,84.31526
1.5357423,87.31024
1.6598277,96.339935
1.8371547,94.76545
1.8427963,98.65878
1.7627811,103.903
1.8836249,103.832985
1.962176,110.07201
1.8884814,113.85423
1.8920854,113.87651
1.93503,116.9586
1.9688056,112.54118
1.9087654,111.90337
1.8936942,115.53497
1.8950142,115.7838
1.82375,115.2432
1.8768727,119.89862
1.7755829,120.29368
1.7809819,117.32824
1.8077552,117.60567
1.7967981,116.67173
1.6816754,111.76842
1.7390034,109.71737
1.6393433,105.55359
1.5982648,111.65452
1.5123385,102.58097
1.4708296,101.28215
1.5053447,103.129
1.5821958,99.68502
1.4614078,97.02905
1.5592005,93.95932
1.5760535,87.29481
1.4170173,86.38056
1.5648414,86.582085
1.5150073,83.53116
1.4659708,82.29979
1.3714528,80.404434
1.3221692,77.95712
1.3220515,75.79481
1.274893,73.01095
1.2546296,72.34285
1.0729392,68.394554
1.2001183,61.968166
1.0721195,64.11431
1.026508,63.31681
1.0537945,59.724754
0.99207085,56.053707
0.9783788,54.8632
0.9290758,55.197422
0.9239467,48.45772
0.911794,46.73499
0.7952007,46.445965
0.9491569,47.36364
0.86625874,44.2094
0.8539718,41.841553
0.8233901,40.723732
0.81042,40.0
0.82803065,40.0
0.77407736,40.0
0.7339372,40.0
0.73213446,40.0
0.6476018,40.0
0.60606265,40.0
0.5884296,40.0
0.4915848,43.68121
0.5085677,45.599606
0.608777,42.119167
0.61214364,44.699497
0.6110754,49.886753
0.64827985,48.597034
0.6598395,53.715576
0.7670827,56.920937
0.83016956,62.092873
1.0234712,63.25515
1.0302551,66.61384
1.2545979,72.46736
1.298903,75.79215
1.383578,82.82895
1.5517032,84.049736
1.6206119,86.063705
1.6159813,91.02772
1.7335063,96.89843
1.8423309,95.22221
1.8694974,101.93413
1.8028151,106.50669
1.934769,108.46338
1.7940792,107.118065
1.9608972,110.31827
1.9881546,114.01751
1.9939246,113.0205
1.9431598,112.50542
1.8345567,116.428894
1.791745,116.96034
1.8937392,120.09018
1.7850919,118.61848
1.7894462,115.551765
1.8661329,116.77917
1.8380668,116.57411
1.7562063,110.21115
1.6828511,110.43562
1.6470236,112.36033
1.571649,109.95354
1.5967187,104.80187
1.5580539,106.50063
1.4284526,103.22671
1.5232832,98.589424
1.3487749,98.84188
1.5394064,95.14104
1.3635535,93.56881
1.315814,93.34421
1.4005373,88.55718
1.3557309,89.74484
1.2995691,84.961586
1.3177834,87.624954
1.3269392,78.05168
1.2395743,78.26438
1.2640101,76.391556
1.2113899,75.52737
1.0542928,74.23809
1.1404704,70.84621
1.0129651,68.4825
0.9571999,67.20013
0.8893882,62.750412
0.89876467,61.994987
0.8239877,57.643784
0.7497804,56.682255
0.8026412,49.01252
0.7635848,51.85473
0.77256644,49.770283
0.8255827,50.4471
0.8137454,46.92747
0.8140464,48.580418
0.7381869,41.326035
0.70100373,40.61147
0.7645497,40.715374
0.65372014,40.0
0.64962167,40.0
0.7167287,40.0
0.574899,40.0
0.4717741,40.0
0.42098033,40.0
0.41879416,40.0
0.31745076,40.876694
0.3333076,43.38785
0.29204965,43.627182
0.36408538,44.052525
0.37936053,46.54456
0.4372187,50.27798
0.45108822,53.392914
0.5735693,57.661686
0.67988914,60.32292
0.6329952,64.62215
0.8057279,66.1351
0.97239685,71.64619
1.08138,70.34307
1.0901306,80.99162
1.296806,81.91654
1.3589033,85.49667
1.4637884,92.65616
1.5209737,94.45633
1.5285188,97.16917
1.5265336,104.02696
1.6193671,103.49742
1.6314882,108.637054
1.6830375,112.98258
1.6626306,111.54274
1.6611732,111.41176
1.7818736,120.078835
1.6672738,112.85908
1.6448762,116.959076
1.5900698,115.782814
1.6765107,117.31406
1.5757487,114.77519
1.4443463,118.801476
1.5636582,116.62494
1.521373,114.796745
1.471327,116.86295
1.3845023,113.8003
1.3466161,113.74087
1.3952577,108.5727
1.3164979,106.46573
1.260703,100.44338
1.1830972,101.968666
1.1411068,102.29851
1.1037483,99.99137
1.2058858,98.811386
1.2182902,92.43368
1.2043096,89.80838
1.1145549,88.552734
1.154843,88.07247
1.0358559,82.75754
1.0639255,81.07473
1.0254719,81.189125
1.0745687,73.449295
0.89941883,77.1626
0.97651786,73.79343
0.8844202,72.52216
0.79213244,65.830444
0.74136543,66.745094
0.64052427,65.21119
0.6529848,59.938564
0.59594536,61.931877
0.4762968,61.89064
0.5527886,56.812763
0.50156754,54.633926
0.4332979,54.773766
0.5435599,47.947094
0.4268521,49.63212
0.50403196,45.875347
0.5009149,43.87704
0.4434173,44.776527
0.4954838,40.0
0.44851515,40.416615
0.47048268,40.0
0.32727775,40.540306
0.4115938,40.0
0.27318534,40.0
0.20333281,40.0
0.16373341,40.0
0.1331295,40.0
0.061288845,40.0
0.099348396,40.0
0.06735218,45.316082
0.09677655,43.742283
0.07493851,46.237133
0.1102595,49.458843
0.21092963,55.0694
0.25807208,53.369453
0.3674186,61.50835
0.4375067,60.69336
0.45947322,68.334785
0.68658864,72.207054
0.7831283,74.59796
0.9432238,81.676895
0.99163955,83.04126
1.1130202,86.79874
1.071501,90.634834
1.2148942,100.08674
1.3313504,98.61167
1.2193961,104.07703
1.2967153,106.57417
1.4093227,108.12306
1.3140514,108.36261
1.432477,114.39613
1.4454004,112.99286
1.386333,113.21027
1.3441763,115.207794
1.3631891,118.60261
1.4854503,116.86039
1.3050795,118.48866
1.3048719,117.484505
1.360808,118.09396
1.3811206,119.44487
1.2516075,114.78039
1.1957674,114.451706
1.1349,112.26427
1.1847702,110.56642
1.1006882,109.9831
1.0496427,107.11591
1.0102099,105.36258
0.99378186,101.79965
0.9990101,103.50552
1.0123053,101.43094
0.9710428,100.58335
0.9487467,93.52197
0.91845465,91.82235
0.9112189,92.845116
0.8263425,86.15042
0.91218054,88.4314
0.8582186,80.22141
0.7700004,79.64769
0.83632743,76.8119
0.7651025,74.84813
0.60534424,71.39596
0.62960523,69.65132
0.5769999,65.79611
0.4936185,65.51021
0.4997256,66.7002
0.34820735,58.733246
0.45910773,62.94749
0.41746765,58.623047
0.40700352,55.460377
0.29480875,53.024456
0.3885679,47.57634
0.3164698,48.951195
0.31314608,48.633503
0.3182423,47.067776
0.2938377,45.542374
0.23139916,43.452457
0.2959227,40.457634
0.28268272,40.0
0.23659958,43.236656
0.24504559,40.0
0.14467406,40.0
0.1891617,40.0
0.14912364,40.0
-0.040117208,40.0
-0.039280005,40.0
-0.057694282,42.311718
-0.020680008,40.0
-0.011118685,40.95141
-0.063763075,48.61716
0.017346468,45.03914
0.0038120952,51.226734
-0.026304517,51.496567
0.16100395,52.38302
0.17531714,56.340977
0.3222066,63.694103
0.52813417,66.3247
0.49358886,70.38659
0.66615206,77.23005
0.87805796,73.38126
0.8784842,82.78322
0.96264744,87.01134
1.0764718,88.4492
1.2190115,93.3111
1.1996295,99.17076
1.2304498,100.445854
1.3688664,105.40662
1.2582171,108.22763
1.3752438,113.085266
1.3344244,109.566345
1.4358542,117.51961
1.5149863,110.728615
1.4257505,113.756454
1.369488,118.96428
1.3874812,118.88601
1.3821106,116.65705
1.4034518,118.30972
1.3784629,116.148766
1.2826148,113.699326
1.3576432,115.8174
1.2306772,113.71509
1.2002938,108.97669
1.021356,107.66455
1.1165206,106.85605
1.0873023,106.165215
1.0816311,104.74248
1.0654495,106.85461
0.99896073,101.63476
1.110685,99.747246
1.001898,93.77436
1.0004174,91.82065
0.9535124,90.982834
0.921114,90.78868
0.9288276,86.999725
0.88978696,86.46813
0.8800534,81.38456
0.8319572,82.07394
0.8609439,81.2356
0.7940826,78.191765
0.8120981,75.769104
0.74794674,69.18275
0.6324027,69.31383
0.52870125,64.31946
0.56976396,65.21765
0.5340615,61.948948
0.44136226,60.884506
0.430687,63.550385
0.41028854,53.892326
0.4379831,54.044605
0.46930644,49.13419
0.5147108,48.14996
0.42050216,44.583572
0.4419571,43.328392
0.4055151,44.08626
0.34557927,41.88986
0.40201733,40.55434
0.47347644,40.0
0.38442665,40.0
0.3188305,40.0
0.27494493,40.0
0.32455188,40.0
0.33964702,40.0
0.21739252,40.0
0.16605888,40.42585
0.12587759,43.20738
0.09006366,40.0
0.13020355,41.621326
-0.007212762,48.163536
0.13812424,46.484352
0.16863038,49.55307
0.2613949,53.305836
0.34108508,57.802597
0.4158892,60.36588
0.53163975,65.42674
0.6000978,63.065636
0.6965369,65.782684
0.90982914,75.00646
0.94578695,80.691
1.0609666,88.20975
1.1724237,88.68091
1.2862705,88.566574
1.3052987,94.37422
1.410391,98.89347
1.4692264,100.18938
1.5154984,104.89736
1.5922365,104.672226
1.5818216,110.58243
1.5684073,113.5233
1.6312436,114.02835
1.571759,117.12463
1.6669058,116.75663
1.5938569,116.134605
1.6176282,119.90291
1.6331402,118.12209
1.5923623,116.533226
1.597929,119.78386
1.4888233,115.09018
1.4013907,113.95624
1.4588732,118.257935
1.3837206,113.47172
1.33723,113.07583
1.2981855,110.941124
1.3993955,101.8534
1.3727012,105.864494
1.3077775,104.83604
1.3014212,98.00925
1.2189661,96.64075
1.153253,96.1187
1.2838148,95.32894
1.229356,91.72178
1.1938589,90.824554
1.1878455,89.306465
1.1488326,87.111694
1.0139574,84.83336
1.0464916,79.91969
1.0550407,76.461945
1.0892371,74.91711
1.1060296,73.41251
1.0379484,75.156364
0.96851236,71.63007
0.9273748,69.559326
0.8173839,62.528152
0.8008022,62.511345
0.83152926,63.83066
0.7549153,58.611813
0.72311896,55.54025
0.7704276,52.250088
0.7374047,52.21609
0.7107805,48.80465
0.82330865,50.016933
0.74125135,43.786877
0.7146961,48.62079
0.7961328,44.41593
0.7146293,40.0
0.6517891,40.0
0.74521035,40.0
0.5316216,40.0
0.67922485,40.0
0.5822622,40.0
0.5543963,40.0
0.48619723,40.0
0.40298748,40.0
0.38864127,40.0
0.33857182,41.10946
0.4398331,41.639473
0.4223172,42.693623
0.4706084,47.889603
0.46811846,50.68089
0.57136947,49.464783
0.6027858,53.053295
0.74017906,56.83596
0.9199735,61.53457
0.9729205,65.858505
0.93760115,65.55032
1.1484418,71.366035
1.1326501,81.28064
1.3253008,81.398964
1.4185855,86.724525
1.5679641,88.628525
1.535738,91.66587
1.6866139,97.3776
1.7521945,102.11999
1.5984039,102.0861
1.7256026,106.30591
1.8142807,103.20083
1.9539965,112.065865
1.9252638,113.486595
1.9021149,112.71074
1.8246143,120.60425
1.8132077,116.69497
1.8460531,117.25684
1.7946469,119.07086
1.8183441,115.99953
1.8570037,118.80704
1.7810065,110.392975
1.756397,110.796646
1.7006844,116.13445
1.6482731,114.7282
1.6229038,115.46225
1.571654,107.75337
1.64859,105.87709
1.5926628,104.79028
1.5640796,99.33243
1.4580029,101.28301
1.4761436,104.190346
1.4761881,97.75834
1.4202806,92.49685
1.4083718,89.6219
1.4075288,90.127045
1.5396175,88.67407
1.3707322,86.59791
1.4021851,86.3243
1.4491857,79.83184
1.4130499,81.812355
1.3848195,74.66292
1.3792405,71.60881
1.2279086,71.171455
1.1809313,71.637924
1.1610557,66.64156
1.0443833,65.41354
1.0275328,58.88987
1.0258131,64.70543
0.99096024,60.33645
0.951564,53.918552
0.8995367,54.220463
0.91826624,53.348774
0.80741036,49.81806
0.8082842,48.773586
0.8535428,46.549004
0.8768963,40.0
0.9221315,43.257057
0.8719045,40.0
0.76686877,40.0
0.8943793,41.34338
0.8328664,40.0
0.74794877,40.594017
0.6283874,40.0
0.68562526,40.0
0.60415196,40.0
0.54735464,40.0
0.6257798,40.0
0.6125535,40.0
0.5938546,40.024994
0.4928349,41.540028
0.64301753,45.989838
0.6143942,45.257298
0.7041524,50.969536
0.6123051,54.16056
0.8218394,61.01767
0.96888644,60.57468
1.0404822,64.33178
1.1392682,69.75293
1.1802676,74.30449
1.3451219,79.780914
1.4378991,85.26742
1.5761372,88.28767
1.6324079,87.85125
1.7720767,95.91868
1.7851197,98.59545
1.8315374,99.894745
1.7787915,103.25717
1.8800749,105.186485
1.9888704,107.65646
1.8666655,111.17193
1.9046706,113.19646
1.9234546,111.6553
1.9099528,114.688286
1.8523182,119.99496
1.9238777,117.49336
1.9552087,116.3121
1.9068745,119.01012
1.933258,114.97085
1.899631,115.51974
1.7890474,115.3106
1.7680478,111.28205
1.7664489,112.39858
1.7236196,106.95834
1.7348381,112.16265
1.6045047,110.15416
1.5774083,104.910805
1.5609194,105.42605
1.5769923,101.10013
1.4547315,98.39648
1.5501753,99.233894
1.4606127,93.64947
1.4766663,91.21639
1.4838009,93.45738
1.3725933,86.42898
1.4005133,84.27892
1.3491327,84.70765
1.3039007,86.431755
1.3689262,77.30258
1.290862,77.625404
1.2741945,76.21938
1.2291636,75.495895
1.284666,69.412094
1.0591407,70.814064
1.0865233,65.35059
1.0552248,62.0582
0.94915664,56.68748
0.9206019,59.841988
0.9019796,56.231003
0.8578731,49.134422
0.91690236,54.69612
0.8938681,53.34864
0.86742806,49.0154
0.832789,48.500404
0.8288183,48.063908
0.91350466,45.404484
0.9344769,40.0
0.7400002,40.127216
0.7176864,40.474586
0.75034964,40.0
0.68608177,40.0
0.7482049,40.0
0.6161987,40.0
0.5847043,40.04401
0.5109491,40.0
0.6307702,42.480534
0.41975,41.97922
0.35788086,40.0
0.46417102,46.525734
0.4281194,44.55234
0.51432776,45.54338
0.52413756,49.59694
0.6248892,53.32454
0.69302505,55.01098
0.7584377,60.21893
0.9154248,65.113556
1.0414675,68.4831
1.0674185,70.49937
1.251623,78.32464
1.324336,82.5385
1.283298,87.72224
1.4359957,84.04266
1.6034899,94.65419
1.5976325,97.99024
1.692511,94.4928
1.5914756,100.67831
1.5781802,105.98669
1.801049,111.33143
1.7501969,110.62762
1.8213012,113.132
1.7438452,112.40451
1.7505829,115.51763
1.8082206,112.02744
1.7417377,114.120415
1.7592831,117.31062
1.6736647,114.97277
1.6814331,116.08659
1.6715769,119.42615
1.6209413,117.609795
1.5774733,115.856674
1.494886,114.11039
1.4991044,110.602905
1.3610831,109.483826
1.4921759,108.94383
1.4336929,102.00808
1.3611392,106.14069
1.3040519,98.35412
1.3304533,99.12359
1.4378039,96.53436
1.2791456,95.45892
1.1464975,90.78828
1.1179045,92.324875
1.2352124,86.54846
1.246219,85.20533
1.251473,82.708176
1.1422255,83.86529
1.1156032,79.53021
1.0467473,75.70992
1.0093855,77.07415
0.9734229,75.31038
1.024689,69.411514
0.8586478,65.589836
0.9181669,65.42847
0.7533844,64.941086
0.79329264,61.090134
0.7199897,59.351532
0.6549916,54.10126
0.5948685,53.693966
0.65516245,53.316154
0.61107886,46.525135
0.60491514,48.263737
0.5820147,49.90547
0.6652674,43.854507
0.5605612,43.342735
0.6139292,43.41735
0.5264069,42.82434
0.42236605,40.0
0.50026476,40.0
0.45906994,40.13825
0.3377218,40.0
0.3145505,40.0
0.23572385,40.0
0.26713106,40.0
0.29146317,42.712513
0.19108498,40.0
0.17706622,40.604908
0.19895466,40.0
0.121110395,43.398575
0.23683865,49.059
0.32033154,52.720207
0.35942605,52.556305
0.41878587,53.97098
0.5076341,62.66565
0.6520796,65.55615
0.69242525,66.05182
0.83783257,73.11886
0.93800735,76.82429
0.9929656,83.59883
1.0140716,88.05949
1.2206367,86.49077
1.2848381,87.20754
1.2001963,97.534996
1.4256685,95.85757
1.3930317,104.0382
1.4483464,104.3157
1.5550674,108.43845
1.4706304,110.81685
1.4832859,114.66813
1.508572,116.7929
1.5249156,120.09344
1.5408845,114.74057
1.4758693,118.2506
1.4939733,117.171906
1.4168096,117.52204
1.4266456,115.82987
1.279615,116.77707
1.3803678,114.2852
1.3477358,112.87495
1.3006341,109.9607
1.3595041,114.58706
1.1258564,109.11962
1.0966866,105.10017
1.1646494,108.54822
1.0337925,103.7176
1.1400138,103.10244
1.0836802,98.86024
0.936413,97.71546
0.9869036,92.221306
0.98728615,87.668564
0.9769757,91.44941
1.0555778,88.32216
0.95340526,86.96499
0.9126069,89.62718
0.90967995,80.40501
0.99552566,80.69019
0.8388563,80.37526
0.801719,76.894936
0.7121868,73.60372
0.7040961,71.55742
0.70620054,66.396194
0.56972265,65.33771
0.52005494,70.22366
0.41832995,60.980106
0.4513218,57.63485
0.4685791,55.17535
0.44698244,56.627846
0.3937323,51.91175
0.41439226,53.036953
0.40122893,50.330402
0.3485532,47.177788
0.3799597,41.485565
0.3094752,41.743843
0.32791317,40.0
0.3370522,40.222805
0.4239965,40.0
0.22838913,40.0
0.14578937,40.0
0.32458702,40.0
0.116966136,40.0
0.12380758,40.0
0.09602856,40.0
-0.057708923,40.0
-0.07845636,40.0
-0.005903341,41.667496
-0.051746037,41.81443
-0.078642845,43.5266
0.05972164,50.42398
0.006964109,49.61042
0.18776117,52.70903
0.24137677,55.97213
0.45521602,58.60674
0.44064113,63.423386
0.5179066,68.251
0.5353299,70.36648
0.7712315,76.7497
0.75286525,83.26958
0.93029,84.078766
0.9819678,91.6848
1.0758585,93.04621
1.1432687,92.92823
1.1910261,99.0486
1.2446833,100.84558
1.3592032,105.99285
1.2997816,106.99678
1.2965434,113.75369
1.3705763,109.44266
1.2879733,117.67369
1.4130039,114.596634
1.3864199,112.9966
1.4231296,118.94886
1.4711616,114.36089
1.2628417,118.38172
1.2764721,118.372826
1.2726716,119.110466
1.2287349,120.1374
1.1850656,116.98587
1.1806285,113.90067
1.1535212,114.23651
1.1603673,107.28436
1.162834,109.24676
1.0177001,106.60519
0.97190887,100.08669
0.9722362,100.32101
0.94412875,95.67553
0.9409466,96.969086
0.8832513,95.45416
0.884849,91.62687
0.87864506,90.99776
0.79166585,89.123726
0.80101603,85.333954
0.82714397,85.7638
0.879664,82.00625
0.9072633,80.93113
0.8127169,79.65747
0.7382722,76.28608
0.6693766,71.36866
0.6756739,72.3998
0.6704367,71.64842
0.5827601,62.119637
0.49800014,66.47497
0.40407786,63.33405
0.44498017,61.24864
0.30579728,59.961964
0.34764013,52.017048
0.36948606,52.819294
0.34801975,52.679943
0.3785688,48.247128
0.32601625,50.151676
0.39902642,45.15166
0.39816546,45.808846
0.28933114,40.541897
0.35748026,43.283257
0.3665349,40.0
0.35164657,40.0
0.2652792,40.0
0.1899833,40.0
0.16232477,40.0
0.18834077,40.0
0.07310823,40.0
0.13256627,40.0
-0.021935977,40.0
0.055784874,40.0
0.04364766,42.781647
-0.058274504,44.518593
0.037980177,45.67886
0.05254045,49.55166
0.15194276,52.119755
0.304317,56.131844
0.28258657,57.80904
0.50487715,65.87858
0.6188479,66.02649
0.6662037,70.87834
0.8147105,74.71563
0.88848937,77.492195
0.98509765,80.94119
1.0478953,86.48353
1.1233319,90.101944
1.325094,95.31867
1.2386076,98.70814
1.400272,101.382
1.3891715,104.4318
1.4268616,106.41994
1.5512766,110.31405
1.4904002,111.99517
1.4560925,117.97925
1.5371109,119.26385
1.5188544,114.917435
1.5042408,120.024315
1.45696,114.88553
1.4033892,117.01037
1.4673605,115.71328
1.4304706,115.6468
1.4826189,115.752914
1.4413668,117.03488
1.3421253,116.00888
1.3892249,113.32493
1.3206722,111.29738
1.2088643,108.90057
1.156594,105.48436
1.0249805,103.751625
1.1817402,102.472275
1.0134714,105.6457
1.079583,102.113495
1.1348879,98.20348
1.0956495,91.4993
0.99129206,93.70983
1.1290606,87.18529
1.0232297,85.47641
1.0993356,84.505455
1.0302883,86.20361
1.0347316,81.60757
0.9911461,75.83124
0.92584133,76.40917
0.9274155,76.34482
0.88237613,75.279205
0.7814878,69.635506
0.7711936,65.85614
0.71786344,66.80241
0.74416286,64.0666
0.721496,64.8158
0.5399756,62.555374
0.6257625,54.95948
0.48159674,56.41913
0.592045,49.500732
0.6271886,45.480034
0.6179106,47.15524
0.6119746,45.607838
0.6256008,44.81545
0.5659708,41.111122
0.537653,40.0
0.6482722,40.0
0.48233867,40.0
0.52555263,40.0
0.5369396,40.0
0.48974922,40.0
0.34056714,40.0
0.37795407,40.0
0.28668064,40.0
0.29015964,40.28567
0.27628797,40.0
0.24501601,43.1365
0.30264264,43.558563
0.26846978,42.5145
0.31265545,49.29694
0.4119547,55.227932
0.4206217,57.986332
0.6823153,59.498085
0.63277864,64.19395
0.8177034,65.4176
0.95637256,71.74849
1.1472622,73.23521
1.2083381,80.06004
1.2894777,82.44826
1.3829864,89.0106
1.3856306,92.39002
1.5601206,95.8897
1.5868553,97.77707
1.5951817,104.38852
1.626801,103.93777
1.684891,108.21847
1.769472,112.48291
1.7877964,109.16439
1.7843698,110.428696
1.8223978,116.34395
1.7956847,115.35678
1.8379458,115.77132
1.7283841,116.24191
1.7387462,115.939445
1.7396133,115.97707
1.736807,113.48854
1.698294,115.004265
1.6455488,118.26533
1.7300265,116.56586
1.5405307,113.153465
1.5918925,110.22367
1.6019175,110.175064
1.456041,107.05222
1.5660696,106.82823
1.425173,103.7725
1.4357795,103.20483
1.4369868,97.5894
1.2932903,98.129684
1.3431554,94.97947
1.2540476,94.6548
1.3340126,91.79868
1.2889493,84.724815
1.4409739,86.45049
1.3290874,80.839005
1.271989,81.04327
1.2617153,75.3282
1.3048061,74.78589
1.1081611,73.38198
1.1628784,71.87126
0.99594676,67.83057
1.0254538,69.30426
1.0294731,68.21956
0.9425031,63.56076
0.92474174,61.977833
0.91388685,62.945877
0.84355235,55.49572
0.85322756,54.76302
0.9398468,53.02871
0.84505224,47.644245
0.8563384,45.347157
0.8798678,43.58388
0.8853025,42.220715
0.8398641,44.20291
0.8259079,40.0
0.9287786,40.05498
0.8451125,40.0
0.76237744,41.19255
0.65876204,40.0
0.7449534,40.0
0.6255807,40.0
0.56570464,40.0
0.5628103,40.694157
0.4766239,40.0
0.5291595,40.276413
0.54536366,40.35691
0.60885286,44.57386
0.51043797,47.529728
0.5326076,47.10345
0.75311357,51.847652
0.68532073,53.481293
0.8306553,63.29744
0.9600242,60.937996
1.0629241,62.7032
1.1657873,76.80398
1.172366,74.658806
1.4271393,81.319984
1.4361292,78.99559
1.586629,91.26795
1.5840781,87.54386
1.6650337,90.82534
1.7059386,99.28812
1.8713484,98.94125
1.9075738,105.36876
1.9334146,105.45381
1.9499539,108.696686
1.8902035,110.605064
2.0022168,113.05822
1.905284,118.236534
1.8811055,113.26638
1.9632645,117.82167
1.9040856,115.76812
1.965879,117.67471
1.8785865,116.67188
1.9371244,121.551674
1.8512974,115.325745
1.8264107,115.165794
1.8745735,115.11796
1.7061669,112.62452
1.5801843,109.11053
1.6568385,106.12465
1.7124743,109.769875
1.7665073,108.46414
1.5366108,101.78679
1.5283632,104.729095
1.5168144,96.91168
1.6267754,99.81264
1.5301126,91.79035
1.44755,91.38124
1.4868904,93.24056
1.5372789,86.68736
1.5787709,86.01169
1.4338363,82.19189
1.3555634,80.11393
1.2864187,82.70644
1.3850508,77.02262
1.2285659,73.98165
1.3135225,69.36339
1.1537881,71.82932
1.1021327,66.98312
1.0730635,66.07659
1.1535134,64.40675
0.9426445,61.287273
0.965314,59.67932
0.9343268,57.118343
0.848345,53.650356
0.9341151,53.36322
0.9781965,49.703304
0.930091,51.50046
0.950965,45.659344
0.84119433,42.236916
0.89642626,42.32099
0.886452,42.4697
0.9247345,40.0
0.78658736,40.0
0.87880695,40.0
0.87557685,40.0
0.58643115,41.77134
0.66279066,40.0
0.63509834,40.0
0.44935754,40.0
0.476332,42.12494
0.49503395,43.286476
0.55342185,42.884872
0.5553642,43.670242
0.5387349,45.63424
0.6333403,46.76439
0.58462334,46.707996
0.7177858,55.284653
0.77659243,55.728718
0.83331114,59.315735
1.0396465,64.1331
1.168235,66.68975
1.2703196,74.79575
1.3856725,79.65946
1.4344231,80.84603
1.496152,85.3707
1.5648651,91.13764
1.7376589,93.482185
1.7374729,94.737816
1.7214063,100.50601
1.8394765,103.70313
1.8920952,104.22874
2.0038197,108.29321
1.8160639,110.45503
1.8852353,110.48049
1.8936203,118.74033
1.8726289,114.852036
1.9703659,117.180916
1.8138618,115.07712
1.8141226,115.97569
1.8330755,118.36515
1.7797363,117.94174
1.8521963,115.62235
1.7405149,115.18302
1.6872917,112.16971
1.6770722,111.18987
1.6307386,113.54616
1.4765292,107.4828
1.4637942,110.3602
1.5006545,103.158516
1.5386565,101.30368
1.4783493,98.903915
1.4032305,101.33377
1.4467871,95.39713
1.4201947,94.520226
1.3310037,92.16301
1.3674451,86.64616
1.4241941,84.36019
1.2611814,84.039894
1.233796,82.24822
1.2995952,79.014114
1.2021457,81.11117
1.159386,73.20175
1.0666225,77.99551
1.0849735,70.67849
1.0585169,70.56672
0.9732106,68.81686
0.97776747,65.987724
0.9129445,66.03465
0.95779306,61.499886
0.81904113,57.97735
0.7849981,55.98923
0.83061206,55.58853
0.7809342,51.37164
0.72219974,45.054947
0.7218505,46.18229
0.77542496,47.23258
0.7510175,48.378582
0.6415878,41.325893
0.6216453,40.0
0.6651686,40.0
0.63101715,40.005306
0.66124016,40.50784
0.5975966,40.0
0.5887445,40.0
0.51510113,40.0
0.41715056,40.0
0.41026264,40.0
0.34734613,40.0
0.32411027,40.0
0.23404334,40.0
0.28217596,45.191994
0.18650654,46.08593
0.3963992,51.420975
0.4111481,49.019794
0.3727884,54.895893
0.58472013,58.419537
0.582639,66.36888
0.78118557,65.88303
0.9432379,70.0174
0.9576191,71.63909
0.9664974,75.14229
1.1383499,84.078415
1.2674825,82.375206
1.2746217,89.71468
1.3799304,96.18454
1.3593982,93.21458
1.4879639,96.136024
1.5879138,103.10573
1.5340457,106.09965
1.6424608,106.12174
1.553736,111.006714
1.6310425,116.65039
1.6535289,117.63977
1.5738082,113.16202
1.6672153,113.67976
1.5473006,117.574776
1.6159009,121.83013
1.6571592,119.16029
1.5721707,120.68024
1.5353934,115.97644
1.5043144,116.01006
1.3195266,115.68542
1.3200152,113.742165
1.3225365,113.59599
1.3196048,110.520294
1.2389618,107.89009
1.170439,105.60343
1.1589375,106.64665
1.2460119,100.58268
1.2835002,101.61854
1.0229472,98.12619
1.1316925,92.21619
1.067171,92.91293
1.0058225,88.49559
1.0853432,87.9875
1.1101723,84.99574
0.9486068,83.13035
0.9037827,79.50709
0.933736,79.53359
0.89660007,73.88509
0.91200596,77.38503
0.80825937,71.92868
0.87168145,68.95442
0.68671817,68.49101
0.5942359,68.171616
0.6108474,61.426346
0.59666544,59.202366
0.504565,58.54569
0.4970833,57.434902
0.43741763,52.91889
0.4290084,51.864635
0.43218866,49.500492
0.36968064,51.865993
0.48654008,48.142525
0.40716726,46.82033
0.37954104,44.2001
0.42446613,40.0
0.3818164,41.272675
0.43059722,40.0
0.26276737,40.0
0.299787,40.0
0.18935712,40.0
0.27634516,40.0
0.15077214,40.0
-0.016989185,40.0
0.08127485,40.0
0.09946444,40.37585
0.008982784,40.699608
-0.027120208,45.814816
0.11797482,47.57943
0.14074174,47.84128
0.0662684,51.456177
0.19800961,54.872498
0.2670395,54.08448
0.34584558,66.02219
0.55662227,63.656487
0.53265494,64.516426
0.6792746,72.047775
0.7754094,70.74446
0.901224,79.27427
0.87925476,83.60328
1.0804185,87.245834
1.0657543,87.84877
1.2037898,97.46321
1.2637856,100.34924
1.270317,102.8435
1.3802099,106.920105
1.3867501,108.42899
1.3644408,116.09021
1.4107238,113.859024
1.3259917,114.53106
1.4997895,117.942604
1.3961679,115.94904
1.4028484,118.67184
1.3612875,117.70851
1.360677,116.79899
1.2799485,118.56394
1.2362028,117.436646
1.2808008,113.597565
1.2693249,114.59467
1.2210525,114.498085
1.1167393,107.75556
1.0832714,107.77912
1.0962194,105.137596
1.1063596,105.63403
1.030143,104.01199
1.0097619,101.2205
0.94056195,99.96162
0.93381804,98.44349
0.8206194,94.16098
0.90193754,95.65756
0.89846444,91.31549
0.91136324,88.18609
0.85129905,84.05673
0.9058111,80.6466
0.79372853,82.66543
0.80843294,80.75387
0.6908751,75.08113
0.7143207,78.802895
0.6646608,75.352974
0.6216842,72.111984
0.64851946,70.25784
0.4868874,71.0302
0.4816789,66.034
0.2978232,62.161304
0.44579837,57.183964
0.34315798,56.35661
0.36386135,56.68437
0.37936148,52.466583
0.31582278,52.138844
0.28236732,52.208168
0.29400063,48.37787
0.4039988,44.561947
0.2895512,43.35368
0.22436361,40.0
0.27807334,40.0
0.2552836,40.0
0.20820475,40.0
0.27608413,40.0
0.17499451,40.0
0.17749824,40.0
0.04162578,40.0
-0.008878428,40.0
-0.04108633,40.0
-0.15149215,40.0
-0.11696549,41.004375
-0.010806399,41.4769
0.087112315,43.473312
0.024104415,46.466774
0.05329301,51.57926
0.15067115,52.778793
0.2187872,54.53553
0.36883104,60.247395
0.5010011,64.22389
0.49536595,68.63314
0.6739329,70.3147
0.72508234,76.53903
0.8074372,80.51633
0.92081624,84.35508
1.001224,85.12822
1.0860353,89.51315
1.2733053,94.99651
1.2191609,98.974915
1.2695875,100.85959
1.3040034,104.02519
1.3228714,106.53073
1.3467871,108.3839
1.4389812,113.81501
1.3930633,112.85515
1.4170084,119.35426
1.3416985,114.20052
1.3407435,118.62735
1.4057333,118.12517
1.3869244,117.61773
1.4178452,119.87788
1.3108568,116.71682
1.273139,118.78641
1.1924566,115.875084
1.312132,113.64283
1.2608143,113.08756
1.0570179,110.08598
1.1557888,111.746185
1.0620203,104.802345
1.1267376,107.69851
1.061153,100.43348
1.0637361,96.26401
1.0162824,99.079056
1.0503943,95.69764
0.9654692,91.93244
1.0248083,92.40893
1.0957916,85.58757
1.0236595,88.715645
0.99084747,82.4516
0.8941966,78.55929
0.9379966,80.10608
0.8421228,78.78731
0.88068247,76.07459
0.7897135,70.35428
0.72142744,71.41772
0.6675099,69.71341
0.61236596,68.60001
0.6329364,62.855747
0.5284941,57.096405
0.61035,59.522125
0.5932505,56.40969
0.4326716,53.32243
0.47268796,55.483673
0.35819378,49.99629
0.46968126,47.382023
0.5146443,48.872105
0.39560753,49.01292
0.540234,43.170174
0.5275858,44.112755
0.40704498,44.314472
0.49011892,40.0
0.28898808,40.0
0.33122388,40.0
0.3472611,40.0
0.34725234,40.0
0.292983,40.0
0.35265666,40.0
0.18281265,40.0
0.14668836,40.0
0.1594133,40.0
0.18754366,40.71339
0.16574895,42.29353
0.12872787,45.828613
0.29424512,46.336014
0.32025558,46.198544
0.39029256,53.03254
0.4464036,61.248936
0.6356978,66.06662
0.7433435,69.716866
0.80849355,74.48594
0.97366005,78.072075
1.0511796,81.02292
1.1210986,84.8119
1.2568438,85.67725
1.3082718,95.30128
1.3876698,94.42678
1.3949392,98.52456
1.4938612,105.92493
1.5205075,104.963524
1.6231178,107.604454
1.6698893,109.34357
1.6072155,113.99043
1.7020633,110.50525
1.5543704,117.61613
1.6535307,115.58561
1.6148056,115.64011
1.6784014,116.719826
1.5053993,117.19446
1.5837405,120.77843
1.4943889,117.44279
1.6333094,112.55024
1.5949755,114.85777
1.54744,107.18893
1.4473866,112.50621
1.4184958,110.61215
1.3215061,105.62725
1.3552117,105.57335
1.3652421,100.54728
1.310338,104.65828
1.2347689,101.81647
1.2392323,99.358025
1.3110597,91.3125
1.2435393,94.34519
1.2092415,93.6748
1.1556351,89.76741
1.2555991,83.967545
1.2094469,83.350464
1.1681336,82.99882
1.150726,87.6257
1.1730851,79.80949
1.1622345,74.880196
1.0069717,72.25319
1.1240872,70.65435
0.8917074,69.627815
0.95458406,64.98631
0.9183399,61.95183
0.8995957,62.990017
0.9229414,57.879044
0.8435717,58.948055
0.7881841,58.853962
0.8054201,54.29744
0.7409958,56.55871
0.7493303,49.9484
0.7519555,50.555706
0.72518784,45.223488
0.7443673,45.623726
0.8005898,41.07978
0.7035788,40.36004
0.7103502,40.0
0.72472817,41.108078
0.6934972,40.0
0.5797637,40.0
0.49903926,40.0
0.64349735,40.0
0.5417098,40.0
0.35050035,40.0
0.48698616,40.0
0.43192303,42.020573
0.37803352,40.0
0.41412437,40.0
0.45461398,41.4376
0.5982335,48.82695
0.656841,51.89228
0.64859426,54.5673
0.7898854,61.63641
0.8764558,64.64764
1.0011598,69.40739
1.0039959,75.34038
1.0754069,73.63218
1.3848078,79.93344
1.3689334,84.277855
1.4242113,88.10313
1.5371815,90.06026
1.5826175,94.66728
1.7178098,97.598946
1.7199639,101.74882
1.8305575,105.406136
1.9018123,108.279816
1.8835529,111.4372
1.9034691,113.28872
1.8735691,115.58955
1.9898343,115.436676
2.0341048,114.90058
1.9354242,114.24073
1.9851606,115.04775
1.9235909,118.92593
1.7925255,116.68108
1.848569,115.4814
1.7863716,118.271935
1.774206,115.79514
1.7313415,114.368835
1.6861221,107.7137
1.5922947,108.22892
1.5833302,109.67204
1.6579738,104.44378
1.5557221,105.07742
1.6054324,103.35485
1.4858787,106.805534
1.4518963,101.66348
1.412101,94.87062
1.515908,88.913376
1.4855107,90.34985
1.3751113,92.5041
1.4883864,89.537636
1.4594635,84.097755
1.5017323,85.47313
1.3741913,79.98828
1.4116166,78.09269
1.3405883,75.37563
1.3564702,69.12652
1.2027037,72.23555
1.1774546,68.62988
1.1511413,66.90902
1.037569,61.678688
1.0463027,63.26381
1.1037842,58.680557
0.9971133,57.692707
0.9269987,55.391663
0.9482679,56.064663
0.9020303,52.874268
0.8892293,51.053356
0.8970304,47.836792
0.93208766,46.02483
0.8983708,44.69203
0.9339141,44.39361
0.8655278,41.853134
0.94938445,41.175453
0.82315856,40.0
0.9276904,40.0
0.8330727,40.0
0.7686041,40.0
0.7012583,40.0
0.68443,40.0
0.57169324,40.0
0.59288937,40.0
0.5662758,40.0
0.52101934,41.413696
0.57493854,45.247738
0.56912506,44.291645
0.600605,51.95134
0.73621804,52.07417
0.8047117,56.266766
0.8416295,57.991566
0.9005647,63.17273
1.1589884,68.40979
1.1133568,68.36354
1.1866528,75.23122
1.4592974,79.62223
1.5990231,81.343925
1.528919,85.275566
1.6655239,89.037605
1.7322717,91.92442
1.8824215,95.7726
1.7656999,96.200096
1.8790585,101.14946
1.926443,107.43474
1.9755341,108.22488
1.8844807,112.575516
1.9997354,113.13672
1.9420307,114.64125
1.9539142,114.61235
1.9668505,114.16646
1.9044677,115.632614
1.9760772,114.446205
1.8888304,117.84548
1.863493,118.501495
1.8094019,120.089584
1.8037505,113.79234
1.7441344,110.73448
1.7954694,112.23603
1.769836,111.3215
1.6564841,112.5066
1.6699134,104.76403
1.5007933,105.87796
1.5297531,102.68576
1.5433147,98.38868
1.5540854,98.30822
1.4717311,91.3581
1.5243953,97.11479
1.5197194,91.475945
1.3993479,87.81061
1.3589835,84.84164
1.4026378,87.40885
1.4338801,86.398735
1.3649583,83.702644
1.3054644,79.28206
1.2381325,78.283066
1.1729218,72.46852
1.2502763,71.388214
1.1281775,69.1646
1.0301603,65.23887
0.98550904,63.29794
0.8980558,62.225567
0.8871248,58.256386
0.9059798,58.98329
0.83356225,55.682796
0.93794435,52.09378
0.8078081,51.802395
0.90363616,50.58071
0.80758065,45.955666
0.7732068,47.444683
0.7648041,40.304993
0.7615656,40.0
0.8276248,40.0
0.68885845,40.0
0.72971547,40.0
0.66031194,40.0
0.5731552,40.0
0.6188101,40.0
0.633103,40.0
0.53632104,40.0
0.4133348,40.0
0.39466342,40.0
0.38549185,40.0
0.43558103,41.727116
0.3893744,41.617283
0.42935592,47.26369
0.4087863,48.929577
0.54565305,50.354424
0.5286317,53.74244
0.77118236,55.55245
0.8436948,62.99976
0.8889737,62.734097
0.8590533,69.56768
1.0834529,75.72477
1.2010435,78.931465
1.2891451,79.35081
1.3889775,84.13349
1.4082249,89.365845
1.535057,90.083115
1.6158715,96.775986
1.7002742,101.29773
1.6636573,105.17152
1.6618041,111.87223
1.7120466,108.30334
1.6644195,105.94369
1.7430236,114.57986
1.7535907,115.23096
1.7221209,113.43986
1.6835852,116.53328
1.6643397,118.057846
1.6011523,117.21977
1.6493956,116.61133
1.5122466,117.68373
1.6546687,117.41798
1.6054134,112.496666
1.5215045,113.683784
1.4808159,114.40356
1.3896639,112.36082
1.4687089,113.24599
1.3245935,106.67409
1.3121357,104.34895
1.3563477,103.29702
1.30411,97.265594
1.19339,96.33213
1.2551615,97.77378
1.2893139,94.60016
1.1746151,90.45702
1.1050253,89.176025
1.1726465,88.61671
1.1770568,82.18135
1.0827203,83.81819
1.0558505,81.30645
1.0470277,81.01585
0.9945521,78.11437
0.9466858,77.69609
0.9612615,74.23943
0.9609886,71.70181
0.79264736,69.21462
0.7820654,63.8438
0.6814972,66.96193
0.68167835,60.561455
0.5819263,58.30625
0.5615593,57.166107
0.5319788,54.035324
0.6081424,50.779617
0.44438726,52.131252
0.56667125,49.414566
0.46924508,48.68525
0.57196707,43.675022
0.40493238,41.495052
0.52160805,40.0
0.44711357,42.202007
0.5274685,40.0
0.37509456,40.0
0.34696487,40.0
0.35903955,40.561337
0.23727345,40.0
0.29210895,40.0
0.20694374,40.0
0.11575958,40.519768
0.12600827,40.0
0.13002083,41.694714
0.07200864,44.6433
0.034640044,45.407406
0.15630488,50.664993
0.2877119,50.359608
0.37583104,56.575783
0.45588008,57.600746
0.5193875,61.392403
0.5711109,62.666878
0.6513626,69.78752
0.73297185,74.76106
0.880151,75.497475
0.9406548,82.04995
1.0305009,86.0559
1.0801823,88.133415
1.257291,93.31998
1.3458147,97.98952
1.2912568,101.84223
1.4194221,100.27995
1.3418586,104.10693
1.3388594,107.18065
1.4803299,112.02323
1.4386971,112.6499
1.4286824,115.98282
1.4042162,118.63977
1.3679397,115.67066
1.45621,121.413185
1.4334217,114.79433
1.3521991,119.236664
1.2499748,117.86215
1.335968,116.67683
1.2298342,109.74722
1.2099191,111.13351
1.2276013,114.76682
1.1794488,110.69801
1.0626554,108.2147
1.0925744,108.053375
1.137056,106.78383
1.0834521,101.174835
1.0246105,101.56567
0.9675046,99.2302
1.074985,94.25082
0.91973984,94.39299
0.9227731,91.38268
0.97104394,91.37131
0.959586,85.63444
0.92447215,86.83235
0.8980598,81.03357
0.8364995,84.176735
0.8417565,79.78453
0.748567,71.86558
0.7413057,70.091286
0.7017564,71.72928
0.73625755,71.084435
0.61775583,68.660645
0.49882075,67.45712
0.5443456,62.140575
0.4709799,62.429752
0.4148766,60.23082
0.31341013,53.749897
0.41051295,54.463768
0.4563182,50.362297
0.38054723,48.283096
0.30207422,47.137676
0.4027357,42.95155
0.32781354,41.613495
0.46882653,46.301086
0.23143534,43.166355
0.23053455,40.0
0.3394563,41.931934
0.2697064,40.0
0.248469,40.0
0.08157157,40.0
0.106653914,40.0
0.09111616,40.0
0.055843096,40.0
-0.053679246,40.0
-0.0046701585,43.174496
-0.04880409,41.597057
-0.08858433,40.28127
0.017101716,45.026436
-0.009110658,48.62161
0.06756595,52.22984
0.2235009,53.363026
0.2816985,56.60039
0.38682213,63.927113
0.3517057,66.16247
0.43795067,69.68592
0.6427152,74.312584
0.69608617,74.05584
0.8809838,83.52147
0.972053,88.71753
1.0341644,90.2912
1.0897286,90.87564
1.2072433,96.97276
1.2752395,101.137825
1.3057821,103.36382
1.3224134,104.53549
1.3441123,110.7305
1.3918735,110.78379
1.335893,110.60402
1.2028867,116.917
1.4250442,118.15471
1.3792015,121.0406
1.332361,114.35137
1.2895498,117.05601
1.2653093,115.244705
1.2690269,116.64877
1.2325549,120.5127
1.2719762,115.504456
1.2550573,115.51463
1.1891698,116.52602
1.1669375,111.89047
1.0708743,106.702896
1.019424,107.558174
1.134785,107.85066
1.0364288,103.390495
1.0444694,98.42738
1.0657035,101.102234
0.96919924,96.26571
0.9432416,95.737335
0.8710175,92.80642
0.9243331,91.950325
0.903897,92.11706
0.80163145,89.23865
0.86366606,85.905624
0.8865619,79.48476
0.7728596,80.46353
0.81749475,77.66723
0.63151425,77.17694
0.6246636,71.97669
0.75092167,68.92097
0.61919594,70.18318
0.5475311,65.28543
0.55306506,61.67376
0.43954134,64.08385
0.50081116,57.51892
0.37228826,57.374622
0.4226538,53.497383
0.38267905,53.090057
0.25934714,51.92602
0.35400522,46.09212
0.40269452,53.520275
0.41099975,42.72705
0.41181636,43.118156
0.368032,40.0
0.43744564,40.0
0.3342387,40.0
0.22398478,40.0
0.32715923,40.0
0.2793949,40.0
0.1417757,40.0
0.058000907,40.0
0.16254121,40.0
-0.020518376,40.0
0.029982101,40.08227
-0.03304898,41.402054
0.05348284,43.631275
0.014902962,46.21461
0.17890018,46.19573
0.16204658,50.921413
0.2945807,54.82114
0.34424102,58.444996
0.46547648,62.47561
0.4996054,64.19422
0.7982108,68.80698
0.80099195,68.463776
0.8091082,76.17545
0.94883204,80.30706
1.1002704,86.561775
1.13012,90.31631
1.3292363,98.00335
1.3010427,96.67156
1.4170943,102.01133
1.3784176,102.564575
1.3199177,107.31643
1.4913429,110.18731
1.4554644,108.84067
1.5739819,114.76686
1.5202658,115.28124
1.5017306,117.10841
1.5849576,117.093094
1.5527446,116.12993
1.5407189,122.11021
1.5088142,117.657776
1.5472736,114.980835
1.4794905,117.35726
1.4436677,115.33625
1.3906639,112.785805
1.3909194,111.229095
1.2628357,114.243355
1.297514,110.40201
1.254141,111.40713
1.2888085,109.063805
1.1157742,106.74375
1.3400838,103.69726
1.1944597,100.958305
1.1881135,101.07578
1.0693765,96.75587
1.137335,94.11283
1.0855942,93.84768
1.1778182,86.56386
1.1459175,83.4769
1.0596044,81.287796
1.0865705,82.85125
1.0460014,79.95903
1.0399201,77.419464
1.0093544,76.613205
0.93400383,71.73376
0.85367244,69.23968
0.7537221,70.25268
0.8596778,65.05853
0.753419,61.53352
0.75248146,59.90511
0.68088883,57.032207
0.67123044,52.90873
0.7398384,54.190365
0.72058326,54.45059
0.76273715,53.642544
0.67725915,48.676685
0.7425492,48.384113
0.68816733,47.33366
0.67505467,44.317146
0.59165895,43.41992
0.58844143,42.159386
0.62943584,40.49408
0.5546569,40.0
0.4960206,40.0
0.55961156,40.0
0.4217679,40.0
0.36865908,40.0
0.38606566,40.0
0.3293328,40.0
0.3627469,40.0
0.32020673,41.375343
0.32432556,40.177258
0.33942407,44.104214
0.3543969,46.85434
0.4437104,48.239277
0.61968124,52.67484
0.560412,59.825024
0.7725225,62.677402
0.86719567,63.10614
0.94482875,66.4896
1.0817596,69.49211
1.1864948,78.66219
1.1956922,80.068596
1.3975216,80.63283
1.4504262,87.60595
1.5469654,93.45939
1.6381698,95.05039
1.6603173,97.2016
1.7064946,97.77946
1.8098037,105.18886
1.7229519,105.24445
1.8895799,111.16266
1.8017579,112.32553
1.8853076,113.913376
1.8328416,114.96352
1.9512306,116.574524
1.7838424,119.75666
1.8727186,119.46994
1.7680027,115.14409
1.6859947,121.4792
1.6755552,118.88532
1.7677438,118.62086
1.7388233,117.88876
1.6892114,115.13199
1.589998,112.127716
1.631778,110.195435
1.5563521,109.18753
1.5726804,106.47378
1.4792476,104.42659
1.4209529,106.3223
1.4870247,96.73014
1.3729591,94.24466
1.2834728,93.36768
1.3021463,89.03088
1.4857678,90.90747
1.371457,87.87892
1.4129144,87.95739
1.4115244,84.29679
1.3306433,83.13845
1.3538123,74.24333
1.2108717,77.58347
1.2264686,73.44369
1.2522769,74.16724
1.1789272,69.687584
1.1487719,67.8909
1.0966116,66.34827
0.98724735,65.6403
0.9688625,62.833187
1.0042981,60.876972
0.9518832,57.88324
0.92752814,59.852867
0.8728675,51.79325
0.79928607,48.09146
0.8501931,50.17961
0.93200505,48.853355
0.9127547,40.87695
0.9025839,40.0
0.87454295,40.0
0.8998158,40.8686
0.86431724,40.0
0.84938157,40.0
0.72867227,40.0
0.7256149,40.0
0.76357216,40.0
0.61279863,40.0
0.6155072,40.0
0.68889284,40.0
0.56832314,40.0
0.52470225,45.192135
0.45562518,40.15062
0.4933731,45.11281
0.68391204,46.981693
0.6223648,49.399044
0.6919822,52.21565
0.6740319,60.776688
0.79875785,57.07574
0.99219793,63.716953
1.1024312,66.09246
1.1863619,74.88759
1.2422211,74.83376
1.351757,80.56726
1.5089526,85.58253
1.588146,89.35988
1.677082,90.569824
1.7952204,91.12068
1.8139117,96.700516
1.8379413,98.60365
1.7951674,107.338936
1.8982453,107.94105
1.9555815,109.39356
1.9743342,110.99745
1.9716946,113.023285
2.021749,115.68169
2.006723,114.407196
1.9179727,117.28298
2.0500457,115.58619
1.9937112,116.34622
1.8981,118.79713
1.9149748,120.310844
1.7209933,115.364174
1.862197,113.31072
1.8697654,114.57589
1.7323649,111.47925
1.6819462,111.46692
1.6794982,111.78541
1.7155437,108.423004
1.5436754,107.19265
1.5833701,103.11635
1.5612116,99.59183
1.5135553,99.04933
1.5817493,96.32949
1.6092917,91.79647
1.4967021,89.86975
1.4818716,87.640785
1.4597522,88.64419
1.35268,82.82621
1.4262507,85.77307
1.4479549,82.01189
1.3599466,79.40559
1.3166833,76.58901
1.2912009,73.47569
1.1964566,73.256676
1.1968253,67.14737
1.1399097,68.32141
1.095257,67.62775
0.9621292,62.215214
0.93773896,63.273464
0.9425945,58.30955
0.9471216,55.43522
0.95658666,51.811413
0.87568474,50.853027
0.79361606,51.238705
0.87063926,46.58198
0.867573,43.832752
0.88790995,40.39524
0.8635903,42.057205
0.8327429,42.514133
0.8923119,40.0
0.9089835,40.0
0.83750844,40.0
0.76674753,40.0
0.6294809,40.0
0.6221924,40.0
0.5948874,40.0
0.4676298,40.0
0.5572657,40.0
0.45655036,44.96082
0.43141723,41.861897
0.5304057,41.89831
0.56497407,46.611454
0.6193906,48.446747
0.6327573,52.774296
0.67866397,53.524208
0.8361135,57.33708
0.83789575,61.233044
1.0781201,66.986145
1.0652037,70.77528
1.2093184,74.76016
1.274773,79.074036
1.4248754,81.39818
1.5019016,84.981064
1.6731147,93.9935
1.6465801,96.01436
1.6648984,97.53456
1.7904016,101.14803
1.7759147,106.66613
1.8332428,105.83461
1.8413193,111.26065
1.9281594,110.52673
1.9873639,113.81051
1.8909755,115.279686
1.8318039,116.66102
1.7456353,115.801056
1.8760858,117.42462
1.8455982,117.039375
1.7589103,113.01253
1.7252423,114.2564
1.679717,117.44872
1.7254695,118.650154
1.5599105,117.807755
1.636464,112.88739
1.4903663,108.68822
1.6129105,105.00856
1.5292008,107.36497
1.3687826,99.73955
1.4074339,102.46688
1.3285847,99.86178
1.3685786,95.984505
1.2293553,96.37501
1.3594561,93.43144
1.3214469,90.54455
1.3867872,88.60058
1.263011,87.023125
1.3670323,85.15113
1.2842903,83.071754
1.1997983,81.014595
1.0890608,77.65494
1.0300248,76.34043
1.0459003,78.1928
0.97051847,72.212105
1.0520573,66.67607
0.78865117,66.995316
0.80170226,62.90247
0.7622486,64.31933
0.74959254,62.267776
0.79603165,59.193493
0.65857875,60.477016
0.6999566,52.581455
0.65599644,53.64991
0.70363647,52.471672
0.65957075,49.14652
0.5817776,46.15244
0.7202068,45.824543
0.68347836,42.657413
0.6023063,40.673363
0.5351615,40.914856
0.53193516,40.0
0.5900574,40.0
0.45645142,40.0
0.48521778,40.0
0.3210414,40.0
0.3778291,40.0
0.29167727,40.0
0.29220137,40.0
0.11218556,40.0
0.2675851,40.0
0.29734913,47.292328
0.21944542,44.900776
0.30616605,47.642437
0.35794348,56.426723
0.39392993,54.10337
0.5281686,58.354736
0.5478635,63.973286
0.72195476,68.363716
0.8091435,68.527176
0.8538789,79.88523
0.9888038,75.57235
1.1353098,83.880646
1.2204186,87.36412
1.220724,91.996185
1.3663129,93.42459
1.4452313,96.21314
1.4515419,103.65513
1.4785807,107.214645
1.4914999,106.606995
1.5629822,110.04692
1.5691775,110.6175
1.6002094,113.866844
1.5185301,115.72176
1.565307,119.51895
1.6075078,115.632484
1.5651106,116.0867
1.5177807,116.09436
1.509882,117.82645
1.4895039,118.99712
1.4003626,114.47472
1.3445951,119.45823
1.2985127,114.535255
1.345881,113.7278
1.2933451,110.43624
1.2297958,106.96536
1.2186846,110.30897
1.1529169,107.911224
1.1054541,99.777756
1.2110622,100.66236
1.1488342,98.02395
1.0893935,97.27144
1.1171596,94.96034
1.0290464,91.299904
1.0475271,91.10507
1.0588613,89.87563
0.9687904,87.65389
0.86594665,85.366325
0.93975276,78.47416
0.88036627,76.294205
0.83003616,81.50869
0.7702418,72.77958
0.6972673,70.46337
0.7230931,70.15273
0.6995645,66.38382
0.59462047,66.864975
0.5882473,66.79247
0.5321642,59.29848
0.41997448,58.67654
0.36307937,57.76638
0.5102408,53.584953
0.38756594,54.238434
0.38161716,49.507626
0.40802404,49.725674
0.3843563,43.39564
0.34089494,41.979744
0.35584176,40.0
0.3501598,40.0
0.41995114,40.0
0.25038847,40.817127
0.30643755,40.0
0.17367485,40.0
0.19254237,40.0
0.14660604,40.0
0.014175619,40.0
-0.10599631,40.0
0.036755048,43.054947
0.021216067,40.0
0.00344855,44.784264
-0.06110101,45.70741
-0.003950313,46.082664
0.0810258,47.310886
0.027720686,53.193417
0.19295049,53.979794
0.25973198,60.97731
0.3728352,62.175404
0.46394166,67.3615
0.54822034,71.37621
0.69449735,75.60483
0.8162848,77.21292
0.87725586,82.80775
0.9494408,83.675674
1.0671,89.59582
1.203085,96.18079
1.1652052,92.92552
1.2453412,102.38926
1.2279009,101.26395
1.3822839,105.692726
1.419374,110.800285
1.3369305,114.26974
1.3727486,113.41966
1.4325485,115.463974
1.2826579,115.40906
1.3861492,115.75971
1.3512942,117.99263
1.3662343,117.74248
1.2532376,115.70869
1.252555,114.46462
1.3329678,118.57675
1.289358,111.634796
1.2293161,111.76845
1.1106737,113.06147
1.1488383,109.49183
1.1165493,106.551346
1.0017715,106.697395
1.0820394,107.070175
0.9245139,100.92493
0.9004773,98.980705
0.89268506,99.662186
0.91018623,95.290474
0.8761333,95.02342
0.8896562,93.69239
0.90536207,93.57308
0.92627364,87.29736
0.9133857,85.881744
0.8275415,82.74356
0.7537892,82.94485
0.80346954,78.506836
0.74509543,77.54501
0.6569705,75.90967
0.63662493,77.13515
0.58896774,70.28009
0.5163499,67.0735
0.4755393,63.118137
0.49860817,59.967857
0.4181761,59.556076
0.35822195,55.978203
0.32285738,55.438175
0.32148758,55.447803
0.42003748,52.11238
0.2900643,53.715427
0.31960905,44.710037
0.37927347,47.39177
0.3281267,44.124638
0.29439855,42.337605
0.31528866,41.51184
0.33125833,40.0
0.21755892,40.916237
0.32731348,40.0
0.2138172,40.0
0.19871905,40.0
0.13991694,40.0
0.10283865,40.0
0.019519271,40.1037
0.017302807,40.0
0.05217227,40.0
-0.06476207,41.49821
-0.03177631,40.0
0.060127955,41.779564
0.057375733,46.45773
0.0108365435,52.55113
0.127549,53.732372
0.27461952,57.662586
0.3395013,59.08287
0.43701035,66.28071
0.55925435,67.683495
0.7115556,75.13169
0.91353786,79.14548
0.91678816,83.33452
1.0881909,85.30719
1.038736,87.4586
1.1759032,94.249146
1.1184849,98.665245
1.3492118,99.552795
1.3451933,102.29642
1.3923564,103.99272
1.3417166,105.78641
1.3915864,109.61706
1.3500574,114.00835
1.4486768,117.56345
1.3745362,115.51326
1.4123555,113.83263
1.4376502,112.07835
1.3755884,117.234955
1.384833,115.15396
1.4231856,117.576614
1.3911486,114.11255
1.3607038,115.549
1.3343136,116.38304
1.3494654,109.53452
1.2340821,114.44826
1.2140498,109.72625
1.236423,106.2995
1.1307609,105.68019
1.1056907,102.536835
1.13188,99.23521
1.0330402,97.5621
1.0322658,98.90537
0.9616513,99.959274
1.1439676,90.77418
1.0765107,88.80216
1.0543565,92.29934
1.0486019,84.43294
0.95500165,80.4884
0.9637564,82.01967
0.99917215,79.52627
0.82682824,75.082924
0.92869365,74.864296
0.865923,72.20884
0.7828694,70.25747
0.6937206,69.74269
0.6508873,65.94536
0.71018595,64.474014
0.66013354,62.029568
0.60220784,59.709255
0.5446389,56.825497
0.48749417,59.356377
0.6821698,51.839275
0.563371,53.226414
0.54524666,47.847054
0.5181396,45.83869
0.51550514,47.225517
0.570288,42.970387
0.5514283,40.0
0.4959167,40.336025
0.55239576,40.0
0.48622277,40.0
0.45645928,40.0
0.4015822,40.0
0.394586,40.0
0.23044868,40.0
0.30688775,40.3
0.26377496,40.0
0.22243024,41.4098
0.12821284,41.027096
0.2813548,42.296482
0.16770427,46.51052
0.28030482,50.179596
0.35294253,51.899456
0.44402546,53.570637
0.62229306,55.629322
0.57572323,60.089634
0.78481287,64.86283
0.7771963,68.3176
0.8589087,75.342186
1.1035,77.04623
1.1393225,82.410446
1.2739714,82.64253
1.3434472,93.06599
1.3907534,93.75744
1.4718797,93.66669
1.5890852,101.30384
1.5638962,101.86517
1.6946592,105.73191
1.6552187,106.91689
1.7402971,113.507034
1.6039158,112.638855
1.6832954,116.10423
1.6339899,116.70532
1.7552451,121.50197
1.7619923,118.54012
1.7526621,123.87508
1.7429188,115.49138
1.6189457,120.67216
1.552807,117.093636
1.6658543,116.11844
1.5312232,114.71807
1.5581872,111.88919
1.527239,112.10984
1.5174886,107.11516
1.582921,106.243164
1.4541563,108.056404
1.4156709,102.784256
1.3677723,102.28994
1.3115507,100.26653
1.3451867,93.20573
1.2726046,93.57462
1.3182675,94.45471
1.3434566,92.82835
1.2912613,91.68472
1.3575301,87.243935
1.3162591,81.70058
1.3247471,81.97113
1.1674037,76.19953
1.209516,76.47041
1.1667031,73.91534
1.1645627,72.784645
0.9205728,72.04365
1.1494004,68.11722
1.0387983,66.47307
0.97810936,64.08569
0.89739186,58.77097
0.816595,58.565174
0.85511523,55.165966
0.8180083,56.299522
0.8052127,53.664417
0.81900454,50.180088
0.8812373,50.53158
0.81654364,51.42059
0.8508418,45.6754
0.7675236,40.0
0.87431294,40.0
0.74535275,40.0
0.8602269,40.0
0.76583004,40.0
0.65464044,40.041515
0.72972643,40.0
0.6319112,40.0
0.58782005,40.0
0.5934762,40.0
0.5853934,40.0
0.36262238,40.04104
0.46586755,40.318615
0.43432137,46.04738
0.543756,41.64867
0.42577317,47.638584
0.5797029,52.749676
0.6351539,51.274406
0.7739539,59.594982
0.8676272,61.773514
1.0058185,66.42035
1.0318481,69.39736
1.2432623,68.42359
1.325273,74.30461
1.4161166,78.82823
1.4729449,87.25367
1.5947292,90.21442
1.6369272,94.517395
1.784479,93.20803
1.7418582,99.22773
1.9095161,102.62566
1.8764279,105.82106
1.8589885,106.40124
1.9332379,107.784294
1.8360746,116.01602
1.9342848,113.01038
1.8050618,116.92531
1.9440751,116.33784
2.0099778,116.16582
1.9083068,117.8588
1.9541128,117.5068
1.8661517,114.511856
1.8622125,116.04333
1.8494984,116.07927
1.7786574,119.04836
1.7810906,115.63175
1.6807857,112.48854
1.6734202,110.92112
1.6871382,108.19757
1.7297289,105.24302
1.5957414,103.99598
1.5689207,101.32126
1.5289884,99.06424
1.4578274,97.42873
1.5638596,96.23281
1.4278452,92.81589
1.5045877,92.391594
1.4789237,86.61729
1.4762942,85.9248
1.4380205,83.85839
1.3616502,77.892265
1.3273413,75.75292
1.4611187,80.14082
1.3194587,74.52706
1.2092129,71.05137
1.1580083,72.52119
1.1272423,66.30689
1.0477206,65.57065
1.0014644,63.573936
1.0128244,63.421017
1.0154918,62.073208
0.91863644,56.77605
0.94442385,55.07104
0.9659479,55.560055
0.92762804,51.255478
0.95406467,46.95377
0.9222378,47.209984
0.8052809,44.38238
0.919748,43.634243
0.890723,45.712692
0.90311414,40.0
0.9099922,40.642216
0.7807525,40.0
0.85997313,40.0
0.69987106,40.0
0.69135517,40.0
0.6463513,40.0
0.65670496,40.0
0.522434,40.0
0.59381366,40.0
0.553771,42.90276
0.5276474,45.925556
0.52327985,43.083096
0.6018806,47.548775
0.66624576,45.433758
0.7171877,55.419224
0.8680849,60.005047
0.94297385,62.573494
1.0336468,65.74802
1.1104909,69.95408
1.1481365,67.11113
1.3445694,75.482605
1.4525923,80.335815
1.5085733,83.23409
1.5790427,87.378365
1.7020422,89.88292
1.7711333,96.184395
1.7820587,99.38406
1.7618021,100.57132
1.8096653,104.503426
1.9151019,106.80307
1.9421579,113.77943
1.9267871,116.11608
1.9624354,112.48965
1.9259595,116.53696
1.8836719,118.170425
1.8774897,115.15213
1.9259391,112.26728
1.9072307,122.13536
1.8659658,116.6119
1.8590589,117.07028
1.7587925,116.28755
1.6950455,114.61533
1.6438403,112.11067
1.6378709,109.133675
1.620167,112.950676
1.5306776,106.29652
1.4779427,110.92201
1.5649116,102.86949
1.4672108,100.32545
1.4840043,99.31439
1.5319955,95.939224
1.4252844,94.9782
1.4266932,91.243126
1.4706733,91.18507
1.3331319,92.759186
1.3358971,81.942635
1.3404775,84.192795
1.3488184,81.86216
1.3168755,81.99337
1.3589193,73.36912
1.1659638,76.39198
1.1222583,76.83137
1.1075485,68.60102
1.0150532,70.35624
1.0436597,67.20931
0.9722901,63.522976
1.0469077,64.74973
0.8419173,60.880627
0.92868155,62.376614
0.9497009,54.84841
0.8898506,55.572586
0.80872726,48.722763
0.810794,52.380814
0.7591869,48.345997
0.82005936,41.069866
0.7354709,45.51788
0.7756324,41.40512
0.781422,40.0
0.7902553,43.685463
0.6224609,40.0
0.5967246,40.0
0.5061127,40.0
0.6231434,41.405087
0.5582304,40.0
0.4144565,40.0
0.49323043,40.0
0.4070079,40.0
0.36355785,40.510284
0.36273894,40.51691
0.31622896,44.23901
0.4449399,44.887177
0.46403182,51.47473
0.4835303,51.832394
0.6111842,57.487514
0.6584962,57.511337
0.8031124,61.330482
0.8757486,69.12773
0.9034303,69.70667
1.0788594,77.16779
1.1800743,79.81375
1.3219378,82.495285
1.3614681,87.71333
1.4364784,88.52709
1.3884025,93.74598
1.5200698,100.31883
1.6470433,97.74256
1.5518925,106.18506
1.6671627,107.14479
1.6587986,107.92362
1.735632,115.05969
1.659482,113.68294
1.678594,117.879166
1.7198836,111.71564
1.6590382,114.34735
1.6267856,117.09635
1.6054481,118.051476
1.644281,116.37817
1.5717762,114.207924
1.6045918,112.00169
1.4437319,114.6697
1.4840903,113.93106
1.2866985,108.55391
1.3472555,110.68448
1.4550651,110.31317
1.2672102,106.83564
1.2808852,100.50761
1.2596238,103.96359
1.1875747,97.76412
1.2082185,100.72406
1.1796373,94.728676
1.0775434,92.42483
1.0546374,92.69297
1.1732146,90.461426
1.0837334,87.350655
0.95462227,83.73726
0.9383253,80.67178
1.0715812,80.0335
1.0090804,80.99403
0.9015409,77.90606
0.9462607,75.14685
0.8144459,73.336555
0.7430987,69.656815
0.66907716,63.39614
0.7240945,64.81288
0.570869,62.428226
0.6630546,64.2046
0.46866968,59.20005
0.48998484,56.159786
0.4664508,53.78896
0.51348686,53.08324
0.5671926,50.334347
0.44636536,47.55171
0.44673318,45.45273
0.5208999,43.471848
0.43869135,42.68644
0.43266177,40.752136
0.4356763,40.320427
0.4311042,40.0
0.3484174,40.0
0.19805509,40.0
0.37123853,40.0
0.25150684,40.0
0.19247255,40.0
0.115304366,40.8322
-0.01611509,40.0
0.10766331,40.0
0.12492264,40.0
0.09258796,45.306477
0.21934956,47.906494
0.1074466,49.052185
0.25040573,52.821484
0.16873309,56.500748
0.35363862,60.270226
0.50806946,65.22368
0.61289597,66.82923
0.71216494,72.55506
0.75951105,77.21519
0.8896899,79.842705
1.0717715,81.67446
1.078908,87.01405
1.1127145,92.516815
1.2655952,92.942116
1.2647343,99.50013
1.3025882,100.958435
1.415581,105.75076
1.3315554,108.43554
1.4587713,112.00134
1.422492,112.68974
1.4294138,114.18786
1.4806086,117.21319
1.4790463,116.83347
1.5093015,117.502365
1.3780504,122.81753
1.4210398,116.3403
1.3394748,117.89536
1.3441018,117.00989
1.2705433,114.20644
1.2263603,114.00271
1.1692678,113.87682
1.1716723,111.54982
1.1720217,112.86073
1.1162521,104.73937
1.0977815,108.67819
1.0471779,106.02565
1.000113,102.15165
1.0418029,102.43684
1.0283085,96.58423
0.9130905,96.96855
0.8547387,94.00768
0.9740311,91.41952
0.89029896,88.51584
0.92507815,87.412315
0.94365454,81.72769
0.910971,81.594
0.8381096,81.099724
0.8046998,80.055855
0.7084987,73.88791
0.7037396,74.81418
0.61586905,71.4812
0.6949688,69.31997
0.5401962,67.6222
0.44619647,64.08726
0.5450117,63.34522
0.43595317,63.041954
0.42103896,56.466686
0.32984567,58.225025
0.34292614,53.415474
0.28908852,51.087708
0.40708145,49.61389
0.3225454,48.04256
0.37141493,43.917267
0.41718563,40.945465
0.29492316,40.0
0.22109707,41.992764
0.30279613,42.415714
0.20735836,40.0
0.26798102,40.0
0.1777969,40.0
0.21055436,40.0
0.027088381,40.0
0.04639129,40.0
-0.05232971,40.0
-0.00010692554,40.0
-0.024398593,40.0
-0.08508614,42.80406
-0.08046233,47.330074
0.037808407,48.108047
0.09643681,48.57944
0.07273449,47.41802
0.16024365,57.648
0.2748353,62.791996
0.3039632,61.627094
0.4762557,64.92509
0.56978047,67.99609
0.73593646,75.60684
0.77590877,79.12231
0.86673754,81.047165
0.92329854,84.915924
1.1056236,88.91599
1.119092,93.4052
1.2373165,96.31267
1.2629411,106.2852
1.3838563,101.26946
1.4337589,105.57491
1.3691474,108.618546
1.3748711,112.17411
1.3740445,116.32243
1.330234,114.103745
1.384833,117.1653
1.4022769,117.52729
1.4142469,119.57203
1.2730885,116.369064
1.3298398,114.91815
1.166403,114.53396
1.354895,117.32197
1.401449,113.31687
1.2386202,112.344864
1.2310473,110.60375
1.2129318,108.65934
1.1203606,109.449486
1.1039853,105.7106
1.0452889,103.52095
1.1150934,102.74696
1.0325518,102.025635
0.9902996,95.40092
0.95314056,100.66964
1.0177379,93.08775
0.9617404,92.491394
0.8878482,91.0533
0.9148356,89.33914
0.92976224,82.277145
0.92703223,83.52275
0.8445982,82.361336
0.9072605,73.200645
0.7269836,76.06149
0.77399737,75.72874
0.752576,71.29668
0.7194497,68.80889
0.5871134,68.2498
0.6349289,61.541737
0.56459606,61.7708
0.5746236,61.9973
0.5498615,60.475845
0.49145654,61.442646
0.41503182,52.938786
0.38111934,50.744366
0.46628708,47.58872
0.46842983,46.09933
0.36722216,45.02154
0.4552615,43.89929
0.35193887,41.972645
0.45945778,41.751747
0.4728153,40.0
0.29555342,40.55503
0.32454714,40.0
0.31936282,40.0
0.30741683,40.0
0.19893594,40.0
0.24985364,40.0
0.2087005,40.0
0.07780929,40.0
0.09102051,40.0
0.050709203,40.0
0.16704236,42.218212
0.16332017,47.899548
0.21567215,47.64069
0.2597763,48.055584
0.26084533,52.462704
0.47675768,59.941418
0.6343124,61.77763
0.63710105,66.84554
0.7694836,70.43111
0.8014484,73.722755
0.8379011,76.0913
1.1923783,88.4414
1.1326351,84.453224
1.3056828,86.443405
1.343363,92.70834
1.3805552,91.66556
1.4275538,98.995155
1.4465041,104.076965
1.53838,104.11255
1.5616672,110.46336
1.5488384,106.303734
1.5987303,113.97208
1.6238601,115.43819
1.5635813,117.21335
1.6039168,118.97301
1.5907109,117.031746
1.5375142,114.29626
1.5772173,117.048225
1.5531363,117.98206
1.5746075,118.19892
1.5063725,114.90204
1.4458587,116.38576
1.3545264,112.14407
1.4868034,111.2741
1.2624804,107.0562
1.3496888,111.81629
1.2932096,105.124596
1.3091103,99.6274
1.3322566,97.23113
1.1916226,101.26956
1.1857921,96.136314
1.2820458,94.10656
1.1866883,95.52083
1.2035878,91.806076
1.2248558,89.27705
1.0968797,84.56145
1.1120957,86.14145
1.2039646,81.20515
1.1879222,82.05799
1.0591323,72.18794
0.9870072,72.74748
0.95412296,74.74446
0.8724918,69.84505
0.9298281,69.85909
0.8434969,65.18809
0.8399337,61.114277
0.79241407,62.301556
0.76216966,56.349724
0.7551574,61.208515
0.7784473,57.240345
0.7592757,51.07589
0.6602976,47.34979
0.7942919,48.471252
0.77886,48.628048
0.7631542,44.33746
0.7415915,40.61488
0.63385457,40.0
0.6849946,40.0
0.63925666,40.0
0.69768065,40.0
0.5619164,40.0
0.49981347,40.0
0.47772497,40.0
0.4434725,40.0
0.31083483,40.0
0.36862734,40.0
0.3864611,40.815987
0.4790103,40.0
0.49003476,40.0
0.29957086,46.165657
0.4715735,43.33571
0.4916561,52.752907
0.53913385,51.207584
0.72443324,59.683094
0.9010225,61.675808
0.8977166,68.569275
0.97260684,67.81355
1.0901109,74.39378
1.2427223,76.69951
1.4090145,87.540596
1.4947886,83.54148
1.4885844,92.27474
1.6869735,90.304634
1.6912384,98.06299
1.6366229,97.13423
1.7495816,101.28514
1.8334721,106.2479
1.7940835,107.3453
1.9126486,109.80951
1.7548248,113.696594
1.7917062,116.49316
1.8724076,116.384995
1.8190464,119.26407
1.8329213,120.58248
1.7882533,119.05324
1.8059318,116.78741
1.8206165,115.22735
1.8133011,114.7629
1.7267318,113.11194
1.7774106,114.37939
1.6530939,114.334045
1.6942317,111.46308
1.634598,108.2123
1.548717,107.27558
1.5100026,102.19397
1.4959013,104.70422
1.575172,101.52685
1.4644097,96.28467
1.4874854,98.26834
1.4575865,93.20482
1.4772651,92.608635
1.5141321,92.116035
1.4317995,90.64217
1.4821581,87.35966
1.3875102,84.270676
1.4530553,83.18257
1.2884799,77.68861
1.2872193,77.111
1.1928066,76.89931
1.223464,71.48523
1.1679373,69.591606
1.0524129,68.01776
0.9795008,66.6357
1.0657176,60.214836
1.0163956,61.451157
1.0002197,59.774532
0.92317194,55.53799
0.9458,50.456783
0.9812028,52.766483
0.83195907,49.288784
0.9472255,49.145905
0.839872,45.75272
0.927314,42.13927
0.80574304,41.695488
0.8937048,40.0
0.9542577,41.4504
0.8316542,40.0
0.86165994,40.0
0.79895216,40.0
0.7792671,40.0
0.71047276,40.0
0.56458616,40.0
0.5386549,40.0
0.60888773,40.0
0.50313395,40.814053
0.5224346,40.0
0.54708695,42.624474
0.47546822,44.660393
0.5672854,49.293896
0.6785451,51.382088
0.7534428,52.71456
0.86763763,59.24367
0.91446894,60.547863
1.0629611,67.439674
1.1483312,70.973816
1.2272232,72.63044
1.406606,77.23215
1.551466,80.80034
1.5181208,81.71666
1.6094527,86.21267
1.7445121,93.99966
1.7339904,93.928314
1.8522334,100.582924
1.8077044,103.08831
1.8732842,107.118706
1.8834785,104.683075
1.9086506,109.18502
1.9948052,112.21905
1.9900186,113.63683
2.034296,118.71343
2.0100276,115.83862
1.9364971,114.26239
2.0026374,120.35451
1.9544024,117.370995
1.8910861,116.613884
1.8267547,116.678856
1.9288055,112.42898
1.7844284,113.7839
1.72565,114.052666
1.7506585,111.25115
1.696089,112.361
1.67234,104.2981
1.747198,107.43079
1.591429,104.892654
1.5739477,99.42921
1.4933656,103.365845
1.4937147,94.583786
1.4363389,95.476265
1.4604555,91.798195
1.4631126,90.79769
1.4873563,88.356
1.3912425,86.58636
1.4684635,86.08302
1.3614103,81.76847
1.3863376,76.04112
1.3832828,76.33043
1.2821021,76.172935
1.1869378,71.66663
1.1665837,68.91828
1.0901464,72.966354
1.0684106,66.727234
0.99968904,62.413544
1.021714,61.034645
0.9223749,61.623466
0.8454788,51.883514
0.90564275,56.006718
0.8242409,51.497242
0.8379049,47.299446
0.8181668,53.751873
0.8971243,44.95166
0.8244145,45.24153
0.8494286,42.552757
0.8412065,40.266666
0.8424934,41.21939
0.7954282,41.19934
0.82414377,40.0
0.73627675,40.0
0.56774473,40.0
0.6541474,40.0
0.5230375,40.0
0.4840376,40.761566
0.5034686,40.0
0.49640685,40.0
0.3986301,41.171963
0.46488118,44.40934
0.3804275,46.704468
0.45685118,46.275864
0.5000889,50.57416
0.6146908,47.517624
0.73097545,58.315567
0.7770524,58.381886
0.8762541,61.961025
1.0033872,66.29385
1.0453262,71.377556
1.1203045,76.65673
1.2945867,83.97232
1.3642414,84.42506
1.4957075,84.619606
1.6471728,92.99799
1.622143,98.846115
1.6644696,98.6372
1.7136939,104.36157
1.7984743,101.592636
1.7374302,108.77055
1.7615025,111.26765
1.9012454,113.493774
1.8783988,113.57501
1.7999288,113.4514
1.8366992,118.18165
1.7925378,118.49491
1.7523743,117.27084
1.6845613,118.91774
1.7371861,118.50476
1.7392186,115.1382
1.6245013,117.66957
1.6383593,115.21107
1.547318,111.84751
1.4080799,117.10794
1.4610934,107.8764
1.3621038,109.547646
1.4779468,107.12108
1.3311481,106.07162
1.3032821,101.14235
1.3515246,100.03125
1.3196121,99.2819
1.2537838,95.34836
1.3533707,94.19539
1.1831112,91.8632
1.1767423,86.25232
1.2328298,87.963524
1.2238097,83.13349
1.1831425,80.85637
1.1575224,80.846405
1.0575428,79.98084
1.0375956,82.06346
0.99663234,71.742325
0.9572333,69.94168
0.8725464,71.29221
0.93157476,67.56827
0.77267426,60.81762
0.8022712,60.62235
0.6939218,58.541912
0.71350133,55.89696
0.68350035,57.533104
0.6114733,48.34946
0.61736494,49.343536
0.5409852,49.041622
0.5685654,45.287315
0.599106,43.391804
0.6224627,44.724094
0.5530417,41.123383
0.5745177,41.12902
0.47515565,40.0
0.5469278,40.0
0.5388185,40.0
0.36281148,40.0
0.3438068,40.0
0.37494174,40.0
0.24316013,40.0
0.27714023,40.0
0.17530663,40.0
0.1811257,40.0
0.18482514,47.332542
0.1641122,45.359993
0.20880401,43.020466
0.28975508,50.198692
0.33349317,51.64592
0.46382418,55.552486
0.5402244,58.18802
0.5686806,64.82261
0.731003,66.32261
0.876933,68.927185
0.84902686,77.16825
0.9511604,78.69474
1.1683251,86.98053
1.1749064,86.5636
1.3168037,91.078674
1.324122,93.39258
1.322516,100.44176
1.4447279,100.82705
1.3818809,103.075584
1.4668163,108.998505
1.5368112,111.67971
1.5087414,109.142265
1.5249013,114.28982
1.5315351,113.75508
1.519556,115.389854
1.505264,116.025276
1.4586049,117.230446
1.4004713,117.84843
1.422092,117.236984
1.3834955,117.74648
1.3248987,115.52898
1.367071,113.515335
1.2437397,116.256966
1.299043,107.85565
1.2295144,109.16793
1.2126637,107.13908
1.1707976,106.20268
1.1150887,104.06049
1.0088089,104.59907
1.0306225,100.603836
1.0281404,95.47727
1.0434527,94.44434
0.96109414,89.63176
1.0058857,92.79215
0.91606605,89.55276
0.95094866,86.76027
0.94974524,82.09305
0.8551391,82.51562
0.87814623,84.3408
0.8452439,76.81545
0.8067978,72.18282
0.74053127,76.63382
0.76613504,75.437675
0.5608239,65.71244
0.542747,65.74061
0.5473303,61.162777
0.5043567,63.45324
0.49881208,64.099625
0.42638826,56.06135
0.37703088,57.659176
0.37238517,55.905125
0.42395982,54.650562
0.43589643,49.808933
0.3514108,41.496765
0.37279806,44.67217
0.25182298,44.04375
0.23232235,40.0
0.35384324,44.449646
0.42584518,40.0
0.23541377,40.0
0.121321216,40.0
0.13453822,40.0
0.09955857,40.0
0.10389177,40.0
0.0021094019,40.0
0.021410305,40.0
-0.018179739,40.0
-0.047482926,41.469776
0.022399792,43.399754
0.036387652,43.404755
-0.052123,48.01228
0.104363635,49.11519
0.05225062,49.843506
0.19204414,59.34301
0.22122635,62.61592
0.364573,62.562687
0.5280096,67.18925
0.64723784,72.55465
0.769011,74.66132
0.86221397,78.101685
0.9788745,83.13087
1.0012434,87.984055
1.1729665,92.91607
1.0830835,96.60865
1.1551756,96.78119
1.2903091,106.52927
1.285276,100.68772
1.2858764,105.240036
1.3151895,112.70358
1.3748918,107.38981
1.3201237,110.50626
1.3808259,112.14011
1.2930326,118.435616
1.3346545,116.961914
1.410516,117.6235
1.3512906,120.4723
1.302423,116.06432
1.3241662,114.58833
1.1977992,116.2844
1.2312902,112.67059
1.1713159,110.37111
1.1697847,114.13535
1.1843036,113.77632
1.0274353,105.77979
0.94167614,107.75083
0.9780587,102.33765
1.0133184,98.269775
0.9733484,101.24733
0.9027987,99.92864
0.936392,97.91584
0.9268574,92.234245
0.8908666,91.30571
0.92135894,89.978134
0.78523564,84.90058
0.9797352,85.44532
0.9042072,82.1931
0.7591517,81.14692
0.68568355,76.41193
0.7324001,77.92755
0.7016669,74.15446
0.6483706,70.96259
0.5804776,69.59778
0.54867613,63.852917
0.4844861,61.131832
0.461672,64.82268
0.4522091,58.727074
0.44485092,57.88576
0.40577078,60.230244
0.32937402,50.111095
0.29822192,52.415375
0.34504032,52.706936
0.3946314,46.824833
0.37673235,44.8496
0.26216325,45.15875
0.35037997,41.314682
0.23588285,40.0
0.37363732,40.0
0.37964383,40.0
0.26616654,40.0
0.12331787,40.0
0.17143759,40.0
0.06882178,40.0
-0.078245565,40.0
0.06652498,40.000584
0.02591655,40.42398
-0.06681174,40.82771
-0.10219007,41.47954
-0.04181758,46.330063
0.056859374,45.88985
0.095880166,47.243587
0.14633085,55.373734
0.22515884,53.95856
0.31642056,63.97172
0.46079934,58.24278
0.52781844,66.14562
0.6406579,75.48845
0.75644606,75.73011
0.9349817,78.71156
0.97656363,80.77383
1.0553042,91.134
1.126764,92.05362
1.3034964,94.60724
1.3666644,99.87
1.3248895,100.011246
1.3942885,104.18243
1.4196019,108.15815
1.4231187,111.23005
1.4122051,109.0578
1.3462511,113.17639
1.4434816,117.98633
1.5048509,119.14484
1.4933039,118.85332
1.4705508,114.62091
1.5080836,118.29754
1.4368155,122.464066
1.3746607,119.18966
1.4491528,111.20088
1.3875226,116.771996
1.3905386,113.0625
1.3047142,114.71032
1.320159,109.55353
1.261988,106.987366
1.2360353,109.42075
1.1933514,99.383224
1.164618,101.467834
1.1603036,102.84803
1.064661,96.2042
1.0092548,93.970764
1.1312248,92.58784
1.0574197,89.38352
1.0470024,92.07562
1.1589358,85.16125
1.1573509,79.86048
1.1117883,82.806404
0.98613834,79.91103
1.0389992,78.57411
0.93731636,74.43151
1.0113457,73.20567
0.8442568,69.04671
0.7919345,65.87226
0.7544888,65.84329
0.7214076,63.73544
0.6753471,62.27224
0.6681154,57.1392
0.5986621,57.1368
0.5945275,55.129326
0.45579058,54.23815
0.53257614,52.354633
0.6882473,49.58464
0.5680617,48.58831
0.5535099,46.385235
0.53226537,45.65311
0.6269297,40.71586
0.59888023,40.24618
0.5677485,40.0
0.54982305,40.0
0.46194446,41.009308
0.44782844,40.0
0.4895082,40.0
0.45022988,40.0
0.444534,40.0
0.23607473,40.0
0.35009733,40.11139
0.20830221,40.723286
0.30577895,40.0
0.27242765,47.640663
0.2892173,48.265842
0.4463564,52.08983
0.44908082,53.918198
0.4992884,52.054054
0.6375803,60.544342
0.7548204,62.380558
0.7997683,64.15074
0.9246966,71.67377
1.044617,75.26043
1.2578338,80.38512
1.2762932,86.535225
1.3181926,87.407234
1.4804112,91.67301
1.5391183,98.67387
1.6243308,97.36168
1.5989453,98.22972
1.6712717,104.8437
1.7910833,111.26628
1.6904289,106.58636
1.739272,110.55356
1.813339,115.62653
1.7726175,114.13949
1.745252,120.450455
1.7138773,113.83758
1.6819369,117.18691
1.7140361,116.65006
1.7320949,117.40892
1.7127618,114.43456
1.7168522,119.7875
1.7467443,114.87481
1.5369761,115.75759
1.6575084,111.2154
1.570062,111.38885
1.5311368,108.40508
1.4850035,110.45153
1.4987922,107.83019
1.4139904,105.11157
1.4459387,100.92263
1.432752,94.86491
1.3345314,94.74446
1.3216563,93.16162
1.4241507,93.558
1.3748125,87.051994
1.4607693,86.29946
1.3410811,86.69131
1.3678443,81.15911
1.3223506,83.344406
1.2290723,79.30966
1.2701325,79.518555
1.2538551,75.25764
1.1548932,71.75722
1.0370997,72.50692
0.9977099,66.35863
1.004563,65.13404
0.95556855,62.546337
0.9571555,58.97362
0.8939578,61.769253
0.9406073,54.33985
0.8824653,54.14499
0.86390275,52.18187
0.81300974,51.068764
0.90502524,49.894596
0.8040303,45.908806
0.90492666,45.686375
0.886331,42.49684
0.8364199,40.775627
0.75106835,40.875965
0.77165836,40.0
0.6957447,40.0
0.6998416,40.0
0.6449506,40.0
0.69404763,40.0
0.6759537,40.0
0.55985945,40.0
0.5673958,40.0
0.51820344,43.14377
0.6029034,41.59543
0.61033607,43.096474
0.50923383,46.07087
0.63488793,47.044735
0.676612,53.176476
0.7209379,55.384632
0.8375827,57.999313
0.9575744,61.14974
1.0627155,66.97211
1.1088353,68.15065
1.2354523,73.764626
1.3197035,79.81459
1.3779185,84.30287
1.553689,88.0292
1.6046754,87.504166
1.6671017,97.03968
1.8266821,96.28684
1.8688507,102.432396
1.8226093,102.16449
1.9810214,105.0541
1.9366313,110.214195
1.9824206,112.5584
2.0093749,112.23304
1.9402252,115.77844
1.9327459,115.673195
1.9436299,113.92035
1.8555336,117.812454
2.0154123,118.97207
1.8890642,118.22539
2.0447006,119.477715
1.9161735,116.60566
1.7473851,113.50574
1.7880807,113.01061
1.7814004,110.84414
1.6500093,108.72402
1.6335553,107.23341
1.6757019,106.195694
1.6209134,105.80104
1.5499547,100.95989
1.6042243,102.293465
1.5860313,96.186226
1.4416356,93.75317
1.5410788,94.88907
1.5391002,92.86502
1.5204529,91.87989
1.4784348,91.13233
1.5165926,86.25839
1.4724685,83.27905
1.3745775,76.739174
1.3500901,80.899124
1.3033504,79.56285
1.2693675,77.51376
1.2560539,69.77561
1.1243231,70.92615
1.1572567,67.99467
1.1392174,65.22776
1.0607495,64.49869
0.981975,61.512688
0.97023165,56.350464
0.95890886,53.46606
0.9843315,56.65232
0.9143337,51.24913
0.9897238,54.671482
0.8530801,49.31982
0.87025326,48.00187
1.010629,43.334415
0.8878967,40.738705
0.90372133,43.570824
0.82920605,41.98455
0.9294219,40.0
0.76930976,40.0
0.75800276,40.0
0.78137124,40.0
0.6330077,40.0
0.596187,40.0
0.623531,40.0
0.5630158,40.0
0.5112128,40.0
0.52169484,42.427856
0.44650862,40.0
0.58882856,40.0
0.65639585,45.631317
0.64649975,52.048065
0.70152265,52.004322
0.79883987,57.730335
0.87571496,61.95215
0.9925753,64.897606
1.181779,67.197426
1.2176493,73.561584
1.3823925,78.07124
1.4296674,81.49829
1.5221268,86.40546
1.4562931,88.07387
1.6809512,92.06423
1.6785393,95.57967
1.8477013,103.265594
1.8154215,105.87138
1.85082,104.42928
1.8513979,105.509186
1.8226844,111.4818
1.8653616,112.92989
1.9007171,114.39618
1.9050167,116.83806
1.9432024,116.30406
1.8284163,118.76545
1.9617717,122.61796
1.9021462,118.05107
1.7329929,117.96809
1.6295748,120.21964
1.8157582,115.308586
1.6175325,116.18106
1.6248428,115.31549
1.5471357,110.66776
1.5993723,108.635864
1.579517,107.716484
1.5756747,106.2731
1.507341,107.3315
1.4668466,99.38082
1.3954462,99.460655
1.3840647,92.25091
1.4012392,96.68124
1.3736848,92.01477
1.2626863,91.14349
1.3796304,89.414696
1.3753133,85.00235
1.260949,85.097565
1.280067,78.19581
1.2503041,75.298836
1.181491,81.457245
1.1679647,72.14678
1.0638336,74.0177
1.093794,71.71447
1.0003237,63.380634
0.9643223,68.62598
0.94802123,64.28961
0.81744117,63.18719
0.8783021,58.45719
0.8672856,57.791443
