ppg,abp
1.0195554,89.114174
1.0953904,91.47133
1.2651523,93.5802
1.3071849,98.97409
1.3772898,103.323975
1.441901,106.56509
1.4917271,110.66778
1.5784408,109.62158
1.5392556,116.83007
1.6624383,117.808624
1.5990412,120.62409
1.7219769,122.9092
1.6583376,126.76323
1.6875787,124.60284
1.6911643,128.03423
1.635818,132.29195
1.8913746,134.03336
1.8713421,132.02197
1.7268194,132.31465
1.6797867,131.31679
1.6534739,132.75618
1.8229316,134.22621
1.5803665,132.66823
1.7426122,135.62044
1.7096958,129.87616
1.5990804,132.25998
1.480984,131.2066
1.5221483,128.4816
1.5549475,127.68705
1.4924034,124.9605
1.4757802,122.519165
1.4173744,125.28759
1.4499339,119.974174
1.3704572,120.25945
1.468401,117.12168
1.5207965,114.64839
1.3358029,111.155205
1.3356204,111.84724
1.2454973,108.86915
1.3627069,104.6097
1.1902299,110.270355
1.2436694,102.2432
1.3841926,102.32644
1.3922377,100.28069
1.2817153,97.807655
1.3184854,93.319145
1.2459452,91.21575
1.254903,93.41336
1.1376591,89.13377
1.2551098,88.02704
1.2788067,87.52317
1.1441792,87.32536
1.1602516,81.85107
1.036375,79.6783
1.0238453,80.0155
0.95867425,75.15315
0.9891606,76.844284
0.9130122,70.92383
0.92625916,67.877174
0.9139382,69.87481
0.9779993,63.17246
0.9009863,67.6259
0.8010008,62.078476
0.80567664,61.835793
0.83135384,58.060284
0.8647837,59.055508
0.86487335,54.632404
0.8099497,48.935753
0.9550289,52.663452
0.8292108,50.97887
0.715398,48.163635
0.79976296,49.48113
0.7185056,45.440144
0.7405321,42.980446
0.7839132,49.66365
0.7222413,45.182632
0.7475453,43.25109
0.58115935,40.480495
0.7005721,41.190834
0.6731672,42.450996
0.51673156,46.054672
0.5791352,47.866093
0.41900122,47.593124
0.60166144,47.18168
0.5421122,54.361893
0.59164596,52.651173
0.5745263,55.422897
0.5035197,53.896835
0.5420295,61.462578
0.75220025,59.543697
0.710458,64.08525
0.75791985,67.94033
0.86547375,70.31275
1.0372887,69.568245
1.0034618,74.74814
1.1564574,82.30117
1.3127148,82.204506
1.3355503,84.64524
1.263337,93.264084
1.3755305,91.81397
1.4930506,99.14104
1.5743953,100.93739
1.5761595,105.317696
1.7395997,109.07219
1.8541509,112.960785
1.8809923,117.797035
1.909218,113.13246
1.8926411,119.66488
1.8920313,121.077034
1.9890455,123.50349
2.0202932,127.00292
1.9201787,126.333405
1.9960841,126.08123
2.000144,131.56023
1.9189646,133.1148
1.9580548,136.0375
1.9816954,133.08775
1.9988917,133.04762
1.8659242,132.72247
1.8687783,135.21065
1.8610058,132.28992
1.8565207,132.33864
1.9019969,133.30833
1.8271585,131.23712
1.8142958,129.83456
1.8128278,124.84414
1.7229742,129.06502
1.752724,126.58909
1.745044,121.26886
1.6941803,121.62125
1.6237501,120.13589
1.6085255,118.90048
1.5967159,118.263435
1.4606742,114.61917
1.576811,109.8569
1.5989618,111.2986
1.4600887,109.76081
1.5885899,108.157104
1.4800705,105.6192
1.5596714,103.418365
1.4284053,98.12334
1.3582759,100.93759
1.4674807,94.72647
1.461752,94.58602
1.4545712,89.97596
1.3766239,90.26452
1.2331358,88.487686
1.3036641,88.435196
1.259126,85.12007
1.2384684,83.89016
1.2161547,81.636086
1.0716467,79.761894
1.1906974,75.00921
1.1266696,74.358345
0.9679178,69.30718
1.0725331,72.77304
1.0136178,72.51471
0.8154888,68.76961
0.90491015,64.01429
0.8470956,64.00988
0.96558195,64.01521
1.0140857,56.72938
0.84383446,56.916996
0.92524564,52.913795
0.9099275,56.440426
0.9736056,53.27987
0.97981626,50.161243
0.91952544,50.080956
0.88325286,48.04882
0.91006905,48.91112
0.7335283,48.036594
0.8512164,45.393692
0.7165943,42.241325
0.7129302,41.996315
0.6551181,45.107838
0.6077265,43.408947
0.58991987,46.382515
0.5801076,45.027702
0.47999558,45.02065
0.49356,50.25139
0.3244632,47.20209
0.51862997,48.319843
0.39857936,50.695
0.38699552,50.296295
0.5220196,52.911232
0.5413406,54.575047
0.56651366,58.559227
0.65695894,65.08558
0.70194566,63.06896
0.90165937,69.00171
0.8644135,71.752106
0.96070886,77.19173
1.0008708,77.87353
1.1004305,80.88602
1.1607498,86.09085
1.3742521,88.323105
1.2987858,91.02109
1.3768958,96.688354
1.4711403,101.28793
1.5229752,103.3467
1.5840905,109.65919
1.6136488,109.71869
1.5909033,112.67031
1.6860889,118.66667
1.7780873,115.84726
1.687139,119.59373
1.8661354,126.56025
1.8078668,125.71884
1.871974,124.411766
1.7134355,130.98444
1.8815452,130.96304
1.7425362,131.67136
1.8100207,130.18637
1.8163477,133.9968
1.7350597,135.10063
1.7021377,131.27805
1.7437432,133.8709
1.7386761,133.76497
1.7270772,131.02945
1.4978516,132.46729
1.5974075,130.96342
1.6284883,129.85275
1.5593408,130.34656
1.5255957,127.6689
1.4018778,127.03282
1.483708,128.0791
1.390749,122.778824
1.4489176,120.609695
1.4586077,116.53667
1.3250986,117.98566
1.4156498,116.79566
1.2774016,113.81078
1.3422759,113.2968
1.3026069,107.58486
1.2407504,106.96275
1.2623222,105.71424
1.3003635,102.86177
1.187969,103.66355
1.1727105,98.52996
1.224127,98.58322
0.99527013,96.55237
1.1608671,92.14107
1.0900971,91.31826
1.0597246,91.13919
1.0071095,86.09644
1.0745845,86.25758
1.0619093,85.82172
0.9278169,80.60721
0.78409857,79.15756
0.94023615,78.36958
0.7965837,79.05223
0.7727166,75.43968
0.71936655,69.212685
0.63152146,68.333244
0.6225717,68.38157
0.55093306,66.206375
0.5355183,62.950184
0.58560854,61.481255
0.52349573,54.985706
0.5859456,55.74479
0.52551115,54.059814
0.61282545,55.217453
0.61268365,56.061317
0.5101253,53.287613
0.52966106,47.44576
0.43290523,46.934635
0.62223136,47.5086
0.52340853,45.49119
0.42223808,43.336338
0.42303064,43.594627
0.4565706,43.98801
0.47042722,40.0587
0.30840936,44.18967
0.25946862,43.470284
0.31450883,42.805363
0.15002008,46.517418
0.24857342,48.24711
0.11682059,44.579563
0.14965191,50.115444
0.13535206,45.79726
0.10649559,51.37601
0.2354636,56.377586
0.18753505,55.738136
0.19015284,59.64974
0.34156394,59.894352
0.29728034,62.471035
0.34725842,64.10536
0.48930553,70.600334
0.6650031,73.947235
0.5709731,76.9314
0.7139562,81.71927
0.8528644,83.13297
0.8467134,86.38611
0.79456097,91.0086
0.960199,95.00925
1.1495588,102.48727
1.1487882,103.41451
1.3047954,102.12765
1.2532595,108.63951
1.3676506,112.53227
1.3022584,113.767136
1.3659346,117.97131
1.4805558,117.54533
1.5004678,123.27556
1.4548424,122.13851
1.5025302,126.36277
1.5054994,128.4935
1.5016195,125.87091
1.5554149,132.04091
1.5215861,130.90721
1.5276656,132.0299
1.5055301,136.71078
1.400635,129.89214
1.3309586,132.68054
1.4662936,132.61565
1.3371143,133.75682
1.3615092,133.42679
1.3960503,130.26758
1.3920039,132.57735
1.2437172,126.73675
1.2161697,123.98271
1.2074488,125.5758
1.1298658,125.1203
1.0614905,122.45796
1.1387391,122.976746
1.0915982,121.76503
0.9434826,117.97899
1.0242033,112.44831
1.0100534,114.10431
1.0640494,111.32176
0.89500254,107.74602
1.0239633,108.09924
1.113562,102.83216
0.8245563,103.06343
0.83291197,103.3259
1.0060927,95.73716
0.96266127,98.505104
0.83749336,93.9577
0.83621365,96.66437
0.7373637,93.33758
0.8071418,86.68444
0.7977744,91.18196
0.6219965,86.294205
0.64012045,84.71239
0.5805646,83.017334
0.6339846,79.537605
0.6113218,81.30062
0.6339922,77.8119
0.41862875,75.41202
0.53177965,70.57165
0.40355712,71.09118
0.55154425,67.72912
0.3675176,67.34698
0.4119094,64.14192
0.3069477,63.774857
0.28453442,62.136253
0.342478,59.186035
0.25987858,56.70813
0.29537258,56.301796
0.328031,52.91562
0.3387058,51.66197
0.31734282,54.43516
0.22482526,50.737667
0.27494204,48.666225
0.2947478,49.588467
0.21675617,46.774902
0.30189368,44.255997
0.20907989,44.62877
0.07263882,43.916073
0.011035106,43.92882
0.0697079,43.509315
0.012761749,45.5735
0.008936161,41.47495
0.005361171,46.60266
-0.027827637,47.000698
-0.14567865,51.67125
0.028488941,46.17635
-0.08025448,52.184845
-0.12878242,51.87688
-0.0010937167,55.663525
0.050963257,61.637264
0.056383617,55.21629
0.18076178,65.503876
0.24203382,67.099236
0.3243416,69.05884
0.35587248,73.57192
0.33870134,79.80519
0.47736248,78.305176
0.6286967,79.936966
0.7347372,88.90655
0.85609835,88.088135
0.84548706,92.82363
0.8463739,97.34886
0.9121544,98.33815
1.0102457,105.99298
1.0526559,107.37959
1.1525128,109.63022
1.1661074,110.61663
1.30805,115.82366
1.2916154,116.9649
1.3258483,122.57322
1.4257848,124.023605
1.3404164,126.31389
1.4221898,129.21973
1.3610501,128.95692
1.4002069,130.89394
1.3912518,130.32896
1.4201427,128.03058
1.3910416,130.6066
1.3160055,130.90833
1.329751,129.96986
1.3274213,134.77008
1.3087776,132.5414
1.3092009,130.51944
1.2851071,130.04192
1.2418103,131.8155
1.2405525,127.64665
1.1668818,129.3393
1.1377462,129.5764
1.1255239,127.108315
1.1592952,123.89328
1.0864012,127.78996
1.1280508,117.94909
1.0960151,117.581375
1.0168698,117.99151
0.97034633,114.505875
1.0344306,112.13305
1.081103,112.2396
1.0717772,104.810356
0.9395626,105.313736
0.97828555,104.16072
1.0113306,106.49524
0.9441342,103.95301
0.91722345,100.62572
0.91194797,100.69165
0.8907826,98.5316
0.8640971,92.45995
0.81016916,92.42196
0.83607996,91.74931
0.86835796,86.65253
0.74494106,82.78564
0.66725963,80.72737
0.7227931,81.28016
0.60194755,76.68063
0.6522926,79.22257
0.558561,79.69406
0.6282465,74.43034
0.527872,72.01094
0.51856375,70.080025
0.5344915,69.44083
0.41697615,69.62189
0.51461035,64.53852
0.46976963,58.071934
0.39523843,58.560364
0.56360203,61.55802
0.4817301,57.69841
0.62184554,49.686325
0.53619283,55.298557
0.50746375,51.00393
0.45742312,49.932907
0.4263562,48.850437
0.48955712,49.574116
0.4037929,48.651962
0.4259221,47.508766
0.306388,42.59783
0.37656978,41.646603
0.30324414,46.632362
0.21051866,42.027687
0.3406779,44.401672
0.19802453,44.768387
0.20754954,45.75775
0.24165344,47.497993
0.17845875,47.15343
0.18574609,47.588444
0.17737916,52.90719
0.16200027,52.93142
0.14701961,54.22188
0.22595622,56.829567
0.2625868,57.65036
0.16764511,65.50285
0.46163368,66.48134
0.43252203,68.694084
0.62696046,70.80887
0.72185695,76.01942
0.78514016,75.7291
0.864266,82.08173
0.9013437,85.344574
0.9156543,89.40822
1.1296043,92.16537
1.1300565,91.94129
1.2364471,97.79046
1.2603513,103.42441
1.4063207,106.28705
1.4107213,109.823456
1.411115,114.26463
1.4930519,118.56204
1.5164347,119.259964
1.6001209,120.94916
1.6289704,122.04416
1.7182474,127.80465
1.6865661,125.4898
1.5971162,126.90564
1.6087403,128.22719
1.6785712,128.95213
1.7369726,132.15805
1.651378,134.12839
1.6956943,138.48795
1.6813595,132.11731
1.7220815,134.20392
1.6256416,133.50874
1.48179,132.78992
1.5517595,129.03397
1.538143,133.74153
1.393319,130.62502
1.6584659,128.58795
1.4645951,131.74268
1.5263492,126.969765
1.5194538,122.4102
1.4295397,122.46116
1.4477825,121.19064
1.3265042,119.12983
1.4120505,116.11798
1.436163,117.31335
1.2968315,115.50698
1.2307024,110.89783
1.2668581,108.71363
1.3563479,108.43282
1.2737913,106.437096
1.2232857,102.18959
1.3477763,101.35151
1.2615956,99.0756
1.2303602,97.695496
1.2899678,97.74651
1.2101922,94.03211
1.1229341,90.9991
1.1718698,87.39405
1.2589445,87.52267
1.2004179,87.742065
1.3244753,87.247795
1.0712365,81.46728
1.0507498,81.2058
0.98063546,81.13111
0.97634125,77.72793
0.9858356,75.4116
0.888778,69.06094
0.9628734,73.28774
0.9474112,66.1376
0.9078873,67.19605
0.847896,65.640434
0.8294766,63.30775
0.807976,59.046036
0.7566039,61.006916
0.7657681,54.574707
0.78731644,55.044197
0.8382931,52.84389
0.7250806,49.17468
0.7840835,51.54979
0.81042427,49.683945
0.79213184,50.829803
0.75245047,48.012302
0.6862694,44.533043
0.6968799,43.905342
0.61143357,47.296597
0.69495237,43.09583
0.66349936,41.946556
0.5378929,45.632866
0.53410727,43.42403
0.53066707,44.67333
0.41201612,44.76866
0.47637358,44.616623
0.5452584,49.6631
0.45268354,46.19586
0.55313027,52.085052
0.49622506,48.96501
0.41462895,53.28942
0.48920554,58.404514
0.59567684,62.025738
0.7430685,64.790955
0.8065192,69.21992
0.7773531,68.327354
0.8651131,72.30987
1.0321254,77.101295
1.0053083,81.24746
1.3357981,81.31746
1.3123235,86.88749
1.2925787,89.673355
1.5090408,97.55533
1.5232537,98.77151
1.6428946,102.03158
1.6674742,104.73833
1.7537416,105.99532
1.7434984,111.31546
1.8555263,112.12952
1.7801197,118.8374
1.8698292,115.36483
1.9451461,121.82005
1.9388216,124.16695
1.8906882,127.06842
1.9923607,128.90308
1.7981752,131.37
2.0174677,132.74677
2.0441136,132.68254
1.9320081,132.1034
2.0950587,130.72035
1.9810735,132.31538
1.9485012,136.39015
1.9309164,129.53104
1.8513821,133.66574
1.9499589,130.65636
1.9245616,130.17662
1.8146949,127.337975
1.7581861,131.75578
1.808077,125.91426
1.6866894,125.01652
1.7144567,122.876045
1.5738854,121.991005
1.7149345,124.68142
1.6017226,120.106865
1.5291424,118.80743
1.5800371,115.798065
1.4458463,116.09153
1.4628632,110.70325
1.5585743,110.30766
1.566251,111.06826
1.5362349,105.00625
1.5004795,104.062325
1.43502,100.57886
1.4839786,101.709946
1.512602,94.111
1.4965601,94.542595
1.4864249,96.15446
1.4077257,90.67052
1.4560728,88.55831
1.3224324,91.01681
1.3108591,90.08871
1.2519027,87.64012
1.1607652,83.86693
1.2148784,80.58884
1.2008432,80.02322
1.1409183,77.53295
1.0617542,72.564
0.99546313,72.903534
1.0021852,70.7085
1.0534787,66.325615
1.0158923,68.63687
0.9594405,63.290157
0.98657113,63.003162
0.90452456,61.811142
0.89047223,60.040924
0.978653,59.185905
0.84982383,55.465496
0.9017176,51.942577
0.86816967,50.906624
0.97216904,53.79316
0.91545707,49.857388
0.90145165,46.041645
0.80829686,45.05199
0.932949,43.438587
0.75844365,46.807564
0.81195587,40.0
0.8293537,45.325012
0.6978043,43.803673
0.59203064,41.24373
0.69688815,40.0
0.53460246,44.567303
0.5843617,45.770493
0.6623617,48.945526
0.57292545,48.667965
0.47497728,49.249256
0.5683743,49.035263
0.5108879,52.263515
0.60746634,55.98961
0.5808227,56.942
0.5377287,59.53637
0.77706903,61.867905
0.67062,65.61338
0.77180225,70.32451
0.8029074,72.96047
1.0396417,79.67419
0.9487399,79.24942
1.1747797,80.8417
1.1132511,81.65334
1.2910155,86.644936
1.4728707,94.98179
1.3297715,96.60691
1.5560161,101.76683
1.5106406,102.31648
1.5841198,104.186264
1.7677891,110.18636
1.6665715,116.93946
1.7621924,114.589836
1.8354764,117.701935
1.911198,122.18671
1.7510781,124.16806
1.8364468,123.351715
1.7684827,122.80987
1.8952249,127.92916
1.7468132,129.99396
1.8940054,131.22627
1.9378482,133.65256
1.8063323,133.00523
1.834632,130.89725
1.8534505,135.89626
1.8757116,131.98836
1.728735,132.34055
1.6168611,133.79338
1.697243,131.28621
1.8526161,126.21437
1.6626538,131.48337
1.5339863,131.01375
1.5524343,123.446075
1.4785382,125.15185
1.3721718,126.810905
1.5236815,121.42493
1.4324316,122.80282
1.4515398,118.32709
1.414905,118.10968
1.3550528,113.35903
1.2397988,110.15603
1.3998682,111.68009
1.319644,110.41934
1.3208122,110.63654
1.3681599,106.73624
1.3535447,105.368675
1.3159547,103.318054
1.2973009,99.4303
1.2063818,95.529655
1.1276666,94.32572
1.1768585,93.0005
1.1471459,91.56636
1.082374,87.81015
1.1050298,85.59452
0.98158866,86.70968
1.0793818,78.438225
0.8990216,79.83731
0.9996697,78.354805
0.9248717,80.7836
0.72041005,76.8843
0.8921123,75.56703
0.79988325,70.595924
0.7149046,69.6356
0.7416309,69.92873
0.7417766,65.17724
0.81029195,61.67617
0.52150035,62.530464
0.6942102,60.41241
0.70332056,58.27023
0.65902257,53.934998
0.5971048,53.505554
0.589502,53.908978
0.6075011,49.85426
0.713037,52.060516
0.5751893,51.42288
0.7116651,46.300243
0.53870875,43.1653
0.6330567,48.10083
0.46726614,48.719536
0.5388417,46.248383
0.44858736,46.622704
0.42419323,42.818443
0.33583385,45.997417
0.34458515,45.5319
0.27356213,46.50364
0.29562196,44.47748
0.1757484,44.326527
0.21716234,47.31175
0.15386479,51.22861
0.1999859,53.95231
0.2435211,55.031246
0.27431816,58.800503
0.2807127,60.223682
0.24533851,61.36021
0.32772538,62.848553
0.431893,62.895782
0.5482873,73.24916
0.5304493,75.30052
0.6250208,77.773384
0.7648303,80.665565
0.85680014,82.100136
0.9358144,86.73206
0.95005006,93.46626
1.0110854,93.75545
1.0454128,96.747795
1.1617991,102.94014
1.2465366,104.06578
1.378815,106.456535
1.340066,111.060936
1.4032772,113.56009
1.4353379,116.557816
1.5351224,118.153114
1.4536594,122.29368
1.4351413,122.63223
1.4487451,127.84982
1.5180398,130.83269
1.454025,130.57721
1.5217988,133.14673
1.5273721,133.77222
1.4829301,131.64816
1.5535225,132.38788
1.4404769,133.72568
1.4443905,135.26003
1.4733315,134.70155
1.3483092,131.533
1.2923452,130.91653
1.4418281,131.59016
1.2858136,130.47606
1.2980446,132.69629
1.3103297,126.87364
1.2952174,127.191986
1.1533433,124.79852
1.2197353,122.954544
1.2597672,121.13088
1.2052423,119.05042
1.1074945,119.6882
1.0390385,112.00054
1.0544064,114.035416
1.0453401,111.27053
1.0928712,111.66704
0.9194862,108.72517
1.0308573,108.05708
0.9780147,101.31528
0.92345667,100.62081
0.9713946,104.65691
0.94594336,94.05827
0.8953331,100.14805
0.845507,92.325775
0.8467693,91.14547
0.881865,88.88115
0.7665227,87.24947
0.72462684,85.40067
0.8100573,81.53542
0.6521349,86.93185
0.5794156,81.82852
0.6625539,78.188416
0.5512889,77.000114
0.54441243,74.68704
0.5260691,74.21209
0.5122033,69.27197
0.4282231,70.642235
0.4809289,69.819695
0.42993012,63.750298
0.2740412,62.87199
0.41349033,57.95509
0.3597956,55.60535
0.3505764,54.487473
0.35530248,52.640793
0.3410604,53.570534
0.43124804,53.114594
0.39262983,49.181576
0.31314602,48.409332
0.23181123,47.36356
0.29729626,45.816505
0.3027597,47.178722
0.15436652,43.162148
0.293963,40.966637
0.20528693,45.621056
0.1730626,41.588066
0.15952708,44.118645
-0.020561727,41.354618
0.10730918,42.496883
-0.026541898,45.294933
-0.047077503,46.569286
-0.10869019,45.39286
-0.014068996,48.192894
0.03837785,52.40697
-0.07198429,52.067303
-0.060665086,53.279335
-0.10383749,59.012653
0.06712655,60.840393
0.14857347,62.027493
0.17161101,66.17962
0.22110583,69.06502
0.30786043,73.172066
0.47891515,73.31614
0.5838067,79.45613
0.58221835,79.99591
0.57821983,85.43965
0.781506,89.07504
0.91482896,93.283195
0.9222819,96.57316
1.0453521,99.88487
1.007112,106.49844
1.1002272,105.57343
1.1241236,108.34425
1.1812963,112.242485
1.3362591,117.59206
1.1873927,118.49676
1.3349065,122.58295
1.3482947,124.034294
1.3110527,125.92868
1.4644912,131.41237
1.3322375,131.75261
1.3573091,133.68053
1.2710297,133.11954
1.3574052,133.12611
1.395737,133.00365
1.3347304,133.87514
1.2512213,134.0118
1.3741988,135.13252
1.3008882,134.15271
1.2362777,132.3842
1.3069323,133.4035
1.193449,131.36572
1.1856455,126.77926
1.2153016,127.23766
1.2955494,127.269875
1.0510497,125.58794
1.0566168,125.66462
1.174772,122.39218
1.0053245,118.637726
1.0612335,116.89913
0.999902,118.760345
1.0530767,116.99017
0.93505657,112.41297
1.0122318,110.97688
0.9815282,109.45035
0.9123235,104.57353
1.0168327,104.96496
1.0037649,103.792885
0.88729954,100.17261
0.9522489,97.47615
0.8269807,96.25677
0.8169927,95.942215
0.8674676,93.96008
0.83229727,89.836525
0.8478796,88.98136
0.8315402,90.24956
0.70170015,86.42201
0.591406,84.11173
0.629582,83.78958
0.66366994,78.01753
0.5192916,76.42073
0.546216,73.96159
0.57678306,74.25251
0.5306629,71.86094
0.44085175,69.95908
0.5086909,69.85419
0.42289898,64.54717
0.43133906,61.939754
0.40506852,62.27314
0.3831037,58.7196
0.3257057,55.706276
0.42733023,57.808357
0.40968534,51.18062
0.4879927,52.07856
0.3610344,48.072266
0.51622725,51.092552
0.41853452,47.78475
0.40449372,49.010345
0.3771705,43.477127
0.41175982,46.999832
0.2892778,41.1553
0.2573991,43.865646
0.26825848,48.155293
0.3429293,41.716167
0.16244675,44.725674
0.24461195,44.337044
0.20538697,44.566685
0.059800435,44.348133
0.1137719,46.704624
0.13464996,50.39036
0.12812774,49.45187
0.13496242,49.86
0.1388238,54.38899
0.1694772,59.28631
0.2683541,60.753914
0.21554972,62.93548
0.3219165,63.21366
0.48312703,66.21051
0.57125074,75.82248
0.54755485,74.90581
0.6769322,76.539
0.70841235,82.63282
0.81963533,84.72922
0.9599005,89.69535
0.9685843,91.59187
1.1521623,93.2171
1.1224586,100.25575
1.3131018,102.747116
1.3335905,108.07495
1.3556191,108.80265
1.4935495,111.06379
1.4752052,115.53153
1.4255654,117.33849
1.5684705,118.19006
1.6397321,126.53415
1.6152388,125.415016
1.5031706,124.34666
1.6208471,127.506714
1.61354,130.54698
1.6280564,132.47145
1.6704032,131.78601
1.6689049,134.61752
1.6481961,132.33218
1.67328,133.59763
1.5316347,136.6288
1.614744,131.3361
1.6217846,133.2949
1.5508312,133.41245
1.4237273,131.84808
1.4384422,127.81162
1.494044,127.73989
1.4369297,129.01862
1.3763925,125.93773
1.4125957,122.394455
1.4040142,120.1602
1.2684858,120.7839
1.333111,116.76469
1.2885236,118.72309
1.3331312,115.7518
1.3264334,116.282265
1.2953863,111.894485
1.3397988,110.52762
1.2481967,108.94578
1.2498744,106.265305
1.2564442,106.49408
1.2228513,99.41593
1.1293845,99.88552
1.223372,97.55473
1.2216066,96.00067
1.2381076,94.395645
1.074086,91.141266
1.1487441,88.341675
1.1351662,87.00833
1.1048187,83.69304
1.2033533,81.685524
1.0781189,79.028755
0.99087375,80.245026
0.93893486,80.45236
0.9169088,79.7512
0.9058162,75.310135
0.93332887,73.65222
0.89402133,69.56732
0.815102,68.98223
0.7692853,68.605255
0.78808016,62.72642
0.8693225,61.784863
0.81137556,62.673492
0.67521995,60.753674
0.7935151,57.55035
0.70137745,51.91937
0.7286886,52.03965
0.73831,50.683197
0.79169065,48.32262
0.8256633,50.99908
0.72595847,48.961197
0.72772634,46.748623
0.7321085,42.54246
0.72835594,47.479164
0.5800194,42.39853
0.6019334,46.136616
0.5996188,45.08801
0.5862319,41.62041
0.4463594,40.747982
0.4964753,46.227013
0.41133922,46.64396
0.42616597,43.3932
0.46295404,45.512333
0.4155667,46.058285
0.46821228,51.652813
0.46729234,51.588196
0.5710426,60.97151
0.59725475,56.59508
0.548984,62.341263
0.6452819,63.746155
0.8190989,63.87906
0.90475196,69.50946
0.77978575,73.293205
0.9709618,77.44494
0.9567482,79.24314
1.1890113,85.38255
1.2427694,85.221436
1.337716,89.38196
1.3894744,94.26123
1.4362189,96.00498
1.578784,101.96983
1.6359394,107.684425
1.6265677,110.29092
1.7444649,113.45713
1.7260606,109.5155
1.8733952,117.96601
1.884049,122.21591
1.9315227,121.69397
1.9607921,126.04814
1.932353,123.77329
1.9023043,125.43389
2.0320258,125.239815
1.8619106,130.90189
1.8473228,135.09694
1.943749,133.286
1.8268723,132.06763
1.8847044,132.5216
1.8702939,134.01794
1.8818763,134.98344
1.9150693,132.6747
1.8930603,131.81416
1.834739,130.13396
1.8698916,135.64236
1.799394,129.68199
1.7097938,123.610016
1.8071591,128.36388
1.7153449,125.65608
1.7635275,119.9806
1.5933863,125.17855
1.4902909,118.87215
1.5933219,118.085106
1.4509777,116.04958
1.5059322,115.294266
1.517295,112.39514
1.558135,110.83407
1.472059,109.985756
1.5089552,106.72003
1.547903,101.92789
1.5079833,100.36807
1.494242,101.2141
1.4176028,96.65742
1.5020028,99.856964
1.4378746,95.120285
1.408674,88.83949
1.3971486,88.01156
1.4807317,88.19638
1.4038002,87.28344
1.268056,88.291176
1.2404407,85.18082
1.176742,80.130035
1.2382902,77.34897
1.2070571,78.92307
1.0545377,77.306206
1.0244087,75.457664
1.0028489,71.41859
0.93489087,70.17203
0.98744315,66.78544
0.92428535,67.99096
0.9749216,67.20154
0.90749836,60.285576
0.9791884,57.781357
0.831257,56.619164
0.84473366,54.79235
0.8422774,51.42468
0.9218495,54.660854
0.9858237,51.569046
0.9601298,50.277325
0.82947344,46.668423
0.8645028,47.719986
0.9062329,44.317406
0.824198,44.430153
0.89578897,45.09454
0.7765357,42.380074
0.7533869,41.75826
0.74244016,43.472332
0.7343121,44.817924
0.70040697,42.63172
0.58513266,46.584583
0.60586804,44.123184
0.5765613,48.961407
0.474714,47.78598
0.5984355,50.635056
0.5053747,51.88418
0.5374964,56.28436
0.47969764,58.83042
0.62387246,55.805653
0.73513424,62.920628
0.65371084,66.61333
0.8904729,65.41809
0.9183255,69.845795
1.0589077,77.05525
1.0926275,76.91673
1.1560086,81.91555
1.2258383,88.20196
1.2566875,89.677925
1.4027326,94.81118
1.5145174,96.069885
1.5927203,98.94408
1.5841461,101.89716
1.5884383,107.44564
1.5687001,111.15542
1.6640457,111.98379
1.7603726,114.5097
1.8613333,118.28588
1.8593701,119.28788
1.9662912,123.63259
1.8641748,126.41084
1.9167343,128.31389
1.8989521,127.92948
1.880621,133.36308
1.8409214,128.13123
1.875243,130.62413
1.8565435,131.45944
1.8924301,136.84581
1.7964091,133.66212
1.8785963,136.42178
1.7767819,133.46997
1.8073688,132.38434
1.72114,131.49663
1.6661078,130.92041
1.7271318,129.17657
1.6223919,127.338
1.6202044,125.19172
1.6050283,124.66805
1.6172284,125.05153
1.4525318,120.495026
1.475179,121.72648
1.4373156,119.94792
1.4436575,118.090614
1.3554535,114.19549
1.2610098,114.62333
1.3854676,112.42772
1.3759887,109.98743
1.3679923,105.05809
1.288267,106.20831
1.220799,105.21071
1.3915858,101.51951
1.2113738,96.50008
1.2497289,96.9453
1.2440093,93.53636
1.218831,94.04989
1.2291609,93.17594
1.0603075,89.08244
1.0631053,84.95521
1.1385683,83.84467
1.0067914,81.43955
1.0703537,83.74546
0.9997488,79.50298
0.92268443,77.33345
0.8988809,73.25139
0.885704,77.39175
0.8803543,69.58549
0.7419592,67.4977
0.83599526,68.45564
0.758807,68.22672
0.71299714,61.20473
0.7555022,61.108234
0.7508689,59.494118
0.66769165,58.659588
0.60730505,58.533966
0.7648829,57.11899
0.7354823,53.544758
0.70486647,51.689476
0.679511,54.734024
0.632318,49.478535
0.5547442,48.413685
0.6209194,46.694714
0.5953381,44.21732
0.68179953,50.47628
0.46432903,45.28038
0.4309424,46.423355
0.51949984,43.072617
0.47119138,41.715286
0.3945101,46.28585
0.332736,43.62749
0.2533101,44.175964
0.19081925,51.5978
0.3277179,46.311398
0.25368893,50.74266
0.21869968,53.656807
0.19111803,56.68058
0.32678455,55.41749
0.46413842,58.98338
0.4558595,58.598137
0.3358162,65.743004
0.37473512,64.71615
0.56152475,71.614624
0.6263505,72.12427
0.7198218,74.774376
0.85550183,81.90604
0.88454765,85.02342
0.9033612,91.256905
0.9799342,91.61583
1.1422096,93.9493
1.1347749,95.683014
1.2494917,103.253716
1.2908044,105.42097
1.3933975,108.995735
1.4378448,108.8851
1.3892708,116.68024
1.5375438,118.76055
1.4587777,121.132324
1.581457,122.17562
1.588744,123.31084
1.4998821,126.50525
1.5180962,124.702415
1.5765889,128.91754
1.5847087,130.39449
1.549899,132.88208
1.6124136,134.19353
1.426916,135.81956
1.5217421,133.07605
1.5819312,135.12367
1.5536562,132.3999
1.4463401,134.19177
1.4053967,134.78975
1.4194554,134.60527
1.3713632,133.84003
1.2883372,128.34636
1.3395725,132.27406
1.3701311,126.61402
1.1589504,123.82363
1.2873385,119.62964
1.1282557,121.13058
1.0994442,119.06375
1.1132227,117.92476
1.0889019,117.06141
1.1329108,112.65741
1.0819534,112.85487
1.0691224,111.981766
0.9580587,109.047386
1.0418875,106.48903
0.98484534,104.39512
0.9724784,101.78799
1.0112139,101.19489
0.9768706,99.197624
0.921012,98.880424
0.9847875,95.39065
0.90095603,94.66029
0.86948174,88.759995
0.7405012,90.61142
0.6716424,88.220146
0.82296336,83.7618
0.7988199,82.218025
0.7359167,80.75057
0.7183337,79.85661
0.475915,78.45259
0.54006904,76.084595
0.49173164,73.92883
0.5443477,70.71045
0.4961367,70.15755
0.41471288,68.99695
0.3664181,63.63902
0.40185526,61.78463
0.418266,61.55918
0.34041396,61.490437
0.31653187,58.29445
0.37916338,55.978394
0.3100619,53.88733
0.33061796,49.978573
0.27620983,49.57804
0.4174023,49.789684
0.29800528,47.672966
0.4028279,45.27786
0.10015298,46.238388
0.3230904,48.111366
0.16855682,45.249367
0.22480468,44.469276
0.06655261,42.5811
0.18978712,49.527924
0.06272894,43.045456
0.1523896,50.501503
0.044525664,44.747044
-0.07419739,43.672073
-0.10120847,49.58085
-0.03922061,47.20127
0.0325711,51.04236
0.025987579,51.813614
-0.019416261,56.092052
0.019205585,58.328026
0.11144009,60.12327
0.13336259,61.688404
0.09701663,67.51801
0.27976027,68.78997
0.3352477,71.457016
0.38826326,75.12879
0.57541007,76.81773
0.5606619,82.6924
0.66422534,84.52349
0.7177758,89.22447
0.8160428,95.178375
0.9065186,99.29098
1.033946,100.58007
1.0808693,105.946915
1.0520763,107.25437
1.1577009,109.33418
1.17358,115.39392
1.2099034,116.30071
1.3152125,118.744484
1.3477857,121.27008
1.3784568,122.946495
1.3515282,126.30648
1.3523232,127.520065
1.3937348,127.035835
1.2957233,129.15987
1.3819135,130.4264
1.3735981,134.27296
1.3175632,132.40631
1.4275901,132.06026
1.3389331,133.72302
1.2420359,133.70282
1.2459561,132.35239
1.2263526,133.75494
1.2444241,128.218
1.1571739,131.89531
1.3834856,126.6405
1.1608373,130.13445
1.0728372,131.11487
1.0584811,125.71063
1.0918227,122.823715
1.0555503,124.57917
1.0445229,121.87357
1.0095003,115.433136
0.9587515,115.583176
1.011625,115.569626
0.9689791,111.4187
0.94962275,111.231544
0.91337913,105.44728
0.89610785,105.33856
0.9274551,105.25106
0.8370634,102.457466
0.77937514,101.15802
0.9319979,99.66578
0.8611503,97.32326
0.73253644,96.089676
0.7554725,90.33546
0.86462474,89.000694
0.77877176,90.203766
0.85920876,85.14968
0.7469231,86.763626
0.6719872,80.40681
0.64344656,80.65723
0.67457837,78.14636
0.5948336,78.2921
0.46525598,76.46858
0.53061974,75.78557
0.45311558,67.635475
0.40421113,67.98075
0.43771815,67.7677
0.3120108,64.05732
0.37938336,63.617916
0.39553064,59.01142
0.26859093,61.33412
0.32251433,56.96868
0.34151298,59.003407
0.363053,55.747326
0.39315757,52.09115
0.39095798,50.524487
0.3197276,53.91895
0.4089803,48.106136
0.43824792,48.162045
0.3766606,48.252197
0.36918944,47.362617
0.23748472,47.16842
0.25742984,41.489105
0.2605752,46.90582
0.30343014,43.631096
0.18946816,46.474064
0.25530645,42.2502
0.10628297,42.97665
0.21108177,45.436787
0.022431724,52.182186
-5.8969443e-05,48.63877
0.016417032,51.235588
0.0035104696,50.744118
0.2754099,53.093414
0.1355791,57.99013
0.11125773,56.692028
0.31871212,63.300335
0.34934583,63.14265
0.3431911,66.371185
0.531898,72.68218
0.6209646,74.424255
0.65050155,75.53036
0.73010576,82.874504
0.8594213,88.815346
0.94129264,85.69259
0.942989,91.89374
0.98159677,97.19586
1.1573064,100.58978
1.2964869,107.2097
1.2453997,105.83691
1.3429117,111.20025
1.4070456,110.925224
1.4897345,112.35591
1.4395483,116.89277
1.3990457,122.4197
1.4767858,123.94637
1.5593857,124.52619
1.6819638,127.88807
1.5594528,130.33182
1.6519752,127.15234
1.5181606,132.00838
1.5675735,130.80745
1.6427008,132.96432
1.5993873,137.14479
1.5774829,133.36493
1.5474682,131.30608
1.5870504,131.38164
1.4628277,131.75562
1.3548408,128.41397
1.48144,131.21721
1.3518218,129.01898
1.476911,129.08372
1.4247422,129.35289
1.5109812,126.40764
1.4079995,125.24426
1.3725295,121.43764
1.3853873,117.71617
1.2648038,118.599434
1.3783013,114.46868
1.3391972,120.22714
1.1699476,111.073074
1.2824891,111.6601
1.1863995,109.25924
1.2487966,109.08495
1.2806895,104.36588
1.20539,106.24913
1.0304828,100.67545
1.1701354,99.60934
1.2446684,95.37006
1.1645223,95.03523
1.2296388,96.334984
1.0706192,91.723434
0.9814185,90.43761
1.1390853,88.71902
1.1476501,84.0514
1.0350001,85.287544
0.97737014,82.14533
0.96313936,81.74777
0.9138379,81.187675
0.81658125,75.34799
0.9235626,73.65544
0.8393802,75.530304
0.6630191,70.579
0.7790291,66.9422
0.8780169,65.39032
0.7474074,67.50856
0.75927943,62.64762
0.68396986,58.42265
0.7477518,55.944267
0.71268857,57.304184
0.6890825,55.657295
0.6657345,55.030895
0.6563556,53.27754
0.8058824,53.251972
0.69944423,50.30511
0.65763956,43.66983
0.5919703,44.494217
0.73646253,45.034325
0.53798676,46.70702
0.653176,41.848827
0.6840374,44.206604
0.4993955,42.696644
0.6097673,46.74217
0.43613583,45.20561
0.5307881,42.670033
0.37773484,43.31595
0.44799843,45.0718
0.33504987,49.44628
0.39872193,47.063522
0.40508464,52.866936
0.42735177,51.542484
0.59903383,52.949524
0.48141024,57.942787
0.585851,62.079636
0.622709,64.50125
0.6885061,64.43766
0.7293876,70.196
0.9079385,74.82849
1.0337154,78.74766
1.0057002,77.40979
1.1416852,85.46796
1.110755,86.96112
1.2469532,90.07742
1.341189,93.80002
1.449083,97.15685
1.5546372,100.96539
1.5545031,105.524254
1.6493679,106.19367
1.717786,110.32035
1.6816509,117.80371
1.7715466,116.20237
1.756315,122.347374
1.8265253,124.19051
1.8674077,126.13842
1.9128492,125.17985
1.9153593,126.746544
1.9505025,127.76264
1.9275022,131.48296
1.890129,131.17447
1.9455907,135.21373
1.8903586,131.39383
1.8852577,134.3398
1.9103357,132.26796
1.9055508,132.87866
1.8830131,133.7969
1.7520161,131.2718
1.7189344,130.51552
1.7745178,129.43439
1.6649464,132.24193
1.5927594,127.98014
1.6731485,127.97747
1.6941298,122.32975
1.6344049,122.65704
1.6583939,125.57059
1.6265366,117.876686
1.6301025,122.21778
1.5420496,116.04166
1.5958955,114.20657
1.4444102,113.34074
1.4613119,111.34538
1.4168961,108.76493
1.485468,107.343025
1.5034237,106.19239
1.5872036,101.11357
1.3372318,100.146614
1.4582334,97.27226
1.4346923,96.2975
1.3947558,93.17156
1.3379457,88.76613
1.3663837,90.345375
1.3551034,90.89494
1.2860076,86.71513
1.2955635,84.855
1.2410383,79.762505
1.1357758,83.76638
1.0898681,76.78186
1.14946,77.351326
1.0423381,75.39525
1.120799,77.16646
1.0034591,70.09586
0.9890323,72.0092
0.96361834,63.853336
0.92012346,65.54966
0.8738882,61.6733
0.9611867,63.842934
0.8834878,57.293026
1.0198988,57.083904
0.93433,58.343903
0.7859471,54.205418
0.9703047,52.11763
0.92788285,47.055027
0.93306684,47.20123
0.89504987,46.963146
0.83701575,48.77934
0.8766608,47.949177
0.8714587,45.384674
0.8929888,44.604973
0.77957135,44.16766
0.75922287,43.25594
0.6621759,44.994537
0.7484272,45.47638
0.5954331,43.358192
0.5759174,47.311733
0.49940518,47.499397
0.64356774,46.809536
0.5318182,49.15919
0.48819387,52.65933
0.5296406,53.88497
0.6061731,54.584625
0.5949037,59.65744
0.66685826,58.577946
0.6081571,62.500324
0.8529855,64.48373
0.8744186,67.22748
0.8929177,73.70539
0.97402334,72.714485
1.0723047,78.4508
1.2062626,81.611984
1.1840357,85.15715
1.2932124,88.51239
1.3327805,94.255875
1.4798275,97.88339
1.5951208,102.19294
1.6296911,100.809845
1.7093254,108.69421
1.7196126,112.718216
1.6925293,116.94187
1.9034935,116.57465
1.8506322,119.3321
1.7902936,124.223854
1.8942823,121.41079
2.0240512,126.86497
1.916369,128.26268
1.9631413,129.90709
1.8449122,131.14752
1.8863671,131.27109
2.0771482,133.58644
1.9788303,134.3748
1.745344,131.66373
1.9235064,132.71416
1.8065362,137.74857
1.8477082,131.33647
1.8847629,131.19128
1.7524228,129.65083
1.750301,131.942
1.7354327,130.33325
1.6309788,128.6206
1.5838794,126.25144
1.6145915,126.12457
1.4353542,124.82572
1.6120275,120.26194
1.5671973,121.753746
1.5105549,118.00973
1.5041527,118.71511
1.4760581,119.79098
1.3816046,111.55453
1.4300014,112.71005
1.4267231,106.86443
1.4410717,110.98942
1.4926891,104.1647
1.428468,103.60957
1.2228177,102.611534
1.3065444,97.501366
1.4373631,98.299706
1.2723721,97.45247
1.2431232,90.076775
1.2633871,92.3915
1.2891487,90.78546
1.2276796,88.08447
1.1106296,86.60019
1.0271146,85.05533
1.0359708,82.61407
1.1026585,77.69451
1.1236923,75.878136
0.96084255,73.07221
0.92745054,73.38991
0.86916935,73.23476
0.7707999,72.95435
0.79287255,70.70142
0.8334866,63.809944
0.789771,64.101494
0.6994076,62.12262
0.7490147,60.018078
0.7673885,61.956585
0.65429133,56.563683
0.73057806,54.52885
0.67096555,54.25072
0.7019601,56.147923
0.6669143,49.911903
0.7662354,47.28331
0.6921476,48.496338
0.6034776,45.293262
0.688006,43.83314
0.7306726,44.211708
0.5503466,44.18896
0.5038024,46.94813
0.47278336,41.491013
0.44767255,42.688457
0.47540745,44.56665
0.38370764,47.956085
0.33865377,47.469395
0.21961956,48.73741
0.36038345,47.407394
0.25409782,49.637886
0.39411896,50.499294
0.21382985,52.607643
0.3302542,56.96117
0.3318908,57.790833
0.35097298,60.69429
0.40466088,63.380898
0.6754666,65.51227
0.6279205,69.72006
0.739385,73.848404
0.7907951,77.985504
0.77518845,82.813576
0.8336655,83.76544
1.0742786,89.17125
1.124756,91.800735
1.1351681,96.753586
1.3151062,95.82702
1.3037235,102.158165
1.3076167,103.139336
1.3561095,104.38345
1.4715831,113.39002
1.4911854,115.98399
1.5379888,117.69533
1.633732,117.44006
1.5755264,122.72067
1.5645856,122.04256
1.5875933,126.29606
1.6272737,126.79354
1.5938592,129.56613
1.6752342,129.8428
1.6620351,130.74606
1.5860666,132.74635
1.4509844,130.57025
1.5335569,133.49744
1.4538113,132.27475
1.5150468,134.7504
1.4819621,133.69232
1.4392915,130.92648
1.4331397,133.10938
1.3651807,128.25952
1.2279727,129.75653
1.3490727,127.99423
1.3485092,123.73617
1.2608805,127.884766
1.2564726,125.201225
1.2006949,120.588455
1.2415142,120.58022
1.0911638,115.99289
1.1899511,117.85415
1.1410925,114.32189
1.0422333,112.07932
1.1018529,109.82215
1.0825344,106.84681
0.9489921,107.00634
1.0941159,107.64278
1.030998,104.648735
1.1095415,97.52191
1.0336423,98.944466
1.0450783,94.962364
0.8716237,95.57169
0.9585761,91.97434
0.9432264,93.99637
0.87357557,91.70852
0.8491259,84.00268
0.7822901,83.62345
0.7298031,81.021484
0.7392079,79.17734
0.67312443,79.21072
0.42923167,76.949455
0.46788925,75.4113
0.52326924,72.587944
0.48819786,71.993034
0.5406961,69.87615
0.45514145,66.9877
0.34663314,63.62265
0.4324516,64.16742
0.4328355,60.96294
0.42568186,58.845333
0.37614354,56.894703
0.40555868,55.713665
0.52277523,53.5018
0.3177977,50.44657
0.41000086,50.33143
0.34691757,47.701187
0.40212017,50.636486
0.47020346,44.630745
0.3691596,48.405704
0.31278563,46.413975
0.2139627,46.65953
0.22996674,44.76542
0.08086862,46.02051
0.09262547,45.23379
0.09130636,46.68867
0.021657962,48.206345
-0.0039093723,44.9298
0.0710645,46.525265
-0.103821516,47.67556
0.010162791,50.70973
-0.029656451,52.010056
0.030385287,53.95535
0.051807452,57.07124
0.045892637,57.830387
0.04540532,61.429043
0.15230665,61.71641
0.13310802,65.298134
0.27584168,69.01665
0.24909131,72.81434
0.51668227,75.16511
0.5565819,78.997665
0.6311483,81.781296
0.7942816,87.416985
0.73007536,89.75403
1.0179566,92.48735
0.92690974,99.25955
1.0308627,101.249275
1.0916575,102.68326
1.067554,106.20639
1.1983607,110.612434
1.2703936,112.4194
1.1935661,116.53922
1.2775575,117.81268
1.2474797,119.594795
1.4187094,122.56719
1.3703719,126.22678
1.4526744,125.33793
1.3380134,129.28154
1.29736,132.18765
1.3673482,130.04706
1.4324567,133.3587
1.4252261,129.35867
1.3478951,134.04102
1.3063515,128.51155
1.3215461,131.62169
1.2045548,134.56686
1.3592887,130.75061
1.2361441,128.83171
1.251268,132.43547
1.3038839,128.89255
1.2503128,129.45724
1.1044687,129.94102
1.0819318,125.72513
1.1537236,120.84405
0.95860195,121.890335
1.0557809,121.06518
0.985717,119.45806
0.9258431,115.20792
0.9179524,112.33902
0.90717065,114.44453
1.0005233,106.7825
0.96818644,109.4158
0.8288077,105.44162
0.9340571,108.204475
0.8746356,102.32045
0.9950184,105.51267
0.8591754,99.651375
0.8480118,96.213875
0.8436797,96.22349
0.79532933,96.29575
0.883014,90.22434
0.73074216,87.52478
0.74118346,87.39864
0.7304851,86.35296
0.6610089,82.6572
0.58796626,80.16624
0.5430823,80.59149
0.52662176,77.93995
0.4662329,77.53089
0.49516186,72.69557
0.38404748,70.75419
0.40816975,69.32627
0.4316094,65.25866
0.3805092,64.60129
0.27164137,66.63382
0.39238393,61.02832
0.45584792,57.28464
0.3778331,57.175896
0.35362637,54.3317
0.30280828,55.011555
0.31028622,51.540752
0.37928993,47.833153
0.3169433,49.112816
0.36611012,48.586056
0.3641672,48.794594
0.3684429,47.12772
0.28545806,44.71001
0.29348296,46.07418
0.32549948,41.0272
0.2159168,44.965073
0.19611533,43.442074
0.1356015,40.0
0.07812668,45.31127
0.122075066,43.25699
0.12797064,42.649597
-0.029448275,51.032604
0.04275506,48.982162
0.001268811,45.238945
0.110262014,51.790398
0.04053671,54.234417
0.054734893,53.720154
0.08077149,60.450077
0.26898924,63.47401
0.2403398,63.719048
0.31216618,71.17017
0.45904252,72.579575
0.5059806,74.86486
0.64831746,77.91706
0.75190747,79.889626
0.71735495,82.83544
0.90845287,91.45302
0.90987396,92.324295
0.9621644,94.61358
1.0850984,100.73319
1.1941965,102.274445
1.2011473,108.09307
1.2223289,112.987274
1.2935692,111.21719
1.3093177,115.12358
1.5167273,116.69374
1.4424888,117.85056
1.47912,121.96767
1.549464,126.56394
1.4719073,128.89746
1.5637375,128.91689
1.4948832,129.65266
1.579487,132.24602
1.4691728,133.29796
1.5450385,135.49904
1.5220103,133.11519
1.5009181,130.95491
1.3818792,133.42464
1.495941,133.20999
1.487588,132.69133
1.3661733,130.79738
1.460865,127.80515
1.4116068,128.89996
1.371383,130.97324
1.3788728,128.35242
1.3038399,123.99567
1.221677,122.39992
1.3193668,122.65097
1.2472895,120.09763
1.2394972,118.39794
1.1864691,117.522064
1.1425233,115.783676
1.2178899,115.08404
1.2386161,108.15786
1.168511,112.00685
1.156878,106.579315
1.1127042,105.54513
1.1284878,104.948135
1.1034497,101.46876
1.1438422,102.40591
1.081187,97.059166
1.1660106,95.56986
1.1121874,91.98005
1.1102033,92.71425
1.0672137,89.04627
1.088578,85.05668
0.9764601,87.566826
0.96202534,85.71614
0.9194468,82.231735
0.89349335,78.401306
0.9444992,77.49305
0.88041013,77.11788
0.75224084,76.8684
0.7851832,69.23403
0.74534065,69.93736
0.64859664,70.189316
0.7105761,65.92916
0.6618011,69.44435
0.6851086,64.360664
0.6342436,59.065933
0.6472999,55.919945
0.7164757,58.282173
0.75635415,55.581005
0.7134611,53.652725
0.736155,54.575928
0.7062589,50.390324
0.69896334,49.539833
0.69132924,50.678387
0.6104176,47.298477
0.7654789,46.613533
0.7479062,49.679493
0.58408654,44.33148
0.54634947,44.418575
0.59287566,44.866158
0.43950635,46.67073
0.4594304,43.92938
0.4537876,45.25722
0.36815932,45.08502
0.39009687,47.574993
0.3565576,46.53959
0.45560706,47.148674
0.46212348,52.192802
0.36007744,52.342594
0.37707996,54.807953
0.53072244,59.0158
0.4829175,60.836002
0.50457215,64.1658
0.5883535,68.11619
0.8141506,67.044716
0.8198083,73.27127
1.006496,78.259476
0.9848952,79.2728
1.1477993,84.21258
1.1553981,88.70575
1.2169586,90.14491
1.4131227,95.976685
1.5130817,98.47901
1.5468004,101.83066
1.6060157,104.16427
1.479464,110.63569
1.5994684,111.11002
1.6913825,115.08677
1.7401781,115.8462
1.7421706,119.608406
1.8196244,120.15175
1.9085447,120.98799
1.8751271,125.65659
1.8251487,131.30495
1.8487278,129.53055
1.7568674,129.58173
1.8928721,132.15994
1.9053222,132.80035
1.8071333,135.63814
1.824259,131.66411
1.8540207,134.23189
1.8781759,131.65285
1.7506003,133.37561
1.721817,133.95566
1.8579038,131.54457
1.6878979,127.70103
1.7396022,128.72148
1.6227238,126.5539
1.8063068,129.38951
1.6916841,126.40377
1.5917923,123.4659
1.5730115,123.99628
1.514687,121.24424
1.5690179,118.62855
1.5107179,115.03872
1.579351,117.29993
1.4727676,114.77693
1.5319462,108.43343
1.4886314,107.22875
1.4185835,107.61691
1.6042988,106.05448
1.432844,101.86837
1.4192492,97.44413
1.4413663,99.55723
1.4420316,96.4111
1.3674831,93.522095
1.410965,91.695465
1.3148633,89.83453
1.3319902,88.12851
1.2970363,86.58125
1.3244635,84.06672
1.1772991,83.866486
1.2312777,82.69385
1.1794578,79.50962
1.1211829,76.59349
1.0764515,75.77181
0.9731877,74.28315
0.98161197,69.19774
0.9673997,70.261
1.0065607,66.87768
0.9466631,64.1758
0.9880504,63.280697
0.91445524,60.703304
0.97799236,59.657734
0.94021446,58.71346
0.9419347,57.291786
0.95636463,48.619717
0.86631864,53.963364
0.99789894,50.676018
0.8641324,50.186153
0.82999647,49.277325
0.7779312,46.066193
0.79243624,44.45594
0.75223434,47.775234
0.7983502,45.270905
0.7588802,46.303295
0.82354003,42.122772
0.6480257,45.0697
0.6934021,41.867912
0.66658413,46.93047
0.5264984,45.489754
0.5872028,43.78138
0.67041963,48.74337
0.5489738,50.725063
0.57419753,50.920204
0.52533334,50.2507
0.61550033,53.516605
0.571398,53.452087
0.66830856,60.79673
0.66438866,61.591125
0.77233416,65.742134
0.87973785,67.41213
0.946224,71.47766
0.9890942,73.4684
1.0442526,79.54821
1.3160778,80.89952
1.2754936,83.941086
1.2860477,87.724365
1.4980029,90.7018
1.4796982,98.59701
1.6018258,99.06466
1.7012982,104.02019
1.6593024,106.58914
1.7810488,113.00309
1.8325235,114.537926
1.834874,114.591545
1.9054558,118.71305
1.8724564,120.89014
1.9993582,121.00222
1.8326279,124.93243
2.0213578,128.13069
1.9545969,130.8605
1.9744588,129.34195
1.9827093,132.27072
1.8908745,133.36424
2.0577495,133.87724
1.9034387,134.2575
1.8384748,134.46759
1.9540722,131.71663
1.8675207,132.54355
1.8873382,134.55478
1.729126,135.28795
1.7859821,132.26904
1.6156965,128.90707
1.784389,128.13397
1.5921329,126.37433
1.5610833,124.46459
1.6489769,123.83635
1.5498754,124.40676
1.6286652,121.30066
1.5480552,118.821945
1.5219132,113.27077
1.5095217,114.99853
1.500258,110.35522
1.4720771,111.45778
1.4444262,106.43837
1.4000133,106.647484
1.5640303,108.06408
1.3860863,102.79943
1.4132102,100.00067
1.4493616,99.53504
1.3157264,98.77365
1.4127415,95.613235
1.3196642,92.18156
1.2565476,91.2404
1.2971615,88.584496
1.2067971,85.45907
1.1380819,87.18086
1.2036314,82.79865
1.016396,79.71307
1.1622418,77.93959
1.0554037,75.48812
0.9308407,74.72145
0.92133194,75.29093
0.9658172,72.23521
0.93898994,67.814255
0.9583255,65.01215
0.8714854,61.810963
0.8340642,65.75194
0.88054776,62.96476
0.7874974,59.65778
0.73663473,59.63237
0.690553,54.4872
0.7461467,55.120064
0.7064099,53.41874
0.76496327,51.725624
0.76840377,51.69953
0.8561724,49.858467
0.7105431,47.865902
0.7610496,46.11373
0.704544,43.018135
0.6367462,47.978382
0.50838137,44.913315
0.5246091,42.899956
0.48179933,44.193066
0.4550686,45.51788
0.3790809,43.47697
0.5052453,45.278793
0.36786237,44.965996
0.33277577,46.04093
0.32052028,49.986942
0.4019986,48.364582
0.29111567,50.827744
0.36685008,52.034546
0.28620526,56.956753
0.46572027,62.07294
0.5637431,63.249638
0.51863897,59.720493
0.5394884,66.37459
0.62937796,68.8487
0.80109316,72.19073
0.76265967,78.97465
0.83561844,80.814224
0.9764563,83.761604
1.0871015,88.310974
1.084017,92.75884
1.2597162,99.78952
1.1483543,98.64947
1.3529898,102.040405
1.4133306,109.088
1.4046432,107.37793
1.4908762,113.84276
1.5471593,112.61704
1.5962136,113.775536
1.5392276,119.30642
1.6879056,126.089066
1.648725,125.97222
1.5875217,127.844734
1.6492271,126.22718
1.6387146,129.48404
1.5898823,126.889465
1.5637778,132.95679
1.5676755,130.42758
1.5513464,134.21066
1.5310342,133.13728
1.515686,131.18402
1.5501735,133.65836
1.5008602,129.81444
1.4146972,130.19662
1.4391568,129.46057
1.3968532,130.22552
1.3556812,127.69241
1.4007443,131.36496
1.3290434,127.13284
1.2003849,125.177216
1.291577,121.580246
1.2353361,123.29283
1.1815243,119.97704
1.1613739,120.01331
1.1792561,116.53213
1.1630472,113.83306
1.1836698,117.111374
1.159648,111.01487
1.2562332,111.22114
1.0978475,99.558365
1.0611997,103.148895
1.0061754,106.93614
1.0582521,103.021614
1.0375314,97.70779
0.98847,96.880325
1.0136242,94.97888
0.94748425,94.0926
0.91906023,90.89543
0.85076034,83.976295
0.8694339,86.39576
0.8454644,86.05391
0.84305894,83.723495
0.7836311,80.75417
0.6428568,77.04455
0.688564,76.10244
0.69468886,74.17888
0.56436354,76.21099
0.6521253,70.11579
0.52509457,69.062675
0.5209801,66.43596
0.5494883,65.146255
0.43065587,63.452427
0.44987464,61.789677
0.45517352,59.60947
0.38362756,57.357914
0.44818604,54.317703
0.41475746,52.047012
0.54133314,54.326107
0.34435615,51.435234
0.2847721,44.523647
0.28100803,48.05994
0.28214267,46.831413
0.38050276,47.827106
0.30317867,45.027664
0.3212813,44.15035
0.2030015,45.349995
0.2622013,40.92594
0.21717015,44.137196
0.14932895,44.75467
-0.0022860484,45.6017
-0.036915515,44.651787
-0.015431571,46.486797
0.059809927,47.25254
0.0029764788,51.775017
-0.06307855,52.426884
0.004937444,54.46536
0.11957354,55.750774
0.044103343,56.984028
0.19606136,56.777634
0.24220355,60.69456
0.31420264,64.72211
0.26929796,71.89646
0.47890267,72.23947
0.45724785,75.65865
0.6085579,79.0816
0.63890314,83.11909
0.775435,83.60205
0.9107874,89.14408
0.8055079,92.27108
0.87251496,95.9691
1.0449595,98.85219
1.0226864,104.03035
1.1034304,108.185295
1.2611529,113.28038
1.2667816,114.406334
1.2117035,116.329704
1.4617695,116.82584
1.3222944,121.53605
1.395187,120.68886
1.3877894,126.24969
1.4399632,128.81693
1.3291959,129.98738
1.3960147,133.92953
1.4548867,129.44969
1.3812736,134.07504
1.327685,133.61479
1.2781385,133.81085
1.2625452,133.09264
1.2897259,130.66507
1.247732,135.00294
1.2988695,131.0675
1.3518763,129.53583
1.2248927,131.62198
1.1965725,129.13715
1.1798048,128.54272
1.2047123,124.16575
1.1154743,125.40309
1.1063763,123.83236
1.0509238,119.79834
1.2126181,122.43941
0.9725916,118.93001
0.9993312,118.41038
0.9548175,116.25123
0.9028733,113.7324
0.8370848,111.07572
0.97334963,109.278015
0.83902436,106.890076
0.9443348,106.405205
0.95025724,102.4239
0.97197276,102.370224
0.92501414,99.90083
0.88568354,95.9515
0.8291443,97.12614
0.8186194,97.63139
0.73893905,91.905655
0.8193846,89.956474
0.7384112,87.48276
0.6670679,84.67114
0.5570315,84.16047
0.5631577,83.15642
0.58783203,79.802025
0.5375892,75.84508
0.65320957,77.9671
0.38589436,75.4107
0.51840216,70.781075
0.33881953,70.12557
0.33490324,66.48504
0.33340758,68.9085
0.3252395,61.697815
0.38400075,61.74708
0.36473507,59.269264
0.46860543,59.140373
0.32183567,57.53211
0.2869898,53.621277
0.39751908,54.139023
0.37647134,54.81414
0.3539527,47.503365
0.32516629,49.945488
0.23273419,48.4671
0.3789126,44.17402
0.3162986,41.09224
0.20454594,45.17465
0.24778113,46.62922
0.106448986,40.4678
0.15056048,43.058628
0.051481795,44.62252
0.14234483,41.308933
0.037266735,44.525417
0.114499725,44.11923
0.0050425227,45.527885
-0.1785409,48.983746
0.03476076,47.88528
-0.08004833,50.172543
-0.07724742,53.741627
0.108588174,56.60285
0.23350748,61.373913
0.16685544,59.66953
0.24582426,65.20026
0.34033108,67.44542
0.38350016,74.97681
0.4515322,77.44149
0.6220302,78.064766
0.5597889,82.306435
0.8761435,83.31632
0.8401855,89.24509
0.8749882,92.00433
0.91559565,95.4591
1.1139022,99.72744
1.115409,100.799774
1.3253198,108.32802
1.2462168,110.77587
1.3965344,114.29148
1.2908437,113.220955
1.3409436,118.71485
1.3901558,120.31475
1.4843104,122.60253
1.4121101,124.50282
1.5197909,126.94436
1.498256,131.86269
1.57328,128.39342
1.4837027,132.1233
1.5037131,133.46164
1.456986,133.59993
1.5093427,135.77252
1.524699,134.30612
1.4710695,131.13127
1.5000757,137.22392
1.4414682,133.57889
1.3325455,132.09048
1.4698228,130.8974
1.4711564,131.7305
1.3101175,129.46658
1.3439417,127.65048
1.2497573,126.74941
1.3361977,123.40118
1.1881187,123.68801
1.1781298,121.37612
1.2512032,118.35677
1.2631845,115.91878
1.1571367,116.17186
1.2224635,113.79518
1.1365095,112.47842
1.1458063,105.87403
1.2099214,105.85482
1.1619751,106.02532
1.0298274,107.32507
0.99134636,104.715614
1.1180427,101.00638
1.2806885,99.51632
1.0581397,93.84941
1.0782444,95.551125
0.97866285,91.55537
1.0720546,91.25111
1.053635,88.998665
0.9853515,87.98167
0.9196573,82.84094
0.9376697,79.35862
0.8826283,79.70136
0.8548581,77.834526
0.7467289,76.10892
0.66205317,73.91782
0.72587776,76.039795
0.6954557,68.23624
0.61366844,68.609314
0.67089796,65.512245
0.6384822,63.45155
0.6109563,63.236797
0.5587388,62.67592
0.6370736,59.202145
0.6560652,57.663727
0.6722376,58.43704
0.5927834,55.459545
0.7007713,51.822678
0.5905223,50.726433
0.63879657,51.739605
0.5764742,48.08832
0.60208136,45.53494
0.5869043,43.591537
0.55938965,44.878975
0.5819218,45.860626
0.5312162,41.181053
0.3234064,44.684124
0.37324756,45.74954
0.46344745,43.32526
0.2398553,42.672375
0.37761992,47.6948
0.27915663,45.63895
0.31620494,46.400536
0.3550964,48.649796
0.20011102,47.46923
0.32295755,53.82464
0.24683823,52.909897
0.4237997,60.535732
0.47651955,60.126617
0.45253593,64.23884
0.6616574,70.02216
0.72375345,69.753815
0.82794505,72.73864
0.7835862,74.16081
0.9188143,79.80672
0.9727011,84.8874
1.1933182,88.217896
1.2565761,93.1204
1.2870882,93.895035
1.3252591,97.48336
1.4457026,100.92607
1.462936,102.55721
1.6049969,107.492035
1.7116432,112.41018
1.7013662,114.77017
1.7996409,119.2839
1.7286342,117.62368
1.7599726,119.50251
1.8412756,123.894226
1.8638818,124.908615
1.8953588,127.4166
1.8986427,130.02353
1.8253747,133.40805
1.7549107,132.58594
1.8201798,133.83945
1.7527891,136.14886
1.9085507,135.43489
1.9535788,132.6665
1.8184124,135.0127
1.8626479,131.33514
1.8521347,131.59236
1.8217714,128.83441
1.6493292,127.86422
1.7151765,128.80981
1.6831326,126.04351
1.6074603,126.02601
1.5686333,125.825035
1.6312469,124.099495
1.5888829,123.10362
1.5718259,117.36947
1.4854628,117.666275
1.5877562,115.63182
1.4951743,115.89853
1.5640643,111.51168
1.4999646,110.36952
1.4717562,108.04627
1.4994835,103.23503
1.3979394,105.584564
1.4817019,101.85644
1.5358353,100.25827
1.4372475,97.670586
1.3929269,96.580315
1.4268713,95.801796
1.4171073,96.96671
1.3644539,90.955765
1.2820164,90.428085
1.231849,85.92024
1.2547208,82.45468
1.1559398,82.365875
1.0934999,80.586136
1.194441,77.827324
1.0760767,77.40525
1.0450944,75.40849
1.0961263,72.46691
1.0090337,73.17294
0.98961556,69.25199
0.91181684,66.96347
0.87771934,63.961563
0.8904505,63.850662
1.0159165,59.717503
0.8985263,59.249268
0.9768981,59.96058
0.87148243,56.673016
0.8564198,55.0254
0.92393315,55.68515
0.904817,52.983475
0.8945995,50.9797
0.9656888,49.211502
0.95492077,48.248417
0.77228457,47.254326
0.9449743,44.6617
0.7562496,43.51686
0.77979785,44.155605
0.75980085,45.120354
0.69292414,45.36012
0.6903953,42.01775
0.7128028,41.723835
0.5917576,45.880985
0.5321208,48.598034
0.48633713,49.954094
0.5326347,50.709316
0.47958013,51.058838
0.4558331,53.110703
0.62659204,56.485188
0.725559,52.627876
0.6679085,60.811916
0.74465597,64.62498
0.79679626,62.75234
0.89663,69.36984
0.83495724,68.597244
1.1512257,77.166626
1.1159177,78.41473
1.2024804,84.909485
1.244571,86.3502
1.32692,90.95539
1.4787632,91.026985
1.5120711,95.508064
1.5398803,98.7734
1.6320813,104.619225
1.6626779,106.88675
1.807404,111.691055
1.8036197,114.80262
1.8956212,114.68734
1.8969463,117.48569
1.906437,120.00712
1.8933197,121.85211
1.9545727,128.88684
1.8956546,126.3108
1.9678732,130.01797
1.9808238,130.02556
1.8819036,132.55103
1.9723127,133.13503
1.9144076,134.62567
1.8406148,133.0965
1.8769526,135.16162
1.9849609,132.51233
1.8367796,132.79663
1.861813,131.25687
1.885058,131.00653
1.9384762,130.71588
1.9374931,129.8426
1.8018166,128.58516
1.7447363,130.42262
1.7432947,124.96599
1.6992044,125.32236
1.5856884,122.354126
1.6022863,119.31322
1.5743649,118.52434
1.5970187,118.34927
1.5464633,114.45426
1.5171809,112.72356
1.5895942,115.057304
1.458204,106.682274
1.5401202,107.73315
1.5463747,105.072525
1.4072624,105.238884
1.5206465,99.86804
1.4309211,99.59655
1.4060538,98.07906
1.326502,94.06052
1.4007277,92.49338
1.3637038,91.74368
1.2604446,87.534195
1.2882893,88.66104
1.2355291,85.33945
1.2927054,83.70239
1.143557,77.565125
1.0438818,80.882095
1.1200769,76.147736
1.0613358,78.17783
0.8912311,71.79662
0.9336438,73.60899
0.86975396,70.72575
0.8986155,70.25053
0.8850909,67.42573
0.86730194,64.25144
0.8111007,59.962
0.78406996,60.351845
0.87911594,59.1039
0.8679767,55.370903
0.86524487,56.654446
0.76804924,52.42311
0.874432,52.377445
0.7996082,48.564365
0.7109738,48.34912
0.7751886,48.78667
0.6998208,44.928276
0.616967,48.37648
0.6336343,44.797054
0.6851578,45.13134
0.6530726,41.82007
0.53697383,43.99205
0.60586536,44.860394
0.48966223,43.62379
0.4046082,43.295197
0.37340975,44.359516
0.35014942,45.366524
0.36773515,50.44359
0.30804497,49.34765
0.4129226,48.887413
0.45294175,52.16126
0.36811826,57.61751
0.58886045,59.727905
0.45222163,59.1474
0.5504152,64.45271
0.6766603,66.53545
0.70406616,70.603096
0.7920343,74.77793
0.92955554,80.064674
0.85264826,80.93035
1.0611559,82.033714
1.0301211,88.84382
1.1937724,90.99431
1.232132,93.53646
1.2988008,98.02485
1.4457992,102.68076
1.5308684,105.38802
1.4535563,110.502525
1.4587146,113.3254
1.5732497,117.80875
1.6524076,118.80744
1.6391697,119.21668
1.7236166,120.8832
1.5853091,125.72211
1.6958201,126.6466
1.739606,127.09372
1.7413092,129.63176
1.7871915,131.04662
1.6741505,130.65613
1.6397878,129.87709
1.6659286,131.53572
1.6462405,130.85027
1.6500928,133.68463
1.6858662,135.0948
1.4250273,135.31209
1.573699,131.05072
1.511946,131.72614
1.4768038,130.77296
1.596503,127.19586
1.4141372,128.4063
1.445163,129.58588
1.3745239,124.4855
1.3127347,126.0619
1.3402812,123.68417
1.3349143,120.26463
1.3255894,115.833855
1.188959,116.5554
1.118864,113.60499
1.1351345,111.76005
1.1832069,108.83062
1.1956694,109.90871
1.0056089,106.227
1.1755311,106.90969
1.1418253,103.0856
1.0354675,100.46735
1.0293067,97.29294
0.93092567,97.09453
1.0908324,97.59503
0.95425713,91.74712
1.0511011,90.65205
0.92323154,89.95117
0.87355053,84.44317
0.88124716,83.81359
0.8745207,82.59383
0.80803305,80.90607
0.650725,78.1286
0.70139676,75.253494
0.61083937,73.8632
0.605343,70.74899
0.5610359,70.03197
0.4956863,65.34099
0.48437816,65.29272
0.5319432,65.437836
0.53185743,64.52254
0.57553846,58.111
0.566753,57.973484
0.3794343,56.708546
0.47953492,54.791733
0.41361812,53.20486
0.5091239,50.89354
0.57078826,53.290947
0.4688202,50.838608
0.4207207,49.35708
0.37182316,44.58122
0.39901018,46.045086
0.3696909,43.6136
0.34444073,43.857204
0.18394351,41.750504
0.28906265,45.739353
0.2318703,43.747337
0.09520051,47.244324
0.073125,42.730427
0.07072916,45.079395
0.14174551,47.976902
0.061645526,50.063587
0.04973302,50.43491
0.16826637,52.71435
0.016462142,52.581863
0.068077415,53.62614
0.17884396,56.07558
0.218326,62.924107
0.26377472,63.237453
0.26346186,67.608986
0.2950055,68.53099
0.479312,70.002655
0.47412437,75.45268
0.5179221,78.90299
0.67163664,82.44477
0.7997856,84.306114
0.8503176,92.98562
0.8821184,92.47415
0.99725044,98.44019
1.0689795,99.8541
1.1051368,104.87526
1.1476492,105.15486
1.2822762,108.92779
1.2698178,114.04438
1.2284622,115.20234
1.3963748,119.81332
1.4370834,124.668304
1.2906145,125.00235
1.4531579,125.374016
1.4292132,127.67112
1.4448206,130.40027
1.3202009,126.98867
1.4111611,130.952
1.3758186,132.5307
1.3353466,134.4685
1.3251349,130.18726
1.4038943,133.85849
1.2772782,135.57361
1.29705,135.28328
1.3134434,132.6837
1.3289162,132.99997
1.2038145,128.61761
1.1141757,130.39229
1.2267702,129.16278
1.0895491,125.23228
1.1940478,129.0869
1.0680491,122.041275
1.0487099,124.14819
0.9474518,122.67538
1.0411266,119.16692
1.0556761,119.24592
0.98694104,116.95397
0.94245315,111.89703
0.9036548,109.34085
0.8771639,108.9764
0.9413408,110.43052
0.80518264,108.17911
0.9532204,103.27521
0.84466726,99.97772
0.8550785,102.26507
0.8911053,97.183365
0.80828345,96.54294
0.7992266,93.399055
0.8363532,91.97635
0.780809,86.612404
0.72316384,86.20151
0.7199915,86.7814
0.7543889,80.70577
0.5596561,81.71257
0.6013676,81.04604
0.557069,78.868904
0.4818848,74.27847
0.37560236,75.68896
0.46734297,72.951805
0.47130632,70.39491
0.2461681,66.106026
0.45677304,66.18696
0.33032873,62.88857
0.4117334,61.11428
0.3347118,58.1827
0.3381329,55.760403
0.2787841,58.776157
0.3199215,57.16054
0.3712351,54.178364
0.34016287,49.815132
0.38765928,48.148815
0.22462367,52.15792
0.20777242,47.013454
0.30668655,45.14174
0.27149227,49.17437
0.2205348,43.8953
0.23032255,43.152397
0.13571556,47.13865
0.12520756,42.723953
0.077550545,45.83355
0.05711828,44.921413
-0.0018224186,42.34567
0.086978965,49.29512
-0.06721707,47.38285
-0.036571503,45.67507
-0.08340951,52.430984
-0.043505404,49.926174
0.033816356,54.13287
0.075253464,54.54261
0.13927145,57.708244
0.14910015,63.957623
0.16379856,65.972946
0.22197734,66.274376
0.39487207,69.62216
0.32410815,71.59893
0.49354833,78.18734
0.6357897,78.062416
0.6898676,82.95282
0.83663434,90.592575
0.90749156,90.5951
0.96468216,96.46963
0.9724203,100.59714
0.96602196,102.02008
1.1544489,108.682816
1.3390661,111.255516
1.257588,110.70554
1.1952494,113.22116
1.3152021,120.87797
1.3070399,124.55581
1.4045333,121.4605
1.4163541,120.89161
1.4988064,129.19888
1.4985703,127.37075
1.5069671,130.84319
1.4070283,131.86217
1.396407,134.10631
1.5356234,132.22346
1.4308931,132.48544
1.4870651,133.1288
1.3861672,132.42792
1.4647281,134.30452
1.3327079,131.57053
1.4395866,127.790535
1.4048808,130.95529
1.322038,132.43057
1.258251,130.56306
1.2988546,127.48526
1.2835075,125.23368
1.2219807,124.214554
1.2622436,120.52277
1.1593778,122.096924
1.0417383,120.85463
1.1304312,117.75237
1.0611916,115.73349
1.1528296,112.92145
1.2053144,114.35198
1.0581715,112.30292
1.1517242,108.32036
1.1483853,107.40387
1.0931143,102.86611
1.0185151,105.221794
1.0906566,99.677284
1.06714,98.140396
1.0832379,92.76403
1.012067,93.43919
0.92695814,91.94874
0.99027246,89.81415
0.9370723,87.208664
0.84394896,88.74851
0.85118866,81.11196
0.76906383,81.79401
0.8378525,81.592514
0.76302475,79.83988
0.67568153,77.45514
0.64618206,73.09279
0.6866161,73.26589
0.646853,70.9178
0.5592668,67.42265
0.41370076,66.28406
0.5344402,64.159386
0.63382214,63.180317
0.5294237,62.9984
0.58328366,60.590187
0.57539684,58.036163
0.6563705,54.465137
0.5921019,53.911736
0.5596213,53.730953
0.54346895,53.55406
0.5232636,48.79206
0.58248174,44.67622
0.53956175,44.65352
0.60150474,48.983383
0.43701345,45.408028
0.45649838,42.10098
0.5165649,42.21664
0.38618216,42.63749
0.47031328,42.400223
0.3613403,45.917294
0.27096787,47.332787
0.30164814,45.4948
0.20484023,46.191803
0.21632467,46.97412
0.32347542,50.92233
0.33815253,49.868645
0.35129526,52.145596
0.31491247,55.503777
0.33634344,60.237312
0.4677901,60.47086
0.5269524,64.41947
0.5718027,64.193504
0.6417605,68.40233
0.77454776,71.78274
0.6733467,77.521225
0.94505656,83.022385
0.96515745,85.893776
1.0114125,87.53472
1.2077473,90.6623
1.2640928,93.46391
1.298014,98.47521
1.4126452,101.28039
1.5157322,105.48865
1.3889445,108.09234
1.5658197,108.473045
1.5409124,112.51064
1.8295897,115.90211
1.6188766,120.08106
1.6601585,124.1425
1.6630778,123.47428
1.7498713,125.464005
1.7890677,128.29568
1.8054835,130.00084
1.7587318,131.00166
1.7341775,131.19441
1.8333312,132.94182
1.7595776,132.33328
1.7488235,132.89748
1.7844507,132.71979
1.716311,134.29535
1.7757932,134.39362
1.7083976,131.15341
1.7350163,135.97641
1.7882977,127.77438
1.6767474,130.07623
1.6968436,127.30476
1.5741746,128.29495
1.6238855,124.39718
1.5262169,124.595604
1.5757259,122.3854
1.4738029,118.75219
1.5185945,120.86589
1.4335569,116.97113
1.4215279,115.62578
1.4203004,111.75868
1.4255497,110.96831
1.471437,106.43964
1.3801117,106.81825
1.3453184,105.919136
1.3782663,102.38332
1.2987015,103.02467
1.3387346,100.3163
1.3740838,96.37656
1.4082271,94.30344
1.3217183,91.06907
1.3729612,92.92717
1.3232486,88.6004
1.0785602,86.11762
1.2004187,83.64591
1.168137,80.9226
1.0690408,82.058365
1.1597302,81.30386
1.0915866,75.29631
1.0220222,74.50025
0.97495425,72.8109
0.9753506,70.58846
0.8396948,67.66787
0.8116938,64.56503
0.97506225,64.384415
0.94013166,63.806446
0.9542062,62.785557
0.8704198,62.49137
0.86872405,56.47909
0.8193819,57.873013
0.87622017,56.561485
0.95422715,52.31362
0.88390934,51.43887
0.81432617,48.619038
0.86480874,47.588364
0.8285053,48.610474
0.87244064,49.803165
0.7903442,43.6216
0.8045026,46.055393
0.7618682,43.69771
0.7453282,45.362186
0.70147455,43.059902
0.6552348,45.43048
0.59203494,45.800953
0.5904788,43.350586
0.5780871,49.141125
0.5113879,45.82812
0.554007,48.97306
0.5736178,48.2548
0.5255182,52.472576
0.5812027,55.290855
0.53803086,57.66381
0.7063598,56.47993
0.8486415,61.048813
0.852245,67.08103
0.78868186,69.07605
0.89760447,69.77116
1.0697331,72.54161
1.172398,77.70403
1.3384345,82.74753
1.3306388,85.89415
1.3324678,91.51334
1.4940389,91.48009
1.4725801,94.044685
1.6775316,100.22484
1.6325302,102.06712
1.7566595,106.996475
1.7703537,108.09727
1.7854813,112.97701
1.9278276,115.88479
1.8916514,117.00845
1.8476579,119.80864
1.95341,119.76193
1.8540238,125.02201
1.9359255,127.18453
1.951895,129.61583
1.9958298,131.64386
1.9467098,130.31635
1.9259658,132.59367
1.9324759,133.9713
1.8340901,136.67506
1.9579272,134.1208
1.912033,136.42581
1.9612741,133.56133
1.8315252,131.50574
1.8483558,129.3995
1.8314269,128.67928
1.7150443,125.75407
1.7473578,127.20778
1.7521322,127.081894
1.663952,126.56326
1.800931,123.79234
1.7417287,123.108955
1.5919257,123.99918
1.5774246,120.10989
1.6416732,118.61331
1.5802387,117.913
1.5600296,113.81055
1.5058528,115.32028
1.5381976,109.80499
1.5167984,108.73949
1.4793471,107.11323
1.4846137,101.747444
1.3946856,99.66758
1.4118898,99.24672
1.2875962,100.85124
1.3915511,100.75226
1.4023229,92.81622
1.3981999,90.0266
1.3417009,87.604645
1.3061293,90.16752
1.3717802,86.016655
1.1407934,84.98147
1.2047604,85.10143
1.1287825,82.19523
1.095864,79.40824
1.115225,76.18679
0.97060233,75.79706
0.9953537,72.31982
1.0369807,71.36968
0.90621376,67.29747
0.85895616,67.549286
0.89141124,63.39133
0.8400781,62.2166
0.8125744,60.227074
0.79449844,59.13317
0.9212454,58.318993
0.9675619,54.961277
0.78968436,52.58714
0.9314173,51.479355
0.8181381,47.456913
0.81467366,47.817024
0.8281919,48.21654
0.8241421,47.31888
0.66056615,43.85455
0.77206033,43.65297
0.65272,44.610916
0.62589973,44.2947
0.5819263,44.18703
0.5923409,44.119473
0.4920044,45.079628
0.58772653,49.87832
0.53693706,44.073555
0.37167436,49.287212
0.37616888,46.233044
0.4701822,52.748123
0.44873524,50.23885
0.48068547,52.653263
0.39230734,55.43578
0.5626231,58.97119
0.452131,60.314594
0.72736603,61.43582
0.6463501,64.14382
0.78094417,69.33888
0.8993923,72.48053
1.0033987,77.82248
0.877351,81.44871
1.1106303,81.89834
1.1276889,84.622475
1.252053,89.28777
1.3851364,90.823204
1.4445397,99.4859
1.4648063,104.10482
1.508083,101.84032
1.6316711,109.72862
1.6763813,112.01036
1.6960325,112.238754
1.5828086,117.07616
1.6802062,122.026794
1.7719764,120.656235
1.7547563,122.88706
1.6439022,122.464
1.8156586,129.45033
1.7926686,131.56152
1.693503,133.52112
1.7668017,131.10918
1.7830602,132.27309
1.6120464,131.0444
1.7714226,133.36409
1.7622815,130.24347
1.7652439,133.88748
1.6643358,132.198
1.6016273,130.63629
1.4681873,133.08401
1.5246589,129.68394
1.5149336,129.24728
1.4287398,124.39895
1.4781525,130.86646
1.4585929,126.99237
1.3555583,124.155655
1.3448817,120.5519
1.3443171,119.70874
1.3178548,117.02609
1.3471013,115.81057
1.2340778,115.28533
1.2802163,115.37903
1.2034858,108.9074
1.2058117,109.31392
1.1546391,106.03667
1.2228596,104.27077
1.1087542,103.24233
1.1335373,102.7277
1.1058525,99.15016
1.116914,95.7763
1.0920177,92.51849
1.0570655,91.46559
1.0480578,88.774124
0.9772195,91.23504
0.96852916,86.85632
0.8654291,82.24996
0.87420285,81.585846
0.88005966,80.28119
0.8709381,78.595474
0.713452,77.68709
0.67478615,72.883934
0.7038207,72.95769
0.771992,70.542404
0.5703947,68.171646
0.64323324,69.30306
0.60364133,65.13278
0.5962306,62.731506
0.5502835,58.666256
0.5253418,59.991932
0.58698446,56.67463
0.5639797,52.19144
0.5409157,53.790916
0.5116585,50.166656
0.48534298,52.693207
0.43569747,49.614994
0.56209373,47.722855
0.55145586,46.595146
0.4103851,46.74743
0.4334292,44.583023
0.30407405,45.090073
0.29216614,41.423256
0.29433948,41.953335
0.3549128,45.23992
0.3027655,42.48478
0.13937826,45.001873
0.054408755,44.68864
0.19845966,45.72583
0.032655112,45.94788
-0.010654083,50.165367
0.0762833,49.308918
0.16428286,52.3614
0.07567688,54.33373
0.09711021,58.95588
0.16564213,63.032433
0.29070657,62.478386
0.30432773,65.16968
0.4371986,68.46284
0.48780304,74.07136
0.43483016,76.40284
0.569695,77.66203
0.6658608,82.94792
0.7042314,87.395065
0.79588526,90.83979
0.9425111,94.0812
1.0884619,97.00362
1.1525859,101.52916
1.0294623,105.495895
1.1159308,104.75791
1.2459581,107.54335
1.289019,115.6724
1.3239912,119.020294
1.3839613,120.01925
1.3370568,120.25308
1.3573976,123.141945
1.3960078,125.24166
1.4970372,130.04799
1.318505,129.54974
1.3537141,125.89283
1.4433763,130.46512
1.552889,129.68826
1.4293119,135.48497
1.4264587,133.31552
1.3347812,133.23068
1.3915224,130.54027
1.3682086,133.58281
1.2259606,132.74266
1.295356,129.48763
1.3880281,128.1404
1.1436017,131.7164
1.0990764,124.20657
1.1696827,130.26897
1.0727415,128.56142
1.2491314,126.365425
1.0662119,124.32429
1.13253,119.53006
1.0356598,116.07409
1.0956011,115.536606
0.9455179,114.08535
0.8985377,113.70085
1.0104102,111.783875
0.94928414,108.758484
0.8734645,107.48975
0.96565086,101.30442
0.91781217,103.89078
0.85670364,98.01614
0.83457893,100.88113
0.9689128,99.464035
0.7929275,95.72652
0.83480185,94.373146
0.8394199,87.34148
0.7740854,89.124855
0.66455364,88.43576
0.79847854,84.23745
0.63219607,81.6167
0.5535123,80.23471
0.5300342,77.38126
0.49025404,73.77858
0.47987875,77.753716
0.50325245,74.822945
0.4030761,70.94325
0.5775043,70.87866
0.36929402,69.305786
0.28307638,63.63603
0.3264716,64.21469
0.3322992,60.217564
0.31952623,58.429413
0.27213478,60.622746
0.32988772,55.42613
0.4280568,55.06394
0.32085845,52.382652
0.40157107,49.467407
0.28484756,47.966866
0.26741248,49.081654
0.26151842,46.665096
0.21095905,48.369087
0.24154131,45.72984
0.312861,45.59642
0.10613295,42.11082
0.06751815,41.70276
0.026299091,42.96635
0.06702634,41.899315
0.012251072,42.929657
-0.031156655,45.508095
-0.011349169,48.051666
-0.038045645,47.94001
-0.07369494,49.11199
-0.112873845,50.43184
-0.09021799,54.52134
-0.009064878,51.788128
-0.017656833,59.24778
0.0430694,61.662693
0.14904052,60.20194
0.2383467,66.0214
0.23223515,65.13046
0.33530095,68.26209
0.34675294,73.21179
0.5712662,77.21035
0.556748,85.59148
0.66059303,82.93005
0.719609,87.11146
0.87316597,89.19556
0.8946456,92.032166
1.0475222,100.12992
1.0849572,102.347176
1.1039635,105.26058
1.2466434,107.55053
1.3055352,112.731766
1.2068194,117.34233
1.2071509,117.856155
1.2327592,120.03517
1.4135793,122.05272
1.4601165,125.5838
1.4066474,129.68594
1.4708027,126.52188
1.3576285,128.78207
1.4709028,136.05736
1.4076498,130.20634
1.4861118,134.20998
1.4114221,132.52304
1.4509797,132.32294
1.4131404,136.45172
1.3569168,136.8843
1.3492253,134.27837
1.3289707,134.3707
1.3246013,129.54138
1.4076006,128.6275
1.22314,127.56024
1.2495129,130.85611
1.0847044,121.085495
1.2564757,124.0876
1.2180852,122.241936
1.0552162,121.041275
1.094926,122.14482
1.0489948,116.29767
0.95977247,118.9514
1.0628006,113.70102
0.9381708,112.670166
1.0361161,110.575096
1.197512,111.574165
1.0342232,110.998955
1.0735658,102.92362
1.116922,101.01416
1.0025169,102.17408
1.0319405,96.76948
0.98714644,96.32896
0.94087857,94.437935
0.9721916,90.81397
0.99446696,92.246414
0.9549437,88.970276
0.85757124,85.750374
0.77226585,85.841934
0.7086492,81.74826
0.7120581,78.70082
0.7331818,79.209724
0.7604319,77.13895
0.507708,73.29993
0.5060674,72.38827
0.7582919,71.93912
0.54252523,70.596695
0.5044454,66.565865
0.48818016,63.34466
0.57636666,62.652775
0.5439842,60.480778
0.57514113,59.060986
0.44806844,55.40605
0.48574027,57.520847
0.5166941,52.771175
0.50913537,49.883774
0.5782762,46.69288
0.48946396,46.013054
0.59439903,49.713726
0.42395154,49.84424
0.5020466,44.819004
0.51040137,45.643364
0.512477,45.635624
0.51860607,42.681698
0.4407237,46.102474
0.4425811,46.065937
0.27387762,46.738712
0.24595244,45.633537
0.26374492,47.74564
0.34369105,47.67287
0.1982084,49.773434
0.14938697,49.406517
0.28771752,49.411522
0.26547262,54.846798
0.35809478,54.271408
0.25423148,57.35187
0.3431907,59.80547
0.3766867,64.2377
0.42108387,66.92648
0.539917,68.88481
0.703327,72.58338
0.8079448,77.66756
0.8053139,78.58842
1.0488713,81.94664
1.0480781,87.8142
1.1630869,93.31782
1.2615994,92.19239
1.2299557,99.946266
1.4867291,104.01093
1.2950182,103.13414
1.5538597,109.264725
1.4912747,112.96405
1.6292804,116.49933
1.6403612,116.87873
1.6850404,118.58827
1.6995894,121.25571
1.7189895,123.716484
1.7083277,128.58948
1.6550819,127.68691
1.6785991,130.26862
1.8523777,133.74092
1.6636509,130.89868
1.866437,134.55998
1.6974297,132.43895
1.7342929,134.59549
1.7727467,132.97571
1.7425855,133.28107
1.7386749,131.14233
1.7839603,134.91177
1.5931717,130.1958
1.7145911,129.1926
1.568603,128.47925
1.6575215,129.00885
1.5125613,125.90561
1.5289521,122.0281
1.4829024,122.16322
1.4766005,121.22287
1.5360088,118.387375
1.4684668,118.16721
1.4550165,113.53216
1.3905704,115.035904
1.4084318,112.954384
1.4016827,108.31806
1.4311873,106.45855
1.4460219,105.643326
1.3258218,106.37321
1.4197631,103.64176
1.3167992,99.94198
1.2758138,99.1032
1.3404334,98.19492
1.2608898,98.558784
1.292476,94.612434
1.2815063,87.37387
1.1951368,93.59479
1.2248604,88.08514
1.112954,81.24599
1.1549417,84.97339
1.1841091,80.3837
1.1472753,78.28793
1.0842563,79.89763
1.105971,77.49852
1.0058767,74.109146
1.0204641,70.227
1.0248096,69.60605
0.8769979,66.89271
0.8721741,65.71412
0.82810235,64.346115
0.8886161,60.814503
0.7816132,59.23844
0.8555601,56.418472
0.8442267,56.051292
0.84879446,53.107132
0.86615956,53.41035
0.90559036,47.101326
0.9211928,52.040096
0.8132025,47.402424
0.82803595,48.470394
0.8381097,46.646824
0.8251972,47.882538
0.8228548,43.923073
0.70303464,44.110085
0.63913816,43.863476
0.75845826,40.212097
0.67043245,46.76222
0.6217122,43.259815
0.5467389,46.429516
0.62901974,47.502007
0.5200314,45.2982
0.48501536,47.901688
0.5505887,48.2229
0.5546611,49.585724
0.46567082,56.370224
0.5649795,57.16985
0.5659606,57.96385
0.74109465,60.055393
0.69924265,61.191536
0.8248427,69.0646
0.89306444,71.135574
0.99723333,76.4318
1.0981476,78.08284
1.2510005,81.497925
1.1350389,85.62306
1.2119148,89.365875
1.356497,92.78894
1.5344766,93.826324
1.554727,99.76102
1.5967323,104.6563
1.7050341,109.24354
1.7499788,111.015305
1.8525141,113.97726
1.7418443,115.73085
1.8056191,119.48287
1.8986155,118.55289
1.9264944,123.26137
2.0135698,126.99784
2.0318582,125.87901
1.9169822,127.98359
1.9984692,127.62586
1.917973,130.03362
1.9726539,133.56161
1.9335012,135.8858
1.8204691,134.72807
1.9851712,134.00005
1.7723898,133.4869
1.8636754,132.21198
1.9113562,132.67494
1.8869101,130.75772
1.8480312,130.08994
1.8625333,130.4525
1.7237868,128.78029
1.7835463,124.32103
1.7359447,127.22198
1.5962399,124.60589
1.5679656,122.72455
1.6273319,124.35697
1.7222334,118.760284
1.5907949,118.30056
1.5488317,114.77614
1.5569859,114.73003
1.4500818,112.322136
1.475302,108.607376
1.4829593,103.91127
1.4913172,107.81062
1.4460907,101.11832
1.4244359,103.58968
1.4968301,97.077576
1.4078877,92.63181
1.3267546,95.388695
1.4273455,94.62335
1.3885494,91.40882
1.353458,91.41714
1.2953098,85.603455
1.1307836,84.08887
1.2280115,83.05937
1.3409905,81.19116
1.1985092,79.01119
1.194001,78.512276
1.1208308,74.53991
1.0190957,74.63349
0.8645233,73.48852
1.0225086,69.14634
1.0316745,64.230865
0.94787234,67.438095
0.9222995,62.938244
0.80333674,63.056915
0.9101311,60.383938
0.8347765,59.80387
0.82527,57.598053
0.87351733,53.99039
0.99018407,54.432453
0.80139154,50.907814
0.84781796,46.513134
0.8131211,49.440815
0.8576503,46.083824
0.75676453,47.984093
0.84632266,43.247383
0.8213013,45.06326
0.6842991,43.950882
0.6722221,41.285255
0.6350768,43.57137
0.6568808,42.719467
0.65285385,44.746124
0.46466118,44.10284
0.47955528,43.951015
0.5340172,47.207474
0.43000638,45.349182
0.43581015,48.811172
0.38665023,51.079544
0.5239651,53.76202
0.57538307,54.943565
0.39679894,57.92478
0.5330815,59.64855
0.69823396,65.15952
0.72673357,68.69979
0.8179635,72.52142
0.7799983,71.92958
0.9607305,77.3103
1.0932008,76.34338
1.1296042,81.6115
1.1323277,89.01219
1.3488493,93.02326
1.3194083,93.54021
1.4267186,97.513596
1.4224114,102.96341
1.5896379,104.30687
1.6126295,109.870186
1.5582364,111.35344
1.7632593,119.24814
1.6680745,115.49083
1.6854589,121.18592
1.8393582,122.53257
1.8461945,126.94447
1.8275112,123.72613
1.8107067,129.61333
1.7353686,128.18024
1.7910962,128.47876
1.8593252,130.68643
1.7745991,134.2707
1.8111349,134.23828
1.71507,133.88513
1.7698351,131.6708
1.6934493,133.3081
1.7510035,133.18411
1.6930169,134.7179
1.6288157,131.53653
1.4813329,130.95584
1.6027358,127.88848
1.5228666,126.3219
1.4487934,129.12935
1.500411,127.78321
1.5094852,128.16469
1.481228,122.32013
1.3894613,117.729904
1.3586465,115.65107
1.2947862,118.10698
1.2957898,116.45956
1.3991295,110.80834
1.2740755,110.989334
1.1670713,106.093605
1.2072922,104.58261
1.2725917,105.54044
1.2152936,103.93012
1.1398425,98.93464
1.1930132,98.95753
1.0764138,100.73968
1.1153569,94.03215
1.1464335,93.26355
1.1530262,91.18346
1.0088104,91.360985
1.05231,86.49082
1.0213778,86.858185
0.9033994,80.323875
0.9925902,77.99937
0.8848475,80.6562
0.7092721,80.24826
0.7254535,76.97429
0.7848944,74.61605
0.7047976,70.038605
0.6022645,67.97482
0.6475157,63.06897
0.58878154,65.872696
0.5980477,63.244354
0.54130006,59.6795
0.51383233,55.91413
0.5841459,54.1882
0.6004941,55.50657
0.533428,52.62107
0.5564301,54.661846
0.5834496,53.31651
0.3978999,48.01359
0.56354135,48.0558
0.4146151,44.263412
0.53279716,47.308006
0.3030057,45.652237
0.3604448,46.783215
0.3377076,43.22533
0.32672793,45.043514
0.2816052,42.236275
0.19211155,41.784817
0.29113287,44.806522
0.16093968,43.85089
0.26244608,44.72653
0.03452546,46.63082
0.21653137,50.235
0.16946045,52.455517
0.063060306,57.4148
0.20995645,53.26053
0.14060725,57.010895
0.18697222,63.10592
0.29183805,59.5139
0.35806406,66.828156
0.3932042,69.070404
0.4324942,71.655365
0.56613237,76.16671
0.672117,79.935814
0.7578233,84.186806
0.87005496,81.543755
0.8974791,90.31584
0.9369252,92.47269
1.0763369,100.453415
1.1655525,102.00566
1.2084167,102.622604
1.3930053,108.62201
1.2973135,110.78466
1.3470812,115.27993
1.3777301,119.07966
1.4065024,117.11942
1.4943373,119.28777
1.324908,123.854904
1.4782163,127.27551
1.4419577,124.93617
1.514923,129.41856
1.4248182,130.52354
1.4902164,131.60564
1.5004421,134.64253
1.4582945,133.54187
1.3597667,136.90186
1.4213156,135.49277
1.3808916,131.962
1.425293,133.66519
1.3341385,132.95757
1.3440831,130.22862
1.3409193,130.37175
1.1950377,126.692665
1.2672641,128.8888
1.1540511,123.89941
1.2517354,122.87619
1.1410304,125.143524
0.94697225,119.050354
0.9441561,119.70487
1.0389748,118.105415
1.0380466,115.64933
1.0099425,113.176285
1.0086479,111.48149
0.9345669,111.079216
0.9965729,109.99141
0.88903165,110.34265
0.7826315,103.68176
0.87089413,104.05448
0.9608647,99.772964
0.8736266,95.35952
1.059249,96.11564
0.91836107,96.15037
0.88406533,92.31109
0.76360095,91.65201
0.688693,90.69345
0.7951104,88.6393
0.6653069,86.1786
0.68870836,82.62756
0.7369559,82.97965
0.59175014,79.01623
0.60439795,81.50387
0.5563528,77.00829
0.38967648,72.93862
0.55437344,71.4198
0.376816,69.86965
0.32012504,70.00339
0.43640235,65.94406
0.35137144,62.386272
0.31639898,61.106884
0.32463133,61.441692
0.3486611,59.369835
0.3423465,58.662643
0.37516955,56.292492
0.2955875,54.483387
0.28643456,53.43459
0.2820975,49.74885
0.31014138,50.67437
0.34883595,47.306774
0.20164634,44.939476
0.29651803,41.99808
0.21159486,45.636517
0.08532561,43.884514
0.20395121,43.781994
0.103701994,42.837627
0.11082803,40.887016
0.042918768,43.18682
-0.006157802,46.37332
-0.14638774,43.51459
-0.087237,47.328617
-0.07670118,47.332523
0.015411602,46.602203
-0.0058848136,55.151775
-0.122271635,54.997746
0.004675395,53.533436
0.07286071,60.42249
-0.055216637,59.81146
0.22395116,68.33525
0.23759569,68.2783
0.25896713,73.14891
0.41106558,72.18796
0.45425993,76.80563
0.57950014,79.9736
0.6566941,84.925095
0.793102,92.238945
0.74790573,93.205505
0.9011718,97.64645
1.0929495,100.197815
1.1003388,101.34612
1.0770397,108.129234
1.12308,112.27978
1.172912,112.89825
1.2369965,114.32109
1.3354565,119.83933
1.2833433,119.39892
1.3618692,122.50069
1.4770507,125.777405
1.3379054,126.32138
1.4432838,128.09406
1.3363965,129.40573
1.3647586,128.66507
1.4319116,132.53256
1.4005446,133.2803
1.3932714,133.01456
1.4511124,133.34172
1.2273623,129.63417
1.2866954,134.37067
1.3269376,135.55731
1.2477994,132.64774
1.2778503,128.89735
1.2853271,128.69208
1.2796973,126.87452
1.2380005,130.05132
1.1597612,127.98709
1.1994598,124.55036
1.16033,120.22808
1.0440202,120.18633
1.0761731,119.25347
1.2094944,117.33583
0.91810805,116.04445
0.99967545,112.56026
1.0680419,112.71816
0.9925324,109.1742
1.07627,111.040794
0.9259978,106.41652
0.9838931,104.06739
1.0295981,104.08746
0.9980503,99.73076
0.9170576,97.479866
0.88441175,98.112625
0.9453433,96.92839
0.93819153,92.642944
0.8757422,90.590355
0.932823,85.21388
0.77266514,86.880264
0.75575995,87.54739
0.81863767,81.46402
0.7113592,79.55943
0.70116156,77.452965
0.65344274,76.079094
0.55360615,75.75603
0.5622431,74.206406
0.5985859,70.391815
0.56094474,69.27939
0.53887606,63.9442
0.57388914,65.70144
0.521292,63.620045
0.5318875,63.01566
0.5273652,60.72729
0.51076823,56.31914
0.44054967,58.890095
0.49065784,54.39025
0.47733873,56.92854
0.3889912,47.846935
0.4295096,47.446514
0.4909381,45.42718
0.39312252,43.523136
0.4826598,44.164326
0.42247602,44.28211
0.41859105,47.481438
0.45865706,46.034813
0.31452763,42.47076
0.35959932,44.568787
0.3097564,43.115734
0.21298586,46.379253
0.21879305,46.52454
0.16131997,50.6163
0.106407054,48.22616
0.17011558,50.35241
0.13011652,51.70861
0.19750522,52.509975
0.2094617,55.729073
0.20395285,56.811962
0.2913425,61.88977
0.404473,63.604942
0.47296864,62.743076
0.5600519,66.914246
0.54656357,70.43204
0.77593654,75.00695
0.7227214,80.17357
1.0124489,79.51314
0.978007,90.89465
0.98375577,91.23951
1.0908836,95.4689
1.2517569,96.731606
1.3738612,100.788376
1.3410956,105.119484
1.340197,109.92494
1.5127153,109.95597
1.595475,112.852554
1.542543,115.67522
1.6363387,121.39921
1.5858669,124.086945
1.565192,121.62597
1.7741827,128.40417
1.6451517,128.20198
1.6447881,131.55495
1.693071,131.71945
1.5993903,134.01598
1.6337996,133.43216
1.7484058,130.90091
1.5846658,131.7255
1.6403992,131.48828
1.7208208,134.64203
1.5786153,130.70175
1.6795014,130.63127
1.5253447,134.36974
1.5402174,132.25513
1.5984681,127.89515
1.4678162,130.25244
1.4723399,127.37759
1.5033573,123.84695
1.4101613,124.01982
1.3896701,118.25244
1.4867907,116.906876
1.3233422,120.65509
1.315466,114.66791
1.4160165,116.58801
1.4121467,114.01007
1.2980182,107.952
1.4574541,108.91647
1.3165094,109.02662
1.3847076,103.11233
1.3267648,100.67238
1.2996625,101.25754
1.3007482,99.77915
1.2553539,98.7832
1.2757703,93.29912
1.2611179,91.39389
1.2547288,90.90623
1.2501365,92.495834
1.1498122,87.00369
1.0822375,84.512245
1.1678275,82.70151
1.1268662,78.778694
1.0591202,80.56503
1.0486609,76.44942
0.8646091,75.04842
0.95680755,73.60435
0.9322751,71.09977
0.92417085,71.829765
0.9459221,66.13851
0.8714797,66.36716
0.81846553,61.886414
0.8326367,62.613876
0.8538318,60.153015
0.8868967,57.578876
0.89437956,57.339325
0.80986065,56.514183
0.8703709,53.173557
0.85951984,48.796864
0.9083956,51.435173
0.9059071,49.698982
0.8160711,48.2377
0.75519663,43.320316
0.77528965,43.84739
0.763448,50.246326
0.7277779,44.61357
0.7004645,43.370476
0.648178,44.426258
0.5666754,41.595264
0.53062075,42.876537
0.55833256,44.553543
0.41990846,42.699944
0.52762973,47.63517
0.5252787,50.301907
0.47059557,47.985912
0.5267397,52.03296
0.50210845,54.62204
0.6132857,57.07842
0.5956336,62.80827
0.77961403,62.027718
0.72926575,64.70986
0.8367348,69.63451
0.91348386,68.26599
1.0795969,75.94054
1.0980309,79.25726
1.1225688,83.305176
1.3283942,86.38073
1.2261451,92.13478
1.4254965,94.79245
1.4871893,94.749275
1.6594731,97.74903
1.6031489,106.49154
1.6835402,103.94634
1.8958259,108.186104
1.7550336,115.91821
1.8824514,116.46789
1.960312,119.80968
1.8534057,124.007965
1.9237565,123.38298
1.9432815,126.1043
1.8276973,127.001625
1.9670419,129.76909
2.031695,129.46858
2.0031233,130.18414
1.9978163,133.36847
1.9281094,129.5535
2.0460527,134.00896
1.8457861,134.69075
1.9817837,135.51318
1.945425,133.81314
1.9591286,131.8673
1.9331075,132.02522
1.7126771,128.31999
1.7721812,133.1907
1.81554,127.543724
1.8063774,127.24185
1.6745381,125.94025
1.6218637,122.92344
1.7562774,122.89584
1.6508616,121.0224
1.5513192,118.3061
1.6361123,119.343094
1.678132,116.09715
1.5220484,115.88925
1.5604126,110.94178
1.5180504,113.39286
1.485228,107.44058
1.4850172,105.840996
1.452644,102.89569
1.544637,102.169914
1.5698677,100.22443
1.5261955,96.242744
1.4620169,92.53648
1.3514994,92.28101
1.3999773,92.079414
1.3968651,90.87319
1.3106693,87.49824
1.4076269,88.30723
1.2653788,81.517944
1.2145786,81.65339
1.1792601,83.13015
1.1286882,76.34104
1.0720233,73.4163
1.1034162,73.88798
0.98263097,71.457016
0.9897395,71.03306
0.97481453,68.62249
0.93928325,64.314445
0.91311467,61.88013
0.9395504,60.340378
0.8096675,64.268555
0.92526317,58.529594
0.8851086,52.732643
0.8790459,55.18353
0.8419977,52.148403
0.97022045,52.961723
0.86520815,50.42952
0.86004394,52.352295
0.87670314,47.70002
0.90725064,47.573654
0.7893277,46.05724
0.7199457,45.89692
0.6467984,43.14176
0.708133,46.461246
0.6253325,42.54208
0.7111799,48.077404
0.6377507,40.62328
0.5708691,48.504196
0.61562026,49.360744
0.48539063,47.094006
0.50210756,49.055187
0.52159554,48.9843
0.5189071,49.267853
0.49885133,52.79312
0.41047037,56.73635
0.5943893,58.67378
0.56500167,58.80314
0.7160794,63.867386
0.6916199,66.55004
0.73839724,67.099266
0.9338752,71.326485
1.021745,75.83733
0.9971098,81.224335
1.1793607,85.51149
1.2664322,85.48103
1.4512876,88.592926
1.3896283,97.806595
1.4812329,98.94957
1.5358808,100.432686
1.5516772,104.359856
1.5908513,109.10111
1.6995261,110.820305
1.7420828,114.93317
1.7934859,115.63261
1.7318177,118.83101
1.8210931,121.15401
1.7971796,122.98493
1.8692441,124.539116
1.7503304,128.24542
1.8073528,131.46222
1.8443714,129.70251
1.8103354,128.78224
1.7994398,131.65291
1.7671074,134.4733
1.7784648,132.38696
1.7238706,131.88033
1.775626,134.31612
1.6288248,132.18205
1.6382388,132.67479
1.6342208,132.39227
1.6109134,133.2494
1.5853822,130.50833
1.5852109,130.8929
1.5373478,124.96816
1.5547525,123.80575
1.5162208,124.86923
1.4273446,121.14367
1.4150473,120.25098
1.3921242,122.37498
1.4194477,115.35024
1.3312402,114.56418
1.3265928,113.55073
1.2646363,109.07561
1.2902749,107.67813
1.2739733,106.41006
1.3301536,109.39003
1.277097,98.82766
1.2257974,98.102356
1.2639357,98.18478
1.2534704,96.87898
1.1715275,93.361595
1.0810721,91.55816
1.1150976,87.58987
1.0292943,89.119774
1.0769173,87.60713
1.0615113,81.523605
1.0455418,83.06693
0.8801407,80.53308
0.8673441,79.14723
0.9271918,75.85792
0.87057894,72.091934
0.857663,74.42826
0.79832137,68.72599
0.6550893,68.73265
0.64988536,68.500435
0.591837,62.84997
0.5721294,60.785942
0.6758202,61.48733
0.7622859,59.416706
0.63253754,55.48515
0.6754388,56.714848
0.51028097,54.36841
0.619722,53.448223
0.58517104,51.101242
0.4630901,50.40103
0.65297014,50.283394
0.4598964,48.603184
0.5092629,46.834927
0.5203353,43.09773
0.47421128,42.99542
0.41883877,40.98544
0.3034606,44.829903
0.2627897,43.826015
0.31022534,43.933186
0.23913719,44.406784
0.1819105,46.76763
0.19336264,44.307487
0.21302672,47.015366
0.17011537,47.192608
0.14748481,50.42202
0.19774374,51.81858
0.18535332,54.536896
0.16442946,62.016525
0.2648048,58.845646
0.3381616,62.599426
0.43851882,65.67858
0.43016952,71.25901
0.48412758,70.83042
0.6339965,76.275955
0.752598,78.00514
0.7437743,80.312454
0.87386304,82.5583
0.8411243,87.11374
0.9740531,93.70973
1.1595663,97.88414
1.2223057,97.351105
1.2456092,104.68394
1.3943716,105.4199
1.4196732,111.445015
1.3079492,114.477
1.3863455,118.77722
1.4429902,120.15339
1.6015044,122.92294
1.5754217,123.73832
1.3963126,127.40354
1.4946945,125.83507
1.4635985,132.37227
1.5694292,130.36662
1.5400836,130.61565
1.4077193,131.92267
1.4784133,132.78606
1.3309759,133.70016
1.500038,134.53989
1.3602594,131.31346
1.3592697,135.67056
1.4803553,129.3014
1.271816,136.8504
1.4403629,131.41878
1.3643508,128.27115
1.2107499,128.44774
1.2832804,129.06535
1.1933357,125.699066
1.1325061,124.404236
1.1081622,124.51572
1.063461,120.51026
1.0704584,119.268265
1.0933689,119.966835
1.0973383,113.41074
1.129445,112.3861
0.90103847,111.72614
0.93989503,109.33212
0.9389606,108.1322
0.9800037,108.76124
0.880687,104.49755
0.88505733,103.01418
0.91979647,99.67504
0.8509245,99.77418
0.8682961,95.384155
0.8514731,92.9661
0.7738305,91.923546
0.88364923,93.899826
0.69498223,88.57806
0.8085594,85.52989
0.6639407,85.86004
0.65524065,85.658615
0.5763216,78.41083
0.64460534,79.06574
0.5101009,78.430984
0.49633807,73.10595
0.4754219,71.771065
0.36592895,67.41803
0.3551767,68.549225
0.37764397,67.24066
0.44384933,61.950954
0.30959243,62.91146
0.3875182,57.95821
0.32284552,59.769535
0.359479,55.756363
0.41339093,54.168037
0.35366762,52.427483
0.23075058,50.764053
0.37342075,48.937286
0.41626826,50.737732
0.26210523,46.87002
0.35472125,49.15481
0.26208553,45.35978
0.25163144,41.306564
0.16099963,44.086826
0.117395476,42.152966
0.052525662,41.760674
0.11753599,43.681526
0.007558307,43.29215
0.0010628476,44.87513
-0.011865026,46.163467
-0.01340099,51.504475
-0.05033366,45.578033
-0.083032764,48.08661
-0.121907994,51.310024
0.043308344,55.45783
0.019973708,54.575623
-0.01932424,60.319668
0.09414906,62.900497
0.13315277,68.96115
0.18887822,67.53606
0.32788193,72.21373
0.54718006,75.33591
0.3139958,80.200714
0.5470454,80.75637
0.6065512,85.39844
0.6828424,87.46866
0.87976635,90.673195
0.8091754,94.04428
0.95299387,98.54589
1.0262363,102.03213
1.1309565,106.158195
1.1025978,107.87745
1.240783,116.64959
1.1601322,113.83558
1.280362,114.784225
1.2275767,119.66784
1.2518243,120.46385
1.3523488,123.73814
1.2888488,126.76547
1.3365802,127.85552
1.3509935,127.69387
1.3764497,128.02487
1.4507623,132.2313
1.327425,130.7631
1.451334,130.98209
1.3313617,134.19202
1.2303859,132.85544
1.32953,133.71265
1.3422554,135.06343
1.2466336,133.46524
1.2183282,129.76659
1.2413752,130.78685
1.2853694,127.5785
1.128958,125.96905
1.2008018,129.42001
1.1502203,127.689476
1.1908761,125.0595
1.0625092,121.142845
1.0939862,117.28772
0.9216222,116.75753
1.0678133,117.746925
0.9948701,114.0838
0.94266915,112.98349
0.93805766,110.34795
0.9736919,108.235405
0.92643356,105.105896
0.93083483,101.30235
0.96334904,103.1787
0.982426,98.81941
0.8911702,97.36741
0.9166537,96.546005
0.8951763,93.490715
0.8195399,91.02646
0.77860355,88.66478
0.8973038,90.267555
0.8408356,84.0293
0.76406664,85.19617
0.66247857,81.597435
0.648405,82.45611
0.64216703,77.94317
0.57977396,76.57465
0.50320214,73.870926
0.6190632,75.89986
0.51902866,66.565796
0.3956852,67.662704
0.53554255,64.522
0.42158973,60.54564
0.44781092,64.36863
0.45552567,58.11234
0.4185302,59.47632
0.45792475,58.26855
0.44575623,53.34459
0.45143366,55.23566
0.4318062,51.582485
0.48120645,50.088333
0.44312787,51.08005
0.37932006,47.608322
0.3345361,46.446796
0.42962942,43.616283
0.43781564,45.196007
0.32690823,42.018402
0.2772723,43.837463
0.32692122,44.716866
0.16824558,44.547115
0.23954529,44.10773
0.12799639,45.860516
0.18681106,44.41243
0.16166282,43.59841
0.21365468,46.727974
0.123303615,46.42652
0.11423649,50.076866
0.16062447,51.82592
0.10837415,55.94254
0.30301237,58.46673
0.22754061,58.96601
0.3156555,62.646095
0.37191862,66.85727
0.48785603,71.45433
0.563714,70.00191
0.63004494,75.870926
0.7955558,79.54384
0.85247487,83.50037
0.8719121,87.48712
1.0415192,91.883
1.0381907,92.84921
1.1707275,96.24657
1.2458274,103.47073
1.228427,104.44338
1.3773707,110.24907
1.4604485,109.967514
1.4809632,115.16279
1.6198698,118.92899
1.552162,122.29457
1.5777093,122.05249
1.7246425,122.0043
1.6115383,126.73587
1.6871021,128.1666
1.6964442,127.482994
1.6959955,132.27184
1.5951018,133.8523
1.6542073,132.4521
1.5344565,134.23465
1.688451,135.26715
1.6603723,131.35092
1.591351,130.2287
1.6822507,132.9368
1.4776102,133.43828
1.4935179,133.29327
1.5255212,132.34018
1.5568142,126.397026
1.4894791,128.77924
1.4280164,123.76041
1.4552387,122.7055
1.4426855,120.84096
1.3987335,122.89584
1.4135078,120.17817
1.3010283,117.8395
1.3117839,115.51121
1.3248315,117.09818
1.3177886,111.84347
1.2914416,107.661224
1.1635232,107.49687
1.3106108,109.166374
1.2916394,104.530495
1.3062531,101.62497
1.25207,100.577126
1.3049227,99.47124
1.1612835,96.97232
1.1679511,94.76396
1.1587894,93.0485
1.1862191,93.904335
1.1796057,90.2391
1.1602049,88.6267
1.0751411,88.33414
1.0251018,81.64855
0.86023253,82.17375
0.9879423,80.1537
0.8475804,77.25179
0.84673256,73.7916
0.75194263,74.1006
0.81432194,70.829094
0.8067377,68.62048
0.86405283,66.0553
0.7737925,66.395546
0.6579766,62.0142
0.79881334,62.584785
0.8206471,57.01332
0.8503756,57.41946
0.73828375,55.97295
0.7486842,53.991066
0.7796266,52.443047
0.7836384,50.17829
0.7436587,47.29243
0.7998162,49.79585
0.69860494,47.999714
0.6357612,45.736675
0.71694,46.4306
0.6808157,48.54538
0.7122724,40.575726
0.7196246,42.689472
0.6906808,43.6364
0.50400573,43.70541
0.46287966,45.988647
0.6071894,44.351162
0.33703825,47.386772
0.47408,48.10327
0.5803105,50.4953
0.4607431,46.310257
0.5196936,50.051632
0.47843343,53.598316
0.5495025,53.465385
0.62820005,59.993168
0.70561075,60.105106
0.73989105,65.49044
0.76409835,67.16653
0.8064483,72.51657
1.0341738,72.724396
1.0761868,78.61545
1.1002148,78.10525
1.1519922,84.93177
1.2378628,89.18274
1.32776,95.963524
1.4977078,96.65514
1.5669008,96.50646
1.7042274,104.713165
1.6116056,102.75718
1.7689121,112.043884
1.8056456,110.534485
1.8054245,116.14703
1.7698584,116.17424
1.8308642,123.73242
1.934485,121.2862
1.8951417,124.65353
1.8903568,129.06488
1.8488251,128.31474
2.058563,130.79884
1.9502602,134.17986
1.9535509,130.20212
1.9256456,132.57993
1.8148756,131.43456
1.899376,131.17686
1.9557728,130.0621
1.9000645,131.41702
1.9011676,129.69711
1.8594888,131.17506
1.7885141,126.86217
1.8046544,130.68185
1.76419,129.77357
1.6811938,124.665215
1.7456369,125.113625
1.6954083,124.706215
1.6741953,123.72565
1.7349886,125.24307
1.6258092,118.129906
1.5418783,117.63324
1.589339,112.6818
1.4772918,110.51299
1.4505217,109.95854
1.5247457,111.23621
1.5203924,105.67336
1.450968,109.24914
1.435147,102.85394
1.3963839,99.611374
1.3746213,100.929535
1.4666891,97.694756
1.4897034,96.7901
1.4210528,97.43541
1.4335612,92.91971
1.365715,90.13124
1.3757038,84.8138
1.3302342,89.155624
1.1976371,85.08543
1.2859302,85.95089
1.164214,80.55927
1.1228132,80.11061
1.1166592,74.26073
1.0190666,74.37213
1.0780407,73.72661
0.964612,71.668976
1.0590527,66.06084
0.9708583,65.06605
0.9756829,64.5197
0.9196345,63.711246
0.9377281,61.299866
0.9691727,56.31553
0.949608,54.220932
0.93484336,57.035
0.78638875,52.810917
0.8465768,49.672512
0.8816383,49.3874
0.80272573,50.342606
0.8056443,48.21809
0.854662,41.996243
0.8504412,47.15595
0.8220813,51.550777
0.7844775,44.765026
0.85172087,42.41418
0.7338731,42.207966
0.7453913,42.401894
0.58820397,47.319225
0.54829335,47.950817
0.5129216,48.969357
0.5002324,47.56732
0.507712,47.670033
0.53275245,46.661396
0.6542094,48.55608
0.48657423,53.342613
0.59502393,56.328228
0.5987486,57.30245
0.5694986,64.403244
0.6671699,64.76383
0.74470645,65.61011
0.8115386,68.70306
1.0007006,73.757935
1.0392635,77.69968
1.1354074,78.30943
1.2631558,81.106895
1.3283943,89.39085
1.4569056,91.05911
1.3882682,94.847305
1.4675157,96.288536
1.4531704,104.590126
1.5835336,103.39742
1.5510135,109.46672
1.7636092,112.29313
1.7719262,113.96968
1.7384685,117.56653
1.788336,117.75923
1.8595481,121.49043
1.7936184,125.34775
1.9330987,128.02525
1.8176112,126.865
1.8400689,128.40639
1.8182161,129.1086
1.8009356,133.02782
1.8229622,131.9856
1.8685786,133.83676
1.7855412,135.80705
1.8265694,133.77278
1.791581,137.80255
1.8444784,133.47318
1.6747988,132.27156
1.7230341,135.41864
1.61121,131.84357
1.6707782,128.352
1.6515368,125.09164
1.5844067,126.59764
1.5292011,125.44413
1.5297219,125.72501
1.4477198,122.522316
1.4488053,121.709694
1.3863952,118.529205
1.3356677,117.48189
1.3692325,114.59983
1.4064251,113.67623
1.3294728,112.31322
1.1773537,106.0408
1.3147408,108.591324
1.4091575,103.396164
1.2493496,101.01375
1.3037761,101.21307
1.2464038,95.99905
1.2687229,98.03932
1.2841381,95.10686
1.2466455,92.79286
1.2042382,89.02705
1.0747831,87.66376
1.2049323,87.06403
0.9624472,84.76776
1.0884175,84.96988
1.0704472,81.96596
0.9967295,78.56221
0.86334765,74.9126
0.81965923,75.92628
0.8470345,73.378105
0.75281924,71.87944
0.7903288,69.694244
0.7308085,66.33537
0.5814481,63.447163
0.65406054,61.320305
0.61042297,58.00446
0.65944105,56.332176
0.6862501,60.096294
0.76612985,57.203205
0.61064595,51.97947
0.6736478,51.835293
0.6790972,50.13082
0.75159687,52.635845
0.54917765,47.33247
0.550924,43.247696
0.5468579,48.05676
0.6696428,42.809574
0.548139,46.63839
0.4246091,43.13523
0.45930088,41.832386
0.4610847,40.183075
0.46723288,45.346897
0.36788845,50.218914
0.23499069,48.503254
0.26666486,45.088024
0.2119246,43.83251
0.18774746,47.942646
0.27111256,49.03651
0.13986449,52.06495
0.28828564,53.149628
0.27862847,55.668816
0.3559098,60.689014
0.30234474,64.60538
0.44144776,65.69931
0.49877307,68.3724
0.53871274,68.63423
0.72624546,77.35977
0.7418909,81.626396
0.8390214,82.907875
0.9653277,83.67487
0.80385023,88.6829
1.1036987,94.884895
1.1919811,95.192314
1.1819816,100.03191
1.2788048,103.29772
1.3515557,106.87956
1.4138985,112.848495
1.2915404,114.1678
1.48565,114.030205
1.3659114,117.86385
1.4054825,118.3093
1.5111806,125.12409
1.5431156,124.48808
1.4747622,128.7716
1.577216,129.30641
1.4816475,133.64125
1.5524466,130.60976
1.5742135,132.69592
1.4900821,127.98428
1.4917791,133.56648
1.5833107,131.45251
1.4320663,134.11761
1.3822063,135.58272
1.3634052,129.8483
1.4501258,131.2313
1.2643739,133.26175
1.2641125,129.92303
1.300511,128.65497
1.1340324,126.50332
1.2137886,126.52751
1.2423906,124.49735
1.0781102,123.03731
1.0911707,118.0074
1.1394585,117.40848
1.1396863,120.35832
1.0187032,117.05943
1.0071926,111.25974
0.96394795,112.59578
1.0259658,107.74676
0.9794885,105.05158
0.9316237,101.74579
0.8861243,104.78252
0.9413901,100.703316
0.93768716,97.85167
0.83750755,95.772995
0.94583803,92.21703
0.8812024,91.29657
0.8291448,93.37427
0.9245299,88.200066
0.7284034,90.098755
0.83870834,84.28082
0.7215712,84.15384
0.8599286,81.72662
0.7205052,80.10385
0.5222244,75.115456
0.63541985,75.19583
0.5269094,74.93835
0.44588822,70.06497
0.5418019,68.911964
0.44502768,69.16131
0.3609601,65.009544
0.29966488,62.830296
0.38689107,63.952312
0.34872237,59.78644
0.2252005,59.174057
0.29003158,57.675472
0.37986866,53.13966
0.29516754,52.046795
0.4618314,51.894928
0.4036579,47.651806
0.25947347,47.42976
0.3292612,51.422764
0.33542305,46.498615
0.22261779,46.82693
0.2929269,45.908264
0.22810048,42.09603
0.17919624,42.04272
0.1318097,42.25406
0.008947939,43.959297
0.049046632,42.816452
-0.0043697674,48.188385
-0.01912383,44.41483
-0.048705503,50.25297
-0.04823894,49.55273
-0.03989673,51.247032
-0.06879731,51.595985
0.03536282,51.931965
-0.04366245,54.405617
0.028005894,61.000706
0.06660301,63.165337
0.29257277,63.691677
0.21578892,67.55874
0.2793442,70.5597
0.27985123,74.88379
0.40940887,78.44879
0.6090771,78.45361
0.57852226,84.452095
0.64140266,85.92375
0.7390687,90.310524
0.83585924,95.61792
0.9828347,99.40789
1.0694503,102.17734
1.122837,107.58303
1.1594193,112.42517
1.1407098,111.56827
1.2082561,116.66929
1.2673132,118.67389
1.3298011,119.09492
1.3061467,123.83014
1.3813262,126.84492
1.2830628,125.15826
1.3139918,129.23723
1.2948639,130.40433
1.3341242,131.38918
1.5237141,127.77762
1.389594,132.27797
1.3446144,136.2313
1.3946205,135.00835
1.2735864,134.75412
1.3115479,130.55748
1.2515705,132.8322
1.3453265,133.39436
1.3529664,132.03554
1.1919209,131.12485
1.1539083,129.77388
1.2379481,128.84605
1.1741151,126.40404
1.0879375,128.34576
1.0198635,123.9438
1.0463176,119.87077
1.066978,119.68307
1.0863453,118.16887
1.00641,114.995316
0.969947,113.964386
1.0207106,113.29888
0.8829667,108.383514
0.92704296,107.05524
0.9792082,109.138794
1.0172172,102.39863
0.9593596,100.19514
0.80953825,100.11753
1.0330431,97.86024
0.7417913,95.8419
0.8561976,92.880455
0.8873638,95.35404
0.7684486,91.16667
0.7141975,88.793564
0.7126549,89.96216
0.6747187,84.78821
0.6822643,83.24595
0.634015,77.86145
0.513496,80.50531
0.6014684,73.945816
0.5159971,75.00317
0.50866485,72.829216
0.47094882,68.822876
0.44109732,65.46101
0.36796573,68.73283
0.41293526,65.54455
0.42657152,63.757694
0.35630915,59.760105
0.40477237,59.07152
0.44698408,59.527203
0.41882235,54.77789
0.39649498,53.988228
0.39065847,53.254787
0.43142647,49.454243
0.4343374,45.25485
0.4374161,47.3438
0.36922994,45.90683
0.39503953,43.858902
0.30982456,43.28892
0.3648297,47.05915
0.31792894,43.9428
0.1836529,47.94055
0.1660141,41.309006
0.10694458,46.342113
0.15706518,42.863304
0.18676458,47.64044
0.031974513,45.260876
-0.027002577,49.87092
-0.07111713,51.394363
0.13797104,53.432087
0.15328376,54.147163
0.108550996,55.19359
0.17588674,59.04749
0.2342479,59.28861
0.30239892,59.596554
0.4039324,65.52809
0.35191458,67.930595
0.55479616,70.58192
0.60025716,77.743324
0.7308816,80.50965
0.8388502,82.7827
0.91091067,87.43213
1.1133521,90.81558
1.0541036,94.83703
1.0345913,96.51412
1.1883231,100.73541
1.21254,103.96525
1.3779014,110.897285
1.4264663,109.500626
1.3621243,113.767044
1.3761181,115.60592
1.5066644,124.18075
1.4844662,118.69934
1.4511641,123.57924
1.5725532,124.202644
1.5316528,128.65794
1.5386434,127.867065
1.6517084,132.41122
1.5794289,131.5409
1.6618669,129.57166
1.6190803,136.01038
1.6630874,132.41084
1.5889584,136.40709
1.4658723,133.84291
1.4945593,133.395
1.5967257,132.8496
1.4564464,130.95634
1.4290549,133.13704
1.534926,130.00856
1.360394,127.84468
1.388822,128.55785
1.3230422,124.65372
1.3047527,123.4439
1.4162582,122.595985
1.3529365,121.92207
1.3211101,114.60382
1.296556,118.69244
1.325283,112.65998
1.230617,109.21
1.341012,109.105934
1.1775625,109.40405
1.3023249,108.059616
1.2890402,101.896454
1.3696827,105.59844
1.2005988,97.12619
1.2496467,100.390564
1.2750707,95.79911
1.1287434,92.91369
1.2144601,93.82223
1.0957587,90.14772
1.0816867,92.50165
1.0618289,89.47725
1.0613685,81.81432
1.0758353,81.88134
0.97439176,81.71089
0.886314,81.75358
0.86794704,78.7997
1.018919,71.460236
1.0005436,71.782036
0.80351967,70.0052
0.88703424,68.96574
0.7160647,67.03133
0.7730488,64.2841
0.66494817,66.35826
0.7705541,62.31733
0.7208529,57.784653
0.9312265,60.59924
0.70341,54.646687
0.6575182,51.585503
0.77651155,51.59654
0.6928034,53.403137
0.73061657,49.03116
0.75684804,46.7901
0.88240314,46.542034
0.57055503,43.383396
0.77979547,44.820477
0.64604974,40.0
0.6449179,43.765656
0.5918358,42.84499
0.6822838,45.94658
0.5212215,45.531536
0.5062833,44.36826
0.46318975,44.57201
0.42161563,45.628426
0.5206639,44.41036
0.48395804,49.10083
0.5183167,49.485664
0.50953037,54.06743
0.57627696,52.63632
0.5428691,57.327892
0.57101125,60.238556
0.67581743,61.21262
0.743339,63.429077
0.7502187,69.15667
0.7890635,69.33825
0.8949129,71.37124
1.0806136,80.97706
1.1630929,80.97289
1.2070117,83.411476
1.3328375,87.70677
1.4071568,92.20066
1.4898993,91.68608
1.525015,99.591736
1.5741446,105.69808
1.6751267,106.55499
1.7110378,107.51563
1.7809396,110.89816
1.6730665,116.97904
1.8338017,117.82176
1.9410648,121.192314
1.847537,122.76203
1.873782,124.06927
1.8882735,128.6805
1.9695162,130.48653
2.0428743,130.91154
1.933779,127.07709
1.941277,131.50179
1.9589814,134.23224
1.924008,134.7234
1.9402907,133.4638
1.8840991,135.92052
1.9026546,130.5783
1.8464586,134.07333
1.8055577,130.84412
1.7251972,133.55336
1.8492471,132.22325
1.8136072,125.907104
1.6980323,128.26381
1.684645,126.50125
1.6719424,124.273155
1.7079628,125.56375
1.6330187,125.17567
1.6616249,119.15136
1.5127501,116.586845
1.5598716,114.725464
1.500534,114.55696
1.5649766,114.60682
1.518095,108.50003
1.5485919,109.250084
1.5083029,105.41903
1.4960625,104.68024
1.5251055,100.42067
1.4564948,98.74507
1.4728824,97.35907
1.3569423,97.959496
1.5419233,94.71021
1.3393021,90.07901
1.3061126,90.37983
1.3840837,88.4056
1.2534829,85.26167
1.281118,82.87891
1.1187695,82.88274
1.2437043,77.154
1.1168401,77.92716
1.1532463,75.037125
1.1723304,75.83217
0.9565853,69.69491
0.9917068,73.81997
0.90163827,67.26544
0.99253374,66.12319
0.94014186,64.55099
0.981053,64.46587
0.8812524,61.96624
0.9349155,59.627388
0.8758746,57.82606
0.91011167,55.714375
0.93133605,50.50805
0.9563845,49.98888
0.9591898,52.249718
0.79008365,47.410774
0.87070733,47.595238
0.8662845,44.14102
0.87379265,49.142204
0.8839663,44.213055
0.8126049,44.75312
0.8276161,44.33996
0.6729354,43.6849
0.65561026,42.87097
0.6361947,44.17215
0.68000287,41.525677
0.61535704,43.0312
0.5591319,43.169167
0.550284,45.26251
0.42213017,49.325176
0.59102595,54.181946
0.5598222,53.80677
0.6743331,56.08325
0.592525,56.518734
0.57459617,59.1049
0.83278304,62.48813
0.73196864,69.833855
0.8591373,72.45002
0.9651278,74.452515
0.96780664,76.93042
1.0526233,79.89782
1.1362504,85.173706
1.2724975,88.518654
1.398132,92.14851
1.3657212,91.857895
1.5205374,97.33049
1.625478,100.33466
1.6771376,105.39993
1.7320995,108.76874
1.7032741,112.40891
1.7289945,112.92876
1.8117203,118.010254
1.8830104,119.392624
1.911156,121.8792
1.9344717,124.1215
1.9350194,129.059
1.9342839,127.02549
1.9226431,131.90012
1.8916287,131.59892
1.9847778,130.15636
1.8826705,132.74544
1.8401588,134.75548
1.7658377,133.11102
1.8329209,133.54395
1.8435321,133.51027
1.8451221,130.29369
1.7575148,132.25806
1.6681645,130.3944
1.6887289,129.30682
1.6766375,126.20649
1.6860741,127.62875
1.6374207,127.93473
1.5945026,122.53433
1.5758966,123.38295
1.4777726,118.50752
1.4746733,121.20813
1.4979041,115.96949
1.4914675,118.14263
1.406841,114.84617
1.4838401,109.55097
1.4947026,110.251045
1.3202564,104.72602
1.241349,106.47579
1.2996318,103.41981
1.3056829,100.70479
1.352666,98.59767
1.4004165,100.328
1.283909,93.0826
1.1945491,93.55387
1.2034541,95.011856
1.1450123,91.149864
1.2502215,87.50671
1.1866608,83.00716
1.1071885,85.74352
1.0996115,83.195656
0.93847823,81.51051
0.96321845,80.5631
0.8735284,77.51989
0.8185517,75.0756
0.7276405,69.000206
0.8304759,74.45094
0.7722911,70.16352
0.7947433,61.68236
0.86658555,64.95028
0.7068368,64.11575
0.7633153,65.76496
0.7448623,57.38618
0.6470571,56.135883
0.6613831,57.202232
0.7144709,50.015713
0.6591591,53.287357
0.6501358,54.914238
0.79071116,48.219036
0.7052532,46.008755
0.66967076,47.430084
0.5731365,45.507263
0.5756901,44.668915
0.58475876,42.16981
0.5448925,44.98582
0.5458285,43.937122
0.44524562,43.72024
0.3882057,43.92172
0.3635783,43.50531
0.43612882,45.777065
0.2331828,47.025875
0.29424646,45.398983
0.23546046,50.0022
0.22339036,49.490982
0.14490917,53.106804
0.26564535,53.445377
0.38848063,58.298283
0.38132563,61.971825
0.45208633,64.26831
0.49230784,64.46817
0.5342565,70.439064
0.54698855,72.549644
0.6958535,74.2981
0.669979,82.0235
0.6795577,84.71845
0.9669213,84.12595
1.0662601,90.24116
1.1294433,93.549706
1.1680816,97.25857
1.3445803,97.441376
1.3265418,103.07612
1.3227671,107.95043
1.5184847,110.60616
1.4817002,112.230255
1.4630471,114.31638
1.4664052,118.22911
1.4870892,122.587265
1.4292705,123.4423
1.531453,122.431206
1.6035507,127.85748
1.4986451,130.44786
1.614247,134.19429
1.5192846,131.39932
1.5567696,134.75558
1.5433451,132.56514
1.519363,135.66197
1.5898695,136.94461
1.5532421,133.13878
1.4766924,130.68732
1.5175147,132.2459
1.5058345,132.74261
1.3590955,131.67155
1.2907888,130.57176
1.4467975,128.24132
1.26693,128.12988
1.2609087,123.96624
1.2829288,124.45214
1.2021466,122.68634
1.1842849,122.33404
1.1309617,121.18645
1.1350672,118.63081
1.1624864,116.38596
1.129903,114.829506
1.0630318,112.05203
1.0332843,108.97797
1.064064,106.45032
1.0726854,110.42053
1.0105453,101.683014
1.06255,101.34196
0.98035175,98.23268
0.8755093,98.40554
1.0278159,96.46472
0.9816796,92.30254
0.8378463,89.809525
0.8914676,89.33277
0.75701535,90.13795
0.6653417,87.688995
0.8488602,81.49097
0.7273684,80.57156
0.5553314,77.95623
0.6375078,77.37896
0.62158215,77.46445
0.59204507,72.9881
0.50572217,69.73378
0.5289182,69.59233
0.4369673,68.01153
0.42155206,68.8655
0.36249134,63.06819
0.3879749,62.144733
0.40130958,61.67543
0.40320924,59.170654
0.47150347,54.118294
0.34367377,54.97854
0.41030803,50.06012
0.41098785,49.23929
0.3624453,47.923443
0.31154177,51.139046
0.27895692,47.96651
0.21020727,46.588696
0.18799174,50.66513
0.25249085,43.630363
0.24204019,40.0
0.2068538,40.73667
0.02393698,43.03241
0.062636115,44.795666
-0.01743622,43.48242
0.042420823,46.286827
-0.13869746,46.775597
0.03435926,48.496025
0.10899644,48.869747
-0.026440244,51.982178
-0.039951395,51.631023
0.07451271,52.963257
0.058905452,58.913578
0.05137158,58.51881
0.12404715,56.790043
0.31061593,64.3142
0.29117674,63.321167
0.22109021,71.08548
0.3335544,77.770096
0.46924192,77.991806
0.5215036,78.58235
0.7146047,83.89119
0.8554229,90.61339
0.76809084,92.304184
0.96325135,95.9
1.0004699,100.42998
0.95738477,103.77346
1.082157,107.51907
1.1883832,108.585884
1.2273339,112.97342
1.2102766,117.677315
1.231043,115.062164
1.2339817,121.72263
1.3953788,124.63123
1.300822,124.76699
1.4201965,130.65976
1.3229823,127.15602
1.2904024,129.4062
1.287714,131.4702
1.3658272,133.3491
1.4016495,133.15826
1.2877029,134.9731
1.4162341,132.29173
1.3546118,133.9929
1.3086336,134.12967
1.3584943,134.82005
1.262173,131.35414
1.1778893,131.75873
1.251339,131.09648
1.1935825,127.91251
1.0346557,125.2969
1.1255507,128.1659
1.1507666,122.40798
1.1114492,123.133575
1.0487455,118.72701
0.9686015,116.95304
0.97547907,117.61821
0.8893948,117.09202
0.87939614,112.80188
1.0095974,110.13984
0.93625164,111.83728
0.93480927,107.779564
0.9230796,104.683685
0.8884652,104.19358
0.9027683,103.84792
0.79282343,98.63424
0.90227777,97.131516
0.83980536,95.86953
0.8847727,93.35837
0.76946676,92.2075
0.80067277,85.3457
0.766513,86.95235
0.7627135,84.17593
0.69081783,82.587105
0.6202096,83.915344
0.546476,81.2564
0.5275613,82.80655
0.5462788,73.9731
0.6281867,77.64085
0.39090496,70.87737
0.46124947,70.515076
0.3416615,67.63337
0.35228044,66.71963
0.2819424,67.40278
0.3915084,63.236565
0.3557602,61.76005
0.32422727,58.161583
0.34978354,57.758034
0.38364512,55.32523
0.38411516,50.73748
0.405221,55.34636
0.42817858,49.81462
0.31611264,50.41639
0.2864824,46.219276
0.3198364,47.48518
0.26920176,45.792313
0.27262014,44.64649
0.29180118,45.14415
0.14331079,42.645817
0.14524975,45.657692
0.33391324,43.208843
0.14628911,45.17184
0.20118442,42.451588
-0.011352332,44.42031
0.092954405,44.73715
0.071870945,48.762856
0.113481596,52.10125
0.0042161704,50.409657
0.07986494,53.902397
0.16878584,53.755116
0.1343382,56.285847
0.20676985,60.91864
0.20173755,63.47376
0.27480173,64.50086
0.32255027,72.73139
0.5060619,73.1886
0.5261844,77.21251
0.65951216,81.4507
0.7353661,82.3808
0.75418186,82.50818
0.912011,90.032936
1.0330446,93.4633
1.1084679,93.99643
1.137958,102.51255
1.3139178,106.35534
1.2053543,107.997
1.2983102,110.584984
1.2576842,114.36018
1.3898427,118.13412
1.49191,120.00968
1.4957447,119.716095
1.492717,124.82075
1.5199785,124.6896
1.5396775,125.367615
1.5710613,129.89766
1.556027,130.62221
1.5149891,134.58824
1.4708587,132.30154
1.5500141,130.70978
1.5967416,134.7983
1.5591973,137.7721
1.459104,133.89822
1.5159366,134.00737
1.5135957,132.71552
1.3777221,132.2506
1.3257731,130.14156
1.4532838,131.32533
1.3068637,128.13882
1.4006894,126.17421
1.3780475,126.56428
1.3583437,125.06165
1.3387271,124.410194
1.2192165,122.74641
1.1361692,120.08671
1.1452864,118.355225
1.2485723,112.23421
1.2016157,114.198364
1.2847141,108.81413
1.1347979,109.59534
1.25378,106.37411
1.1234207,105.24197
1.1964104,100.891556
1.188567,98.494896
1.179544,98.767624
1.0998687,97.18965
1.0582094,96.73978
1.0512416,93.771675
1.081522,92.413765
1.1320869,91.429596
1.1038024,87.88773
1.1420621,85.41136
0.97119045,85.83804
0.92627454,79.28561
0.9522265,80.040375
0.7997984,75.8361
0.82932067,74.57354
0.82939106,72.14147
0.7656517,71.250465
0.79984456,68.259415
0.69015855,68.23589
0.71811527,65.3698
0.6644373,61.226704
0.73812866,58.789635
0.7394992,59.73299
0.7244971,57.060135
0.6950758,52.33949
0.6668549,53.52675
0.6792518,54.716015
0.68807155,50.761734
0.81996447,51.31185
0.7840936,47.336857
0.65978557,48.48797
0.66094786,45.97965
0.7704744,45.664143
0.6093773,44.301914
0.50566274,43.146347
0.50031036,42.86789
0.46266767,43.670902
0.47548473,44.929886
0.51782024,49.306694
0.41328484,42.061653
0.46970928,46.68729
0.3886926,49.423695
0.3882655,49.368633
0.3712678,50.060165
0.39690453,53.84601
0.42686552,52.567806
0.4462082,55.664467
0.44973722,56.354195
0.53409225,61.49174
0.5945917,66.3857
0.70681447,69.02325
0.840866,69.23585
0.78322464,75.66955
1.0554404,79.12195
1.1664885,83.602135
1.0955291,85.166565
1.1433547,89.21186
1.2588919,93.85122
1.4033688,94.42907
1.3992174,100.51249
1.475862,102.65408
1.7380296,104.30973
1.7050809,109.1892
1.7492185,112.205246
1.6380173,115.37469
1.8106548,116.79214
1.8608744,121.47539
1.8621111,124.890434
1.9217727,128.17067
1.9133123,126.41997
1.806097,125.9147
1.9024303,130.15718
1.8013363,129.24164
1.9026849,132.08856
1.9279461,132.11801
1.8692055,133.86621
1.7947019,132.71678
1.8630725,130.46188
1.8185878,133.09653
1.8307431,130.12086
1.7638171,132.97758
1.7226641,130.32903
1.7222644,126.265816
1.6653146,129.05754
1.6990818,123.244545
1.6613925,127.96641
1.6421854,125.60648
1.5993652,123.19012
1.6060511,118.886566
1.470648,121.85163
1.5532516,120.41523
1.5447916,116.21354
1.5519856,115.59806
1.3809012,111.0121
1.4506744,105.080986
1.4289211,107.336174
1.5189203,106.41493
1.476105,101.63959
1.4759295,101.218445
1.4412624,100.52216
1.3656006,97.47579
1.3646111,94.99097
1.3697088,94.87595
1.2839447,92.32986
1.3724122,90.51826
1.2982926,86.81825
1.2969723,87.60919
1.3354793,86.72197
1.2232413,82.06661
1.2250346,82.70362
1.1729276,77.0069
1.0277053,75.780945
1.0694131,72.907074
0.9622563,72.04934
1.0224615,69.43306
1.0006809,73.28053
0.95036054,68.15078
0.92213255,63.914722
1.0267031,64.56568
0.82627517,61.285854
0.84055597,58.576477
1.008028,56.05147
0.8572935,51.808216
0.8957364,52.89324
1.0337899,52.18315
0.94036824,50.1833
0.84209406,52.846386
0.84661967,46.951984
0.89071244,45.35934
0.8833581,45.59428
0.8300401,46.22279
0.6926999,47.275677
0.6516653,45.900784
0.60425925,44.312477
0.6480411,40.0
0.694334,44.15013
0.6005951,45.79045
0.6144537,45.520542
0.54961157,46.274693
0.4605578,48.480206
0.49971965,49.078808
0.5087268,47.838387
0.6047278,55.808506
0.60950655,57.32842
0.6656533,54.839592
0.75935394,61.902546
0.7650445,67.13459
0.8162024,65.07509
0.85650325,71.77378
0.920793,74.4828
0.9186458,77.999
1.1028411,82.03831
1.1984233,85.28362
1.2173227,85.421715
1.3235923,92.29414
1.3827629,93.407936
1.4960315,98.8415
1.5815899,100.27991
1.6988184,103.50641
1.7971894,105.00143
1.7448374,114.753876
1.7790945,115.53302
1.8440413,119.353905
1.8168349,121.19265
1.8725958,122.62825
1.928998,123.298454
1.8868086,125.623695
1.9315172,127.933945
1.8989223,129.64935
1.9270976,131.50706
1.9642274,129.48744
1.9111167,134.35522
2.050377,130.53194
1.9771502,132.00116
1.925169,132.45187
1.8630162,131.41154
1.7607938,136.4548
1.9395326,132.57236
1.7015874,131.87816
1.7653481,128.3866
1.6997385,129.9325
1.6977407,131.44524
1.6024874,127.24851
1.4414922,126.21073
1.5899125,123.79316
1.5651157,123.02053
1.5378662,120.42121
1.4495533,119.569176
1.3933345,116.38625
1.609972,112.98082
1.452288,113.03093
1.5252823,107.34796
1.4233545,111.12381
1.4768827,108.15903
1.5142553,106.3942
1.3527578,99.39065
1.3817135,101.56363
1.337744,100.079155
1.3847151,96.84538
1.4255389,97.06398
1.2302464,94.10011
1.2447293,93.22357
1.2439747,87.841446
1.2345929,87.11988
1.1843363,84.20027
1.2550768,83.761925
1.1783136,82.53688
1.1012064,76.55767
0.9116845,80.11656
1.0406744,76.99497
0.87022996,76.88787
0.9174419,71.02244
0.8942592,68.491
0.81806165,65.401276
0.8263762,65.96655
0.79422265,65.000786
0.77438545,61.79461
0.66913074,57.536755
0.8063534,57.517937
0.7688053,55.017418
0.74525625,53.737106
0.7816006,54.16958
0.84617907,47.264206
0.76570606,47.69489
0.6982511,50.71896
0.7137672,46.64686
0.6526142,44.966213
0.7137828,43.958588
0.6549083,42.166027
0.5414433,47.280655
0.5530507,46.22443
0.5239654,43.833256
0.39289215,43.540012
0.46912166,46.111526
0.38961327,40.92498
0.38171855,45.12503
0.2540361,47.23823
0.21408476,54.34753
0.418041,51.099236
0.35848582,51.4235
0.44992727,56.914936
0.3549,56.696255
0.45437825,59.786232
0.41114867,64.74878
0.54232824,69.553894
0.72309333,68.269394
0.6975158,74.844086
0.7354965,72.53247
0.8503605,80.215034
0.91506416,81.12806
1.0930418,81.86475
1.1489669,89.07336
1.1265458,94.00235
1.2256405,100.256325
1.3368639,100.49522
1.3597983,104.03427
1.3455043,108.85092
1.5907601,109.971245
1.4980047,113.57382
1.5661213,116.832184
1.5273241,119.84073
1.6877532,118.84414
1.632017,119.965004
1.5818648,126.71489
1.6092501,126.35404
1.7350457,128.7562
1.6910104,131.50525
1.6526953,132.72221
1.5981767,130.78606
1.5563239,135.99129
1.5791683,133.7513
1.5386895,132.91315
1.5889738,132.7054
1.4822339,133.53009
1.4193716,133.66681
1.4833777,132.46748
1.3238038,130.78798
1.4187857,130.70015
1.2943163,127.934784
1.3982526,129.34474
1.2589424,124.02486
1.2784922,125.1642
1.2966477,122.483986
1.3351022,121.419395
1.1462379,118.58603
1.2682652,117.06476
1.1836737,114.51949
1.1198567,112.729416
1.161238,111.38819
1.1312476,108.27313
1.000962,107.82912
1.0505711,103.52246
0.98943007,102.96474
1.0563272,101.15954
0.99124545,101.2593
1.0735309,96.663345
1.0304912,94.29002
0.97894895,93.24276
0.9378691,91.03099
0.95104253,91.87806
0.91896164,89.74868
0.7813306,87.01999
0.69458324,82.48374
0.7446929,83.31019
0.6829255,77.77239
0.6189705,77.11766
0.6500099,73.25399
0.61109805,76.57037
0.5557241,72.3307
0.46068093,71.47946
0.3552015,66.2167
0.5375497,66.08392
0.3880292,64.76891
0.4319535,64.84834
0.37266693,61.19984
0.4236351,58.152138
0.48457515,55.314922
0.3749064,54.149384
0.41538432,50.886402
0.31950754,49.666035
0.44985643,51.202816
0.36565647,44.665703
0.39869413,47.99303
0.38544208,46.874016
0.23894486,46.7742
0.2853096,42.820694
0.27587184,45.742573
0.19789001,42.957417
0.062410966,43.02742
0.11633119,42.121815
0.06737157,43.34038
0.15251721,45.020687
-0.13160592,45.693367
-0.00819559,53.026173
0.003954306,52.011562
-0.010774395,48.71016
-0.0057965764,51.931717
-0.07880124,52.03568
0.15081325,60.209282
0.15928672,58.97616
0.19564982,60.640633
0.1852259,66.077
0.20585026,68.622284
0.3411444,74.89069
0.33786732,76.055664
0.5190276,80.03943
0.6065094,81.18372
0.6425093,85.357895
0.6920921,90.085686
0.822549,91.10372
0.81917334,97.11989
1.0159144,98.97105
1.0781997,100.014656
1.1602023,102.20214
1.1163071,109.9494
1.2476571,113.463264
1.3330165,114.02229
1.3454018,119.50064
1.3166826,120.518425
1.3068643,123.60905
1.3186913,121.4876
1.4345818,124.57417
1.3835198,128.76894
1.3996134,127.98921
1.3366127,129.91385
1.4333984,128.32959
1.28955,133.04184
1.4103812,135.85022
1.4509834,134.09367
1.3345917,129.89522
1.2518916,132.6388
1.3267174,135.58833
1.244362,131.32405
1.3099897,130.79181
1.2117562,129.80774
1.1661164,130.59344
1.1395205,130.73848
1.0060035,124.30054
1.0036365,125.57505
1.1384273,124.84233
1.0616552,125.16098
0.9425038,120.18776
0.994895,117.82003
1.0463648,118.216644
0.841021,113.01731
1.0344589,111.61817
0.953388,109.73846
0.8546727,109.46171
0.9829342,104.987465
0.9055664,107.55249
0.98264205,97.2741
0.7409167,102.4098
0.90553933,96.7354
0.93557966,93.91041
0.7416356,92.200325
0.83349466,88.76734
0.82331467,90.03401
0.7005668,86.287
0.7006845,84.13838
0.7083932,86.460365
0.67541003,86.89419
0.63325596,80.82071
0.5628611,78.31411
0.4821661,75.5029
0.5408768,75.82402
0.46380138,72.109924
0.436381,71.32124
0.47490683,67.29526
0.32999524,65.50707
0.42473572,64.138504
0.42109978,63.587364
0.46370688,62.115643
0.45153734,54.36576
0.38489583,60.026985
0.3415075,54.940876
0.23610225,54.403576
0.29009917,48.4048
0.36156592,50.79119
0.35915312,46.026085
0.3170812,47.169266
0.33427498,48.455593
0.3506106,45.261097
0.20852841,44.545673
0.19573867,44.618282
0.24800487,45.20545
0.27681562,45.433956
0.074305095,41.92656
0.19129755,42.031082
0.07827033,43.925415
-0.02542088,48.669476
-0.0029547592,46.854584
0.14162718,45.66575
0.03840368,50.419506
0.02414097,50.81084
0.018765772,55.49239
0.053634632,52.190224
0.16473523,59.575966
0.13560559,59.451244
0.18821844,61.311104
0.33429942,65.374435
0.360856,72.02947
0.39647412,71.48705
0.44764477,74.838554
0.64286125,79.49704
0.71374863,84.87203
0.81230956,83.83771
0.9008605,90.53644
1.0350597,90.6748
0.91981536,96.013016
1.0018058,102.54637
1.225292,103.7105
1.2373241,105.641716
1.306325,108.76521
1.4708863,113.897736
1.2932019,115.98178
1.4234189,115.02542
1.5083784,121.40365
1.4333342,122.82225
1.53148,128.75807
1.4919388,126.428314
1.5193778,130.66374
1.5775149,127.95064
1.4606483,124.95523
1.4793882,131.28925
1.4518628,130.46187
1.418543,137.5774
1.5361674,132.44284
1.4787003,132.5111
1.457254,134.17365
1.5160973,131.65884
1.4199599,129.62338
1.4861221,125.624054
1.3562428,130.44952
1.3386549,124.06637
1.2576672,127.92116
1.3510438,123.54027
1.1905069,121.9147
1.1977628,123.095634
1.203839,122.83638
1.2088586,116.79378
1.1800988,120.06161
1.2755978,115.13596
1.1973461,110.75376
1.1329294,112.84742
1.174338,109.19997
1.1194557,104.09704
1.1133062,105.018364
1.1455683,104.14331
1.1184789,101.59929
0.99892336,100.76391
1.1092857,92.51739
1.0148113,95.9974
1.1022345,92.792305
0.9761515,91.65765
1.1399487,89.78781
1.0945137,90.84523
0.9131502,84.60895
0.8437538,82.59789
0.86527336,81.78939
0.8420918,80.279854
0.8496059,76.00309
0.81115705,77.122475
0.7095309,73.97268
0.7078529,70.65452
0.71981794,70.81304
0.73914105,64.30597
0.7301042,64.96872
0.70500064,60.08202
0.6845432,61.703175
0.67517394,56.529205
0.5837638,58.903507
0.6483905,56.009117
0.7217016,55.67032
0.6488133,54.29474
0.72922915,47.61544
0.60422325,48.90627
0.57070416,50.323696
0.67167944,44.05165
0.57704234,50.682663
0.54905105,43.79098
0.52557534,43.78377
0.56697625,44.65891
0.52150625,44.233917
0.550741,43.54957
0.47920814,43.477375
0.4985998,44.14343
0.45786047,43.739414
0.32193428,46.321022
0.46442765,45.153313
0.30266985,48.274223
0.3524679,47.3229
0.4240494,52.264935
0.31330135,50.853027
0.418235,55.65592
0.43552032,58.8693
0.5417639,63.390575
0.6209051,66.45804
0.68029255,66.713524
0.74857336,69.68039
0.80845624,76.26354
0.9209302,78.02289
0.9937168,83.22512
1.1497436,88.39129
1.1667776,89.45683
1.207807,89.18156
1.4183459,96.686455
1.4339299,101.00027
1.4770267,100.583885
1.5158767,106.67862
