ppg,abp
1.0584795,95.85172
1.0925804,96.120895
1.1947433,98.07135
1.2701958,98.935135
1.2002232,101.39391
1.4037138,100.77137
1.4346237,105.412315
1.4764307,102.10671
1.5700029,106.38121
1.5933956,104.317894
1.626966,102.804245
1.5797422,108.64492
1.6406342,109.069695
1.7318306,106.60429
1.7137655,111.36252
1.6394391,110.49074
1.6905733,110.14412
1.7476321,110.46702
1.6909572,107.16218
1.7272731,108.119
1.7392782,108.86884
1.7182826,112.65114
1.7792974,113.10971
1.7834804,113.591034
1.7911447,110.1857
1.7694283,111.28348
1.654739,111.43091
1.6267616,112.687164
1.7032462,111.66851
1.5656729,110.722984
1.627413,108.17543
1.5459797,110.12819
1.5797433,109.168495
1.5909147,110.08293
1.4388571,108.16096
1.5632999,107.16241
1.4814521,109.597084
1.4639702,101.981094
1.3558517,103.89572
1.4058148,106.00738
1.3700602,101.22427
1.3694369,100.26268
1.4145269,104.347435
1.4289514,100.07871
1.2850392,102.033165
1.3605472,101.070854
1.35949,101.19493
1.3557918,100.45843
1.3741885,97.52536
1.3426493,94.9264
1.3983908,97.394264
1.2079947,97.22795
1.2884668,95.052986
1.2862891,91.837524
1.3246068,95.63947
1.1764331,94.52663
1.1507814,90.21573
1.1048471,92.31803
1.1643212,87.17672
1.0022469,91.0967
1.0689888,89.715515
1.0331374,91.81356
0.95322156,87.862755
0.967975,87.1667
0.94517887,86.55272
0.9757698,86.57482
0.9005182,89.301506
0.8405156,83.99812
0.88782334,80.6968
0.870205,84.336586
0.8300181,81.84844
0.828205,83.38146
0.8265974,83.01598
0.8008355,77.729904
0.95411843,82.372314
0.81582224,82.75514
0.82015055,80.61059
0.84166807,77.46646
0.77961105,75.76666
0.91423887,79.86533
0.8407503,74.655334
0.774207,73.63779
0.7205182,75.3895
0.7062432,75.53078
0.6648957,77.81714
0.6817327,77.57391
0.665503,75.644875
0.57669663,74.59563
0.6230942,75.550804
0.54055625,74.974174
0.5775259,75.41546
0.49454525,75.09112
0.5606773,81.22925
0.5225604,80.974785
0.5865429,80.19386
0.5490623,79.96307
0.53715545,80.77495
0.6386901,84.94205
0.6663374,81.037155
0.6583468,83.205345
0.77277726,85.060326
0.8443329,85.613556
0.9524277,89.643234
0.9975058,90.8715
1.1353258,88.589325
1.205231,89.732124
1.2292364,89.88064
1.2969317,95.042725
1.3726088,97.40002
1.4953094,95.582
1.5861521,97.9294
1.54351,97.16258
1.7287717,99.704445
1.6876897,101.17912
1.7779176,102.95922
1.8868104,100.90864
1.8903403,104.74079
1.8967535,105.643684
1.9518077,105.80922
1.8593489,107.44468
1.9450535,107.797615
1.9061626,107.716576
1.9654484,108.10335
1.9703114,108.98396
1.9960514,110.643776
1.9792856,112.73547
1.9391816,110.76866
1.960446,109.53195
1.9962101,112.2896
1.9437418,114.06428
1.9145249,108.21309
1.8970443,109.23946
1.8333976,107.04777
1.845947,110.78726
1.8275093,110.370384
1.8069768,112.29062
1.7626588,111.497
1.7653589,114.079636
1.7425203,107.63989
1.7589787,107.8592
1.6458529,103.96978
1.6334934,108.23626
1.7035093,110.74601
1.6106892,107.159134
1.5089526,106.422104
1.6136558,110.64968
1.5371294,104.83757
1.576055,102.53612
1.5252422,102.780304
1.5856006,106.054634
1.4483706,103.5243
1.3900325,98.613945
1.4991463,100.398384
1.4811593,97.91042
1.4797741,96.9854
1.4621328,97.56342
1.407914,99.184906
1.3974648,96.11193
1.3532429,98.29603
1.4271735,96.00269
1.3637226,91.587845
1.2843713,96.429
1.2861104,96.66565
1.2435333,91.008896
1.1692281,97.274704
1.2357924,90.37317
1.0904124,90.46563
1.0683587,89.94823
1.0364497,86.49859
0.98854464,86.48985
0.9591863,83.53137
0.9352408,81.05682
1.0005403,86.60363
0.9307483,88.47292
0.8701945,82.90677
0.83186185,82.335526
0.88862103,86.06291
0.87283736,85.10793
0.9029428,84.593315
0.84817207,83.86352
0.84194946,75.7594
0.8262437,78.10298
0.9023335,78.82537
0.92485887,77.7261
0.82684386,75.211494
0.871608,81.65162
0.7938244,76.624374
0.69842374,77.32964
0.72551507,75.953415
0.76204187,78.50139
0.7445817,75.6664
0.6133699,77.741295
0.53062326,79.21121
0.49390987,74.97639
0.56004703,72.603004
0.43577594,72.730064
0.44237578,76.01671
0.43714082,72.996735
0.4300544,79.540825
0.3788314,75.42196
0.44024667,77.51966
0.3909904,80.42889
0.39451474,76.73851
0.47129098,82.54153
0.5111635,81.17829
0.5206662,82.58527
0.6582021,83.823975
0.6285529,81.86754
0.6310691,87.71319
0.8408524,87.53362
0.9019056,85.85261
0.98531294,91.210686
1.0317152,90.68012
1.123359,91.98586
1.1778456,96.03642
1.230924,92.28109
1.2687513,91.0366
1.3544992,96.13465
1.4565792,100.30646
1.4820614,100.26463
1.5426767,102.847115
1.5258222,98.05345
1.6938355,104.20837
1.6047816,101.1577
1.6692238,108.30074
1.6771302,109.216774
1.7135891,105.74086
1.7123048,107.34611
1.7248313,110.3873
1.7536331,109.04836
1.7509406,108.81095
1.6795794,109.5546
1.7181207,115.95249
1.7283822,113.17505
1.6179075,110.959206
1.7446847,111.43601
1.726488,111.1718
1.6465168,114.70553
1.7282584,114.15036
1.6014452,107.771965
1.6003759,106.860306
1.5471592,111.34621
1.5157577,113.394714
1.5463508,106.856735
1.467526,107.206696
1.4438962,107.14085
1.4952912,104.9317
1.411855,110.0331
1.3012903,108.16829
1.3538358,109.51256
1.3110918,108.086784
1.2891158,101.099815
1.3714406,106.15162
1.2301213,101.90114
1.2329699,105.108284
1.259199,99.42116
1.1436898,101.81119
1.192564,101.158905
1.2292668,95.609985
1.1003458,103.50753
1.1074493,98.727196
1.1479545,94.38733
1.0609263,99.75
1.0844324,97.982666
1.0957687,94.41108
1.0134329,96.4098
1.009958,96.29239
0.95097244,95.288795
0.90706474,94.50999
0.8996037,96.31273
0.92393947,92.90479
0.93558174,86.873085
0.8059432,90.103096
0.7475763,91.030014
0.8388045,90.100334
0.6904588,88.40287
0.6375637,86.320496
0.6879012,84.0153
0.62316144,83.16849
0.6569052,87.653694
0.6337976,87.95772
0.54424727,88.38633
0.4834993,79.98475
0.5087064,81.436264
0.50929916,78.65334
0.47519505,81.24981
0.4330049,82.01435
0.4892154,78.551445
0.4883976,74.327896
0.4883515,79.80445
0.4774517,79.05733
0.4457696,76.89579
0.42260408,78.495926
0.4753553,75.994995
0.3926729,79.07198
0.3332495,78.55456
0.39262095,73.09452
0.28277352,75.88073
0.23081572,79.24904
0.25702322,74.90775
0.27274773,77.1141
0.1600512,74.687584
0.15091328,74.48014
0.056070168,77.3049
0.11382376,72.61958
0.04842448,76.80585
0.07239754,77.18648
0.09256885,72.8481
0.1721466,79.31265
0.07471236,80.34685
0.06825614,81.2574
0.046960164,82.064766
0.1697455,82.70006
0.20128326,81.71458
0.29300162,81.37057
0.27135313,87.19753
0.44880897,85.6411
0.47916806,89.2365
0.47502744,88.95962
0.6433601,90.6496
0.6794613,90.96818
0.76981163,93.522255
0.91050595,93.74467
1.0196618,99.333206
1.0602257,98.44268
1.0734539,101.24944
1.1004423,100.709564
1.1643214,103.26952
1.2429085,103.60907
1.2849762,102.69295
1.2895474,105.9885
1.3607725,108.50492
1.3059076,107.75788
1.3584381,105.66094
1.3990867,106.29975
1.337138,109.79291
1.3602104,109.21093
1.4131507,110.63721
1.3727754,110.85666
1.3138947,111.82647
1.3806483,105.12293
1.362254,112.885796
1.4250672,108.007774
1.4419264,111.2884
1.300744,109.446335
1.2917752,113.922485
1.2479743,111.84611
1.222482,113.730225
1.3378828,111.45164
1.258363,109.8094
1.262651,109.388985
1.1678185,110.5431
1.1317664,110.01554
1.0919378,108.16756
1.1303003,105.058075
1.0523515,104.61454
1.0427905,102.977806
0.9972658,107.089676
0.97684926,110.06942
1.0605623,104.25819
0.97832316,105.570206
1.0309058,100.22206
0.9512602,102.30507
0.9047205,102.45876
0.9305861,103.59278
0.94779885,98.09572
0.96025234,99.379234
0.8572441,102.21677
0.91966814,98.9696
0.83514744,103.142235
0.83695376,93.79576
0.81432384,101.51782
0.8131472,102.539734
0.855501,92.35858
0.82033426,96.03566
0.68662935,91.25602
0.6893669,93.8831
0.6742705,88.77099
0.65780836,92.77014
0.66677934,91.957214
0.6209132,87.789894
0.54425555,91.288536
0.5279745,90.67398
0.4790949,86.48531
0.45966095,87.21045
0.4168718,88.07475
0.45375776,84.22696
0.4289125,84.49741
0.2865514,85.548935
0.39234492,81.75255
0.39080444,85.528145
0.31663576,79.53015
0.35077348,81.82848
0.39714667,79.35075
0.34229785,78.51618
0.388488,78.4651
0.34173188,80.10555
0.362696,78.837234
0.32047918,77.710754
0.3533873,80.02333
0.3201125,78.811226
0.22492786,75.81939
0.30161664,76.47577
0.35742226,74.21517
0.22288637,77.351616
0.17500815,72.73339
0.13396354,77.066986
0.18941225,75.16505
0.0544118,76.25534
0.091282114,72.54932
0.02789363,73.23492
-0.017018484,75.447655
-0.028329462,75.13942
-0.09618258,79.08157
-0.046217747,80.52548
-0.13196662,73.96282
-0.041018747,80.7784
-0.012234062,84.41698
0.0536279,82.65801
0.13135962,81.57244
0.24066587,84.53568
0.24501505,86.64878
0.2891409,82.698006
0.41906062,85.17309
0.4373878,89.712654
0.52780396,91.50888
0.6743149,92.68988
0.71456134,93.902374
0.7676117,92.20465
0.9240467,98.13023
0.87178963,94.769485
0.97383577,93.87557
1.0689805,96.85689
1.1413863,99.32595
1.2527449,100.30023
1.2113575,103.056946
1.2925023,100.96161
1.2821282,101.97188
1.3898355,103.81751
1.3356886,107.71377
1.4129412,109.34846
1.4975692,109.203156
1.4877019,106.35944
1.4993595,107.37315
1.5453844,110.191956
1.4546006,115.62352
1.5189155,108.59835
1.4832461,110.73479
1.4701825,112.57953
1.4945594,109.62862
1.5017761,111.17678
1.5086323,112.143074
1.4272518,111.219795
1.4005994,111.33879
1.404818,106.73891
1.4228405,111.88252
1.3121872,110.38387
1.3479464,112.32641
1.36229,110.78694
1.2834086,112.48581
1.3389949,107.36304
1.3395933,107.26982
1.1972021,108.70576
1.1857406,109.370705
1.2920772,105.47954
1.1220678,101.90317
1.161557,108.62799
1.171163,105.151764
1.1093875,100.30084
1.0828445,106.41644
1.0696311,104.85421
1.0767816,104.043365
1.0964274,98.90322
1.0451046,101.61435
1.0828531,97.51716
1.0895994,97.88558
1.0545757,97.21893
1.0499183,97.318375
1.033282,91.8828
1.0183384,97.105515
1.0493066,91.34911
1.0088483,93.30238
0.976852,93.31618
0.992476,91.12217
0.90964746,94.00388
0.8603443,94.33633
0.9860877,89.273636
0.8435221,89.49238
0.7728689,91.27952
0.7570613,88.32779
0.7359196,86.007545
0.7015323,85.45015
0.69760877,87.33849
0.68654776,85.23476
0.6748645,83.90853
0.6594843,86.36129
0.58243,88.17731
0.67047733,83.38169
0.58572084,82.88539
0.6615048,88.02878
0.63584477,79.52985
0.6200338,83.798904
0.79057574,78.81822
0.6328521,78.18914
0.7124838,76.70599
0.67342234,77.896454
0.66425055,78.6925
0.5575344,77.299065
0.6130829,77.220634
0.49337202,77.24343
0.6594519,74.65784
0.55205655,75.998535
0.5131447,78.06179
0.4575366,73.41687
0.41284192,71.73061
0.37616643,76.32896
0.3030021,75.12094
0.35952976,72.26025
0.44989333,77.49296
0.33229497,76.52589
0.31635004,79.344154
0.27646613,80.09847
0.38115424,76.54845
0.4411796,77.28488
0.4180389,81.29495
0.3979288,80.13782
0.43259996,84.208275
0.5553932,83.61618
0.5516536,79.48785
0.70476425,84.0727
0.78191185,85.17211
0.887242,90.357666
0.88234884,88.91291
1.0090342,91.51977
1.0551944,92.61361
1.1715761,94.71273
1.1806271,95.9361
1.2587656,95.46877
1.4232268,95.68673
1.4468164,95.60468
1.4573553,100.328156
1.4526191,99.70924
1.6037419,101.54407
1.6046722,101.14888
1.6666751,103.008865
1.7467737,108.92698
1.781389,106.79486
1.8058666,105.017136
1.7632871,109.12613
1.8804286,110.61306
1.8246028,106.50113
1.8572719,111.88062
1.8329402,113.198326
1.8435743,110.696236
1.7988856,112.850136
1.7950312,110.42402
1.8371342,112.4131
1.8467927,111.93016
1.8022296,113.182655
1.7706605,109.96092
1.8285478,113.27854
1.6976874,113.49195
1.7782807,108.34358
1.6965678,111.01191
1.7146584,106.31454
1.7108808,110.917114
1.7130194,109.50457
1.6515925,112.685
1.6384665,105.150764
1.5565404,106.639015
1.6082641,111.95078
1.5668441,106.71186
1.5639665,104.89249
1.5764444,106.11729
1.5738784,105.95274
1.458563,105.159386
1.521256,104.49226
1.5291921,101.34654
1.3691516,100.45282
1.4703982,99.11901
1.4398364,96.29845
1.4388335,100.15191
1.5298632,98.28098
1.4248462,99.23651
1.3854702,97.34691
1.34202,96.44703
1.346888,98.14787
1.4051632,94.66716
1.405417,94.603134
1.3151327,93.86583
1.337029,94.9166
1.2775868,91.68059
1.1867149,88.534294
1.2242973,90.59642
1.2037964,89.54397
1.0346311,88.53778
1.0508004,89.629654
1.1128414,89.261955
1.0552992,86.37777
0.9640538,87.39561
0.9423356,87.048584
0.9575862,84.11706
0.9256805,80.9632
0.8940605,82.29223
0.9168803,82.72986
1.0414559,81.229454
1.0264693,80.26817
0.87905335,82.67323
0.9849415,80.590485
0.8982236,77.08727
0.9265133,80.03815
0.8641549,79.05917
0.8633721,70.714226
0.94295746,74.92206
0.9234756,76.912224
0.8299246,76.76863
0.81731826,78.86829
0.797327,72.76879
0.8286913,74.39534
0.7678591,75.08179
0.7955026,75.667534
0.6599503,76.425095
0.6791138,76.14248
0.64870924,76.18399
0.5660424,79.035805
0.62624997,78.82023
0.62414217,78.2368
0.43434745,79.493
0.5159907,79.516624
0.52410984,77.81426
0.6227382,80.22709
0.59890044,79.44627
0.54307574,80.37832
0.68005145,82.53839
0.6819314,84.785835
0.77357966,82.571526
0.81571466,85.340256
0.9291013,87.22707
0.9971079,85.51268
1.1720028,86.547745
1.1637028,90.04287
1.1674801,88.89644
1.2678246,91.955025
1.392249,95.427216
1.4369849,94.68013
1.5130857,97.64816
1.6092243,100.293495
1.6339295,100.03472
1.7358932,101.56375
1.7187065,101.84421
1.7870934,100.29333
1.7936025,103.798065
1.8061111,102.07421
1.8143718,105.70886
1.8052402,105.59199
1.9073821,109.20232
1.9422942,113.28895
1.9038676,107.31355
1.9186206,108.73715
1.9959074,112.75694
1.9868035,112.677956
2.0172973,111.50248
1.9418347,111.46793
1.943633,115.28071
1.9061787,112.876045
1.8548206,109.8834
1.869885,110.890816
1.8820922,112.830536
1.79023,110.475464
1.8520972,113.41872
1.8349603,109.07925
1.8517112,111.94586
1.8504486,112.48995
1.6926558,108.88362
1.7040845,112.55541
1.6519381,107.45922
1.6654389,106.82751
1.6638461,109.40221
1.532315,110.67044
1.5920703,106.415375
1.4505492,107.56617
1.573675,102.647675
1.4126995,105.5961
1.4546837,105.4771
1.4536291,99.033264
1.3683474,104.32784
1.488963,99.865166
1.3903613,101.65477
1.3526249,99.13077
1.4100821,100.37264
1.3666354,97.994415
1.3169738,96.110916
1.319571,95.95404
1.3503275,98.52398
1.2622509,96.33852
1.2698698,94.51493
1.1973348,93.84157
1.2203906,92.87767
1.2715175,92.2776
1.166788,93.85379
1.1334563,91.6462
1.0293278,90.02381
0.98180825,91.06655
0.9676178,87.75573
1.0109545,90.17796
0.9268248,86.80122
0.9530983,84.5057
0.8108849,86.36376
0.87158734,82.25623
0.8563772,89.2571
0.7280066,82.23081
0.77047133,85.33492
0.7717493,81.359
0.7485562,80.61368
0.86162615,79.3275
0.6798059,80.61404
0.75571126,76.29255
0.7259711,77.10438
0.72731656,77.28823
0.6434816,80.20175
0.736925,76.35662
0.7256147,76.54209
0.6397731,77.395836
0.65513945,73.898224
0.62508553,73.01512
0.5795493,81.30571
0.5431295,77.45881
0.5117197,77.878136
0.46421105,72.36411
0.45971078,76.78662
0.45613357,78.2895
0.25148773,74.91673
0.31908405,71.27895
0.36520448,73.81603
0.21310836,78.0994
0.31103012,76.03141
0.23113216,81.283195
0.3078293,77.36647
0.30988505,79.633705
0.30692244,79.16277
0.4243835,81.574005
0.44186386,79.6457
0.52555037,80.643074
0.5262065,83.91335
0.5738814,87.19628
0.5891679,87.9783
0.7285369,88.75992
0.8494504,87.95411
0.9678479,88.046974
0.8685424,95.67953
1.0921433,92.083565
1.0372014,93.462975
1.1517974,96.707214
1.1612968,102.21251
1.3129431,98.66281
1.374095,100.77493
1.4528481,100.64533
1.4876018,103.95107
1.5057787,100.79239
1.440752,105.20887
1.5510683,106.073204
1.538053,106.874916
1.6370318,108.24569
1.6652749,109.30072
1.6432881,108.57092
1.6220279,106.698204
1.5221834,104.77541
1.5668138,113.8994
1.5097239,111.243126
1.568867,108.49693
1.5667406,113.48774
1.4965494,115.97452
1.5950243,116.69021
1.5575861,108.95846
1.5557739,115.53411
1.4570191,109.831276
1.4973272,113.53109
1.4810219,111.18593
1.4164466,112.67022
1.3649585,111.19919
1.310299,107.566986
1.2472768,108.58093
1.2539922,108.891304
1.2901678,110.8016
1.2641834,106.27924
1.2277917,104.82342
1.2240324,103.74054
1.1207983,104.6678
1.1403569,109.20371
1.1697218,108.09731
1.1010574,104.91263
1.0770754,102.98828
1.0351607,100.09933
1.1185402,100.378426
1.029627,99.37824
0.99059963,96.16391
0.9502969,99.1711
0.994614,95.425674
0.93356097,98.00022
0.96941984,100.462425
0.96812505,95.88914
0.84945774,95.37754
1.0218214,95.80735
0.864924,94.644485
0.8109792,93.55909
0.7596477,90.66357
0.82004607,93.91651
0.7501132,93.66795
0.5964002,90.866714
0.6690454,87.50972
0.6049339,89.39493
0.5487131,88.839424
0.5019501,88.81539
0.55364114,88.78039
0.4763921,84.9547
0.43022832,84.557495
0.44665432,82.45177
0.44039255,79.63612
0.50705665,85.18007
0.43466553,82.16849
0.42453256,81.034805
0.4082283,80.68092
0.37588596,82.11933
0.35097972,81.83767
0.30626386,78.14847
0.3911184,84.41912
0.4250351,82.3896
0.34604132,79.99539
0.29243866,78.3432
0.31799805,78.78171
0.3127022,76.66707
0.3049741,79.29469
0.31616706,77.57499
0.22550775,78.43345
0.12717804,74.99576
0.17510252,77.78003
0.05316817,77.95817
0.11611009,74.989296
0.08817065,76.54352
0.059028134,71.88332
-0.026205637,74.42697
-0.058506597,75.97674
-0.01653912,78.99503
-0.122565106,78.618095
-0.029908603,79.23071
0.07858068,81.77133
0.020014234,79.79776
0.10181964,82.183495
0.11053504,81.371574
0.12703507,85.077255
0.32470796,84.67205
0.23199259,90.918976
0.32813358,87.14638
0.46977502,91.65739
0.47414926,90.29861
0.5732494,93.41489
0.6987951,94.814575
0.7446575,91.90703
0.74790317,98.17929
0.93868876,95.95929
1.0095801,98.655876
1.0122528,96.59162
1.0487174,99.42025
1.1641608,101.175255
1.1723125,102.38213
1.2212198,102.40579
1.2316957,102.67852
1.2713939,105.57582
1.26099,109.65409
1.3292398,104.41837
1.2962343,109.443184
1.3250191,110.64549
1.4338607,110.00807
1.462513,110.67187
1.3561387,108.50219
1.313541,110.593704
1.4040111,111.232666
1.3540853,109.37594
1.3460156,113.51544
1.2488134,112.883545
1.2797422,107.521164
1.2817255,115.55472
1.3048,110.726295
1.2604778,111.26978
1.2542707,110.01026
1.1828791,110.20281
1.1623927,113.03992
1.1448356,113.645065
1.087024,111.5492
1.0493057,111.38568
1.0794618,109.98833
0.98627776,107.23431
1.119337,106.962326
1.0363585,102.85293
1.0400236,103.78152
0.959729,102.2594
0.89108765,100.623474
0.86017895,105.28624
0.9790251,99.79286
0.96782786,103.899635
0.9166054,96.412285
0.91403425,103.69315
0.88511044,99.24979
0.9472338,96.78436
0.88909674,98.91278
0.8288981,100.66907
0.8869098,96.21177
0.8854188,95.47799
0.83608323,96.26123
0.8148838,95.17512
0.8366685,94.02769
0.7233574,98.822464
0.72279567,93.15911
0.65645325,96.1669
0.61385345,90.77788
0.6447379,89.995346
0.65667033,91.51699
0.6184379,87.57039
0.5751797,90.49111
0.5194244,86.3461
0.5888892,86.44628
0.4846535,81.92108
0.45879894,86.6753
0.388756,85.51214
0.44407833,88.83146
0.42998084,84.7659
0.4715079,83.64236
0.32672843,78.499275
0.42614356,81.42943
0.43842047,79.53513
0.3797656,78.97571
0.34580627,79.02205
0.4394887,80.80848
0.4171744,80.294266
0.37637296,76.5062
0.3466244,74.641685
0.4186859,78.08145
0.31030887,74.06399
0.23325105,75.78283
0.30877954,72.078514
0.2970768,74.007065
0.21977274,77.35246
0.19026804,74.66794
0.13129559,73.83053
0.2160961,78.45974
0.1430543,76.8256
0.10253148,76.79059
0.03136408,77.63882
0.11819762,73.5548
0.0042029284,74.65011
0.08178175,77.15454
0.07743647,78.12714
0.07749998,82.23008
0.04817634,81.40772
0.1887282,82.37511
0.23151319,83.080086
0.2723641,83.56773
0.2726672,83.84128
0.4311787,85.18815
0.48986885,86.82214
0.5640974,87.73749
0.7120962,85.029816
0.6256053,89.10128
0.801458,90.4373
0.9484263,92.87791
0.9030218,92.98307
1.0703635,98.867966
1.0315709,97.23041
1.1913389,94.70295
1.3051366,99.752754
1.2884094,101.61723
1.3595985,105.22091
1.4412973,99.15757
1.4170251,106.03091
1.4417373,105.03173
1.5438881,107.24157
1.5511303,110.062675
1.5086687,106.523605
1.5840684,109.3671
1.5748225,108.73467
1.5746112,111.8041
1.5744449,113.46989
1.570776,110.631
1.5163299,111.71851
1.6057651,109.709335
1.5645916,112.83519
1.6341773,110.7189
1.5752403,110.673225
1.4757359,117.515785
1.6413345,112.41504
1.4778172,112.062775
1.5814235,108.86719
1.5339204,112.41138
1.4316498,109.50934
1.4571558,109.317184
1.4236596,109.62707
1.3612984,107.34947
1.3541489,110.72027
1.3284917,106.645004
1.4254805,103.2789
1.3222697,104.40861
1.3412298,104.322266
1.3478247,105.34008
1.3576859,104.0869
1.3119702,102.350586
1.3106679,101.13518
1.2538009,97.76464
1.2746953,96.898094
1.2370507,99.610085
1.2748948,102.72343
1.248428,99.10269
1.1984117,102.683464
1.2676184,98.40256
1.2194989,99.941444
1.2253599,93.81346
1.1918726,96.12864
1.1595374,94.36529
1.122091,95.51591
1.2264264,92.76969
1.0852181,91.98688
1.0755125,91.32179
1.0900244,89.691216
0.9744322,92.10141
1.0568585,89.2541
0.9409018,87.23884
0.8963344,87.305016
0.80373544,86.40321
0.8166992,86.0012
0.898656,85.36376
0.79712766,87.49023
0.766805,86.3664
0.67327344,86.76039
0.8131164,84.75234
0.77215946,79.84529
0.7974765,80.504105
0.75604326,79.58386
0.7735655,81.32993
0.7625723,83.9225
0.7788808,78.36815
0.67209554,77.09496
0.7979305,76.56523
0.82071346,80.230675
0.80669606,77.67267
0.75700223,76.31854
0.7293012,77.02214
0.6802111,77.014366
0.6994346,73.48874
0.65428287,75.83788
0.6463678,79.51297
0.6497103,74.78409
0.5521488,73.57081
0.6014989,75.00752
0.48141015,76.99948
0.44331723,78.47405
0.46880534,76.53795
0.5105109,78.36857
0.36347374,74.81458
0.46701053,79.51642
0.45025086,77.68562
0.53447205,78.28143
0.47776273,81.78204
0.5557699,80.43038
0.6155997,84.80161
0.6937818,85.647804
0.7151025,84.530876
0.79548794,88.27718
0.8111073,85.245316
0.8745447,87.189125
1.1151762,92.81801
1.0806444,90.579895
1.0860661,93.1778
1.2955786,99.09093
1.3720486,96.22968
1.3781751,97.88382
1.5134761,95.734085
1.5267057,98.80238
1.5881673,100.3229
1.6699901,100.55589
1.6915389,100.043274
1.7157394,103.910675
1.778022,103.70367
1.7570199,105.802025
1.86188,108.721306
1.8866504,106.74502
1.8875443,108.09433
1.9040958,109.81167
1.958532,109.644646
1.857714,108.9607
1.9881378,114.33716
1.9461395,111.16739
1.8966976,113.49633
1.9307346,112.94197
1.9250195,112.944305
1.9055489,109.05577
1.930764,113.54721
1.8001069,110.15168
1.8992083,107.99225
1.8511595,110.60671
1.8426696,111.33855
1.8500707,110.87598
1.7944359,111.68842
1.7701683,113.24535
1.7485895,111.74911
1.7033213,106.66974
1.6760095,107.07448
1.6457938,108.68519
1.5854741,108.601364
1.6612014,106.26552
1.5963225,104.61352
1.6372067,105.25389
1.528433,104.54838
1.5583576,99.24642
1.5431956,103.92228
1.500884,100.62067
1.523545,104.56746
1.4597962,100.45922
1.4867444,100.53953
1.5613976,98.42679
1.4062101,96.77399
1.500183,98.994514
1.5383774,97.56389
1.3936744,95.8796
1.4908882,97.24129
1.4308692,94.37761
1.3939676,93.83792
1.3899237,95.94628
1.3140565,92.09102
1.3494526,91.029564
1.2175077,89.73493
1.2110363,89.4958
1.1273975,89.77482
1.0953448,91.02721
1.0798606,89.34134
1.0624809,86.414215
1.0266678,88.54389
1.0748518,89.41285
0.93292177,83.78335
0.9284168,83.955666
0.9773933,82.51378
0.99127734,82.04423
0.8908661,85.09288
1.020105,80.67263
0.85285664,82.03886
0.9261185,76.27884
0.8624015,80.245605
0.9101324,82.39375
0.91454947,79.663445
0.91347134,74.866615
0.9161005,74.40817
0.8510863,77.34163
0.838552,76.487854
0.85873324,75.416245
0.90414673,76.38065
0.8095372,72.76589
0.6972794,75.682
0.74323267,76.979034
0.72551847,75.66923
0.6602099,74.76096
0.624316,76.63368
0.6119758,75.306305
0.59453523,78.56785
0.5691101,74.90894
0.60505664,77.78536
0.4253822,76.45377
0.442455,79.2771
0.5162071,77.09625
0.53488505,74.05831
0.60914546,77.40871
0.5812722,80.301506
0.6895013,81.225746
0.7250321,76.831154
0.82021993,81.59021
0.79482824,83.34685
0.85354066,89.35002
0.9535415,86.6553
1.0083908,84.391235
1.07108,89.51573
1.2160287,95.6085
1.2683744,89.91348
1.1712128,100.615486
1.4377464,97.70593
1.3991623,94.91353
1.567008,96.455574
1.6017457,101.479324
1.6611425,100.06856
1.6123167,99.86644
1.6845156,102.55052
1.769656,100.25528
1.768181,103.61746
1.787995,105.814415
1.7683221,108.96548
1.8075495,108.56373
1.8306285,108.82057
1.8740886,110.36451
1.876369,107.48611
1.8349218,106.57496
1.8932105,109.53273
1.8321431,111.39157
1.8349243,109.37496
1.769874,110.31674
1.7302338,112.05291
1.8010976,108.287994
1.8839511,113.50822
1.7761798,112.330215
1.716727,111.4203
1.7099979,109.44108
1.6945405,115.03666
1.6207788,109.22106
1.617337,106.65069
1.5201709,106.9931
1.5851501,112.008
1.5359311,109.39966
1.5303035,113.481285
1.4403445,109.7279
1.416883,103.38143
1.3369889,105.25335
1.4739522,105.526794
1.4132097,103.34881
1.3723291,103.16418
1.366886,103.951996
1.3498372,106.57855
1.3391141,104.43781
1.3257959,99.2388
1.3012041,96.07068
1.2928913,101.439255
1.3714894,99.54303
1.2173349,97.95101
1.2576001,95.72522
1.2127742,96.97999
1.2306844,97.56461
1.2422076,98.83099
1.1528313,96.89671
1.1013205,92.00615
1.0736517,94.74346
1.0649297,89.203514
0.9934205,93.756935
0.95823985,94.7236
0.84983987,84.46018
0.84929323,90.30399
0.81676763,90.48033
0.81295145,87.82416
0.8534694,85.67715
0.75989896,90.2566
0.7287927,82.50521
0.7361934,85.63122
0.66695964,82.24263
0.63851124,84.12096
0.6614938,81.552155
0.6323927,81.83702
0.7145103,81.96666
0.69991034,80.5371
0.6199016,81.757095
0.6325046,75.41231
0.6055739,81.66815
0.5635116,77.78695
0.57379484,79.904
0.5797413,75.25504
0.58135766,78.38631
0.5033133,75.33643
0.5219318,80.9956
0.5291522,74.917076
0.42338797,75.43923
0.3985119,74.625404
0.3779123,77.50208
0.3628915,77.85333
0.31809846,76.44742
0.25013527,79.13381
0.25645784,76.59638
0.2119527,76.03984
0.2050963,75.08955
0.23407328,78.53141
0.17235687,81.1856
0.15792894,74.40359
0.15900348,76.96608
0.106868334,77.40376
0.17497481,79.189445
0.29819068,80.79289
0.27822948,79.38684
0.38601032,83.73853
0.43542433,86.84094
0.48561734,88.343285
0.55519414,87.83699
0.6488217,87.20208
0.6999058,90.13989
0.8508072,88.165276
0.8715769,92.51766
0.86154646,93.11384
1.0231676,95.89658
1.0629735,98.12291
1.1355469,97.41688
1.1687688,97.693565
1.2650323,102.262726
1.2870835,100.562164
1.28916,102.040924
1.374905,101.468575
1.3291804,105.15304
1.4746605,106.653534
1.46684,108.808914
1.4259539,105.79368
1.4188342,109.17624
1.5173084,110.51615
1.4600537,113.25369
1.4752076,114.96363
1.5689199,113.65051
1.465104,109.778656
1.4672151,109.975174
1.4083345,111.50904
1.4408643,109.800674
1.4312541,109.27957
1.3796114,115.34623
1.3947463,113.472664
1.3856848,114.74759
1.3681649,109.029625
1.2749357,108.90575
1.3074169,110.99814
1.3775606,112.76328
1.2280256,107.1746
1.2286915,110.397415
1.0779755,110.95492
1.1484747,106.33786
1.0791141,109.653046
1.1179321,108.03296
1.0208418,106.59004
0.9798573,107.68429
1.0325661,97.693214
1.0122974,102.91257
1.0131756,104.759315
1.03213,104.32615
0.9733786,103.67314
0.9807935,97.98789
0.97751594,103.60847
0.955252,100.973145
0.9083062,97.451805
0.9664968,97.72392
0.90462375,96.730896
0.80573213,100.183815
0.8994334,94.680405
0.8798321,99.54617
0.85066694,92.68585
0.80003846,100.25656
0.84515333,92.519104
0.73510265,92.50478
0.7476276,91.75754
0.64523804,95.156624
0.6716605,92.873764
0.59746706,91.08479
0.6706057,87.23517
0.5815106,88.402725
0.5071953,88.691414
0.32752493,87.83191
0.48506987,84.041725
0.4073504,83.655685
0.37698853,83.28793
0.42190605,83.50042
0.27393794,84.62725
0.32358417,79.60975
0.3629626,82.80553
0.33710453,80.81666
0.3425407,83.804886
0.34525454,84.24392
0.34473577,77.08688
0.26846984,77.901215
0.3083692,77.49511
0.29242286,82.224785
0.26378277,75.771706
0.30473468,75.821625
0.19958486,76.91179
0.18580508,71.46794
0.17917301,76.46956
0.19935112,78.12055
0.16365536,77.46473
0.15190631,77.47999
0.14903373,75.973495
0.096806645,78.23158
0.046120986,75.9568
-0.012464861,76.49755
-0.005538667,79.72999
0.056659162,77.886536
-0.10341929,80.610245
-0.10614092,79.51281
-0.050023846,78.33649
-0.024671191,78.408676
0.00482594,80.763565
0.022388542,82.22014
0.15252726,81.45615
0.260272,84.29855
0.09068225,84.961624
0.30908465,85.5331
0.35919857,83.79512
0.49730444,85.81698
0.6149561,91.349236
0.6628545,92.7273
0.6682818,91.96688
0.7962309,97.98421
0.8392965,95.64322
0.9615327,93.98063
0.95369166,90.57746
1.0019403,99.83765
1.0302148,99.43312
1.18555,101.020454
1.1603981,102.04791
1.161958,104.1897
1.3337117,106.457535
1.2178587,105.98455
1.3614545,109.42068
1.2769619,108.34552
1.4161805,105.45222
1.4116087,107.46811
1.5090748,111.272575
1.3733603,110.064865
1.3578871,108.69669
1.4049929,111.72354
1.3792624,109.083694
1.3055398,111.57446
1.3818287,108.11675
1.3756571,111.03169
1.3382361,113.66111
1.3569766,109.80161
1.3442117,110.8527
1.2864656,108.9703
1.3163695,113.655174
1.3332002,112.89376
1.2020739,112.07879
1.2242949,110.363434
1.2122009,110.40049
1.1889963,110.956474
1.1343771,106.49308
1.1245492,106.5904
0.9935199,105.80753
1.089598,105.96064
0.9807102,102.21025
1.1100634,106.238686
1.0615621,105.317276
1.0023619,102.621025
1.0831076,105.54933
1.0123433,99.04459
0.9721616,100.62842
0.998166,95.5416
0.989703,99.41086
0.9880308,101.18634
1.0106122,100.47644
0.9516139,99.34007
0.9631097,98.54375
0.9781611,94.6718
0.9009767,97.3912
0.8560028,93.72196
0.7990078,95.76878
0.9055789,94.6296
0.8142252,92.38967
0.7595282,93.44018
0.7900702,89.76366
0.701518,92.001945
0.7051345,90.94148
0.70509577,88.466415
0.7025164,86.856285
0.5935727,90.07487
0.5664144,84.20829
0.59716254,80.041435
0.5206588,84.63538
0.57194823,85.8402
0.41127524,82.134766
0.46316582,84.311485
0.57023275,79.27228
0.5078063,80.64446
0.5277552,81.08441
0.43516663,76.72789
0.5614593,80.155205
0.46742088,78.25196
0.52468526,78.71677
0.5287971,76.774284
0.45668256,75.17489
0.48470637,74.56284
0.46225974,76.32182
0.46135968,73.30823
0.38223517,75.47903
0.37542427,73.065544
0.29987642,80.06
0.42273924,73.14906
0.39578158,74.85092
0.36530852,72.62792
0.28611067,74.57674
0.26831126,77.01741
0.23586151,74.16154
0.21551785,76.272766
0.2135913,80.29943
0.18031088,77.78923
0.20825124,78.87318
0.20009449,85.716415
0.3007699,77.1898
0.2549896,78.572266
0.30495062,82.67032
0.37635764,80.36677
0.46721056,84.47873
0.4681786,83.20672
0.5263894,85.95653
0.6593684,89.628654
0.7320652,87.7095
0.8607228,87.719826
0.8619459,90.443146
0.90952706,90.39484
1.0500456,93.783195
1.088564,93.71762
1.1970185,97.30604
1.2722278,101.83134
1.2641711,99.67561
1.4391187,101.71734
1.4366854,101.90681
1.4730078,101.13655
1.5510892,100.354004
1.58796,106.2814
1.6122978,106.45351
1.6479467,109.934975
1.6874539,107.96717
1.7561699,109.55285
1.683682,111.42485
1.7154118,108.82299
1.7473195,114.70602
1.7644546,109.138626
1.8015616,108.653465
1.7400774,114.458565
1.7499073,110.39698
1.845173,111.51244
1.7480425,114.16541
1.7975284,111.37687
1.629741,109.801186
1.633992,112.23519
1.6663129,110.93976
1.6723632,110.53573
1.6444058,110.60866
1.6330711,108.27092
1.6160028,108.26731
1.5380869,104.41077
1.5164564,107.80208
1.4954618,105.37893
1.523809,108.6807
1.5227818,105.153984
1.3833544,104.07494
1.3990377,104.929474
1.4809147,101.78991
1.4130505,102.52572
1.3675592,103.4901
1.374308,104.30025
1.4340162,103.9391
1.3757648,104.221855
1.3497949,101.701546
1.3941957,103.17902
1.3241651,96.46839
1.345038,97.73012
1.3131341,94.47688
1.3475877,101.98252
1.2962923,94.46635
1.2998306,94.717445
1.2962145,92.08788
1.2863628,91.493805
1.2069429,92.259315
1.219921,94.344536
1.1730138,90.989624
1.1665529,89.299644
1.0357531,88.27358
0.99932903,89.22443
0.9717901,87.87157
1.0356231,87.120834
1.0014892,89.579575
0.94676197,84.08139
0.9257349,86.65113
0.85917705,87.79604
0.82676226,86.28502
0.8795023,85.90892
0.9428283,85.18528
0.76742923,84.12334
0.8645111,80.41956
0.919675,81.24685
0.85602516,83.25797
0.86815333,79.41013
0.87694305,77.28022
0.8373752,74.80275
0.8556036,77.00814
0.9160653,77.03537
0.86304516,76.40003
0.809102,75.20054
0.74404716,75.18896
0.7774732,79.43265
0.75838476,73.47157
0.75344384,74.49031
0.6177812,74.180374
0.69029754,77.47683
0.57709897,79.479355
0.67135715,75.979836
0.55382276,74.52485
0.51742697,77.79887
0.52484846,77.81535
0.5498696,75.59389
0.50401527,78.259445
0.5231766,82.59286
0.5473333,78.63535
0.52749205,77.882645
0.5622169,82.92127
0.6746533,79.1983
0.6876954,85.18272
0.7309778,88.86646
0.8054528,83.34297
0.9200791,81.67174
0.94443196,88.60196
0.982862,89.92178
1.2001891,87.00521
1.1401588,93.18017
1.2123408,90.3131
1.3044326,97.67976
1.4460238,94.11286
1.5320263,96.2046
1.6018862,98.73739
1.5813177,97.9059
1.6187801,99.57037
1.7160606,102.47874
1.8253452,107.07651
1.8522422,102.78059
1.8840805,104.92783
1.8690997,106.39105
1.9270747,108.15348
1.9357015,107.87724
1.9189076,106.961464
1.9188154,110.94327
1.9489555,106.23632
1.9540876,109.283295
2.0217173,110.815704
1.9525954,111.64947
1.9122341,112.6828
1.9516331,111.315605
1.95197,109.64084
1.8863842,110.95667
1.9083114,106.10519
1.9411517,111.78478
1.8803825,111.06329
1.8624508,111.74113
1.8686397,110.921486
1.8147179,111.777794
1.848123,111.18776
1.8257647,113.17757
1.7296935,110.20838
1.7923709,112.608986
1.6709938,113.47631
1.6789111,106.91627
1.5936253,103.99693
1.6130857,106.46989
1.5780756,103.70009
1.5286132,103.42548
1.5606475,102.05864
1.5608505,105.16781
1.5111867,103.95735
1.5086248,101.36698
1.598505,101.52214
1.4756703,103.56629
1.4383454,96.04479
1.4158669,99.94406
1.4966425,96.367584
1.4831873,96.439835
1.4538126,99.33863
1.381114,99.222305
1.3398646,99.74402
1.4538659,93.49845
1.3364142,95.156876
1.3682857,93.44554
1.3437392,92.90431
1.2972541,94.421265
1.2415859,96.44788
1.2590157,90.69514
1.1535838,87.85407
1.0742252,93.18424
1.0077201,90.88466
0.9802393,89.15043
1.0404783,87.9245
1.0145366,84.78068
0.9462802,84.82289
0.91483164,83.38258
0.92132604,84.052086
0.92787945,82.19439
0.93872607,87.72462
0.86902595,84.21484
0.8760402,80.23472
0.83232695,79.08515
0.82578486,80.01468
0.94115937,78.346825
0.78962076,74.99964
0.78679025,80.145355
0.8230089,76.96901
0.755951,79.255775
0.80210775,75.043076
0.8146441,71.24798
0.78559935,75.75066
0.71022457,75.232765
0.71539015,77.58792
0.6310542,75.92331
0.50537014,76.706726
0.5106528,75.84384
0.58809423,76.867546
0.44965813,70.68105
0.4820102,74.337296
0.51862645,76.69683
0.5208187,73.95272
0.39612284,79.550385
0.4796297,77.67911
0.37198776,78.39106
0.4236005,80.890724
0.49326667,84.918015
0.46960276,79.647545
0.58071434,81.34385
0.65264636,83.723114
0.7182183,85.3325
0.6720238,87.32349
0.79912776,85.96537
0.86245537,87.29601
0.92556757,89.83251
1.0114961,90.705986
1.0888596,90.61418
1.2308547,96.6242
1.2999952,95.457855
1.2684877,94.46763
1.3805231,95.67308
1.3985884,100.12726
1.4777501,98.30322
1.5502756,104.04622
1.5380448,100.467
1.5782083,103.2118
1.6806558,101.201706
1.6686473,102.340065
1.6823975,108.53154
1.7084765,106.768715
1.6330427,108.75756
1.7586863,109.35641
1.7921325,109.20841
1.8038391,110.73818
1.6316787,109.23596
1.7741786,111.41968
1.730503,110.20706
1.7698951,112.41044
1.6643462,110.60433
1.7222275,111.82713
1.5875796,112.52809
1.6634965,112.413956
1.6901687,111.096664
1.5438046,110.00619
1.5565087,110.524506
1.5956815,113.05892
1.5457886,112.342155
1.4688245,108.13889
1.4698677,109.12162
1.5350296,110.18886
1.4010689,111.0443
1.3726773,107.43857
1.3008735,110.3396
1.3850197,104.1455
1.2819159,105.22887
1.2637002,104.551704
1.2934701,101.777245
1.3208898,101.57075
1.3172307,102.99942
1.1612405,104.436226
1.1951237,102.93095
1.2162813,99.6959
1.194412,99.07773
1.130461,99.677704
1.1400677,101.89496
1.1524544,99.82945
1.1364405,98.83822
1.1074893,98.12017
1.0346203,94.02584
0.9657585,97.01234
0.9959327,93.916824
1.0219909,91.903496
0.91903865,92.44603
0.9989188,93.9386
0.83892757,90.691185
0.7927348,93.701904
0.90257645,89.47338
0.74358964,92.86305
0.7292205,86.00861
0.62095624,87.10791
0.64887774,89.82851
0.6337006,89.69263
0.53665465,86.39063
0.54299164,84.224266
0.49880615,82.57293
0.4950052,81.908325
0.50106865,79.87051
0.5610712,83.6001
0.52507496,81.63724
0.4964453,78.92518
0.5188672,80.759865
0.50682694,81.30115
0.49012738,76.75815
0.4505338,81.85223
0.42674142,76.29681
0.51419026,78.4622
0.43293634,78.917915
0.4255353,74.66093
0.36803305,79.12415
0.348251,78.6667
0.30101734,78.4245
0.18494248,73.08961
0.31354696,75.09795
0.25218913,76.427734
0.20305817,78.74342
0.06622425,72.92691
0.074467786,77.00613
0.11094057,75.75256
-0.0057165315,75.68673
0.11433158,79.54243
0.07507831,77.90911
0.090474315,76.48669
0.055924598,79.35962
0.10314367,77.90256
0.157326,77.21794
0.07699127,81.83663
0.26047766,83.16984
0.27850038,81.70471
0.3722513,84.0609
0.45693114,85.5374
0.42836452,92.60121
0.60177445,85.726685
0.60195774,91.697876
0.728887,92.02179
0.7283751,94.63424
0.8744476,95.905975
0.9749485,96.53391
1.0530193,93.29487
1.0591608,99.585556
1.1100883,97.44383
1.154864,103.802124
1.1869999,100.68399
1.2256063,107.466545
1.1978531,102.840645
1.3511188,106.98455
1.32744,109.74509
1.3378079,109.14721
1.34607,104.35462
1.3614768,107.33183
1.3201053,111.173355
1.3588173,110.14956
1.4034513,109.85489
1.3229712,111.7178
1.3909489,112.06604
1.4477619,112.824684
1.3519325,112.250534
1.4079093,117.101295
1.3164793,115.78151
1.414409,114.4388
1.3222324,111.45303
1.2602789,107.79963
1.2156655,111.17118
1.2038101,109.89527
1.2441211,109.175095
1.1685208,110.444824
1.1935339,107.197105
1.1029937,105.66487
1.1006073,108.25931
1.2106618,106.671936
1.0390482,106.20165
1.0186355,108.56255
1.0233928,105.04537
1.0118434,102.541855
0.9634362,105.15678
0.95674723,102.187485
0.9478762,106.35493
0.9719214,104.06165
0.9632489,98.95148
0.92553395,99.73911
0.8926571,101.68788
0.8385578,102.73111
0.916871,98.790825
0.91331136,97.42766
0.8750052,96.153145
0.9093283,99.981895
0.79081756,93.9715
0.7898872,98.12974
0.80451524,94.42175
0.77216595,91.91588
0.74735403,92.001495
0.68706936,91.63623
0.63841933,89.22798
0.5686994,94.135994
0.5691259,86.33214
0.536644,88.242195
0.5504697,89.9297
0.45539147,85.15302
0.43478906,84.81854
0.4799474,86.29732
0.38489938,85.62708
0.38205048,83.48957
0.3756298,85.45153
0.33065474,87.44813
0.41037604,83.36548
0.32710335,83.67372
0.27855736,82.70369
0.28688747,81.54897
0.368862,80.7081
0.30585715,79.74232
0.3531249,79.37178
0.36089134,77.759766
0.33510262,79.538795
0.3710531,74.92879
0.3172702,78.71427
0.28672647,76.92726
0.22943056,74.85415
0.15148379,74.552025
0.2500704,79.385216
0.13215792,75.603615
0.112470634,75.82485
0.09788843,72.10024
0.107609995,78.31319
0.043553725,76.32789
0.11663682,75.86173
0.022357726,76.36342
-0.054350227,77.68908
-0.0111442385,73.48067
-0.002861553,79.06874
0.04689539,77.373535
-0.076487325,81.83653
-0.0017205687,80.873215
0.047152713,81.33172
0.19448544,83.36948
0.108446814,80.513
0.19341104,84.84848
0.30000845,80.34015
0.44354618,87.5307
0.43309745,90.31573
0.47732705,87.556305
0.6826801,89.49153
0.70425016,91.099495
0.7775999,95.782585
0.80041724,96.899994
0.92925894,95.414314
0.9906687,98.33726
1.1445868,97.877625
1.0922686,100.11694
1.2078822,98.78329
1.2103904,102.97564
1.2910403,100.8286
1.3671201,104.2412
1.425504,110.88918
1.3951689,105.413795
1.444121,108.94007
1.4335035,109.01477
1.37221,105.114456
1.4524751,107.997086
1.4650339,110.714294
1.520117,110.95314
1.4104037,113.850395
1.4416734,107.79813
1.4922645,111.22223
1.457355,112.34665
1.4341675,114.53864
1.5363301,112.35198
1.4699064,112.984764
1.4999589,110.061935
1.4196329,112.29746
1.4211345,112.12148
1.3834792,112.9518
1.3222648,117.52399
1.3882505,105.730225
1.3339673,108.389
1.2929491,110.243935
1.2491083,107.026405
1.313819,106.816734
1.2353964,104.310196
1.195192,106.900696
1.131571,101.74939
1.1952806,106.02297
1.1320342,104.44657
1.2034785,106.394104
1.0886979,101.0597
1.1685107,103.09329
1.1430464,103.42248
1.0831157,104.51931
1.1357814,100.72729
1.1445231,101.12599
1.0947344,99.16594
1.0508177,100.28413
1.0793566,96.7186
1.0549706,96.41658
1.0153522,97.74828
1.1187367,93.88453
0.9935364,93.477875
1.0854709,94.82081
1.0072876,90.24617
0.8929483,88.17104
0.8661649,96.10605
0.8615193,92.98137
0.8087304,90.27149
0.8178753,89.69793
0.73966414,87.9022
0.6700611,87.906
0.67370075,89.353
0.7145532,86.2853
0.6507912,85.48173
0.7377859,85.28846
0.63073677,83.66378
0.58593774,82.48999
0.7001849,82.02561
0.6979733,82.07079
0.6123405,79.625496
0.6186422,78.10171
0.6551973,81.893814
0.61964774,80.49454
0.63530624,77.827866
0.67632705,80.24806
0.6118731,76.7054
0.59685135,78.6957
0.6610709,79.56979
0.64468193,77.83313
0.6471474,79.5757
0.55154973,76.18199
0.5707675,79.02606
0.6090766,74.0137
0.44299376,74.72532
0.46513218,73.67323
0.47023028,76.18046
0.38055015,75.55661
0.36521584,74.097404
0.3728154,74.57607
0.3180428,78.667984
0.3546613,77.08529
0.2969206,80.73946
0.3362611,76.68686
0.28849584,79.30026
0.43035373,78.814804
0.4066121,81.62113
0.36907423,83.79161
0.4983447,78.9613
0.62937194,82.79417
0.5804863,82.198746
0.7380884,86.2985
0.744775,87.02813
0.9236913,87.58126
0.89466625,89.24336
1.0620123,91.84371
1.0910159,95.74436
1.2453617,93.30336
1.2301176,98.315094
1.3845974,98.560074
1.4171952,100.49181
1.4439273,97.47156
1.4989024,99.96122
1.6249167,104.4029
1.6532334,103.040184
1.6374018,100.46747
1.7554579,104.94876
1.8049643,104.47216
1.7208639,106.837265
1.7537695,108.44954
1.7060956,111.83691
1.7888851,109.10454
1.8786842,107.76708
1.8105074,109.02115
1.8799142,114.38556
1.8298768,111.17094
1.8757831,112.50371
1.800333,115.23862
1.7598878,113.51965
1.9088883,115.11436
1.8621913,112.821236
1.7852887,113.4648
1.8426595,110.48532
1.8218907,106.50282
1.7213284,112.72814
1.7523261,111.13579
1.6248426,111.32024
1.6464584,109.274864
1.614451,105.994415
1.6690077,113.92275
1.6057341,107.90711
1.5348465,105.489624
1.5811917,107.43868
1.5123972,106.48483
1.5687423,100.81689
1.4651861,105.26403
1.5105999,106.393684
1.4502215,104.77719
1.4660307,102.35991
1.4000423,97.98803
1.5240922,103.47475
1.4585733,97.58332
1.5074594,97.10262
1.3952132,99.14594
1.4705513,104.34851
1.4609234,98.13038
1.5043327,98.65822
1.4175099,97.298744
1.3388346,94.55667
1.2663174,93.360886
1.2514739,91.70261
1.2738793,92.79227
1.2024033,93.28078
1.2353268,92.06304
1.2186075,90.88701
1.2082027,86.89786
1.0962582,87.20037
1.1233274,90.85569
1.0571437,91.22547
1.0392867,84.60462
0.98377156,85.82374
0.9128404,87.12663
0.9378964,85.82038
0.90132654,86.03059
0.9624139,82.725136
1.0129386,81.49146
0.8764113,81.7686
0.91781455,81.273224
0.93745345,85.02437
0.9474289,82.807
1.0292889,80.9885
0.9087639,79.21986
0.86284053,76.62786
0.86265033,74.26395
0.909721,77.967926
0.7797677,78.88707
0.8733595,78.72393
0.8647089,76.95847
0.8208034,74.44676
0.79513055,75.63558
0.76691383,77.24467
0.6760538,75.68494
0.6309233,76.56003
0.6404144,73.55891
0.63468015,73.439644
0.6166983,74.38628
0.53481144,74.78112
0.48336607,78.42931
0.5615323,78.82906
0.5788467,79.32602
0.6038991,81.06618
0.5538786,79.10401
0.5763811,83.18183
0.6525386,86.44538
0.6265921,81.49331
0.6839931,83.604515
0.753333,84.09038
0.83966035,86.075516
0.8722432,87.284134
0.96844995,88.31722
1.0804404,86.46778
1.1892655,90.12464
1.1389228,94.17187
1.2094752,92.801636
1.3889889,95.22903
1.4213473,97.26004
1.4267881,94.50811
1.5346147,96.28071
1.6672958,97.94553
1.7411776,98.55345
1.662251,101.47971
1.7640326,103.898544
1.7661952,106.66152
1.849555,106.89168
1.862644,102.564026
1.8529834,106.76271
1.8894517,110.27853
1.8894188,107.346466
1.8850664,107.487015
1.9813597,109.883606
1.9489113,109.298546
1.9451234,109.861176
1.9269918,112.18028
1.8859147,109.502045
1.9276489,111.08079
1.8966115,111.37467
1.9286335,115.89947
1.8990897,113.06027
1.9433589,111.60683
1.8315169,110.59958
1.8077317,111.23741
1.7493827,111.815094
1.7957473,109.69892
1.6582999,107.136444
1.6540914,112.58849
1.6928262,109.63677
1.6508492,109.05833
1.608807,104.466156
1.582599,107.91824
1.554969,108.75586
1.4811296,104.266045
1.492105,103.622025
1.5103184,105.542564
1.4443578,100.540985
1.5054566,105.00623
1.4749815,103.471016
1.3639263,102.25182
1.3607248,102.707535
1.4037544,99.74498
1.447733,99.00374
1.3784151,95.85255
1.3889955,98.93762
1.3929018,98.5011
1.4071957,98.47302
1.322291,96.271385
1.3789409,93.88679
1.32709,94.63276
1.2058218,92.24565
1.1723138,90.47462
1.2335804,94.970116
1.1855476,88.971275
1.1249129,92.58997
1.0053486,91.79724
1.0605552,88.105965
0.9789204,89.52094
0.88821346,90.50577
0.8303726,83.438866
0.8316193,84.231125
0.8659826,84.63725
0.7194694,82.12459
0.7928673,84.315735
0.79048467,83.415794
0.7536713,83.33494
0.8014398,83.89672
0.7088642,81.50471
0.792132,81.7919
0.7537541,83.38766
0.77310216,79.35762
0.74122465,76.29878
0.774289,80.1169
0.69721437,75.63283
0.8026377,76.94123
0.7046204,79.98796
0.75153613,76.313095
0.637536,76.1369
0.6406572,76.76127
0.49765024,74.27228
0.5439609,76.52967
0.49911183,73.30391
0.44162267,72.25248
0.5084368,73.04454
0.39924678,78.41927
0.37128448,74.55711
0.28311658,75.646385
0.29453716,77.077965
0.25939652,75.45586
0.23219782,78.00936
0.3190201,79.52997
0.28154698,77.334175
0.3202529,75.73845
0.30399194,80.53476
0.3404004,81.79386
0.4571393,80.87369
0.4585552,83.944336
0.57610476,87.805084
0.5439312,86.646416
0.6769023,88.59966
0.7375578,87.079254
0.8626797,91.67974
0.8831056,91.11637
0.92913646,90.08688
1.0690843,96.86555
1.0637767,98.79751
1.1722001,95.66171
1.2464372,97.63382
1.3828827,98.49269
1.341872,103.11031
1.4162936,103.30913
1.5310079,104.552345
1.4849857,107.47803
1.5909699,102.26968
1.5858407,103.23266
1.5765865,105.74129
1.6553034,107.363106
1.6104238,109.56183
1.5602648,108.240036
1.5444962,106.16931
1.6079473,113.466545
1.5923693,110.04111
1.601303,113.83604
1.5207834,110.542274
1.5387101,108.07982
1.5600199,109.630775
1.5479327,114.87172
1.5739621,111.90648
1.5279992,111.78394
1.4905202,111.30508
1.4847778,108.337234
1.4025028,111.926865
1.4588722,111.069695
1.3362045,114.83541
1.3184125,109.55864
1.3657525,109.16922
1.3294804,111.7517
1.3094563,111.02154
1.2262425,108.91469
1.2548643,108.02348
1.2193806,101.61245
1.112145,103.018196
1.1169547,101.62597
1.1104257,106.719086
1.127937,104.276054
1.1670991,104.57873
1.087775,97.656586
1.0729761,103.44429
1.0045218,100.80716
1.0157787,101.354126
1.007081,96.640976
1.0560497,97.84377
0.98791856,97.791084
1.0034729,96.500244
0.96128595,95.806
0.93635267,97.18603
0.94741076,93.912994
0.8322244,93.94274
0.8417058,94.27453
0.8561107,92.14165
0.79370856,92.73505
0.72190064,91.28044
0.7278601,91.25528
0.63513494,89.01356
0.67918587,89.88403
0.5276384,86.95122
0.5337555,88.253395
0.5080763,87.2316
0.48024428,85.21221
0.49396405,84.64054
0.4365395,81.19332
0.42377624,83.10241
0.35377562,80.78386
0.46131322,82.62817
0.36634484,79.41605
0.439892,80.99688
0.47153765,80.3584
0.32206687,81.78483
0.3696986,82.46069
0.38070855,80.94794
0.36265144,78.3853
0.30401796,79.26715
0.3377912,75.682106
0.318603,74.41364
0.29207903,78.09443
0.36607072,75.610695
0.20917416,76.19085
0.19103584,74.02054
0.19695802,74.826004
0.15293233,76.1721
0.104843654,75.258675
0.09893184,77.350426
0.0015295013,76.70042
0.011766804,74.25469
0.014064333,74.390594
-0.025271978,76.795395
0.052515816,76.45194
-0.14525667,79.849525
0.024551997,76.93338
0.010500185,79.21747
0.018609349,81.64164
0.11834893,76.832794
0.111793265,84.740585
0.19234958,82.12196
0.24777435,88.78488
0.23553754,85.88443
0.30372995,89.34755
0.44444826,89.40539
0.4551593,92.00794
0.5957614,91.015114
0.6685816,96.88334
0.6734193,93.795845
0.75382286,96.87213
0.7963747,98.19459
1.0220058,99.94468
1.0605544,101.63251
1.080641,104.35827
1.1654034,101.36347
1.2461574,102.69293
1.2214367,104.54592
1.2564834,103.29638
1.2795112,102.3302
1.3346472,106.56858
1.315085,112.917816
1.3347511,107.412636
1.2756115,106.65561
1.4132419,108.881
1.4911822,110.35245
1.4022948,108.10998
1.3953186,107.9503
1.4261466,115.45485
1.4296079,110.85064
1.242812,111.813126
1.3505303,108.23274
1.3047626,112.19335
1.2056465,112.05534
1.2840377,110.738434
1.3019049,113.52897
1.2429367,109.19344
1.1817185,106.89182
1.1356936,110.66592
1.2892674,108.53314
1.093743,111.67401
1.1560715,108.78306
1.0565417,109.5801
1.0859593,108.96931
1.0394003,107.90813
1.0229796,109.89912
0.99021125,105.36449
0.9448726,102.29363
0.98204947,102.48365
0.9355704,106.245285
0.9606048,99.80984
0.9213953,105.8709
0.9907369,101.00444
0.9117196,103.32105
0.84484065,95.44137
0.8768571,97.2537
0.8699589,99.05572
0.8728903,96.01619
0.8530239,98.167114
0.8676264,96.172325
0.7989957,95.932915
0.85729694,92.04295
0.8794799,97.93887
0.80870104,92.73242
0.6947466,91.96736
0.7403238,96.388565
0.6277875,91.391754
0.51425934,89.74298
0.551821,89.02392
0.5320264,88.370834
0.5162723,90.22873
0.44074404,88.16535
0.48518446,88.317055
0.5134047,88.25235
0.41325018,83.390236
0.38016447,86.17453
0.4672501,82.59747
0.48823437,84.72072
0.37539554,85.20367
0.3309152,79.84477
0.4558358,78.66467
0.34815413,78.20641
0.42246655,80.8305
0.34919935,79.209496
0.46222514,77.2581
0.31416503,76.403915
0.37671098,79.290565
0.36906275,78.231964
0.41247654,80.311
0.34144786,76.2627
0.34537238,74.805016
0.25066173,78.672585
0.29860336,74.19376
0.30495474,75.66721
0.2362025,73.906815
0.15438053,72.17334
0.1647198,73.630394
0.11358547,75.77332
0.18179218,79.91862
0.18390514,77.22323
0.058275066,78.664795
0.112718284,81.49242
0.097054236,77.76954
0.06758926,79.670555
0.05054347,79.75306
0.12763378,80.31216
0.20150067,79.16883
0.24184385,84.36666
0.2498817,84.638794
0.3392268,82.705284
0.3685461,85.329956
0.45411333,91.71957
0.5371436,90.39854
0.65653145,91.99358
0.74842465,89.850334
0.85002613,91.4602
0.9647792,92.83253
0.9699701,92.34701
1.0487183,97.330666
1.1514678,96.02288
1.2306186,101.66758
1.2339948,99.30395
1.3075668,99.365234
1.4347334,103.1107
1.3735265,101.46316
1.4485005,101.83549
1.4669802,107.181305
1.5483543,105.35999
1.4736327,107.99168
1.6361964,108.85005
1.5118355,108.26749
1.5678177,112.02782
1.6187499,110.58394
1.6444474,109.52835
1.6267449,111.3966
1.5769005,111.48056
1.5691757,107.81146
1.6048484,115.537155
1.5372161,110.31926
1.5426117,112.466736
1.6241264,108.39782
1.547986,111.03958
1.5439894,115.11796
1.5224173,109.11035
1.5226829,109.99719
1.4858779,110.34446
1.4677447,105.55284
1.4262949,105.21047
1.3642346,113.563034
1.4075341,108.1459
1.3514167,105.64233
1.4537755,105.048164
1.3272192,105.86944
1.3437172,107.31745
1.2724372,104.618805
1.2279824,101.12231
1.2858996,105.05328
1.2159678,103.08865
1.2067364,106.23931
1.2506733,105.084
1.2036569,101.02568
1.1897535,99.650795
1.2421192,99.17817
1.3147088,101.06689
1.1896881,98.8632
1.2658489,95.78638
1.2654881,96.89263
1.2218747,97.102905
1.1717355,93.10443
1.1220571,96.1326
1.0955795,95.94983
1.083094,96.50124
1.0138807,94.49566
0.9992326,97.59872
1.0231507,92.95125
0.89648277,88.87388
0.92118746,85.40051
0.96249115,86.71534
0.840101,89.93507
0.77835375,84.07398
0.84896696,87.885796
0.7401108,86.73989
0.8633586,82.32202
0.74477726,82.45926
0.73289704,84.53318
0.76839966,83.355095
0.8412866,75.92606
0.6763653,82.2456
0.8490757,79.02414
0.81274396,80.52397
0.74263084,81.90314
0.7142159,77.48118
0.66820407,78.46116
0.7230264,77.96813
0.71840376,77.02957
0.72723264,73.98413
0.67417336,76.201256
0.8094265,77.48484
0.6861971,78.36776
0.67810214,73.41064
0.63664407,73.9222
0.5513531,77.61653
0.5229455,77.83295
0.56253076,76.6605
0.41985494,77.87027
0.47186026,75.53123
0.4549934,75.36961
0.4410302,76.8017
0.50901824,77.57939
0.39018893,77.34623
0.45100588,77.22191
0.41443864,76.97769
0.49317163,81.17621
0.50309324,80.46571
0.6297206,78.73924
0.64303756,80.022934
0.6664747,82.26592
0.77282137,83.25451
0.90742666,85.51781
0.9321425,90.61854
1.0596988,89.07668
1.0917093,92.07731
1.1147585,93.19859
1.3130808,90.393105
1.3026963,95.87802
1.452115,98.06354
1.4889275,96.127884
1.5887471,95.435196
1.6235387,100.674385
1.6571441,99.74543
1.6704751,104.99914
1.7768389,102.04416
1.7871042,104.600945
1.8425714,106.50743
1.8997184,107.11152
1.8985157,106.56685
1.8428684,106.14921
1.8971031,106.60369
1.8779756,112.32919
1.9436227,107.72564
1.9393585,107.93982
1.9541392,112.22796
1.9841897,111.68682
1.9061304,107.2281
1.8053082,114.249954
1.8438509,115.415726
1.8386549,114.39045
1.922039,115.192055
1.7943181,112.21292
1.9099871,110.55145
1.8282169,112.12976
1.8050681,108.06989
1.7879999,115.40588
1.7908452,110.67827
1.7287633,108.832726
1.6935118,109.216225
1.6844629,107.86029
1.6758971,105.84071
1.6280422,105.013535
1.5948962,108.27469
1.5832616,102.685295
1.5550324,105.01426
1.5905318,102.218315
1.5945421,104.06302
1.5255866,100.03443
1.5010529,100.91696
1.4917097,102.58597
1.5777558,96.469734
1.521423,102.75256
1.4849763,98.33157
1.4428083,102.035324
1.5152562,100.64304
1.5019379,99.08413
1.4699109,97.62326
1.4884413,95.66953
1.442588,94.888626
1.328843,96.69762
1.3246176,92.97983
1.3688171,94.71201
1.2590996,91.78301
1.2515397,93.534256
1.1570183,90.05645
1.2345469,88.66817
1.1676785,90.353134
1.070899,85.56275
1.1334819,86.075294
0.99134,89.972115
0.97778547,89.658035
1.0071183,85.113754
0.94244397,87.769424
0.9361147,83.61595
0.98976684,84.45679
0.9386098,80.10183
0.93824327,80.79844
0.90749586,80.37519
0.9262574,82.68617
0.9158096,78.10157
0.85897785,80.84423
0.93422127,75.16367
0.9941362,76.72794
0.8825884,77.64811
0.91184413,76.27888
0.80214596,77.11289
0.84996426,76.16846
0.768306,77.04281
0.7586073,75.60787
0.72345877,73.03644
0.73076606,74.90268
0.6525075,76.378494
0.6044344,74.26313
0.7790632,75.299995
0.46774366,75.52232
0.4930965,76.2035
0.5465655,76.2867
0.57675576,75.54282
0.4379151,78.4221
0.4959588,76.31566
0.47729897,76.734085
0.57787836,78.162315
0.6075307,83.17934
0.46687388,79.41377
0.61754656,83.25199
0.6802252,85.71023
0.67772424,83.22609
0.8557512,88.67986
0.8190416,88.14112
0.89818734,87.34269
1.0450975,89.21796
1.1516459,90.67239
1.1514475,92.17444
1.2902235,91.256615
1.361937,92.88029
1.387678,96.53782
1.4968824,96.4537
1.4745607,97.32175
1.5645036,97.574165
1.5904582,97.89434
1.5566874,102.38824
1.6169362,102.72688
1.7028263,102.021
1.798011,103.23379
1.7354444,103.63493
1.8213133,108.50632
1.8336394,107.03627
1.7648697,109.945526
1.8842878,110.219986
1.8774331,110.051506
1.8489264,108.40722
1.8998629,108.66718
1.7998759,111.58636
1.777919,107.71907
1.8673707,110.90474
1.7862039,111.77918
1.7945039,111.81237
1.7973813,112.24254
1.7741214,110.864685
1.8383574,111.85184
1.7762873,111.053635
1.6803863,112.71205
1.6962695,108.3065
1.6025027,108.36683
1.6375058,108.36486
1.5620786,106.214
1.4808918,106.93539
1.5226042,108.17299
1.434219,107.177414
1.4937327,104.186905
1.4696531,109.120346
1.4809722,106.42377
1.4802593,96.84377
1.3341838,107.7957
1.3213211,100.47926
1.3106378,102.652245
1.2801731,101.607605
1.3789642,103.08486
1.2959335,101.78179
1.2261438,100.04469
1.3030416,96.69628
1.2219325,98.908745
1.3088577,100.534424
1.2566878,97.38503
1.0930351,97.29917
1.0863763,99.71174
1.2191799,95.868164
1.1330699,94.86747
1.1789054,96.64426
1.0055752,90.650375
1.1089264,95.02989
0.9869804,92.10279
1.0322818,87.05967
0.893206,92.841736
0.89731944,90.963455
0.8057701,88.39074
0.6707279,81.387276
0.835926,88.36903
0.71393687,82.445854
0.70715255,82.23335
0.66682744,87.92218
0.65474457,80.08403
0.59651196,84.22925
0.60219294,82.389725
0.65873426,81.21472
0.65807927,81.29365
0.6725948,79.40087
0.6088175,79.29913
0.5771134,83.47542
0.60708857,79.00006
0.5263268,78.13668
0.5596783,76.625984
0.6291458,81.14009
0.5096814,72.04378
0.50774467,75.86669
0.46170112,75.30774
0.4477843,79.506195
0.40855852,73.53748
0.4338017,77.08036
0.2608712,73.70321
0.27117532,71.73304
0.28736076,73.81899
0.2930433,79.929756
0.2131521,74.94663
0.23419698,74.51346
0.2122782,75.78901
0.230258,80.43372
0.18664774,73.951614
0.17753395,82.046906
0.23661469,76.905876
0.15336405,84.60317
0.26151174,78.99266
0.2976024,86.96648
0.34416413,86.34229
0.356999,84.80448
0.4479415,89.890465
0.6371062,90.03012
0.6432546,90.818596
0.7217712,92.79662
0.77247226,85.47766
0.88689864,91.51789
0.90810364,94.97359
1.0426742,100.12741
1.0422819,92.823326
1.2234267,96.423485
1.2119048,100.61738
1.210927,101.337204
1.2940993,102.66749
1.394038,101.366425
1.2692218,103.01227
1.4729073,99.97269
1.3834152,105.65743
1.5217348,110.77956
1.4722687,104.587234
1.429388,109.18311
1.3995309,110.30922
1.4214499,110.147995
1.4299601,106.330696
1.513513,110.371605
1.5134746,113.38179
1.3993491,108.348785
1.5000122,111.55501
1.4204326,111.93931
1.374571,113.99226
1.4637914,112.28558
1.477287,112.98283
1.400188,111.72311
1.2862377,109.24202
1.3230021,111.007286
1.2602003,109.19435
1.2993995,107.49975
1.2490354,108.64564
1.1369022,106.81222
1.111033,107.661766
1.1677349,110.78083
1.1287369,102.862335
1.1597393,105.04147
1.1319134,108.442726
1.0725139,106.081085
0.9975661,104.87596
0.974904,100.77544
1.0098,101.89954
1.0286344,100.740135
0.9389693,101.16925
0.9437831,102.22059
0.88202566,102.120026
0.97374237,105.22973
0.99402493,103.71249
0.9362526,97.419334
0.97062236,100.405174
0.87017804,101.46538
0.8928605,91.41913
0.8199655,96.08164
0.8124259,92.99887
0.7898096,92.46634
0.78627354,89.344025
0.7365222,89.95533
0.69179565,91.52903
0.732791,89.858826
0.60436976,90.5655
0.6668311,88.05937
0.48277476,86.07269
0.5180398,89.89967
0.41425082,86.15158
0.43026084,87.87835
0.45037487,85.19585
0.48523653,84.455284
0.37504572,88.53295
0.3327541,86.22851
0.32935777,81.83788
0.42352593,82.39552
0.34252015,81.58334
0.33858737,75.9517
0.32595423,84.21544
0.34439513,79.405365
0.35598683,77.68479
0.27494282,82.9971
0.24929795,74.76913
0.27107286,77.29254
0.29017153,79.43531
0.25979692,74.10838
0.22269796,78.00624
0.12537281,76.638855
0.18917643,76.26058
0.24079108,77.95372
0.12008694,81.04194
0.008921252,75.27077
0.0045875595,74.834114
-0.02323442,75.70501
0.046268582,76.05122
-0.09955844,72.09969
-0.011859463,77.84774
-0.0802051,75.39315
0.029617721,77.994804
-0.09583256,77.09341
-0.05461453,80.495514
-0.038281366,85.33713
0.06244207,78.147644
0.10814724,80.628494
0.08506212,82.75654
0.15867776,81.80467
0.24042259,84.05739
0.34622854,84.928345
0.39789468,88.88361
0.49536553,89.4367
0.5301073,91.56996
0.55682176,93.17604
0.7279122,95.06485
0.78282523,90.13118
0.87294424,94.52071
0.85828334,96.9682
0.9311274,98.282455
1.0863128,96.66897
1.1394348,98.94596
1.2139236,100.51976
1.2229387,101.279915
1.2804374,106.41031
1.2630671,102.63664
1.2925948,107.814705
1.3984363,106.22458
1.3235966,105.816216
1.3628925,112.56135
1.338055,112.18773
1.4113307,113.170006
1.444238,116.29868
1.3970634,110.45823
1.4274877,108.99073
1.3706625,113.09065
1.2941961,111.8604
1.3560736,112.1506
1.3291667,113.623886
1.3781018,113.58508
1.4538018,113.801704
1.2351279,106.042206
1.2979095,112.980354
1.2670105,108.36142
1.1775723,113.09926
1.2865701,112.64242
1.2106974,110.015
1.2036073,112.14839
1.1419072,109.03792
1.1664646,108.68591
1.0866443,104.84709
1.0509579,106.51616
1.1516774,109.57088
1.089758,103.392204
1.0307066,100.97387
0.98198426,106.49575
1.1744306,105.17446
0.9769563,105.30845
1.0338738,101.202934
1.0842621,102.35606
0.95487916,101.28829
0.98378086,95.74036
0.98646945,100.52757
0.9857425,99.112724
0.9716028,96.31091
0.9988569,96.22303
0.9716968,97.2376
0.9054911,95.97075
0.95082366,94.186035
0.8476608,91.88604
0.84599197,91.61475
0.7849032,89.02625
0.76955277,91.19725
0.7371317,90.5642
0.6943494,90.40924
0.7079388,88.92056
0.7220034,87.76915
0.58427614,86.807396
0.59918463,85.70792
0.6690653,84.86458
0.51631707,86.55777
0.5333928,78.27131
0.60592306,82.81237
0.53004897,84.150024
0.54178303,85.54328
0.43040094,78.745995
0.5328151,79.425575
0.55018544,78.521706
0.45846707,84.241585
0.46446925,80.5523
0.4742601,74.00681
0.51635844,77.02897
0.48244008,74.89619
0.45767125,80.10617
0.49785095,77.68098
0.47093222,77.58835
0.49843314,77.02662
0.31344724,75.12385
0.43452498,71.25125
0.35836926,76.47082
0.3058874,75.87576
0.3522588,74.32122
0.3438932,78.52502
0.40057635,75.342804
0.1990388,74.670235
0.16790187,72.44604
0.22951436,76.55249
0.22376736,76.28763
0.17173265,75.89586
0.2745594,78.93749
0.20810892,78.30905
0.24926724,79.45502
0.24833688,82.18381
0.35524887,78.44607
0.3517682,84.4598
0.35628617,82.30968
0.49153396,82.084145
0.59570116,85.356514
0.62611955,85.652885
0.72759515,91.088
0.83021927,86.47335
0.8475673,92.846214
1.0465709,89.212715
1.0504835,96.676056
1.1510701,93.18092
1.2565764,97.56763
1.2307221,103.41192
1.3157299,97.266266
1.4105853,103.08484
1.4418715,97.44667
1.4683266,101.30357
1.5167661,102.506294
1.5993075,106.500786
1.5727215,103.382996
1.7135302,108.3029
1.6519833,105.892136
1.7125695,111.9283
1.7212526,111.87302
1.6955684,109.83972
1.6853981,107.94558
1.7715548,109.29005
1.7905805,110.3909
1.7014066,111.14543
1.7304631,116.65827
1.7393221,113.90544
1.7153829,115.67587
1.7559917,112.78312
1.759789,112.3767
1.6810278,109.23033
1.6916313,110.796585
1.6960796,116.30679
1.6419173,108.64281
1.5560126,107.562546
1.5898067,108.94161
1.5576309,111.87616
1.4227827,110.713524
1.527975,112.96354
1.4626044,110.1812
1.4292161,107.78446
1.4272223,108.457565
1.396125,106.249374
1.4340655,104.94269
1.4449738,105.45067
1.4492481,103.58911
1.4299964,100.16799
1.4299285,101.03035
1.3970976,98.814476
1.3976841,98.45194
1.3388687,102.76158
1.3435133,101.127945
1.3580686,99.82186
1.31403,100.12496
1.3411976,94.342094
1.3117343,95.1568
1.3142716,95.95169
1.2766858,94.08312
1.3186957,93.05326
1.2129862,89.14031
1.2610669,91.6122
1.1671649,91.69384
1.1636009,90.62297
1.0348629,92.114365
1.0059971,91.024414
1.0504221,92.16994
0.92123556,85.95292
1.0116836,86.32402
0.96552444,89.80552
0.93623966,84.31485
0.9194057,87.15928
0.9013284,83.61849
0.8789525,81.29678
0.87091124,84.87284
0.82712257,83.976456
0.8078054,82.805855
0.8985197,81.98778
0.8712177,80.48491
0.83735025,81.03619
0.93554056,81.52241
0.7835177,78.650055
0.9207633,74.93389
0.8172645,74.02117
0.8149308,80.08731
0.84309626,75.400955
0.7488489,74.389206
0.77083147,74.442154
0.7411974,80.51843
0.72279066,76.675766
0.74361074,75.546585
0.69307363,73.378265
0.66085213,74.239716
0.59729075,78.06791
0.5545843,72.44181
0.57595813,78.55477
0.51714563,78.92046
0.501664,76.86548
0.57771975,78.575745
0.5226351,78.767685
0.5688652,81.06076
0.60589504,82.95022
0.59847206,80.99486
0.66377556,83.88253
0.65781194,82.64489
0.7246762,80.4281
0.8257786,83.49175
0.83350205,84.34073
0.9327577,83.737175
1.037157,87.87883
1.1124982,89.72443
1.2015208,91.69122
1.233011,91.00366
1.3544967,94.4638
1.3702642,99.57061
1.4788496,97.481735
1.5723567,98.8905
1.5838889,94.38861
1.5994664,98.499344
1.792732,96.278656
1.7597904,103.5651
1.7944092,101.76584
1.895063,103.607796
1.8321466,108.06315
1.9090046,108.97723
1.9343263,107.33284
1.9623196,107.32996
2.0302951,111.150826
1.9693899,110.191444
1.9680178,111.090706
1.898474,109.733765
1.9097484,109.9844
1.9733706,110.349495
1.9747593,109.486694
2.0122254,115.79184
1.9346874,113.55046
1.9501958,109.74385
1.9095031,113.23989
1.8009363,115.19344
1.8855733,110.69445
1.813848,109.26961
1.8743957,109.360085
1.7906927,109.02063
1.7121264,111.57947
1.7250081,106.31183
1.788344,110.22845
1.7147641,110.182625
1.6856649,108.70024
1.6679894,109.430855
1.551741,102.88211
1.629512,106.6094
1.5319618,109.215675
1.5821652,103.614075
1.5284928,102.51213
1.5365415,102.79861
1.5284013,97.3381
1.488113,98.06027
1.5736892,94.6124
1.5509195,98.55314
1.4663116,98.92972
1.4377108,97.79986
1.4622501,96.79401
1.4312924,97.42057
1.4278853,95.05447
1.3881857,94.726555
1.390021,97.20694
1.313834,92.05628
1.3085907,92.91559
1.3669752,93.614655
1.172707,93.51931
1.110184,91.17809
1.1325215,93.83426
1.1545423,89.085625
1.116031,86.35623
1.074952,92.51295
1.0198168,86.842186
1.0361224,89.2238
0.9411514,87.62893
1.0148892,86.692024
0.83596605,84.210815
0.8679562,85.68164
0.9009002,84.80441
0.8699261,78.83702
0.82663417,82.2652
0.90467376,79.729774
0.8681519,80.66856
0.82424337,85.44456
0.9184827,83.011566
0.7860313,76.796906
0.7668062,80.24349
0.81130207,76.844086
0.79803884,75.165
0.82709867,74.80042
0.8286939,74.30205
0.8387292,73.22019
0.7085524,73.29235
0.6821602,75.92049
0.6599964,73.93987
0.52702105,76.5505
0.51980585,78.754524
0.5680995,70.29389
0.48938888,74.64899
0.47836128,77.045135
0.43346322,73.34442
0.4899286,76.05185
0.43701804,79.30221
0.45780614,80.8492
0.49700993,76.54397
0.47069642,77.98559
0.4857802,79.52598
0.4905309,81.2238
0.61428577,82.212814
0.5807249,80.75929
0.72815496,83.43387
0.73930246,83.78437
0.79964274,86.38492
0.8411252,85.70301
0.8659983,87.59675
0.9446768,88.550995
1.0040535,92.72563
1.1279955,90.67583
1.1555974,96.11245
1.3477287,97.33208
1.2959789,93.085144
1.3849906,97.0429
1.4115626,102.92357
1.5089705,102.155945
1.5388453,100.944984
1.5931981,105.5713
1.6575556,102.11876
1.7002488,102.15317
1.6233057,104.30736
1.6990306,108.93159
1.7777731,108.91836
1.6025114,109.45592
1.7746454,110.44376
1.7927506,108.29249
1.7106076,113.63388
1.7411404,108.593834
1.6994227,113.879425
1.7267632,113.80086
1.6502978,116.807594
1.6798961,112.349915
1.6535152,112.32156
1.625821,112.60612
1.5562642,110.30658
1.6095492,113.34146
1.6438978,112.36717
1.5929229,106.851036
1.5548533,110.70977
1.4925308,109.79755
1.4665424,111.45054
1.3731673,109.30022
1.4625323,111.12547
1.3937726,106.35884
1.3732628,109.44583
1.3548621,106.54004
1.2855251,105.87582
1.268393,107.32855
1.252473,105.764565
1.3160788,104.31487
1.2497852,101.65887
1.1499732,100.29648
1.2568171,104.53825
1.1671056,98.59054
1.1355841,100.071396
1.1804265,97.45426
1.115164,99.26736
1.139088,96.37894
1.1116126,96.73813
1.0635694,97.99516
1.0418855,93.43305
1.1557028,98.86201
0.9869234,95.95831
0.93474215,94.096405
0.9269497,94.457726
0.9108429,92.88182
0.8678867,93.24733
0.845824,90.994804
0.73736995,91.43317
0.7639324,91.13862
0.7832892,87.56468
0.67549783,83.91082
0.59044677,84.25389
0.5960745,86.25985
0.65029585,84.459206
0.5302218,84.96498
0.5164517,86.39373
0.55204284,83.50027
0.51042384,83.30937
0.54371107,79.34493
0.4992525,79.810104
0.50369,81.8542
0.5077652,78.56733
0.48858088,80.77398
0.5875431,76.58805
0.46357495,76.174835
0.44020885,79.9504
0.43490067,78.4637
0.41838533,70.04645
0.437994,76.93397
0.43635362,74.66736
0.31814265,75.466484
0.29148832,75.89157
0.2171379,72.29407
0.27191994,76.56179
0.23775566,73.16033
0.22036912,72.71847
0.1002186,73.47584
0.12132394,75.792496
0.03697499,77.66844
0.03978293,79.34414
0.05139173,77.00874
-0.025636254,79.35683
0.042367928,78.2441
0.11836054,80.40993
0.039245643,78.221886
0.14623393,77.968094
0.18826249,80.443275
0.21585736,80.27196
0.29561147,84.47761
0.33438817,86.966034
0.4122312,87.5932
0.46970823,86.72908
0.5263707,88.176605
0.63228,90.941154
0.77389467,90.61347
0.8178116,92.6882
0.83268553,91.21233
0.9925643,93.439545
1.0482035,95.476265
1.1133621,97.12004
1.1221448,94.911736
1.1579789,98.37388
1.2163342,101.49024
1.2540706,104.77195
1.2319363,108.182396
1.3779624,105.25043
1.2601616,107.76525
1.2573384,106.88972
1.3365749,106.44903
1.4026629,106.66048
1.4192004,112.31659
1.3739245,109.679115
1.4134536,113.019356
1.3135169,114.83701
1.3651079,112.08404
1.4218086,113.38158
1.400167,111.71048
1.3121456,114.262215
1.3126779,109.37946
1.3831322,111.77822
1.363409,109.56689
1.2592579,111.360306
1.2080721,113.343994
1.2201437,110.62963
1.2331159,107.725876
1.1924239,108.48889
1.1649157,109.20496
1.1335129,113.79525
1.1262461,107.28006
1.2134306,103.50463
1.0714957,102.92532
1.0081958,106.38985
0.9311165,102.12501
0.98898154,101.97676
0.968328,104.72524
0.9564844,105.59217
0.9316151,102.144516
0.92849344,102.91475
0.97924954,99.369896
0.9137472,99.00248
0.8551771,98.76191
0.9629762,99.882065
0.86441076,100.04837
0.8622215,98.42528
0.8074501,96.004684
0.84830445,96.54179
0.80241346,98.13665
0.7917777,95.19958
0.8459781,93.36999
0.7769888,93.65286
0.81005156,93.24722
0.63922036,91.67339
0.5718146,93.168015
0.6082092,93.05265
0.6479444,89.04268
0.46096215,88.81263
0.552316,87.38611
0.3499374,84.44402
0.38224977,87.090645
0.4061306,86.2162
0.40939996,85.40057
0.37954843,87.49532
0.3872197,82.08192
0.33876282,79.64297
0.39987358,79.437546
0.38814372,83.30041
0.368826,80.259
0.30508712,79.52763
0.3290745,84.28827
0.3688755,76.83205
0.36823973,79.93603
0.26728106,82.20367
0.377043,77.36312
0.35461405,72.98909
0.29810482,73.10074
0.25077757,69.44284
0.2329904,74.89564
0.17025323,77.256195
0.2471602,74.63995
0.075315565,72.49354
0.2128012,72.293564
0.11489616,73.67405
0.0073452657,76.66614
0.04584928,74.84065
0.02049764,74.233665
-0.06566258,71.178024
-0.0055205305,79.745316
-0.045555938,77.61667
0.034109466,79.69606
0.05399287,78.83703
0.04778004,82.1262
-0.008369258,80.17983
-0.00085755566,79.47008
0.09004806,85.5726
0.21962047,84.53724
0.13969646,81.22064
0.3256073,82.245735
0.40989992,83.62845
0.39169136,88.707
0.6591318,91.726654
0.57588786,89.19398
0.6125109,91.428444
0.78243285,89.04509
0.8432644,95.00217
0.91429657,94.24447
1.0458496,98.24477
1.0668571,100.25259
1.131544,98.22634
1.1656282,100.98706
1.2684314,102.65978
1.3370459,104.29213
1.330345,102.600685
1.4481746,105.38132
1.4190233,103.90689
1.3153155,112.15943
1.4628859,109.08044
1.4852204,108.64362
1.4518206,114.993835
1.5211306,110.88176
1.3778131,110.64674
1.4582789,108.004875
1.4863857,112.38701
1.448339,110.91344
1.5072217,110.24176
1.4925563,110.23147
1.4150314,110.23365
1.3613565,110.20705
1.4592447,114.866875
1.44879,111.97106
1.3083314,108.05736
1.3000302,108.68748
1.4420022,113.16609
1.3332597,107.52501
1.2530499,109.60696
1.2741257,111.17816
1.1840909,108.3435
1.3066016,109.89901
1.2285129,104.36462
1.1903547,107.49155
1.1137263,108.90624
1.1650468,106.54792
1.1476007,104.077354
1.1797707,102.11541
1.1803052,105.23113
1.0888948,98.58653
1.0351347,105.08864
1.1562486,102.81723
1.0781772,102.01814
1.1124794,101.15859
1.1744819,93.92318
1.0555522,98.74006
1.0216168,95.06801
0.9867654,98.86606
1.002345,95.5293
0.99610025,95.110405
0.9523679,92.63535
0.9574707,90.42464
0.97839546,93.08505
0.92498314,91.113075
0.9649,90.02018
0.87762445,90.08074
0.83956534,92.76109
0.7559446,86.62516
0.79947394,92.48857
0.69262946,90.57727
0.63772196,90.61769
0.72109646,89.69109
0.67984813,86.04775
0.6487437,82.57029
0.64295936,84.10638
0.6834624,83.40184
0.6665152,80.66528
0.6797877,77.55857
0.66356766,81.243355
0.5640228,81.51491
0.60627776,80.894005
0.61370766,79.41663
0.6998822,79.751656
0.69970655,78.38017
0.6164926,75.952156
0.5837046,75.77873
0.58682036,79.80945
0.6295337,75.75724
0.62977266,76.38488
0.51552176,80.40333
0.4557035,75.711555
0.47547776,75.74384
0.4544849,75.80641
0.49096733,76.31327
0.4790148,75.32117
0.28972617,75.363144
0.25487924,78.41683
0.30577606,71.262054
0.39201146,76.118515
0.29509345,76.23351
0.36156604,77.46134
0.3435668,78.41389
0.2983217,78.301216
0.37811518,77.89304
0.3718588,80.642746
0.41690764,84.3617
0.47246292,82.90606
0.5489604,81.55558
0.5973963,87.316795
0.7572402,87.28451
0.8241412,85.872665
0.90493065,88.67695
0.98068374,90.532936
1.026944,94.328094
1.1770982,92.02243
1.1341207,89.75978
1.2727993,96.325874
1.3282701,95.82701
1.4538596,98.13706
1.4524201,96.67219
1.5857924,101.43299
1.5115789,102.406494
1.6270472,102.65663
1.6129194,102.29497
1.7766298,106.42189
1.7784249,106.068954
1.7872546,101.1436
1.790386,110.233284
1.8865613,106.40615
1.773613,102.990524
1.877153,108.61163
1.8485062,110.6834
1.7803135,112.3393
1.786229,116.20561
1.8506976,111.87186
1.839597,107.86505
1.865626,109.39886
1.8789965,113.10738
1.8502496,109.25593
1.8172458,112.51744
1.8157707,113.07486
1.7991627,111.47133
1.7255023,113.84622
1.7594621,113.270355
1.682572,108.478424
1.6863637,109.735954
1.6009022,111.737045
1.6954868,111.48197
1.592503,108.48762
1.5554005,105.3735
1.5510008,107.74573
1.6013438,105.603325
1.4923592,107.81363
1.5309054,106.35495
1.5232267,102.455414
1.5376056,103.13354
1.4663861,104.613075
1.5830963,101.718445
1.4831499,99.37125
1.4943111,102.90046
1.4511203,101.60139
1.4508972,99.72431
1.4291652,95.870995
1.4365883,94.23496
1.530873,95.808556
1.5126557,95.493454
1.4083313,94.54321
1.289866,94.97034
1.3247325,95.526924
1.3178633,97.08695
1.2535456,94.107155
1.3193018,93.47936
1.1502948,91.462776
1.1154964,91.95898
1.1692175,87.15989
1.1003393,91.47272
1.0898027,87.98231
1.0774999,86.36726
1.0161049,84.45821
1.0241759,87.85037
0.9290272,85.97299
1.0328252,81.65517
0.8854751,85.78819
1.0258085,83.69154
1.0145156,82.11485
0.9380521,84.377556
0.9682849,81.99913
0.89379615,81.30272
0.9319191,80.95641
0.8438967,77.522316
0.87575203,78.99538
0.89134955,80.78476
0.7542273,75.00807
0.9085388,79.403824
0.8928412,79.040634
0.85203636,78.65098
0.8160633,74.17256
0.7399718,73.9127
0.7693942,78.114
0.7621568,75.08587
0.59633976,72.19758
0.63100934,75.88065
0.7537738,78.40723
0.6751447,77.77026
0.5518718,76.069855
0.61436987,79.46696
0.47142345,76.66465
0.5532174,80.06697
0.54111075,77.56648
0.62404156,79.15996
0.52228755,76.47191
0.6787457,83.859505
0.68522394,83.47686
0.7268082,82.384026
0.7681552,84.04
0.7944214,85.30264
0.8603875,86.48257
0.9113704,88.18891
1.0590049,89.11996
1.206468,91.5032
1.1185924,91.72514
1.2339374,88.45812
1.3837489,98.0334
1.3575916,94.22408
1.4590418,92.17318
1.5723432,96.62136
1.6029876,102.261
1.7085944,98.047516
1.7383345,99.90381
1.7884543,105.40168
1.7990261,102.50416
1.8120064,104.15732
1.8025917,103.45718
1.8707547,106.0444
1.9299327,108.54996
1.9558424,112.10627
1.9208741,110.62003
1.9838271,115.75583
1.9186643,111.72917
1.9314302,112.840126
1.9493462,110.13541
1.9656607,115.3428
1.8866628,112.61749
1.8884116,112.81076
1.9014444,112.72892
1.9369365,108.53287
1.8237988,110.80401
1.8226362,111.95448
1.8867927,111.22263
1.8136271,111.89135
1.8089678,106.273315
1.7144092,108.847946
1.7263955,112.292694
1.66433,113.31672
1.6851544,108.71103
1.6618752,110.26049
1.5356084,104.42349
1.6505073,108.15829
1.5288575,108.27848
1.5633754,101.47249
1.553973,107.124855
1.5534631,105.927216
1.5053525,101.76897
1.3894913,104.52986
1.4026761,101.47928
1.4604682,99.60912
1.4743366,97.951454
1.4460334,97.55568
1.3753489,100.16821
1.2718815,97.35503
1.363831,96.325294
1.3346707,94.41474
1.3235873,95.266
1.3305441,94.6894
1.3007656,91.66155
1.2270867,93.260826
1.2619487,94.55977
1.1622592,92.78412
1.1777164,92.165726
1.0919868,92.84586
1.082004,89.288506
0.95986104,88.7565
1.0192373,91.78062
1.036369,89.83138
0.9513259,86.85128
0.9598187,83.97169
0.92798644,89.18332
0.887865,87.61599
0.8116595,85.987335
0.6967535,83.425575
0.8008348,85.12291
0.7985936,83.40331
0.7651515,79.65105
0.7842687,80.87446
0.7398045,79.55283
0.7823844,79.08429
0.7855313,83.10286
0.7408165,79.6267
0.7062181,79.37148
0.69754213,75.5573
0.73117447,73.94752
0.67160964,73.61718
0.68616694,71.69705
0.70519185,77.41946
0.60343486,78.79449
0.5331648,75.522835
0.54767686,76.77054
0.47489625,77.5924
0.4474297,78.99025
0.3724984,77.97088
0.28890273,75.963356
0.30977517,74.04847
0.33275276,74.85383
0.30591914,74.40174
0.30543298,80.1643
0.27593315,77.86143
0.332061,78.44761
0.28061125,82.401146
0.2608802,75.46805
0.33815783,83.93606
0.48252317,80.49801
0.5098157,82.09545
0.49006197,83.97204
0.6288407,89.4232
0.67553586,87.29223
0.72850275,85.327415
0.80608374,90.896805
0.80337346,88.553345
0.8996107,91.99475
0.981268,92.83208
1.0538144,92.20102
1.1300788,97.0142
1.2375884,99.590614
1.341998,97.32414
1.4335217,97.32725
1.3559468,102.59401
1.4857727,100.409645
1.4909999,103.300415
1.4341038,103.92449
1.633953,105.58438
1.536338,105.614525
1.5673953,107.31617
1.5543069,109.91812
1.6660686,110.10642
1.5772105,110.643394
1.4667767,108.474525
1.6213045,109.06492
1.4789331,112.74782
1.5913672,111.15672
1.5980742,109.42771
1.5175191,113.18952
1.5920011,107.51321
1.5392355,108.91949
1.512615,109.14908
1.49109,111.44727
1.4257684,106.18032
1.4494511,113.903
1.384403,113.46123
1.3912205,106.61414
1.3651412,109.6327
1.3265221,110.1125
1.3428217,106.05476
1.2052252,107.41855
1.20451,108.6574
1.1395456,106.15375
1.1878252,105.834755
1.232894,103.646576
1.037618,107.74676
1.2386146,105.392426
1.1365359,100.22187
1.1278263,104.13115
1.0999625,99.319954
1.0690534,100.55751
1.0650142,96.82965
1.0416718,99.71566
0.9893177,101.74198
1.0510983,98.4564
0.99555266,98.575806
0.9467864,100.698395
0.98667425,92.118065
0.97589225,98.13555
0.8454198,95.936516
0.84653664,92.381744
0.8629578,92.275375
0.82340115,93.927376
0.69694984,96.97703
0.76906234,87.27943
0.7302789,92.918655
0.7045408,91.08932
0.5646797,89.67114
0.5656427,89.68933
0.5283003,89.248245
0.46308288,90.14743
0.43275326,83.588104
0.5093764,88.9682
0.430229,80.79596
0.48763028,88.04786
0.46079624,81.037224
0.4074877,82.66699
0.29392642,78.16897
0.43642828,79.71544
0.39182258,77.40448
0.41513896,81.66873
0.3759108,79.924095
0.44237918,77.21973
0.33488154,79.10082
0.3518631,73.84293
0.37739378,76.86164
0.3833567,79.885796
0.27431226,77.26149
0.2707532,72.42539
0.27808344,77.33223
0.14028129,74.33216
0.12870009,76.59474
0.1453229,72.184166
0.1374841,75.43362
0.123056106,73.35078
0.06462184,75.12197
0.04888463,77.65734
0.026717223,78.12401
-0.020433214,74.48276
-0.12024334,75.875175
-0.02724862,79.15874
-0.061737094,76.142105
-0.043814834,79.724266
0.059433553,79.19268
0.05081825,81.06569
0.021190284,84.06526
0.12524876,78.68369
0.19145122,85.65583
0.26903132,82.60386
0.37957585,87.82207
0.5392631,83.49374
0.51825064,90.88249
0.5171124,91.386925
0.6535614,91.00934
0.73004526,98.54961
0.7853971,98.99074
0.8670813,95.27918
0.9533715,97.57988
1.1001257,103.10833
1.1685851,102.51608
1.1634809,102.34086
1.1661536,103.62806
1.2557375,101.022736
1.2292374,106.4711
1.2437701,107.420845
1.2086321,103.9436
1.3006116,105.1048
1.4471025,108.22773
1.3545136,108.23928
1.3369957,111.58207
1.3010592,108.10468
1.4010773,108.39166
1.4331441,108.48999
1.361757,113.47815
1.3764657,110.285934
1.3951371,113.9886
1.3210634,116.65936
1.3213416,111.752716
1.3472265,110.711624
1.2952673,114.95183
1.305208,112.620804
1.2509904,112.359276
1.2017443,110.09769
1.2423143,113.33151
1.1431643,112.75592
1.1246451,111.632
1.0617234,104.32359
1.1447607,106.631294
1.0847993,105.54861
1.0642616,109.080444
1.0541427,105.33088
0.96690327,104.58305
0.99479157,103.97375
0.9846341,103.262924
0.98705596,102.97742
0.89250976,105.26084
0.8417552,104.84398
0.98151225,99.80115
0.8650416,104.27744
0.91775024,99.04765
0.9188359,94.926445
0.85262704,97.61758
0.8165204,96.61568
0.759583,97.14182
0.78129625,98.11369
0.88667274,96.119644
0.85818595,94.70119
0.7218175,97.23926
0.7453331,95.09054
0.7507587,90.73508
0.8096836,94.270355
0.6655543,89.77279
0.69120234,89.94909
0.6002802,88.02081
0.5736403,88.67273
0.5694853,88.238304
0.40432417,86.565025
0.48855996,84.19228
0.4522567,86.18023
0.47271004,83.286125
0.4542916,85.56146
0.4119374,76.850235
0.4220022,85.42653
0.33512333,83.392815
0.33590025,79.062996
0.3952549,83.631744
0.43257007,80.30805
0.3455294,78.6154
0.39909372,78.88829
0.45994276,80.18368
0.34650505,77.747765
0.4112522,74.068275
0.42628083,79.832405
0.3570691,79.29903
0.2653337,76.29165
0.29649326,77.55331
0.31920654,74.94227
0.32967183,74.93385
0.31863138,73.513176
0.17351197,76.7171
0.12146657,75.514946
0.1372615,71.21426
0.19039533,75.722084
0.09794944,75.85981
0.025796548,81.12592
0.080974944,77.06151
0.12401089,76.8174
0.15066384,80.37501
0.046900105,78.537476
0.11011264,81.18708
0.19562468,81.47645
0.10718301,76.4743
0.17576797,81.151886
0.3212239,84.293884
0.39105085,86.25596
0.35509625,86.854256
0.49621108,91.92658
0.5669624,89.112885
0.75994,87.976074
0.7315345,91.37772
0.77383345,91.18722
0.9779419,89.399376
0.9514996,94.28145
1.0656899,97.74579
1.1172286,94.62968
1.1767728,97.121635
1.2425985,99.7018
1.2904481,94.66065
1.2927215,103.75903
1.2878929,103.03672
1.504457,103.9317
1.485675,105.5882
1.5255373,105.90328
1.5578455,107.77986
1.588675,107.47453
1.7071998,107.97933
1.6554012,115.25566
1.6462893,109.687164
1.5622925,111.15746
1.6297263,110.50585
1.6388257,111.01695
1.6825178,112.83187
1.5576195,109.74692
1.5560594,112.52218
1.5622785,109.49548
1.5532643,108.72856
1.5459919,113.899284
1.4756774,111.15418
1.4222847,112.278694
1.4875652,107.761345
1.4196064,112.472824
1.461257,109.00246
1.4081484,109.33021
1.3962927,107.19307
1.4563538,110.02617
1.4634026,108.304405
1.3250787,108.14118
1.3371034,102.89098
1.3251293,105.07632
1.2504975,106.74046
1.2896031,107.67882
1.2744615,108.894
1.3249412,103.553
1.2261664,103.23256
1.2908043,98.79592
1.2977349,99.352486
1.1927776,100.866776
1.2045165,100.194435
1.2160747,96.81404
1.2290107,99.09181
1.1878982,97.722275
1.2393851,97.09956
1.187233,98.53751
1.0095625,93.162445
1.0897136,95.544334
1.1563114,90.53786
1.1098716,92.472694
0.99915856,89.633545
1.0933083,89.998474
0.9198113,91.7226
0.94381505,89.154366
0.94267255,90.60725
0.87993366,91.10627
0.9256015,86.11232
0.6956358,88.43354
0.7434912,86.19056
0.81588167,85.77846
0.70974374,85.19677
0.7789765,85.453705
0.76162744,85.8923
0.71261084,80.187195
0.8575343,79.25424
0.7369239,83.04008
0.77211726,84.826004
0.7462005,75.70719
0.8007484,82.60116
0.76249194,78.99876
0.7540702,79.11958
0.7268455,82.3133
0.7402016,75.12208
0.7635705,72.19247
0.71535045,75.01598
0.6403134,77.04268
0.63255966,75.089386
0.59404147,76.09761
0.57287204,75.10835
0.6080717,78.301735
0.6102763,76.40532
0.5673464,75.02869
0.5730999,76.35523
0.4133182,74.67877
0.45993525,77.04293
0.4537587,73.03054
0.4830673,77.83965
0.42313227,79.02531
0.39558828,77.661095
0.51490724,78.08386
0.5225195,82.83951
0.5121743,79.788315
0.51467514,81.58131
0.7138872,82.18928
0.5993915,83.91135
0.7048537,83.10838
0.7804736,87.23021
0.9488968,87.032425
1.0162438,87.36203
1.1102282,91.60427
1.0917239,92.11205
1.2725269,91.74844
1.3313395,92.81796
1.3905512,91.107
1.4662722,99.60953
1.5520836,97.9147
1.6509917,103.105316
1.5602666,99.18796
1.7098203,105.44274
1.7811031,105.41872
1.7341865,105.32271
1.7659986,108.08991
1.9226792,106.553535
1.8696084,105.01876
1.9154431,104.77378
1.9626342,108.0664
1.8710599,109.1249
1.9724904,111.945404
1.9634238,111.164635
1.9435471,115.74104
1.9061496,108.61573
1.9805415,115.44319
1.939915,111.80286
1.9570702,107.12202
1.8903776,112.532555
1.8643543,113.347626
1.9392592,109.94146
1.8710482,110.15464
1.8290282,110.34789
1.8662792,113.37495
1.8123366,107.53511
1.755602,108.21017
1.7965466,110.032166
1.7165806,110.01135
1.7146806,108.57994
1.5999933,107.6383
1.6662973,105.60944
1.564817,107.41927
1.5798,105.97187
1.6074814,108.2126
1.5977304,103.07012
1.5584722,104.25937
1.5314096,100.26716
1.4542925,101.86435
1.4894493,100.89381
1.459789,98.809265
1.5381918,101.13767
1.5238155,98.05245
1.5053022,96.90806
1.5055686,95.364975
1.425739,98.93958
1.3843497,96.803925
1.4587697,93.63363
1.4136965,96.243866
1.4934088,90.339455
1.3937451,94.37597
1.3340014,95.212036
1.2668866,93.72221
1.3208085,90.06299
1.1500058,88.52145
1.1562297,92.039856
1.12277,90.74655
1.0508009,88.065155
1.0917169,90.17421
1.0626707,89.36436
1.0614195,84.60579
0.97865224,85.87276
1.0377276,86.003685
1.076054,84.394104
0.94536275,77.46142
0.88320845,81.31102
0.8254076,80.52033
0.8732412,81.761406
0.92069554,83.002884
0.90612763,81.87669
0.9680501,79.49195
0.9966423,77.27485
0.8709013,79.15547
0.87957805,81.31567
0.9141948,78.29164
0.80549806,77.47965
0.8831892,76.63962
0.8263435,74.277596
0.7990146,74.45907
0.73295385,78.57291
0.72927314,76.35272
0.7368055,76.05186
0.7483214,72.57874
0.612462,78.44049
0.6147536,77.70352
0.5392611,78.16391
0.6515653,78.430595
0.49576646,76.86665
0.5259805,76.30253
0.5122682,76.78161
0.42474952,78.485954
0.5151413,81.81606
0.600691,78.72972
0.5852051,80.15759
0.6211549,82.124405
0.70829654,81.04639
0.79704964,86.771515
0.8399412,82.42941
0.8850582,86.84156
0.9696526,87.38984
1.0479534,88.240135
1.0600113,89.83637
1.1188705,91.15987
1.1823609,89.13378
1.3259169,96.5884
1.4338107,96.22715
1.4754633,94.98452
1.5736175,99.40941
1.5642508,103.37239
1.5870842,104.29337
1.69511,100.69504
1.6533383,103.05677
1.7846525,105.27765
1.7472849,108.71495
1.795079,106.44107
1.7768027,109.52059
1.7409793,107.23691
1.8256559,106.39477
1.8017961,110.823494
1.7972091,106.8867
1.8728288,113.3961
1.871229,113.79735
1.8578081,112.79847
1.8324469,116.044266
1.7841349,112.159195
1.8494393,105.755
1.7910349,111.10139
1.8078829,114.06231
1.757406,108.77728
1.7821453,113.92995
1.768905,114.16488
1.743752,111.810555
1.6276629,113.96711
1.622593,108.22272
1.5954279,111.05115
1.6524402,107.98356
1.5941664,109.64733
1.5107093,104.49872
1.4642426,110.80155
1.5021185,106.126595
1.4101055,108.48465
1.3853512,105.186455
1.3213733,104.37212
1.4218576,107.39887
1.4035983,103.51174
1.3977115,101.073235
1.3180695,100.99249
1.3868332,101.24869
1.3568338,101.23999
1.2703542,101.255806
1.2511004,100.48128
1.2369949,98.38481
1.2456691,94.79629
1.1988108,97.00373
1.2217838,93.829704
1.1201869,94.58929
1.0604359,94.70755
1.0959839,96.096275
1.0711123,92.604614
1.0879049,94.13098
0.9553796,92.297005
0.97017854,88.87627
0.95617056,89.87342
0.9205264,85.600296
0.87104094,88.31671
0.8259264,85.12014
0.79570514,87.92218
0.7406038,90.17133
0.74465805,80.5916
0.66425633,87.43908
0.66659343,82.39438
0.6824692,86.97701
0.70794535,84.70112
0.6804261,83.25554
0.6603279,78.563705
0.6540031,82.5362
0.6875727,82.86763
0.64102244,81.82487
0.6533684,77.86319
0.49233767,80.22252
0.59123015,75.85512
0.5793656,75.38253
0.6212816,78.74249
0.56220675,79.32263
0.54210955,77.55029
0.46315536,77.11236
0.46314147,75.39416
0.41347292,74.91562
0.40208703,74.31944
0.30297306,78.68877
0.30255973,78.4269
0.25059688,75.04929
0.19546902,78.36378
0.18954626,74.16204
0.22315879,76.84138
0.19907433,76.63617
0.22291729,77.42578
0.13317282,78.629814
0.29139194,82.42442
0.28887028,80.66957
0.23422211,84.99952
0.27403867,79.38467
0.31381485,83.28614
0.3681024,84.206184
0.48591653,86.22385
0.5754554,86.1187
0.5300153,87.73326
0.6964767,88.11221
0.68649256,90.2551
0.75257033,91.35011
0.8634952,91.763794
0.9334364,91.14405
0.92951775,96.32831
1.0068643,95.71554
1.1266824,100.46118
1.1673341,98.1814
1.2077085,101.393486
1.3043165,100.53414
1.3433797,103.31075
1.4298732,100.065834
1.3236647,107.9546
1.4088718,104.68968
1.3764343,105.225296
1.4378483,111.20176
1.4436061,109.68568
1.4897426,108.248955
1.447921,112.155464
1.5257303,106.021454
1.5667845,110.54166
1.4102533,113.33905
1.4279094,113.79629
1.5277137,110.33439
1.4940767,108.34336
1.4403986,112.91461
1.3987092,110.380585
1.4273827,111.81763
1.4336126,110.56031
1.2938285,112.38422
1.2668947,117.05735
1.2928609,110.41442
1.314599,111.54694
1.2335705,107.934204
1.2350353,112.5716
1.1835759,107.99341
1.18383,109.16711
1.0986016,110.68487
1.0810354,107.49821
1.0603629,104.783264
0.96000165,103.80991
1.0753196,104.09213
1.0578866,102.76525
1.051503,108.234795
1.0057322,99.40974
0.9983099,105.58647
0.98651713,104.659996
1.0312357,100.84232
0.9492239,100.096306
0.9662777,101.35421
0.9336503,96.787476
0.942428,97.803825
0.87017256,94.83689
0.86373025,97.84396
0.8835667,91.44433
0.82316226,94.48097
0.76347274,95.14937
0.77169985,88.777855
0.711505,96.81579
0.6548707,95.66839
0.7021018,88.24728
0.6463998,89.013466
0.57055175,92.576416
0.5461913,83.23527
0.55078137,87.63635
0.48071703,84.876625
0.4073965,87.81022
0.3588154,82.187805
0.4551227,83.71662
0.45305607,85.13254
0.39837718,81.9116
0.40761393,86.230316
0.3452193,76.568726
0.29287815,80.747665
0.29132771,80.937325
0.3731239,82.77983
0.27405462,80.95743
0.3495171,80.13282
0.32517698,80.00029
0.2898353,78.275
0.34613284,72.634705
0.31349897,78.87378
0.38836768,75.40997
0.2628022,74.61802
0.20366155,77.977715
0.2246316,74.96699
0.17576322,71.421936
0.014424272,76.94959
0.044494525,73.64473
0.0856361,76.773125
-0.026664296,75.920265
-0.004952495,74.108604
0.029066835,77.41267
-0.102012336,79.05253
-0.05713138,76.54875
-0.05633023,76.11924
-0.0064762407,77.18234
-0.04168239,82.00929
-0.034704704,79.810646
0.007155197,77.64227
0.0750828,82.44719
0.10829794,81.31467
0.22093259,82.79997
0.21983466,79.9119
0.33578107,87.88542
0.44488552,87.959045
0.3847408,87.809296
0.43820283,90.915665
0.6519763,91.79275
0.6695799,93.707504
0.8024606,92.38002
0.83633274,94.66461
0.9326978,95.90973
0.968185,94.832344
1.0652134,99.60988
1.2354964,100.44602
1.1098956,102.46504
1.2103697,104.326546
1.3187966,104.1274
1.3317364,103.24872
1.2711444,107.61047
1.4340602,106.865746
1.3263453,108.72939
1.370466,106.58352
1.4797322,111.29335
1.3633996,108.93286
1.3976473,112.90088
1.2845595,110.896706
1.398601,113.40893
1.4076382,113.59668
1.4302595,109.58551
1.4517595,109.7315
1.3249475,112.76117
1.3731124,113.39726
1.2554075,105.78385
1.2967712,110.85652
1.2614253,111.09268
1.2672726,110.36253
1.2962716,110.61667
1.239215,110.18163
1.1669225,107.9749
1.1998719,109.98536
1.2894626,110.98279
1.144123,105.72346
1.1074123,104.10879
1.1274186,107.08693
1.0597756,109.25855
0.9973443,104.99466
1.0901426,104.243484
1.0415715,105.91267
1.0227119,102.74322
1.0290655,102.83943
0.96842104,100.826294
0.98656565,102.89958
1.0474889,105.761894
1.0171795,101.92541
0.9328033,101.76967
1.0163089,99.639175
0.9763919,97.27709
1.0467043,96.6393
0.87051535,93.40627
0.8735596,96.01514
0.95934236,96.21917
0.88162935,91.70006
0.82409906,92.822075
0.83499396,92.9651
0.8226283,86.555695
0.752375,94.45871
0.69342107,90.15134
0.6810148,90.60148
0.6486003,88.93969
0.61016536,89.475105
0.67279124,83.37342
0.59309816,90.303696
0.5387513,85.757034
0.4894966,85.8408
0.54798585,85.65465
0.49125648,83.99796
0.5542033,85.70617
0.48945627,80.70841
0.44007856,80.93246
0.46941704,79.10818
0.5245595,78.133705
0.5513262,80.229004
0.5561751,80.00714
0.562148,78.00276
0.4695495,76.842354
0.4456728,76.28571
0.52115804,81.60662
0.38234586,79.05405
0.4671724,74.424675
0.43774346,74.33493
0.44395578,78.92937
0.4053021,75.488556
0.36654583,75.5345
0.21218283,74.614426
0.1914911,76.875435
0.24025963,74.12607
0.20622456,80.36104
0.16104905,73.695465
0.15357631,77.16553
0.20857409,77.6312
0.2049698,77.73821
0.23849119,82.34658
0.22966625,78.740456
0.24402103,79.3974
0.3264551,83.23775
0.33263832,79.60144
0.40643275,84.15373
0.38680303,84.72116
0.50589263,81.104225
0.5233619,85.58942
0.56151867,84.47475
0.7536294,88.97492
0.8072244,84.90825
0.83994824,90.72553
0.9563922,89.42712
1.1006899,93.72604
1.1345388,97.09351
1.2161907,94.0392
1.2596338,100.97345
1.3481246,98.27178
1.402045,97.30644
1.4103434,99.82446
1.5397011,104.94394
1.507411,105.935425
1.6196105,103.13692
1.6464707,103.060524
1.6061187,105.44565
1.7035663,106.74834
1.7325363,102.12108
1.7833225,109.240295
1.7320665,111.16268
1.7458634,109.04128
1.7058048,113.56881
1.6751864,111.13612
1.8209146,115.09901
1.7324988,117.69307
1.6320083,113.56535
1.7800726,111.55926
1.6896608,109.00244
1.6718404,114.936066
1.618547,109.13582
1.6363163,115.90931
1.5698966,110.96488
1.4943064,113.20584
1.6569941,112.22791
1.5437785,109.77393
1.5919851,110.143524
1.540776,110.66946
1.482812,108.37649
1.4645674,110.89345
1.4768664,104.030365
1.4885653,107.60267
1.389801,108.43249
1.4592502,105.1399
1.4955038,105.93486
1.47928,104.64048
1.4498751,104.46574
1.5327061,99.2003
1.3388469,97.73784
1.3778774,103.81848
1.4467492,98.846
1.4147959,102.90867
1.3660711,95.01838
1.422191,95.96662
1.2798867,99.22955
1.3270123,95.537476
1.2833707,94.355515
1.3428637,95.56966
1.2524053,97.64392
1.1650712,94.84293
1.1430334,91.866135
1.1556541,89.42583
1.1569233,93.45005
1.1071057,90.15057
1.0826935,91.48202
1.0600079,88.46992
0.9447249,83.080956
0.91273284,87.34718
0.912945,87.16557
0.900346,85.730034
0.9132658,87.62849
0.9184758,83.047844
0.94544744,84.21333
0.8631386,84.90058
0.8444973,81.89525
0.8187178,79.92478
0.8865888,78.70334
0.93564296,80.218925
0.8796774,77.72306
0.85142416,80.51911
0.90420717,78.66331
0.84585816,77.220894
0.78466886,74.83991
0.84703386,77.057205
0.7926981,79.48863
0.70651805,78.48214
0.7373247,76.78269
0.8295736,75.27997
0.7267119,75.81733
0.715217,73.74913
0.6333136,72.28499
0.59489125,76.75472
0.6659509,76.33597
0.6134821,73.59634
0.5712236,78.52583
0.48478705,74.362564
0.5764036,73.270065
0.5141518,77.78218
0.57818747,77.73005
0.48025054,80.31841
0.4891083,82.37894
0.5711564,81.091446
0.5775824,86.12401
0.67585254,83.206406
0.69736814,83.39676
0.8035328,83.8479
0.90543157,88.561874
1.0056397,84.37497
1.0452456,89.36599
1.076767,86.959305
1.2002702,91.744606
1.2751374,89.15342
1.3629831,95.92788
1.4365414,97.59742
1.4572972,96.5334
1.5384626,101.26802
1.6831276,99.99816
1.723806,101.97536
1.7414757,101.46474
1.7202183,102.74245
1.8528191,102.79917
1.7821356,105.24479
1.8173937,104.93557
1.8716909,105.39794
1.9181341,106.5503
1.9018737,109.4586
1.8532084,109.98489
1.9963766,112.379814
1.9984611,107.406906
1.9767635,112.52443
1.9914972,115.50718
1.9663726,112.44573
1.9236156,116.54744
1.9801625,109.969406
1.9638834,113.56115
1.9267408,116.321945
1.8292953,114.56334
1.9719993,107.76024
1.8924924,110.76709
1.8003815,109.618286
1.9121206,114.153656
1.7730252,109.89474
1.7992343,106.129616
1.7595233,108.27579
1.7262458,110.984764
1.6584933,102.458855
1.763702,110.08665
1.6793139,107.67319
1.5244114,107.81851
1.5846268,103.26224
1.587723,102.3139
1.5029677,104.77064
1.497504,104.73526
1.5453107,100.64828
1.4981827,105.07615
1.4305501,100.3237
1.421569,103.31026
1.4672029,99.91759
1.5214148,100.69449
1.3993827,97.067764
1.4629419,99.37037
1.4194713,98.18233
1.4440948,98.632095
1.4391186,92.35144
1.4259174,91.59466
1.3510891,95.18665
1.359794,91.69585
1.3106334,93.08494
1.1891733,93.013016
1.2061847,90.22113
1.1652981,92.08614
1.0731589,90.43399
1.1356354,87.39637
1.0753714,88.59435
0.9640815,88.94657
1.0269481,92.56301
1.039413,81.85001
0.99367493,89.4313
0.92267275,82.70654
0.854351,82.96214
0.9124331,86.391136
0.9160517,78.55137
0.80746096,81.033226
0.8727455,85.52033
0.83521515,79.186714
0.8918611,78.78431
0.80355334,76.31414
0.8463598,79.74888
0.87765974,76.20791
0.8061071,79.84688
0.7646013,77.0736
0.7993815,79.560715
0.843542,77.61549
0.66144943,74.9165
0.76510876,75.74281
0.6549021,74.03806
0.6143091,78.05379
0.62782323,74.25514
0.53284633,75.26108
0.5177326,79.466644
0.5688433,74.17286
0.45109165,74.01775
0.4229242,78.97146
0.4074923,75.04384
0.49380273,80.53546
0.3795983,75.50353
0.48797566,75.80322
0.45341682,80.14923
0.42479578,79.74523
0.5072686,80.39909
0.5282476,81.99965
0.5671589,83.99594
0.71894586,90.69387
0.68269587,88.14446
0.7609016,86.81996
0.847674,84.46761
0.90947556,89.40622
0.9525792,92.20167
1.1747671,90.0937
1.1632984,93.131386
1.2470381,95.534
1.3444757,93.88005
1.3626115,98.64903
1.4906684,100.709206
1.5337175,99.93219
1.4782474,99.16999
1.6028337,102.191826
1.6190549,103.55766
1.6409038,104.37244
1.6513945,105.32489
1.7153252,107.77522
1.6712072,107.576546
1.7128766,111.33281
1.6702217,107.25618
1.7351563,109.362305
1.768933,110.820045
1.7119172,113.08168
1.6192614,112.04132
1.6307184,114.877
1.7261727,113.223694
1.7281454,111.31143
1.6930192,115.02
1.6616293,113.39584
1.6477184,113.88902
1.6331811,108.517204
1.5825115,111.206215
1.553808,109.15702
1.5635158,111.92067
1.6510216,108.71228
1.560733,111.1318
1.5105417,109.28231
1.413429,109.17235
1.4247407,106.197624
1.3753091,105.770004
1.3178931,106.500534
1.2506444,104.75103
1.3002785,106.52423
1.2298074,109.37789
1.2718692,104.747475
1.1485956,103.578926
1.272009,102.71015
1.1584811,99.60848
1.2181543,98.39927
1.1836401,101.20359
1.1729077,99.32067
1.1415849,100.05145
1.0919454,98.00375
1.1453574,98.99724
1.158161,99.2126
1.1122384,95.86904
1.103565,94.96813
1.0343984,94.90181
1.0557799,97.692314
1.0139322,91.92848
0.926479,93.89049
1.0550344,90.88294
0.8497256,88.44855
0.84456015,90.18516
0.77731717,90.29938
0.8062642,87.4631
0.7462145,85.09375
0.6962948,87.06314
0.63911515,89.50872
0.6179328,89.31733
0.538804,81.726524
0.5937342,87.708664
0.616317,83.01032
0.54468095,80.03358
0.56182754,82.554405
0.62446,80.67421
0.53493893,80.585304
0.44155762,84.75961
0.52520025,75.494
0.53579086,80.069496
0.5098879,76.861244
0.45147282,78.23792
0.50630915,76.0473
0.44742164,82.336655
0.47346348,78.71804
0.38154405,78.20334
0.3126575,74.62797
0.33173126,74.75234
0.24254987,72.54961
0.280815,75.078156
0.24221258,72.40667
0.11235799,74.280754
0.2231836,74.245674
0.091883585,76.6171
0.076684244,78.20516
0.11626816,79.255615
0.05679842,73.36065
0.12630747,73.07091
0.04769575,75.591515
0.04569604,77.57286
0.069593295,75.76423
0.011844655,79.40678
0.2266617,82.158455
0.12967236,82.88381
0.26034558,87.534645
0.2948257,83.770996
0.40796605,84.9299
0.39620098,86.63405
0.5823978,88.61123
0.55756974,86.53165
0.59032214,87.69348
0.7019993,87.67154
0.80651605,89.35002
0.81662655,88.78137
0.9621515,96.46419
1.0321283,97.03498
1.0685972,95.15549
1.1518666,101.77639
1.1662323,99.49714
1.274331,100.20972
1.2189412,107.14067
1.2540756,103.68657
1.3276699,107.446
1.2944857,104.737564
1.4042057,107.41601
1.3852293,109.72533
1.3360213,107.89854
1.4240694,104.93566
1.4007069,109.42182
1.4744784,112.65711
1.3169427,108.67289
1.4229865,113.46392
1.3493634,111.93383
1.3988373,108.125984
1.3606594,114.53656
1.3867483,112.163925
1.4397545,110.30136
1.2867622,113.26192
1.3169177,114.79836
1.2751082,110.3409
1.291948,109.96948
1.1934808,112.95244
1.1922504,109.62449
1.1689434,109.788025
1.1480051,108.17722
1.0993044,112.08716
1.0727803,107.10508
1.0331391,105.56076
1.014595,105.75121
1.0399352,107.1807
1.060561,106.853325
0.8972124,104.48944
1.0817195,103.63626
0.973094,99.82052
0.8405145,101.04341
0.825861,101.27925
0.9508719,99.21949
0.8111013,104.17631
0.9493143,96.02739
0.82298,96.677734
0.9042588,98.69514
0.8747559,92.20459
0.83572096,100.69158
0.88234395,97.48492
0.8047904,93.80206
0.73303163,93.3077
0.7180919,94.251724
0.6639657,91.535934
0.77159625,94.63501
0.6524567,87.66373
0.6700961,91.90217
0.498096,85.79303
0.5406333,87.87356
0.49433544,87.85657
0.4635996,88.00762
0.40790308,90.30169
0.447027,83.72238
0.4198583,87.98254
0.4128958,83.589745
0.32750148,81.15445
0.32396048,81.812454
0.323914,85.116776
0.3876201,83.43429
0.32481813,81.02576
0.31232166,78.821625
0.40247735,81.48838
0.3442618,78.52599
0.24705799,80.203064
0.28963503,76.779465
0.41856048,74.48521
0.28446615,75.04808
0.34120136,76.62241
0.28957215,74.704384
0.3423401,71.08434
0.24643919,76.39325
0.15438765,77.43623
0.23750693,74.614975
0.12763835,76.98531
0.15602715,79.31291
0.08679224,78.65984
0.030104518,77.21171
0.07703475,80.704605
0.0036192646,78.71074
0.014973218,75.0524
-0.091262855,80.51996
0.073307365,77.358955
0.06033648,78.56452
0.061332412,78.1395
0.056019843,78.88008
-0.0049896035,81.974
0.18349189,84.292885
0.21389313,78.7931
0.18414958,84.07003
0.31981733,83.684586
0.28289545,88.45156
0.3973905,90.628914
0.5192671,86.614044
0.6145594,90.9777
0.7251998,93.60912
0.7207271,93.55212
0.8648529,91.58074
0.84314495,94.693275
0.8905768,96.73581
1.1044569,95.46154
1.0579004,94.99598
1.1271355,102.2071
1.2951407,99.32736
1.2375096,103.72523
1.3527024,104.60172
1.4384412,104.623215
1.2934868,103.59217
1.5018328,108.371
1.4639858,105.687
1.4353461,108.31567
1.491733,109.42453
1.5552447,110.25427
1.516069,110.46083
1.4955521,111.70629
1.3979259,112.04215
1.3915629,113.309456
1.4903828,113.137474
1.5265138,109.763145
1.4554752,110.86848
1.487917,112.287766
1.4191496,108.54276
1.3931916,112.25201
1.329867,108.539635
1.3612874,112.006744
1.3263971,109.53266
1.3266648,110.1365
1.2653368,106.97407
1.2720188,109.247154
1.1794307,107.39982
1.2304013,108.10928
1.2074004,110.06947
1.2175229,103.309525
1.1868229,107.37412
1.1638517,105.914856
1.0932915,105.00202
1.1933829,106.431915
1.2474453,102.9896
1.1658978,102.30317
1.0593805,99.6286
1.1581595,102.08802
1.0863748,103.53749
1.1141454,96.30887
1.0259371,99.805145
1.0399885,95.617035
1.0969157,97.95065
0.9879964,96.08883
1.0859784,100.28211
1.048037,95.96722
0.9858922,95.93992
1.0224375,93.76137
0.90885097,92.1958
0.99223596,93.895935
0.8764711,92.43465
0.83398527,93.37256
0.7415602,87.64209
0.79539317,91.41069
0.7396728,90.624565
0.7392259,88.471405
0.6986285,90.356064
0.71051705,85.84574
0.6538715,89.816696
0.5944692,86.40713
0.68086535,82.08416
0.6859268,81.75301
0.6083526,83.51447
0.5904257,76.224106
0.56987035,80.82211
0.64783657,80.33628
0.59729755,79.13354
0.68386835,79.06799
0.6480827,76.79018
0.57612264,82.5872
0.6088233,77.35131
0.64733243,77.865326
0.63175505,75.120705
0.55969596,79.22319
0.54537827,75.422066
0.57070374,79.15368
0.5265916,73.66321
0.53212374,73.47373
0.46502933,80.67862
0.44291946,76.91815
0.43140966,80.44118
0.37993237,75.61626
0.35752544,77.115654
0.44270876,78.43697
0.28554967,80.149635
0.35689345,76.05775
0.31733868,74.49074
0.27943814,73.32336
0.37139165,81.91045
0.41348356,84.89251
0.46519822,75.721115
0.42963618,83.97039
0.4925506,84.27793
0.5362038,82.38282
0.67314976,88.43666
0.73956907,84.95251
0.7871714,91.44033
0.91273123,89.90366
0.99231154,87.1374
1.1061097,93.109695
1.0979136,94.13135
1.2011284,93.96156
1.2781149,96.89767
1.3476931,97.31794
1.3245268,95.33832
1.4273311,98.74301
1.5813218,96.2486
1.6148063,103.51398
1.5941305,103.63394
1.6819358,101.74457
1.7137618,103.66717
1.777523,106.33737
1.6580406,109.078804
1.7871606,108.03068
1.9029651,115.002846
1.8034521,104.28336
1.7978688,110.36635
1.7747328,110.47176
1.8194001,109.35591
1.857166,110.07238
1.7904351,112.591736
1.9257207,110.67999
1.8387399,111.56909
1.8869328,112.65522
1.8319068,109.19643
1.8644624,110.47495
1.7720622,114.46081
1.7777013,113.164566
1.7649215,110.67062
1.6563277,109.61338
1.7460343,108.869194
1.6401073,110.55698
1.659983,110.057106
1.5159854,111.68088
1.6153508,105.14423
1.5010467,107.72417
1.5256685,106.528
1.5076404,106.227974
1.5466598,105.26475
1.4540431,103.56755
1.4972674,100.914955
1.4884716,105.36146
1.4698082,105.48166
1.5192541,101.29427
1.4677727,102.179245
1.439312,98.306915
1.4039128,97.227844
1.4230213,104.47481
1.44804,98.19933
1.3599424,100.55624
1.457759,98.35334
1.3594611,103.3763
1.3931829,94.831795
1.3752704,95.51312
1.2499515,88.197426
1.294502,92.61983
1.3102251,91.31235
1.2501742,96.237595
1.1803218,89.73774
1.1805778,92.65075
1.133215,83.63131
1.101874,87.08603
1.0751234,89.62726
0.97345185,90.18376
1.0077865,85.11188
1.060688,89.31345
0.9041678,86.29761
0.95024496,85.52152
1.0206778,84.68785
0.9446411,81.37938
0.94085324,84.3788
0.8506766,80.39653
0.9371499,80.90021
0.92795944,82.205086
0.92616343,80.96197
0.8543609,83.422714
0.9010286,79.180885
0.8519086,77.801735
0.9419551,79.19206
0.8531087,78.05966
0.86498404,75.21066
0.816278,76.12632
0.8701658,71.9892
0.8383059,76.19662
0.72427815,77.33777
0.7110693,73.44226
0.7173374,77.2601
0.6878402,76.83956
0.61779135,74.91294
0.6078421,74.498634
0.4870095,77.250885
0.5729378,71.716545
0.52104485,76.64171
0.5425122,81.77832
0.5129766,78.54232
0.5299587,81.80404
0.5654699,77.70645
0.6498218,78.7606
0.6880284,83.05716
0.7676961,81.15481
0.72984517,84.24455
0.83766276,86.985275
0.90477926,82.67928
0.92464024,82.51414
1.0862936,87.38703
1.0956795,90.30252
1.1692045,92.00437
1.2715781,90.67853
1.3336816,96.583435
1.39991,97.28148
1.5090035,97.42715
1.6015134,98.96541
1.5945121,97.78391
1.6681864,105.13834
1.7052585,103.39033
1.7071167,101.60843
1.8192303,104.783745
1.8805653,109.82794
1.890424,107.2791
1.8438625,110.519936
2.0081103,108.96082
1.9165785,106.97788
1.9412212,111.8913
1.9125366,109.27743
1.8701677,111.530304
1.8506597,110.678055
1.8629405,110.366104
1.8663499,114.42949
1.9822592,110.91495
2.001336,109.616974
1.9063302,111.73517
1.9590921,114.60018
1.8814478,109.04862
1.8271757,113.162796
1.7761885,112.9192
1.8257079,109.094246
1.7946702,109.38814
1.790259,112.18291
1.6668531,109.960335
1.6644115,112.31412
1.6601803,111.39375
1.6410803,106.46228
1.5576711,108.608826
1.575332,109.49826
1.5345275,107.02162
1.545865,104.549164
1.4990126,104.92304
1.5013626,102.1488
1.5155984,102.01343
1.4488641,105.66441
1.3690091,101.87077
1.4935205,102.67539
1.3727298,98.46957
1.4442422,96.55044
1.4613081,100.69766
1.3928249,98.559425
1.3189903,97.13553
1.3743621,97.05835
1.2827889,97.09831
1.3302001,97.12846
1.3438658,94.132805
1.2402171,93.3797
1.1817542,96.088234
1.1929975,94.72003
1.1246325,95.46798
1.0997047,93.4879
1.1980703,91.6504
1.0434387,87.10742
0.96643406,89.93218
0.8916477,86.74929
0.9819916,84.36603
0.8371694,87.55242
0.8859535,88.085625
0.8306899,83.94788
0.82800263,82.9848
0.7988008,81.0571
0.7229734,82.34648
0.75567913,80.390564
0.7661884,79.21627
0.7509699,80.92562
0.75803924,80.804886
0.7452906,80.3311
0.6711733,81.79138
0.6603289,77.115456
0.76873183,78.04659
0.6929662,77.786736
0.7149518,78.01558
0.68214864,75.23932
0.61740214,78.122055
0.68615365,73.83307
0.5491153,76.26349
0.49998263,75.89405
0.5093591,72.498604
0.42736903,72.123856
0.41578573,73.14842
0.41756725,77.89993
0.43063566,78.120056
0.33710033,72.82033
0.30514508,76.093376
0.29745826,80.54237
0.30147445,75.51429
0.33423945,76.97852
0.25486565,79.41982
0.3080254,80.970856
0.27711564,81.351494
0.36522835,82.93156
0.3949797,84.826675
0.552762,81.14283
0.58997184,83.57752
0.5871644,87.377365
0.6792092,86.378075
0.67874336,90.69292
0.834658,90.04177
0.85591596,90.022064
0.9340029,89.48655
1.0685562,95.07247
1.0675657,93.90263
1.1593912,97.50764
1.2451822,97.64614
1.3006566,98.013664
1.4181299,94.744156
1.465042,101.32731
1.4291924,106.46896
1.4620347,103.66901
1.5819523,103.36652
1.4792172,109.801796
1.5176088,104.62201
1.6268392,110.91396
1.5372803,108.05728
1.58517,106.5645
1.6029124,111.25236
1.5726432,113.51398
1.5806725,111.67803
1.539562,112.45597
1.6300266,108.37477
1.63894,110.13742
1.613858,111.15968
1.588011,116.488945
1.6050087,115.662056
1.5106374,112.85241
1.5039291,106.88213
1.4385837,111.841644
1.4195259,114.051186
1.4316373,112.09641
1.368754,109.28175
1.3654252,108.55991
1.3357927,108.178825
1.3152474,108.90588
1.2329186,106.32973
1.17748,105.66122
1.1489872,109.16158
1.141203,110.39433
1.1605569,108.56603
1.0946435,107.13946
1.1254756,103.71883
1.0557332,106.19005
1.1057476,98.287094
1.0952804,104.669586
1.0705185,98.91509
1.043377,98.48943
1.0091044,93.78757
0.99137515,102.43151
0.9598779,99.64999
0.90413326,98.55118
0.9792441,95.44333
1.0038012,92.51566
0.90762585,97.42127
0.946539,98.83166
0.9487654,95.31682
0.8753962,93.58895
0.8454283,92.993774
0.71542335,87.345
0.77310103,89.48916
0.65384096,90.28221
0.6603394,87.85035
0.70495176,89.359276
0.61091906,91.021225
0.5018927,85.51875
0.5473041,88.79753
0.4403415,87.016846
0.4627052,88.06663
0.46977815,83.24266
0.45405483,87.54785
0.46824068,83.43061
0.39577895,82.637375
0.30849227,80.93865
0.4056927,79.17899
0.42173523,80.06724
0.38305113,78.111534
0.35772997,80.374886
0.36475986,82.97151
0.35533008,79.10138
0.44084728,79.05628
0.36348495,75.44879
0.33064774,78.26014
0.32563803,76.22183
0.30249107,74.52885
0.16192397,76.94391
0.21627447,74.884514
0.18606171,75.8087
0.12686074,74.08595
0.13014711,72.96105
0.12871306,74.59241
0.03315283,74.49888
0.0158252,78.22914
-0.07488772,74.52423
0.082896315,75.16651
-0.026241107,79.56596
0.00048739664,76.887024
0.08361436,81.25034
0.07506231,79.68368
-0.051680814,76.82802
0.085619584,80.51292
0.055701617,84.89115
0.19149932,83.045746
0.22568284,85.51398
0.3426961,85.35184
0.45165014,89.0001
0.5090021,86.988556
0.5436552,85.61473
0.6748637,89.08931
0.7474152,94.63117
0.8267208,93.46301
0.80597967,96.74276
0.8529613,97.20334
0.94043034,98.82847
1.0502961,98.419655
1.1354088,95.339485
1.1534495,101.52301
1.1040084,106.66892
1.1361102,102.95493
1.2814814,107.42568
1.3469703,102.01601
1.3343601,103.52372
1.30837,105.739006
1.3871447,108.209335
1.3370876,110.34826
1.2550242,111.78679
1.3216487,107.925385
1.3398037,116.313774
1.3146008,110.66459
1.3428584,113.530624
1.2447791,111.60669
1.366768,111.0883
1.2766613,109.67147
1.3272301,111.611984
1.3192191,112.28178
1.3594048,114.295494
1.320122,110.90275
1.2299464,108.65923
1.1399826,109.73619
1.146407,109.78696
1.1951096,111.08801
1.1665912,112.086876
1.1271578,108.34447
1.1830968,106.93394
1.0993247,107.7979
0.99911475,106.60044
1.0335194,107.48264
0.9776367,107.60158
0.95184886,102.07986
0.9489729,104.21458
0.9526701,105.0369
0.9611575,101.45454
0.98768026,101.35235
0.93354225,100.35859
1.0213169,98.06817
0.96752286,101.6779
0.83222944,98.32412
0.8847697,99.509056
0.89071995,99.7863
0.7739211,99.33231
0.88795286,95.777565
0.7416958,96.16579
0.8554169,95.951836
0.8071747,89.53511
0.81265235,93.73358
0.7457371,95.38389
0.610868,91.66703
0.6879165,90.05522
0.68750274,90.79673
0.6856401,90.05657
0.53301334,86.005325
0.59205645,88.021996
0.5487707,87.61124
0.5256897,86.20566
0.44811118,86.50781
0.513608,85.643524
0.4318973,84.17643
0.40909645,83.86923
0.3556286,82.84741
0.3572665,77.44668
0.3901654,81.6751
0.34462732,82.61249
0.41906232,82.82932
0.32191688,78.45669
0.3519736,78.17302
0.2768207,81.74077
0.39395663,74.99558
0.37130234,76.53308
0.33216116,77.554474
0.31640583,76.959114
0.3525424,79.64687
0.33944684,75.53884
0.30482474,72.60776
0.31815085,79.884346
0.21738058,75.860504
0.20199236,77.41095
0.25264215,78.27001
0.1186195,76.08589
0.10687921,74.93339
0.11848264,79.125626
0.1399681,76.28202
0.064995214,78.93105
0.094353884,77.78413
0.09386702,81.501595
0.06264407,82.12014
0.14663313,78.960045
0.1316894,83.51079
0.19568051,79.70552
0.11988556,80.75565
0.17743032,82.67251
0.32545015,80.48704
0.35193905,83.74296
0.5483119,85.97798
0.60872686,90.10602
0.6673031,90.37993
0.7538003,94.21812
0.82893795,88.607635
0.8406039,94.07672
0.92782074,93.01459
1.0279922,92.893875
1.1654111,98.30351
1.3063946,95.206726
1.2624372,97.49921
1.3395478,100.481346
1.3845719,106.442406
1.4009095,103.93171
1.4281794,103.40663
1.4819192,107.3455
1.5092511,107.867775
1.571971,105.011154
1.5593394,108.4121
1.5522813,107.135895
1.5204216,110.95232
1.6126274,108.69648
1.5492066,106.04523
1.4416063,108.437065
1.6105773,112.20576
1.6177157,115.562256
1.5705069,111.75573
1.6004328,113.1615
1.514832,110.94242
1.6200105,112.968346
1.5735294,112.04114
1.5425884,111.78623
1.5411853,114.590126
1.4809777,110.257164
1.5413014,111.62374
1.4187156,110.39179
1.3957396,109.73882
1.466404,106.744896
1.5079927,107.33055
1.3836886,107.27889
1.3853848,107.67389
1.2792611,108.27662
1.329366,102.62549
1.2388461,105.30216
1.2143835,105.29955
1.2716215,103.76053
1.3137988,104.19141
1.2685343,102.33688
1.2181488,101.52309
1.2645456,102.813255
1.1116151,100.711174
1.3245919,100.64891
1.1934836,96.59131
1.2134749,102.59274
1.196885,100.358986
1.1996595,97.845406
1.1964246,96.957306
1.1040887,92.82423
1.1014043,95.99752
1.1705025,92.327415
1.1368,94.16118
1.0787045,89.62579
1.0206695,90.60215
1.0188007,88.76731
0.9106093,89.786736
1.0179532,86.54296
0.8985439,89.945656
0.80077356,88.806755
0.84065634,87.61177
0.7319825,88.15476
0.7806665,81.11999
0.77957356,84.37493
0.77100027,84.50413
0.8200759,81.3005
0.71065444,82.71682
0.7644696,82.26003
0.8406836,83.819115
0.80519634,80.10577
0.6781977,78.90993
0.7936833,78.1809
0.8076282,78.74925
0.7103597,83.526764
0.71566457,78.252106
0.7401214,75.26985
0.7335453,74.62067
0.7579504,79.56105
0.733076,75.18237
0.68402743,77.791245
0.67870027,74.90096
0.5702075,78.07442
0.57241267,77.15486
0.4367521,74.168365
0.5826727,72.027504
0.4319485,76.056244
0.49101257,75.670235
0.4784664,73.51571
0.4676681,72.13648
0.46232998,75.91711
0.4966221,73.49655
0.43602228,80.23772
0.4704223,75.641815
0.48562795,79.233376
0.5676568,80.20205
0.6099479,81.65509
0.7686818,82.72993
0.65975165,85.34955
0.6699483,86.91877
0.8856299,86.5184
0.9143611,87.81638
1.0101241,88.82741
1.078479,88.02328
1.252174,94.13094
1.2836101,94.15676
1.2438351,96.68576
1.4057376,97.66119
1.4602365,96.34923
1.4751599,100.3956
1.617793,99.41947
1.6355144,99.31688
1.6996654,103.74689
1.7561259,108.72573
1.7499166,105.814514
1.9057786,101.52025
1.8779265,101.970825
1.8578922,106.26537
1.9372115,110.909
1.8966327,112.17705
1.9114499,109.13815
1.904245,107.13511
1.9173791,114.34239
1.9278158,110.76417
2.0311,110.26244
1.9889375,113.63004
1.9785055,115.31199
1.8362976,111.76586
1.9107882,111.83367
1.8874887,111.82047
1.9091563,110.843285
1.8245345,110.93374
1.8883008,109.34982
1.79414,112.34318
1.8476069,108.34516
1.7848316,110.20704
1.70621,110.30102
1.7741832,108.32458
1.7545924,107.174225
1.6228465,103.133675
1.6165,112.53235
1.660844,103.72864
1.6780406,106.39066
1.657341,103.61689
1.5452014,104.94186
1.4964423,101.42992
1.502484,103.14402
1.4640294,102.95152
1.5650018,102.042816
1.510887,103.354805
1.5411658,103.03287
1.479248,102.62075
1.4579911,99.460815
1.4968952,101.24809
1.4150494,98.79427
1.4949646,95.50067
1.4814734,94.30281
1.3808439,94.70164
1.4165105,95.14319
1.3569531,96.12241
1.3583062,94.69156
1.3521721,94.71108
1.2214342,93.655464
1.2630268,90.32088
1.1949573,91.2058
1.1666235,92.98155
1.1704527,89.97692
1.0997177,87.36372
1.0418917,90.30554
0.9904727,85.61353
0.9692822,87.95914
0.92612004,82.9359
0.92781395,85.05877
0.98800194,80.27289
0.92744637,81.416084
0.9343293,84.155495
0.9430789,83.02286
0.8389004,80.783035
0.9040103,78.66253
0.99925864,79.38988
0.920147,80.382935
0.89434993,82.81858
0.90733916,73.48562
0.87759054,76.7344
0.8718776,77.29237
0.8834612,74.700066
0.7548583,75.644615
0.8408584,77.396126
0.7467039,77.43542
0.7448535,72.41964
0.7356546,74.81984
0.6975628,75.57269
0.7205007,78.70772
0.59130245,77.7947
0.544787,73.31386
0.58172655,75.58787
0.5040745,79.285965
0.47810435,79.798805
0.5150112,76.20291
0.55468106,76.46952
0.5000348,80.46017
0.47978607,84.0508
0.6526889,82.530754
0.6047057,83.040924
0.64485985,81.2682
0.76541173,81.33612
0.7972114,85.14291
0.8797781,81.65207
0.9013595,87.211624
1.0405189,85.91059
1.0619916,90.292114
1.1737227,93.04436
1.2258221,87.56958
1.1883432,95.48874
1.4453663,100.385
1.3565321,96.69209
1.473545,94.970055
1.5392083,100.95531
1.6469076,103.33859
1.6907288,103.45199
1.7201177,104.1779
1.6822162,105.149475
1.7908643,105.159874
1.7986791,107.4426
1.7984861,110.92874
1.8559626,107.47395
1.7946835,112.9343
1.8279871,111.884575
1.8468014,106.65378
1.898778,112.771225
1.8660089,110.86487
1.8873397,112.26659
1.8787382,112.987144
1.830672,115.45874
1.8057095,110.77068
1.764999,115.776436
1.7893113,112.61318
1.7937117,110.45653
1.6962274,111.76008
1.6681709,109.30219
1.6283692,114.317955
1.6507862,112.888695
1.5849558,106.45902
1.5463715,111.05746
1.5456767,111.33939
1.6056288,110.13822
1.5065423,109.03606
1.4788315,104.93823
1.4003806,107.60832
1.3884556,104.04716
1.4539762,107.42229
1.4164746,105.77956
1.4525615,105.73383
1.396652,101.15629
1.2906338,103.1191
1.2668612,103.11805
1.2626697,99.40527
1.2577521,97.154564
1.2889216,97.25026
1.2635152,100.56875
1.306575,100.61254
1.2773219,98.16515
1.1777687,96.74727
1.2249233,98.8227
1.1771749,95.10773
1.1730897,99.427666
1.1262096,96.21113
1.0849425,95.064285
1.0856375,89.4639
0.9539843,97.783646
1.0376239,89.184006
0.9208717,88.344986
0.898082,85.98537
0.8184297,84.515785
0.76655906,86.43906
0.81791276,89.91543
0.78341126,87.32517
0.72119826,87.292496
0.69717,82.93217
0.77330226,85.87928
0.61975414,83.746925
0.67436266,81.64933
0.602947,82.50474
0.7089969,80.19689
0.5971464,81.3953
0.590788,81.61244
0.60952073,78.22996
0.58360326,77.758835
0.61759496,81.85386
0.5759871,76.09346
0.5701346,78.64559
0.6152654,78.22087
0.52890396,76.74904
0.54985696,75.428764
0.5846223,75.96088
0.5031733,78.4743
0.3780884,79.48576
0.37350863,71.34158
0.3048243,77.22454
0.2362821,76.35354
0.22809063,77.60411
0.23866858,69.13653
0.15084222,77.70633
0.15964457,76.42588
0.18998499,80.16878
0.14103673,78.47712
0.18937518,78.42528
0.21043769,78.19574
0.21206129,80.73811
0.2002318,78.00212
0.16710834,81.62654
0.2618238,83.93038
0.3456655,86.03404
0.45688874,87.47511
0.48118183,88.18434
0.5902929,86.428185
0.6309137,90.37621
0.76290596,94.147156
0.808773,93.50926
0.8957693,93.90616
0.99348986,94.10422
0.9898519,95.40601
1.0354724,96.473526
1.1807845,94.65345
1.159669,104.014786
1.2087348,100.805534
1.2433449,99.20444
1.2593764,103.45444
1.4466652,106.01919
1.3593715,104.787125
1.3933897,108.06809
1.5316001,108.52179
1.4232359,103.96911
1.4468776,108.09777
1.4235747,105.20411
1.5029464,109.49664
1.44973,110.3324
1.3694066,111.43953
1.4981004,114.0707
1.5228595,111.705376
1.4812518,112.746994
1.4066186,108.11786
1.4034114,111.54377
1.4874262,111.11943
1.425867,110.68828
1.3605652,112.444534
1.3031415,108.67232
1.3025397,108.78975
1.3285596,108.53416
1.3572115,113.350746
1.2598503,107.664474
1.210535,110.37628
1.1830382,110.04421
1.1214428,107.688416
1.1042076,106.967415
1.113367,102.9745
1.100202,105.31395
1.0279822,105.22514
0.97465974,109.70495
0.96334493,103.2025
0.92878884,107.395966
1.01455,103.50324
0.92090416,99.464195
0.93382293,105.26172
0.9209135,101.27993
0.9479177,96.881355
0.8515278,101.1443
0.9349106,92.59872
0.9170624,96.473495
0.8556835,99.76116
0.9268532,98.10318
0.80462855,93.751335
0.78643763,95.316345
0.695935,95.21832
0.7754315,93.061066
0.7391785,90.76654
0.6632448,99.3274
0.6178146,90.04779
0.65313554,88.65923
0.6506521,92.62539
0.5385204,86.38726
0.54977137,90.23364
0.44779903,85.64605
0.43263707,84.22256
0.385525,82.799255
0.4079699,86.032745
0.41493845,83.46188
0.35237563,88.16377
0.37685868,81.19474
0.35061273,78.56279
0.3260804,81.76806
0.318001,86.00992
0.36822343,80.87712
0.29743558,79.747856
0.32631424,78.26167
0.39288065,78.803185
0.2843169,78.026955
0.35086352,75.95421
0.25253862,76.979836
0.25804916,78.21263
0.18208295,73.87424
0.28905246,78.69172
0.1545438,76.888985
0.13029163,73.69685
0.10408882,76.68031
0.09352812,79.520546
0.057722595,76.851776
-0.0011662167,79.36721
0.017630477,76.09233
-0.050528042,75.35843
-0.07729497,77.674515
-0.04054112,80.06723
-0.09869772,77.562126
-0.09655364,75.90509
-0.00926147,78.81781
0.018432438,81.84057
0.025218928,79.21116
0.0779919,83.31645
0.18380275,82.31391
0.15322676,83.04687
0.28072459,84.84701
0.334149,82.336845
0.4133716,83.48829
0.53903174,88.76803
0.50573814,89.863525
0.5678361,88.87992
0.6986148,93.6069
0.7434442,94.681114
0.8899594,96.12796
0.90769726,96.6423
0.9660822,96.40892
1.0016955,97.134415
1.0896735,97.96317
1.1277853,105.069084
1.2450161,100.72155
1.2505025,104.96235
1.3186561,108.01464
1.248269,110.760414
1.3225677,107.05634
1.3525876,108.301796
1.3415357,114.66392
1.4836967,107.67796
1.3850255,112.624115
1.4281192,113.35376
1.4028319,112.13941
1.3303574,108.659004
1.3890197,113.8819
1.4359328,111.97725
1.3239877,111.83101
1.3343747,112.41827
1.3643137,111.94646
1.3222713,113.9716
1.3564965,112.196266
1.3001359,112.35481
1.3167812,111.02039
1.2686375,107.71783
1.2612548,114.50828
1.1445273,109.26299
1.2269533,109.65102
1.2140183,107.61371
1.0602297,107.89212
1.1221173,107.29169
1.0769022,109.60687
0.99134713,106.73206
1.0625772,105.53368
1.0633001,104.55342
1.0774871,104.32285
0.9928194,99.73747
1.0933275,104.28111
1.027209,101.57215
0.99162793,98.068146
0.9639382,100.0453
0.9493582,100.45122
1.0117451,100.93939
0.9254448,96.17152
0.96794087,99.63057
1.0126313,96.195656
0.9305644,99.637184
0.89532775,97.62602
0.8359146,93.40179
0.8993968,92.052795
0.799443,95.51615
0.77539426,90.29641
0.7977881,93.356514
0.71983975,90.58976
0.69584954,87.98186
0.7374723,88.19397
0.6047815,88.41807
0.66879505,83.842766
0.6401919,87.37797
0.5666354,90.974594
0.5316568,82.58923
0.5644582,85.8791
0.5285409,77.007065
0.5589593,82.52806
0.5441479,79.147804
0.5206275,83.71008
0.47350094,82.36357
0.44267175,80.096634
0.50442195,82.00511
0.49289963,81.812195
0.5434199,79.47874
0.54519665,81.809616
0.4232627,79.4189
0.5069273,78.320786
0.42357668,77.63027
0.5066182,78.97924
0.41122428,78.108696
0.42238694,77.32376
0.35111785,77.882416
0.4149906,74.07793
0.4087548,74.654854
0.35720485,76.24558
0.19757628,77.14731
0.1992299,76.017075
0.21318762,74.579765
0.12552102,76.19428
0.21157603,76.050804
0.18536381,76.49668
0.15021066,75.451485
0.19531326,78.21619
0.1936655,75.34992
0.22375904,81.33192
0.1907325,76.361305
0.37662986,82.25073
0.4192226,80.11979
0.43450087,81.5442
0.40485373,87.90948
0.5939913,84.812874
0.6282838,87.20144
0.7234367,88.55727
0.7645715,89.16722
0.8889487,88.76142
0.94512385,89.92833
1.0036374,94.33985
1.1443516,94.94305
1.2463322,94.00669
1.2566315,97.01726
1.3407971,99.84385
1.2899681,100.27858
1.4032171,103.42728
1.4561297,102.61208
1.4642984,103.38422
1.5941176,107.16214
1.5719693,103.45123
1.6460873,105.287125
1.5772649,105.54076
1.7176358,110.508675
1.6568542,107.6902
1.7384996,111.79534
1.68133,112.77854
1.8157067,111.825554
1.7829903,111.85019
1.7470988,109.27814
1.7539573,109.86123
1.7222946,111.62095
1.70888,112.71997
1.6909232,111.213844
1.7481166,116.02132
1.7267649,110.39443
1.6171974,109.90115
1.6371121,112.3135
1.6305234,110.89377
1.6511161,106.6466
1.6262096,107.69636
1.5686823,109.30082
1.5905331,107.39951
1.4952005,107.2379
1.4898715,108.024445
1.4677769,103.38453
1.3852421,104.28828
1.4383264,104.36689
1.4751852,103.90264
1.3935565,104.15762
1.3718798,103.838486
1.3517176,106.41687
1.3986653,103.47697
1.3773782,104.378105
1.4316034,100.740654
1.352509,99.14443
1.3847007,96.65958
1.2917701,101.35636
1.2954798,96.20409
1.3569933,98.58039
1.3422062,93.478775
1.3124988,99.10313
1.3412017,97.852066
1.3360318,97.35364
1.2246119,94.41828
1.1913025,92.17153
1.2489429,90.80897
1.1171558,89.7399
1.1074636,87.592026
1.0546811,89.18927
1.0441306,91.28251
0.9874056,88.337616
0.97338206,87.9624
1.0098644,88.9466
0.93554527,86.888725
0.95262665,86.51485
0.8900219,82.82611
0.8582104,86.66831
0.77154416,84.12465
0.83480304,82.723885
0.9142392,81.8737
0.9198734,80.12466
0.86229384,79.191444
0.8794347,75.539444
0.819354,82.39561
0.8707701,79.07139
