ppg,abp
1.0567987,79.60516
1.0182127,77.73961
1.1304703,80.223
1.3061315,83.005226
1.203433,89.290565
1.3596042,85.60033
1.4836363,90.88777
1.4562958,90.47308
1.6122949,92.430664
1.5595604,89.480225
1.5776503,94.844765
1.6256659,97.08551
1.6767988,96.64792
1.6218014,99.46981
1.6605104,100.49189
1.6487846,101.29237
1.7965509,101.19074
1.7080873,103.87378
1.8049673,105.76874
1.8396602,104.57756
1.6946728,103.53695
1.7850206,105.57823
1.7986494,107.78725
1.743915,103.76032
1.6657078,109.011765
1.77201,106.650185
1.7329171,109.18858
1.7544916,107.99297
1.6888365,109.255104
1.6750289,107.66234
1.7041893,106.57025
1.666823,105.728096
1.549275,105.407394
1.5625029,104.59052
1.5422746,103.45234
1.5554549,103.92874
1.5717573,102.370964
1.489221,104.01146
1.4812783,98.22655
1.5617229,102.17266
1.5699328,99.36829
1.4542344,96.6024
1.4344437,97.05195
1.4666378,95.17628
1.4461246,94.57066
1.4436831,94.24383
1.3696232,93.58978
1.3954437,93.82704
1.3596874,91.97259
1.4226596,91.47359
1.384549,89.8394
1.435984,88.9385
1.3774009,86.41096
1.3143972,87.52612
1.3507284,89.072174
1.3660151,86.127884
1.2779427,85.55632
1.3501484,81.71227
1.3101763,81.47697
1.2831577,81.8332
1.3081625,82.61444
1.2894994,76.86652
1.3148626,78.9279
1.2982792,79.03509
1.2162129,76.5269
1.156627,76.82832
1.1381258,74.895424
1.0955294,76.043526
1.0243297,74.373116
1.062635,70.30049
1.0062212,69.72132
1.0326902,69.057045
1.0513501,68.7579
1.0030384,66.02207
0.99168205,65.84113
0.83896106,65.309555
0.8954683,63.449013
0.9099686,66.54357
0.9458868,62.408287
0.80857044,60.23471
0.86223537,61.811085
0.93892866,58.58162
0.95884097,60.935787
0.9010219,60.09394
0.91896194,57.158516
0.8145114,57.108406
0.8902351,54.729095
0.9201056,55.531887
0.92712533,54.154625
0.9056426,51.89911
0.8522879,51.699432
0.7868755,52.33355
0.8900244,53.917847
0.8086835,52.55707
0.6937916,52.99924
0.85188776,51.462856
0.7943956,51.73128
0.71873915,51.699245
0.7620274,55.192844
0.6073123,51.83425
0.6602131,50.817883
0.6538374,53.012478
0.627336,54.32229
0.5796385,49.981922
0.65410566,55.365295
0.6220641,49.139595
0.4797317,57.525948
0.5093127,58.988796
0.5169097,56.969425
0.5681398,54.26236
0.5794491,57.82345
0.6212634,58.10423
0.6774009,60.435635
0.7295817,63.182285
0.74915,65.03428
0.7915492,64.16922
0.8053604,65.5845
1.0311477,69.51559
0.9892638,73.63242
1.0755576,74.87813
1.1084201,70.20875
1.1843998,75.63657
1.2851784,81.02261
1.3282244,79.343796
1.3945158,82.76881
1.5156553,81.884605
1.5183499,82.31671
1.5662873,86.02332
1.6377313,88.95562
1.7701261,88.513985
1.6729448,91.74166
1.7651887,92.12542
1.8108702,93.19383
1.8970271,98.15311
1.8683211,97.90682
1.8567904,100.72429
1.8843127,100.37187
1.9560428,102.78604
1.9052187,101.38487
2.0089488,103.6335
1.948708,106.97425
1.8922207,102.980255
1.9527476,103.65739
2.0058901,105.36152
1.9658918,107.39093
1.975495,107.687096
1.9692136,104.61335
1.8854736,106.58813
1.8795435,109.74641
1.9234983,107.501045
1.9177408,104.204254
1.8216491,107.47154
1.8574454,107.22138
1.8262584,103.65788
1.8381921,103.16458
1.8368615,105.9208
1.7956854,106.18845
1.7696103,107.17868
1.7532408,104.90859
1.6873776,105.466324
1.6515144,102.362755
1.6486733,100.93356
1.6132457,101.55543
1.5906812,99.42969
1.648516,98.78312
1.5743605,98.340096
1.5296812,95.9753
1.557416,93.07096
1.4509565,93.97872
1.5232604,92.6671
1.4820644,90.95942
1.4483207,93.49663
1.4464464,90.53724
1.4593977,89.48056
1.3992875,90.15333
1.4172341,86.91919
1.4705728,87.14649
1.4335852,88.256744
1.4739177,88.96167
1.3244711,86.365
1.3603033,84.19002
1.2867633,84.93451
1.3209441,82.69278
1.3889042,78.60414
1.2812905,78.08292
1.2301354,78.40709
1.1608962,77.77189
1.192981,76.21641
1.1874628,76.82833
1.0195415,74.211296
1.1434529,71.792496
1.1246796,73.465385
0.9938219,70.742805
1.0268145,73.18643
0.9652546,69.57956
0.909664,69.06539
0.9774863,68.64147
0.9453308,68.91368
0.82950246,64.97528
0.8430583,67.706535
0.83017737,63.15856
0.88699085,65.70661
0.7687601,64.227684
0.8733625,60.71938
0.8111626,63.673485
0.7056752,60.396725
0.7723967,60.135677
0.6497268,53.398193
0.78214383,57.70835
0.7575339,53.77766
0.7140074,57.21114
0.7579037,56.407627
0.7892061,49.029667
0.63955414,53.432327
0.7536365,53.361313
0.64208895,52.61454
0.6115043,51.251144
0.6289555,49.123333
0.6003475,53.15935
0.55040056,49.209473
0.51465034,47.83086
0.4177724,53.982452
0.3343731,49.548775
0.4467557,52.179768
0.3761197,51.551773
0.4475901,52.443966
0.39698362,51.059303
0.42173344,52.159935
0.3775617,52.528282
0.3294444,54.10097
0.31564173,55.10817
0.32744196,58.184776
0.31765088,58.393356
0.36200774,59.84076
0.35574052,60.88234
0.5168274,59.358154
0.42211506,60.46904
0.49979028,65.18001
0.57000476,64.60611
0.5620944,64.42378
0.66657287,66.596
0.7484881,69.90111
0.828376,75.876465
0.9384535,71.49066
0.9953766,75.2844
0.9552341,76.51895
1.0564364,80.59298
1.1303543,82.73368
1.1777506,83.407364
1.3355801,85.09826
1.2773498,82.8235
1.2966013,86.28064
1.3549584,89.781425
1.4086397,91.5424
1.483524,91.42787
1.5503664,95.00852
1.5591855,94.370766
1.5633143,95.54451
1.5677203,97.07374
1.5198246,98.62754
1.6596873,99.818596
1.6348164,100.10943
1.636962,97.57143
1.6143218,101.775826
1.6990079,105.00362
1.5604328,105.11847
1.5957992,103.82795
1.631356,107.66657
1.5651295,108.35782
1.5648102,105.68005
1.5374572,105.382935
1.4542446,104.6332
1.59256,109.46745
1.4623199,106.80672
1.5077996,104.0491
1.5696816,103.249115
1.4544383,107.67533
1.4390258,104.72523
1.4406658,105.9537
1.3963261,104.364136
1.4146488,105.48519
1.3291348,103.08629
1.3170253,101.04622
1.2553536,103.04162
1.1831313,100.936424
1.1899624,97.58403
1.2349315,102.14118
1.168646,100.70602
1.2010401,98.173706
1.0844434,95.575195
1.1562407,96.13953
1.1352724,93.706024
1.0361944,94.37771
1.1205946,94.49355
1.0443386,90.6457
1.0589579,88.57466
1.0065285,90.28268
0.99910426,89.18783
0.9870645,86.08043
1.0546153,89.71239
1.0227392,89.44524
0.9099192,84.975395
0.93729407,84.9591
0.9959644,82.8756
0.8534181,83.068794
0.88117003,82.94811
0.875903,83.20402
0.83055425,78.71744
0.784156,76.750275
0.81989664,76.574394
0.9041967,74.81568
0.7394101,75.18303
0.6889663,77.07266
0.7114715,74.83776
0.69553214,69.27875
0.59503245,73.21116
0.5511052,70.812004
0.60313255,68.26716
0.46598363,68.03653
0.4820791,67.72778
0.44764066,68.52701
0.4534227,68.685455
0.41741866,64.93439
0.37243992,61.207638
0.3444109,62.79467
0.39352572,62.591423
0.35799807,59.789684
0.41810298,61.15462
0.36595446,60.162075
0.3872423,57.697075
0.32201284,56.531693
0.3175071,55.64866
0.37537208,57.54791
0.33156484,53.741653
0.35386088,56.058823
0.27791625,54.371674
0.2794212,50.588
0.31002906,52.937355
0.23446658,52.004845
0.28322417,50.556423
0.27611643,51.85339
0.2638274,49.596172
0.17342016,50.319912
0.1060005,50.37881
0.13835442,53.03546
0.16527987,49.969578
0.028371386,54.743404
-0.0031542936,50.71432
0.045933977,52.132763
-0.009949445,50.240494
-0.07763711,53.555347
-0.009243609,54.83853
0.0015441156,54.404675
-0.104450375,54.74172
-0.026399199,56.38719
0.005909763,53.8149
-0.04356006,60.25443
-0.035955116,62.125645
0.14171593,59.204998
0.011862484,66.285484
0.21277012,64.191864
0.2948769,65.80488
0.2454011,66.17896
0.45210353,72.542496
0.47742426,67.95857
0.45151982,71.78595
0.5512457,77.68526
0.62396324,73.69069
0.6794553,78.57639
0.68824846,78.76617
0.73347884,79.77689
0.91656536,79.30053
1.0038475,82.04287
0.95295364,81.856186
1.0463395,89.70246
1.1182221,88.330765
1.1476743,92.61262
1.2438854,93.76449
1.2001904,91.207115
1.1823531,99.21877
1.3015807,97.93157
1.1962103,96.56069
1.303681,100.38054
1.3939188,100.964325
1.3327832,101.95227
1.3150105,103.93924
1.3700192,106.10403
1.3564979,104.992165
1.4100984,105.08132
1.3569579,103.13855
1.3867846,105.073105
1.4065605,104.89328
1.3766657,107.44171
1.3982712,107.329216
1.3016156,104.385635
1.2686837,105.9673
1.3621582,105.70595
1.3538542,104.79925
1.2854141,106.827644
1.3549944,104.29867
1.2772177,105.95824
1.2281147,104.66956
1.2137234,107.70617
1.172196,107.16655
1.1475828,101.85616
1.1456978,103.930016
1.1529435,100.55291
1.0873396,98.58579
1.0365248,102.29471
1.0793247,101.07545
1.1004316,102.138176
1.1197114,100.25187
0.98949015,100.27214
0.9905326,95.861664
1.0046785,92.976524
0.94217986,94.84648
0.9641626,93.22152
0.9898108,90.02192
0.98004675,90.342
0.943541,93.12653
0.99880743,90.802246
0.92954904,86.88382
0.9079013,87.6716
0.89767826,86.2238
1.0164343,87.07304
0.96926236,82.597115
0.91551685,81.35219
0.9304547,80.112404
0.869837,76.58081
0.87003124,81.28689
0.8956555,80.89406
0.8952098,81.16941
0.73302907,74.22358
0.744122,79.75371
0.7448621,77.241585
0.65778184,76.20512
0.71029776,70.68379
0.62763435,71.67847
0.5847842,72.0845
0.5197567,68.09416
0.5272465,69.66034
0.5287831,66.256226
0.5377953,67.713135
0.5311396,65.05714
0.46302393,68.203224
0.49355385,65.398254
0.4597375,64.846535
0.37306383,58.434742
0.43159318,60.427197
0.3998616,65.310265
0.5137936,57.479145
0.49221537,60.460648
0.47596243,59.067318
0.47088164,55.2436
0.45487022,57.342438
0.5217494,56.89073
0.4230056,55.130642
0.4664127,52.76624
0.5321129,54.528114
0.42701894,55.164524
0.4423232,52.280907
0.38831365,50.88191
0.40873402,51.750687
0.43169603,50.380863
0.30277306,54.854378
0.37816963,51.438908
0.26862326,48.265705
0.24765961,53.333923
0.25154072,51.52811
0.26231536,50.70609
0.17283934,47.993504
0.20912978,51.47887
0.1594177,52.740242
0.120923944,52.463898
0.17847098,51.364967
0.22717874,54.720345
0.19554281,54.0951
0.13199055,56.492393
0.25942394,56.99787
0.2068061,56.40687
0.38671827,56.105434
0.3125835,58.549435
0.31680566,63.08227
0.36367816,65.470665
0.46861136,66.03467
0.52907246,69.65156
0.6545389,67.47723
0.6620274,69.30168
0.75749594,74.26432
0.8621787,74.700264
0.94404685,75.34206
0.9525956,80.28192
1.0236391,81.42259
1.0788863,80.87266
1.196823,80.699425
1.3068001,83.571724
1.2225472,87.530945
1.3710366,86.1981
1.371021,90.112045
1.4528114,90.91229
1.4999317,95.46553
1.5560458,97.59499
1.5893869,98.42674
1.5866252,95.14216
1.5940988,98.71734
1.6983933,98.258835
1.6331607,101.142914
1.6717846,103.4549
1.6673578,102.575356
1.7173269,106.0127
1.6666014,106.97215
1.6684908,105.64473
1.7891053,105.61966
1.6578734,103.127914
1.7503257,104.443726
1.6619604,108.34378
1.7609736,107.36475
1.7109442,111.55805
1.7048444,105.15473
1.6599306,110.204384
1.6526628,105.35678
1.6970143,104.606895
1.6367489,106.10845
1.6358863,108.96001
1.4469874,105.96757
1.6389455,104.00196
1.5504906,104.13065
1.4865273,104.92996
1.4122505,104.344505
1.4675078,101.045975
1.4012334,102.556816
1.5134062,98.910416
1.4363471,98.91021
1.5443062,95.78382
1.3432939,99.45535
1.39818,96.10362
1.3621806,94.09322
1.3594736,93.75885
1.3963376,92.28196
1.3216962,92.90477
1.3691591,90.67406
1.3660179,90.74672
1.4335867,88.99082
1.4287497,86.55043
1.3863266,89.249596
1.3031353,83.87702
1.4024897,87.05937
1.3231636,86.38794
1.3257064,80.8519
1.3083117,81.11593
1.2897011,83.475555
1.260148,81.185165
1.2972353,80.12658
1.2323066,78.24173
1.268345,77.52981
1.2335929,75.55758
1.13423,77.05052
1.0883619,73.71959
1.0805125,75.888916
1.1351532,74.78926
1.0344257,73.656685
1.0637653,73.066086
0.9832675,70.06668
0.9783146,69.46179
0.981273,70.85177
0.89165765,65.32652
0.90454906,65.86811
0.89291906,64.83947
0.819407,65.10826
0.96440524,62.291107
0.8844596,62.17501
0.861373,61.908546
0.8336598,57.70665
0.98779476,58.14856
0.9123728,56.18514
0.88421255,57.81306
0.8805545,57.60919
0.86429477,54.86353
0.9234791,53.93338
0.9055229,57.245922
0.8251435,53.323387
0.84729534,53.648067
0.89209574,54.145824
0.8538762,51.860714
0.83849156,52.60705
0.7785488,52.756462
0.69452894,49.106274
0.7485336,52.653133
0.6963246,48.36111
0.6417942,52.09725
0.74103063,49.805298
0.6414697,49.595795
0.5806376,53.272003
0.5545187,52.723007
0.54564625,51.06717
0.50749105,51.652145
0.5404455,54.13668
0.61135215,55.026848
0.51581234,55.482464
0.47759232,53.090477
0.45128733,57.92256
0.57713246,56.2611
0.6394054,58.074974
0.61743677,60.582844
0.6462486,62.156647
0.7145796,63.277676
0.7099457,61.0546
0.775969,66.01309
0.94355917,70.26587
0.88948655,68.117516
1.046471,72.36406
0.9696179,72.05922
1.1253167,74.858955
1.2253842,72.391235
1.3254825,77.44738
1.3629446,77.5346
1.3889959,79.06917
1.4896009,80.55697
1.5416424,85.48588
1.6177313,86.99735
1.6000968,90.27265
1.6739827,89.536354
1.7680355,90.90643
1.7608016,94.87501
1.8406937,96.95228
1.7794224,96.25695
1.8972746,94.905174
1.8852395,96.6798
1.8918052,97.54384
1.8903973,99.84396
1.9307775,100.72116
1.9169009,103.025345
1.9339668,102.311844
1.9496187,104.42166
1.9387307,105.788925
1.9461623,109.472626
1.9374084,106.949524
1.9579277,106.17188
1.964075,109.760544
1.9324118,104.21928
1.9291695,107.51433
1.8304384,106.5708
1.8823223,109.06313
1.915749,106.554955
1.9001223,104.576965
1.8511215,104.74136
1.8728566,105.31556
1.8336698,107.03201
1.828956,106.72353
1.7485802,103.030075
1.7422721,103.445656
1.6741436,101.20872
1.6871798,104.197586
1.7765886,105.28392
1.6572758,101.2455
1.6565837,97.89532
1.6520207,99.34761
1.5008599,96.79759
1.596322,98.14631
1.5656395,98.00895
1.5802071,94.67594
1.5367341,92.62732
1.4894052,96.266106
1.4055088,92.151245
1.487024,91.08736
1.5156097,90.59659
1.5449584,85.49208
1.486881,86.33125
1.4737654,89.27562
1.3903835,87.42939
1.3963052,81.55462
1.3510294,84.201355
1.4558942,82.43106
1.3753335,81.628456
1.339166,80.62557
1.2924099,79.479866
1.345601,83.06687
1.2416894,76.62141
1.1913656,76.469376
1.2819909,77.111404
1.1404022,75.49828
1.1883365,75.617645
1.0937419,72.69842
1.0371344,74.00104
0.98379934,68.13231
0.9904777,72.97853
0.9251245,66.2609
0.95526284,66.64343
0.95064753,69.052
0.8819733,64.858795
0.86746466,63.366444
0.9190544,63.991287
0.85450804,66.219185
0.7794974,63.200138
0.81648165,60.92259
0.82930464,60.948654
0.81272346,62.098526
0.8700079,58.08681
0.85521495,53.337772
0.80065244,56.79478
0.80894095,53.663105
0.73973554,57.21206
0.7488494,57.60537
0.79985267,55.96536
0.76590025,53.072018
0.7458244,54.17211
0.66180795,54.90584
0.661241,53.413017
0.6703044,53.679764
0.62040544,49.48132
0.4897012,53.216217
0.5518942,52.20538
0.5182383,49.9684
0.49183485,49.840946
0.45205924,50.03497
0.48585284,54.182922
0.47064295,53.606934
0.4303535,52.6646
0.39448607,52.2027
0.35674477,50.476166
0.37257954,54.18138
0.43502352,55.71596
0.41896996,56.88227
0.32501695,59.574787
0.34125963,57.082264
0.45319825,59.82577
0.4371908,62.055996
0.5424755,59.48564
0.43449092,61.724434
0.5637082,63.15322
0.556323,68.402626
0.71368235,67.29223
0.68864286,68.26249
0.84675664,70.61958
0.90274423,72.1075
0.9177652,73.55142
0.92628485,76.256805
1.1737666,76.19132
1.1729549,78.92589
1.1624213,78.198715
1.1800662,83.73595
1.2515153,86.76006
1.347548,88.123825
1.3888155,88.95821
1.452393,91.56804
1.4854939,94.220085
1.5557255,93.01979
1.510037,91.38044
1.6149863,97.57643
1.5652114,97.19392
1.5773281,99.85326
1.6310592,101.854614
1.642723,102.40812
1.6500497,104.56687
1.5941225,102.52739
1.6813172,104.13106
1.7313279,103.45641
1.6466753,109.47045
1.6879047,106.761986
1.7177582,105.668526
1.6914741,106.49383
1.5787607,105.1642
1.5589961,106.21114
1.573049,106.74984
1.575948,107.21597
1.5302207,106.5652
1.5063653,107.03619
1.5411608,103.21962
1.5138797,105.65084
1.436057,107.579025
1.4139593,104.26502
1.3111987,104.93008
1.4102327,103.81329
1.2899082,104.80937
1.308005,102.19505
1.3015078,103.00941
1.3242737,100.31917
1.2873222,99.40371
1.1669579,100.20968
1.2430488,97.35077
1.1597666,99.05673
1.1309935,95.046005
1.1422876,96.62773
1.0491371,91.2379
1.1707718,95.92318
1.1168538,94.96733
1.0100749,92.139885
1.0156871,92.198685
1.1499887,90.03081
1.0797012,89.17054
1.1033772,89.084076
0.9804668,84.89677
1.0253985,87.03596
1.0334115,87.37873
0.9954158,83.71026
1.0095567,84.521454
0.9286224,82.53496
0.93370456,79.06637
0.96984416,79.15031
0.96096057,75.93125
0.90238124,78.05575
0.83190644,80.08616
0.83892053,77.04061
0.7572731,74.56114
0.7040094,69.32012
0.6745079,72.44141
0.6793471,70.98311
0.5062982,72.016426
0.60213006,70.77248
0.5584997,66.49092
0.48584378,67.950134
0.47814953,67.91722
0.4419652,66.40595
0.41407698,65.00166
0.39195797,62.036064
0.41143864,64.06224
0.4017562,63.44798
0.33952186,63.051777
0.3516894,61.88661
0.4401611,60.35175
0.38035777,59.901905
0.49463433,56.92301
0.34282237,57.152393
0.38522106,57.439323
0.39118052,56.25748
0.37645793,55.19355
0.3201144,53.460155
0.37982428,51.881306
0.33386368,53.3469
0.3365605,48.18967
0.25636476,52.12666
0.18050033,49.623
0.33151743,47.943447
0.19946128,51.09105
0.18667364,49.75345
0.14898537,50.561684
0.13745876,50.095078
0.017239312,51.06884
0.104091,50.121075
0.043920532,50.744343
-0.028311098,51.362328
-0.07943059,53.821926
0.0575813,51.950436
-0.040458754,53.648464
-0.049438156,56.27089
-0.02751625,56.307125
-0.1139619,55.18037
-0.026071036,58.490894
0.08801322,58.35321
0.07807423,60.747902
0.17822106,59.93909
0.14690633,60.741642
0.21937373,63.020264
0.2643093,66.98921
0.39245832,66.0634
0.39052263,69.301575
0.42045283,70.104195
0.524522,69.89549
0.5772065,72.478516
0.6460954,78.87049
0.75088227,76.76931
0.74042094,79.53449
0.85893416,80.69418
0.8186609,83.405045
0.9251952,83.8075
0.95619255,88.36181
1.1045188,87.697914
1.1308568,87.40248
1.1289136,90.717094
1.1775659,91.490234
1.2145078,99.46108
1.2483536,97.213585
1.2632242,98.91314
1.3682859,98.32553
1.2979158,100.126854
1.336749,101.319824
1.3594884,102.506775
1.3191442,102.70657
1.3268105,105.88755
1.4545368,106.26317
1.3903517,105.02697
1.3709817,103.0215
1.3973665,102.74937
1.4749479,107.395706
1.3149753,108.16188
1.4555348,105.168175
1.3921576,109.23232
1.3185542,109.53572
1.3777394,108.479195
1.3493749,108.21495
1.326638,101.31654
1.3403444,104.977745
1.3043995,106.40331
1.214501,107.47507
1.1367087,101.4629
1.1497009,105.750244
1.1911122,103.94854
1.1889377,99.83066
1.0856608,99.59918
1.0871291,101.80284
1.0441998,102.64413
1.1189609,99.36737
1.0447415,96.822784
0.9575221,97.36934
1.0956323,96.45452
0.9426338,95.28891
1.0083578,96.02763
0.9719945,94.614914
0.96249676,91.894264
0.92501646,91.3146
0.9125082,91.49394
0.96520686,86.64628
0.8656329,88.53497
0.91803485,87.21166
0.9772999,87.127594
0.92597795,83.63677
0.9259251,83.79707
0.8813349,84.23921
0.83394575,78.366585
0.8718251,83.22957
0.8495706,83.18961
0.82042587,77.825
0.76792306,79.66843
0.84637094,73.842255
0.76854175,78.31767
0.7626566,76.67884
0.72003114,75.70865
0.69828093,74.830246
0.6765419,72.56833
0.55254024,72.03206
0.6025323,70.827354
0.5223189,72.48886
0.57787776,68.82318
0.5896001,69.37198
0.47333625,66.890945
0.45356226,69.09499
0.45156446,65.0909
0.39168277,64.82722
0.4683862,62.735996
0.43035686,63.081013
0.43580836,61.370663
0.39586464,64.04423
0.44127044,59.01162
0.431692,58.011963
0.4401397,57.449852
0.484029,59.323174
0.43718866,57.16691
0.3709244,57.70346
0.45889103,55.681118
0.52900195,54.303772
0.38095403,54.750893
0.39343518,53.538967
0.32942364,50.160248
0.3820247,51.887268
0.27479392,54.561867
0.2871948,48.937347
0.25784928,49.342224
0.2694505,52.93433
0.27085966,49.79384
0.26794994,53.957066
0.16142224,51.943253
0.17605957,52.756744
0.19879808,50.374905
0.08757214,50.595436
0.13253208,52.036663
0.18535012,52.114765
0.076175354,54.84167
0.19492319,55.683838
0.11294476,55.621532
0.16820897,55.794186
0.21293889,57.397854
0.23269895,57.54279
0.22279882,59.316944
0.31401786,63.77859
0.2797482,62.47139
0.38744804,63.360565
0.36852962,64.580444
0.5145728,71.54514
0.60922766,68.811295
0.6978541,70.015884
0.6453717,67.97838
0.8473231,73.44524
0.95268464,73.73298
0.92939913,79.059265
1.0797365,81.334015
1.081887,82.95534
1.1381432,83.24569
1.1832851,84.8487
1.2638415,85.71155
1.3830256,84.44539
1.3524004,90.43792
1.3678455,91.08133
1.4201181,93.038345
1.4653732,93.947655
1.5672861,98.45226
1.505779,95.11996
1.4972856,101.3305
1.5268579,98.825356
1.5969046,101.80575
1.6391224,100.90402
1.6495908,105.85283
1.7073225,104.22202
1.6489843,104.29599
1.6859225,102.80626
1.6841627,107.520966
1.6445801,108.98895
1.7459681,109.53589
1.7360066,104.39815
1.6539767,108.64034
1.7017802,104.98144
1.6257092,107.95888
1.6658312,104.92244
1.6363522,108.517136
1.6601645,104.64004
1.6456869,103.679726
1.5837531,106.25486
1.5922642,105.05617
1.6025646,107.43425
1.5538565,104.76032
1.5277654,100.223564
1.4243547,106.11073
1.4267421,105.23901
1.5120455,100.15662
1.4092017,99.733505
1.422973,101.22514
1.4512936,100.216576
1.4025363,97.331924
1.3802576,96.41295
1.3134557,93.94238
1.4686222,95.49666
1.4424632,94.889175
1.3269113,92.59895
1.2809067,96.24245
1.3846046,90.20324
1.280128,89.30267
1.3142647,86.87809
1.2831566,90.09915
1.3326789,86.201775
1.2593571,85.72017
1.3598211,83.934425
1.375403,84.23822
1.2793071,84.04482
1.2494494,81.390114
1.1970665,82.48554
1.2575158,82.2474
1.2150906,81.41338
1.1552675,76.53668
1.238651,78.44343
1.096202,76.227936
1.0751765,73.06973
1.0379896,73.03408
1.0812225,75.42274
0.9899804,73.30841
0.9913768,70.286766
1.0348004,73.63931
0.9470904,68.73391
0.9521527,68.12561
0.93372643,68.5009
0.87957966,67.04154
0.9445778,65.974594
0.864592,63.722775
0.9071633,64.36173
0.89619607,64.59109
0.82612747,61.94124
0.8249329,61.255196
0.93631476,60.780235
0.8889746,57.643612
0.8980362,59.930546
0.8230075,55.80526
0.83518636,57.077934
0.7895829,56.477814
0.8554469,52.81086
0.84977597,52.340103
0.89192975,53.805458
0.7912765,52.79276
0.71237344,53.7816
0.7618182,51.025738
0.75988585,51.36823
0.7174041,50.231785
0.7828195,45.654503
0.6686146,50.95302
0.5865898,50.239403
0.613081,50.23524
0.5677531,49.002277
0.5332132,50.890118
0.5984699,50.406548
0.53801167,49.846832
0.6139439,53.76263
0.5347281,50.700146
0.5568158,51.997845
0.4568262,54.812996
0.5496833,58.543068
0.4988681,58.170616
0.5145619,54.271492
0.5748347,61.142056
0.608351,58.976093
0.66630536,61.42655
0.6956136,60.96645
0.7567103,62.036716
0.87016475,65.529205
0.88251764,69.93392
0.95077336,69.41214
1.0409819,69.773224
0.97783333,74.3532
1.1685019,74.961716
1.2333078,74.43664
1.3433826,77.71405
1.3594499,81.6622
1.4069693,81.026634
1.5332388,81.56913
1.4964998,84.67318
1.6384877,85.42268
1.6662053,88.07268
1.6720297,91.19388
1.7542578,90.6568
1.7578809,93.62892
1.8711115,95.590515
1.920728,94.60392
1.9436688,96.421715
1.954959,100.09556
1.9503644,102.37134
1.9688717,99.2211
1.9732112,103.54429
1.97593,103.17597
1.9533967,101.8396
1.9825855,104.08231
1.9815292,102.6163
1.9557058,106.57557
1.9699763,107.06419
1.9288903,107.57272
1.9659888,110.38654
1.9909302,105.06755
1.9692926,106.942535
1.9284996,108.65081
1.8697484,105.534004
1.845181,107.18339
1.9169998,106.43199
1.7718804,106.627525
1.8305773,104.7846
1.745537,102.32017
1.8858365,102.59268
1.759042,104.8357
1.7538348,104.04191
1.638562,99.04243
1.6843934,103.4633
1.5783757,101.135124
1.6231886,101.73081
1.6629639,100.897285
1.5389984,98.38378
1.577044,98.47418
1.5500709,98.341644
1.6418097,95.026535
1.5340222,96.759445
1.4564898,91.34301
1.5029386,92.60908
1.5215094,93.42182
1.488268,92.079636
1.5244889,89.74186
1.4606888,86.212814
1.4641691,87.7799
1.5038081,87.36367
1.4224466,88.59587
1.4642088,86.068085
1.4473813,82.84733
1.3700924,87.20176
1.3203914,79.93054
1.352042,81.153114
1.3292608,77.90762
1.38862,80.176186
1.2668095,79.06575
1.3517698,76.877815
1.1910794,74.60636
1.1033918,76.005035
1.1668468,74.33945
1.0920337,73.72073
0.99995875,74.555466
1.1370314,71.62254
0.9640995,69.705536
0.96874005,68.897125
0.97470784,68.379135
0.9521527,65.95954
0.82072186,68.411766
0.95860255,67.25336
0.8606297,63.073444
0.8467874,67.08863
0.9349227,64.16812
0.77943647,63.522804
0.838635,58.850105
0.862481,59.28499
0.80452645,58.15763
0.7944376,55.509357
0.8297147,55.55024
0.7899895,55.245575
0.79418355,53.217022
0.7934546,55.671104
0.7817736,52.857666
0.74179655,53.35192
0.8083434,53.42655
0.761345,54.634354
0.66449696,54.644913
0.72464526,48.4519
0.6921282,49.02431
0.61797726,51.085674
0.5848256,52.171005
0.58005625,49.1595
0.53414404,48.92324
0.42391384,48.173203
0.4941103,53.581127
0.4681219,49.72758
0.43161038,51.571815
0.3456004,53.84623
0.40424353,50.66823
0.38286275,49.939724
0.3402561,56.62992
0.30291983,53.482857
0.36049712,55.076305
0.42691645,60.409523
0.46152782,60.71693
0.45127884,58.86725
0.4659051,60.478703
0.48897848,62.095203
0.4667878,65.15004
0.72719926,63.88408
0.64038914,66.771034
0.6954096,68.579285
0.7198321,72.36631
0.92372525,73.34145
0.9846877,73.65352
1.137744,79.0098
1.1376865,78.19469
1.0747453,78.47582
1.1437624,82.42193
1.2819227,81.87756
1.3688043,82.83047
1.3350316,84.21768
1.4894997,90.15177
1.4620104,90.27757
1.5190529,89.16121
1.6180664,94.30258
1.5531195,94.391754
1.5122815,99.92056
1.652586,96.34336
1.6101712,98.630165
1.7198613,97.79436
1.6532189,103.66091
1.6715014,102.397194
1.6389908,101.98222
1.601973,103.88814
1.6325923,101.70278
1.7379035,100.65943
1.673518,104.26664
1.7260213,108.463005
1.7048495,107.26321
1.6485597,105.306755
1.611834,107.50833
1.7038338,106.457436
1.56653,108.41849
1.478311,107.5293
1.6169566,105.420006
1.5933224,105.45517
1.5499879,103.84218
1.4938221,106.00384
1.5060917,105.93896
1.520359,104.46028
1.4550172,102.94505
1.3843162,103.18726
1.4009155,102.02062
1.3591524,100.075554
1.2982488,100.18651
1.2766201,97.48204
1.2845994,100.92138
1.2130414,99.60202
1.1396549,96.964035
1.3322266,96.95507
1.1567403,99.320496
1.0932488,95.81737
1.1933256,93.01603
1.1337268,95.370865
1.1348169,93.96394
1.096677,89.85031
1.0329487,89.67329
1.0709369,88.37728
1.0468124,87.56541
0.98309386,86.50207
1.0639035,85.39839
0.9910978,83.44195
0.9935458,85.262596
1.0379088,86.30029
0.90561,82.44497
1.0257305,79.46042
1.0447392,80.181
0.83405334,76.53678
0.8625956,76.12081
0.8221994,76.86576
0.8068114,75.84492
0.77856636,77.96906
0.71786743,70.888824
0.7161586,73.03049
0.6488457,71.43529
0.64793324,70.56878
0.5829122,70.97188
0.6063981,71.6522
0.59578,63.994717
0.58338356,69.563614
0.45200124,66.31888
0.48496768,66.22805
0.46714857,63.537785
0.41977763,59.932743
0.3835398,63.072285
0.47979918,60.25196
0.41309035,61.587143
0.49286613,56.599735
0.38988703,59.725067
0.46834397,56.203663
0.4805621,58.77409
0.45794174,56.641724
0.44938186,54.250595
0.39953902,52.676846
0.39991704,54.70428
0.3301912,53.931255
0.3284086,52.397514
0.3066428,54.3396
0.27037972,50.456238
0.346807,56.117413
0.26176482,50.25347
0.296014,50.96368
0.13638411,51.32283
0.20097338,51.13052
0.15122339,50.83764
0.12777868,49.280903
0.08475634,52.59337
0.091345,49.597084
0.01382175,54.31897
0.029268304,55.551304
-0.09425442,52.39919
0.11351205,51.5787
-0.05013491,53.9402
0.0073616477,54.864655
-0.049202498,57.573376
0.07105733,58.039005
0.036000066,55.08416
0.11301555,58.57833
0.021325536,64.418015
0.11838651,63.628998
0.21865533,64.27232
0.26036805,65.859634
0.36201656,67.83117
0.40557006,70.30173
0.42597228,70.24036
0.4913066,74.92503
0.55976635,76.20354
0.62153125,78.60946
0.6845131,78.334335
0.77710176,79.59592
0.89134175,79.344185
0.8915815,83.32591
0.99522716,82.41629
1.0641924,87.90272
1.0897284,89.68247
1.106246,88.992256
1.1851436,89.651215
1.1968722,92.994194
1.1549863,95.71789
1.2683187,96.03581
1.250208,99.0459
1.2601779,98.93681
1.2564212,101.47374
1.4159763,101.1999
1.404972,101.39164
1.3903561,102.619644
1.380123,103.30122
1.4050161,104.5896
1.3902258,103.98212
1.3463387,111.16361
1.3368893,108.20002
1.2778038,105.67821
1.3461465,106.775536
1.4163882,107.32003
1.3023807,106.990135
1.2861552,105.91361
1.3130894,106.432465
1.3306706,104.93825
1.3106451,103.30474
1.2836326,101.78756
1.2519491,103.73909
1.1828029,103.33288
1.1872561,106.17871
1.2596338,104.91866
1.203288,103.019585
1.1401961,103.40941
1.0725905,102.43183
1.0918125,102.210724
1.1699463,97.97811
1.0463142,97.525536
1.0257211,99.64297
0.95375854,98.10235
1.0274284,96.483536
1.0552382,93.936325
0.98262477,93.23146
0.8725347,95.52567
1.0068467,91.401535
0.9109559,93.6893
0.91780174,90.14432
0.9419828,86.52563
0.9137232,89.8437
0.8796856,86.91812
0.89243424,87.0416
0.86270714,84.98067
0.95382124,84.2704
0.8144876,80.428375
0.9030789,85.32032
0.8462676,83.8731
0.7834874,79.8991
0.7773284,79.93213
0.85829383,79.61693
0.7317322,78.43667
0.78711396,80.61544
0.7052116,74.8437
0.7085828,74.10819
0.6253858,71.386955
0.6344448,74.49624
0.60724103,73.35046
0.5727301,71.49689
0.5563107,67.85009
0.55932003,68.48924
0.51196665,69.65055
0.5436864,68.61599
0.47005302,66.39607
0.45312,65.26403
0.38332084,61.160854
0.43632707,61.248463
0.3576393,60.068592
0.44157657,59.73494
0.407361,59.73675
0.37154487,57.938156
0.4570199,58.78055
0.39770824,57.75361
0.50795037,56.473614
0.31322238,56.992424
0.37532076,57.198936
0.36625794,55.05261
0.40161255,54.488686
0.46946988,53.562508
0.4360853,52.814613
0.33994162,52.91229
0.39063764,48.014095
0.3385925,51.723732
0.27166668,52.93678
0.3065681,49.546165
0.21739504,50.4848
0.29107416,45.47282
0.2698693,51.17067
0.17831217,53.195362
0.18383716,49.24757
0.095437296,53.649933
0.08782316,54.949623
0.071161635,56.028996
0.08277228,53.37111
-0.011359102,56.474342
0.14146332,56.604645
0.15582621,58.305115
0.13587712,56.302296
0.19730115,57.28704
0.15105101,60.432457
0.23234187,59.533512
0.26639545,61.551373
0.31407487,62.508965
0.3952307,63.490974
0.42396894,64.7647
0.5070712,66.048035
0.530105,68.83443
0.641176,74.72899
0.69315606,71.048325
0.7004538,73.42024
0.81957036,72.837494
0.9324561,75.72624
1.0002446,80.23796
1.0592563,83.22153
1.1770198,83.236046
1.2742549,84.517265
1.2081116,89.08415
1.2887647,86.941505
1.3064446,88.8568
1.4145291,91.83183
1.4822407,94.1554
1.4324499,97.34478
1.6101179,98.17299
1.5084554,97.53232
1.6146827,100.15894
1.5421706,100.07813
1.5725074,101.8826
1.6155404,97.814095
1.6272297,104.16494
1.5933403,105.37321
1.7153736,104.37718
1.6253577,105.22151
1.6509068,106.45618
1.6564482,106.99609
1.6921386,106.54231
1.666448,107.38621
1.5634755,109.35983
1.6291952,112.16729
1.621264,106.59723
1.6487365,106.801186
1.5733495,106.48334
1.5619012,104.90393
1.5361751,105.46689
1.5317305,108.22748
1.5989164,105.403336
1.5903958,106.12588
1.506453,104.083305
1.5731796,103.073875
1.5446072,101.81394
1.4598489,98.96748
1.4128718,101.923996
1.4434693,102.33415
1.3780819,98.344025
1.3345225,97.06192
1.4455057,96.547195
1.2883652,95.943306
1.3331075,94.938995
1.3428,94.83662
1.3152184,92.298874
1.3816646,91.33218
1.2706586,92.849335
1.3084097,92.915276
1.2135917,88.2195
1.3220543,90.12751
1.292663,89.1214
1.2417057,87.389725
1.327006,88.616776
1.2749068,82.22578
1.249417,84.659195
1.2407548,82.576195
1.2450166,81.24879
1.2090728,81.796745
1.2138953,81.8088
1.193676,76.941246
1.1747893,78.86437
1.1056062,75.93942
1.1425391,76.26173
1.118151,74.992905
1.0469768,74.74831
1.1027082,72.09159
1.0014609,72.334465
0.9607019,73.14269
0.93733174,68.12963
0.9343928,68.67495
0.89920056,66.242966
0.9060301,66.773056
0.8918223,66.57131
0.8433988,62.31166
0.8194609,66.253456
0.8100972,60.48694
0.85124075,62.124187
0.8138318,61.84636
0.8270027,61.86982
0.8384073,58.64529
0.8948028,60.342392
0.81345105,59.14815
0.80319196,61.651802
0.7886911,57.58603
0.8450816,53.158985
0.79794014,56.451168
0.88234484,52.79034
0.8887593,53.23546
0.80355173,52.7951
0.8114425,50.18483
0.82464,51.313934
0.73768437,48.843235
0.69279593,51.78926
0.68677527,52.40577
0.6349944,50.33894
0.6216197,49.363144
0.59121615,53.380383
0.5699798,50.789337
0.5823943,52.39866
0.50889987,50.67819
0.540781,50.293884
0.5187057,53.75321
0.5054582,53.40882
0.5053486,55.42187
0.50388974,57.423183
0.5120742,56.09101
0.4857994,59.300694
0.5278361,60.31996
0.60086036,59.09016
0.6738827,60.154915
0.7157065,60.536987
0.6775402,67.17742
0.73064595,61.99529
0.8552939,69.3971
0.911937,64.95211
1.0100927,69.85454
1.0679525,72.9578
1.096859,73.71608
1.1432323,71.71047
1.3071244,77.19903
1.3303595,78.18525
1.3262291,78.326065
1.3462809,84.35546
1.4459304,84.80893
1.5047089,86.75148
1.604919,88.48327
1.6081467,87.29668
1.7345519,92.968605
1.8263904,92.81957
1.7719686,92.74828
1.9136256,96.98818
1.8313285,94.52556
1.8754641,99.01886
1.8804286,101.29181
1.9361416,101.382744
1.9826068,104.515434
1.9201145,105.22294
1.9641633,103.866806
1.9827359,105.69796
1.9875195,103.59973
1.9555691,107.06744
1.9231265,106.11122
1.8894075,106.7371
1.9299754,108.18913
1.9593028,106.190025
1.9795456,107.0864
2.0048115,108.32435
1.9796715,106.68388
1.8806388,107.321594
1.9964007,101.97513
1.9297514,101.94093
1.7876766,106.3221
1.7597721,108.43561
1.7796046,104.49356
1.8085513,102.39016
1.745459,104.4213
1.7385157,103.33237
1.7683916,99.52676
1.6606468,99.98073
1.6315337,101.05627
1.6786278,101.70866
1.5986147,100.7467
1.6453878,97.08758
1.6162257,96.45269
1.6063702,97.51522
1.5062112,95.85931
1.5913846,95.077446
1.5228078,92.92529
1.5801797,90.793655
1.4784504,88.70708
1.4742172,90.45249
1.4733387,87.28469
1.487264,88.21865
1.496726,86.634415
1.3967266,86.201485
1.4255103,86.096436
1.4597754,88.22888
1.4382612,84.628235
1.4126456,79.84132
1.3462632,80.62763
1.4427661,81.114876
1.3489065,79.75878
1.2194979,78.6156
1.3900956,79.94852
1.2287526,73.860596
1.2561364,76.1285
1.2075799,75.8659
1.0869546,77.20262
1.1398056,72.382
1.1226873,72.54929
0.98573893,71.18443
1.042248,66.909
0.9800175,65.181526
0.99990994,68.64458
0.9453012,65.3435
0.9005129,66.13578
0.9626489,63.946655
0.92812663,64.5506
0.8613498,63.630596
0.87672645,60.67071
0.77358663,66.19162
0.8817914,58.294136
0.91624826,56.876858
0.86982375,60.23703
0.83681667,58.464214
0.8525065,53.632202
0.82808965,54.375492
0.81187063,56.39369
0.82836854,55.960052
0.83342165,54.38384
0.7977399,50.710365
0.72243917,50.847355
0.71376824,51.3477
0.77022904,51.503605
0.7996763,51.089226
0.6670058,51.390205
0.6804863,48.338737
0.55558324,51.344658
0.62296414,53.013515
0.5615922,47.847855
0.5025208,50.637493
0.45862278,53.11013
0.609905,50.79401
0.48044676,51.767323
0.390094,52.99793
0.33464193,52.712845
0.40944213,53.314777
0.3770973,54.70574
0.41499475,53.231422
0.37450066,57.30399
0.444886,57.344425
0.47212443,58.841797
0.5470719,59.395493
0.53335947,64.93977
0.70720685,65.407005
0.59404147,63.758236
0.6826117,64.822525
0.736342,67.30458
0.746014,66.893036
0.91036886,70.7752
0.9309959,73.57541
0.9783957,74.51977
1.1169337,75.76074
1.1306183,79.73654
1.2884815,81.202446
1.1961633,83.99357
1.3061041,81.55904
1.4011703,85.37796
1.4592011,84.480644
1.4428318,84.557304
1.5934473,89.39602
1.5118552,92.53631
1.5353291,90.75859
1.5587049,93.70831
1.704477,96.88852
1.664571,97.90053
1.6019372,101.3424
1.6613767,102.77593
1.703946,102.489296
1.6986439,105.44032
1.7019539,104.954346
1.70333,103.068634
1.76739,107.44578
1.7239405,104.91136
1.7046611,104.724556
1.6645688,105.57088
1.5927566,107.56428
1.664149,108.429695
1.6655408,107.21874
1.6648203,108.394875
1.6738517,105.39771
1.5569824,107.18819
1.6190782,107.57951
1.5704173,106.751396
1.5578659,106.54477
1.5139552,104.20977
1.4419854,105.84018
1.4233352,105.03937
1.437996,105.34153
1.3679894,103.19636
1.4474485,101.09364
1.3375782,100.30388
1.3604978,100.43201
1.2625306,98.34946
1.3054023,100.83543
1.3071511,99.02485
1.2146899,95.28642
1.1680712,95.542175
1.1684818,94.32305
1.1695228,95.39116
1.155494,92.22415
1.2170427,93.09302
1.1472801,88.067535
1.1507142,90.07539
1.1522088,88.38091
1.1612563,88.06863
1.0483049,90.05421
1.1160324,87.45751
1.0606766,88.45664
1.0386407,85.95485
1.0542111,83.602005
1.0495036,82.97757
1.0109503,81.54979
0.9266299,79.0978
1.0704553,79.38207
0.933341,78.49146
0.8899724,74.52277
0.8769552,76.84383
0.90321517,77.957344
0.8587227,76.32135
0.7614498,74.12517
0.73922193,72.85474
0.702481,72.6975
0.6523807,72.36583
0.618441,71.90359
0.6110447,69.3639
0.6131189,71.57377
0.48266512,68.49149
0.5344817,64.21179
0.46592075,62.992435
0.48790634,64.18107
0.4517728,65.456635
0.45204285,62.072952
0.494341,60.690083
0.4421337,58.721436
0.44737995,61.691437
0.4479039,59.0503
0.37541503,57.146805
0.42962193,55.39354
0.42184487,54.286457
0.40951994,56.65614
0.46430707,55.045933
0.37868318,54.933376
0.343786,53.4243
0.36143208,52.286324
0.33861193,52.990566
0.34675387,53.01133
0.24663618,50.391136
0.30726296,49.96628
0.23361756,49.9402
0.23414919,51.285587
0.18189237,52.04932
0.12591179,52.405178
0.14383416,51.2297
0.15215315,50.53042
0.00036781872,53.37683
0.06496026,53.645428
0.028019028,53.560165
-0.020564998,52.906612
-0.09352207,54.726055
0.027459348,56.3587
-0.035902955,54.258938
0.032311905,57.175583
0.0067258384,59.365707
0.026622234,62.173496
0.13070974,60.871414
0.101419605,61.372536
0.16126849,66.1788
0.25136632,65.64504
0.37012354,66.59241
0.39441344,70.5988
0.45991218,69.2924
0.5823081,71.45979
0.6208869,74.86032
0.6224353,74.6031
0.6688647,78.83604
0.80479723,78.94076
0.7367688,80.47314
0.8755534,83.5914
0.90230256,83.09547
0.9641429,87.02548
1.0325991,88.32386
1.0363859,90.95478
1.1355987,91.1417
1.1559359,92.176094
1.2711183,93.720566
1.2352843,96.7986
1.2261425,94.50479
1.2938919,99.202576
1.3502051,99.50809
1.4206421,101.068405
1.2376734,100.14118
1.3631871,104.20137
1.3180754,101.71801
1.3968962,106.00762
1.3220333,104.000755
1.3372176,104.423645
1.35694,106.60179
1.3611404,105.88655
1.4156462,106.90958
1.3743131,104.66075
1.312803,107.72316
1.2539284,106.57129
1.2967942,107.236565
1.3092864,107.53261
1.2316072,106.9767
1.2939184,105.52765
1.353653,106.04378
1.2346482,106.17056
1.1881204,105.50982
1.1661636,103.36969
1.2335546,101.271484
1.1581473,102.818405
1.1851192,105.694
1.0893633,98.88075
1.1372391,100.692764
1.1084872,100.2776
1.0463326,96.5131
0.98139817,101.25866
1.0523084,98.20885
1.037394,93.329315
0.9727416,93.79068
0.9658878,93.24128
0.97247785,93.87623
0.9939175,95.90343
0.83583546,91.4923
0.8395338,90.24647
0.92724514,91.526886
0.9246904,90.488625
0.83714837,86.5809
0.9078343,86.89258
0.911374,84.32259
0.8411858,85.99222
0.8381243,82.36134
0.84320843,83.10037
0.76456594,80.3696
0.8357726,81.286415
0.77474254,81.59151
0.8292225,77.52929
0.71938014,74.984856
0.693145,79.18489
0.67016846,75.41462
0.6693672,73.82621
0.58031684,72.970245
0.6351993,73.877266
0.6492571,74.431244
0.5875973,70.18595
0.5423115,68.39206
0.48502368,67.299675
0.48373482,67.15421
0.43247354,67.76558
0.43990687,65.04326
0.42810813,66.86456
0.41199866,64.1543
0.519901,62.16635
0.371074,61.44413
0.3835741,62.267128
0.38739687,60.058838
0.44414946,60.088
0.37916476,59.849316
0.45116726,57.30511
0.41991347,56.63298
0.43320277,54.926964
0.37344742,53.777225
0.431116,52.40053
0.43831432,54.287983
0.4178587,50.968388
0.35659596,53.43146
0.3626791,52.785103
0.27366656,49.49843
0.30238447,53.48965
0.28374887,54.385235
0.21103518,51.481472
0.36722913,52.933537
0.19889599,50.24986
0.17462972,50.989788
0.1850428,52.464703
0.10735204,49.55772
0.0810738,51.242966
0.15509301,53.12028
0.21934056,53.478786
0.015989214,56.245914
0.067973725,53.103107
0.055147793,54.497887
0.07037433,53.902313
0.14828865,55.41903
0.16949818,59.114223
0.16312733,60.717022
0.2670409,64.02952
0.23601316,63.81624
0.32845291,64.84626
0.4032408,62.180923
0.4070098,66.48202
0.47898707,65.77366
0.543056,67.99299
0.55395794,72.371346
0.7239291,74.73331
0.7447752,76.440926
0.8877249,76.76793
0.9630132,79.69772
0.8814295,79.611916
1.0770794,81.81993
1.1444521,83.58945
1.1854436,84.36649
1.2608287,87.926254
1.2720056,87.369896
1.3681849,91.67151
1.3472633,91.222786
1.3772635,97.04945
1.3831066,95.83972
1.4422857,99.32835
1.5470049,96.487305
1.4963442,98.884605
1.5456489,100.52977
1.5289384,99.21687
1.5546297,105.02188
1.632766,104.305725
1.6210307,102.74728
1.6246929,105.58022
1.6012939,106.283104
1.690093,107.011055
1.574133,106.12686
1.6727632,111.045746
1.6209246,107.188095
1.6413261,102.30098
1.6714101,105.72191
1.4708563,105.99697
1.5939133,106.51356
1.5427417,105.96209
1.5527045,106.2389
1.554224,104.09838
1.5268472,106.30131
1.5113475,104.235374
1.4375635,105.3237
1.560454,102.85072
1.4093463,103.72125
1.4199209,102.63798
1.3812877,104.34916
1.352933,97.91399
1.3307301,99.05768
1.3878791,100.350204
1.3039433,97.4685
1.3139008,97.93719
1.3429327,95.22187
1.3607737,94.36973
1.3113762,93.07241
1.293229,96.18472
1.3299896,93.114075
1.2623729,92.01452
1.2230729,91.265396
1.28245,88.08302
1.2827914,86.228096
1.2097075,91.03149
1.3375082,87.43631
1.2618148,85.354706
1.3183864,85.68196
1.2155219,82.667786
1.2528242,83.10283
1.1673039,82.812386
1.2856442,81.519295
1.0822799,81.56767
1.1683856,78.82786
1.174542,79.36019
1.0762194,76.56338
1.1143823,75.63583
1.0565752,74.46842
1.0967729,74.42114
0.9894954,79.50881
0.91867316,73.08752
0.9684904,70.16139
0.86877906,71.517006
0.8974838,67.91984
0.92745274,66.93439
0.85356784,68.16526
0.7739746,66.020775
0.84580964,67.69425
0.8533745,66.11056
0.7750287,63.834236
0.766479,61.911686
0.83407336,61.101524
0.7640263,61.656303
0.7147837,59.479954
0.84631246,56.72613
0.8054143,55.316692
0.8038224,57.3229
0.8033123,54.597412
0.8413924,53.90615
0.86019224,51.636795
0.75348926,54.02768
0.7565615,55.82639
0.79351443,51.8029
0.71812946,52.205715
0.7154574,53.860065
0.7079614,52.906357
0.6881639,50.13307
0.7025605,50.784885
0.68746245,50.138035
0.6251124,48.82642
0.6053995,47.87738
0.5896872,52.254982
0.4863605,50.003
0.55415416,50.680454
0.48941234,52.575996
0.47726405,54.141132
0.46268544,53.520725
0.5282783,54.4998
0.5540275,53.192528
0.51108783,56.547905
0.56123745,58.179733
0.54235417,55.973408
0.63658935,58.47642
0.54986763,62.13547
0.6780017,58.26066
0.72001284,60.803608
0.72432935,64.77083
0.81258637,64.900566
0.8361374,65.59052
0.8938184,68.85997
0.97674453,74.3785
1.1350018,74.19546
1.228232,76.886154
1.2245008,77.17395
1.2996503,76.0842
1.4396374,81.18142
1.4015639,81.71037
1.5247443,82.29407
1.5234643,82.28387
1.6106303,87.75615
1.6863666,88.35908
1.705585,90.581245
1.7892687,91.24221
1.7351233,98.399025
1.8481078,95.8215
1.8489356,95.76217
1.938672,99.22171
1.9385495,96.81657
1.9112552,101.41807
1.8992933,101.409386
1.8523239,101.79651
1.9847792,104.45567
2.0558476,101.53889
1.99798,105.76166
1.9900407,102.98731
1.9795507,104.67047
1.934894,107.299866
1.9443824,109.32743
1.9238828,107.048004
1.9670641,107.934044
1.927182,108.62595
1.8975792,109.14924
1.8765681,103.87925
1.9409655,107.178825
1.8576609,105.50709
1.86322,107.80974
1.8408791,106.15787
1.7582234,108.547325
1.7775089,102.55424
1.7901254,106.31626
1.7013143,101.92498
1.749584,103.79421
1.6299882,104.50615
1.6783211,104.05536
1.6528146,96.72339
1.6519969,96.82648
1.6540736,99.90402
1.6491109,95.47595
1.6034322,97.22678
1.5370157,95.05553
1.5654737,93.503876
1.5679485,93.51216
1.4540776,92.17189
1.4362084,92.570595
1.5571445,90.92891
1.4949691,89.99311
1.490034,88.80392
1.4287506,84.98661
1.4597203,86.47175
1.4784114,85.69625
1.4047567,80.28579
1.4535577,83.71044
1.3273863,84.49179
1.3822826,82.909515
1.3564652,81.90771
1.3504822,76.77763
1.3260341,79.309875
1.2566938,77.526146
1.2341267,77.50483
1.2653956,74.90681
1.1774821,75.67566
1.1390043,71.379135
1.0821567,74.03379
1.0202123,69.86374
1.1049225,70.87473
1.0884329,69.10878
1.0456419,68.92364
0.942865,70.39454
0.94337344,65.54083
0.9579619,67.183586
0.88530195,60.866272
0.970923,61.660786
0.86071396,62.523483
0.9337805,62.87131
0.912045,61.794094
0.9442326,62.225906
0.88595927,59.238613
0.90781564,61.194923
0.8198697,59.938847
0.86280346,55.778484
0.8837476,57.887352
0.8482761,56.082294
0.8038229,54.601982
0.8730684,55.964806
0.8868917,55.71732
0.81966996,53.389503
0.67315924,51.40895
0.819097,54.06466
0.74511707,51.95202
0.66955835,49.259537
0.7146012,50.81865
0.6411985,50.0836
0.56805366,51.900177
0.60189164,49.765717
0.54078746,51.74072
0.5214712,51.9375
0.50512785,52.380585
0.38577488,55.225586
0.49800804,49.540634
0.44170606,53.28612
0.43130973,55.147312
0.5167015,55.40011
0.45659453,57.333813
0.45516717,58.376465
0.4098978,54.908787
0.49688023,58.645008
0.5387565,62.292152
0.59948707,61.295967
0.56829375,65.05168
0.66269106,64.53049
0.7778383,68.70251
0.7723689,65.51773
0.77910995,73.94984
0.8711328,70.503914
0.97457504,75.93305
0.9769988,78.49343
1.1238258,75.87748
1.2489341,77.095856
1.3125638,81.28331
1.2739326,81.562355
1.38533,82.54724
1.4313444,87.50645
1.4123751,86.803825
1.4889597,88.33569
1.5375046,89.8794
1.6045817,92.75442
1.6228687,90.17536
1.5919807,94.52813
1.7271347,99.74891
1.6953019,100.94311
1.6797372,101.64084
1.7748711,99.87441
1.7107878,101.234665
1.7285076,102.40421
1.6905638,100.74449
1.7566863,104.88207
1.8023009,105.09791
1.5977226,104.34271
1.7596828,107.5004
1.7527438,103.76687
1.7250799,104.69402
1.6702975,109.201385
1.6944491,107.41209
1.6978306,105.34227
1.6583648,105.82633
1.6227292,106.849724
1.5508252,104.162865
1.6322803,105.02701
1.6303784,105.70463
1.5127435,106.35476
1.453165,103.96422
1.4852573,105.20281
1.4518077,102.631195
1.4880358,101.58929
1.3939148,102.498665
1.3759305,102.14321
1.2791563,100.01261
1.3632176,102.30838
1.2461169,100.71729
1.2186455,96.14371
1.2727424,97.51206
1.289757,97.03766
1.308689,94.23165
1.1740034,94.70321
1.1637655,90.56717
1.1650206,90.11253
1.1687968,88.35473
1.2278076,87.82691
1.1307663,90.49266
1.1146992,89.21499
1.1804711,86.47195
1.1455709,84.56997
1.2172979,83.54368
1.0979081,83.01633
1.0893216,84.85867
1.097004,83.6381
0.98806214,80.60317
0.99441,81.70963
0.8941072,82.37193
0.92509097,79.03389
0.905089,78.24427
0.952383,76.79642
0.85343766,79.716194
0.7703906,74.60741
0.7749884,75.90246
0.7627473,73.53992
0.63909346,71.94255
0.65663874,69.928825
0.71815014,69.49232
0.6223425,67.89105
0.6281347,69.581894
0.61227703,66.14211
0.5526598,66.330864
0.5068587,65.76063
0.51240706,64.260056
0.5245566,63.11131
0.5013521,61.027225
0.44761878,59.505928
0.49017617,61.628323
0.48955923,58.317272
0.48984545,56.335186
0.4616344,57.77131
0.38943955,59.001175
0.45933485,56.381584
0.403223,55.488464
0.46359134,56.002384
0.43387872,52.95158
0.44101053,53.595085
0.36283073,52.493114
0.4562029,51.863037
0.32207665,50.56746
0.26578495,52.0459
0.25163686,52.60256
0.22027317,49.11203
0.22540382,53.106586
0.1516335,47.576893
0.14405748,52.13456
0.17016195,48.056606
0.0560024,53.999813
0.08798893,50.321613
0.15387164,50.486298
0.07960087,52.94185
-0.02984615,52.513042
0.05523519,56.15248
0.04526787,56.528057
-0.026803957,51.77925
0.050158124,56.58702
0.015945574,61.506775
0.07514151,59.596806
0.12288044,62.89116
0.122996695,61.026855
0.17228173,65.68847
0.27052915,66.70683
0.32337448,66.53466
0.34387705,66.87496
0.44684136,70.60776
0.4940141,73.09813
0.598149,73.75783
0.6635881,76.25057
0.6810717,75.20234
0.7826763,77.6724
0.83254683,80.17991
0.89741147,81.11514
0.9547703,84.6959
1.0249604,84.65504
1.0385114,89.00333
1.0999191,91.60053
1.1899806,90.692375
1.1497002,92.13013
1.233766,95.91174
1.2258736,97.57562
1.2426354,98.40356
1.3540806,97.74636
1.3018415,99.187
1.4224141,102.55336
1.3883029,100.848335
1.4133794,102.535034
1.4181302,102.26012
1.3598372,103.48034
1.2856607,105.28333
1.3961042,103.34031
1.3173273,108.177574
1.3433692,107.91566
1.2767746,104.26904
1.2996578,106.74609
1.3058944,106.17423
1.3293732,106.74353
1.39007,107.51517
1.2463707,104.7686
1.3345308,108.19097
1.3366925,106.16872
1.1774398,105.095146
1.2599018,104.58927
1.1695799,108.81329
1.2151501,105.50228
1.1440923,102.36336
1.1385708,105.914
1.1520718,102.075615
1.0988556,101.09247
1.0395502,100.93717
0.9986643,98.19788
0.9512775,100.57532
0.9241277,97.92019
0.9685409,94.88647
0.9805968,97.63488
0.980365,95.84647
0.9171882,93.51949
1.0009271,89.6843
0.8775107,91.66537
0.98539865,93.36957
0.9656834,91.12817
0.8486821,87.97738
0.93517464,89.86767
1.0066782,87.10592
0.83069336,84.3822
0.8401801,85.333595
0.9284521,84.9123
0.7705327,81.965965
0.81522256,83.213745
0.71224666,80.36838
0.8179303,80.60521
0.73192567,79.326416
0.7104951,79.97156
0.74642587,79.27051
0.6235938,77.628204
0.64880466,76.07213
0.69608057,77.21522
0.5602945,72.15426
0.5112433,70.33884
0.48503098,71.72927
0.5489105,69.98156
0.5151403,73.78769
0.50059295,71.366234
0.4294196,69.41184
0.33743277,67.785934
0.49204984,67.13587
0.34388435,64.85603
0.39210594,59.997025
0.4257625,62.993034
0.24728462,60.86555
0.4233383,60.513023
0.35614944,60.653496
0.36060753,57.622833
0.33099365,59.94894
0.39371642,57.157757
0.39186633,57.584324
0.24705389,53.43148
0.3810178,53.90955
0.35839257,54.03756
0.38789117,52.054485
0.25876534,54.014236
0.32756126,52.08204
0.24308838,53.245117
0.34649485,51.113953
0.22692835,53.726536
0.31758642,49.713684
0.20420896,48.972973
0.16271101,46.604443
0.15103838,48.466488
0.20302486,51.057087
0.1481998,49.166924
0.18458182,50.905647
0.08822481,51.99749
0.04107082,49.488197
0.035349462,51.508034
0.09496096,54.007553
0.06387158,54.276665
0.020254921,52.642307
0.12550713,53.44547
0.06791234,56.809017
0.115244426,58.497974
0.09341264,61.960644
0.17008024,61.601997
0.29579306,62.14572
0.26322785,63.557076
0.28216732,64.877144
0.43318886,67.85875
0.5035062,70.02197
0.500123,69.24751
0.59473205,71.48899
0.68897,70.403145
0.8053471,76.65748
0.87347233,76.40029
0.82806325,78.487114
1.0631137,82.26341
1.012495,82.15035
1.0991697,84.870674
1.1488912,85.6682
1.1956216,90.805405
1.286642,93.41896
1.3105147,90.682556
1.3604757,91.93287
1.4859176,96.343895
1.4634075,93.969284
1.3885256,96.69506
1.5092136,100.48876
1.4700419,100.293755
1.496425,98.19841
1.567563,102.781265
1.405634,102.55351
1.6514443,104.15549
1.5716071,103.55809
1.5780952,106.77882
1.6563379,106.93099
1.6113695,105.787315
1.5632875,105.44547
1.6103412,105.98228
1.6304986,107.81579
1.6130266,109.684
1.6457772,112.17809
1.6315632,108.42014
1.630335,108.896034
1.5933447,106.383804
1.5487642,105.14324
1.4277009,105.92354
1.4767975,105.28632
1.5014226,102.4543
1.4515325,104.98921
1.3929511,103.15944
1.447399,107.628265
1.3603232,99.11174
1.3652587,101.51375
1.4380157,103.27187
1.32857,99.228645
1.2746832,98.937935
1.2122303,99.63674
1.3035898,97.25834
1.2493888,97.66586
1.2453601,95.14814
1.2506415,94.5534
1.2936462,94.57879
1.2251383,93.197136
1.2438788,92.120766
1.1734362,88.79059
1.2126173,88.68636
1.2038512,86.463524
1.226196,85.95428
1.2567016,87.01601
1.1656042,88.47319
1.2119936,84.95482
1.253965,83.679
1.0794957,79.52368
1.1446978,81.655785
1.1623844,80.468796
1.1238881,78.63186
1.1663784,77.7835
1.0652494,80.22932
1.073465,77.647354
1.0421778,77.01468
1.0382717,77.03117
1.0846086,72.35695
0.9564913,74.75719
0.917052,69.90981
0.8974505,72.22977
0.8856041,66.03898
0.83784115,68.3279
0.8199425,68.5129
0.8637134,68.63344
0.7892618,69.49311
0.810206,65.95663
0.7742174,64.152145
0.8000578,60.82324
0.79264945,63.127754
0.8388631,60.42914
0.7737805,59.30505
0.7812418,61.48112
0.7919282,57.702396
0.7458441,57.18429
0.80927473,56.85631
0.8027039,55.175022
0.83000016,55.704464
0.8366394,52.30843
0.7293727,53.18098
0.7605973,52.94625
0.7534614,51.065613
0.7373496,56.374466
0.6255732,50.04434
0.7328624,53.41169
0.70667017,50.878525
0.709043,51.139553
0.578192,53.124496
0.54873455,50.05858
0.580444,50.31708
0.48602661,51.380005
0.62835205,51.211708
0.3896391,54.94853
0.43213865,51.54455
0.43727854,51.287357
0.48780975,55.49872
0.4256539,53.874924
0.39332616,53.040955
0.55465066,58.565144
0.5092767,59.154343
0.5522951,61.505333
0.5050573,57.448387
0.5356089,60.868393
0.66015226,62.7587
0.72986066,65.3635
0.7971259,66.898674
0.7977991,70.82811
0.8739751,67.44934
1.022617,71.0732
1.0417923,76.517845
1.0374548,72.24664
1.1420163,76.87565
1.2387781,81.20905
1.3300856,82.316734
1.4331669,83.19308
1.4292763,83.336716
1.4645174,84.98304
1.48228,86.734955
1.5647789,87.008675
1.6624742,87.11816
1.7007701,92.80227
1.6419009,87.922585
1.7087979,97.045425
1.7795148,95.09549
1.8829658,96.70505
1.8864306,96.23865
1.8820945,99.759995
1.9581131,101.81068
2.0113647,99.97995
1.8980337,104.90124
1.9116889,103.52011
1.964073,106.12733
1.9194494,105.66506
1.9139677,104.97389
1.939126,106.63549
1.9602065,105.32035
1.9720808,105.36926
1.9317067,107.53103
1.9052781,106.327736
1.9387116,106.46273
2.0059597,108.201035
1.8902075,107.21655
1.8894371,107.82021
1.8694932,104.9943
1.8181086,107.1613
1.8010921,103.37133
1.7880622,105.17237
1.88822,107.41125
1.7651377,99.82613
1.7323468,103.17764
1.685284,101.837524
1.6801734,100.68884
1.694017,98.71277
1.6454822,98.249855
1.6561568,96.63992
1.5801622,99.32317
1.5477359,98.10358
1.5674722,97.33537
1.5602593,92.83041
1.5959029,94.49504
1.5539852,93.67832
1.4631317,94.212494
1.5074936,90.66798
1.4814473,91.81174
1.5453584,86.90052
1.5502605,85.82104
1.4798142,87.27499
1.4331318,88.148285
1.3604989,83.067
1.4237443,80.70627
1.3602307,84.47583
1.4454321,83.56638
1.371392,85.11961
1.3547323,80.920395
1.3575662,77.906876
1.3660921,80.48025
1.2690294,77.498856
1.3343246,74.498474
1.296653,76.63284
1.2184672,74.03108
1.2304207,74.75442
1.1156976,72.09041
1.0586758,72.485695
1.0659057,73.26973
0.96305925,72.0052
0.98058957,68.12215
1.0466825,67.04472
0.99442625,66.40795
0.9764693,63.202335
0.8942098,64.736275
0.9861773,62.772575
0.88960886,60.043236
0.8812211,61.08667
0.9804166,63.13281
0.8582656,57.72587
0.86525464,57.610962
0.8795105,58.208115
0.8109718,55.15299
0.7680956,57.136913
0.8644727,54.927216
0.80230325,56.16915
0.7613391,54.478638
0.8183638,54.82965
0.8568913,53.223507
0.7964311,49.46929
0.7564012,52.543617
0.788147,50.98466
0.73191404,51.110794
0.7711882,51.79292
0.69374794,49.27292
0.66857636,52.73371
0.56731725,52.80624
0.64155024,49.999676
0.6059102,48.586586
0.53653336,51.36541
0.47156224,50.959965
0.5486587,51.99591
0.46287262,55.316525
0.45701593,52.19236
0.48474324,55.080967
0.4705293,53.70904
0.5212281,56.899834
0.53305095,57.166046
0.50572866,58.793888
0.5245266,59.776264
0.529655,61.163624
0.5787441,62.724033
0.69139093,64.79811
0.7220949,66.63008
0.7775765,65.567444
0.8229921,66.106384
0.86152047,68.011826
0.9045234,74.373726
0.9885967,72.78659
1.2038467,75.295425
1.1235377,75.09293
1.2028489,82.92839
1.384959,80.93189
1.3526187,81.76686
1.3297311,82.90965
1.3978529,87.43615
1.5066804,88.08348
1.4716309,88.26277
1.5397304,90.317535
1.6420434,93.45314
1.6890817,96.01095
1.695891,95.98725
1.7088202,95.976906
1.7496711,98.523964
1.7393446,100.2656
1.8012462,94.1058
1.7468437,99.380196
1.7701573,103.04257
1.8198844,102.735
1.8608949,104.78312
1.7706856,103.69919
1.703004,103.5795
1.7901667,107.59913
1.7439866,108.14258
1.7414327,111.25575
1.6748934,106.82229
1.6385415,110.31033
1.7549466,106.99327
1.7217556,107.26815
1.6392034,108.24589
1.6567127,106.78132
1.5989395,106.432236
1.6444826,106.918724
1.4730837,102.26519
1.5784671,105.80712
1.4702874,106.855415
1.5071932,103.49641
1.524453,103.63073
1.367281,102.85161
1.4913744,102.348724
1.4181794,96.98985
1.3578106,100.9459
1.3947171,99.543236
1.3521779,95.9275
1.3237128,97.85471
1.243219,95.6337
1.247956,96.03047
1.2460752,92.176186
1.2337902,95.43094
1.1914176,91.57086
1.1457705,89.30149
1.1215633,93.0441
1.2249738,85.40575
1.2469774,90.389175
1.1153176,84.92219
1.1655929,87.52376
1.1512172,82.178925
1.1107248,85.92759
1.087929,80.84441
1.1567023,83.47979
1.0654444,77.05311
1.0141374,81.401024
1.0054107,79.78714
0.964336,79.94739
0.95613104,76.56371
0.8927133,76.11955
0.869428,75.612404
0.8227663,73.01725
0.7626028,72.6418
0.7670204,72.577545
0.7181469,70.69917
0.7459513,69.89295
0.652753,66.87905
0.59515876,72.759995
0.63773686,67.59157
0.60098344,65.21702
0.61914164,66.876205
0.55442834,64.73977
0.5401311,62.798508
0.49566656,62.296143
0.534088,61.52314
0.4805876,60.5373
0.466139,62.798393
0.50455886,58.45394
0.46785283,57.69222
0.45857736,56.99989
0.4734536,56.182236
0.50217634,55.516033
0.4489681,57.05873
0.48509154,55.03105
0.4152816,51.681423
0.44128436,52.12871
0.42906007,53.14668
0.45781055,52.245693
0.41466904,52.318295
0.44718677,52.50396
0.3518615,51.62048
0.24006394,50.900963
0.29500097,51.218098
0.22409604,52.212772
0.20077232,50.659523
0.1266963,46.079247
0.12639137,52.55208
0.07084724,50.009056
-0.0062378678,51.792843
0.055290774,50.946114
0.10816448,53.92442
0.080145046,51.182537
0.042862702,53.573082
0.03207903,56.019432
0.074190445,58.29237
0.07610195,56.9443
0.18792564,62.259434
0.06355894,61.017525
0.13837218,63.154835
0.26996964,62.330147
0.36584893,65.143425
0.3059213,66.966576
0.43947655,70.153305
0.58468026,70.43718
0.5371933,72.54934
0.5534801,72.63792
0.68779504,76.503395
0.80261844,79.76259
0.7518786,80.55362
0.91138124,80.122925
0.93614477,80.476944
0.99548167,87.83038
1.0347,90.45497
1.0843948,87.88855
1.132769,87.96682
1.1945517,90.57696
1.1702288,90.849525
1.2364899,94.82978
1.2628031,96.34939
1.3555044,96.47952
1.2964237,98.16379
1.3733453,100.232376
1.36119,101.64816
1.4390984,100.01379
1.4102082,106.81847
1.3808107,103.6542
1.3251712,105.79757
1.4215502,106.670975
1.3658375,105.295525
1.4175975,106.46284
1.3829708,105.70012
1.3125527,110.36245
1.3609947,107.08383
1.3416787,105.873
1.3197597,106.96273
1.212268,106.46919
1.2834724,108.44025
1.31574,103.24287
1.24442,106.00589
1.3556818,107.31546
1.1673857,104.61215
1.219967,105.02279
1.1761189,106.97715
1.246772,102.37548
1.1297092,104.752464
1.0741524,101.30676
1.1368111,101.5111
1.0524672,99.11949
1.032233,95.471176
1.0458925,98.77989
0.94148606,96.21982
1.0763911,95.02474
0.987254,95.18322
0.9476597,96.87298
0.92829436,92.66046
0.8287489,94.45756
0.8267843,88.43969
0.9759776,89.2663
0.8697866,87.35416
0.8704905,87.46403
0.88759536,86.56383
0.8589137,87.86592
0.8610996,86.44821
0.8027377,85.349556
0.7830832,83.95228
0.77717674,81.54755
0.8070969,85.194336
0.86392266,79.97999
0.82589245,83.49434
0.7086507,79.32942
0.7551063,77.200195
0.6749335,78.671165
0.74500835,77.77494
0.59042156,74.51973
0.6398992,73.72425
0.60249144,72.90594
0.52896315,71.76706
0.55619705,73.04672
0.6095043,70.63328
0.50330496,68.82779
0.44478297,68.37725
0.45721114,66.89554
0.453287,65.17081
0.4709863,64.26189
0.40527895,64.886856
0.3389881,64.94584
0.31937185,60.295166
0.37384138,57.90617
0.432092,58.88704
0.38292196,56.14844
0.42287132,61.02073
0.2880908,59.01232
0.30091754,55.73728
0.3473679,56.84798
0.34794348,57.644566
0.39586768,53.240734
0.39548087,57.193775
0.35769942,52.145416
0.33643684,52.289597
0.25385183,52.230846
0.34535953,52.789703
0.32017162,52.848774
0.3007994,54.102978
0.34412143,53.382305
0.19275123,50.88682
0.17172867,52.002674
0.21123177,52.988884
0.093186945,50.145786
0.121730566,50.94828
0.15948868,51.81537
0.09057014,51.458046
0.061163407,50.780304
0.0804267,50.657154
-0.010964095,53.51892
-0.02211474,53.92086
0.052260615,56.183907
0.11732355,57.698772
0.09457325,56.398666
0.052799203,59.017895
0.14418973,57.646423
0.23014817,59.753197
0.19919252,64.2063
0.21338525,62.484093
0.3044095,62.784214
0.4129348,68.74062
0.4980182,66.194885
0.61219066,70.80556
0.6344212,73.46956
0.68956,75.88537
0.70252967,75.33703
0.8117588,77.418175
0.93177855,80.25722
1.0329685,81.11039
1.1082183,82.654884
1.085836,85.706085
1.217395,87.00365
1.222598,87.03597
1.2974669,91.69658
1.2226979,91.234604
1.3963206,92.69809
1.4254133,97.09375
1.3910006,96.194786
1.4413632,98.43034
1.4490266,99.39642
1.469686,94.157974
1.4650017,99.88524
1.5641282,103.951
1.4862163,104.21378
1.5509722,104.33373
1.5385398,101.078094
1.6144732,101.04801
1.6164452,104.24424
1.6066052,105.779396
1.5180472,104.55184
1.5809592,107.04188
1.5149965,106.36862
1.5764813,104.28835
1.572034,111.04076
1.5852994,106.15391
1.5168848,107.3287
1.5609547,105.43885
1.4399909,106.25001
1.4517928,104.88264
1.4549458,103.74278
1.4154346,106.02339
1.4430971,104.57987
1.423794,104.32228
1.3679786,100.166336
1.346683,103.78873
1.4045967,96.31935
1.2842702,100.7645
1.2877233,99.83197
1.2924925,96.82368
1.2401876,100.07434
1.3001045,97.268486
1.2843274,97.21826
1.1562659,94.24058
1.2616138,94.44753
1.1302327,91.32593
1.2407738,91.686005
1.1743895,90.15536
1.1841966,87.49403
1.1885308,88.44161
1.250886,87.947464
1.168667,87.48326
1.2322732,87.8216
1.0635862,84.10677
1.2158518,81.94284
1.1885538,84.45531
1.1188674,80.955894
1.1882826,81.24913
1.1961622,79.18107
1.0583129,76.9956
1.1489893,79.42957
1.0721015,79.28945
1.080588,79.59492
1.0447929,74.49103
1.0390418,74.68891
0.939274,76.05045
0.9536163,70.56653
0.89313895,72.61441
0.88834614,69.55534
0.8127696,68.17447
0.77056783,70.48233
0.8213625,70.09205
0.71274894,68.18806
0.7843136,66.001625
0.70811677,65.87348
0.82862794,63.0298
0.73606086,66.02007
0.7344324,63.04042
0.7636744,61.059998
0.6946945,58.885384
0.7672689,58.26863
0.605995,55.3703
0.86635256,55.351795
0.7529834,55.959526
0.7289017,53.92906
0.7382035,52.896427
0.7378726,51.970448
0.7776866,52.44742
0.76121527,50.30178
0.76746905,54.115696
0.6667023,48.32326
0.6234253,50.506664
0.6413144,50.433605
0.61205876,49.57756
0.6852693,49.012432
0.6612512,47.639267
0.5871819,51.25341
0.6001787,47.80056
0.53614396,49.50433
0.4932818,52.351414
0.46611264,50.663704
0.56591237,49.56974
0.4513252,54.36497
0.5229289,55.499153
0.5447032,55.79262
0.4077107,56.393185
0.51173943,54.57813
0.5366138,59.797874
0.5639328,58.854286
0.5597041,57.728413
0.5908189,60.232765
0.604443,64.51133
0.6660309,59.847443
0.7654853,64.03987
0.76288193,66.03619
0.9106968,68.60041
0.9095337,72.16876
0.99955356,72.60699
1.1058848,70.02499
1.2234541,73.56336
1.2805518,76.916504
1.2907166,81.08917
1.2561083,81.45968
1.4088717,85.03954
1.4695452,84.228134
1.6326324,86.04797
1.5873904,90.300606
1.6880096,89.34729
1.6850053,92.39433
1.7536713,92.81121
1.8236045,95.22324
1.8334441,96.76763
1.8365107,98.59798
1.8586898,95.39423
1.9649158,100.56135
1.9345634,103.88784
1.9343859,101.392944
1.9468307,104.685005
2.0039907,104.08857
1.9508011,103.67746
2.000992,101.92803
1.9614893,103.81599
1.9372576,106.50058
1.9300119,104.22097
1.9151322,106.25677
1.9142112,106.91468
1.9276749,107.5006
1.8720664,109.27213
1.8602647,109.386856
1.9219705,108.5313
1.8251488,107.670074
1.905497,107.06276
1.7813563,103.458694
1.8338128,104.39539
1.7664922,104.48254
1.7640607,102.67575
1.7707626,107.043335
1.7936726,102.47961
1.6946712,99.98837
1.6671313,99.90509
1.7385164,99.2563
1.59138,100.827324
1.5356824,97.54054
1.6489629,94.81697
1.6364566,94.55764
1.5959259,94.755264
1.5191785,95.1772
1.4677005,95.85115
1.4708935,92.67403
1.5166839,90.17204
1.509856,91.05707
1.5013078,89.625374
1.4749187,89.47715
1.519158,88.6183
1.492658,88.57667
1.4759928,85.377846
1.4718281,83.69208
1.4315629,83.84722
1.4464452,84.06185
1.3578782,83.29021
1.4262174,77.82096
1.4461073,82.564476
1.3593967,81.055885
1.3468895,78.27483
1.3655025,76.333176
1.2012471,75.0575
1.2637612,76.141685
1.216232,77.629974
1.1452007,75.444466
1.1366107,70.06427
1.125999,73.9676
1.0374589,70.067184
1.0155385,69.08744
1.0525752,68.73308
1.0498692,65.84092
0.98561937,65.528336
1.0235956,64.92841
1.0129617,64.27592
0.893493,67.17165
0.9649401,62.78739
0.90988564,62.11759
0.8662737,60.117626
0.9479792,59.973713
0.8905523,59.91203
0.9462877,59.71076
0.888423,58.58267
0.87378544,57.56109
0.91945934,56.243114
0.9041511,54.22607
0.8988285,52.377888
0.9123065,53.24649
0.7893583,53.90504
0.83325607,53.197323
0.87473756,53.40799
0.74479,52.34931
0.74817914,50.557407
0.7623797,47.113785
0.7232527,48.66325
0.713283,50.142536
0.70867676,55.675346
0.6496957,50.30113
0.52358687,50.951183
0.49485296,50.379314
0.5027023,52.549355
0.51745576,50.856586
0.5166463,51.361797
0.5255233,53.128857
0.4910563,52.028263
0.5269292,56.790016
0.5076614,54.890064
0.56975144,57.907585
0.49110267,58.22486
0.5311969,59.412178
0.61577886,61.72533
0.6071938,60.00797
0.75590324,61.88038
0.7339292,66.42277
0.762469,69.12932
0.89289,67.329994
0.91461486,70.10526
0.96814686,72.796814
1.0308617,73.091225
1.1780127,73.58996
1.2096038,77.63396
1.2212523,78.927345
1.2584419,82.87166
1.3911729,85.112526
1.4776769,84.763145
1.4963969,84.4398
1.5509868,91.04504
1.5854096,88.2695
1.584252,90.06125
1.6644161,90.4638
1.7197031,94.00803
1.6824627,96.93051
1.7503102,96.56906
1.7120316,97.82409
1.7365751,100.043465
1.7170405,99.84796
1.755686,100.84322
1.7696538,103.31844
1.7903843,105.72034
1.842264,104.33264
1.7224996,104.978065
1.8057017,105.57853
1.789192,107.372574
1.7450614,104.153145
1.7476288,107.07117
1.7902638,105.27513
1.73147,105.80283
1.7230585,105.00038
1.7460517,105.10601
1.7008258,106.181206
1.717843,105.02521
1.6673447,105.75549
1.5816557,102.65326
1.5616368,107.588196
1.6059195,104.77151
1.5088072,105.25502
1.5899988,103.37978
1.5828028,102.95646
1.5161997,102.84719
1.3973248,98.47818
1.43601,99.690636
1.3575628,100.71119
1.342245,96.14276
1.3443925,98.808754
1.2567848,97.73399
1.2213861,98.047424
1.3051734,95.01317
1.2649082,94.43218
1.2855026,92.534294
1.2531297,93.04363
1.2301295,91.63958
1.2326299,90.25273
1.2678285,89.16655
1.2409207,89.2009
1.1984028,87.24315
1.1228354,87.03119
1.1097549,88.33125
1.1484711,84.75222
1.0845948,84.02386
1.0966928,83.17768
1.1607372,81.94111
1.1138302,81.62718
1.0691074,82.58368
1.0272608,77.72603
0.9655549,78.19963
0.9016274,74.69676
0.9335553,78.128624
0.937296,74.920616
0.8389718,73.53284
0.72046566,70.41634
0.7569956,72.996086
0.7615415,71.80511
0.67780054,70.683624
0.6527829,66.53677
0.61487305,67.5066
0.68542683,67.20231
0.517383,67.535576
0.6046804,64.054
0.6741665,63.490776
0.5690228,65.891106
0.50548196,62.964188
0.43244252,60.290226
0.4947812,58.103996
0.5194434,60.74263
0.41568363,58.065826
0.46595484,55.551
0.49950564,55.81359
0.53551465,55.807674
0.5120626,50.038116
0.48839384,54.55084
0.4511703,53.82294
0.44679254,52.000233
0.37313142,54.77161
0.36743802,52.623035
0.34843948,51.096134
0.31114155,53.885834
0.3552209,47.69045
0.24329343,49.245018
0.2555694,49.362923
0.19014691,52.076996
0.20451216,52.1533
0.17441961,51.49574
0.17555258,53.555435
0.055425413,50.744408
0.034895178,53.565388
0.11189376,54.56362
0.06754426,54.071106
0.058249548,57.005463
0.07452269,54.89297
0.12542933,56.432423
0.074548274,54.396797
0.10195031,59.11369
0.15961754,57.315655
0.13502127,63.39404
0.23167907,61.005337
0.30477256,62.94152
0.32577193,65.03966
0.4024877,66.41826
0.42854664,70.28468
0.54710704,70.528465
0.60320777,71.55862
0.6590494,74.96818
0.7822473,74.98413
0.8197043,78.96542
0.8267127,82.56514
0.95478916,79.164314
0.91411656,80.58812
1.0246634,87.39593
1.1025107,86.50778
1.1551934,89.23051
1.2076681,88.234856
1.180597,89.84989
1.2344153,94.75869
1.1995354,93.059494
1.2431773,96.39813
1.3739179,98.56622
1.3329167,99.969315
1.4086157,97.223755
1.3822266,100.58289
1.3920398,103.92593
1.330515,105.13135
1.3968737,104.91748
1.4814031,107.67144
1.4402535,107.11254
1.4357682,107.58783
1.3869869,109.46848
1.4048523,107.77442
1.3762366,107.4311
1.3691388,106.722115
1.2957951,105.71561
1.3462893,107.57792
1.3445919,108.09722
1.2884774,105.33298
1.2982192,110.31956
1.2066377,103.2443
1.2616946,107.24234
1.1732805,105.741104
1.1742638,103.204506
1.1941812,103.77424
1.0983493,104.8706
1.1651272,105.115
1.0860549,102.812836
1.1105583,100.24294
1.0459158,99.85087
0.99503636,98.707016
1.004264,95.72071
0.98375154,98.477135
0.9775753,94.52643
1.019786,95.81021
0.96153253,94.8371
0.9543928,93.94706
0.93390334,91.99653
0.93272436,91.30129
0.90754604,88.841545
0.90459913,88.68831
0.9371439,92.401825
0.8777771,85.53415
0.82990587,84.39782
0.87237364,87.99599
0.9229792,85.644165
0.85376656,83.961914
0.8097007,84.772285
0.77027977,79.324005
0.75968796,77.71506
0.73317456,78.314255
0.78059024,79.115326
0.7373565,78.012856
0.6774878,75.93373
0.6871576,75.38957
0.64222926,74.052895
0.6312068,73.88749
0.5844978,72.04
0.5212463,70.30961
0.5624964,69.314766
0.4964275,68.87756
0.36005142,70.85904
0.44041675,67.80781
0.46269703,65.00747
0.42199412,66.98427
0.44291574,65.67063
0.4363654,67.53578
0.3940198,65.39619
0.2970898,60.701607
0.25774324,60.284225
0.41067818,60.489166
0.41145438,55.9544
0.36293343,60.883175
0.3235799,61.493896
0.32049525,54.72166
0.30742207,58.236027
0.24107583,53.796127
0.30132648,54.81409
0.3517355,54.453175
0.33458492,53.451904
0.28992674,53.957066
0.2608568,53.589737
0.30302694,54.062122
0.15373063,48.14489
0.14289981,51.890305
0.17887321,52.37992
0.11734082,50.933228
0.15190743,54.631733
0.101573676,47.227844
0.061376918,50.971943
0.09553417,51.323505
-0.00010977792,51.783237
0.074192956,53.865765
0.05414982,52.07972
-0.03505153,51.016388
0.003366284,55.60744
0.0017020672,54.469307
-0.05048838,57.161465
0.028349645,54.79549
0.093876556,56.292103
0.14713216,57.517498
0.05568024,60.46747
0.121838,60.929836
0.21877147,61.06932
0.28669578,64.294205
0.2914451,67.90554
0.47079322,66.27812
0.54483557,70.207825
0.4828032,72.40657
0.5551515,70.92562
0.6575232,76.91705
0.6759887,77.03851
0.8177772,74.84963
0.8869242,79.84955
0.9701399,81.569496
0.9989459,83.05385
1.0555477,82.75154
1.085708,86.62006
1.157722,89.50182
1.1949459,92.09382
1.217306,90.72178
1.2594104,93.595634
1.287449,95.785095
1.4146082,94.07624
1.3444386,99.79663
1.4260302,96.40211
1.4573063,96.25569
1.4475099,103.30646
1.4223913,103.678085
1.5084372,103.6172
1.5549637,103.10691
1.4734095,103.989975
1.49202,106.65761
1.5333053,110.1608
1.5606674,106.33927
1.52841,107.216866
1.5320253,106.409386
1.4439689,105.26753
1.5653121,109.388115
1.5146313,108.452484
1.4223293,107.75999
1.5291681,108.315094
1.4744121,106.00798
1.4533806,105.345505
1.3755519,104.20668
1.430726,104.782104
1.2814311,104.831436
1.3575997,104.89733
1.3257232,100.758675
1.2639472,103.335655
1.3415904,100.77964
1.2216763,101.477196
1.3091723,98.18507
1.2536074,100.0409
1.2240139,96.65191
1.2535619,96.0131
1.2005092,98.570625
1.2798406,96.55867
1.1865084,96.30799
1.2345731,92.52773
1.2318252,95.71002
1.1700615,90.8136
1.2087806,91.43301
1.1811295,93.44094
1.1212546,89.63424
1.1155298,87.88793
1.1088896,85.90326
1.2146221,82.50207
1.1849647,86.3737
1.07201,86.1596
1.1730144,81.07833
1.0521746,80.68739
1.0979266,80.71177
1.1722864,77.46631
1.0183834,76.71934
0.9862395,77.102615
0.99066204,75.359024
0.9460594,76.63372
1.0404463,74.5324
0.9665181,73.90206
0.944676,74.44368
0.8710582,73.14144
0.84420556,69.82405
0.85466367,70.553986
0.8743478,67.96998
0.7421597,68.45696
0.7678418,68.86651
0.6908087,64.93368
0.8277148,67.7057
0.7999837,62.779694
0.6960904,66.68808
0.6292795,60.157516
0.6829608,59.759354
0.7666766,60.0922
0.7679666,61.801746
0.8393085,58.16954
0.7822653,58.396694
0.63156766,55.63716
0.7414948,54.293312
0.7318994,55.687572
0.6163103,53.393665
0.7775429,56.036037
0.6841021,55.123337
0.71339285,51.290253
0.6595713,55.020164
0.63981134,55.159554
0.6793398,52.4413
0.708813,50.195225
0.6502404,51.49887
0.5851463,50.739017
0.562637,50.571774
0.5175872,51.849796
0.45238426,46.52517
0.5034217,52.659325
0.46640956,51.62337
0.43028846,50.50807
0.3641381,50.29851
0.4911875,54.6707
0.4798758,54.239605
0.47706392,56.065086
0.46164197,57.99588
0.496406,56.429535
0.4328933,57.683147
0.5440232,60.76844
0.5111502,59.371723
0.6091869,60.31666
0.6198033,64.41662
0.7946305,65.50213
0.7840453,69.03005
0.76473683,71.029884
0.9057564,67.2998
0.9540129,72.51488
0.981783,71.86559
1.1210886,78.132286
1.1946951,77.81156
1.2395061,78.8817
1.2710161,84.518005
1.368397,83.30626
1.3988962,84.3059
1.4520966,84.79285
1.4745079,86.365166
1.5588051,90.908554
1.6473086,92.62728
1.7546886,90.54913
1.7277032,91.34675
1.813187,97.661705
1.7700611,98.27622
1.8068889,99.17917
1.8896341,99.48636
1.8726339,99.27363
1.8938857,101.09758
1.9178172,101.70707
1.930337,101.06082
1.919656,103.325806
1.977417,105.20219
1.9043257,107.528725
1.8894557,106.92066
1.9033614,104.80938
1.9233733,106.25257
2.0255756,105.47605
1.9429917,105.33837
1.8381841,107.02666
1.8930134,109.41021
1.9599766,108.18863
1.9209805,108.04353
1.9457614,105.26257
1.8579106,107.967705
1.7301217,104.494514
1.7700175,105.84055
1.7341093,103.87723
1.7432741,105.43544
1.6963341,101.10044
1.6414995,103.04504
1.7204773,100.96953
1.6330097,103.39626
1.6492302,99.970505
1.6063348,97.94389
1.7066813,96.44455
1.5879998,97.71063
1.598023,98.60282
1.5008239,96.88763
1.6081369,94.41441
1.5227332,91.56368
1.5440547,92.364555
1.5397161,93.344406
1.4962513,91.42041
1.5670788,91.30472
1.4167706,88.758064
1.533591,86.76746
1.4801649,86.65621
1.4604024,88.13135
1.4438478,86.51853
1.457008,81.40603
1.460965,79.713844
1.4277258,85.9851
1.4385006,78.261734
1.4440924,78.6365
1.3570817,78.91749
1.3693545,78.86319
1.2382481,77.07431
1.2468876,74.16203
1.2587196,74.51102
1.2089003,73.98871
1.1582364,71.545204
1.1888614,73.23406
1.0877378,73.45751
1.1193509,66.53156
1.0304327,70.776054
1.0351776,71.870766
0.95380086,67.78133
0.98513895,65.41136
0.9594166,64.54647
0.9557265,65.16428
0.94306797,62.12941
0.90966,62.94017
0.9209919,59.826805
0.88730717,62.003746
0.8932528,59.050613
0.9874795,57.847507
0.9482624,59.1067
0.9212047,58.690067
0.8196189,57.52399
0.7988863,57.434048
0.86803424,53.581734
0.8522014,54.91052
0.94132143,54.633614
0.8353472,55.228424
0.8306972,51.312477
0.8402429,55.231358
0.81230766,52.354156
0.774229,49.73096
0.7153826,50.179993
0.7357663,49.5054
0.6569254,48.550064
0.62098676,48.93838
0.6289027,55.523438
0.6004236,50.946186
0.5360835,47.672295
0.5313109,51.19246
0.47234467,52.73114
0.53190196,56.089977
0.4313092,54.600616
0.49021295,53.466114
0.55851483,56.791985
0.48086578,56.320732
0.5642378,56.76142
0.54975283,58.65016
0.5205403,62.11834
0.6766692,61.10169
0.7192942,62.282463
0.71752053,65.79356
0.77415454,64.404106
0.78211176,65.9311
0.8989573,68.696724
0.9493287,70.500496
1.0525342,72.05586
1.0921332,77.35003
1.1179729,74.08861
1.2360522,80.89509
1.367781,80.817184
1.2359223,85.26004
1.4432504,87.34813
1.4749268,86.27915
1.4962335,88.76366
1.5847769,89.87966
1.5689265,91.09155
1.6103736,91.56706
1.6331944,93.77016
1.6703099,97.61587
1.7605447,97.97418
1.6565862,95.58073
1.8416283,96.672134
1.7837121,99.467224
1.7635558,101.32335
1.8477496,102.46808
1.8371018,104.65091
1.7800077,105.695366
1.8704042,105.18534
1.7705299,106.339554
1.8547516,108.364716
1.8420746,106.026505
1.7751833,106.31851
1.7624499,103.380104
1.7825991,110.91692
1.7431803,106.57
1.8060573,108.85691
1.6739942,107.841805
1.7833374,104.34238
1.6613544,106.28691
1.7319733,102.2734
1.6627603,102.77624
1.634781,107.69814
1.6429725,103.853966
1.6145076,105.54463
1.6226931,102.60149
1.5534022,98.95022
1.4916565,101.838455
1.4672831,100.46709
1.4275384,99.67604
1.4116728,99.54044
1.397649,99.58217
1.3443359,98.440094
1.338955,95.154175
1.3184668,95.85906
1.2502613,93.85747
1.2961595,96.01817
1.3364698,93.684555
1.3276119,91.011925
1.2290052,90.85654
1.2669356,86.18916
1.2952446,86.391464
1.2007498,86.98321
1.2083803,86.60803
1.2242401,87.40032
1.1692567,85.58326
1.144147,83.80631
1.1088309,78.30168
1.2105179,84.00472
1.1558278,79.756256
1.108046,78.78512
1.0434672,76.06667
0.99695283,80.3312
1.06034,75.9986
0.88646644,76.20914
0.8704798,76.08647
0.91559416,73.52308
0.9039852,77.081894
0.7401535,71.59084
0.7497352,71.919464
0.7359348,69.338776
0.71235716,69.00868
0.7148725,69.230896
0.6794274,66.57732
0.59119433,62.172794
0.6259564,64.73037
0.5463776,64.87627
0.53900087,62.88163
0.5349941,65.90668
0.5954648,60.929684
0.5482926,59.531006
0.56625426,60.50075
0.41507313,56.34545
0.60044116,58.055195
0.38810647,56.21352
0.53850627,57.445866
0.48170808,55.130314
0.5288493,55.199028
0.3987546,52.443233
0.4719234,54.042835
0.4029342,51.831436
0.53802246,52.79687
0.4426531,53.022186
0.3722075,51.851788
0.43812338,49.99381
0.42565835,48.86529
0.2626607,51.996063
0.22551917,50.778584
0.21800968,52.083157
0.18911268,53.15776
0.18425122,49.731194
0.1842156,49.611935
0.15418468,52.92792
0.17692518,51.967846
0.07798883,55.980503
0.16006553,52.59452
0.106616646,54.33648
0.18961181,54.95341
0.07811559,55.23161
0.12621224,60.685055
0.1546853,59.40915
0.1844284,57.94959
0.23147832,61.975426
0.24165761,62.762543
0.2657505,65.037544
0.32718012,67.31849
0.4127966,68.43032
0.41648108,67.8905
0.5457743,72.15716
0.69406134,74.555
0.6955008,77.604576
0.6777599,76.259056
0.8181299,79.67659
0.91663545,82.55399
0.91733956,79.08752
1.039897,81.95191
1.0059595,89.350914
1.161061,85.778755
1.1593686,88.139244
1.1203521,91.0536
1.2557403,92.26007
1.2854162,94.57957
1.2864747,94.779
1.3287799,95.61286
1.3294269,93.97883
1.3851185,99.93158
1.3230435,98.02741
1.3301595,101.0369
1.4345673,105.49731
1.4629726,100.72961
1.4250124,106.762314
1.4277632,105.351395
1.4001063,106.31193
1.4606764,102.78132
1.4275687,107.56073
1.4788895,106.90607
1.3431237,105.55271
1.4341048,106.120804
1.4114466,107.32306
1.3558629,104.682205
1.3276626,106.43748
1.2798226,106.466415
1.3159833,109.52454
1.2466329,104.78043
1.2591695,107.36844
1.2703823,104.81127
1.2024856,103.15336
1.2032913,103.81925
1.135274,102.42801
1.1157848,103.54842
1.068256,99.01895
1.0605711,97.78626
1.0305929,98.27435
1.0676961,97.429
1.0131277,97.00058
1.0166012,99.181915
0.93711567,95.212204
1.0000631,97.68817
0.96581936,96.59729
0.9306441,93.402145
0.9028985,92.79224
1.016742,93.22328
0.8184617,89.17915
0.9454442,89.78241
0.9357295,89.40906
0.94005734,87.59182
0.8945744,87.883484
0.92636466,85.65212
0.8501865,85.476685
0.8914756,85.79282
0.73747945,84.79723
0.8819882,85.33687
0.78030694,79.92031
0.786383,80.573395
0.77197254,78.60221
0.7148755,76.585724
0.6244128,79.75517
0.64165807,77.82561
0.6125555,76.70405
0.5048715,73.08225
0.54291016,70.99898
0.51119554,68.75759
0.5272577,72.4025
0.48826343,73.77273
0.58038634,72.88292
0.46081913,68.402954
0.39022487,65.93963
0.40527472,64.810234
0.3658347,65.11088
0.35682747,65.61276
0.35787198,61.21645
0.31091243,60.0645
0.33290938,61.724087
0.31311223,59.75296
0.40825614,59.323986
0.28670204,62.542183
0.34542522,52.325985
0.34731114,56.690857
0.3719078,54.415092
0.39371538,54.20217
0.3688326,53.866882
0.3145324,57.81266
0.26261967,50.827316
0.30535102,50.877975
0.23446476,55.280483
0.25493446,51.785683
0.32359207,49.471066
0.16653755,51.651978
0.080104455,54.233173
0.21681938,49.994343
0.20326863,49.48893
0.122878246,51.18999
0.055565942,51.255867
0.077815585,50.423283
0.06589352,52.18254
0.06617621,50.325493
-0.06482151,51.177525
-0.06858671,53.055187
-0.019055441,52.982693
0.020945288,54.527416
-0.041990258,56.87781
-0.013909248,55.667297
-0.029258093,59.480648
0.12376335,61.4135
0.0806836,62.396843
0.15925668,62.559128
0.22104838,63.430374
0.29276267,63.336563
0.3177209,63.645714
0.37975773,67.12886
0.43457836,67.507095
0.5997511,69.98562
0.5929323,75.06549
0.6278801,75.68371
0.69446605,77.34132
0.8437531,77.65473
0.9035574,80.92748
0.9042309,83.22042
1.0413646,83.89784
1.1685243,83.02892
1.1729218,85.48644
1.1723737,88.50129
1.1402298,87.28689
1.2184013,93.01385
1.2675266,90.030464
1.3375363,96.4944
1.4150535,97.04065
1.3572265,96.02092
1.4336346,99.7475
1.4813869,100.22474
1.4650142,101.64967
1.4604964,99.02581
1.5250088,101.9698
1.5298018,103.13771
1.5159155,105.60583
1.4767897,108.046875
1.4861465,105.271996
1.593353,107.51041
1.5695357,109.51852
1.4423069,106.66168
1.40738,108.065506
1.5198218,111.149734
1.4192568,105.30529
1.4535928,106.72767
1.4538014,106.66419
1.3972079,103.80298
1.3901162,109.15782
1.423719,105.44106
1.4121687,102.41571
1.3364477,104.88745
1.388572,102.09434
1.3784207,101.28665
1.285098,101.94713
1.3318751,101.81022
1.1920907,100.58402
1.2611448,100.248474
1.2887776,100.79099
1.1640543,98.471954
1.224818,96.44297
1.1967167,99.93694
1.081498,95.72946
1.126844,94.06287
1.1522523,91.13924
1.2043812,93.05309
1.1834352,90.4382
1.1946282,92.020805
1.1421074,90.994736
1.1266032,90.28114
1.0979853,89.69043
1.155626,85.72141
1.0765314,86.449196
1.0875397,84.178474
1.1104201,85.92273
1.1015458,84.96203
1.0206761,82.39548
1.0551834,80.62126
1.0557939,78.90997
0.99799615,80.042175
1.0179737,76.73244
1.0100862,78.32235
0.98440444,74.7224
0.9232337,75.07106
0.8534434,74.403656
0.9329364,74.81192
0.8653905,70.48271
0.8244421,69.95834
0.8011257,66.78733
0.7217257,70.14695
0.73236513,68.12027
0.6702096,63.2511
0.7296135,68.75125
0.71309024,64.457344
0.6806759,63.292057
0.70066947,62.652485
0.6424088,59.97255
0.7001123,61.484386
0.6325155,60.79882
0.75733924,56.14117
0.70758,57.5997
0.5976043,61.53782
0.68799865,59.29345
0.70859784,58.442627
0.65777516,55.008354
0.64701945,54.42342
0.66974443,54.195675
0.64456123,51.240826
0.6621684,52.25657
0.62624556,52.75352
0.6554875,53.344063
0.5097761,50.142075
0.6192311,49.030327
0.6755538,50.672382
0.544531,48.601093
0.4896465,52.467407
0.5252253,47.695133
0.50280184,50.446095
0.4132444,51.710842
0.42744774,52.59794
0.4385297,54.005047
0.41275707,53.642403
0.34997112,52.482647
0.3525303,54.291447
0.3666656,57.370735
0.4816058,52.248737
0.4590908,55.080833
0.43881047,60.747955
0.44213256,56.31802
0.55076206,60.40812
0.44004658,61.421764
0.63037926,60.610104
0.62442046,65.45317
0.75390035,66.33298
0.8460066,66.75919
0.909762,69.6572
0.9852382,69.430244
0.9794222,74.698784
1.0774536,75.16528
1.1810079,77.80573
1.2214398,76.98209
1.3187437,82.47483
1.288504,82.92008
1.3697191,84.72182
1.5089486,83.81055
1.4947354,87.34682
1.6459793,88.95447
1.6912019,88.33962
1.7921667,90.79762
1.7982438,95.076294
1.8256282,93.45607
1.7696239,97.25134
1.849201,97.33893
1.8248998,98.95903
1.9263426,100.247734
1.8116384,104.151215
1.935634,100.96704
1.8710362,106.07817
1.9262537,103.603325
1.9294913,104.722626
1.8222716,104.10115
1.831957,105.74342
1.9288646,105.68573
1.9097838,103.821266
1.8918006,104.6751
1.8430921,107.27656
1.8508856,109.66748
1.8025587,107.18196
1.8556381,108.81517
1.8042643,105.334465
1.8316965,106.97872
1.8600637,105.05329
1.7720608,105.23721
1.819244,105.421585
1.7979114,101.860695
1.7735131,103.93769
1.6686327,98.40438
1.7607933,103.76655
1.6684455,102.11213
1.6122532,98.878426
1.5994786,95.83911
1.655117,97.480415
1.6762655,99.98809
1.4899883,96.96498
1.5695336,94.59889
1.5957302,92.95776
1.4784293,90.89439
1.607901,94.78158
1.5565615,91.77372
1.5228028,91.36684
1.4996587,90.1502
1.4939586,90.02103
1.5185561,87.99047
1.4653587,89.26388
1.4768403,87.99704
1.4761893,82.40933
1.4951897,86.85134
1.4466059,82.81122
1.38187,81.10041
1.4107361,82.74777
1.4923294,79.1899
1.3911327,81.49333
1.303017,76.06575
1.2898188,79.21015
1.3550057,77.55742
1.1991395,76.62004
1.2106311,75.162285
1.1863637,77.27187
1.2187511,71.56264
1.1830424,72.85781
1.0562623,73.10407
1.1128358,69.586
1.0503758,67.78274
1.0075151,67.61353
1.0152848,69.631966
0.9929174,65.30671
1.0325366,63.373272
1.0672606,62.63419
0.9197102,63.154297
1.0082161,59.89585
0.94716245,61.40024
0.9253484,61.44193
0.916425,57.758144
0.90340734,58.774364
0.8696702,57.092674
0.9149003,53.432014
0.83133596,54.017906
0.93440413,53.72347
0.890118,51.645535
0.90508777,53.490574
0.891148,54.295776
0.8970949,51.799496
0.8141905,52.88981
0.87781125,50.503155
0.76061726,50.60375
0.75490767,52.522247
0.75113535,50.654408
0.6558764,51.07131
0.67933863,50.564896
0.5891866,48.14073
0.5669546,51.79752
0.59228295,53.70108
0.58540833,52.01102
0.58801585,52.302628
0.5528064,53.01441
0.51709485,54.10071
0.5153325,56.56454
0.47778636,55.27399
0.53080565,56.4998
0.5538581,56.349487
0.5419865,57.765995
0.619659,61.74983
0.5865976,63.133816
0.65966505,61.276325
0.7374931,66.017624
0.7598234,63.141308
0.8759355,66.49111
0.8792562,69.84009
0.91245586,71.18097
1.0507088,70.72816
1.0636908,70.137375
1.0900862,73.401184
1.2098148,74.406586
1.3473178,76.70018
1.2926843,76.75986
1.4340044,81.156395
1.4259218,84.384315
1.4675264,86.81607
1.5320201,86.8432
1.6231055,88.088005
1.5804201,90.20322
1.7178886,90.86717
1.7443941,90.5067
1.681916,96.63395
1.7680725,97.89457
1.7826935,100.454636
1.8498517,100.7292
1.7376885,97.21121
1.7893662,99.74543
1.8323555,104.508804
1.8741019,105.57712
1.8530755,103.794395
1.9144186,107.04058
1.8173107,104.95603
1.8464813,106.5904
1.8518751,102.11316
1.8444164,108.71557
1.885434,108.192276
1.7623546,104.017746
1.7961882,103.79231
1.7962884,108.2394
1.7822318,105.26214
1.7049079,105.416794
1.7117702,105.54192
1.7007449,103.60654
1.664538,105.7934
1.5380945,102.62921
1.7027736,103.12368
1.632092,101.23644
1.5936269,101.73767
1.4803104,104.07957
1.5346879,99.061874
1.3834075,105.56414
1.3883383,101.09413
1.4568112,101.74554
1.417329,97.40415
1.3018341,100.31772
1.4016808,95.861626
1.3680571,95.54937
1.3265785,96.02121
1.3636583,94.44722
1.3415662,93.42451
1.3076321,91.15137
1.289275,90.84132
1.2692362,87.9637
1.2813879,89.71231
1.2623687,90.24682
1.236297,87.49799
1.2238656,83.02539
1.1813804,85.76854
1.227178,85.58533
1.149954,82.02095
1.2031746,82.59163
1.0556717,80.932106
1.1010123,78.51201
1.0015316,79.46718
0.9680576,76.70959
1.041765,79.18361
1.0180198,73.93434
0.9974077,75.18531
0.9324255,72.450455
0.8239042,74.37659
0.7852254,71.326706
0.7942768,69.69113
0.77336293,71.649796
0.7181881,70.70286
0.76500374,68.35305
0.7414046,66.80436
0.6665754,65.32938
0.6196446,65.593834
0.6188687,65.08385
0.6274354,60.223213
0.6248018,61.71956
0.5790689,61.458923
0.52662814,59.215714
0.50479317,58.860733
0.61643064,55.159416
0.5604799,58.57557
0.5662132,59.38918
0.61020476,54.56161
0.5216211,57.073277
0.5321775,57.777824
0.5616672,54.793373
0.5448935,51.37482
0.44625366,52.869793
0.46348593,54.75101
0.481508,50.654297
0.46259966,55.332638
0.3975387,50.81074
0.27239877,48.101376
0.31822824,51.728813
0.3411242,51.297127
0.21391119,51.25839
0.17151988,51.70219
0.2154333,53.406235
0.22729021,49.07483
0.12822375,51.949154
0.09427541,53.822468
0.15286705,57.310207
0.07665235,56.1515
0.13851163,55.139664
0.101161174,54.340477
0.14709637,56.719852
0.13522646,57.292233
0.13247272,58.840443
0.09371411,61.897217
0.23710977,62.715683
0.30499753,63.31351
0.36808068,66.37445
0.39126325,66.183365
0.5123817,69.800835
0.46039924,70.621735
0.588847,71.4621
0.65578926,74.64322
0.6877995,73.946526
0.8181239,77.46777
0.86578155,79.708405
0.9034436,81.686874
0.9687228,81.07701
1.0631592,85.493034
1.0422416,86.46674
1.1517016,88.41206
1.0981816,91.74943
1.2873628,87.282326
1.3884044,90.708595
1.2241219,92.555595
1.292254,95.84492
1.3517896,98.46369
1.4251373,95.62437
1.495454,100.56414
1.3634164,99.6534
1.4077166,101.10029
1.4388255,102.06492
1.4942228,102.77569
1.4119083,104.89741
1.4280827,105.9824
1.4208802,104.63813
1.418825,107.18285
1.4254128,106.85052
1.3798233,107.56604
1.4159105,106.34605
1.4218348,104.65996
1.4254582,108.77782
1.3527586,108.68443
1.4058038,107.080185
1.442878,106.67808
1.3013793,107.0241
1.277169,103.12707
1.2757221,104.62643
1.2350434,104.70514
1.1553905,106.4067
1.1766685,105.90621
1.2213116,102.302734
1.1179464,101.07245
1.136245,98.59745
1.1893446,100.04886
0.9809845,98.73068
1.0163957,101.57398
1.0039018,97.57774
1.0186927,98.34644
1.0230603,96.34609
0.9754247,95.64435
0.937236,93.88967
0.9632805,95.50519
0.8641315,91.53447
0.94050866,93.594505
0.93862754,91.34111
0.9267322,91.4167
0.8453386,92.02106
0.9215062,86.15406
0.9533446,87.561295
0.80150574,84.01894
0.8352665,86.99929
0.8824221,84.06226
0.8183335,86.20227
0.8527034,79.8431
0.8355852,76.793625
0.7791177,79.86566
0.77237725,80.201775
0.75881267,76.62062
0.7402671,77.286026
0.6860495,77.36776
0.58884007,73.49793
0.56847346,76.35498
0.51891977,71.087
0.5125342,73.38739
0.51591885,72.32442
0.41348165,67.982895
0.44382071,68.01115
0.46082255,66.9169
0.45848468,66.139206
0.40547916,64.89659
0.37073496,64.17208
0.32438156,64.93992
0.2958037,61.019524
0.24791594,63.50831
0.3569497,60.680172
0.34886548,63.484577
0.36087623,60.66179
0.34000346,62.24419
0.30021554,57.774982
0.28142777,55.9666
0.3694665,57.763596
0.34171754,58.54528
0.32553107,54.441544
0.35684833,53.052505
0.2883621,54.030296
0.22699901,48.55917
0.24512257,54.226944
0.25843048,53.052704
0.243598,51.80986
0.18119644,49.59269
0.20068277,51.73322
0.23991406,50.177567
0.12794805,50.462532
0.10860783,48.028477
0.09365806,54.200768
0.058530245,52.155804
0.067172565,51.20333
-0.037353378,51.417156
-0.05037634,54.106956
-0.026752554,53.622093
0.009770433,53.71591
-0.034466427,52.30023
-0.020554826,55.08237
0.022255316,56.691574
-0.00799366,57.895973
-0.021713618,60.413326
0.13413863,61.101116
0.11244141,60.444347
0.2495117,62.87418
0.32357422,63.642685
0.35698855,62.47909
0.3466052,67.14027
0.34752184,67.85382
0.5149511,71.43963
0.54359406,72.25871
0.6833653,72.40674
0.73846406,76.19005
0.80608976,77.74812
0.83640254,82.41802
0.95901847,81.71679
0.9620369,86.08283
1.0299463,87.39861
1.0635918,85.82942
1.1675714,89.24276
1.2968057,91.84084
1.2962096,93.71837
1.2732333,95.87743
1.2822773,92.85386
1.4029728,99.32704
1.4467014,98.235435
1.315301,98.66403
1.4174953,99.99604
1.4510787,102.62105
1.45198,103.057396
1.4197823,102.72196
1.443411,102.434525
1.4658376,105.151985
1.4226211,106.83597
1.4720495,106.4435
1.5065105,106.8547
1.4548421,106.30074
1.4278674,109.88435
1.5205363,105.68127
1.4912591,109.06106
1.4200823,104.114006
1.5068408,107.19428
1.4241798,106.70141
1.453209,105.68583
1.3590765,106.37758
1.310606,106.926056
1.3092709,103.01877
1.3606111,105.01194
1.3078346,103.26834
1.366443,106.691956
1.1975425,102.58335
1.2261605,101.44561
1.2373558,100.900314
1.1885856,102.8784
1.2291708,97.84384
1.2065434,101.03624
1.1798402,98.324196
1.1669738,96.80194
1.1579566,95.322556
1.1216084,94.7277
1.1340535,96.06228
1.183357,94.57775
1.1425776,93.4072
1.1736382,88.47833
1.2291063,90.85089
1.0449476,88.24281
1.1213719,91.10435
1.0894698,84.669174
1.0716976,84.28692
1.1281109,82.86664
1.0166945,87.93747
1.0084934,82.6716
1.0731977,79.49104
1.0703526,81.296326
1.0406808,78.79432
0.9545376,79.40678
1.0194288,78.43521
1.0230683,76.16638
0.9269195,74.12428
0.9009718,76.954094
0.8549001,72.2838
0.8721106,72.27598
0.8825127,72.77355
0.7738715,73.07017
0.82619435,66.74189
0.6893437,69.84511
0.72769177,68.83467
0.71993035,65.84363
0.7413016,66.892166
0.7217774,66.09066
0.67631525,63.801865
0.6742827,65.2604
0.6193847,62.115677
0.68068427,60.96597
0.64455724,56.771935
0.6577792,60.52432
0.6826216,56.479855
0.64422023,55.247513
0.6650055,54.26057
0.6709037,54.682274
0.7348042,53.762417
0.7339131,54.4517
0.6181907,58.259468
0.7135135,56.61221
0.664145,52.800568
0.6249125,52.10949
0.5683358,52.66684
0.53566533,48.264023
0.55676347,49.783688
0.5723385,51.433002
0.5215588,48.621643
0.5127292,51.112602
0.4689082,47.518005
0.52819526,49.759506
0.38679844,51.649044
0.4233384,48.530514
0.32329074,53.037952
0.36913094,50.985683
0.4302265,53.097008
0.3895969,53.499985
0.42693266,56.738125
0.30664906,58.820736
0.33411875,56.577705
0.414743,60.327324
0.5067943,58.914337
0.44184303,62.38524
0.45911196,61.990967
0.64899206,64.140724
0.67088497,65.869606
0.7101493,66.327896
0.74084806,70.6635
0.8555027,68.63674
0.91444683,70.3076
1.0272157,72.96743
1.0835189,75.30574
1.1833979,76.10193
1.1704307,79.60557
1.2706283,81.15311
1.2351053,85.69429
1.5073688,82.54597
1.4962597,87.00366
1.496294,86.06515
1.6042745,89.3326
1.6207063,92.32258
1.6946775,89.76121
1.734021,94.25663
1.7579831,96.74542
1.7771429,96.268776
1.843876,96.173805
1.8188208,98.71154
1.821054,99.573105
1.918012,100.67217
1.8307446,101.12693
1.9281578,100.419785
1.8559638,102.48786
1.8789138,107.92744
1.8814826,106.36862
1.978941,105.86113
1.8761091,109.438194
1.7334137,107.64174
1.832789,106.87264
1.8294942,106.56844
1.8350787,107.88701
1.8664398,104.26953
1.8344421,105.82866
1.7449192,106.70776
1.775036,105.91503
1.8432317,104.16397
1.790527,105.78486
1.7496705,107.638664
1.7449411,101.83738
1.6959053,103.85085
1.7789735,106.521904
1.8469046,103.68164
1.7322857,104.67173
1.6336668,101.11938
1.6272575,101.67508
1.6411378,97.41827
1.6331295,96.752235
1.6034722,98.79557
1.5770204,94.36042
1.4714051,94.53126
1.5531967,94.91801
1.5596089,91.11753
1.4469872,95.73426
1.487073,90.97835
1.5164777,89.21371
1.5014813,91.81012
1.5068967,89.34247
1.4732856,87.09493
1.4366179,84.426476
1.5500035,86.28059
1.4216669,85.429344
1.494263,84.38155
1.454306,84.73989
1.4053482,81.44715
1.3891627,81.130684
1.3223957,80.12441
1.317126,78.7608
1.312387,77.02247
1.1754801,77.37013
1.3034496,77.16267
1.215289,72.887276
1.2171813,73.60113
1.0467695,73.42066
1.0987992,70.887085
1.136142,72.16711
1.1127988,68.34171
0.96103054,65.107086
1.0957677,68.1598
1.0072348,65.5551
1.0539658,66.66884
1.0425599,66.135376
0.9409239,63.80227
0.9551705,62.32439
0.8799729,61.71636
0.935673,58.02727
0.9470489,62.72353
0.9585147,61.273216
1.006396,57.44784
0.90324455,57.41412
0.96360046,55.91043
0.93845105,55.330376
0.907502,56.367508
0.9597896,53.531578
0.8815377,53.33644
0.8802488,49.549366
0.9674719,54.770027
0.84101313,50.38323
0.86753595,52.855476
0.86016834,49.47557
0.75952893,50.66386
0.6913963,52.237316
0.7368176,52.376694
0.6834002,52.605873
0.686426,51.070507
0.60380495,51.742275
0.60804486,50.15476
0.5574234,50.81569
0.5234695,52.816307
0.5139873,53.147125
0.45262432,52.906124
0.5893407,53.232105
0.53239757,54.01342
0.4805066,58.05715
0.5892876,59.261963
0.63387173,60.626003
0.6250382,60.14917
0.640362,58.383835
0.63765204,62.645058
0.76050615,64.13487
0.79235727,64.73432
0.7674615,66.31502
0.8875807,66.316734
0.9239448,73.33142
1.0556678,71.700966
1.0666913,74.26062
1.2692751,74.795906
1.2441798,75.200165
1.2930758,80.05742
1.3250906,79.668564
1.4401498,80.71065
1.4552524,84.60783
1.544943,86.14102
1.5485635,89.86477
1.6259303,89.965485
1.6629388,88.26712
1.6688777,92.30731
1.763198,92.00961
1.8236495,97.439766
1.7752949,97.481224
1.7818725,100.41364
1.8538674,97.24205
1.7493327,100.10623
1.8986877,104.23084
1.8905703,100.18983
1.8461396,104.25647
1.833801,104.86436
1.9111338,105.67926
1.8481797,109.67392
1.8166661,107.19268
1.912956,104.72562
1.8142185,106.28296
1.8007188,106.00944
1.8974485,105.82586
1.7423732,105.11319
1.8677601,108.006645
1.8864754,107.4088
1.7587422,109.006454
1.7580818,103.70254
1.7516577,103.193436
1.6816084,105.28868
1.6504673,106.19033
1.635021,100.846405
1.6163692,104.3983
1.5630573,103.11362
1.5266134,104.4265
1.5824201,100.77348
1.5319513,100.98997
1.4928551,100.623825
1.3726501,96.43605
1.4639912,96.43516
1.3944148,96.80017
1.4487536,96.98375
1.3963697,97.49157
1.3918116,96.08845
1.2642877,94.06282
1.3387301,92.157036
1.3134401,87.72791
1.3481572,91.91561
1.2340138,87.4555
1.2481048,91.205
1.2679919,87.36979
1.2673717,87.15869
1.2733768,88.1518
1.2520223,83.38388
1.2775929,86.4561
1.2972579,80.90759
1.1551187,79.846146
1.1436471,81.508
1.1150333,78.74195
1.0266409,78.79637
1.0425783,76.70439
1.0692714,78.36458
0.9870889,78.16499
0.96883106,72.742836
0.8782605,74.699524
0.86235857,70.99595
0.8536955,72.42914
0.7724406,72.60805
0.7853874,70.345505
0.78600794,69.34867
0.7479429,65.85908
0.80248564,68.19776
0.7637554,64.690796
0.7769135,69.06203
0.71401334,64.09935
0.6470172,63.332798
0.6992637,59.35977
0.64538074,61.97529
0.60985565,59.95219
0.63645077,61.30091
0.6381353,59.100132
0.6424208,57.36859
0.63561714,61.030243
0.5318387,54.15116
0.5661779,60.26132
0.62325764,55.843914
0.5692404,54.472054
0.5421813,54.986633
0.5973345,48.282978
0.536368,53.68382
0.5825547,53.107006
0.39054075,51.261936
0.42984906,53.764523
0.4732069,50.24014
0.38210022,53.040916
0.3848011,49.193817
0.18057448,49.08963
0.28411484,48.344105
0.22491689,51.820335
0.24406871,52.996433
0.13227502,54.04392
0.13267797,52.469097
0.1496937,52.243607
0.1137404,54.577236
0.1121153,52.249313
0.09304495,56.743572
0.13974011,57.727623
0.17353196,59.24216
0.15690172,56.51767
0.3579312,61.32969
0.2734353,62.637367
0.31140214,64.43806
0.3398176,63.174744
0.4321736,67.36747
0.4901987,70.9138
0.54941803,68.83019
0.61110055,71.842255
0.76577014,73.975746
0.7993915,77.486305
0.7946275,76.14672
0.8802258,81.30745
0.9637535,80.17258
1.0202403,84.639465
1.0629623,83.08405
1.190668,84.52453
1.1265148,85.36421
1.1629384,86.97882
1.2553685,86.886246
1.2825974,91.238
1.3702389,95.46461
1.3684464,93.91323
1.3252993,98.94915
1.3550527,99.69926
1.4020139,98.13191
1.4254771,101.26598
1.3845323,98.33839
1.412093,102.22638
1.4681817,103.62095
1.4402908,102.65425
1.4483538,102.89465
1.4538078,105.84958
1.3820872,109.03268
1.4084553,106.55022
1.4441731,103.65045
1.4821447,106.43653
1.4385729,107.77168
1.4049896,106.62801
1.3810179,107.53897
1.4130125,109.22052
1.4036549,106.844086
1.3406677,106.500114
1.2789644,105.184006
1.2316117,106.565315
1.1613133,105.02703
1.2366766,106.593056
1.1858699,104.006325
1.1651514,102.7384
1.1949013,100.187996
1.075035,99.71312
1.0289656,100.59287
1.0772753,100.02063
0.89684105,97.703384
1.0613185,98.67331
1.0570738,99.57576
1.0210376,97.60135
1.0033008,98.27048
0.91394705,93.313225
0.94478714,92.64064
0.95556754,92.83786
0.95041585,87.21169
0.9967989,90.88882
0.90395117,89.37897
0.93776846,90.52272
0.9157815,88.14259
0.87751627,87.166725
0.9598829,87.68018
0.85714394,82.7284
0.7220533,85.38983
0.81912136,86.16647
0.8352174,81.91616
0.8604056,82.38934
0.7604669,81.12159
0.7591337,77.74543
0.75830185,79.9738
0.61559254,75.29492
0.6762863,78.07787
0.55861825,75.90464
0.57426846,74.10397
0.56395143,76.425316
0.46064335,72.02577
0.5649886,70.545334
0.5250339,68.93136
0.44030464,68.156815
0.4540118,66.955414
0.46759415,69.74874
0.35834822,68.2913
0.3824799,66.11337
0.31774333,64.75866
0.36540595,60.30594
0.35293305,60.645985
0.25873545,61.037457
0.32269627,61.399204
0.32155955,61.210594
0.3039503,54.702785
0.41087258,60.393303
0.2847163,57.83982
0.35480228,55.332363
0.3850996,55.632866
0.29381853,57.77845
0.35245395,54.72454
0.30831376,51.917873
0.27606556,52.46003
0.3040073,52.2743
0.14184743,51.84474
0.20397507,52.33431
0.20787163,49.790882
0.12269161,50.860565
0.15939711,50.705704
0.1214274,52.022675
0.032861985,48.806282
0.06697089,46.066357
0.04701216,52.50192
0.077116236,54.862465
-0.047585607,54.032757
-0.07889525,54.345345
-0.062054787,54.819202
-0.052638054,56.768093
-0.075582266,55.38256
-0.038556293,56.432
-0.05719678,57.69395
0.04089823,60.5044
0.050692018,60.34559
0.059344396,60.132885
0.08995626,61.702026
0.15212822,64.65294
0.23669349,65.51733
0.34351686,67.788
0.42362425,67.15179
0.5195157,69.76758
0.466776,72.961876
0.5804484,72.67776
0.6390034,71.43532
0.6740565,77.315285
0.7961395,80.51471
0.8230559,80.029686
0.8894974,85.46901
0.90625215,83.84129
1.081701,84.974686
1.092383,90.00359
1.1334823,88.57523
1.2331585,90.10381
1.1014355,90.62776
1.3340621,97.575806
1.2989457,95.15361
1.222237,95.2159
1.35133,97.458984
1.3009256,100.96168
1.3968738,100.08514
1.4152361,101.8195
1.4651228,103.43731
1.4442614,104.43875
1.3927692,103.72081
1.4891118,102.45537
1.4711003,106.176125
1.4951245,109.35296
1.4391196,105.09559
1.3861929,105.41626
1.4616777,106.233116
1.4472871,108.33261
1.4156975,108.31974
1.4294907,106.06669
1.4220418,106.70484
1.3485594,105.23127
1.4276862,107.289825
1.3152497,105.49781
1.3592224,108.77615
1.3408397,105.8787
1.2894822,104.39356
1.2698091,104.39814
1.3316749,103.004616
1.2693343,99.82681
1.2964882,103.43573
1.1919161,99.485115
1.2234216,101.34671
1.1418324,101.19909
1.1056303,98.92449
1.1227512,94.6712
1.1064347,95.73626
1.1352981,96.33411
1.0920289,94.81699
1.1594951,92.230034
1.1370323,93.304306
1.0874425,90.33477
1.1456008,88.955414
1.1495119,88.89621
1.0393333,86.82402
1.1613265,86.31181
1.1025059,86.20844
1.1514821,83.48273
1.1050662,85.189095
1.0013294,83.29817
1.028649,83.65415
1.01892,82.32043
0.9347427,80.15521
1.030516,76.8259
0.99878114,77.52155
0.89198565,77.57606
0.9613443,78.94059
0.948886,75.31119
0.8558389,75.97471
0.79277503,73.23153
0.82308364,69.6916
0.7195994,71.89018
0.7696643,67.02923
0.6599002,70.979774
0.60728335,67.309135
0.67741066,70.16028
0.62665397,67.418076
0.67302006,66.788895
0.621847,63.438972
0.6231104,62.783485
0.6469635,60.371994
0.7524675,62.162544
0.6246214,58.87896
0.68519753,57.52272
0.69013834,59.579514
0.646411,53.458008
0.63938165,56.797997
0.6454462,53.266865
0.6653034,55.576813
0.6772151,56.466892
0.52594316,55.312763
0.58132535,52.921165
0.601655,54.362656
0.69717926,51.106945
0.53304416,51.38582
0.6609785,50.046562
0.5829412,54.212173
0.5503391,53.04356
0.47259992,51.83249
0.46383548,50.770527
0.42312714,49.98686
0.4090033,48.054146
0.36044684,53.352615
0.4471198,54.349773
0.38907778,46.597755
0.36405545,53.346226
0.37895125,51.620693
0.36865842,50.061535
0.37289008,57.34227
0.35207272,59.267975
0.36515015,55.082737
0.4301632,57.80606
0.41475514,61.246365
0.35283422,62.19351
0.44314504,63.32468
0.4748206,64.92044
0.52509224,63.99637
0.68100417,64.24144
0.67558116,64.69218
0.7800498,69.02587
0.8991663,71.70944
0.9105429,73.58369
0.9867592,73.82469
1.0416764,75.53337
1.0811441,77.19601
1.2136544,81.300896
1.1881845,80.3689
1.3409481,80.59501
1.4097108,84.15022
1.5267551,84.90273
1.5461663,84.78423
1.6099691,92.12521
1.5959085,93.85252
1.6507957,95.247055
1.6544217,96.04099
1.6128491,94.78505
1.6485825,100.01815
1.833534,96.26857
1.8827642,102.375755
1.8232667,101.74738
1.7475152,102.553
1.8860735,103.38236
1.8715006,102.68395
1.8789176,103.375
1.8415242,107.3555
1.9705927,107.97806
1.8302488,104.80511
1.8988543,103.8773
1.8665501,103.22763
1.8690559,105.608475
1.8606368,106.98804
1.8060799,102.59259
1.924626,103.88744
1.8434967,103.71877
1.8544571,108.13236
1.8223191,109.09948
1.7743423,104.9264
1.7512065,105.785805
1.7773145,105.470146
1.7195028,103.933205
1.7324492,103.67549
1.6350346,103.3873
1.5916411,101.7875
1.6635314,102.092865
1.6046116,100.85951
1.6244861,96.93242
1.5254453,100.904465
1.5387998,97.28396
1.5692604,98.08486
1.5101857,96.40639
1.4909868,94.5757
1.40194,94.55243
1.5263991,93.367645
1.465762,92.49202
1.4374352,93.37545
1.4488971,87.781784
1.489221,90.89186
1.4721899,88.225105
1.4683288,85.0029
1.480854,87.056465
1.3983606,84.17508
1.3832278,83.56783
1.3762456,82.26801
1.4126052,80.04337
1.4635787,81.85036
1.4249742,80.98978
1.3238896,77.72764
1.3544574,79.55587
1.275539,78.063736
1.3475887,77.57428
1.2132418,77.54783
1.1883883,76.38223
1.078808,72.18065
1.1390142,69.44022
1.1728214,73.37949
1.0850748,73.92937
1.0665504,67.9824
1.061956,66.59499
0.9421821,64.748825
0.9920211,64.54679
0.93078494,65.54369
0.97158474,63.525337
0.9338395,64.02407
0.9827184,61.930485
0.88158965,59.3909
0.8799213,60.677643
0.90067357,60.007748
0.9841174,57.938084
0.96512914,59.71676
0.93050086,59.67967
0.8934437,56.450237
0.9044283,54.000885
0.90582097,52.437054
0.92681515,55.075207
0.88246626,52.74965
0.8722866,53.537968
0.89853406,53.085274
0.8730208,49.823364
0.7347691,50.45029
0.74849486,51.005505
0.78167814,51.66319
0.7062841,52.04941
0.72781414,50.26586
0.68315786,47.895638
0.67600745,53.735806
0.57775915,52.05937
0.6976752,53.558784
0.67341155,51.730373
0.56268054,55.02715
0.5023506,53.972103
0.6400616,56.38919
0.5776022,55.49627
0.5689661,51.976036
0.5440199,55.015903
0.6250542,57.701954
0.5967194,58.65363
0.5995347,59.798077
0.6912429,63.86388
0.7216566,63.289215
0.7204617,64.36941
0.8183168,65.90026
0.8452913,65.17089
0.9189712,69.7183
1.0031767,71.179474
1.054245,71.5422
1.1203941,70.20006
1.1280692,77.882324
1.2537471,76.72193
1.2811009,79.35013
1.4004469,78.52142
1.3799762,81.792366
1.5305122,85.74557
1.5891682,85.64895
1.6201235,87.63917
1.6037107,89.43752
1.7014263,90.28596
1.6974604,93.570854
1.7601414,92.98765
1.7943745,97.90973
1.8213252,94.63025
1.8091768,97.20788
1.8441979,97.677956
1.8865409,103.22032
1.8771174,100.31595
1.9324374,103.250755
1.9335394,102.3405
1.8989203,104.9591
1.8791337,102.54088
1.9681242,103.94334
1.8936934,104.65181
1.9633769,107.056175
1.8229713,105.79559
1.9380206,103.79725
1.9327165,105.99804
1.8102043,111.06851
1.7734717,108.73876
1.7866096,107.82139
1.7630092,105.7069
1.7573051,105.64083
1.7013166,103.5732
1.6539263,103.06106
1.6736271,102.62708
1.6945992,103.150185
1.7511824,102.22627
1.6094718,104.64796
1.5674661,101.623886
1.6056813,100.56401
1.5238502,100.52
1.5876573,98.671
1.5297291,97.6901
1.5127391,98.937004
1.4304093,95.518265
1.472333,93.8598
1.3355876,94.23055
1.3769593,93.835365
1.2678303,95.20596
1.4195011,93.44026
1.396895,92.62841
1.3505659,90.4416
1.3802818,87.619415
1.3066769,89.64127
1.3019379,88.10762
1.3001543,84.78684
1.2243482,83.380554
1.2522033,81.002686
1.2888864,84.41781
1.2886511,84.430885
1.1630224,80.70914
1.1387877,82.95765
1.0977217,78.7286
1.151677,80.87408
1.2005258,77.68656
1.0635958,79.52288
1.0672904,75.6992
1.061967,75.07568
0.91610867,74.10686
0.97949636,72.21389
0.86015964,74.09036
0.86549205,72.39486
0.81768423,69.629036
0.7569883,68.76311
0.7211496,67.29055
0.7576747,65.75356
0.7323418,67.55059
0.72735274,63.643894
0.7281263,62.713802
0.69237787,62.53064
0.69147843,62.881676
0.6595553,58.746487
0.6197683,58.751804
0.58065647,61.318497
0.6420004,57.78248
0.60389674,54.754253
0.6623544,56.994583
0.5786963,57.35231
0.5408218,52.433792
0.5496185,52.52778
0.65389687,53.754707
0.52275854,52.92193
0.5211194,50.715378
0.53190035,49.010975
0.5894255,52.64165
0.4434602,51.797886
0.46349028,52.047432
0.43499276,52.893272
0.34256482,50.429462
0.35686707,46.009968
0.26565707,51.419556
0.285876,51.322628
0.31671613,48.61383
0.26390678,51.308292
0.2513656,50.888523
0.18010993,52.93549
0.27139142,55.26089
0.17461942,53.423443
0.24701497,55.943005
0.13106057,58.92676
0.09936844,59.905964
0.2976759,60.996906
0.28899947,61.660847
0.29330474,61.908134
0.35633472,66.15699
0.36093193,63.29425
0.56974304,68.01758
0.46793348,66.27975
0.59818923,69.65802
0.6351034,69.071365
0.69871926,72.63019
0.7338373,75.02991
0.8863796,76.32429
0.8702703,79.899124
0.7621598,82.22989
0.98190606,80.12224
1.0041934,84.024994
1.0876794,83.68901
1.1441729,83.700134
1.1819261,89.859886
1.1237643,91.16967
1.2427958,90.37421
1.3695084,93.15352
1.3840281,90.51484
1.4270834,93.1793
1.3462186,96.560745
1.5091373,98.79564
1.4206655,100.66988
1.4594239,102.09825
1.4528542,101.818146
1.562254,103.41772
1.4388754,103.86456
1.4941244,103.34969
1.5199016,105.093895
1.4872122,104.21999
1.5551172,107.068825
1.4713298,106.187225
1.537655,107.273994
1.4599692,108.88889
1.4164279,108.71186
1.4188714,110.49464
1.284634,109.41644
1.3981469,105.805534
1.3850011,105.513535
1.3741467,106.032616
1.2924912,107.117805
1.2778627,102.10928
1.3155452,107.11407
1.3314083,106.09059
1.2549189,100.58984
1.1933112,103.51186
1.1531042,102.58398
1.1322811,103.69356
1.1400712,100.7
1.0604392,95.998665
1.1471237,98.80391
1.0766453,98.165985
0.987215,94.2957
1.0212096,97.65375
1.0643234,95.553604
0.99450725,90.97889
0.98086405,92.28158
0.91555494,91.80716
0.9761734,92.59356
0.9229603,90.21774
0.92783463,88.874115
0.93152606,88.18242
0.910261,86.761215
0.9194244,87.996086
0.84643006,85.710205
0.9509076,86.64663
0.9060844,85.06708
0.84673834,80.805984
0.7894069,77.09828
0.80103916,78.46467
0.8084864,79.59045
0.7270015,75.45857
0.7135993,76.762924
0.6912529,75.80803
0.74517506,75.79721
0.69853646,75.86104
0.6687794,72.34893
0.54558367,70.120476
0.5795206,71.91461
0.5344787,72.37248
0.47472063,71.11197
0.44803867,69.15841
0.47389683,69.516014
0.42357883,67.29673
0.3873297,65.15892
0.39375597,63.782722
0.33574006,65.56812
0.27225333,64.37054
0.3324727,60.62756
0.30720842,62.263832
0.27188873,61.86075
0.31187072,56.25862
0.26813045,57.813213
0.35238338,55.732975
0.32329094,54.973183
0.28669962,55.950817
0.3111544,55.605335
0.35445043,53.874615
0.29903218,54.53551
0.3380308,51.64701
0.2862225,52.64544
0.22848007,52.53032
0.16127802,54.90732
0.20711969,54.947865
0.13699591,53.401825
0.13134065,53.00574
0.10156445,51.899807
0.07360929,51.01419
0.13523719,49.595867
0.118269324,51.968353
0.03353019,52.236084
0.08707405,51.970947
-0.09134388,54.74387
-0.07714553,55.611732
-0.038014114,56.329117
-0.057451423,55.48588
-0.021258375,57.780483
0.0053190542,51.558327
0.0036651117,57.526066
0.049620032,57.82371
0.053650353,60.30389
0.11726627,63.57366
0.077192105,62.554153
0.096648015,61.253197
0.15310185,66.32435
0.30889732,68.00726
0.41407254,68.74025
0.4590604,69.24416
0.5205728,73.3281
0.58142215,74.18875
0.6705273,74.590324
0.68920887,76.21958
0.77392125,81.03374
0.82176185,80.83342
0.92786175,81.29051
1.0658661,86.96813
1.0064762,86.4254
1.0071917,86.93427
1.1262257,88.97599
1.2304252,90.71323
1.2288177,93.63698
1.254779,96.422775
1.2836808,96.749214
1.3639953,97.58904
1.3062786,97.718376
1.3659247,99.63694
1.3393145,101.28538
1.4371388,102.14317
1.4991726,101.56333
1.4380995,100.86108
1.3788065,103.23767
1.3967346,106.296394
1.4086622,108.02739
1.4949782,103.7719
1.465096,105.202866
1.4273988,105.60328
1.4141321,108.54634
1.4635923,106.37932
1.4319113,107.236336
1.3731911,108.92503
1.366493,105.39752
1.4777687,105.20894
1.3274459,106.62455
1.2971228,106.74193
1.3212271,106.91576
1.3434412,105.25038
1.2988175,106.21559
1.2015233,102.16758
1.3229288,101.910515
1.241124,100.874
1.2698421,104.03679
1.2083948,98.283646
1.1863365,101.50074
1.1317911,98.15656
1.1386688,99.33036
1.137856,97.781204
1.1407312,97.26243
1.0293419,97.0803
1.110288,95.86701
1.0367831,93.15757
1.0514426,91.28303
1.0908974,88.98699
1.0646255,89.93247
1.0794265,87.69375
1.0897245,89.26453
1.045126,87.40261
0.97133285,86.930595
1.0033228,84.09622
1.0955337,83.928444
1.0199101,80.784874
1.0245503,83.17606
0.9743669,79.835335
0.9621288,81.22582
0.97985345,80.62803
0.84537154,77.08635
0.89373106,74.96901
0.87732977,77.20486
0.84420896,76.64115
0.8581234,71.35918
0.7709844,72.10642
0.77783215,71.818245
0.7397449,71.38477
0.7566372,70.01805
0.7664254,70.00215
0.6751046,66.28914
0.6243581,66.11254
0.6932825,67.57448
0.5881023,66.42445
0.581935,62.788334
0.63964885,60.905205
0.63458115,62.165596
0.570656,63.33349
0.6750492,61.835033
0.57336557,61.13124
0.5915396,61.611977
0.61904615,60.110115
0.59957314,56.505013
0.62887037,58.755447
0.63721234,54.278404
0.5487752,56.575058
0.5919814,57.284683
0.52492017,54.547764
0.50991863,53.516197
0.5758426,52.09284
0.5470775,52.48534
0.49204963,53.20224
0.55130345,52.88686
0.47136247,51.866627
0.45173845,55.029526
0.50569427,50.421257
0.39087874,52.343773
0.4893872,52.8868
0.3943194,50.56325
0.19645959,51.980526
0.3770994,50.289547
0.35886958,51.618065
0.34076163,52.85566
0.33912954,56.086525
0.27841657,54.571598
0.3028233,55.73119
0.33972216,55.2545
0.39016944,61.32517
0.33669424,59.02936
0.38950706,59.958614
0.509746,59.451717
0.4537724,61.463562
0.56994194,65.0558
0.6242418,67.49775
0.63880527,67.918884
0.7230981,70.089455
0.81930697,71.78021
0.97603095,73.17225
0.9169441,76.24867
1.0370196,80.53185
1.1403544,79.144615
1.2274054,80.28751
1.3238846,83.65564
1.2161995,83.29834
1.4060813,85.49029
1.4207923,83.640434
1.548783,87.83114
1.5511949,87.92814
1.6265775,93.40372
1.7081237,91.5588
1.6695708,96.29491
1.7040155,97.05597
1.7522297,97.40065
1.8154172,95.60469
1.722563,98.88717
1.7991564,103.19085
1.745201,102.134895
1.7772313,101.370766
1.8668458,104.442986
1.7521948,105.827286
1.8236123,106.75069
1.82042,107.19636
1.9318688,105.491936
1.9195173,107.93019
1.9399025,106.16421
1.76749,103.97126
1.8512338,106.37439
1.8603035,106.180695
1.9201456,106.86652
1.7708869,108.57628
1.8019539,104.704926
1.7672836,106.91295
1.8096416,104.20349
1.707266,106.26258
1.783466,103.710266
1.6510811,106.125435
1.598656,103.184204
1.6905667,100.06902
1.6829879,102.69654
1.6099735,98.90882
1.6435195,97.99685
1.606678,98.73816
1.5965941,101.40424
1.5088739,98.85299
1.6222012,96.18828
1.4860492,95.82332
1.5626273,95.94877
1.5988896,92.61117
1.4743165,93.54892
1.5558953,92.318375
1.5103805,89.006454
1.3997539,93.215
1.461939,88.283936
1.4914147,88.09776
1.4529705,87.823204
1.4902368,87.28307
1.3758848,87.41775
1.4452922,81.396545
1.4569175,83.873116
1.426196,82.08912
1.3547387,80.027756
1.2946658,80.906
1.3147807,80.41804
1.3104239,78.51589
1.2181618,78.14278
1.1949514,74.24905
1.2831707,75.91257
1.2654384,76.76176
1.1988072,75.37525
1.1754082,76.883705
1.1480381,74.41919
1.0908939,68.8709
1.1839372,72.1316
0.99928206,68.06465
1.0437726,65.55738
0.8868127,65.834785
0.93051696,65.29871
0.90792614,65.9754
0.9122857,64.49229
0.9646122,62.77397
0.9445373,59.5532
0.97576505,63.052086
0.94297665,63.16189
0.9393492,58.246147
0.93745595,57.80716
0.8781816,59.790768
0.9071775,56.13016
0.8975176,56.419243
0.8339647,56.997627
0.9060837,57.187084
0.838334,56.65032
0.89636135,50.199768
0.9022811,50.544506
0.8155239,53.870995
0.81324255,50.484177
0.7455147,51.36191
0.774075,49.88685
0.71271056,52.911873
0.7673942,50.658802
0.68156064,53.443424
0.6783977,51.260376
0.6106273,52.468697
0.6236637,50.28589
0.58770347,52.893204
0.53332233,50.597492
0.54878503,52.11797
0.5225402,54.96013
0.6103831,56.599747
0.6022778,55.327568
0.551294,56.017303
0.5373263,58.247173
0.61481357,61.072224
0.6177463,61.27518
0.62862974,62.1552
0.7411954,61.924248
0.8111085,62.46109
0.7455364,64.34342
0.81509537,68.61961
1.0228617,66.95931
1.0701921,68.587036
1.0431279,72.69147
1.1339688,72.45133
1.1818836,76.044044
1.2830139,76.72594
1.3021692,77.34454
1.431057,80.748344
1.4508986,82.71194
1.4667692,82.29826
1.5744218,88.36499
1.6624125,85.86729
1.6346766,87.12189
1.7231046,93.869484
1.7912058,94.10104
1.8703539,93.65866
1.7510182,99.812355
1.8633683,96.87842
1.8626684,98.60689
1.8716351,97.05469
1.8846345,99.32237
1.9378216,103.698975
1.8989812,104.25939
1.8845135,104.48967
1.9514221,103.546974
1.8973786,104.58326
1.9419695,106.900505
1.8305004,105.32311
1.8369535,106.87957
1.8326831,109.982994
1.789655,107.62989
1.8746556,107.44326
1.9006197,106.841064
1.8050447,105.444725
1.7500819,106.78006
1.8065693,106.14596
1.7941812,105.77854
1.7766602,106.650314
1.7633917,106.8374
1.7590154,105.86771
1.6854143,107.25909
1.6500275,104.769035
1.5957391,101.83858
1.6245326,102.57212
1.6821828,101.76247
1.5180604,97.605034
1.4488134,99.15902
1.5717771,98.89784
1.4916853,95.540436
1.418108,96.375374
1.3921509,95.86741
1.490155,95.42942
1.5343047,94.59699
1.3469833,93.33634
1.4158381,88.96513
1.3823239,89.40711
1.3973502,88.15528
1.3235644,88.5512
1.3526545,89.18643
1.3723956,86.7272
1.3471017,85.4779
1.3429507,84.49089
1.3840858,85.66252
1.2144216,81.96243
1.3162566,82.44797
1.1930041,81.28633
1.2038916,78.86422
1.177072,77.155594
1.1563746,77.96467
1.1180142,76.637764
1.092295,74.13814
0.9831017,79.58794
1.0290272,72.68609
1.0477042,73.82713
0.89578134,70.06207
0.86250234,70.460915
0.79901296,70.225815
0.90809435,68.74967
0.9022364,68.677376
0.7915986,67.71262
0.7802638,67.15016
0.6865185,66.66611
0.73136896,65.19596
0.7545118,61.64267
0.743226,61.657097
0.7254082,61.302467
0.7225622,61.182194
0.69072455,58.919952
0.6860213,60.451614
0.68535846,58.90923
0.5895101,57.05105
0.64379627,50.731693
0.5470967,54.631493
0.5861883,57.0861
0.5606374,56.01983
0.6120608,56.27132
0.68433756,51.219147
0.57255006,54.9599
0.5719662,50.070885
0.5327262,54.585754
0.48490745,51.799446
0.42425033,50.542828
0.35960156,51.714745
0.46821117,49.94372
0.39569262,48.734745
0.37861627,54.081238
0.33643374,48.280006
0.29461205,53.864075
0.20457798,50.557526
0.33193746,52.14673
0.20811762,52.575523
0.23030607,48.07489
0.14776404,55.156868
0.21388729,57.56889
0.1930068,58.278454
0.27304032,59.38054
0.17863473,61.930473
0.20863396,61.500103
0.3376116,59.086594
0.4146319,63.093338
0.44486755,62.271088
0.44629282,68.261604
0.50073314,64.54541
0.60931164,71.928215
0.6308613,70.79985
0.737226,72.744255
0.7803442,74.00485
0.8374857,73.509285
0.9536966,78.29614
1.0238801,79.7606
1.0200647,82.856224
1.1017934,81.775566
1.1205338,84.214005
1.185462,87.677605
1.2614173,88.81169
1.2953156,91.53574
1.3803208,94.96511
1.3800622,92.67992
1.4318753,92.34804
1.4317905,95.41155
1.3441075,102.13138
1.4392706,94.07699
1.5677509,99.46783
1.5207852,99.48928
1.5238916,100.56424
1.5550475,106.995316
1.5091376,104.87095
1.5222828,104.20616
1.5124282,107.51448
1.508615,104.834816
1.473685,105.07629
1.4331442,106.28882
1.4679323,108.076065
1.4316552,106.335724
1.3973603,103.131134
1.4888676,108.55788
1.5578632,107.64426
1.397729,104.399734
1.4017783,105.23432
1.3594126,105.37394
1.3922963,106.95637
1.247289,109.66669
1.2785357,103.99212
1.2488298,105.268265
1.15961,105.75069
1.148452,104.904495
1.1374475,101.43606
1.1313308,98.55768
1.1264895,102.09862
1.1263177,98.69064
1.1165133,97.932755
1.091318,93.38854
1.0720845,97.25651
1.049489,94.61665
1.0134315,93.892845
1.0025895,95.791275
1.0072306,94.48324
0.9112741,93.65382
0.94192624,93.82539
0.993895,91.78247
0.9423188,89.34331
0.90328324,88.00728
0.9753307,83.00017
0.8854796,87.95259
0.82856226,85.173996
0.9014074,84.04558
0.8004301,84.092224
0.8918625,86.30025
0.9032057,79.57814
0.77004486,81.05958
0.86717147,78.30564
0.7895559,75.49599
0.8171524,74.359146
0.75299126,73.50642
0.6498807,74.515114
0.6318061,77.574326
0.63186806,75.53117
0.53557074,69.371994
0.59203017,69.80464
0.51611656,69.65538
0.51771885,68.98254
0.46670106,68.39762
0.38095728,67.66075
0.44312543,65.938416
0.4064555,65.288734
0.30140495,64.786064
0.3927296,64.67197
0.41555202,60.63389
0.37274837,60.521313
0.3362726,60.54267
0.32414064,59.377926
0.38524407,58.081005
0.363222,53.58919
0.3259728,57.89309
0.30856314,52.92368
0.30500096,57.32146
0.3072847,55.40285
0.2837359,53.10222
0.37165096,56.668064
0.23772092,52.196617
0.3046099,52.089653
0.2368437,52.297318
0.28939024,51.09838
0.18554084,49.80965
0.180289,51.391403
0.08604896,53.036617
0.13184111,46.22417
0.039653346,49.51546
0.023947218,53.088337
0.030597532,51.988544
0.09811825,51.335087
-0.0027565965,53.591972
-0.14820693,52.660606
-0.0046148044,50.293015
-0.06916939,54.492092
-0.03331712,56.13395
-0.028898839,54.07968
-0.14963453,58.254272
0.0016340599,59.858658
0.02962955,61.06103
0.017106773,61.68771
0.045367878,59.406937
0.22673167,65.81399
0.21714361,64.09036
0.28366768,67.85591
0.26605418,70.491875
0.36951977,69.716644
0.4415672,70.76555
0.5263154,71.83066
0.52764827,75.30547
0.68922395,76.08011
0.73854166,75.689476
0.81246,77.97817
0.8301703,82.072136
0.8973943,81.218796
0.9206519,88.22868
1.0278351,85.16412
1.0546722,87.34287
1.1988924,89.47514
1.1465818,90.1239
1.2665195,92.38504
1.3497707,94.426956
1.2413648,94.72655
1.3175812,94.48005
1.3025147,98.20142
1.3041534,97.97169
1.3398986,100.87682
1.316534,99.20063
1.4188641,103.01402
1.3077512,103.3636
1.382387,105.02362
1.468561,104.74156
1.3507022,103.67158
1.4228055,106.48425
1.4275241,106.07037
1.4889367,107.88597
1.4402562,109.41357
1.4193043,107.35163
1.3614202,104.013145
1.3402508,104.11031
1.344242,105.14947
1.3435465,107.58692
1.2424407,106.77718
1.3476048,105.7996
1.2824486,107.80032
1.2840943,107.31486
1.294406,103.01348
1.228922,104.04789
1.1682541,98.60668
1.190725,101.15215
1.0976765,100.82692
1.1655953,100.81302
1.1401666,102.18815
1.1110721,100.85975
1.0514452,98.06504
1.0878441,97.95463
1.1252373,95.83929
1.0695182,97.12131
1.0072979,92.5406
1.0366747,89.00996
1.1197498,91.66974
1.029205,91.7265
1.0036297,88.93445
0.9720479,86.54676
0.9815324,86.67504
1.0715806,89.135376
1.0043038,84.725174
1.0366427,85.57097
1.0113358,85.48474
0.8681584,80.930046
0.89374685,79.66779
0.9132557,82.39373
1.0041881,79.390564
1.0088446,74.99934
0.88608134,75.798935
0.8553777,77.43295
0.86684054,75.62514
0.80451876,74.59845
0.8162899,71.90083
0.7866054,77.851494
0.73794824,71.446594
0.6838427,72.328735
0.6693426,68.85248
0.6173513,67.00582
0.63943124,67.17093
0.48547673,70.12533
0.6920637,68.33236
0.54384124,61.84114
0.5827537,61.30116
0.6032107,64.80052
0.5907704,61.4128
0.51559705,61.46577
0.49513504,57.689262
0.6512593,60.299442
0.53715235,58.324245
0.6589104,57.129066
0.43938366,55.125885
0.5269602,56.151806
0.61310726,56.58732
0.6661428,55.740963
0.6790496,52.357903
0.50788796,54.36339
0.5266205,55.79605
0.47300324,53.616833
0.4582917,51.39034
0.50269705,51.430065
0.5740918,48.46686
0.51217693,51.293915
0.4135009,50.905766
0.48618183,52.7116
0.36693874,50.30275
0.3506668,53.346146
0.3256591,52.480957
0.33022186,51.325367
0.2995641,52.443634
0.34420136,51.423424
0.15997921,52.887035
0.25511685,54.99659
0.27221167,55.17727
0.34827718,55.241817
0.30467892,55.575798
0.28331465,56.169132
0.3481507,57.16058
0.34477758,57.191463
0.41955036,59.65818
0.4801712,62.02353
0.5649653,62.95141
0.6711628,64.64053
0.69680834,67.5317
0.76694185,71.64246
0.7659908,71.400635
0.95709085,71.52755
1.0367318,72.37035
0.9722013,72.79215
1.0233216,76.346825
1.1903517,79.98112
1.3136452,81.84892
1.3054051,79.60052
1.4048661,83.149445
1.4390819,86.44898
1.4816904,88.15055
1.4789011,89.64094
1.5370353,87.93918
1.5731763,92.544624
1.6897966,93.819786
1.6803898,96.80677
1.6890906,97.281235
1.7655616,101.2623
1.7393479,98.7582
1.8507406,97.476234
1.8201193,102.42776
1.78745,100.27993
1.8965338,104.33427
1.8139654,104.44828
1.8622855,104.751396
1.7999452,103.2213
1.8214229,106.16877
1.7574878,105.81664
1.7329909,103.13448
1.8558172,108.84521
1.8004457,104.705894
1.8955107,106.06395
1.7324247,105.418015
1.7030842,107.55177
1.6241127,106.493805
1.5662823,105.88417
1.7454273,102.8955
1.6677945,105.187325
1.6836021,104.6699
1.7791386,103.55316
1.6905812,103.5155
1.4902502,104.69309
1.6633574,100.79133
1.5741606,99.322655
1.4629955,99.783005
1.491596,96.45634
1.598702,97.29531
1.5441257,96.271904
1.4614954,96.00793
1.5071446,95.5378
1.5283962,93.42052
1.4523019,93.91032
1.4220585,90.40894
1.4299191,90.438866
1.4909527,92.00954
1.4327658,89.807816
1.3572346,91.82198
1.4840345,88.241005
1.438417,89.91761
1.3463314,88.44322
1.445726,86.857864
1.4338369,82.363625
1.3213428,81.19099
1.3827507,82.292206
1.2858467,77.9877
1.3018404,78.883316
1.3128313,79.552414
1.3185179,76.757416
1.2884067,73.5799
1.2194273,72.91663
1.2050499,76.818634
