ppg,abp
1.0185395,88.615135
1.190192,95.17695
1.2964646,98.054436
1.3908548,103.2659
1.4387356,108.20475
1.5179608,115.44919
1.569006,117.7147
1.5871395,123.666214
1.5707947,124.41571
1.6506138,130.16537
1.5826975,135.22672
1.6432565,133.19337
1.7007805,136.44539
1.71121,136.54977
1.8523275,143.76573
1.8111017,144.22063
1.6310849,142.17062
1.6354648,136.36266
1.6187963,134.53365
1.6603154,136.57436
1.5678554,134.97603
1.6264493,136.47221
1.4372889,132.88979
1.476796,134.05591
1.553665,128.77095
1.455554,127.275925
1.3468887,125.1107
1.4719766,122.86275
1.3973947,118.09059
1.3845034,115.51005
1.4056681,112.19208
1.304626,106.2362
1.315993,109.61854
1.3580377,105.68623
1.3323479,101.10899
1.3388542,100.47368
1.2595994,94.21673
1.1324174,91.484985
1.2936373,92.31351
1.193986,83.058586
1.0619718,81.38127
1.0765252,82.16809
1.069396,76.41196
1.0338101,78.18616
0.9801334,74.65636
0.9153666,72.327896
0.879622,69.623825
0.8481802,61.456394
0.8483051,61.753345
0.76602495,57.254658
0.814359,53.892006
0.8010963,51.319523
0.8019119,46.766678
0.84649104,46.938114
0.85012835,40.27903
0.7201319,44.77122
0.82789063,40.25393
0.7490912,42.461433
0.7074262,40.0
0.6609643,40.0
0.67458594,40.0
0.5587795,40.0
0.5955513,40.0
0.5416509,40.0
0.49406624,40.0
0.48994136,41.12852
0.5209715,40.613987
0.4163756,43.305176
0.41194654,46.588474
0.6954642,47.057354
0.537522,54.412796
0.6428986,55.93036
0.7644938,62.562737
0.8795857,65.352005
0.9759202,70.115616
1.0233327,73.78461
1.1066636,81.25007
1.3104787,82.000984
1.3968558,91.70006
1.4713272,95.83548
1.6340853,101.535255
1.599831,108.04341
1.7530988,114.09839
1.7057012,115.893166
1.7781941,121.15622
1.9308006,122.881966
1.8553894,130.90208
1.8680011,130.07555
2.0076187,132.1637
1.9251523,134.93141
1.9506707,137.92567
1.9252696,139.74661
1.9708885,142.05086
1.8901539,138.94324
1.9950644,142.18835
1.8671265,140.47864
1.9031267,139.07281
1.8262475,138.58453
1.9188601,133.7591
1.737777,132.7325
1.7099812,131.80067
1.6434603,129.91052
1.6365657,123.30895
1.5922244,121.024155
1.5301644,126.02468
1.5987672,119.32516
1.4755231,114.77922
1.553276,115.78099
1.4573517,110.548676
1.4848459,109.74787
1.5071914,108.286644
1.4869416,100.177414
1.3925618,100.4554
1.4422332,96.384636
1.4143188,98.7723
1.3669971,91.62249
1.3856719,89.755974
1.3518968,83.00315
1.2825979,81.43582
1.2605526,84.47324
1.1337332,75.011086
1.1260633,71.4283
1.0573552,67.51789
0.9505154,64.512405
0.9679915,69.13081
0.8733303,57.674583
0.9213463,57.00358
1.0223721,58.520576
0.9406452,53.535374
0.9404509,54.22576
0.87123054,47.06163
0.91856676,45.00798
0.87637097,40.863182
0.9020798,40.0
0.86724496,40.0
0.8178914,40.0
0.8750955,40.0
0.8534517,40.0
0.6613711,40.0
0.64296526,40.0
0.659552,40.0
0.53196645,40.0
0.48209763,40.0
0.5432101,40.0
0.53793204,43.636566
0.52089393,42.011852
0.4924565,48.536106
0.66326934,50.952057
0.76187605,49.262238
0.81164956,58.955612
0.8248925,70.01021
0.997779,67.474846
1.1273011,75.12623
1.2564728,75.73113
1.2528623,85.81778
1.3397795,90.17245
1.4799757,92.03846
1.5297159,98.50921
1.6496742,101.86993
1.7592058,111.564926
1.7618307,115.497
1.8762445,116.90087
1.7137326,122.454834
1.965825,126.03705
1.9482613,134.24997
1.9177685,135.0218
1.8422539,134.87291
1.8990363,144.0098
1.9047009,142.10364
1.8977478,133.97984
1.8728645,141.0313
1.874936,139.60887
1.8213102,139.15564
1.8849943,137.33763
1.725309,135.56842
1.7553561,139.63504
1.7042927,135.00053
1.6780756,134.05904
1.4664181,132.31517
1.525867,128.59735
1.5127448,128.74391
1.5808452,124.98536
1.4988872,123.08428
1.5698615,113.79608
1.5283684,114.0493
1.4590098,113.75254
1.4286686,111.18307
1.4975004,106.108574
1.4662602,107.21946
1.3826267,101.32831
1.3768715,98.48663
1.298333,93.83277
1.2310717,93.349594
1.2598855,88.97917
1.2710818,85.78622
1.1553724,86.404366
1.1171433,76.42044
0.9553587,79.36713
0.9704462,76.12844
1.0547702,68.17907
0.8887736,67.50179
0.79592216,65.519455
0.81773275,58.583107
0.9404999,57.264454
0.8809913,57.785496
0.8702953,53.579678
0.7443674,51.157677
0.8034092,45.186543
0.80475366,43.761467
0.8075389,45.42986
0.8159604,41.045284
0.66435176,40.0
0.6637043,40.0
0.7524131,40.0
0.6008825,40.0
0.54529953,40.0
0.5546982,40.0
0.40192384,40.0
0.42517987,40.0
0.3955505,40.0
0.3982047,40.0
0.38705406,42.22953
0.30187166,40.0
0.24080458,45.140606
0.31610492,48.981358
0.46977895,51.027763
0.49731568,62.649555
0.6186512,60.566948
0.7997486,65.83018
0.70741683,72.98509
0.93646276,74.45991
1.1484665,80.32094
1.1423872,87.26251
1.2474159,94.674805
1.2731627,99.06341
1.4824909,107.71851
1.5061259,105.776985
1.6047021,113.460335
1.5528893,116.990105
1.6706321,122.33283
1.667812,123.42989
1.7188336,128.23769
1.7617111,137.48386
1.6240385,133.32344
1.7040176,138.49171
1.6462371,135.68466
1.7025309,139.99922
1.6438895,139.62367
1.6844239,137.29257
1.7030108,139.6775
1.5771471,136.57327
1.5512902,137.83984
1.4810979,140.57765
1.3682846,135.65057
1.398876,132.61548
1.3824366,130.24538
1.3389091,132.02571
1.3043424,127.060616
1.2658228,125.33546
1.2623216,121.860466
1.2567527,121.68553
1.257118,113.84099
1.279461,111.21962
1.1643842,114.04266
1.0132934,110.31782
1.0650457,103.90134
1.1473521,101.03715
1.0467622,96.664505
1.1150196,94.29112
1.048666,93.93685
1.0376325,89.4464
1.0352483,84.7775
0.9187361,84.61685
0.8577367,82.56274
0.76524884,77.32831
0.7551406,76.46267
0.74202,73.77031
0.6029442,66.58059
0.41179967,68.13428
0.5571579,61.10236
0.60230696,60.22644
0.57828856,52.739365
0.44805446,56.998764
0.4662962,50.403538
0.58915854,50.573097
0.6455973,48.918915
0.5021714,47.659702
0.5140923,40.0
0.43996647,40.282494
0.3943499,40.0
0.3793915,40.72555
0.40080082,40.0
0.25545725,40.0
0.19817476,40.0
0.25392526,40.0
0.16377524,40.238075
0.10727997,40.0
0.117749006,40.0
0.117099404,40.0
0.034680396,41.970604
0.11083346,42.5707
0.16832522,46.85307
0.29127604,53.44135
0.21245934,54.807648
0.22998202,58.548172
0.42174375,68.766914
0.53801477,69.08862
0.57537484,73.97436
0.7410297,78.916405
0.8817512,88.99744
0.973761,89.87505
1.1296147,97.7526
1.0614444,103.959206
1.1998003,110.24742
1.2401643,110.54178
1.2768924,114.17281
1.4230176,122.51529
1.4427433,125.679276
1.4531517,128.56142
1.4187868,134.58142
1.4810562,128.26196
1.4333036,137.18076
1.3814543,135.8772
1.3862305,136.4055
1.4166845,139.26027
1.4141476,140.79883
1.3833973,142.01767
1.3053585,139.20552
1.4124774,139.6361
1.1604074,139.54999
1.1789727,133.9335
1.2088919,133.70874
1.1987631,133.4749
1.1448729,124.202354
1.0879121,127.350975
1.0374295,122.25758
1.0411872,121.61126
1.0628526,117.61993
0.9917681,116.956665
0.9155673,115.99603
0.9648561,111.704895
0.9069847,106.74427
0.87516564,103.33139
0.8213295,102.981964
0.9588654,97.552124
0.8912431,94.15969
0.7497506,94.598
0.8130912,90.97661
0.7328342,86.26381
0.70260656,81.66282
0.6929882,79.82974
0.70448935,76.68498
0.62900615,70.97307
0.44121537,68.4925
0.4803262,71.17022
0.52515054,68.13374
0.45765138,63.308826
0.3542945,59.28884
0.3431673,55.706497
0.3579055,56.758713
0.38217923,52.292076
0.31741467,49.13665
0.30452162,49.68316
0.3728835,43.401947
0.34238517,41.22003
0.3369594,40.0
0.2937099,40.0
0.26011878,40.04205
0.24725486,40.0
0.19366981,40.0
0.105711795,40.0
0.1336152,40.0
0.12668295,40.0
0.03490672,40.0
-0.033165477,40.0
-0.16666304,40.0
0.010113905,43.51854
-0.04299784,45.14224
-0.08261678,45.312378
-0.025935473,51.159695
0.040753137,59.686646
0.20585385,61.25929
0.2912771,67.35445
0.37217212,69.66624
0.52338576,77.161705
0.57872987,77.567406
0.6607922,87.16726
0.8660892,93.24921
0.83858025,94.44948
0.98702645,103.099785
1.0454353,106.73903
1.184832,109.32119
1.2274839,114.424
1.2482157,120.4103
1.3410437,122.88391
1.3456488,123.47003
1.2984495,130.55298
1.255414,136.03731
1.2921722,138.20277
1.4110763,138.46777
1.3186902,138.88724
1.3654006,134.60214
1.3566525,137.60991
1.3137561,139.53091
1.2204015,141.0931
1.30244,140.85686
1.2980161,142.30739
1.1771466,134.6879
1.22536,135.01924
1.1913261,136.96136
1.1748854,130.29292
1.1566828,127.49052
1.0477381,126.500534
1.0349033,120.10572
1.0167352,121.22315
1.0953658,118.236435
0.90564114,115.62144
0.95076555,112.04332
0.88777506,109.125725
0.9623174,104.82698
0.9414852,103.55946
0.9352771,99.95242
0.8943617,96.82943
0.90275484,91.9564
0.8646842,88.04639
0.8036261,90.44895
0.7655121,90.43216
0.802961,79.48357
0.75459826,78.88796
0.5451696,77.63891
0.5283847,72.41479
0.56996006,72.85362
0.4063957,67.675156
0.5617604,67.85703
0.4674838,63.117077
0.41676253,58.407654
0.40868533,56.96163
0.4853448,54.457382
0.5228843,49.770065
0.34240028,48.89611
0.42308432,50.835564
0.4826552,43.227123
0.40598437,42.256622
0.29206333,40.0
0.36867642,40.0
0.30911714,40.404255
0.3689671,40.92858
0.19211467,40.0
0.24510424,40.0
0.093432546,40.0
0.08139068,40.0
0.11963471,40.0
0.15584444,41.485188
0.15157047,43.35426
0.079729415,47.199734
0.14719866,44.562225
0.063733354,51.50227
0.20625554,57.86769
0.3483135,62.4245
0.44589117,64.26761
0.44379076,68.561714
0.5419968,73.66716
0.6059513,78.9398
0.8624841,80.27447
0.93277055,87.39432
0.9723242,88.65339
1.1829667,100.72196
1.2602717,105.33124
1.2583303,111.27939
1.2953209,109.93111
1.4190372,115.36776
1.4820046,121.09408
1.5200734,122.93687
1.4670666,129.62341
1.4939708,136.18477
1.6046996,134.48721
1.6693095,136.2573
1.5860959,137.56213
1.4724034,144.81815
1.5710055,140.33627
1.4969883,140.55342
1.5141083,144.42473
1.4579294,140.9654
1.462073,135.87459
1.5642419,136.53574
1.4222018,135.15598
1.3770393,133.9406
1.3897694,130.99933
1.3572845,130.62509
1.3731278,126.31655
1.2531782,122.42589
1.2423363,117.34649
1.233192,119.84046
1.1709548,114.32069
1.2453923,110.42557
1.2205478,108.76885
1.1936581,108.15456
1.1607711,104.107796
1.129618,104.7509
1.3091018,98.83622
1.1651671,95.72601
1.015932,90.52629
1.0706258,91.00276
1.0753125,84.3268
1.0053369,84.75422
0.982324,83.05296
0.94056326,78.12495
0.8781345,74.511345
0.8274602,69.79949
0.83029157,73.18214
0.77752346,66.105316
0.70264775,61.306393
0.7330792,61.547348
0.649289,56.788174
0.61552405,51.367966
0.7088879,54.399124
0.6780453,47.166626
0.69991773,48.684
0.73576856,43.573627
0.70474094,41.37947
0.7560031,40.0
0.6328066,42.521553
0.55355847,40.0
0.550399,40.0
0.57375395,40.0
0.54521996,40.0
0.47058794,40.0
0.3164085,40.0
0.39422455,40.0
0.34303692,40.0
0.4195142,40.0
0.44270653,40.0
0.32926682,46.09338
0.40737665,53.014465
0.5229547,50.663593
0.5863394,56.491516
0.6318498,62.99926
0.7231713,63.846596
0.9210315,68.36726
0.91032314,79.5031
1.0797223,82.87444
1.0387989,89.21925
1.2171162,89.68578
1.2955863,94.77243
1.4377708,99.785324
1.5859219,102.84689
1.7514471,110.212
1.7538937,111.89275
1.7460724,120.35848
1.8450041,125.60677
1.7031523,124.73813
1.7632672,131.03697
1.8705982,132.69618
1.7687005,131.66493
1.8697196,135.12097
1.9289334,137.64142
1.7996482,140.59595
1.8967093,140.48763
1.8784089,143.35866
1.8020151,141.80994
1.7431762,143.16147
1.7800217,142.47618
1.7550598,136.07864
1.7457684,136.4567
1.6868163,132.42545
1.654617,130.62444
1.6252584,129.87447
1.4780892,126.91508
1.5482622,118.58709
1.5873057,117.55621
1.4707836,113.14748
1.4170413,114.97364
1.4358352,109.26144
1.3693025,114.35567
1.4484184,101.63649
1.462797,99.87443
1.4472519,101.94056
1.4579214,96.01888
1.3058751,93.69085
1.3954058,90.65086
1.3184078,87.7515
1.2767085,88.13571
1.2460096,80.46135
1.1735934,77.87382
1.1667175,75.76852
1.1138278,70.938446
1.0534297,70.38858
0.98994553,67.038246
1.0063213,65.8631
0.799695,63.235466
0.9510481,58.859833
0.9414707,56.730392
0.9523807,54.089085
0.8994782,46.50438
0.8607269,45.99158
0.923361,42.470905
0.8632017,41.908577
0.87705237,43.081974
0.84510803,43.78353
0.8143692,40.0
0.7921795,40.0
0.70675623,40.0
0.5467551,40.0
0.7496983,40.0
0.63853234,40.0
0.5955504,40.0
0.55129623,40.0
0.5405116,40.0
0.59829175,41.518314
0.5771033,43.105076
0.55223525,44.89308
0.66186297,47.75143
0.76768804,55.507713
0.81610274,56.69477
0.8769494,64.10388
0.98481774,67.34031
1.091401,72.171875
1.1852347,81.98819
1.3203937,82.57366
1.3582398,87.39948
1.4829551,94.16561
1.6163353,100.7004
1.7756252,104.652214
1.7138164,108.648346
1.7768552,115.38515
1.8861955,120.75694
1.8065394,125.57538
1.8927392,129.95013
1.9711305,133.74548
1.8855673,129.7222
1.898392,138.83647
2.0458508,142.64346
1.9798397,137.42033
1.9679042,136.35046
1.9320076,141.65842
1.897036,143.5741
1.9343535,136.76286
1.8061978,141.11504
1.8265774,135.74721
1.7464838,141.23245
1.6782556,135.30484
1.8358253,135.47195
1.7316208,132.5875
1.6076545,127.15307
1.6708294,126.35989
1.5423205,122.496216
1.6432835,119.27078
1.5048462,117.97039
1.5347413,111.37623
1.4568543,111.86929
1.5088922,106.47877
1.3813907,104.652565
1.4646978,101.150604
1.503396,103.8061
1.4172621,94.72523
1.3138708,96.4663
1.4157071,89.29493
1.2526876,90.42939
1.3242054,85.24945
1.2892019,81.10133
1.1651938,80.07988
1.068302,69.42859
1.027028,77.66228
1.0202434,68.69562
0.9398796,66.696495
1.0681608,64.5238
0.95102924,63.50002
0.88822186,58.33337
0.97784007,59.24809
0.8375921,54.263027
0.79010767,52.136837
0.91171956,48.34829
0.8630151,44.84316
0.8321829,48.078148
0.8299596,40.0
0.7801035,40.0
0.7821389,40.0
0.72414255,40.0
0.7169897,40.0
0.68049616,40.0
0.63502055,40.0
0.6552511,40.0
0.44357085,40.0
0.43880376,40.0
0.5325089,40.0
0.53845745,40.029633
0.50131077,43.00068
0.49710968,50.645084
0.4256722,46.03026
0.6425426,51.470226
0.6919573,56.532585
0.74819213,64.97654
0.7942896,68.59858
0.87388116,68.19586
1.1158541,73.8487
1.1509658,85.63131
1.2087697,86.493385
1.3697369,92.6409
1.43745,101.22617
1.4817079,102.77172
1.624896,109.59069
1.5447774,115.43968
1.7213337,116.237274
1.6386461,122.35554
1.8128337,124.63867
1.737246,126.125404
1.8514333,130.47609
1.84604,135.67538
1.777989,134.38809
1.8230779,135.50533
1.8709413,138.05243
1.8056276,141.71967
1.7154866,139.97475
1.6455742,141.20364
1.7891229,138.36366
1.6882783,140.94337
1.6344221,137.61671
1.6158066,135.81163
1.5399114,136.14401
1.567179,131.1472
1.5004514,128.25165
1.4374348,124.186714
1.3940794,121.624306
1.4189568,120.588196
1.215625,119.73221
1.3991264,118.80435
1.3606963,116.13988
1.2579892,106.922806
1.2245647,107.45312
1.2146522,101.82956
1.3517762,98.50856
1.2340894,99.45567
1.2443165,98.11118
1.1884742,94.03388
1.0690162,88.110435
1.0763793,87.18831
1.079656,80.33825
1.029562,79.322075
0.9848437,76.70997
0.9036895,73.26018
0.82372004,71.3628
0.72098607,69.89671
0.78096384,71.85419
0.74918264,65.55599
0.72050095,58.51934
0.7330847,58.240425
0.7558348,57.48817
0.7432712,55.735226
0.7254044,45.362785
0.546998,46.78922
0.50812846,44.10782
0.5708937,44.554585
0.55171597,40.0
0.58842754,40.142788
0.5295472,40.0
0.5345283,40.0
0.5151178,40.0
0.41214538,40.0
0.3321348,40.0
0.35518554,40.0
0.26734042,40.0
0.23704474,40.0
0.15510567,40.0
0.17701933,42.82222
0.16670415,43.50238
0.37422892,50.221783
0.2572435,54.702126
0.44696805,57.369785
0.40581787,62.341694
0.5985802,67.04592
0.631215,68.75598
0.8172319,74.519714
0.7537432,82.4484
0.8891462,90.27085
0.9597674,91.97103
1.150504,101.87278
1.2626103,100.6573
1.2936691,110.31081
1.3278942,112.31982
1.428046,116.23324
1.5225904,122.615715
1.4874017,127.02134
1.465683,124.25314
1.5456777,133.43233
1.5182936,133.3908
1.5698155,135.71205
1.5690315,141.89508
1.621411,140.94438
1.5553985,138.4456
1.6173893,140.85081
1.4072478,143.3989
1.3626455,141.3977
1.4155793,139.00029
1.4660287,135.77493
1.3107582,134.58951
1.2704003,136.30386
1.1785941,133.8587
1.2380328,131.28206
1.1388295,127.56532
1.1670465,124.134445
1.1448781,122.426895
1.0718126,121.33716
1.1007721,114.683205
1.0439875,108.83204
0.9279271,110.247665
1.0607479,104.492195
0.9656628,106.93654
0.9498304,100.18271
1.052505,96.00214
0.97829753,94.8197
0.8969815,92.55172
0.86159915,89.41766
0.8837266,85.173195
0.84738284,82.10447
0.7182348,82.32038
0.76296073,76.37698
0.6333089,80.46273
0.5304261,74.67159
0.4369548,71.80736
0.5252382,68.305626
0.3502164,63.460308
0.47785246,62.131714
0.42389673,54.750748
0.3618032,54.989178
0.48879877,48.42429
0.3877404,54.809666
0.44347018,48.655426
0.28355798,43.933685
0.33238482,44.92657
0.41222078,45.90562
0.40150607,40.0
0.25038654,40.0
0.23057616,40.0
0.22221226,40.0
0.16373408,40.0
0.0693581,40.0
0.09755938,40.0
0.02649509,40.0
-0.03682843,41.746735
0.023578456,40.0
-0.04829255,42.573048
-0.07044458,45.670784
0.020313652,50.047
0.10734472,54.021366
0.1528219,53.454124
0.15362811,57.09415
0.4128338,65.2917
0.39799175,70.660484
0.46917337,71.49912
0.6784082,76.469795
0.7587502,86.081726
0.7289033,87.24339
0.92105675,93.18654
1.0519472,100.208855
1.138022,103.97976
1.1148882,111.36307
1.2319887,114.71136
1.3194684,120.40903
1.2284046,126.737816
1.3703117,123.380196
1.3366579,127.218864
1.3520174,133.56982
1.3682781,134.46938
1.3728437,141.16972
1.3467486,138.82706
1.2655414,137.69115
1.3636503,143.38303
1.3091412,142.26183
1.2421634,139.40811
1.2342435,137.40509
1.2008681,136.06975
1.2375003,137.24458
1.1721877,136.43005
1.0107261,135.89061
1.0661651,129.98087
1.0203052,125.32248
1.0160642,126.54406
1.005313,122.38653
1.0479544,121.363945
0.9310141,118.24146
0.9928214,117.12507
0.83387953,109.28536
0.84092003,108.42148
0.97373605,107.05894
0.8602416,100.61181
0.9844823,95.29395
0.8020091,96.747574
0.77738816,95.24991
0.7459198,92.459496
0.7591249,89.007904
0.7044739,79.790306
0.74834776,81.220764
0.5881831,81.304054
0.57768,79.388565
0.5425358,71.409645
0.42469558,72.367226
0.45457402,72.50452
0.44847485,63.92547
0.42711872,64.18726
0.31747538,59.33746
0.34981075,57.684616
0.33231115,50.51907
0.2775383,51.58059
0.43014845,50.21728
0.43866602,49.37437
0.35199618,43.348015
0.26978213,40.38573
0.28372157,41.276302
0.29854268,40.0
0.23299722,40.0
0.14202832,40.0
0.12641934,40.0
-0.0017245264,40.0
0.008238195,40.0
-0.0061857845,40.0
-0.03502707,40.0
0.06732015,41.330223
-0.15756004,45.54139
-0.034313075,44.61059
0.004384078,47.209576
0.11766247,51.80851
0.15424229,54.646084
0.1914759,57.760708
0.23279499,62.144108
0.40398845,66.27388
0.49271545,73.279724
0.7612596,76.65153
0.68717164,81.599304
0.7980761,89.75812
0.760856,92.03708
1.0164639,98.76499
1.0938648,106.42507
1.1423956,108.396255
1.1720271,113.27013
1.4053955,118.89798
1.282491,122.24436
1.3302542,121.801605
1.4050001,128.13469
1.3904204,128.79655
1.54243,135.28447
1.4155687,138.51102
1.3875852,139.54774
1.3989245,142.33458
1.4409178,138.37738
1.4460156,142.24472
1.3285129,141.5225
1.334915,139.5786
1.3373827,138.03207
1.3439027,136.00055
1.2467706,137.4852
1.3151659,134.27647
1.2533123,135.39525
1.2502602,129.80614
1.1632544,130.97537
1.1357733,121.89186
1.1379111,122.10192
1.03406,116.35127
1.068038,113.86637
1.0088791,114.20248
1.0551425,109.395874
1.1669351,108.03946
1.051827,106.71554
1.0612134,101.19796
0.9754041,101.07798
1.0006679,92.317215
1.0675778,95.20873
0.8298753,86.07081
0.91629094,85.17274
0.9255082,76.96052
0.7653543,82.535515
0.8528173,77.888916
0.6193633,68.47811
0.7428676,72.22452
0.56665015,71.49411
0.70813537,66.64214
0.55438757,60.733627
0.5850828,55.455624
0.49838975,57.93842
0.6213677,53.50999
0.5912924,53.188396
0.5182807,48.433735
0.49356443,47.5381
0.64386266,42.221985
0.5644485,40.112724
0.541185,41.341465
0.46684882,40.0
0.45198646,40.0
0.4917191,40.0
0.35318172,40.0
0.41347092,40.0
0.37964135,40.0
0.3081456,40.0
0.32226127,40.0
0.24662364,40.0
0.25752074,40.0
0.16482668,43.25696
0.2590421,45.818874
0.32752588,50.79136
0.35119966,50.132545
0.49979168,57.984985
0.5033697,58.81274
0.56196487,62.78585
0.59077996,66.56724
0.84822387,73.09501
0.84657484,83.29187
1.1098055,88.64324
1.1795093,90.86148
1.3003539,95.261
1.390978,101.42901
1.4224036,110.35882
1.4065773,112.860634
1.5096337,119.00108
1.6522952,117.73578
1.643519,125.48226
1.7575452,130.26826
1.6203665,133.29477
1.6668441,133.90353
1.7366736,137.51784
1.7422674,142.66565
1.7743676,142.23119
1.621566,141.90352
1.6815515,145.32428
1.6534382,139.4187
1.7446042,136.43166
1.645652,137.48767
1.5658556,141.74422
1.6326395,136.81279
1.4554867,132.67662
1.4567349,130.66739
1.5202663,128.43532
1.4593443,126.14811
1.3991213,120.59603
1.4314113,124.22752
1.35344,120.6004
1.4914577,117.28112
1.3778361,110.14184
1.3277515,107.338486
1.3551308,109.160126
1.3731306,104.72154
1.3581034,107.251724
1.2573427,96.62366
1.2936246,93.99543
1.321394,91.11074
1.2194963,88.834564
1.1445312,85.26218
1.2165982,89.60282
1.1044756,80.36557
1.0363314,78.76708
1.1455234,73.33335
0.9274448,73.12991
0.8710054,71.55657
0.8347865,69.05206
0.91596764,61.760136
0.92086667,60.69756
0.81296414,54.542236
0.8569363,55.08849
0.7629144,49.02698
0.89731437,52.413734
0.9367188,50.32179
0.91520107,46.674736
0.8669248,46.178585
0.66564316,40.0
0.8356018,40.13286
0.73813194,40.0
0.68397206,40.0
0.72953355,40.0
0.6384284,40.0
0.607963,40.0
0.5025581,40.0
0.59581786,40.0
0.4281673,40.0
0.30671054,40.0
0.58575374,40.0
0.49240914,45.277817
0.55225915,47.672962
0.56687814,47.04211
0.63554996,53.648705
0.690971,60.79138
0.73654765,67.85877
0.8546723,69.14018
1.0685703,77.122314
1.1625149,81.98308
1.3337325,82.84125
1.3507439,90.8811
1.4828464,96.96493
1.51477,98.080864
1.5630922,105.00204
1.7829195,113.83333
1.74944,113.35167
1.8240079,120.25746
1.8211232,123.21005
1.8987627,130.41089
1.9174219,123.90215
2.0026348,134.93861
1.8778127,134.87024
1.9188713,136.36649
2.007114,138.58221
1.8762833,140.52615
1.9553559,139.13135
1.8661937,141.34253
1.8021493,141.93942
1.8032838,136.6905
1.8604828,138.17737
1.7593226,137.02802
1.7860701,137.44455
1.72407,132.68666
1.6866635,126.598076
1.6419154,123.5492
1.5044949,125.99015
1.6670587,123.34924
1.4510082,117.08214
1.4331812,116.52428
1.4841111,111.27768
1.5334861,111.069824
1.4753289,107.20708
1.5792559,109.885315
1.5617089,101.68363
1.5571138,97.79615
1.4510545,96.355255
1.2977843,96.138985
1.3329836,94.96802
1.3992672,89.2987
1.2990171,87.30611
1.2740856,85.92072
1.3283852,82.60776
1.0792794,74.10599
1.1719353,73.78891
0.90977067,74.50014
1.0744967,68.458725
1.0025926,64.17272
0.99386555,62.115517
0.95911777,63.44895
0.9510341,58.11533
0.96596307,57.53497
0.8681355,46.18518
0.8920507,52.83817
0.9262188,43.887604
0.95017457,42.960476
0.93732035,41.96954
0.89408994,40.0
0.95225936,40.0
0.74374837,40.0
0.8463827,40.0
0.79490566,40.0
0.85803866,40.0
0.5954096,40.0
0.6643943,40.0
0.55987126,40.0
0.4590635,40.0
0.5435645,40.0
0.54036504,45.072964
0.5410646,49.087334
0.6343531,45.91018
0.6650726,59.226276
0.8272761,60.256977
0.80985355,63.88403
0.9778625,66.08459
1.0062534,74.06318
1.1246246,76.00703
1.2288163,84.76883
1.3834069,89.17097
1.5388556,94.83665
1.5104754,100.830345
1.6399875,106.76251
1.7000107,108.13882
1.7633396,113.34638
1.8043015,116.17146
1.8355463,122.5638
1.7508025,126.89006
1.8156823,126.35797
1.9022028,135.81229
1.8218772,136.44592
1.8454559,137.39734
2.0253854,141.07483
1.9047432,138.24765
2.0425184,141.55177
1.8416466,142.31584
1.9146843,139.45207
1.8426937,141.85637
1.8322958,136.35
1.8546062,141.71292
1.6139942,132.2376
1.6469042,132.80124
1.579072,131.53497
1.6324947,128.06818
1.54308,126.46527
1.4966583,125.975975
1.4926416,121.91913
1.3702347,118.57503
1.4834138,111.64466
1.5290045,114.683815
1.4257675,109.99906
1.2994715,106.94523
1.4131067,107.794365
1.3389785,100.7204
1.4768617,102.68404
1.3174301,96.607796
1.2917098,94.90504
1.1992313,92.9873
1.1568699,85.99497
1.0811627,88.02278
1.0263398,76.8165
1.0979196,74.84884
1.03849,73.712265
1.011781,73.845955
1.0212628,66.648895
0.893798,66.62203
0.81768835,64.818474
0.7835495,57.59684
0.7919445,53.929882
0.80453885,52.93179
0.8051653,52.917576
0.7055453,51.993168
0.75612617,42.234917
0.73069847,43.785927
0.7797025,41.968395
0.7921865,43.145653
0.71310884,40.0
0.7023468,40.0
0.5939332,40.0
0.6490313,40.0
0.52954876,40.0
0.33664727,40.0
0.50178224,40.0
0.35685918,40.0
0.43396446,40.076492
0.35025346,40.799587
0.22459434,45.94715
0.40241507,44.938473
0.39784724,50.08801
0.32450655,55.55375
0.5801119,59.89728
0.50108707,62.1386
0.68101704,67.52653
0.67795026,72.64937
0.90945745,75.44714
1.0099212,80.01977
1.0232491,85.73778
1.1633689,92.26632
1.2000123,98.11413
1.4121156,101.42521
1.5099024,106.13658
1.4272777,114.71276
1.6614908,118.42985
1.6869521,120.40773
1.6142449,124.31975
1.6038207,128.68027
1.7194974,131.62616
1.7032338,134.50697
1.7251608,138.4089
1.6405005,133.65814
1.5803021,137.9176
1.5485102,136.4577
1.6171168,139.28255
1.5931466,138.76369
1.4622324,140.35522
1.4839568,139.03786
1.5031849,138.11024
1.4644171,134.52467
1.3868916,134.14682
1.3519593,131.10678
1.380449,130.05392
1.2250444,128.5841
1.2444978,121.52853
1.2370585,123.09768
1.2014898,118.37325
1.1368723,111.95541
1.203532,114.3569
1.0491378,115.63403
1.1389259,103.8552
1.1082993,103.819756
1.118572,103.97187
0.9899476,96.171265
1.0521889,93.86177
1.0133711,93.8996
1.0424925,85.4527
0.93820363,89.88122
0.95979404,86.087105
0.8711687,79.77075
0.7500507,75.07887
0.72951454,72.658676
0.6175184,74.44229
0.54610306,71.040146
0.6645001,68.47318
0.59845906,63.425262
0.59363014,57.603043
0.41320327,57.996445
0.5438597,57.61171
0.5339614,52.673126
0.44416925,50.996933
0.39380163,51.206978
0.42331332,41.378143
0.54332525,43.028522
0.3732933,42.12418
0.45968536,41.58391
0.3229442,40.0
0.33765864,40.0
0.2612644,40.0
0.30261347,40.0
0.33247787,40.0
0.19159237,40.0
0.1645154,40.0
0.13608004,40.0
0.06262545,42.808434
-0.005466497,41.142445
0.028326707,46.050976
0.12689096,47.683784
0.07941522,54.50426
0.08925368,52.76919
0.37199545,57.452057
0.4379603,68.26154
0.46110567,72.26265
0.52924806,72.900955
0.61651206,77.0592
0.82046217,79.498245
0.9839212,90.53726
1.1301353,95.66053
1.0469205,101.57293
1.242316,106.28179
1.1574031,111.67844
1.2917042,114.539444
1.4001036,117.23354
1.3023278,123.28021
1.3973303,127.841606
1.3657671,129.50821
1.4720416,134.60042
1.4295682,137.76865
1.455447,139.42842
1.3518777,136.76375
1.4176015,140.92386
1.4583317,144.06511
1.3474745,140.4176
1.3996577,141.3594
1.2975575,142.69725
1.2831659,138.45276
1.2862952,135.74252
1.1855911,135.0626
1.1968522,129.51216
1.1228788,128.49573
1.061159,126.92314
1.0688297,122.50897
1.007894,124.19687
1.059545,119.96103
0.9605943,114.84131
0.9915671,112.73514
0.9341814,112.20018
0.8640571,112.64193
0.90106136,101.53615
0.8418065,97.218285
0.81282586,99.93651
0.9558117,99.34516
0.88253564,91.74144
0.7599995,89.94812
0.7714149,90.493706
0.6565221,84.371925
0.6929303,85.50277
0.5674526,76.87271
0.57640374,74.36984
0.52625275,73.846344
0.511958,71.95299
0.4396458,67.6305
0.45403185,68.56112
0.4735809,59.519264
0.50017834,59.092937
0.38286415,56.12613
0.34317145,55.743515
0.34233785,51.92737
0.30328837,51.374775
0.3787009,44.48063
0.218604,41.434006
0.3103473,41.499588
0.30240992,41.45918
0.23816356,40.0
0.21462667,40.0
0.15318546,40.0
0.11400413,40.0
0.13045369,40.0
0.12428063,40.0
0.0840458,40.0
0.0115007255,40.0
-0.04188965,40.21663
-0.07016384,40.346344
-0.025236111,42.469475
0.003185189,47.39027
0.0126172975,49.004223
0.15982082,53.683205
0.12860373,56.89754
0.24403836,64.31679
0.43602815,70.0164
0.45242387,72.849724
0.5599381,75.321434
0.69426036,88.984505
0.683044,89.59166
0.94540143,95.973434
0.96887594,97.08183
1.0064862,103.56655
1.1326278,109.937256
1.1506085,113.79654
1.2815497,119.5047
1.3541723,126.38362
1.3374457,126.29976
1.393109,126.226845
1.3580946,135.93962
1.4695078,132.42044
1.4021099,135.0703
1.3603194,138.77858
1.3409212,140.94861
1.3533868,137.24445
1.3449844,140.2435
1.3666296,145.45422
1.3485274,138.6671
1.3619117,137.83821
1.333545,134.26341
1.1460706,138.33641
1.1872239,134.67055
1.0692749,131.67645
1.0397353,130.04404
1.2765064,124.9868
1.0012132,122.01015
1.0735084,117.62531
1.0178088,113.23607
1.0432738,116.88241
0.95734954,110.12555
0.98674864,105.946205
0.96112406,106.16986
1.0143808,102.101715
0.96829623,103.84407
0.9707771,98.42054
0.8871414,96.114655
0.802636,93.08723
0.72770566,88.16929
0.816893,85.84128
0.76265085,81.15152
0.6623945,77.098305
0.6948366,70.7125
0.640956,72.678154
0.61575603,71.550835
0.53871685,68.883606
0.5429962,66.13813
0.49040908,60.23166
0.3815717,56.433624
0.5321226,56.269104
0.42066145,53.97339
0.49698845,52.50504
0.5351168,48.153687
0.3957357,46.478333
0.48599708,46.999
0.41147596,45.05296
0.53971064,40.0
0.49071735,40.0
0.4135888,40.0
0.3317293,40.0
0.27803934,40.0
0.33169252,40.0
0.24799363,40.0
0.121685185,40.0
0.15959772,40.0
0.20691898,40.0
0.03706269,41.13809
0.06261509,43.36666
0.1169623,47.229126
0.22973725,53.181644
0.19817495,53.453396
0.29790804,53.461544
0.37994304,60.10638
0.4888627,67.594406
0.5728601,72.704094
0.6670535,76.495285
0.8871032,83.2793
0.9187379,88.66151
1.0444632,93.02345
1.1539387,99.91022
1.2155403,99.28483
1.3040227,105.017914
1.3287897,111.49414
1.37942,119.30252
1.4967008,122.67897
1.4736179,124.84711
1.5164638,126.13964
1.5710112,131.08763
1.6321338,132.75067
1.5979974,137.57405
1.5773654,139.22742
1.5046879,140.34215
1.5131248,140.76958
1.5382522,140.37254
1.4997969,137.33392
1.5640637,142.85754
1.5773422,138.82436
1.4947515,140.15213
1.5339563,136.59752
1.4348762,131.49774
1.4249134,126.98957
1.2711226,130.57352
1.4434217,125.35398
1.3507156,124.591
1.3336784,122.376236
1.2152334,119.062935
1.208999,119.0648
1.280739,110.40699
1.2271109,114.074104
1.2293231,108.60528
1.1763828,107.28653
1.1985264,105.585144
1.1431661,97.526505
1.187245,92.58295
1.164837,90.10745
1.1394889,86.81286
0.97671443,87.97222
1.1361443,86.13705
0.89331204,83.56508
0.936612,80.30931
0.8679951,74.23723
0.8466646,70.92199
0.817355,71.200386
0.8621798,67.48357
0.77684706,63.006317
0.7107986,57.097694
0.7249449,62.193565
0.68976146,51.082767
0.7385421,51.39675
0.71048903,46.212994
0.69148165,46.21854
0.7492246,44.257607
0.68216693,43.611866
0.8024083,43.096653
0.6508194,43.281982
0.5512015,40.0
0.5821523,40.0
0.5705353,40.0
0.53340137,40.0
0.47400793,40.0
0.438349,40.0
0.5481034,40.0
0.4193794,40.0
0.31174985,42.22917
0.3669742,43.03013
0.40383545,44.600105
0.40366235,47.356686
0.55412805,49.40612
0.5873858,53.207005
0.6778118,59.117203
0.7584282,65.60643
0.8031622,69.02754
1.065507,73.281876
1.0611876,82.16619
1.1462134,86.344696
1.242142,90.504745
1.3910532,92.8553
1.3485756,101.515
1.5512083,106.66875
1.6206272,114.99791
1.7360765,117.67983
1.74076,116.274994
1.7592275,125.71733
1.7342522,131.62012
1.8547837,128.95691
1.7596989,130.0748
1.8990246,139.141
1.9335791,140.11786
1.824828,138.96167
1.8078401,137.3961
1.9102405,138.29536
1.838256,142.74612
1.7580034,140.565
1.7958314,139.115
1.7495838,137.9324
1.7728254,142.52777
1.7778449,136.95116
1.6280476,129.52037
1.6368406,128.98587
1.621628,126.850716
1.4932715,126.05858
1.5164,123.11029
1.5131536,118.003334
1.5119034,118.41181
1.510657,110.57378
1.4976022,111.04825
1.4877697,111.050545
1.431619,106.07839
1.4187676,105.20384
1.4759722,99.297485
1.4286319,93.64212
1.4554651,94.20987
1.2694286,87.83109
1.383705,86.83358
1.2679021,85.06513
1.2673341,80.350845
1.1389655,74.173775
1.0732981,72.10082
1.233759,74.23999
1.0195502,73.84763
1.0043812,66.266174
0.9345275,66.45488
0.9281643,61.674603
0.91857576,58.744667
0.9790826,54.55736
0.84924984,51.753536
0.8734201,48.665424
0.9289633,47.12956
0.86685413,46.554565
1.004254,43.46111
0.9216183,43.61605
0.990164,40.0
0.8611893,40.0
0.8448238,40.0
0.762184,40.0
0.7200306,40.0
0.66233665,40.0
0.73302656,40.0
0.6836241,40.0
0.56571203,40.0
0.4930849,40.15704
0.514019,43.639072
0.54917765,42.11767
0.61783856,48.296917
0.5362342,48.079815
0.7365056,53.129665
0.68191135,58.530045
0.81390184,61.201702
0.9726409,69.49786
1.1020175,73.85873
1.2297485,79.87148
1.3329186,85.27875
1.3741838,91.545006
1.5116614,95.486626
1.5734954,99.15135
1.6509959,106.581314
1.7190881,110.40812
1.8361021,112.57602
1.8230522,115.02825
1.7571746,123.92604
1.8288378,128.28242
1.9310308,122.06794
1.9177709,134.22693
1.9496369,137.05219
1.9942195,138.16542
1.9668556,135.59505
2.009429,141.59665
1.9369125,141.31969
1.8680133,139.16362
1.9241282,142.85295
1.7869128,141.34523
1.8906589,138.05629
1.7665703,137.21875
1.7319546,137.57213
1.7345202,134.31557
1.6909554,126.860054
1.6558241,129.66156
1.6554577,127.37867
1.6380634,122.80587
1.573501,119.88287
1.5130395,120.79498
1.538003,113.29108
1.44737,110.23319
1.566117,107.176346
1.492848,107.080376
1.4749546,103.738235
1.5285653,96.40079
1.4557805,91.75067
1.3941195,95.21471
1.3101354,92.469086
1.3762895,88.93512
1.2357999,84.32545
1.2007147,81.31085
1.2419863,80.24722
1.0956393,74.39709
1.0932347,72.343346
0.98707235,67.618614
1.0193312,65.5594
0.894463,64.05838
0.9517925,63.835747
0.86849475,56.114178
0.9103237,56.323215
0.87750065,52.38671
0.89783585,48.83293
0.9308306,48.145004
0.8461163,46.849205
0.939662,46.699524
0.77772564,40.0
0.8187999,40.540226
0.8065344,40.0
0.67872566,40.0
0.7373775,40.0
0.6810493,40.0
0.5725909,40.0
0.58464944,40.0
0.48768198,40.0
0.37927878,43.34714
0.41012916,40.0
0.5940355,42.363003
0.44359615,43.302547
0.54262394,48.565063
0.59326893,52.336864
0.5319358,50.595997
0.6904258,58.83011
0.7227392,63.95342
0.7434234,66.41847
0.8575737,70.40085
1.1232082,75.47988
1.1610548,81.533554
1.2269793,86.806564
1.3185736,92.90002
1.4443855,101.369026
1.4802352,100.24131
1.5338712,110.914505
1.7200651,110.65993
1.6318206,119.450035
1.6990575,122.23306
1.6904219,126.32489
1.7191851,126.62746
1.786833,134.8711
1.7649751,132.84538
1.8860631,136.37856
1.798371,134.0124
1.8629215,139.32834
1.6416616,143.31358
1.7866628,141.45885
1.781671,139.52823
1.685616,141.7824
1.6922385,140.04607
1.7016997,138.35559
1.6873634,136.98898
1.55491,131.84734
1.5751903,133.73564
1.4393559,124.7165
1.4640559,125.676155
1.4432768,123.59378
1.407591,119.755394
1.3035759,119.138
1.3168769,117.75526
1.2983725,112.4024
1.2144455,110.88834
1.1693044,107.778435
1.3901527,103.950005
1.2419516,102.60235
1.187255,98.02152
1.1899456,97.577805
1.1385378,92.64499
1.0297608,87.789986
1.0460327,89.521355
0.9912552,86.69026
1.0498583,79.83629
1.0079845,74.123955
0.87568945,77.72932
0.82033026,78.25742
0.77606404,66.26126
0.6560259,64.82683
0.6337103,63.153107
0.6398869,60.570984
0.7251564,54.750427
0.57760096,56.79849
0.6144275,49.806107
0.5644823,45.698204
0.5403684,44.67156
0.58032054,45.838684
0.60815084,46.038044
0.6534732,40.0
0.56669694,40.0
0.48733562,40.0
0.48116687,40.0
0.3804671,40.0
0.30348533,40.0
0.30882245,40.0
0.24142241,40.0
0.24700087,40.0
0.19537707,40.0
0.25349447,42.29391
0.18211557,43.293255
0.1338524,46.39401
0.21239956,47.07104
0.16181095,53.2591
0.30301085,56.44765
0.37019423,61.137356
0.52764344,67.199005
0.655672,73.875656
0.7796304,78.3778
0.7753423,82.20928
0.97428584,84.25845
0.98136055,87.52418
1.1126566,98.42488
1.2610435,100.016304
1.2514654,109.3393
1.4109362,112.86328
1.380721,112.76705
1.4630493,120.9341
1.4526964,123.23371
1.4773549,129.66309
1.4078448,132.00465
1.4240913,131.77876
1.5234115,137.93822
1.5204021,136.23694
1.4744074,138.01144
1.4784473,142.77773
1.568618,145.86023
1.5203222,142.45105
1.4080789,137.95352
1.4305465,136.64166
1.3082671,135.58456
1.3175552,136.59427
1.2662591,136.00928
1.2156093,134.05371
1.2178069,129.71213
1.2389169,126.446945
1.2864684,126.43642
1.0993841,126.350006
1.1912805,120.11595
1.0168821,117.53755
0.9683163,112.24033
0.9770749,110.926506
0.94198865,106.40621
1.0143468,102.622826
0.9169765,99.61812
0.99909973,93.02455
0.9417231,94.01589
0.86326796,89.76526
0.8558125,95.6679
0.87395644,86.9137
0.81903476,84.399445
0.75302434,81.47966
0.6024891,77.879295
0.76361096,75.454254
0.6778666,74.88134
0.5074457,71.736336
0.5102904,68.08641
0.45897293,63.586975
0.40404704,59.896576
0.49316996,60.1438
0.509234,54.64023
0.29121068,51.801666
0.30524787,50.108986
0.31156084,44.399708
0.29678503,50.395126
0.33920476,41.859898
0.37554583,43.425507
0.32483009,40.358166
0.32158166,40.0
0.20688948,40.0
0.1664289,40.0
0.22156605,40.0
0.14944255,40.0
0.07739218,40.0
0.027197111,40.0
-0.14046237,40.0
-0.122352995,40.0
-0.01278063,40.0
-0.16807747,45.70328
-0.07246382,46.76432
0.05785479,52.075092
0.08313151,56.43362
0.23631425,57.56421
0.31646273,60.358788
0.34985057,69.01031
0.5145931,72.397736
0.5760401,81.78705
0.6423429,83.77586
0.77705914,91.11624
0.9165591,92.54902
0.9331369,100.93455
0.9988066,108.479095
1.1190777,109.49249
1.2092162,114.01455
1.324909,121.17374
1.2755814,126.27449
1.4373146,128.41917
1.2668583,132.67259
1.1753638,132.73058
1.4226882,133.67624
1.4160196,138.8061
1.3505198,141.66838
1.4132336,138.90372
1.3710902,137.27974
1.3518535,140.976
1.3732965,140.99141
1.1879315,140.23625
1.2730005,137.4324
1.2311237,138.9032
1.189459,131.16994
1.2144715,133.9098
1.1341147,132.17041
1.092342,128.7052
1.0410403,123.37258
0.98983103,121.84323
1.0516304,123.89974
0.907004,112.38741
0.96655357,113.777985
0.8917498,113.78567
0.9306128,108.189896
0.97704124,105.8077
0.9074602,102.031136
0.84413934,100.07378
0.8008909,97.667305
0.81808585,95.8641
0.85092175,88.27646
0.8414721,89.14838
0.6314553,87.550415
0.7690031,87.209885
0.6284527,78.8512
0.5406294,79.47336
0.42941195,73.62029
0.52553606,70.54233
0.3070864,70.64449
0.44018018,69.84905
0.32228398,57.98609
0.34294695,60.14851
0.37674946,56.70663
0.27918592,52.612545
0.36225176,47.172554
0.3234966,54.103123
0.4371808,45.801483
0.39160824,44.464348
0.38916773,40.532196
0.35099998,40.0
0.35957363,40.0
0.25569245,40.0
0.13763991,40.0
0.30450362,40.0
0.15268189,40.0
0.21295632,40.0
0.0896568,40.0
0.05341793,40.0
0.010809172,40.0
-0.024376221,40.0
-0.026581267,44.087128
0.07535294,42.04573
-0.012486544,48.487698
0.20274164,51.02265
0.1813261,55.109756
0.25354716,63.70638
0.30254573,69.07423
0.4865384,74.913185
0.48389596,75.76646
0.6882447,82.050446
0.8006696,86.352905
0.96967673,93.676704
1.0123436,97.81867
1.0917555,105.568535
1.2178898,111.18785
1.2668417,110.09432
1.4386648,119.14391
1.3546271,120.6974
1.3780247,120.35334
1.4814961,128.03139
1.5042046,131.28409
1.5094281,133.12912
1.3759444,135.36217
1.503659,140.32642
1.5007337,139.9705
1.4395181,139.71893
1.4240633,138.93985
1.4779071,140.17224
1.4556224,139.29329
1.2798898,138.33823
1.3565049,136.47238
1.3023406,132.48152
1.3642894,136.41153
1.2951885,131.57503
1.215999,127.01536
1.1252576,125.752304
1.112008,125.42594
1.1085024,118.83292
1.1027745,118.431885
1.1562928,115.49625
1.0667909,110.47637
0.9705598,111.84953
1.0999422,108.73801
1.0333247,102.973305
1.18239,102.43701
0.97875714,93.117676
1.0139172,93.934265
1.0002671,96.10092
0.9458217,92.69838
0.93971777,86.04189
0.8604596,82.21543
0.84395856,80.53685
0.8489879,73.27085
0.7875088,70.97737
0.6855818,74.01087
0.662633,69.44926
0.6613958,64.5239
0.5537209,64.927376
0.6351437,58.55531
0.58880043,60.273186
0.5062315,52.761044
0.6189746,52.158394
0.5469384,48.26071
0.5080569,48.368652
0.59930307,41.96055
0.59803295,47.324856
0.6153531,42.376297
0.50221413,40.0
0.49025494,40.0
0.5056742,40.0
0.40451512,40.0
0.40259206,40.0
0.46503535,40.0
0.4033203,40.0
0.3183298,40.0
0.22663486,40.0
0.1632322,40.0
0.35519883,41.20947
0.40805268,50.263115
0.3320152,47.631054
0.44751224,50.22097
0.29610762,55.549385
0.50093013,62.800705
0.60394216,70.856766
0.7663814,72.73278
0.7704297,73.39837
1.0252938,82.86953
1.0751333,87.94012
1.1901207,91.99876
1.1513199,92.24069
1.3756964,101.73244
1.3801434,106.31587
1.4808663,110.70515
1.6654851,117.888535
1.5734566,122.33595
1.6592103,129.02388
1.6537026,128.65617
1.7041434,133.57365
1.6554499,133.98882
1.7750485,138.90399
1.8416741,137.64227
1.7875767,133.07782
1.7671276,140.84488
1.7393937,140.98975
1.6957595,142.95724
1.7108032,138.61763
1.6476971,138.18146
1.6178211,136.03659
1.5691811,136.3645
1.5689555,140.50801
1.5481889,131.79166
1.4288673,128.15172
1.6098818,128.19147
1.4649445,126.8478
1.4368714,121.229515
1.4272331,115.6016
1.3678054,114.83036
1.3075489,117.89761
1.3066437,112.46872
1.309842,104.40671
1.3109977,111.77907
1.3250917,100.824585
1.2737123,97.81156
1.3061118,94.267815
1.3288618,91.490395
1.2770054,94.58995
1.1491681,90.79805
1.18737,86.44971
1.115244,84.56474
1.181767,78.1111
1.1108812,78.74665
0.93545794,78.27085
0.95180655,71.24114
0.942162,66.31656
0.895262,67.2161
0.8914035,60.943916
0.83127224,55.535168
0.881707,58.01181
0.741801,47.7462
0.8628344,49.708447
0.701277,48.85359
0.89353,45.649803
0.82153094,41.77868
0.8224867,40.0
0.8594537,40.0
0.6830245,40.0
0.7974291,40.0
0.70453537,40.0
0.6558856,40.0
0.619198,40.0
0.6839841,40.0
0.49490273,40.0
0.5146269,40.0
0.46988335,43.356586
0.4634695,43.672077
0.50384575,43.56819
0.5415311,50.333515
0.56958485,51.656742
0.68604726,55.326675
0.7277385,58.08499
0.84658974,62.236576
0.9539151,64.6424
1.0756965,78.41683
1.1500998,77.94373
1.1772707,82.53586
1.361599,89.79876
1.3291768,93.71525
1.5620966,97.998856
1.6639572,104.53978
1.6616087,109.35538
1.8722523,117.49523
1.8342011,120.37035
1.8134403,123.3433
1.8920343,127.57351
1.9499768,131.9709
1.8188905,134.21121
1.9973307,129.96294
2.0543773,137.20213
1.8414056,139.19458
1.8841165,139.98486
2.0533617,142.187
1.8718791,142.66347
1.9522529,141.55476
1.930021,141.78519
1.9198903,139.60121
1.8778282,141.40242
1.7577653,133.91919
1.69143,131.71704
1.5911648,127.238525
1.6910034,129.14957
1.7156007,126.83418
1.4916486,122.61945
1.7096003,117.46672
1.5293357,116.254395
1.5688022,115.55617
1.5212394,112.25331
1.5935754,108.712105
1.5125036,105.089195
1.5079916,102.537994
1.5299603,102.146286
1.4058264,99.1001
1.3913718,96.282074
1.4057705,89.596924
1.3654277,88.98652
1.4144738,86.38685
1.2163671,81.513374
1.3077776,79.86752
1.196195,76.72833
1.1401817,72.05246
1.1546669,70.06672
1.0745797,65.553215
0.9595413,67.703285
1.0049481,63.008854
1.0481849,58.48886
0.94673467,56.584835
0.9580305,52.430157
0.8749378,46.783875
1.0212198,47.42761
0.8320437,45.923386
0.8831339,43.55886
0.9284812,43.84284
0.89139783,40.0
0.87711424,40.0
0.75307745,40.0
0.8178988,40.0
0.66506743,40.0
0.6699841,40.0
0.6480312,40.0
0.59808034,40.0
0.60286653,40.0
0.5040231,40.0
0.5164219,40.0
0.49602252,45.843075
0.46485573,46.805813
0.7379481,51.992012
0.68586296,57.110237
0.7608298,58.43749
0.79329085,63.836815
0.85392064,65.854034
0.9652444,71.35986
1.1574386,77.83043
1.2347778,81.121
1.2171924,90.68509
1.4352982,91.25422
1.5135636,96.890335
1.5542617,108.24452
1.6851882,108.16954
1.7570678,113.13461
1.7953408,119.4491
1.797158,123.18457
1.7581394,124.51434
1.9547976,130.73325
1.9497224,132.68521
1.9027768,134.90685
1.819976,138.81105
1.9260736,136.89249
1.940334,142.66054
1.8218534,139.60672
1.9019411,141.77077
1.8619667,138.81302
1.7989694,143.00005
1.7431887,137.97932
1.7290757,137.82903
1.6115324,134.1253
1.5756783,132.37407
1.5329838,129.47878
1.5396003,129.93893
1.5806961,126.20366
1.5781767,124.6784
1.5227575,122.8549
1.4878154,118.37503
1.477189,117.90122
1.4173,113.34665
1.479386,106.97252
1.4042083,107.51213
1.3336849,99.53684
1.2658821,101.48558
1.4317132,95.1609
1.2814698,95.77266
1.3116194,90.30774
1.2054982,89.24234
1.2300841,81.711784
1.1643127,83.99406
1.1490177,80.781425
1.0602188,71.64116
1.1408831,72.493904
0.9848097,72.06054
0.9166592,69.28416
0.9432349,65.51757
0.7738562,65.44261
0.7800177,60.83481
0.7403908,55.614742
0.75152874,51.604362
0.7479212,50.525528
0.77760774,50.17413
0.7811881,48.120613
0.70106554,43.089584
0.77474844,43.58323
0.79356754,42.75839
0.67040664,41.195255
0.68485993,41.268578
0.56555134,40.0
0.5341254,40.0
0.529217,40.0
0.4367669,40.0
0.42733377,40.0
0.30332938,40.0
0.35630643,40.0
0.3623933,42.10862
0.28193694,42.185333
0.24016619,42.912216
0.39931822,49.153114
0.27858785,51.973103
0.4965525,56.544888
0.62343556,59.317738
0.48189855,61.94998
0.74292433,67.17693
0.87486655,76.56809
0.9420928,78.86076
1.006817,85.43847
1.1487416,93.23378
1.2704669,97.974945
1.335373,100.03079
1.4648675,103.843185
1.5125052,107.36617
1.5045564,117.236115
1.5024873,121.718895
1.7010375,125.834206
1.7449876,128.52573
1.5546538,129.47508
1.6544639,133.55151
1.6818402,139.02869
1.6010112,136.79778
1.6386861,138.10938
1.5991389,140.46103
1.5576551,140.29185
1.5548847,145.95482
1.6347125,136.26715
1.5129488,134.81517
1.5598794,137.00294
1.4031402,139.08276
1.3684392,129.9512
1.3044354,132.73322
1.3054742,124.96099
1.4931363,127.9809
1.3244408,127.81132
1.2564354,122.11123
1.1259596,117.04099
1.237511,118.377464
1.0634077,115.42864
1.1732258,110.38254
1.1626621,106.39291
1.0863835,103.69446
1.0249087,99.16503
1.0416518,97.42616
1.006549,96.088646
1.0063725,98.44335
1.006092,91.47236
0.9852099,90.94804
0.9067066,85.42442
0.92542344,83.02182
0.76437634,82.79297
0.7468467,77.44957
0.59015703,72.00452
0.65779215,70.6335
0.6551732,68.432106
0.6065234,68.431496
0.46369317,64.48065
0.55087805,60.681236
0.58080816,58.095783
0.49745512,56.166462
0.46180058,46.74469
0.49118897,49.21409
0.45688936,44.981056
0.45304257,42.53424
0.39305753,40.989346
0.40245605,40.12931
0.39625815,40.0
0.36166233,40.0
0.3307646,40.0
0.15908553,40.0
0.21047436,40.0
0.20073211,40.0
0.005584871,40.691032
0.13771038,40.0
-0.042491157,41.32814
0.013144526,40.0
0.055683978,45.857235
0.09671434,47.482525
0.06532093,50.423103
0.17452042,52.254063
0.2754977,63.545662
0.3770003,62.668022
0.48794907,71.53028
0.5098292,70.40102
0.6355934,84.101715
0.7769523,85.280685
0.824976,92.8876
0.94291,97.39047
1.1020068,100.492645
1.1241646,104.40902
1.1565232,110.68988
1.1796066,114.78454
1.2823437,119.394875
1.3842793,120.606155
1.5293258,127.200836
1.33313,130.78532
1.5549381,133.20903
1.4129417,138.36697
1.4198538,136.42824
1.403124,137.00298
1.4284173,137.20853
1.3417444,137.59413
1.2944603,144.61887
1.3814374,138.53513
1.2899915,138.98964
1.2269666,135.10684
1.1838369,138.99495
1.2038178,134.2943
1.1634326,133.77661
1.1121273,128.72333
1.0349818,126.2949
1.0814457,124.06349
0.9868038,120.23814
0.97955143,121.66594
0.9964215,119.85183
0.96856487,114.74685
0.9251834,109.513176
0.8544429,111.40989
0.87860656,103.7735
0.92615676,98.94977
0.7859646,100.79522
0.86194545,96.75108
0.80389655,90.54784
0.85527426,90.13185
0.8045718,83.87861
0.7817978,85.26565
0.63590294,82.34301
0.5223579,83.29819
0.52967656,77.091225
0.4325534,72.43301
0.3922076,69.77791
0.47274697,68.20157
0.44926208,69.269104
0.3793567,59.5845
0.42734388,60.600582
0.35670328,54.279507
0.32097736,52.470634
0.28258207,53.23959
0.25838834,48.695503
0.30860195,43.45664
0.21246554,41.19534
0.3801753,42.433426
0.30145422,40.0
0.4012204,40.0
0.202743,40.0
0.19055122,40.0
0.12165488,40.0
0.167481,40.0
0.022693293,40.0
0.12930655,40.0
-0.08644036,40.0
0.023723438,40.0
0.035778154,40.119778
-0.012412449,44.365948
-0.022167685,48.384003
0.055452116,49.611946
0.049741257,54.001217
0.23154014,58.118404
0.25494048,63.59356
0.27327913,64.86842
0.52987033,69.45269
0.5307711,79.74752
0.63322,84.243904
0.78347015,87.30281
0.956608,92.489426
0.97104096,98.364876
1.014342,101.07459
1.1532855,108.964645
1.2770296,112.8645
1.2597997,115.13424
1.329063,125.79895
1.3770247,125.23372
1.3615514,127.08457
1.4236647,133.96568
1.2942759,134.64026
1.3772029,135.4887
1.5362074,137.82224
1.3804593,135.81401
1.386748,135.96283
1.3327723,142.60237
1.3220154,142.33195
1.2850136,139.85118
1.3688989,136.27309
1.2478966,135.3636
1.3029382,135.94548
1.2223853,131.63522
1.165402,128.14792
1.1391104,130.57394
1.0904466,125.80453
0.96779025,120.647415
1.1436139,123.28999
0.9818085,120.01007
1.1089045,112.22891
1.0040466,111.31607
0.94101524,110.18212
1.0420835,109.43914
1.0098265,99.796486
0.98051256,102.95331
1.0133473,97.86924
0.960381,95.182686
0.8815621,87.986435
0.8520759,87.27966
0.8622189,83.86928
0.7406863,83.431946
0.70442367,80.1975
0.7042656,76.93986
0.6267512,73.11226
0.561291,72.92252
0.49623153,66.24275
0.46583998,67.11583
0.5011591,61.456635
0.43977788,64.4772
0.45496765,61.82877
0.5745839,53.841732
0.4089167,51.348736
0.4664515,46.54446
0.3689718,49.356148
0.50694084,46.74722
0.4572351,42.83819
0.36747766,41.67915
0.40889704,40.0
0.4658615,40.0
0.41320655,40.0
0.295597,40.0
0.26139507,40.0
0.18060021,40.0
0.18483734,40.0
0.24187866,40.0
0.19472134,40.0
0.030489454,41.337845
0.18550381,41.44128
0.12963717,42.121227
0.2322145,48.759583
0.08681104,54.961754
0.28340918,54.90941
0.32947552,62.12448
0.55472314,64.67549
0.5870061,68.87498
0.6055755,77.99205
0.7929123,79.40662
1.0092164,90.78404
1.0125643,88.56813
1.1216384,97.61806
1.289192,103.204704
1.3222327,102.73804
1.3511083,111.46902
1.4382714,117.06849
1.4764234,121.57101
1.551844,119.5585
1.5657349,126.55554
1.5865227,134.7632
1.6370946,134.53905
1.5915023,135.03331
1.7095271,135.4461
1.7019379,140.60258
1.54086,139.16663
1.6423935,141.74481
1.5863034,141.99986
1.4861034,138.58337
1.5169373,137.09567
1.581684,137.26843
1.4849229,133.67213
1.4414351,134.83035
1.2441884,132.17346
1.3604388,128.90454
1.327447,130.74747
1.2923075,123.5478
1.2187577,120.9818
1.2031898,120.60668
1.2467997,112.45781
1.227378,112.63732
1.2853638,111.91614
1.2693753,107.87768
1.2103747,100.48297
1.1582363,98.739235
1.250366,95.75674
1.157646,93.26048
1.0472025,91.66506
1.129268,90.55016
1.0841472,91.288574
1.0196768,87.20286
0.94821805,80.21384
1.0724951,82.82081
0.8845553,75.89691
0.8873804,73.010056
0.7903334,69.991585
0.7649502,65.08
0.7075522,66.765305
0.6519203,56.542732
0.758335,57.183105
0.68777245,55.26766
0.80471253,55.26057
0.6357564,51.925922
0.75255746,45.416492
0.7128774,48.90396
0.7343224,41.929268
0.65130234,40.76067
0.72638017,40.0
0.80956984,41.248844
0.7104173,40.0
0.5590854,40.0
0.57095474,40.0
0.5736453,40.0
0.50368965,40.0
0.36189517,40.0
0.43337113,40.0
0.44658682,40.77289
0.3491739,45.009
0.36393398,43.654945
0.48028874,45.645454
0.46690518,49.573402
0.4102126,54.414528
0.68489933,60.598206
0.6612564,60.680172
0.87808853,68.89586
0.8799723,73.18088
1.0706402,77.26659
1.1522307,81.76386
1.3506899,91.43442
1.3834451,97.26928
1.5095305,100.5088
1.5419598,104.98978
1.651321,111.7745
1.6775537,113.86929
1.7558174,117.484795
1.805924,120.97798
1.8029094,129.55014
1.9015273,132.34016
1.9055215,134.2186
1.804256,136.13326
1.8769548,137.87877
1.8430104,139.41808
1.9177827,141.69043
1.8739014,139.401
1.8703748,138.61372
1.7676392,142.02351
1.9213098,136.723
1.7897658,133.92409
1.7632947,138.69873
1.754642,132.69885
1.7149193,131.43307
1.6373314,130.43318
1.5625038,125.37205
1.609729,124.10359
1.5581594,119.51287
1.4758407,119.187035
1.4466676,116.437004
1.4343548,114.451324
1.5155225,110.69384
1.3457685,104.68909
1.515222,107.54968
1.4951506,102.32852
1.54352,98.587006
1.4319894,95.46503
1.363135,92.61312
1.352104,89.466415
1.3331565,91.22801
1.3420538,87.95265
1.1470846,87.40694
1.2780131,79.62896
1.1261878,75.4831
1.1539627,74.96775
1.1604414,71.37626
1.0051084,67.245895
1.0166885,63.68396
0.8569144,62.751614
1.1014913,59.412376
0.9066864,55.560856
0.89271426,55.05962
0.9439661,51.821968
0.8745295,42.94866
0.9650384,43.933884
0.763827,44.068806
0.77053297,43.256233
0.9209816,40.331753
0.79676956,40.0
0.73342055,40.0
0.7480819,40.0
0.7807596,40.0
0.7642891,40.0
0.6272895,40.0
0.43301377,40.0
0.52417064,40.0
0.54877746,40.17133
0.642665,40.13789
0.6301915,44.551037
0.57419664,49.502773
0.569913,49.136436
0.70831144,55.67288
0.82467395,57.6124
0.87432367,64.58745
0.8645276,67.02767
0.9841505,72.832085
1.2749081,81.423294
1.2231656,79.960396
1.3924505,88.292816
1.4495302,91.46772
1.602652,102.15988
1.5979481,106.18367
1.737138,108.62956
1.7358415,112.110855
1.9479117,118.92368
1.8840365,121.28516
1.9373274,123.15677
1.9376245,127.04476
1.9711845,131.1347
1.951997,131.93756
1.9594461,134.82434
2.072081,136.44856
2.027923,140.77777
1.9738458,141.34993
1.9446388,139.6344
2.0315032,137.82895
1.7122988,135.94868
1.9401354,138.07466
1.7696896,136.3057
1.7164989,139.08444
1.7158271,132.5552
1.683918,133.1863
1.6466115,130.86461
1.6447744,127.88128
1.6325883,120.88379
1.6102219,123.976105
1.5700834,117.66263
1.5270768,115.54486
1.5410017,110.83285
1.4880058,113.00844
1.4647806,104.89263
1.4222347,102.73585
1.4419721,99.8642
1.3816935,95.323906
1.4304537,93.36409
1.3754593,94.747894
1.3310769,90.56211
1.3287411,88.17226
1.2646703,82.20721
1.1899209,81.33064
1.1681345,78.734505
1.0786064,70.4325
1.0359724,71.02352
1.0134003,65.705635
0.93155444,61.888374
0.9490726,61.45503
0.7565615,59.731636
0.85044754,57.57358
0.8923471,52.227
0.95148057,47.83145
0.8544851,47.328224
0.9130495,49.2133
0.80220294,48.16184
0.88244677,42.230427
0.81695956,40.0
0.8657804,40.0
0.8376003,40.0
0.8174326,40.0
0.63111484,40.0
0.6074858,40.0
0.66005254,40.0
0.46051425,40.0
0.48876926,40.0
0.48201895,40.0
0.5300405,40.0
0.487044,40.96905
0.47903278,45.115395
0.41641742,48.125675
0.59476376,53.34574
0.56188273,59.807407
0.7081255,63.375465
0.86459255,71.97314
0.8584329,70.9441
0.9423353,74.52282
1.044035,79.33094
1.1958283,86.749825
1.2264475,88.75046
1.3737966,96.22939
1.5595998,101.73203
1.6042567,109.06767
1.6129888,112.96351
1.6300788,115.58197
1.6364913,122.76786
1.6407872,124.34197
1.799966,125.081985
1.7865218,128.56529
1.746078,132.50957
1.7150072,138.76222
1.7507504,138.03755
1.7479056,139.00082
1.7622068,134.5194
1.7274005,137.44409
1.6550537,137.23375
1.7854799,142.38992
1.6897126,138.96727
1.5402962,135.2079
1.6612324,138.02661
1.6051309,134.89203
1.5050199,129.22003
1.3886123,128.27429
1.4490451,130.21596
1.3495767,124.65732
1.3221657,123.7068
1.2515686,123.24094
1.4395424,115.872314
1.2637864,114.799904
1.2944926,109.470955
1.2844925,104.12462
1.2775791,102.81876
1.277108,104.98845
1.1514022,103.43985
1.2219939,95.16938
1.1603054,91.40634
1.0855457,94.34035
1.1369466,85.41091
1.0345742,87.476
1.050897,81.656906
0.9286601,80.56397
0.9163366,74.7943
0.7822597,75.628494
0.78808933,69.70815
0.65809375,67.8219
0.7335183,66.709465
0.63619894,60.524853
0.593213,56.179913
0.6385692,54.487656
0.5046867,54.24636
0.57355917,48.849167
0.51968765,46.964695
0.57151914,43.020973
0.5880649,41.74006
0.5712795,41.18373
0.45559093,40.0
0.54764616,40.0
0.5174908,40.0
0.4856526,40.0
0.41820607,40.0
0.25222293,40.0
0.24864799,40.0
0.23133256,40.0
0.25060543,40.0
0.21789794,40.68497
0.16073136,47.364395
0.22296013,41.898914
0.15520774,51.271587
0.2734786,55.0225
0.3898547,52.76359
0.30289006,58.564663
0.47419292,66.83153
0.49176204,66.77376
0.7050368,72.10919
0.7577581,80.983665
0.850835,83.760765
0.9883826,86.60659
1.093489,92.48927
1.1685449,102.50353
1.1751888,104.851135
1.3528051,107.19166
1.3162478,112.11113
1.4108241,117.482635
1.5998415,123.474945
1.4439197,127.40266
1.5922072,128.57076
1.5233749,132.7575
1.4671963,141.4337
1.4661825,134.24124
1.464309,137.3573
1.3705261,138.97653
1.5327057,141.54361
1.4609774,134.7005
1.3560805,142.4339
1.4120784,136.20251
1.2773263,138.9231
1.2554206,133.83542
1.3056153,134.20361
1.376657,133.24875
1.2309201,124.55694
1.2540917,128.77469
1.1177473,120.816895
1.1113719,120.65082
1.0670948,121.00866
0.9802496,119.251945
1.105288,114.64144
1.0176866,111.06757
0.95510983,106.57841
0.9735917,102.20464
0.89406115,101.453964
1.0183895,100.76172
0.87670803,95.093765
0.8786708,95.20828
0.866954,90.43047
0.7867998,90.71077
0.8638249,88.90179
0.80998486,86.583595
0.6222117,77.10194
0.63523513,78.30728
0.5460798,71.87786
0.60437274,69.72098
0.57364064,70.5794
0.5324979,68.78218
0.38305664,65.7526
0.3612668,58.936295
0.4776876,56.356834
0.26998317,53.98558
0.38118285,50.746777
0.43485466,50.670654
0.31789133,44.471893
0.39826864,41.186737
0.4148873,43.410526
0.3308602,40.0
0.24594979,40.0
0.25760153,40.76899
0.2377854,40.0
0.19428584,40.0
0.12991637,40.0
0.1598371,40.0
-0.012970564,40.0
-0.0519863,40.0
-0.05073711,42.76751
0.034403812,44.865135
0.1146811,46.124176
-0.031431627,46.091778
0.037445355,51.993225
0.10133347,50.953392
0.1406677,59.773247
0.21876477,58.415714
0.3424113,69.14315
0.48474035,75.73013
0.5865664,77.773445
0.6491673,83.436844
0.7189078,86.127304
0.93088144,99.01252
1.1087171,101.88884
1.0042028,103.810036
1.0658753,113.768616
1.142707,110.77107
1.2535139,116.39642
1.2904181,119.42775
1.3132521,121.21108
1.4451339,130.16219
1.2631013,131.1024
1.3702346,133.54507
1.4323492,133.1138
1.3734208,140.72607
1.3617384,139.48312
1.3459802,142.10335
1.3754089,140.47615
1.3870448,138.56009
1.2647634,135.73749
1.1682882,136.37228
1.1505181,133.93726
1.167293,137.35356
1.1520411,132.75626
1.1294763,128.50052
1.0116819,129.26622
1.0822839,130.04716
1.0143032,122.50351
1.0300776,118.7666
0.9349436,121.92523
0.9387957,113.93339
0.9673434,112.14879
0.94322914,108.59748
0.9535487,103.80541
0.8555675,104.740166
0.9606807,99.402664
0.7804924,98.99567
0.7757925,97.488365
0.77486277,94.399284
0.745826,89.94753
0.74183285,88.87163
0.6446062,81.87193
0.6777886,82.17226
0.63424003,78.84713
0.5394509,74.97948
0.5378839,69.79875
0.4287807,65.670456
0.38980922,62.60841
0.4069898,63.530277
0.48657706,59.739746
0.3680665,57.761635
0.34414396,52.88648
0.32385853,54.73029
0.28902555,48.98949
0.34871218,43.168587
0.3920781,43.418465
0.35634732,41.70533
0.2105702,41.35635
0.25167704,40.0
0.31943467,40.0
0.19208528,40.0
0.1857423,40.0
0.13036588,40.0
0.13666691,40.0
0.15174177,40.0
-0.020302398,40.0
0.07276487,40.0
-0.019363713,40.048504
-0.021262262,40.0
0.10579671,43.504772
0.06048766,49.5448
-0.007231563,51.908257
0.18116063,58.498898
0.33625928,60.27193
0.39383143,66.18803
0.49651593,69.64273
0.66213685,76.244865
0.7736113,80.69155
0.8535479,86.05442
0.9360101,99.47902
1.0468725,97.28227
1.0890003,100.657814
1.1328243,109.71433
1.3027529,110.02245
1.3104033,113.28587
1.4007207,120.85561
1.47712,125.88705
1.515621,127.25492
1.4375864,132.93724
1.4603133,132.36179
1.4601802,133.16782
1.4415185,141.82735
1.5804898,137.7109
1.3915124,135.16635
1.6039544,140.86667
1.4787025,143.6844
1.3892332,140.30203
1.4455354,140.28325
1.3334703,136.71883
1.2889452,135.16507
1.3477957,128.89087
1.152335,130.91129
1.4066607,129.62486
1.2437896,124.45256
1.1796179,128.93018
1.1347167,118.530914
1.1127181,119.49756
1.1088015,116.25873
1.1439316,115.638916
1.1085303,107.69397
1.0550314,107.69409
1.0635968,105.17967
1.109789,99.51243
0.9411598,98.412544
0.97850394,92.98183
0.95817703,92.108574
1.0161586,87.99295
0.88700885,86.58469
0.8763436,82.273636
0.9129884,80.820595
0.9253554,77.86801
0.7270695,74.043564
0.6508215,75.88246
0.7152889,68.961426
0.6028149,67.52082
0.6390196,68.443565
0.697384,63.016815
0.5528346,56.98822
0.5542119,51.41458
0.52226716,51.786354
0.5395976,50.424664
0.7311345,43.61837
0.6036655,45.23333
0.64101285,42.0065
0.5887406,43.029934
0.50827205,42.80107
0.45821074,40.0
0.48389322,40.421177
0.5136472,40.0
0.45344302,40.0
0.40249518,40.0
0.39478594,40.0
0.3472288,40.0
0.28594142,40.0
0.2379487,40.0
0.23993073,43.254707
0.36227927,43.710114
0.36619183,45.868515
0.33796984,47.323345
0.36792946,54.18838
0.58997154,59.381382
0.555565,66.2358
0.7986997,72.182785
0.77584547,75.81626
0.90246385,83.42956
1.0341257,83.92915
1.2024764,89.17416
1.3220422,98.097404
1.3451676,100.714676
1.4967953,106.985054
1.5022753,113.17139
1.635512,116.52088
1.5960608,121.68924
1.6195084,121.6858
1.6882553,126.40081
1.6780372,133.2801
1.7895272,133.73535
1.6210597,132.55226
1.7509755,135.5066
1.7592617,137.58496
1.925707,138.51158
1.7194161,140.66269
1.7818071,143.85762
1.7889277,140.18506
1.7033777,143.35968
1.6732484,137.64694
1.6390846,137.83174
1.6976123,135.15198
1.588309,131.25822
1.5796124,128.16054
1.4567106,131.20445
1.3832812,126.28556
1.513111,122.99138
1.4107988,121.78499
1.3966371,116.447426
1.3094403,113.46442
1.3407389,115.61267
1.2362378,109.12875
1.3465352,104.917725
1.2978133,102.631584
1.3285764,106.14045
1.29063,98.83488
1.2430935,92.4949
1.412545,90.003555
1.1988142,88.46288
1.243006,82.01401
1.261682,81.19245
1.0053658,80.81268
1.1169215,76.98185
1.0408283,71.706764
1.0114818,68.942604
0.90291613,66.177376
0.8669823,63.38569
0.9373183,62.200325
0.9693946,60.43271
0.91186976,54.987633
0.79813486,51.184868
0.78022945,52.892048
0.82955825,48.521908
0.82174253,48.85717
0.8484819,48.973022
0.83271,45.002586
0.8394108,40.0
0.83207864,40.0
0.8332696,40.0
0.7361789,40.0
0.7085736,40.0
0.6845678,40.0
0.60508054,40.0
0.6027319,40.292698
0.66869825,40.0
0.41214272,40.0
0.49051955,41.423603
0.4916454,40.97721
0.54108363,47.224564
0.6409476,49.206165
0.6665596,56.27001
0.68187404,59.304363
0.8367003,61.472954
0.8880089,66.64761
0.9724592,70.12865
1.0749975,80.48939
1.2775311,85.90235
1.3485388,86.77474
1.4441289,93.74185
1.4339622,96.048706
1.550835,104.61891
1.7851013,107.10212
1.6553917,114.01122
1.8225456,118.52659
1.7954059,123.75632
1.9235847,124.73742
1.9411944,131.84715
1.9657134,129.47766
2.0051608,133.78717
1.9909627,135.2597
1.9876208,142.4243
1.9895306,139.26096
2.0005713,139.24068
1.8873217,138.41385
1.8617017,137.28036
1.7980869,141.66847
1.9909151,137.42586
1.7771521,141.49104
1.8514023,140.55144
1.8220432,129.3376
1.6285105,132.01251
1.6467547,130.48703
1.6815952,124.00592
1.6856176,122.600464
1.6320167,120.730194
1.5656118,119.158005
1.6006749,114.25201
1.493634,109.7626
1.5992004,108.91927
1.5673989,102.76083
1.461594,102.2835
1.535799,101.92754
1.4849502,93.01339
1.4303875,94.64661
1.4833237,87.0059
1.4286536,88.01839
1.2867916,86.49844
1.3365322,84.28402
1.244988,82.99005
1.2026578,81.06953
1.1376495,71.79349
1.0575147,74.01473
1.0137248,65.13645
0.9512871,65.76491
1.0205023,65.3821
0.8955175,60.856598
0.8617731,59.75042
0.83224064,59.37459
0.8757089,49.212677
0.8797489,47.28549
0.9158803,46.738346
0.98946726,43.51129
0.7900937,44.508057
0.9462162,41.504513
0.74845177,40.0
0.8318977,40.0
0.7586411,40.0
0.81433225,40.0
0.6986148,40.0
0.7461183,40.0
0.55636585,40.0
0.573052,40.679096
0.5228967,40.0
0.53163165,42.223583
0.53932005,44.14065
0.5545157,44.11658
0.5062842,49.458965
0.68499494,53.8445
0.71558356,59.33409
0.7531498,64.576584
0.8520058,66.61907
1.0174029,71.5306
1.091481,76.68181
1.0813687,83.27453
1.3313417,90.51911
1.5158479,94.21792
1.4611843,95.98791
1.4006592,102.07583
1.6006997,106.180954
1.8662515,112.83122
1.7218273,118.062126
1.7121491,120.098366
1.8015844,124.58996
1.8371656,128.47047
1.8148075,132.18208
1.8920513,136.25453
1.9032028,135.95502
1.8580316,133.94704
1.8660097,140.29947
1.798184,143.07312
1.949477,140.19188
1.8802702,137.55307
1.83532,139.09044
1.8137434,135.51662
1.7450647,134.93115
1.7242595,138.94196
1.6629796,137.70946
1.7075292,133.6456
1.5928993,126.78931
1.5378561,128.48756
1.5613369,127.764244
1.3918232,116.80353
1.54963,117.36514
1.508831,117.98276
1.3983405,113.02018
1.4151993,106.87454
1.4352441,106.416306
1.3229901,104.72515
1.3300849,101.56895
1.3489993,99.96649
1.3770119,98.51971
1.2244034,91.49538
1.155291,90.06443
1.206403,86.48743
1.0961994,83.232506
1.166792,81.401184
1.0944775,78.818596
1.0595568,75.96516
0.94954216,75.78014
0.9706328,67.30766
0.85029304,66.594215
0.7655304,65.389534
0.710082,60.826775
0.7719408,57.38928
0.71668005,53.63733
0.70630044,52.84028
0.7862584,51.0169
0.7405545,46.671783
0.763702,44.743214
0.77092123,40.221855
0.7054296,43.033043
0.69970506,40.0
0.58132404,41.355476
0.5093767,40.0
0.6166763,40.0
0.5401523,40.0
0.50677264,40.0
0.46045896,40.0
0.35228425,40.0
0.35196397,40.0
0.32323194,40.0
0.14758751,41.9293
0.2545431,46.529655
0.38532686,45.618507
0.44155604,55.03542
0.39868313,53.865204
0.56205535,59.40521
0.64269227,64.78639
0.7967343,70.32279
0.8266092,76.760925
0.95964396,80.1639
0.96400654,86.45901
1.1916376,90.869804
1.2417594,93.3523
1.3060511,101.22756
1.3503157,105.6811
1.3688929,109.383514
1.604173,117.30372
1.5807848,120.011284
1.5661765,119.3883
1.7114532,127.84468
1.6107574,132.10713
1.7576586,135.58582
1.6589553,135.4105
1.7026666,136.0422
1.6027044,137.11494
1.7083719,143.26689
1.6252602,140.28008
1.6640058,138.13658
1.5711118,137.43327
1.4345301,136.78214
1.468967,137.69131
1.474975,136.78308
1.4531196,136.56326
1.3585858,133.13588
1.3619661,132.15424
1.3222586,130.75496
1.3906288,121.84637
1.2458916,123.28085
1.0950154,117.664474
1.0744066,119.211845
1.1402113,111.330025
1.1596999,113.21295
1.0642316,110.55504
1.1064363,104.85015
1.096208,104.60144
1.0459625,97.64683
1.14828,97.60994
0.9963779,94.04996
0.9332991,86.90082
0.81342506,87.708244
0.9728509,84.4754
0.8618315,81.11106
0.8126931,78.23319
0.69034135,74.35586
0.6782487,78.901825
0.6725323,71.35808
0.6134594,68.65804
0.5228974,64.897484
0.534938,60.329155
0.39361125,59.594532
0.47458488,60.871723
0.45549712,52.672874
0.43656942,55.9049
0.43132848,47.685623
0.46354643,44.42084
0.42996728,41.593964
0.36859447,40.48878
0.31686252,40.0
0.38905802,40.0
0.21748409,40.0
0.32226187,40.0
0.1147003,40.0
0.2566444,40.0
0.09087513,40.0
0.12705724,40.0
0.059909455,40.0
0.0058060116,40.0
-0.002007287,40.0
0.013631448,46.529507
-0.0050787325,48.06238
0.12545043,52.981888
0.1382428,56.944492
0.2671285,59.789112
0.34673238,63.99659
0.42613927,69.89247
0.52775306,75.29486
0.5965701,76.444336
0.79133016,83.484795
0.8666171,86.88088
0.9440822,94.61921
1.0362791,96.05497
1.0352508,105.60818
1.1421845,108.265366
1.2295676,113.7301
1.2618653,116.13319
1.3531712,118.91519
1.3974546,126.14518
1.2942982,129.94017
1.3185334,136.43497
1.3842824,136.24959
1.3841808,135.44023
1.4603007,137.77655
1.4878544,140.80692
1.2740378,140.7772
1.4007063,142.2387
1.3393751,138.8975
1.3107935,139.61067
1.2546587,139.42921
1.3584722,136.866
1.1924316,134.11261
1.0962536,134.34984
1.1512707,130.41324
1.0055804,134.56049
1.0043813,124.17581
0.97614634,119.824715
0.97718596,119.89859
0.93169844,118.6646
0.9691243,116.71261
0.90996724,110.606224
0.9904428,107.06111
0.9733402,110.512726
0.9848344,96.57254
0.997353,101.5093
0.7221966,93.14493
0.8821009,94.66043
0.72188306,92.10554
0.66821027,89.4057
0.78246605,86.961586
0.6796258,84.506096
0.6205494,79.509895
0.561992,77.6363
0.5215429,71.130424
0.48711613,73.01919
0.4021311,74.9347
0.4018144,68.62089
0.30867043,63.337875
0.3898788,59.327675
0.4333266,60.514256
0.20253299,55.895912
0.34988225,48.73361
0.44771835,48.0771
0.31022388,44.775272
0.29112765,40.0
0.24300303,44.533237
0.3761024,40.0
0.28861222,40.0
0.1148799,40.0
0.26146898,40.0
0.31280118,40.0
0.060912397,40.0
0.07968643,40.0
-0.0051708734,40.0
-0.061589118,40.0
-0.09714468,40.0
0.008866667,40.0
-0.09098304,44.010735
-0.07522287,45.175804
0.01528799,47.146
-0.019044166,54.31082
0.15000282,55.29361
0.29924026,63.345135
0.3753823,63.895927
0.49190116,71.45235
0.56497085,74.88823
0.6013922,82.28382
0.69670844,85.61128
0.82256424,93.71417
0.9560192,94.912
1.0622673,104.249435
1.1921966,106.22
1.2019525,111.72923
1.1988866,117.703224
1.3904984,120.431
1.2861931,123.54317
1.3906358,127.63968
1.4365016,128.63814
1.4063748,137.7525
1.385878,133.05183
1.3636703,139.74545
1.2669353,136.98955
1.42565,140.41531
1.4032406,142.31085
1.3981013,138.51917
1.3612214,139.6707
1.3880128,138.5812
1.4062107,137.1272
1.2762707,130.66333
1.2292072,133.85838
1.0839478,128.08783
1.2660792,128.97383
1.1386598,125.52064
1.0738467,123.5746
1.1298668,117.37289
1.0751797,117.08631
0.9949243,119.06373
1.0367975,111.55132
1.0021667,110.84348
1.0022663,106.27335
0.90084857,102.46656
0.932152,100.710915
0.9561162,99.733185
0.81023604,93.23969
0.9747799,93.8793
0.8144174,90.955536
0.76452386,82.26358
0.7316581,83.7125
0.88368577,82.78283
0.6872578,75.401215
0.7860476,78.43594
0.5763404,68.14076
0.5039756,66.16687
0.54649436,67.08684
0.44761518,65.60903
0.54967344,60.89093
0.5532655,60.134796
0.46206245,53.188183
0.4687578,51.261547
0.36571306,51.41686
0.36485437,49.235176
0.48270124,42.688763
0.47347713,40.0
0.37886745,40.0
0.41498986,40.0
0.47284558,40.0
0.32865304,40.0
0.25052473,40.0
0.35323766,40.0
0.26953062,40.0
0.1859432,40.0
0.08101565,40.0
0.08127612,40.0
0.14950792,40.92718
0.11842202,41.36761
0.095941596,42.665707
0.11940734,46.44693
0.22970955,50.81721
0.3434305,55.82265
0.3207993,59.155457
0.39450464,65.42911
0.5983792,70.15889
0.6451252,78.00567
0.76272964,83.011444
0.99524534,91.2129
1.0337304,93.14643
1.1962177,97.708694
1.1724693,103.96878
1.3061783,108.02449
1.4373807,113.217445
1.4994581,114.49144
1.5013644,120.072914
1.5220335,123.83103
1.4976074,126.14352
1.5262116,127.47449
1.608228,132.64494
1.6017467,136.00153
1.6003716,136.93451
1.5433154,139.28831
1.6225609,138.01202
1.5845047,143.1765
1.6533633,142.77454
1.5851886,139.72731
1.6254468,140.53894
1.482419,138.25136
1.415481,139.96603
1.4665215,136.14285
1.4187953,133.6734
1.3999727,127.20262
1.3170253,128.42854
1.4541649,127.34783
1.3745714,121.66659
1.2408829,122.61024
1.2462834,119.38947
1.2915409,114.07775
1.17085,109.36366
1.212929,108.18976
1.1718796,104.88838
1.2055364,103.19327
1.2743694,101.108696
1.2253227,94.62813
1.0473168,95.76968
1.1508911,87.12424
1.0914207,91.067924
0.996249,89.30702
0.94573,85.38419
1.0768664,81.108406
0.8478908,77.48493
0.9467927,74.37748
0.857008,70.552795
0.7572978,67.92874
0.76826674,65.31517
0.86193234,58.754795
0.7070271,57.509586
0.73145807,59.130314
0.7498718,53.92537
0.72516006,48.006
0.68290704,45.967003
0.88985085,45.30585
0.67740095,42.068935
0.6951857,42.947388
0.67655754,40.074646
0.70216215,40.0
0.7134217,40.0
0.6530633,40.0
0.6667131,40.0
0.5330058,40.0
0.54159397,40.0
0.50783813,40.0
0.33464664,40.0
0.4513702,40.536655
0.34824738,42.785473
0.47608253,47.127632
0.39832392,48.037376
0.4370928,52.040546
0.48191658,54.8112
0.68817276,59.039116
0.7633214,63.709778
0.89380705,69.166824
0.89687324,74.971504
1.0509331,78.0639
1.2368195,81.27752
1.2742676,90.42737
1.3367082,94.63107
1.4399394,97.0112
1.5556258,105.6709
1.6275783,106.16315
1.6306772,117.37287
1.8315941,120.70238
1.8909544,117.759796
1.7696826,126.31485
1.8703066,129.26875
1.8803269,130.45695
1.8746134,132.55132
1.9176878,142.33081
1.9130578,135.54414
1.9205015,139.7956
1.8171065,138.98631
1.8217627,141.69669
1.8650907,140.22354
1.7784998,137.34329
1.7153797,137.82791
1.7974937,138.03212
1.7853272,135.93777
1.7877952,134.71616
1.6167282,132.49847
1.6151062,126.87593
1.5566483,126.589264
1.5709139,123.034454
1.5642369,123.3389
1.4498814,118.86197
1.4943725,117.04616
1.5009452,110.76328
1.5571371,108.50639
1.4613869,107.77346
1.4236032,102.90652
1.4329884,103.84228
1.4262391,95.72787
1.3841466,91.15472
1.3126162,92.97852
1.3273747,89.67487
1.3737552,85.37064
1.3377528,82.65906
1.2609038,79.98257
1.1169215,78.269905
1.2564348,78.180916
1.0033455,74.56394
0.95325446,67.21852
0.9628292,64.306755
0.9486216,59.954178
0.85279465,61.230164
0.91300565,54.71154
0.84394246,54.500877
0.891097,53.544373
0.94999796,44.6982
0.87856454,47.73792
0.7515905,44.94353
0.9864391,40.0
0.93210924,40.0
0.9140836,40.0
0.85184646,40.0
0.7577264,40.0
0.70591795,40.0
0.6704961,40.0
0.6179229,40.0
0.6654257,40.0
0.6554687,40.0
0.49387428,43.23716
0.6034086,40.0
0.54682994,40.725517
0.557185,43.549465
0.54757535,46.502262
0.69352406,55.658333
0.7556851,54.80755
0.7861917,57.775715
0.9630758,67.28465
1.0400438,70.47646
1.0806727,73.02349
1.283718,80.57795
1.2875618,88.446815
1.5081093,92.61352
1.4946086,100.01896
1.7304027,107.67892
1.6942204,109.48363
1.6775855,110.94917
1.8232881,119.010605
1.8303206,122.15688
1.8941473,129.8185
1.9622023,131.09525
1.8889222,135.69716
2.0001974,133.86816
1.8760319,133.47354
2.0018866,135.428
1.8969586,138.84865
1.8720754,142.12125
1.8972595,138.30666
1.8281428,142.73499
1.8945262,140.12787
1.7945902,138.84958
1.8715798,137.97417
1.7680318,138.24886
1.6464502,134.87538
1.7850955,132.64609
1.6105632,129.4385
1.6434762,126.76768
1.5499899,124.86624
1.5241517,119.277695
1.4924496,119.94045
1.5814439,118.64025
1.4991091,110.4663
1.4925334,105.50512
1.5006782,106.02583
1.5141972,101.63487
1.3693737,101.766846
1.3894097,98.19587
1.4194063,95.78945
1.2136998,92.73823
1.3742537,87.62924
1.2905691,89.53912
1.191941,87.10963
1.3071163,80.05524
1.0644234,79.576385
1.1806027,73.19176
0.86236805,75.63388
0.89480996,66.85877
0.9924843,66.33765
0.94224226,62.51409
0.9695675,61.223923
0.87921757,58.161217
0.9127161,51.74618
0.8853806,48.967922
0.798069,48.75925
0.7912814,45.697594
0.8016764,45.186302
0.8034732,40.0
0.82066774,43.772957
0.75816613,41.555218
0.82737756,40.0
0.7316904,40.0
0.65130764,40.0
0.60308987,40.0
0.5379587,40.0
0.5127562,40.0
0.4426991,40.0
0.47797084,40.0
0.57649446,40.43617
0.4095714,42.38162
0.5216991,46.550785
0.4067699,50.883022
0.5009952,51.498646
0.54245484,58.3863
0.5543304,61.544403
0.8069853,62.646137
0.8408741,68.0106
0.9645685,73.000496
1.0518874,82.31086
1.1131591,81.04708
1.2318225,89.8299
1.302645,92.80373
1.448873,105.72665
1.481153,105.07378
1.4659845,109.55471
1.7065557,117.03751
1.6336538,120.12983
1.7269725,123.79806
1.7685088,125.92873
1.7625546,128.97961
1.7362483,135.67471
1.81397,136.35571
1.8214643,139.6736
1.8684667,140.06412
1.704086,140.05519
1.7018584,139.40074
1.7205992,137.6179
1.6116364,142.72221
1.5117383,139.10648
1.6717104,142.6258
1.5052735,137.4831
1.527838,133.81119
1.4969251,133.868
1.5359583,124.475266
1.3572946,124.334274
1.3002998,125.12154
1.2715771,120.7277
1.3523719,121.219444
1.3275123,117.0928
1.2439255,113.31008
1.1364172,110.016556
1.2325981,112.737114
1.2961524,105.957184
1.1177632,106.55698
1.21549,99.65991
1.2109292,99.07547
1.0842575,97.61043
1.1443237,90.17704
1.0824242,88.24686
0.92894703,82.29249
1.0123845,80.90621
0.98235226,80.64532
0.8447009,77.57772
0.77367723,72.968414
0.79555565,66.914116
0.6992228,64.90885
0.6752528,62.935795
0.6789994,63.458637
0.5418689,57.366413
0.6619028,52.612293
0.6873571,54.85035
0.56698656,52.44316
0.4995464,47.561283
0.5780898,46.411556
0.5418811,48.39102
0.5792094,40.0
0.54213244,40.0
0.54664207,40.0
0.4525605,40.0
0.44165176,40.0
0.4001737,40.0
0.35113364,40.0
0.2539374,40.0
0.1804749,40.0
0.17856891,40.0
0.12958366,40.203636
0.12616001,40.0
0.1689978,46.398983
0.10044346,44.49445
0.20535953,50.88827
0.33792588,54.777782
0.41794115,60.761143
0.361838,64.260666
0.52742434,66.10313
0.6479348,72.699104
0.62745893,76.39522
0.83015853,86.15791
0.86332417,86.830986
1.0887341,97.31777
1.1902876,101.889046
1.0961533,103.75797
1.2945535,109.07349
1.4709455,110.60726
1.3725224,118.20211
1.476854,119.68896
1.3822082,124.81993
1.4746968,132.85515
1.4553964,130.47713
1.558081,135.78047
1.4094632,139.2556
1.4377297,138.63931
1.4982785,140.7076
1.415162,138.05896
1.3911905,140.06865
1.3752909,140.83467
1.3672668,138.90443
1.3502369,139.99796
1.3374449,138.27898
1.2072198,134.66048
1.2069687,135.15149
1.1082435,128.89954
1.0110484,128.35342
1.1933467,126.216286
1.0354697,122.59643
1.0338408,120.97528
1.1114007,121.13523
1.0420088,115.66763
0.9923781,113.29298
0.9838802,108.05708
0.95604104,108.10572
0.92983454,101.879776
0.8656632,100.19107
0.8160212,96.49953
0.96172833,92.06486
0.9486176,93.711815
0.77534974,90.98185
0.7623789,87.393234
0.58548015,79.748764
0.6913844,82.426384
0.6231311,76.49467
0.6528257,72.664055
0.5366089,72.67725
0.5422019,64.75197
0.345985,65.163956
0.44998565,63.768276
0.30309692,60.746155
0.35943332,58.462975
0.33199757,49.16962
0.26360297,50.375072
0.49134758,46.807335
0.37780327,43.69884
0.3364105,44.719986
0.39105406,41.59491
0.28289264,42.352337
0.26690543,40.0
0.26808262,40.0
0.17571059,42.44951
0.16135916,40.0
0.16843034,40.0
0.13872655,40.0
0.018681794,40.0
-0.05342499,40.0
-0.086173974,40.0
-0.050924495,42.171913
0.03474552,41.80167
-0.00839431,45.555656
0.09070058,46.149338
0.19020326,54.25653
0.12198958,53.68218
0.19179983,65.63104
0.33479878,68.155815
0.3714587,67.61908
0.55740553,75.46581
0.7127108,79.924126
0.6585038,90.35539
0.8832231,95.01765
0.9571731,104.05605
1.1303978,101.43699
1.0676901,110.14253
1.2329775,114.32652
1.2576115,121.21599
1.2870469,125.797356
1.2675989,124.03185
1.2807243,129.63115
1.34131,133.18932
1.3215275,137.25308
1.3583158,137.37651
1.3322116,137.43259
1.3989655,139.55777
1.3271261,137.9167
1.4262058,136.93181
1.3974348,140.44948
1.3672594,138.85478
1.1494263,137.96765
1.2509389,140.7366
1.2330551,135.87807
1.1255708,135.41023
1.1005691,133.50531
1.0973414,130.34763
1.0296043,126.057816
0.9936215,122.701744
0.98568165,118.86931
0.9631909,119.1831
0.88831127,119.61266
0.8825713,113.11646
1.0471933,110.12963
0.88091296,109.34161
0.88804257,103.7922
0.8396401,101.92654
0.82361364,101.17871
0.9147465,93.91844
0.8691221,89.926216
0.7586934,89.452934
0.817907,88.036835
0.6984456,81.32362
0.74811804,82.61603
0.72023743,79.48555
0.60232985,75.78176
0.36440045,73.335464
0.4471389,68.557434
0.578945,66.10343
0.45608002,63.638485
0.53711957,58.411846
0.44193766,56.597183
0.34509358,52.92955
0.40929684,51.559895
0.38311484,53.378357
0.45366824,44.86328
0.33490312,46.38686
0.41323054,42.771168
0.27228633,43.724194
0.39395672,40.988014
0.3752938,40.0
0.19796859,40.0
0.18667804,40.0
0.20194763,40.0
0.19082293,40.0
0.111619905,40.0
0.09467224,40.0
0.01015184,40.0
-0.04465872,42.05024
-0.010527839,44.41357
0.07517977,48.140038
0.13675636,45.61381
0.15451662,47.980118
0.15907569,58.007042
0.32236817,60.563427
0.33942214,65.01244
0.49950027,70.54593
0.5437858,73.253876
0.71455723,84.17943
0.8644001,88.67881
1.0181539,85.87472
0.95621675,97.35764
1.0080495,103.90249
1.1533403,109.20931
1.246645,109.78606
1.2810565,117.31281
1.4345268,118.271545
1.3904134,126.61511
1.5465444,125.67516
1.4650061,130.67403
1.4993771,134.0005
1.3735524,134.8684
1.6006613,138.16356
1.4617527,140.41568
1.3910841,141.68477
1.5929079,141.58337
1.5312281,139.05904
1.477327,140.85153
1.3974392,138.87369
1.3021104,141.76707
1.3035648,136.08115
1.3797854,134.70856
1.3467962,133.26
1.3033181,131.50407
1.2083471,125.9896
1.1994293,127.67722
1.2234522,122.090034
1.1875396,121.39816
1.1388093,115.33715
1.2128923,113.45355
1.1733221,112.293365
1.117392,112.61295
1.1735306,109.188805
1.0461698,104.47921
1.0995404,100.118286
1.1049266,97.758606
1.0834812,93.07751
1.0529569,92.92207
0.9595236,89.32077
0.9684798,82.959625
0.8225277,77.943695
0.8784167,74.81562
0.86225444,74.20419
0.7072917,73.63621
0.6269392,71.2509
0.7059874,67.35014
0.55686253,66.726776
0.5462854,60.735268
0.7232892,56.529938
0.65647423,62.930283
0.6382494,52.29981
0.6214131,49.51229
0.6376638,48.43253
0.58781147,44.848747
0.65763384,40.0
0.58115786,40.5909
0.599243,42.95751
0.48776183,40.0
0.50131714,40.0
0.50817764,40.0
0.43775275,40.0
0.4926848,40.0
0.39992887,40.0
0.30262038,40.0
0.2695142,40.094677
0.42597118,40.0
0.26538137,44.816246
0.28225031,40.0
0.34170038,51.208286
0.32096383,55.11102
0.39818695,50.777916
0.49443054,61.131294
0.45724502,64.05536
0.70996267,70.537224
0.9014412,70.89808
0.95024306,75.90437
1.0597299,85.07142
1.1667113,94.18028
1.3267882,95.94766
1.4204735,103.66341
1.542338,109.10162
1.5527966,107.2437
1.4935505,116.80608
1.61394,118.673775
1.6009599,123.71372
1.7101978,126.26559
1.7322526,133.63536
1.7828412,132.67137
1.9322014,136.23056
1.8393105,139.70972
1.7815953,139.53769
1.7118093,140.75336
1.7141829,139.21098
1.6793294,139.11308
1.7700931,136.99506
1.8020456,136.58089
1.7603343,140.56139
1.662471,135.3014
1.6528702,132.77274
1.6142176,135.63913
1.5529836,137.4242
1.5684167,131.3693
1.4493581,125.28677
1.3530296,122.27224
1.4226717,120.454834
1.406862,115.13588
1.4911163,117.869934
1.3753504,111.98888
1.3972191,108.21751
1.3752909,108.072334
1.4017904,106.51268
1.4092103,101.62368
1.3282243,95.050804
1.3338399,92.68795
1.2566164,92.28168
1.2541766,91.25715
1.2482157,82.16627
1.2152011,81.29773
1.0790367,79.31684
1.1215453,77.83394
1.012907,72.65879
0.96235245,75.73973
0.9683551,68.43101
0.92286247,67.262
0.8867888,61.79054
0.8704324,60.938812
0.84878665,59.300125
0.79544234,54.118797
0.8626066,48.008495
0.8238717,46.739204
0.8890869,42.60237
0.9037926,44.70268
0.78316385,45.291008
0.801422,40.44403
0.75928843,40.0
0.78051597,40.898434
0.7702416,40.0
0.6897098,40.0
0.7302686,40.0
0.7089975,40.0
0.7232663,40.0
0.53894734,40.0
0.5147907,40.0
0.52940005,40.859978
0.551094,44.158928
0.55325323,46.916553
0.50430477,53.851246
0.61339843,55.29847
0.67534447,60.10966
0.8739052,62.92068
0.881175,65.27149
1.073533,73.16837
1.0993156,75.41635
1.2181159,84.354004
1.3057516,91.74334
1.3540806,95.15777
1.5040884,95.62025
1.6813725,104.71917
1.7670327,110.6012
1.7306666,113.52368
1.8787751,121.772675
1.7847301,119.9722
1.9644803,125.37016
1.9440804,133.92798
1.9420446,132.5354
1.8840753,138.72975
1.9031013,140.68257
1.9648498,138.24011
1.9874228,143.2347
1.9306234,140.25208
1.9305432,140.93796
1.9296495,143.11072
1.8508037,139.12712
1.7694054,138.84863
1.9066073,140.92839
1.7347465,134.08868
1.7844374,133.08093
1.7623632,131.58656
1.7098186,131.81862
1.6412317,124.59158
1.5875841,124.92902
1.5490447,119.24149
1.5636045,119.32914
1.6438731,116.33121
1.36354,113.71254
1.5636859,105.52081
1.6546607,105.94721
1.4503644,102.97955
1.5285635,103.324745
1.4296516,94.18044
1.3120455,94.81346
1.3687581,94.5749
1.4417764,87.86445
1.2562407,85.26504
1.2060124,82.477425
1.3562939,77.49757
1.1781365,80.56346
1.1389737,73.109856
1.0824033,68.497635
1.0232893,67.08763
0.9348961,63.730373
0.9655741,65.843956
0.9064063,63.24479
0.9589343,54.65865
0.8503482,54.526367
0.89614296,50.098877
0.9047191,51.150047
0.84940404,50.04567
0.8891423,48.18124
0.8764868,44.658886
0.81496847,40.0
0.83812094,40.0
0.87845325,40.0
0.652984,40.0
0.78665376,40.0
0.72310656,40.0
0.6591308,40.0
0.63765436,40.0
0.5724269,40.0
0.55386406,40.0
0.5729195,42.898857
0.5198472,40.0
0.5289611,40.209072
0.5008277,54.191174
0.70941126,52.948605
0.6301731,58.44788
0.7726623,61.97933
0.8187122,67.36123
1.0028794,69.23275
1.0801457,75.514854
1.2185913,85.53818
1.3068502,88.61135
1.3650519,93.29455
1.4599082,92.614655
1.5964967,103.11401
1.6605248,108.70092
1.7177035,114.278625
1.8243711,120.203026
1.8417513,119.98893
1.7820822,124.82508
1.8178037,130.29283
1.8381032,132.04008
1.8350369,135.77022
1.8367656,134.78947
1.7999017,138.58
1.8877168,136.78967
1.8291744,139.72668
1.8052063,141.16638
1.8296787,138.84251
1.7711929,142.19897
1.7249001,138.22194
1.6954242,132.2242
1.6982038,137.37
1.6170628,139.011
1.6122692,133.06432
1.605043,125.61216
1.4817485,128.6153
1.4156865,125.25116
1.468774,121.59693
1.4238032,120.68156
1.4196392,116.47207
1.3877563,114.055244
1.3581784,113.12747
1.310378,108.23293
1.3708211,108.068375
1.3388755,97.59835
1.3448933,97.84089
1.2953362,97.49149
1.2797482,91.49448
1.2220788,91.88732
1.1996605,86.025116
1.1008495,84.56563
1.11194,81.58196
0.96777505,78.81857
0.8833591,76.77174
0.85328954,75.20872
0.84028053,68.792564
0.8010584,68.10947
0.8316253,65.10495
0.84906167,59.300255
0.7287517,56.677475
0.7222403,55.99294
0.7546044,52.817635
0.7996205,50.61986
0.75084,45.421234
0.7244321,42.863438
0.68255615,44.253433
0.7496261,40.0
0.6158838,41.572872
0.6422104,40.0
0.57159466,40.0
0.54857063,40.0
0.5478929,40.0
0.40862072,40.0
0.35826585,40.0
0.3866831,40.0
0.3621764,40.622223
0.33827478,40.75744
0.35643783,40.0
0.27642626,44.446835
0.29701766,47.09752
0.41721132,47.424126
0.3334357,58.026047
0.41388008,60.758568
0.5191057,63.61895
0.7892262,68.123955
0.6638378,73.97571
0.79488206,80.65949
0.95979387,84.8264
0.96139175,91.126465
1.2067786,99.05917
1.2877368,98.523445
1.3450513,105.96616
1.4282781,107.83361
1.4606451,118.44257
1.5292269,117.66613
1.6093731,125.21041
1.6152629,129.52228
1.6547773,125.41251
1.5127987,135.23486
1.6665226,135.55536
1.5765781,138.68694
1.6235886,142.1508
1.6211883,143.9392
1.6365873,138.38835
1.5656916,142.0616
1.545169,140.40298
1.4237918,138.47072
1.4731832,139.08676
1.4615705,140.9858
1.3926206,134.16936
1.2772181,135.52095
1.2512307,130.52423
1.2754933,132.42809
1.1642826,123.46055
1.2502809,119.47897
1.1188066,122.37647
1.0863703,118.15353
1.2056298,113.98116
1.0702446,110.62466
1.0868345,105.48534
1.0804117,103.15644
1.0213172,102.701065
0.95303893,98.5971
1.081196,99.033676
0.95823544,93.984535
0.909691,89.744514
0.9246092,86.67975
0.845701,85.40931
0.7707506,84.13462
0.7154772,77.79988
0.6396395,78.70845
0.66794115,71.008064
0.5603966,67.32512
0.5302628,64.95787
0.5446231,69.657906
0.57292265,65.45642
0.37038776,54.12768
0.56387967,57.35127
0.47447452,51.424725
0.38664588,52.562332
0.32170868,48.352356
0.42612052,47.45933
0.3868096,42.49953
0.3129253,42.012497
0.35508093,40.0
0.2687907,40.0
0.39951596,40.0
0.3280497,40.0
0.24791004,40.0
0.13164501,40.0
0.12740213,40.0
0.07984073,40.0
0.047469597,40.0
0.09444217,41.271038
0.02609582,40.0
-0.06318598,42.935196
0.032148354,46.572617
0.14848654,52.172733
0.13404448,51.529762
0.20055962,59.192284
0.27348632,65.761635
0.36154208,64.07841
0.5515865,72.7148
0.6066994,76.55025
0.74653804,89.42471
0.82137007,88.6492
0.9181607,88.34286
1.0553595,97.191864
0.9913742,101.012856
1.1229419,106.94097
1.3118218,111.28472
1.1452584,117.11132
1.2286915,127.99476
1.4503949,126.44041
1.329159,128.65112
1.3768988,128.64009
1.3303626,136.00081
1.3462623,137.47786
1.3868353,139.19418
1.3858811,139.08766
1.3872074,146.273
1.2628616,143.55309
1.255476,140.19829
1.3129625,138.56055
1.2356199,137.05798
1.260517,136.89864
1.26785,132.47444
1.1191394,131.24557
1.1321014,134.7741
0.9806564,129.29329
1.0935901,128.71362
1.0196532,122.77775
0.8808379,124.39461
0.9070597,120.1162
0.9022818,115.61692
0.9552857,112.59802
0.8966276,109.7148
0.9117595,105.91052
0.80462027,105.84341
0.88191426,100.315414
0.87846214,97.9655
0.8563198,96.23914
0.68855155,94.519585
0.8507888,90.561676
0.6973076,84.5474
0.67326057,85.24269
0.5960476,78.70728
0.5497423,73.44706
0.5831458,75.241325
0.50092804,70.21774
0.4450001,71.16083
0.41539302,67.934364
0.3604759,60.261967
0.31433973,58.040894
0.35791793,52.20058
0.35426646,53.558033
0.36507386,54.056732
0.3255685,48.350803
0.3061837,48.688076
0.34961838,43.760708
0.27253324,40.0
0.2534036,40.877987
0.30743152,40.0
0.19820994,40.0
0.2467079,40.0
0.2464531,40.0
0.1828102,40.0
0.114964046,40.0
0.038827073,40.0
0.05162428,40.40416
-0.13264132,40.0
-0.05571101,40.0
-0.050550144,42.68135
-0.03262483,42.84444
-0.030981848,48.83105
0.0027235718,51.655605
0.1617815,57.51701
0.12254839,60.065365
0.36284095,64.31875
0.38870677,68.32485
0.55285746,72.82036
0.6249873,78.51271
0.786353,84.89396
0.8481181,94.21609
0.9622887,97.08521
1.0295267,104.44429
1.0497069,104.12029
1.1653494,114.60009
1.2877214,117.96673
1.2638477,120.432526
1.252232,125.06678
1.4619894,130.63556
1.3951448,133.4375
1.4359349,133.67998
1.4885987,135.96175
1.4166874,137.90088
1.4166663,138.3547
1.305228,141.17276
1.3825102,137.90488
1.3990434,143.51392
1.3363031,138.94608
1.4285755,135.35454
1.2641344,135.5918
1.2899126,137.43388
1.2176296,133.60582
1.0367426,134.75781
1.211673,131.01006
1.2177138,125.274956
1.1096107,119.198784
1.1085135,123.71506
1.0511546,117.44812
1.0309317,114.122665
1.0144713,117.421104
1.1018622,107.13481
0.97108424,109.72956
0.94027764,104.92538
1.0530078,98.685745
0.9655589,102.638824
1.0017729,96.6828
0.9474757,93.57102
0.8836147,92.620155
0.8608892,89.359535
0.8824277,84.8738
0.8033232,81.062515
0.76024556,81.84919
0.71190554,76.77466
0.5909983,72.93525
0.5413962,69.271904
0.59434444,66.789345
0.57924193,62.260548
0.5066337,60.24382
0.4285561,57.00088
0.55362713,54.000214
0.49197763,48.355907
0.45999193,47.66936
0.5585161,48.725216
0.58598167,46.837196
0.45174316,42.078045
0.45396185,40.0
0.45421708,40.0
0.43556306,40.0
0.40971267,40.0
0.33997807,40.0
0.28166163,40.0
0.3568294,40.0
0.32058507,40.0
0.2419858,40.0
0.19644588,40.0
0.10321638,40.20358
0.22589944,42.86966
0.09570271,47.037693
0.12396093,47.32804
0.18121839,51.924164
0.4823112,52.55569
0.3107443,61.787292
0.52860916,59.602684
0.51599294,68.0839
0.71736044,74.11938
0.713953,79.761406
0.9245507,84.283806
0.99289125,88.866165
1.187421,98.45274
1.2445084,100.9587
1.361411,104.7446
1.404154,111.46344
1.4505514,116.74522
1.5166886,120.19056
1.4998033,129.08405
1.5451934,124.17118
1.5606856,129.15959
1.6825267,134.66211
1.6780918,137.07452
1.6039022,139.13977
1.5839884,139.72835
1.6287322,137.39554
1.7093768,137.55081
1.6074061,141.25502
1.7042938,136.99913
1.5580982,137.84863
1.5940375,136.86778
1.5659416,137.6589
1.6334531,136.97102
1.3784686,133.1658
1.323525,130.89125
1.4662731,124.49411
1.3617716,124.15282
1.3535298,123.33823
1.3705559,122.75159
1.3420694,120.91342
1.378541,112.581276
1.195635,112.37998
1.2498181,105.227745
1.2697684,102.88528
1.196103,101.4026
1.2717193,96.41879
1.2006624,96.34744
1.1959131,92.70851
1.1497471,90.64227
1.1346649,89.56439
1.0804487,86.91148
1.0752175,84.93485
1.0229944,79.11339
0.8541293,78.186295
1.0266048,73.006004
0.8797375,71.463524
0.8199592,66.398796
0.8027553,68.60212
0.8047921,65.39731
0.832884,60.716938
0.7464447,57.367767
0.6741316,54.071255
0.7195338,50.098557
0.8224852,47.615356
0.7967241,45.278397
0.74227726,44.508095
0.75915986,42.578476
0.7504701,40.0
0.74972445,40.0
0.71772957,40.0
0.72732675,40.0
0.5658889,40.0
0.61559385,40.0
0.599518,40.0
0.45173934,40.0
0.55110586,40.0
0.45972168,43.064396
0.35986525,40.0
0.49857172,43.860847
0.532516,48.030388
0.55177546,46.66629
0.49740872,54.52405
0.6625063,55.05327
0.68664557,66.4053
0.87848765,68.08392
0.9656551,70.73818
1.1168345,80.19145
1.2987219,84.80867
1.2834485,85.49212
1.418723,97.090385
1.5450033,99.66113
1.5504303,102.80206
1.6941445,109.81727
1.7153558,117.32636
1.824404,120.32021
1.8469526,119.95752
1.9162676,124.677475
1.924125,134.56094
1.9539692,130.9704
1.9719267,135.37054
1.9153954,134.74452
1.9144875,133.46417
1.9385511,142.82011
2.0031664,136.96315
1.9060826,140.12926
1.9479455,141.43524
1.792711,141.1801
1.7310466,141.74199
1.6288815,134.6572
1.8508916,135.97968
1.661418,134.09325
1.6789019,130.75711
1.5786537,134.6667
1.6506436,126.251976
1.5603405,121.169914
1.5699266,122.44341
1.5632776,117.89302
1.454314,111.66478
1.5154319,111.22818
1.5630893,108.80714
1.4483929,109.1728
1.4620401,106.318375
1.4848351,100.68981
1.3699036,98.0635
1.4048269,94.608475
1.4384537,89.01456
1.3379257,88.799576
1.31297,83.79775
1.3593802,85.6016
1.233004,80.95247
1.0917351,76.95909
1.041851,76.56389
1.0285122,73.83716
1.0034419,73.72867
0.96579057,64.91817
1.0494616,65.55172
0.9178573,60.917328
0.83774215,56.83795
1.0039023,53.309814
0.8560538,49.64537
0.9031216,52.821686
0.8667197,44.093784
0.9599637,40.0
0.89139533,41.893745
0.91415393,43.392727
0.881162,40.0
0.84461355,40.0
0.8520473,40.0
0.7824217,40.0
0.7082422,40.0
0.75684446,40.0
0.63044244,40.0
0.636707,40.0
0.5583666,40.0
0.5293024,40.0
0.50472844,46.654305
0.5215386,46.04467
0.5028159,46.90524
0.6722431,54.566868
0.7073909,56.02025
0.7785299,62.19226
0.8881942,64.02507
1.0778602,70.963264
1.0068852,75.663445
1.2004012,81.930214
1.2975231,86.70448
1.3915492,90.1783
1.433867,98.104065
1.5939274,105.74293
1.643257,105.67807
1.6927308,113.38006
1.8340045,118.8171
1.8224463,126.63576
1.8687994,124.433464
1.8658333,130.44368
1.9240944,130.89598
1.9150106,134.94266
1.9483061,134.11963
1.9659866,140.47198
1.9558846,139.65416
1.9269369,139.0081
1.8231678,143.56036
1.9207793,134.88141
1.8654271,142.44609
1.848487,141.10571
1.803929,138.7971
1.7010727,136.0247
1.685325,130.24596
1.6653192,131.86641
1.7689397,131.21414
1.6117066,127.53237
1.4935708,127.19432
1.5147018,121.896385
1.6030338,118.041824
1.5652896,115.909996
1.478435,111.20903
1.5674013,110.845215
1.4151533,107.43457
1.363922,104.53007
1.6163474,101.26301
1.4170907,99.27483
1.4323852,95.54387
1.341454,91.85387
1.3857349,87.977806
1.2723649,87.1463
1.200025,88.18989
1.2438871,78.25988
1.0576433,82.34971
1.054428,77.16718
0.9892122,70.2335
1.0240253,71.235306
0.9236933,65.29383
0.83904517,63.955063
0.88168347,56.95791
0.8197504,55.782288
0.9110384,57.943375
0.8466002,54.050034
0.74318993,49.250065
0.91730356,46.39542
0.81579536,42.55085
0.851006,46.725105
0.724095,40.0
0.7586157,40.0
0.73440146,40.0
0.7089438,40.0
0.703413,40.0
0.5811798,40.0
0.5351155,40.0
0.5650018,40.0
0.41555163,40.0
0.38921228,40.0
0.50958896,40.0
0.3183868,41.643032
0.40090254,45.48339
0.4664351,47.20156
0.43385464,48.497505
0.57470703,56.48454
0.6803457,59.132324
0.59435517,60.906887
0.74639255,70.00852
0.96069527,75.12094
0.9739589,80.827484
1.1264921,86.046745
1.2848217,89.19157
1.2696395,95.05576
1.3950821,100.10762
1.5092798,104.74213
1.4929057,113.4523
1.6592679,118.71147
1.6072068,120.818146
1.6295838,122.34471
1.6805799,127.15712
1.7794491,130.58533
1.7912084,133.15915
1.7559204,136.04369
1.7823951,139.11205
1.7073853,137.77188
1.7275243,137.28258
1.7397653,141.50876
1.6051118,141.55133
1.6130242,138.76253
1.6610553,141.40508
1.6854869,135.32289
1.4482094,140.1917
1.4550339,133.46114
1.4669989,129.58363
1.456919,129.12311
1.3412434,126.46636
1.3397325,126.81326
1.3552634,118.89435
1.245167,120.09093
1.353354,116.596886
1.2334505,114.771736
1.2361232,111.57193
1.1811595,111.14376
1.1156578,110.855934
1.2016084,101.67076
1.2269131,104.684685
1.1208537,98.36993
1.0484586,91.0361
0.961359,91.50256
1.0244154,88.60294
0.96733636,88.78128
0.9715701,79.02245
0.78573745,81.48043
0.8392825,75.38244
0.77888614,70.2656
0.73626995,72.08915
0.6566397,69.13867
0.6615826,66.33197
0.57411206,66.1732
0.64222467,60.21786
0.59923744,53.851974
0.55643964,49.536434
0.56067836,50.938538
0.49364173,49.476467
0.5212107,47.82826
0.47382626,42.974735
0.47198948,41.237514
0.578945,40.0
0.5330154,40.0
0.4621078,40.0
0.43462864,40.0
0.286332,40.0
0.25366408,40.0
0.21335413,40.0
0.19412415,40.0
0.16203855,40.0
0.1457881,40.0
0.064705335,40.0
0.14754932,44.316902
0.15389441,45.04523
0.24545363,51.491463
0.23008552,54.20012
0.3759962,59.08255
0.27439398,62.37062
0.38963765,69.14864
0.5419664,70.99577
0.6888245,77.610016
0.86599725,79.88947
0.8462191,89.611046
1.0414745,94.15145
1.0277097,97.77239
1.1246903,103.36414
1.184746,105.51844
1.2407367,111.85113
1.3906298,117.36074
1.3013815,119.74158
1.4620224,126.23862
1.5382576,131.27797
1.5560671,134.66666
1.433994,135.7383
1.5861402,134.05893
1.4576167,137.90182
1.4718906,137.60574
1.4619145,141.12328
1.4022163,140.03831
1.4835043,135.98062
1.3720043,139.1727
1.3660171,134.5942
1.3525788,141.31902
1.3433135,135.75441
1.3883015,132.62083
1.2164564,133.14458
1.161976,130.53372
1.0999897,122.04205
1.0109447,124.70315
1.0855578,115.21026
1.1136143,115.68842
1.0238336,117.00519
1.0473255,112.65131
1.0113329,107.920364
0.9836668,104.8743
0.9673738,104.00576
0.9626544,99.334946
0.9214257,96.50954
0.9175227,98.36586
0.8731087,88.26656
0.7853982,90.73204
0.827837,86.39085
0.6995082,83.75191
0.6107366,76.39827
0.70598555,77.66547
0.55663615,77.909454
0.5319617,73.39762
0.45736483,66.694885
0.4095696,68.15217
0.42358506,65.45477
0.4020526,60.493958
0.38261816,54.42699
0.32664448,54.049377
0.28842628,47.73089
0.2992297,49.660954
0.3054263,43.984676
0.31026563,44.562027
0.28753814,43.230553
0.3362074,40.0
0.27595106,40.0
0.31334618,40.0
0.12861528,40.0
0.2783154,40.0
0.08203825,40.0
0.18540676,40.0
0.070868164,40.0
-0.0324176,40.0
-0.1023953,40.0
-0.072135545,42.36536
-0.083168015,40.283154
0.06144642,46.65153
0.022645406,51.546577
0.08694677,53.217155
0.14795904,55.55612
0.26835424,61.730587
0.25751382,66.10427
0.34846735,69.95661
0.5291108,74.20792
0.663384,82.46602
0.73506016,87.18869
0.83769995,92.493126
0.9308687,98.7902
1.1168685,102.72253
1.0974898,107.485756
1.2189935,114.87276
1.2482665,115.350655
1.2907903,114.90578
1.2886713,125.04224
1.287308,129.75394
1.33245,131.41983
1.2974832,132.95084
1.3968632,131.77676
1.3965688,141.85396
1.314621,134.72313
1.3292048,140.78397
1.3198173,139.15852
1.3208786,140.44821
1.3861864,142.30382
1.2609953,138.38202
1.20525,138.45268
1.1838046,130.86069
1.1394534,137.73116
1.1166338,129.29034
1.125858,130.66228
1.1166494,128.27097
1.0646628,122.81068
0.97702163,121.60501
0.96758413,123.36469
0.9515225,117.78468
0.9914297,114.2094
0.83579516,112.78557
0.9108056,109.40873
1.0078052,104.90087
0.8563315,101.15088
0.8539077,99.53451
0.8923053,93.55908
0.80042654,92.861244
0.8291762,91.15898
0.7727954,85.78545
0.7709537,84.581535
0.6810407,78.98703
0.6834567,78.01705
0.63075787,73.905396
0.5390071,68.35467
0.5500564,68.45761
0.48543283,71.845535
0.4221347,60.445034
0.4932398,60.34629
0.30088443,58.467598
0.3864527,56.093082
0.40024897,53.497658
0.3725649,48.710884
0.36466998,46.68599
0.3367729,47.109207
0.448115,40.90529
0.37033445,43.376316
0.39910907,40.0
0.21796472,40.0
0.26180965,40.0
0.17701489,40.0
0.23906489,40.0
0.18601644,40.0
-0.017182171,40.11282
0.10825367,40.0
0.074440464,40.0
0.044256825,40.971386
0.050696433,40.0
0.15179521,46.048756
0.05495569,45.087032
0.16631563,54.919952
0.17286876,58.05919
0.30015567,61.933495
0.36130336,63.71634
0.50400746,69.30766
0.55749565,72.882164
0.6772985,78.594025
0.70426494,81.64481
0.9335778,91.70873
1.086159,96.22287
1.10021,101.63092
1.0875694,104.16238
1.2793776,110.87369
1.2921994,113.90552
1.3710595,121.68146
1.4721518,120.79409
1.4324791,128.24904
1.519233,127.46776
1.5699965,132.27376
1.4525132,131.47969
1.5252895,139.26111
1.4791801,138.12405
1.4563524,139.52039
1.4948323,140.05
1.4579012,139.87523
1.556001,139.25922
1.4819994,136.80609
1.4295291,132.83162
1.3951981,135.45805
1.3752484,135.58403
1.2335371,131.85304
1.2933006,127.06472
1.314719,125.82853
1.2537261,123.95457
1.2268268,122.89212
1.1064221,119.274765
1.1536949,118.23445
1.1900864,111.88269
1.1644875,112.77203
1.1039826,111.647484
1.1694986,102.574425
1.0860848,102.257385
1.0010163,99.99962
0.94937545,94.319984
1.1222501,91.652824
0.995863,92.38258
1.0052621,85.44268
0.9364821,88.49219
0.983271,84.533844
0.87528616,79.74772
0.784828,76.46352
0.77459025,71.21121
0.7312335,69.57568
0.7514119,67.75911
0.6938233,65.34495
0.76972353,63.42035
0.6073487,62.59807
0.6847357,56.3944
0.60081553,53.714993
0.62354714,48.97246
0.58721626,47.16098
0.61400026,44.91617
0.6215855,44.695435
0.4955608,40.0
0.5511332,40.0
0.6182212,40.0
0.5654688,40.0
0.41894606,40.0
0.50309247,40.0
0.41981104,40.0
0.27272213,40.0
0.42330897,40.0
0.2895979,40.0
0.32068783,40.0
0.26648346,40.0
0.29650903,42.441525
0.27456823,48.446796
0.2897608,52.187138
0.42434558,54.424274
0.528317,60.610916
0.6037947,63.142773
0.7008474,68.80886
0.78642595,74.59326
0.93969685,82.61241
1.0582459,85.70977
1.1406147,88.776184
1.3535992,93.38676
1.2853537,99.341125
1.4301268,105.66074
1.545913,111.55686
1.5301342,115.81429
1.6546527,118.45852
1.6905563,124.56634
1.7463986,124.23489
1.8084828,129.58682
1.7515663,134.24487
1.7736882,132.57545
1.8181474,136.16911
1.9070576,139.87306
1.7875094,139.68207
1.7543297,138.71695
1.8379108,144.08751
1.7466699,141.79463
1.7367738,139.39928
1.779081,141.92923
1.7072979,137.37856
1.5709574,138.20982
1.7089382,133.81593
1.6031617,133.71436
1.5380089,127.268585
1.4970983,122.73107
1.4691992,126.03893
1.463483,120.9021
1.4701271,119.248764
1.3890362,112.152245
1.4009851,113.43212
1.4420713,110.89576
1.3759094,109.2556
1.360614,103.18597
1.3139924,99.10373
1.5051901,100.9405
1.3852072,90.800766
1.4495302,91.67463
1.2501544,91.25061
1.2265508,87.58316
1.2490236,86.99294
1.1063311,80.92357
1.0253794,80.65775
1.0587893,76.50241
0.9342823,72.00031
1.004193,66.01193
0.9140409,66.00766
0.87290275,62.225693
0.91775006,57.590645
0.86084855,59.874287
0.9146429,58.27264
0.8921026,53.549747
0.8478543,46.82824
0.8124611,46.701706
0.93318444,42.216427
0.8458272,44.358807
0.89756584,40.0
0.72361207,40.228252
0.85422635,40.0
0.74535865,40.0
0.70332223,40.0
0.71217775,40.0
0.655651,40.0
0.6581621,40.0
0.60136205,40.0
0.5137956,40.517517
0.5164999,41.39469
0.5080064,40.55785
0.63730717,43.927853
0.526453,50.453503
0.7105146,52.222836
0.8248098,57.684494
0.8083324,63.568447
0.883661,65.34896
0.9311513,72.03112
1.0905182,76.66626
1.3360277,80.36281
1.3080686,86.41312
1.4772877,94.87124
1.4800943,97.04462
1.5698982,101.45821
1.6834505,107.83882
1.7822427,111.26249
1.8650378,119.18963
1.8424321,117.03331
1.8560761,127.818794
1.9788247,124.6397
1.9153064,129.13771
1.9126021,134.19968
1.9911798,136.4474
1.943042,136.75114
1.8521664,137.91481
1.9727592,134.56853
1.9629195,134.44745
1.8619736,137.86302
1.9234835,145.96951
1.8783817,138.30463
1.8226929,133.25739
1.8161521,134.43459
1.7465595,132.77408
1.7085618,136.50516
1.7050049,124.16621
1.5305525,124.29151
1.5459954,123.01564
1.5800653,121.61311
1.5613706,119.78922
1.4394486,113.66381
1.5684761,113.43917
1.5267388,108.007866
1.5052962,104.76173
1.5107533,105.16869
1.505935,101.27725
1.4718276,96.05336
1.4689006,95.66434
1.4740732,92.95406
1.3747663,88.15715
1.3661196,87.769226
1.2667428,85.36704
1.2248919,80.15523
1.128918,76.714
1.1461952,76.167496
1.0078788,70.743996
1.0511634,70.49776
1.0337194,66.61248
0.94841224,60.748955
0.9021162,64.12841
0.8767938,62.73656
0.9618682,57.290573
0.91423887,53.456432
0.89081305,46.48424
0.84409237,42.84919
0.9441063,48.767067
0.84084415,40.291492
0.905444,43.839794
0.7546292,40.0
0.8885125,40.0
0.7574838,40.0
0.7748087,40.0
0.6002165,40.0
0.72962445,40.0
0.584634,40.0
0.61242807,40.0
0.6051634,40.0
0.5770884,40.0
0.48697895,40.0
0.52004045,44.24017
0.5037537,44.106987
0.5460009,53.02249
0.54806614,58.203423
0.7773485,56.95034
0.7335159,63.14418
0.9152503,71.13239
1.010531,76.32032
1.1417525,79.00751
1.1482075,84.390724
1.3369284,94.45014
1.4561931,94.02366
1.6403435,99.1556
1.6228257,104.791695
1.6164348,112.66038
1.7585174,115.67305
1.7621441,122.71294
1.814565,120.5421
1.6875459,129.3359
1.9224946,132.81049
1.8317586,135.27554
1.9531586,136.50682
1.8920615,137.49886
1.9315238,139.33427
1.7864171,140.07152
1.8672521,137.68408
1.7244204,140.79642
1.809696,142.18117
1.8068943,140.18533
1.7046356,139.5337
1.7388301,135.99965
1.6560786,134.69525
1.6043735,130.1429
1.5552936,134.72133
1.5785757,129.9905
1.3966129,123.99446
1.5413371,122.825264
1.3782097,118.77157
1.3928064,117.75446
1.2743745,113.17054
1.4121765,114.97761
1.4148926,103.75661
1.4290023,104.58524
1.3505044,101.51221
1.2891079,97.310425
1.341871,98.12022
1.3928884,95.21084
1.1745191,92.084236
1.1709205,87.595184
1.1344147,88.22638
1.0798963,83.71151
1.027269,77.75531
1.0274328,72.606995
0.8497884,70.87561
0.82021743,71.469185
0.8093579,68.86815
0.6805484,61.71129
0.6609155,62.291218
0.7382567,57.930145
0.7334525,56.65307
0.6082885,50.927605
0.716094,50.64077
0.82461494,48.78397
0.73584163,44.234
0.5573793,41.908913
0.7202724,42.531757
0.6166105,40.323776
0.51504123,40.0
0.51524204,40.0
0.5286929,40.0
0.5169997,40.0
0.35946745,40.0
0.33458728,40.0
0.39238146,40.0
0.33287716,40.0
0.23899211,40.356136
0.2370185,44.446556
0.23107323,44.892254
0.19382975,49.22819
0.2992344,52.836414
0.36971605,56.879677
0.4391047,57.673523
0.5488272,63.867676
0.62118787,69.23888
0.7537255,72.119865
0.87991464,79.543144
0.84843206,86.50722
1.0353684,88.06014
1.1418318,92.911804
1.099883,99.88296
1.3279822,108.5644
1.3552986,111.24453
1.4491779,111.79081
1.3920699,119.12483
1.4929684,121.10462
1.4984336,126.748344
1.4591521,124.424484
1.4587642,133.5599
1.6021682,131.79857
1.5224019,139.9723
1.6657686,140.56166
1.5229802,137.18376
1.5122647,136.1237
1.4737803,139.92796
1.5966384,141.78427
1.4968739,139.16708
1.4284458,135.10083
1.3862398,133.93585
1.4864501,134.93372
1.3345068,133.58275
1.2963918,129.85162
1.1901121,127.96629
1.1858575,127.56512
1.3731669,124.4595
1.2453514,122.51788
1.1162075,114.816284
0.96933347,113.32026
1.0055112,112.24269
1.0174977,110.819466
1.1536001,106.62145
0.9680862,104.3135
0.9467294,104.47202
1.0116793,98.56777
0.94155926,96.83983
0.9871255,94.36628
0.9038884,88.48197
0.87753975,86.97651
0.7708714,82.25849
0.733726,79.46284
0.5457889,75.04446
0.55921483,75.79969
0.59801185,70.29128
0.6160323,68.35213
0.6062338,66.85273
0.42235604,60.101677
0.4679711,58.888966
0.47904143,57.94131
0.4256405,51.961445
0.5236914,52.610477
0.32605442,50.009304
0.4491988,47.954933
0.41278106,40.0
0.2560256,40.0
0.40031385,42.54753
0.2586249,40.0
0.2936986,40.0
0.19803336,40.0
0.23403166,40.0
0.2152227,40.0
0.18315664,40.0
0.06290853,40.0
0.036227968,40.0
0.028544953,40.0
-0.040196598,40.0
-0.07937888,43.31608
0.033884652,44.842674
0.09337102,50.72598
0.09872386,52.524597
0.11127005,54.709145
0.25793928,58.13652
0.36115482,66.67828
0.5389013,69.5034
0.680046,80.967384
0.63887566,83.889656
0.75661266,89.463585
0.86844367,92.34646
0.9583848,98.2256
0.9991617,100.10857
1.1934016,110.71002
1.1876535,117.81172
1.3328415,117.532005
1.306321,122.773834
1.3414972,122.56574
1.3016571,127.6827
1.3286986,131.71625
1.390923,133.0418
1.4259989,135.75078
1.3314636,138.65591
1.4083658,134.46605
1.3252556,137.95087
1.3373197,143.6797
1.2807878,142.94283
1.2892524,140.68138
1.2440559,139.5654
1.3423842,139.49295
1.2017666,134.91557
1.1060497,133.71263
1.1043227,131.74268
1.0060502,125.76848
1.0463637,124.48929
1.0161744,124.17902
1.0230765,119.17832
1.0077924,119.898445
0.91969895,119.15511
0.95823324,118.59705
1.0080696,115.96538
0.9834777,109.09302
0.96108955,103.26772
0.9322131,98.414955
0.7697816,95.27209
0.7672381,96.52248
0.90256786,92.094635
0.79675347,87.593735
0.7605201,89.066826
0.6690149,84.96674
0.6086612,79.98488
0.5909561,79.61746
0.49960974,76.35962
0.4825904,75.583405
0.43889266,70.29565
0.45376548,66.314354
0.40001112,61.461197
0.4205212,60.965843
0.3681224,59.600044
0.39768043,56.315334
0.3153049,49.64428
0.32206678,52.30801
0.35161582,48.5479
0.30175012,45.018826
0.26677507,40.0
0.2610379,40.0
0.15999487,40.228577
0.24975717,40.0
0.19775675,40.0
0.26847818,40.0
0.08023419,40.0
0.17957531,40.0
0.09324782,40.0
-0.06525189,40.0
0.0081514,40.0
0.014727117,40.0
-0.04990873,43.253937
-0.05625087,49.266186
0.045600917,48.180008
0.08334285,54.06676
0.109741084,55.37523
0.20804437,61.96543
0.22580396,64.081856
0.46385798,69.35609
0.63081187,70.50999
0.6528374,80.36129
0.7001759,84.74242
0.89490914,92.14443
0.8528769,97.23686
1.0092908,100.43418
1.0383209,103.59637
1.1696068,110.33915
1.169662,116.41768
1.3352991,118.65783
1.3806313,121.91503
1.4023261,129.13394
1.4118357,129.39684
1.3858197,132.42789
1.4060823,132.13478
1.4649067,138.3047
1.4836916,138.28333
1.3944033,137.02109
1.4096326,141.7608
1.3986462,141.60463
1.350851,138.01912
1.4143841,142.23074
1.3175495,136.36487
1.2842932,136.72112
1.2409018,135.91641
1.2330564,130.04108
1.2683887,128.0249
1.0877699,128.10577
1.0590837,129.59013
1.0735239,123.61088
1.0857921,118.62362
1.1538659,114.422874
0.97713614,113.5103
1.0286686,110.254166
1.0502628,107.69932
1.0235007,106.30146
0.96293944,100.1795
0.97158927,100.116905
0.90041745,98.35361
0.91433203,88.924644
0.93077654,89.89614
0.9715175,88.29649
0.8263966,84.17917
0.7611515,83.09834
0.7422591,74.03442
0.66313124,75.2534
0.6157095,74.678314
0.6599828,71.06745
0.62128305,67.30073
0.52526706,65.87965
0.5041623,63.593525
0.443827,58.598248
0.48517978,54.79897
0.42975518,52.1052
0.4346346,48.94309
0.5140039,49.87231
0.47863698,43.158485
0.53710735,41.295452
0.45539638,42.80675
0.4334274,40.0
0.4927707,40.0
0.37700352,40.0
0.36936572,40.0
0.22281702,40.0
0.33444676,40.0
0.33502623,40.0
0.2165979,40.0
0.16587104,40.0
0.21801001,41.215782
0.2556532,41.99835
0.12971435,51.635044
0.15415601,44.523327
0.3573208,48.390335
0.17252472,49.598972
0.4154273,58.546513
0.5048177,63.976364
0.678722,67.98969
0.6904512,70.99203
0.8204254,80.909645
0.9320187,81.253876
1.0495886,88.390686
1.1354582,95.80211
1.185702,100.061195
1.4674726,107.0206
1.4538664,106.9724
1.422137,113.279976
1.5561498,117.46242
1.6042833,124.96319
1.6131045,128.0461
1.675717,128.09114
1.7316606,134.04047
1.7398065,135.44807
1.7172719,135.17966
1.663533,141.21503
1.7328852,139.1436
1.6755698,140.5829
1.6793772,144.01207
1.6592798,142.07555
1.6968949,142.5099
1.6008503,140.59215
1.473109,139.11252
1.494912,133.8498
1.5833936,131.91052
1.4241917,128.69508
1.3172231,127.15618
1.477333,125.63192
1.3656706,125.26405
1.2834848,117.99125
1.3027687,116.15397
1.3065001,115.550354
1.3557514,111.51354
1.319027,109.159424
1.2476074,108.20956
1.3055333,101.705246
1.2282956,99.71679
1.168511,101.78354
1.2387964,95.37321
1.2793844,95.65802
1.1166773,90.10771
1.0825446,86.4884
1.1024363,83.39295
1.1270307,81.79698
1.1125132,75.82064
0.9980274,76.59387
0.89500827,71.97657
0.831026,69.53042
0.8204481,70.20843
0.87459075,62.57834
0.7168905,61.004604
0.7614808,56.762745
0.6072057,54.34167
0.7554839,49.854736
0.7446186,45.5113
0.7282959,49.543797
0.8099306,42.87988
0.7337509,40.077595
0.80991703,40.0
0.72706395,41.940533
0.710846,40.0
0.6750919,40.0
0.67201227,40.0
0.59264493,40.0
0.44589257,40.0
0.4894018,40.0
0.43507627,40.0
0.4630776,43.565063
0.5025417,41.956
0.483524,41.858013
0.3209247,46.641994
0.50996155,49.39099
0.55299056,58.507404
0.7808331,54.60832
0.73239577,62.490723
0.777562,65.135254
0.8359004,70.604645
1.0615873,78.9422
1.1767336,81.47522
1.3296828,87.36048
1.3880132,92.7313
1.4623901,99.64104
1.5354823,106.64322
1.6330249,109.327576
1.6329008,114.237175
1.7801846,114.24532
1.7322588,121.381355
2.0423582,124.33848
1.9743904,130.94582
1.897854,133.21367
1.912442,133.31084
1.9123076,140.84062
1.8964808,135.48056
1.9436544,138.20398
1.8323804,139.34753
1.7307342,143.0753
2.0270138,148.70702
1.882611,141.81017
1.7905401,143.1045
1.8389276,136.1055
1.7831835,134.5411
1.7300599,138.34674
1.6788583,132.2937
1.7335186,129.65494
1.7253857,123.36433
1.5197426,121.86559
1.5437742,120.00233
1.5133393,122.25281
1.5719818,115.16956
1.4255297,112.48146
1.4940674,110.916855
1.4157205,103.43236
1.5071504,105.912125
1.4484704,100.46363
1.4709867,100.26363
1.3749781,94.33349
1.4028959,93.02405
1.3842969,95.53849
1.3765442,86.99647
1.2848967,84.32685
1.2530706,81.29966
1.1181085,76.269936
1.2211747,79.15563
1.0576754,71.619965
1.1303078,67.491066
1.1342893,64.83392
0.94885516,63.033424
0.9857287,60.51637
0.94246775,55.537716
0.99338335,52.232475
0.93010694,50.81151
0.91331816,47.730907
0.8967355,50.50131
0.9677726,46.469967
0.8531265,43.489723
0.9091677,40.0
0.90092,41.47423
0.92674035,40.0
0.8147895,40.0
0.784644,40.0
0.71678704,40.0
0.78887033,40.0
0.6278124,40.0
0.58658504,40.0
0.49762225,40.0
0.5936278,43.014595
0.51280653,42.30766
0.67194015,44.085667
0.57709295,49.08666
0.7118146,53.71109
0.7121606,57.78059
0.83621603,58.646725
0.88697934,71.36768
1.0008066,71.76839
1.178857,75.994415
1.2802483,77.79625
1.3090494,86.907326
1.4447118,89.70558
1.4636486,95.092026
1.5811898,102.558395
1.7080784,103.54917
1.6405954,115.50841
1.8557943,112.27087
1.7415265,120.90434
1.8923546,122.1258
1.8768421,129.78137
1.9446411,130.20114
1.9208574,133.77448
2.0778708,131.04344
2.028083,140.46974
1.8938807,140.00359
1.9902709,140.20702
1.9135866,135.80577
1.9083272,139.59294
1.8683416,139.56877
1.799609,135.94368
1.853015,137.35349
1.7728773,135.79808
1.7035701,135.67316
1.6045175,130.25862
1.7664875,133.33028
1.6506032,127.07248
1.578459,124.221275
1.5899674,122.061714
1.5391543,118.56364
1.5219507,116.27663
1.429188,116.32471
1.4676095,109.07455
1.4861913,109.178986
1.3241739,104.36004
1.4872391,100.932365
1.4519709,97.10639
1.4232702,94.35484
1.4027518,94.396126
1.2506372,94.54712
1.2040021,86.31313
1.2243872,83.94963
1.1839691,83.24911
1.1745929,79.24446
0.9959097,77.8112
1.0318907,72.662025
0.92194,67.42268
0.99219686,63.794765
0.7726382,63.831944
0.8445057,64.35531
0.81457186,60.072758
0.8891241,55.067234
0.76244736,51.61714
0.8312537,51.25262
0.7946372,51.79071
0.84257734,45.717613
0.7972105,44.046696
0.82377714,40.0
0.714884,40.60066
0.81137145,40.929565
0.6335404,40.0
0.6370051,40.0
0.5155699,40.0
0.53955436,40.0
0.5749512,40.0
0.4386453,40.0
0.44465575,40.0
0.349011,42.68773
0.37606058,40.0
0.4016335,47.54227
0.37217534,45.87743
0.44752523,51.349205
0.4181304,53.261284
0.5217298,58.854458
0.74421644,65.514084
0.6635775,69.35973
1.0006896,75.58469
0.96600974,81.84204
1.0868597,85.011024
1.1827983,90.83088
1.3421292,96.70879
1.3017616,100.46611
1.3709853,100.616325
1.4860342,108.30692
1.6478148,112.98682
1.5717874,122.067474
1.7016276,120.259575
1.7616639,127.07182
1.6252737,131.62787
1.7483746,131.4563
1.8370199,133.13014
1.6596729,137.04373
1.6594665,139.74176
1.7155296,135.30316
1.6820445,139.10178
1.6773309,141.03006
1.7601871,140.20462
1.6205404,136.08762
1.534486,139.7097
1.4812627,135.86478
1.5016234,135.85637
1.3771086,131.74445
1.3283596,127.80743
1.3335981,128.23691
1.429428,127.23167
1.2207477,126.94973
1.3839781,120.45633
1.1948051,118.90287
1.2340535,114.79874
1.203564,111.07172
1.2258847,107.312645
1.2524359,104.78378
1.1450211,97.89244
1.1196538,102.85975
1.1158998,98.27915
1.111234,93.427986
1.0950683,91.62085
1.0834533,89.36828
0.89299405,86.729904
0.9990374,82.74782
0.90451515,80.067215
0.88777417,78.75493
0.72018075,74.46328
0.79306275,72.765785
0.72308886,69.345436
0.64534456,60.46908
0.72028756,63.84376
0.5518004,62.419346
0.53151315,53.850758
0.4975503,51.581085
0.47450966,53.89917
0.58670187,47.08675
0.5236106,46.094215
0.5402726,43.8411
0.58039093,44.014954
0.5012386,40.0
0.414084,40.0
0.3374435,40.0
0.3352509,40.0
0.25392973,40.0
0.17553662,40.0
0.1920682,40.0
0.21753792,40.0
0.15164462,40.0
0.121311255,40.26581
0.13563365,42.931587
0.11686748,41.655067
0.12067317,45.697437
0.08726181,48.09052
0.19182363,56.412094
0.3424174,58.408924
0.31830764,66.47232
0.53072584,62.07418
0.59544975,71.315834
0.6923046,75.7324
0.7867093,82.24185
0.8393492,88.63183
1.0072709,94.22743
1.0656141,99.20527
1.1281744,102.637276
1.1826003,111.46852
1.2761413,116.86666
1.2571948,118.95664
1.3109258,122.00444
1.4052843,126.920815
1.4994404,125.94638
1.468758,133.10124
1.4492662,133.8653
1.5436137,137.39105
1.3086786,138.92398
1.4781417,139.90144
1.4373677,139.25505
1.4643735,140.57353
1.3345023,136.18996
1.3335813,140.39258
1.3594452,139.06528
1.3981173,142.1718
1.3583066,135.0995
1.1510288,133.3889
1.2375196,133.43547
1.1497463,132.1746
1.0269995,123.02317
1.0571644,125.45371
1.0259533,122.72171
0.95722014,121.245445
1.0515305,115.16889
0.97120196,113.30203
0.9753949,111.18814
0.9982205,107.234566
0.9787027,107.65839
0.8178231,103.695465
0.9777223,101.949585
0.9230252,94.220825
0.80087376,92.17814
0.7841564,92.17168
0.8187878,87.14476
0.66331995,87.81019
0.5933205,77.90303
0.6013682,77.955826
0.60911685,74.75556
0.541274,70.25421
0.35978255,72.02782
0.3541954,65.91925
0.39445984,62.49298
0.36612192,62.75947
0.35102218,53.72461
0.36934793,56.899742
0.30173922,52.110615
0.41012132,43.45269
0.3600262,45.076977
0.30061,40.687656
0.31486064,40.622784
0.2986135,40.0
0.29950726,40.583324
0.23405595,40.0
0.22205299,40.0
0.1657454,40.0
0.11985919,40.0
0.066287495,40.0
0.05400926,40.0
-0.0123103615,40.0
-0.0017225004,40.0
-0.00021903946,40.56957
0.058755204,43.974155
-0.0305282,46.82444
-0.014628222,46.49618
0.15676431,50.660793
0.17217296,54.18517
0.35205612,58.84887
0.22226754,62.82033
0.4534241,70.43901
0.52334505,73.42733
0.4905933,80.30634
0.679549,88.79698
0.8215853,94.01178
0.88395023,97.78772
1.0237496,100.37987
1.0460852,102.8462
1.10294,117.201965
1.1701404,117.29195
1.2449907,123.216095
1.2616143,123.19406
1.3839849,130.03503
1.3351697,130.68228
1.4089441,130.84286
1.2902733,134.35608
1.3022947,131.96886
1.3574059,138.3394
1.3569169,138.52484
1.2920175,137.47487
1.3803431,141.50146
1.338065,137.98203
1.2023125,137.35664
1.3508877,138.03662
1.1767808,136.4948
1.2252332,135.12988
1.195124,131.15701
1.096972,130.57208
1.0394423,128.7398
1.0337201,123.9073
1.0671554,120.32773
0.9741335,118.23297
1.0329641,114.737076
0.85795057,114.90633
0.9260715,110.002335
0.9608887,107.96772
0.920086,104.98885
0.85006493,100.223404
0.8852913,103.028
0.92892915,90.575294
0.92710626,95.45227
0.7713617,93.31023
0.79744637,89.81039
0.7158948,85.63043
0.71570855,86.49132
0.6531312,80.814766
0.54974025,76.74756
0.6453621,75.52075
0.4866886,72.8723
0.49186,66.263275
0.49398383,63.486282
0.5180256,60.277943
0.49736834,59.76692
0.3161666,58.0071
0.38296458,53.31275
0.346579,52.093292
0.43015945,48.628883
0.45091283,43.602486
0.42375523,41.939705
0.35853338,43.21211
0.31729493,40.16977
0.33031067,40.0
0.2774684,40.280518
0.2974662,40.0
0.3186866,40.0
0.24879019,40.0
0.21634223,40.0
0.060747128,40.0
0.14038818,40.0
0.0052171093,40.0
-0.04007449,42.33499
0.05342931,40.835163
0.059048157,51.901062
0.19382437,48.05629
0.20674793,54.826096
0.36009818,60.706577
0.34142354,62.84387
0.45735115,66.54044
0.5672145,72.91969
0.63457125,79.23623
0.86960584,80.74264
0.9618174,89.184425
0.9672625,93.47479
1.2001275,105.384415
1.2299262,105.76159
1.3104167,107.54412
1.3668355,117.13966
1.3902637,119.79889
1.45195,120.58449
1.4618233,126.64824
1.489579,127.90448
1.4750124,133.95598
1.5923368,135.4318
1.5528078,135.65541
1.5570437,138.448
1.5117269,140.28798
1.4917891,141.16808
1.5469539,137.4076
1.5003223,140.34935
1.4882997,136.80777
1.513759,138.06042
1.3728632,137.33937
1.3667016,136.4812
1.3852094,133.25368
1.4047176,134.6369
1.2594969,130.41232
1.222061,124.44077
1.2472113,123.122116
1.210316,119.87978
1.1757258,118.98392
1.1044784,113.443054
1.1819443,110.63373
1.109234,105.10655
1.1600053,105.534996
1.1874882,103.83292
1.1892301,98.23037
1.0876538,95.61103
1.1775918,90.96372
1.068545,92.72402
1.0464092,87.72021
0.8916811,86.68124
0.8850782,86.404625
0.94079536,77.70024
0.8400269,73.143234
0.85509235,75.169556
0.75943315,71.57803
0.86427474,66.39135
0.7468252,64.02898
0.66855127,63.481693
0.65471685,59.201897
0.6762803,53.497486
0.5873668,56.82291
0.6745217,53.90675
0.6420809,44.97056
0.7100033,43.51374
0.61995405,44.151108
0.7103281,43.235813
0.56656075,40.0
0.5129063,40.0
0.51096815,40.0
0.43438318,40.0
0.55437386,40.0
0.41874367,40.0
0.38245022,40.0
0.3333918,40.0
0.26005828,40.998447
0.3765132,40.0
0.34596762,43.132534
0.3368586,47.41767
0.41468364,49.26129
0.43272236,50.259964
0.48290074,54.627533
0.51079625,59.095894
0.5197491,62.345295
0.6743838,65.83338
0.8068097,74.0051
0.9413945,74.6169
0.9671918,83.32798
1.1553056,93.41697
1.221582,94.60956
1.3185669,95.57414
1.4289454,101.00258
1.607824,109.21508
1.571493,110.369865
1.6688071,118.65608
1.6246091,124.680374
1.5852392,125.542114
1.8059173,131.28865
1.8434438,134.86792
1.7681197,132.41376
1.8806292,139.00885
1.8206174,138.632
1.7271193,141.15068
1.806614,137.43614
1.8364053,140.09041
1.8492098,141.60736
1.7444614,140.78131
1.7142503,139.24744
1.6314749,134.90933
1.6931907,135.56863
1.6183906,134.64954
1.6435857,133.3745
1.5686792,135.77824
1.5135313,129.76202
1.5539547,128.7018
1.5082432,118.18843
1.468254,123.75217
1.4741582,117.57839
1.5119711,113.29873
1.4629503,110.161606
1.4177648,106.25175
1.4416116,105.78601
1.477799,98.27712
1.4597443,93.794174
1.3373371,94.316826
1.3501551,95.20561
1.2826997,90.43364
1.2471322,87.52751
1.210925,83.25634
1.1900885,79.13561
1.075542,77.67352
1.1062449,74.40584
1.1163999,72.79247
0.98805815,65.32821
0.9027326,66.02274
0.92889714,60.262814
0.9273905,62.00433
0.868553,57.880775
0.8477957,57.889935
0.91720045,50.447453
0.8094983,53.623276
0.90299195,48.849052
0.8920643,46.272987
0.80057436,40.0
0.87957233,40.914898
0.818085,40.0
0.8660036,40.0
0.79896307,40.0
0.64430743,40.0
0.7726249,40.0
0.6194843,40.0
0.53910714,40.0
0.50827444,40.0
0.56404835,40.76095
0.48501807,42.710213
0.5036574,42.59018
0.45600727,46.729836
0.57607424,48.965767
0.61373323,55.584423
0.63245285,52.529793
0.7628146,59.72321
0.78001887,62.981243
0.9398809,73.42083
1.2240901,73.695885
1.2597184,78.3209
1.3054935,88.28403
1.3871309,95.424706
1.4996867,101.80029
1.5895876,100.8143
1.7442598,107.52071
1.8216286,110.38355
1.6775095,117.257675
1.8601635,120.28513
1.8603351,122.12648
1.911248,127.42199
1.9294487,133.10794
2.0571578,137.73596
1.9894121,138.2778
2.0127554,136.12242
1.853398,139.43913
1.9734142,139.90314
1.8986458,139.27373
1.9417123,141.28322
1.962717,138.22168
1.865729,137.77124
1.8646163,135.92242
1.7991265,136.18944
1.8940439,135.40744
1.6574556,129.35884
1.6801276,129.11206
1.6226285,127.93701
1.5282141,122.909775
1.6452607,123.29569
1.700843,117.922775
1.538313,113.47747
1.4774697,112.98769
1.5234184,110.98745
1.5154439,109.55938
1.4994375,104.68932
1.529687,103.09185
1.4370989,99.2481
1.443105,95.0783
1.4314917,94.18343
1.3490837,89.99013
1.301048,87.40874
1.2370367,79.982765
1.2286799,83.3814
1.266805,79.854965
1.1430417,73.603516
1.1111639,70.23342
1.0845525,69.32796
1.010598,66.3405
1.0017949,67.13813
1.0001626,62.697063
0.9400753,59.43263
0.9694808,54.587894
0.8691585,50.852642
0.97988826,50.141388
0.9054386,50.66294
0.93043625,45.88397
0.791257,46.548695
0.797156,40.0
0.8521351,40.815296
0.8353177,40.0
0.7570987,40.0
0.8007277,40.0
0.69488895,40.0
0.70867157,40.0
0.664436,40.0
0.57272077,40.0
0.5570762,40.0
0.6071313,41.968185
0.42842546,42.408707
0.5945258,47.906406
0.6553018,47.5299
0.59774,53.655304
0.60612136,56.29856
0.7825645,58.98569
0.8791788,61.277103
0.8712597,70.48023
0.9777194,71.753716
1.0748997,79.791
1.1866457,87.192276
1.2528076,87.17517
1.4086616,97.22375
1.4913577,103.19424
1.5869757,104.0137
1.7135187,111.09722
1.7106905,112.60999
1.7722846,118.36876
1.7807503,124.19457
1.811662,126.50968
1.7448424,129.82115
1.808066,133.22183
1.8565689,134.24551
1.8116775,138.57753
1.8768033,137.92372
1.7864587,141.07443
1.7739786,143.84477
1.7845901,141.45291
1.7046223,139.84398
1.7758332,140.36559
1.675449,138.07266
1.5983456,133.98955
1.6061969,135.09895
1.5986036,133.50867
1.5383189,126.94259
1.6059638,126.1858
1.4586378,128.65814
1.5343909,123.388115
1.382997,122.331696
1.3121305,120.00684
1.3322757,116.871735
1.3300585,112.89694
1.3734415,113.15388
