ppg,abp
1.0765219,78.235344
1.1523728,80.6605
1.1230311,85.111755
1.2948829,91.20183
1.3690225,93.90768
1.4452202,91.662224
1.4858295,97.2249
1.5411584,99.174065
1.5849559,102.2597
1.5648204,104.10122
1.5995834,104.63106
1.6733929,106.95974
1.6752425,111.181625
1.6860107,109.379105
1.7601825,114.24357
1.7600257,111.53025
1.7462256,113.841385
1.7139158,112.86963
1.6976265,114.342705
1.67115,112.30188
1.6707251,117.79776
1.648575,114.68929
1.6567866,118.47752
1.6898153,115.89667
1.6614562,112.14682
1.6443498,115.693344
1.561266,112.4921
1.5851771,111.44638
1.5459491,112.857346
1.4971168,110.66671
1.4594967,108.98028
1.5157533,108.283165
1.4524692,104.33724
1.4511093,106.88652
1.4278024,100.2988
1.3654076,101.72307
1.3551891,98.99795
1.344053,97.03843
1.3697258,99.82585
1.3952482,94.20987
1.3694147,93.233505
1.38483,91.27926
1.2788777,93.199234
1.3641984,89.52084
1.3554623,87.1173
1.2345767,87.121155
1.29069,83.837975
1.2669766,86.359795
1.2740265,82.06473
1.206182,78.828285
1.1642653,75.69872
1.1713102,77.3846
1.1094023,72.91893
1.0993465,72.16896
1.0840011,71.12383
1.0751247,70.09839
0.95072013,68.27404
1.0047743,68.554695
0.86112326,63.316788
0.9131981,61.47227
0.8012991,61.68736
0.7865466,59.697357
0.9303399,60.122086
0.8595506,60.962505
0.8850744,54.427143
0.8685843,54.865486
0.799469,53.26862
0.8481583,53.275032
0.8129106,49.39151
0.9012085,50.86074
0.89618766,50.610622
0.81424767,48.03973
0.84414834,48.27514
0.78793335,45.44447
0.78317636,44.507618
0.75235605,43.98656
0.74815357,45.610664
0.65693974,46.11552
0.6231756,43.741028
0.5934491,44.25108
0.49147746,44.890076
0.50440097,44.101833
0.5227668,44.380035
0.55512685,47.253216
0.4481254,48.02691
0.5084108,50.266857
0.49839744,52.241478
0.5228492,53.397972
0.51493216,54.18551
0.6372511,58.146034
0.68409884,59.622433
0.76886564,61.76348
0.7898513,66.74532
0.9332114,69.0619
0.9987683,69.03453
1.1351303,70.458374
1.2449278,74.92801
1.3328859,81.48369
1.4644691,82.88959
1.4685425,80.76687
1.5051173,87.42107
1.5542138,89.21701
1.645774,92.023575
1.6942704,94.98946
1.7532593,100.02645
1.8718473,98.75189
1.828042,100.38212
1.8462983,104.19526
1.9246798,105.81431
1.9600973,109.760025
1.9715635,109.37673
1.9103439,110.0378
1.9641844,111.53077
1.9278488,112.28405
1.9236579,114.082855
2.004356,113.010605
1.9331682,115.35149
2.0081158,114.84419
1.8787869,115.76624
1.8905332,117.44249
1.9042162,117.52013
1.9856154,115.23085
1.8961331,116.378105
1.8421375,113.22807
1.8149025,113.69551
1.7567493,113.68234
1.7679709,112.666
1.7137128,110.001495
1.6415281,106.31914
1.6476974,105.80566
1.6105709,103.68225
1.5968122,105.35481
1.5847346,101.34086
1.5839512,102.403885
1.4929793,97.29741
1.5612077,96.94974
1.5825123,95.5592
1.4709873,98.7327
1.430706,94.62546
1.4743103,92.21149
1.4408746,89.36589
1.4698644,86.256996
1.4086697,87.87729
1.4392306,82.56119
1.4409821,82.59805
1.412987,82.174286
1.3491048,78.39302
1.2898881,80.11559
1.2320454,77.79428
1.2598722,75.96645
1.1351125,74.67179
1.237442,74.53001
1.1357259,72.98057
1.1126599,68.84726
1.1456854,67.21023
1.0450792,63.466984
1.0420344,62.954346
0.9917621,63.434425
0.941306,62.040066
0.98908496,60.26893
0.9939416,59.88918
0.9786211,57.842495
0.91883856,54.877083
0.8780501,53.436207
0.88079906,50.074383
0.89207387,48.62775
0.9120221,49.593025
0.9456965,46.28808
0.91479695,49.164223
0.86518466,48.458576
0.77735955,45.309208
0.7638817,45.322273
0.7177747,44.84191
0.73487204,45.500862
0.6511592,44.607082
0.67026436,41.005016
0.61148775,44.006893
0.5210507,44.366394
0.5697871,45.486362
0.6208367,48.12804
0.46919993,45.506836
0.49262452,46.57656
0.5382855,48.976566
0.47466758,51.346714
0.5657425,52.418373
0.5127412,57.3006
0.5878287,58.30735
0.6998139,56.08085
0.7249942,61.818844
0.7355124,63.712463
0.7802898,66.35956
0.92547816,68.61693
1.0336254,72.68927
1.0870085,74.5166
1.1647315,77.46056
1.2483897,79.973236
1.3578243,82.955666
1.3890008,86.064514
1.5035806,89.5539
1.5230232,90.53426
1.5282248,91.789375
1.6384305,95.139725
1.6552896,97.68893
1.6789241,98.85984
1.7534689,102.78724
1.8762038,106.66078
1.8565059,111.000626
1.7726169,110.766785
1.7740883,113.20205
1.8193433,112.659134
1.8118232,112.49448
1.7954623,115.32024
1.8036429,113.92671
1.863436,114.40681
1.7964627,114.92726
1.7515154,117.25305
1.748963,116.83313
1.7357856,115.73269
1.6634887,113.84056
1.7645332,114.2871
1.5564076,114.12025
1.5778025,110.565735
1.6410474,111.96076
1.519702,111.145294
1.565217,112.74961
1.4517777,110.99653
1.4393015,110.02159
1.3863009,107.10294
1.2948613,105.31054
1.4228534,103.02078
1.2971119,100.734024
1.2772527,100.43367
1.222601,99.3871
1.3004125,97.41819
1.3148636,96.19985
1.2734872,91.654335
1.2322184,90.110085
1.2516774,88.55519
1.2163897,89.26903
1.239623,85.919846
1.1326238,84.40237
1.1804968,83.602684
1.198978,81.73498
1.1710731,80.92989
1.015855,79.58759
1.0003219,77.38646
1.0370407,74.759346
0.85776913,73.49686
0.9394061,74.58058
0.8378512,70.687325
0.8411094,69.35371
0.7640813,66.85279
0.7761496,65.822754
0.74370056,64.62224
0.62737507,63.009995
0.6704502,62.451923
0.5839778,59.50056
0.6465503,59.146866
0.6459296,57.541805
0.5432596,57.027157
0.6824644,55.118664
0.4921189,51.244614
0.5413775,52.22197
0.57533085,51.594234
0.509774,50.020153
0.603261,51.50869
0.5125654,46.12844
0.5474,48.931744
0.48193637,47.52343
0.4761366,47.44215
0.4308528,47.334602
0.39725372,46.259163
0.36315897,43.776997
0.31452876,40.90812
0.31138986,44.903538
0.23790061,45.730927
0.15915814,46.08376
0.17587698,48.35105
0.16009593,48.486965
0.12676096,50.222492
0.16530176,50.52053
0.20809694,53.073296
0.18276604,53.211327
0.10406196,57.037388
0.25171697,59.45987
0.32949266,58.53011
0.43873876,64.9685
0.50527734,65.71203
0.4710883,69.77859
0.574299,72.50743
0.6783427,73.49522
0.7566461,76.710075
0.9057599,78.5545
1.0440315,83.69272
1.0306094,86.566864
0.9470643,91.27451
1.1832798,91.86729
1.2464633,94.48143
1.2958523,95.38685
1.365493,97.3526
1.2895409,100.125244
1.3885947,103.69263
1.470381,106.43162
1.4200584,107.01641
1.4249706,108.65956
1.4954613,109.90566
1.5126957,110.78236
1.4610605,114.04448
1.4663701,113.397316
1.4496511,116.715645
1.4458814,117.65622
1.3949393,117.40164
1.461767,116.35885
1.3898171,116.95911
1.310463,116.86139
1.3894577,115.56112
1.3207523,113.31413
1.3272548,111.12374
1.2506719,111.20455
1.3314126,109.87814
1.2390494,111.214294
1.1861064,107.10907
1.1316444,107.471275
1.1321318,105.581314
1.1055828,105.814896
1.0729938,106.22663
1.0978993,101.4295
1.066336,105.12991
0.9938307,99.23356
1.0057791,98.89313
0.9768342,96.47052
0.8852222,95.8823
0.92669165,96.20619
0.8870003,92.30667
0.8699655,91.35692
0.9399737,90.49355
0.98027486,88.05319
0.9577368,85.16341
0.82800215,84.30325
0.8187082,87.0316
0.73347723,81.35618
0.79612243,76.714714
0.7457495,77.90762
0.6800299,75.85881
0.75930506,74.25575
0.5919707,72.784645
0.5918233,74.408356
0.53268313,73.2209
0.5156056,67.93889
0.50663084,67.46635
0.4254308,65.839775
0.4742503,63.63558
0.32866845,65.32892
0.40095004,60.93496
0.30908805,57.391685
0.3434125,57.839535
0.33700198,57.680084
0.31060264,54.785
0.38183135,52.963974
0.345246,53.128403
0.31375676,50.407387
0.28697345,48.04205
0.28995532,48.196106
0.24327408,47.212135
0.20955957,45.828922
0.16908903,47.91127
0.24829634,43.39358
0.13055095,43.84523
0.26328856,44.815876
0.13426873,42.21401
0.119436145,46.047783
0.03663446,43.773502
-0.014683768,47.19964
0.041524433,44.84241
-0.038436353,43.767994
-0.061349377,49.027103
-0.06784231,48.10292
-0.020700438,47.903564
-0.045363307,52.863705
-0.049749725,56.590317
-0.0039918083,55.883503
0.07094254,56.656593
0.12836596,59.84774
0.050048932,59.864017
0.27635142,65.22919
0.3232886,69.241844
0.45988306,69.69908
0.4530452,74.08854
0.5939825,76.71603
0.65894717,80.08339
0.8190723,83.20188
0.8972234,84.139404
0.8935434,86.42652
0.97070587,88.32079
1.097441,93.688614
1.1318505,94.16473
1.1570172,96.10409
1.2248366,100.48914
1.1880326,102.31418
1.3677243,105.75252
1.3927735,107.242935
1.3368312,108.39576
1.4044077,111.609344
1.3575813,111.6365
1.3735031,114.6275
1.3403735,113.53767
1.4395171,115.5872
1.3631575,113.823654
1.3353775,114.68522
1.428646,116.02443
1.3988483,115.72562
1.3802607,114.93883
1.3322194,115.348305
1.3635693,113.90519
1.3358463,111.89298
1.2212304,112.93947
1.2597637,116.48546
1.2644235,110.014496
1.1957468,112.80238
1.1780032,110.351875
1.1089098,109.08123
1.1465479,108.52392
0.9838877,107.54136
1.0220367,105.02336
1.0494698,99.6675
0.9849425,102.97996
0.92329776,100.05951
0.96798795,97.51534
0.8947468,93.99432
0.9825438,93.778694
0.9926112,94.308685
0.9753331,89.84807
0.9800638,89.96434
0.9683639,86.088264
0.96497285,86.575485
0.84481704,86.910904
0.8646263,82.625946
0.857779,80.41825
0.8288122,81.89793
0.8577448,81.925255
0.8362248,76.83168
0.74515414,74.77426
0.70496213,75.165436
0.63472027,74.64995
0.6358443,72.03358
0.62863,67.99589
0.57761884,68.472145
0.6133085,67.273476
0.47365144,65.5039
0.42295465,60.785427
0.47672075,60.93908
0.54691637,62.440163
0.46805143,59.302395
0.5117714,59.738476
0.4999117,55.527523
0.4270018,51.452103
0.47145048,53.0701
0.47203335,51.46163
0.43507737,51.234776
0.43011504,49.416035
0.43807867,51.296474
0.45962217,46.066936
0.41949272,44.327568
0.44606125,46.062683
0.3592018,44.846497
0.34373605,42.404118
0.30022904,41.125652
0.35529682,42.906643
0.15113851,45.573624
0.19249144,43.284893
0.18657656,42.6616
0.14490506,44.484745
0.14720964,44.691654
0.18197888,48.72967
0.17497149,49.91316
0.19520761,50.47689
0.1773029,52.8165
0.25398034,53.808064
0.24527305,56.804585
0.27568027,60.5125
0.44005197,60.671867
0.4603207,62.768303
0.56187826,67.50672
0.6471125,68.904755
0.62533295,72.0836
0.83747756,72.95662
0.9203869,79.79016
0.9904505,80.28183
1.0497912,81.4868
1.1764389,86.969154
1.21759,90.3689
1.3548757,91.248634
1.3339999,95.65545
1.4767334,98.31067
1.505441,100.13931
1.4659966,100.998375
1.5988297,100.9022
1.6383749,106.036804
1.6643422,107.39081
1.6474338,107.70379
1.6693203,111.28826
1.6213778,110.52359
1.6273648,116.83171
1.7436212,115.74504
1.6447814,115.59362
1.6794537,112.48656
1.7211316,116.90593
1.6983263,117.38603
1.6186298,115.7003
1.724533,115.98435
1.6253356,115.92233
1.5790172,116.47946
1.5917348,110.68207
1.5440305,113.95392
1.5330423,111.78584
1.4479734,109.91948
1.4867277,113.28253
1.4532353,106.214615
1.4345934,105.84296
1.3872888,104.44699
1.4081116,104.59439
1.3829275,103.84393
1.3642192,102.39027
1.343026,101.99297
1.3354226,100.51006
1.3160607,97.67457
1.261399,95.49148
1.2892905,91.52861
1.3245225,92.51689
1.304017,89.35396
1.2674068,88.99879
1.3054979,89.279205
1.2446429,84.61801
1.2495553,84.45475
1.2413313,81.92354
1.2112721,79.19065
1.1997291,81.40334
1.1772549,81.21667
1.0973871,77.639015
1.0734968,73.84873
1.0157876,70.68427
0.9716327,71.469284
0.92592454,69.963104
0.9390497,68.64726
0.9078775,65.550766
0.9044769,67.01092
0.81619596,64.50358
0.88769835,61.428555
0.8299292,58.718163
0.7455832,56.056107
0.8146031,59.875698
0.79825497,56.396633
0.8534054,56.377495
0.83952165,52.395355
0.8252091,49.777023
0.77606577,52.822746
0.8436711,46.216347
0.80761105,47.858433
0.7274993,46.987984
0.75034386,45.57661
0.74618214,45.80351
0.72312784,42.92762
0.68278193,44.18631
0.6505844,46.202286
0.6155169,43.771988
0.6555805,46.24918
0.5563873,41.632904
0.5130645,46.735317
0.51485854,44.937656
0.5023636,45.967983
0.45221564,48.198494
0.5545787,51.892784
0.48219052,49.318256
0.50687647,54.263325
0.5132146,53.60511
0.59095097,55.299324
0.6526561,56.07762
0.69270205,60.66079
0.76189476,63.652885
0.86845374,67.12067
0.93118227,67.44896
0.991921,68.50361
1.0974792,74.90097
1.1349374,75.17662
1.2700601,77.68932
1.3352462,83.85708
1.4586731,85.36871
1.5189352,86.26034
1.5329076,90.5403
1.6135854,91.67354
1.7250962,96.01371
1.832219,98.21104
1.7927936,101.55166
1.7981114,103.65239
1.8913875,103.0961
1.8714219,105.709854
1.920654,109.949524
1.9083049,109.10649
1.9798055,110.883766
2.003908,113.375114
1.9324114,112.31483
2.0222716,114.04413
1.9699454,114.611755
1.9866765,116.37849
1.9512918,115.82842
1.940688,114.48951
1.9180586,112.858406
1.8700023,117.93247
1.894968,116.749146
1.8863002,116.19943
1.7996603,112.99369
1.8343806,113.06128
1.7367659,110.33946
1.726734,106.619
1.7455224,110.371864
1.5848906,108.294624
1.6103755,107.36199
1.6320181,103.76544
1.5470345,106.287994
1.593583,103.28467
1.5772276,100.5561
1.5532559,98.40724
1.5134697,98.525505
1.508791,96.72506
1.5300777,94.39114
1.5056331,92.21864
1.5095327,90.23606
1.533293,93.180984
1.4606664,87.85064
1.5115696,87.29393
1.4686769,82.30358
1.4041936,81.83852
1.3375909,79.470314
1.370083,79.05922
1.3052473,79.09124
1.2726649,78.70465
1.175617,73.856224
1.2263662,73.29652
1.164617,73.62188
1.1183914,71.54937
1.0712788,67.618576
1.1074742,69.9044
1.0387485,66.21064
0.9560274,66.82206
0.9110879,63.15974
1.000798,61.26879
1.0001678,61.358818
0.9432498,58.262268
0.98666054,58.52126
0.91580945,53.419262
0.94027156,55.12707
0.91687995,50.85948
0.90692693,50.27504
0.9597181,48.012833
0.88561505,54.221825
0.86911887,48.48989
0.83931506,46.809296
0.8506599,42.959644
0.80889016,46.320923
0.752244,43.55541
0.7401977,45.04018
0.7190172,44.39395
0.63256824,43.572582
0.60103756,44.969604
0.5874583,44.584835
0.60049015,44.94233
0.4871158,46.82572
0.55335873,46.058865
0.5587238,46.30736
0.4904262,47.964417
0.45887333,50.91749
0.5738893,51.935715
0.6096681,55.85484
0.655962,56.02213
0.6232087,58.602467
0.70958906,63.52754
0.8668381,63.47471
0.8972376,68.03311
0.92977226,67.93341
1.062068,73.28031
1.1766415,75.38703
1.2038287,79.37043
1.2502177,78.7241
1.346605,83.429794
1.5243903,88.96607
1.5018766,88.86397
1.6552495,92.213326
1.5735202,96.35749
1.6384417,95.90892
1.722456,100.434456
1.6690295,104.2834
1.8062304,102.59007
1.8065475,107.309135
1.7871119,109.84909
1.8068314,108.610596
1.9236838,110.42215
1.8262855,111.67037
1.8949119,112.75048
1.8076113,115.88782
1.9486339,114.42847
1.818356,116.697914
1.835636,116.12503
1.8727252,117.55719
1.8132322,112.86061
1.7320105,115.95086
1.7432857,117.72036
1.7404292,113.53566
1.7005526,117.282394
1.7023491,115.68973
1.5788846,113.58147
1.6176802,111.04968
1.4879606,110.91656
1.4613018,108.13326
1.5238914,111.64892
1.4427745,109.86972
1.4301018,105.1248
1.3881338,103.88712
1.4249847,101.19033
1.3793548,101.71231
1.3656397,96.441826
1.3909537,96.16996
1.3110728,92.22409
1.3049145,94.56121
1.2441111,92.00132
1.2519536,90.20659
1.2089564,89.29316
1.2610048,85.900665
1.2427738,88.83865
1.0971396,84.94448
1.1943318,83.71426
1.1421428,80.16471
1.1644953,77.78898
1.0234048,75.12692
1.0369664,77.632706
1.0454783,74.3647
0.91025144,74.89764
0.9000782,74.08932
0.9531753,69.32042
0.80657613,70.75575
0.7014839,63.70754
0.8355649,66.67372
0.73695374,67.355156
0.74002415,60.630455
0.66684693,62.22485
0.6314785,57.98475
0.6717386,54.76739
0.66091555,53.337635
0.67951185,53.844574
0.59789693,54.537163
0.5838921,54.377304
0.6071152,51.900063
0.62549484,49.687714
0.60865235,48.079494
0.5760661,48.28644
0.6101048,44.678364
0.5981537,43.08565
0.47695255,45.691456
0.4506493,42.73883
0.40816963,45.431557
0.44975278,41.93725
0.29325792,42.13317
0.31102836,45.081017
0.23715031,46.041885
0.2512918,47.2841
0.14114,47.882427
0.18737972,48.53885
0.13276917,50.042202
0.13049528,49.934498
0.22427107,52.336834
0.27972162,48.5107
0.39018214,55.929592
0.30268598,58.306057
0.38233474,59.5016
0.43213335,64.58858
0.42581928,65.77597
0.583347,66.72043
0.67569375,70.43602
0.73949903,76.37532
0.9031019,77.56372
0.9499365,78.020096
1.0851525,81.64881
0.97398686,87.196846
1.1140968,89.097626
1.1864445,90.01111
1.2741406,90.84498
1.272883,94.159004
1.3561016,99.52856
1.3881816,102.47588
1.4433054,101.84671
1.4515214,107.55466
1.5017236,107.56615
1.5220152,107.821724
1.5417935,109.77961
1.5108513,111.93777
1.4834807,113.772156
1.5698828,112.568146
1.4915916,114.78837
1.4490957,116.60966
1.4579389,114.66543
1.5036429,115.69909
1.4719007,115.00707
1.4267175,112.36276
1.3912579,118.09494
1.409074,115.30756
1.2935662,115.43528
1.3014882,112.62607
1.2984531,109.39753
1.1929991,110.26354
1.2321067,108.89288
1.2132672,109.05565
1.195417,112.27616
1.0838351,106.952034
1.154549,109.94775
1.1228821,103.81422
1.1397617,101.46277
0.9736718,97.84142
0.9894017,98.885445
1.0331166,97.365135
0.98846304,95.617874
1.0438063,95.4766
0.8857631,91.4748
0.98566335,91.20201
0.8833583,88.48944
0.94578815,86.02733
0.8910704,85.10275
0.8684959,82.23646
0.90323925,86.60875
0.83320916,80.12375
0.8290585,82.317795
0.6992717,77.09269
0.73780924,78.83805
0.61612624,76.69104
0.7105879,72.625206
0.66651547,71.92777
0.5609744,70.02351
0.56128085,66.49797
0.4164534,65.596504
0.4660831,69.10427
0.4435229,63.585293
0.3379075,62.39662
0.41968778,57.145706
0.35284874,59.125595
0.26348314,58.34634
0.39738345,55.885643
0.3204014,54.497833
0.33878002,52.973618
0.3445966,48.150726
0.32870868,51.337196
0.32550433,48.762356
0.2851418,47.893097
0.35788384,45.280087
0.31964394,46.991344
0.16456443,48.266514
0.33787155,44.543034
0.23394959,44.26712
0.1644142,44.754204
0.15492137,44.877113
0.16163614,44.394817
0.088446766,45.391167
-0.004691191,41.072937
0.0510491,46.27951
0.05364547,44.151493
0.03030821,49.860565
-0.14976507,47.727905
-0.12577036,51.496693
-0.058302797,50.773506
-0.012916153,52.839592
-0.02191627,53.95665
0.05446008,53.913834
0.12414133,62.93021
0.18626925,65.71334
0.24043462,61.67162
0.4143329,68.83685
0.4499066,70.19478
0.4941977,73.05092
0.624112,72.66452
0.6817239,76.2942
0.8368964,81.51839
0.80522054,87.21123
0.93911296,84.869225
1.0447884,89.622894
1.1240919,92.294685
1.0697825,95.58683
1.1891626,97.021255
1.2027097,97.11284
1.2570091,104.722
1.3129803,102.95505
1.2898245,106.42665
1.3654313,107.5156
1.3215384,107.43671
1.2819151,110.591835
1.3041599,105.17975
1.3504062,111.677956
1.4288234,115.76206
1.4013752,115.08814
1.35632,115.88829
1.4130539,114.49919
1.2551852,113.823265
1.2775689,112.09268
1.2866395,112.866104
1.3145403,115.699135
1.237802,114.93269
1.2148305,114.16962
1.2016885,110.33166
1.1507466,109.17345
1.1518035,109.62935
1.1753707,109.45216
1.1566894,106.95739
1.0084969,109.74309
1.0594226,104.81522
1.0593803,103.85608
1.0394309,103.106705
1.0351819,101.3512
0.9703746,98.55343
0.9388544,100.1415
0.9185609,96.731575
0.9358619,95.82619
0.9532996,91.27056
0.961916,92.07952
0.8673681,89.484055
0.88484305,86.77387
0.8669433,84.68137
0.9091198,85.4176
0.8278747,86.40547
0.85762537,81.86394
0.798776,80.97852
0.7720644,81.82638
0.7820907,75.131226
0.73190504,75.64867
0.7166038,73.49084
0.64640874,72.784874
0.57297814,70.22092
0.5538761,68.164894
0.5160327,67.14493
0.5194284,66.748184
0.51087266,63.794342
0.4541257,61.48011
0.3936703,62.43393
0.40636602,63.349335
0.42878115,57.80505
0.38717332,55.78451
0.45291373,55.190174
0.3242038,54.222385
0.39514747,52.825016
0.39154023,50.010685
0.43452004,50.366985
0.41880184,51.5958
0.4074357,47.227345
0.34802878,49.311237
0.41590354,44.73965
0.36361104,47.00627
0.32027644,44.991688
0.31835645,45.036377
0.2769354,44.80433
0.29498518,43.818035
0.17958455,42.158276
0.22251217,46.41222
0.15207595,44.09446
0.17177734,43.981236
0.18472463,48.797157
0.13299955,46.499573
0.13988726,46.616
0.08735642,50.685005
0.16904095,51.03581
0.17058991,53.54355
0.20431161,56.479507
0.18498117,57.688534
0.41303396,59.97498
0.43161225,64.44073
0.5050253,68.394714
0.5610043,67.58591
0.6209448,71.31766
0.7789615,71.15322
0.8311991,76.899666
0.9622888,83.911575
0.97729856,86.428856
1.1069864,84.90881
1.2248653,89.17371
1.2807665,89.5235
1.2540115,93.9631
1.3726357,95.002785
1.361538,97.43319
1.4553652,102.11867
1.5269448,103.4793
1.5529597,105.32471
1.6070822,109.22294
1.5254929,113.39945
1.6083916,110.65802
1.5958364,110.26696
1.6883297,114.27495
1.6373014,113.56066
1.6558075,117.402954
1.6549636,116.15088
1.6062421,113.61288
1.6398581,117.11927
1.5990148,121.21296
1.5344486,117.796455
1.5266756,115.1094
1.5493401,114.18589
1.4940296,113.83168
1.4544209,115.778755
1.4595683,111.49192
1.4258426,109.047455
1.3689582,110.47341
1.4190027,108.10435
1.4032214,110.92871
1.3535107,105.893585
1.384151,102.048416
1.2786798,102.77247
1.3115219,101.49617
1.2854815,99.554504
1.3163723,97.301155
1.2997729,97.02712
1.2908874,92.94165
1.2307911,92.04368
1.2728616,93.17541
1.2159351,91.14906
1.2210497,85.93923
1.3194587,87.908806
1.1831428,83.868515
1.1548071,81.9444
1.2180269,81.74237
1.2179457,78.85367
1.1552918,78.621025
1.0734868,79.37279
1.0911454,75.85239
1.0562214,76.93804
1.0078574,73.664825
0.8957734,71.99745
0.8910949,71.22659
0.8964186,67.70087
0.8294485,68.95851
0.8150076,65.10301
0.85197616,63.734764
0.80263793,62.05117
0.78095645,60.752346
0.79885787,60.23597
0.78689814,56.329155
0.82718116,55.271088
0.70689833,54.675014
0.7724584,54.622692
0.78889954,54.345654
0.7566632,51.058025
0.8328163,50.36474
0.83182716,45.541245
0.7287472,47.004044
0.6607111,48.064068
0.78512454,46.333134
0.70422673,45.862713
0.56303173,44.328102
0.67140704,41.972145
0.6344815,45.62957
0.54349905,45.65661
0.45541003,47.3046
0.53523886,44.87509
0.4929608,45.70183
0.37551415,45.496143
0.49740234,47.33543
0.4860373,49.42318
0.44395354,50.06147
0.45741823,49.32318
0.4906744,53.64991
0.5022789,56.135994
0.5799045,58.06553
0.6811158,56.74155
0.6590809,63.107533
0.8170927,60.82161
0.9034532,69.87382
0.97190326,69.67136
1.0674236,69.11
1.1968385,76.44334
1.3382092,78.634514
1.3498402,82.57339
1.4487987,86.6217
1.5130355,86.36962
1.497893,91.40195
1.6123708,91.98478
1.6903509,96.48802
1.7072622,98.43928
1.7216027,101.445076
1.7954264,101.078804
1.8020635,102.3217
1.8788694,106.0707
1.95204,109.068825
1.9292,107.871574
1.8846586,112.02276
1.8804213,107.31972
1.8953935,113.59076
1.9004639,113.71995
1.9695857,115.81221
1.8760097,114.33676
1.9217657,115.20737
1.8853757,115.920555
1.910023,116.90059
1.9110076,111.44156
1.8282247,114.62651
1.8450469,116.37127
1.8411317,114.216484
1.7785816,113.62682
1.6805108,113.59888
1.7365004,112.05886
1.632648,111.84719
1.6886903,105.818634
1.6414582,105.491035
1.6471483,104.646194
1.6305643,104.2734
1.585118,100.59487
1.5751623,101.117546
1.5675149,98.35557
1.5351989,95.1664
1.5218042,95.6278
1.4542189,91.35605
1.4888437,94.34205
1.568583,91.02102
1.557278,90.06604
1.486954,85.18525
1.4537375,86.695
1.4653404,87.59508
1.4259678,84.308395
1.4542091,81.086044
1.3151569,78.965126
1.3856289,80.33322
1.3369313,78.34564
1.2160146,73.27604
1.2266383,75.67023
1.2046344,74.84744
1.0515285,71.411156
1.1679642,71.57551
1.1049904,68.383835
1.0227685,65.16672
1.0256492,66.45627
0.96641314,60.51791
0.93093115,62.50846
0.9162976,59.480885
0.9187464,56.842262
1.0121208,59.252674
0.91113555,53.977272
0.9655436,54.223255
0.9096155,53.342022
0.9401175,50.517723
0.9515318,53.546494
0.90664864,50.143787
0.9443934,44.91292
0.9794845,45.049313
0.79034436,45.68227
0.8273981,47.994144
0.78740805,44.70363
0.7582109,44.233204
0.6728072,44.90605
0.71914494,43.84609
0.6501419,43.789223
0.5556042,45.173553
0.56666034,46.482685
0.49481744,43.412678
0.51600045,46.72525
0.5858238,47.878716
0.5561548,49.780674
0.5978978,50.87871
0.59721607,56.30848
0.5584634,55.05809
0.61704665,56.50141
0.69800234,61.304054
0.81084216,59.721573
0.7516442,63.20708
0.8425085,65.42733
0.9693229,68.36203
0.9823794,71.96461
1.1661375,75.852806
1.1941969,77.79483
1.2776291,80.90972
1.3540826,82.349785
1.4581175,85.09896
1.5262442,87.72743
1.5762702,89.322464
1.6667695,95.46018
1.6773776,94.850426
1.7022831,101.28843
1.711012,99.84022
1.9188927,106.34995
1.8761104,106.29035
1.9315099,106.89417
1.9324234,110.23775
1.9046487,108.866394
1.9157884,111.694
1.9360181,112.70659
1.8047553,115.040215
1.905769,117.060646
1.8458751,117.01474
1.8833476,116.20345
1.813924,115.162125
1.9086864,116.23713
1.8135055,115.78272
1.7682319,115.430275
1.7798516,113.38097
1.6919538,112.89531
1.709245,114.40332
1.6728835,110.78172
1.6880515,109.5339
1.6275086,109.11317
1.5746442,108.822014
1.4834323,105.359764
1.5231078,102.363014
1.4520497,102.409485
1.4133494,104.42708
1.4552779,105.24756
1.443737,100.212585
1.4421304,96.86639
1.3428638,95.67718
1.3917229,97.11989
1.3513815,96.87584
1.3201896,92.573265
1.386453,89.419426
1.2535372,87.26512
1.3304822,86.72483
1.2598121,87.17014
1.2681746,79.65051
1.1806115,81.145676
1.1778889,81.56224
1.192354,79.42647
1.1368107,76.434746
1.0379587,75.498505
0.9953668,77.55967
0.97289735,75.39566
0.925246,72.68545
0.8784265,70.70461
0.8140684,68.27812
0.75586784,67.55929
0.83349043,67.534805
0.70636874,64.39097
0.74182886,59.5337
0.6552208,60.949783
0.625194,60.266815
0.64781857,55.149593
0.7022934,55.485683
0.69979113,57.816772
0.68979895,54.670387
0.6557862,53.372585
0.60793287,52.28233
0.64627504,48.364292
0.6790055,48.11291
0.6684399,47.925934
0.6093069,45.88944
0.5319461,45.670303
0.52601004,48.927372
0.584975,45.857758
0.46869642,42.930565
0.492919,44.448284
0.4790715,43.288673
0.34368092,44.47198
0.39342475,43.684433
0.31330997,46.224148
0.24109887,48.709152
0.19317336,48.356403
0.17342712,50.08413
0.23066261,48.763332
0.28690284,51.026226
0.3225144,55.735386
0.3443194,54.090378
0.41378582,60.392307
0.45408964,60.06554
0.47924376,63.614574
0.6721375,64.77194
0.638972,70.87609
0.7489437,72.16005
0.7317161,72.54333
0.91846603,74.175026
1.0338699,79.87886
1.0782889,85.37453
1.1144354,84.23133
1.1135327,89.62165
1.238279,90.613304
1.3352365,90.624916
1.2716653,98.54364
1.4747794,100.83228
1.4959862,101.72171
1.3990725,104.890434
1.5014063,107.190926
1.455088,107.148674
1.4853641,109.653275
1.500753,112.14868
1.5350057,109.65283
1.6276641,111.77688
1.6070049,111.09927
1.6554768,113.35603
1.4812421,116.46995
1.5484929,116.3859
1.5280539,119.14748
1.516821,116.725334
1.5170622,116.36736
1.4433026,113.9443
1.4074702,112.96783
1.4777205,113.59053
1.4226962,117.91075
1.3837799,114.51372
1.3154871,109.44786
1.2434577,111.483955
1.2272786,109.952095
1.1790315,108.70655
1.1500385,103.80132
1.1475165,105.488785
1.2160994,105.89629
1.131945,103.5714
1.1093125,99.57512
1.0230982,98.63111
1.0613227,92.097885
1.0045999,95.420525
1.0300153,94.05161
0.97495604,92.55993
1.0561882,89.8448
0.94819754,90.01562
0.9629914,88.56472
0.92194176,84.95836
0.8503974,86.04791
0.9088686,83.06172
0.82852024,83.1025
0.86528367,77.078186
0.74619186,79.484215
0.75537133,78.20964
0.78420985,76.014465
0.6562603,73.29983
0.709471,71.02634
0.5614679,69.90967
0.5632986,69.720665
0.48168874,67.4365
0.44129482,64.642715
0.36529073,65.34779
0.4642681,64.23864
0.5022289,62.192314
0.31007907,60.31001
0.38133854,58.110355
0.41849297,55.888405
0.38866922,56.172997
0.36407927,55.05795
0.33321914,50.028175
0.32620952,52.373306
0.3985961,50.95222
0.28560373,46.954536
0.30214164,48.434464
0.31106853,45.763947
0.2593432,46.259827
0.27510577,45.79578
0.12506491,44.145008
0.23089269,46.330868
0.19550465,43.21157
0.14103404,43.016308
0.066692054,43.42225
0.13035335,42.199802
0.078219175,46.509243
0.0005735376,45.614464
-0.04169217,46.887817
-0.006258171,49.99209
0.011649721,50.44059
-0.03597082,51.98483
-0.019476153,50.555855
0.047503572,54.886375
0.085468665,57.282104
0.13428779,59.030434
0.19128056,62.29977
0.29940656,61.035786
0.36637178,65.82389
0.45994934,70.07661
0.53138936,72.44362
0.6477856,76.72335
0.5802465,76.07945
0.7456974,79.55494
0.92171377,83.36064
1.0000871,91.52009
1.0280927,91.4359
1.1157557,94.44025
1.1322533,94.66086
1.1062322,98.43101
1.2753278,99.728134
1.2226384,103.57406
1.29741,104.26698
1.2922417,105.23118
1.3450415,106.82771
1.3554152,109.16955
1.3479636,112.014114
1.3413309,115.01144
1.3620069,112.195145
1.3594006,114.61599
1.311816,116.83122
1.311496,113.16335
1.337652,117.3436
1.3522202,117.57751
1.3417498,117.10182
1.2383164,113.848434
1.2366866,114.36999
1.2338616,113.49212
1.194445,116.58872
1.2380204,113.66457
1.1732833,113.48942
1.2129788,109.487274
1.0330853,109.636185
1.094023,108.77959
1.0606213,109.43028
1.0023835,104.020836
0.9810151,104.87856
1.0210867,101.16243
0.98428583,101.58432
0.97114176,100.31528
0.97421104,99.45745
0.9914771,95.39908
0.9775299,93.93099
0.92679965,93.28869
0.92843133,90.48589
0.9618623,91.367226
0.93560284,90.79462
0.879411,88.00969
0.9001948,86.371506
0.83826727,85.477325
0.7652354,83.868774
0.80124265,80.087654
0.7500817,79.56445
0.78902787,77.966286
0.7110991,77.36068
0.62328964,72.35198
0.63129824,71.78685
0.51441085,69.11473
0.43955213,71.21023
0.46233374,67.87217
0.46307468,65.82301
0.42230287,62.473534
0.4088427,63.21325
0.4140594,62.29214
0.38007894,59.989277
0.42071736,58.763447
0.3368212,59.96276
0.38548434,53.363045
0.37021285,53.65244
0.43541104,53.166306
0.3691288,47.338165
0.3929239,50.874264
0.43827468,47.256676
0.36419836,47.419025
0.35761958,49.321346
0.28563866,45.11343
0.3738822,44.009285
0.24928884,45.29869
0.31913486,46.920635
0.1985664,47.016083
0.23719954,44.07248
0.18302174,43.802097
0.0460667,47.287083
0.013769727,45.25085
0.08810332,45.291637
0.019418662,46.713367
0.052366063,49.28959
0.017433405,48.1925
0.10830066,48.320152
0.09632631,53.74035
0.19479091,54.851692
0.1959248,55.35824
0.20413648,60.880283
0.29932207,61.784798
0.3436022,62.02802
0.5402544,65.397156
0.5270826,65.06357
0.5543877,69.709114
0.69785655,77.109535
0.8529002,78.37084
0.90617526,79.47282
1.040274,81.98796
1.1539294,86.33472
1.2034285,87.4545
1.1707859,88.19325
1.2770981,97.31132
1.3563806,95.761986
1.4436454,99.51349
1.4057754,103.99245
1.5231168,106.18262
1.509101,108.4532
1.5337876,111.245056
1.5477375,110.74724
1.511744,113.47977
1.5389757,109.430336
1.6001083,114.257515
1.5620536,114.42851
1.6944681,114.484795
1.5917206,113.48604
1.5727198,115.88665
1.5690218,116.344666
1.5163773,114.27229
1.60335,113.21633
1.5217282,113.56507
1.4920158,113.729034
1.4840902,113.65345
1.4349616,111.32385
1.3675605,113.75951
1.3923508,108.17595
1.4355823,111.17635
1.405341,110.08814
1.3535433,108.26211
1.2496656,107.24789
1.258486,104.09206
1.3041142,101.621666
1.3581437,102.86254
1.2601501,101.41555
1.2124763,95.977036
1.2166777,96.44548
1.2448325,94.73204
1.2384775,90.838005
1.2265589,92.10474
1.2374715,90.699776
1.1424462,90.15234
1.1458389,85.18856
1.1359632,87.037346
1.1112413,82.61778
1.0637908,82.25693
1.0975407,80.73087
1.0939556,80.012955
1.00308,79.27494
1.0191964,75.54939
0.9636204,78.46822
0.93992215,75.42067
1.0008664,73.521774
0.7793074,69.44398
0.85032135,67.068886
0.774263,67.9142
0.8130096,65.49361
0.81187814,61.970924
0.7670083,64.65923
0.6406705,59.782784
0.68465436,56.510666
0.7204754,59.32154
0.7716616,58.497143
0.65654653,57.15824
0.7504691,56.350475
0.74515045,52.756004
0.7517212,49.622173
0.7602716,48.966213
0.64152336,48.40615
0.65318346,46.553078
0.6905204,44.920612
0.6665787,45.77942
0.65498936,46.671494
0.686739,43.17865
0.56475073,40.902176
0.52185935,44.97338
0.52346575,40.0
0.4193224,44.332382
0.49363017,47.550934
0.45914462,46.034084
0.5273244,44.323917
0.421522,44.99957
0.51005244,46.991158
0.38275474,48.33874
0.4095044,52.346035
0.47053334,52.39688
0.48793212,55.85205
0.65881544,57.92673
0.6053577,58.19234
0.69533515,66.932495
0.80700445,64.199165
0.89247495,67.05825
0.9406643,69.382515
1.0379664,70.12963
1.139229,75.912254
1.2532033,77.216225
1.3801708,83.100426
1.3696073,86.3847
1.4479774,89.110504
1.5726858,91.08965
1.6069598,93.888626
1.5605212,96.0957
1.729744,96.667
1.7488098,101.52191
1.7831957,101.65335
1.8094101,105.03443
1.821187,107.765495
1.8799751,108.16238
1.9032565,106.933014
1.9322997,114.785255
1.9608818,112.56272
1.9561602,116.21995
1.9108905,114.37898
1.8512546,115.968155
1.873918,114.77578
1.9267466,117.39428
1.8823105,116.06182
1.8594197,112.97937
1.8838637,116.28966
1.846457,114.21596
1.7315385,112.97713
1.8159387,113.47895
1.6805811,112.33651
1.7312905,111.483986
1.727016,110.756165
1.6486095,106.9413
1.6330403,105.65398
1.6709497,104.07915
1.5831137,103.990486
1.6068497,104.155624
1.5298773,102.5972
1.6227356,102.834076
1.496779,101.18951
1.5020342,97.60227
1.4103113,95.35609
1.5528336,98.83623
1.5562596,92.46301
1.5343004,89.87769
1.4480652,89.24227
1.4618913,89.190865
1.4264054,84.12672
1.4185481,85.4303
1.3901591,83.70326
1.4243287,79.76902
1.4264667,79.80498
1.3585418,79.998314
1.2867584,80.541275
1.2475767,74.49921
1.1996659,73.42239
1.1100017,72.47204
1.1451452,69.78552
1.1436477,68.824394
1.00652,69.00244
0.9872829,62.76056
1.014512,64.739845
0.98308176,64.51563
0.8803241,57.468304
1.0024829,61.39169
0.91439843,56.923378
0.9353154,58.03713
0.8834662,54.537273
0.97802544,54.121845
0.9811717,53.77329
0.95248336,50.662632
0.95740527,48.86341
0.84750074,45.16461
0.880397,47.187645
0.8925971,47.092236
0.92466205,44.94959
0.8427877,47.345734
0.8782543,45.946312
0.76399326,45.484352
0.7810309,42.351635
0.6429962,44.376854
0.6906319,42.360374
0.63679594,44.150826
0.6610479,44.89205
0.5577308,47.43175
0.55237633,46.54061
0.53881854,46.49116
0.5190038,47.56006
0.659917,51.805584
0.58367294,53.10905
0.6207447,53.035267
0.6446318,57.997017
0.7205631,59.92583
0.76187575,62.13488
0.8441153,63.340054
0.94366145,68.69628
1.0067697,66.17874
1.0303845,72.37785
1.2637807,73.523094
1.208085,74.33418
1.3349596,81.84667
1.3758504,85.02506
1.4725314,86.52687
1.5786003,88.79623
1.6303437,92.39859
1.6657041,95.30006
1.6992904,99.28957
1.7798337,97.54938
1.9095374,103.35456
1.9046404,104.17612
1.8562967,106.068085
1.9587567,107.65552
1.8697529,109.48359
1.939635,112.786446
1.9108076,110.57844
1.9647835,112.99232
1.8852239,112.943665
1.8808892,113.07438
1.832748,114.546745
1.8730311,114.67827
1.8940227,116.44982
1.8588228,114.54053
1.7883488,114.718666
1.7770183,114.05606
1.7930263,117.03646
1.7606871,112.68529
1.6812507,113.699486
1.7284663,112.502945
1.6620041,109.93654
1.599803,110.104706
1.6337125,108.61554
1.5377339,108.966286
1.5467224,107.52017
1.5610205,105.97098
1.4743683,100.7701
1.4461638,99.48891
1.4559305,98.088486
1.3515171,99.92172
1.4826119,94.708664
1.4296308,96.959885
1.3618387,92.61723
1.4038429,93.18453
1.415473,90.13802
1.3337151,88.74304
1.3468138,86.089226
1.356923,86.421524
1.2949928,83.420586
1.2373446,83.119736
1.2812402,81.735245
1.1682848,81.75876
1.116768,77.382484
1.0509607,75.43475
1.0504639,73.91466
1.0508717,73.42187
0.9897947,75.103836
0.92116356,65.79843
0.9487311,66.78802
0.9206459,65.40107
0.81363714,63.990974
0.745758,64.803
0.7569206,59.610447
0.6837768,58.710865
0.7558603,56.33144
0.75119585,57.910004
0.69306785,55.398
0.7221377,55.6029
0.7222175,54.63624
0.7360862,51.738255
0.7493171,49.735413
0.65906495,46.61084
0.7353068,48.511436
0.63899267,45.714077
0.66249055,45.253204
0.5532792,46.45634
0.5798977,42.489662
0.51082903,40.54086
0.5342198,41.752373
0.48420197,43.322735
0.50510454,43.494133
0.44937572,40.0
0.35306197,47.068207
0.2715762,45.066547
0.35471815,42.30235
0.26429632,49.290768
0.3428268,49.50305
0.26040843,51.695904
0.40108845,52.821453
0.4303199,51.275757
0.28884363,53.90562
0.45552757,55.824528
0.39728788,62.901325
0.5088004,62.697926
0.6375734,61.989895
0.6669453,67.77962
0.77761567,71.47262
0.8229785,75.10767
1.0228883,74.07716
1.035718,79.475494
1.1038824,84.88399
1.1528456,84.720436
1.2944863,87.27747
1.2700826,91.92676
1.3399185,93.02048
1.4162774,95.61333
1.3898998,95.10295
1.5356437,98.44665
1.599177,102.289345
1.4920037,105.200554
1.6185311,108.851395
1.5826409,109.206505
1.5622337,111.56162
1.6067053,113.02648
1.5754055,113.05274
1.606237,115.45366
1.524206,113.38579
1.5234833,113.258934
1.5745709,115.776634
1.5397534,113.68901
1.482393,114.75967
1.4890544,114.787445
1.4888506,115.85766
1.4184339,112.9809
1.4043971,113.966805
1.3104404,112.506096
1.4923298,110.14281
1.3733826,110.214645
1.3195866,109.64648
1.2885597,109.10092
1.321023,108.5716
1.2008934,107.5172
1.1619012,108.26831
1.1602045,101.104675
1.1049325,100.19809
1.093182,99.35527
1.1508996,100.70793
1.060334,99.64374
1.0594788,95.02029
1.036704,93.49599
1.0351443,93.76403
1.0337484,90.206085
1.059608,88.175606
0.97744596,87.80682
0.9504943,85.90252
0.9708744,85.20006
0.93830156,85.613754
0.8759603,82.66611
0.7759387,79.05811
0.7963689,77.53839
0.8453506,76.31399
0.7198688,74.72005
0.73985404,71.39971
0.6610851,72.422646
0.6077857,71.32464
0.5859733,71.069565
0.60678715,67.344315
0.5121566,62.904358
0.4400239,63.69133
0.4371716,64.34574
0.44495472,58.39526
0.5377143,58.82602
0.4891243,57.196457
0.3884081,55.26549
0.49207932,54.368042
0.39627212,56.36068
0.39532042,52.02137
0.3639461,51.57403
0.38553342,51.258907
0.3995178,47.4101
0.3811444,44.41224
0.3178062,41.95361
0.30098784,48.10418
0.3604035,47.46729
0.29218596,46.292957
0.21772133,43.11807
0.12140411,45.503216
0.21817358,42.383957
0.074844025,43.26601
0.038656253,43.666386
-0.060743716,43.854076
0.011400989,44.097294
-0.13901065,44.33481
0.004606759,48.11992
-0.030406713,50.66445
-0.0023221879,51.60314
0.0057665706,53.131294
0.03812475,53.95788
0.09688336,59.19803
0.116072185,62.072327
0.24414615,62.740665
0.275194,66.59739
0.29212776,67.834114
0.4833506,69.65065
0.52911544,71.47821
0.6293925,75.84465
0.6769433,78.04784
0.78463733,81.746956
0.85294026,83.031715
0.9205801,90.22015
1.0343033,91.76596
1.0758759,92.03582
1.0913103,93.287125
1.127795,101.77887
1.1832418,99.6081
1.3024849,104.76289
1.3171737,102.69429
1.2955425,107.29287
1.3100628,108.59609
1.3186164,107.653824
1.309615,108.59222
1.3911312,111.67033
1.3362589,112.83853
1.3890951,117.55199
1.2926437,116.04431
1.3582689,118.1737
1.2903397,115.468445
1.3057348,115.37632
1.2917048,116.50037
1.3302387,115.39249
1.2698233,112.98746
1.1890138,115.378525
1.1954648,114.937325
1.1845781,113.92249
1.1824908,110.59325
1.1220009,111.01564
1.1182425,108.78503
1.0812919,108.25256
1.0582336,106.726585
1.02591,104.28263
0.96029127,105.01622
0.9523344,101.38578
0.98288554,101.37457
0.9695617,99.59137
1.0382463,100.747375
0.9591032,96.10997
0.96005523,95.301094
0.89946014,93.662025
0.8913445,91.79643
0.8886994,92.255165
0.8688846,89.90364
0.8100941,84.83051
0.76789653,87.856224
0.7766664,86.108025
0.8229871,82.83938
0.79639405,81.55124
0.7455458,79.03799
0.6122336,75.811424
0.6637364,76.288864
0.60239416,73.53041
0.6719953,70.757545
0.5858678,73.0595
0.5039028,69.85373
0.4881905,68.19551
0.5031989,65.2979
0.49411577,64.15358
0.4213859,63.768723
0.39532465,60.81946
0.38013914,60.86221
0.40985802,57.61181
0.39894414,57.37778
0.3575853,54.208946
0.419742,56.22072
0.38107374,51.946964
0.33355474,49.18562
0.35878763,50.223835
0.34744346,49.916428
0.4197346,47.094368
0.33963743,48.130028
0.316941,46.386513
0.25193766,41.44446
0.2502247,43.09018
0.2931094,45.545433
0.22329484,43.39656
0.17387447,42.223972
0.1948439,45.78835
0.11780853,42.58818
-0.0013230029,48.78596
0.06408574,46.57824
0.017604265,48.700798
-0.019869557,49.62128
0.016444353,45.736958
0.010975737,51.133408
0.064967155,51.87031
0.10523734,50.36846
0.14349972,55.91249
0.17090462,61.56868
0.22786032,61.008312
0.31431332,64.80769
0.44383484,65.55678
0.5230829,67.74394
0.5395762,70.004456
0.70397705,76.91527
0.8015486,78.69459
0.83546835,82.11622
0.9732078,81.62419
1.0480173,83.15736
1.1306554,86.28972
1.1657054,88.98594
1.2112211,95.141075
1.2672015,97.96188
1.3131438,99.09359
1.3993001,102.27456
1.413352,104.36383
1.5164585,109.24895
1.5204502,105.01284
1.4995444,111.05432
1.5106956,111.31378
1.5468552,112.49857
1.5394119,112.019516
1.5298337,112.67728
1.5148411,114.62286
1.5281844,114.77187
1.4969788,115.18394
1.5731806,119.38316
1.4917321,112.175766
1.5309895,116.995735
1.5157467,112.891335
1.46253,114.20042
1.4792625,113.4736
1.3652192,112.64713
1.4172105,114.66329
1.3448812,110.029594
1.270936,109.3104
1.2455808,107.76298
1.3393099,106.44636
1.2833155,107.2322
1.1779475,104.14169
1.2097237,101.85195
1.2049493,99.51928
1.1703132,99.792114
1.1386833,97.53785
1.1518244,100.3705
1.2053574,96.08147
1.1483173,94.46757
1.1604819,93.78915
1.1210122,90.848915
1.0737064,87.017296
1.0767002,87.057205
1.05172,88.41661
1.0881586,81.861244
1.0602642,80.96875
1.0345554,82.266914
1.108938,81.31416
0.9933512,77.98458
1.0323377,75.56387
1.0138077,75.784966
0.92504907,71.76207
0.9115112,71.4296
0.8554014,72.67698
0.7948615,67.66823
0.84576184,67.147766
0.758948,67.26479
0.71727586,61.97176
0.63550794,62.80551
0.71643496,61.731762
0.6986025,58.231133
0.67107505,59.74485
0.71191347,57.48266
0.7309938,54.592567
0.69247264,53.322445
0.6623895,50.37363
0.6825304,53.282356
0.7292927,48.481133
0.6355555,48.42581
0.7192646,48.80918
0.6537474,43.600475
0.56392974,44.44281
0.6251948,46.100727
0.5530647,46.749115
0.620132,43.8567
0.44504952,43.640156
0.5003001,41.6907
0.42054853,44.573345
0.44345093,46.76525
0.37042657,48.008484
0.3681298,46.583496
0.3397003,49.370026
0.36822158,49.56114
0.39282966,48.34267
0.3960652,51.58893
0.41261256,54.50849
0.4613854,56.37321
0.5764578,56.644314
0.5471927,61.148346
0.64316493,58.798183
0.71556985,68.15914
0.7956247,65.74054
0.9160249,70.02898
0.9542545,74.547806
1.1043257,75.0219
1.1653879,75.81645
1.2387239,77.82203
1.3554162,82.85294
1.3303939,87.5543
1.5052416,86.93995
1.5508777,93.31839
1.6183561,95.416115
1.6940886,96.21503
1.6787429,101.42811
1.8295597,102.388855
1.7922469,106.09593
1.8049531,106.103935
1.7448059,109.41539
1.9118359,106.420555
1.8742602,112.39837
1.8637035,112.46928
1.8739637,114.31885
1.8478522,114.73237
1.9162894,113.38844
1.8995191,115.25262
1.8992453,116.55669
1.850477,116.69248
1.9051588,115.25397
1.7646778,115.37255
1.7947234,114.19667
1.7425448,115.59418
1.7632208,110.764755
1.6892434,114.68399
1.665788,109.34255
1.665819,108.33288
1.6615906,109.75543
1.5487014,105.24223
1.520419,108.50377
1.611845,105.226944
1.4969113,103.612045
1.4618847,103.471756
1.4191626,104.08144
1.518891,98.68845
1.4921271,99.914764
1.5698955,97.87099
1.4816161,92.73721
1.4373873,93.43497
1.4559754,90.723885
1.3715119,88.93849
1.394275,87.81733
1.4447725,87.01556
1.4066101,83.17763
1.3752769,81.454254
1.3665379,81.91844
1.4023657,79.71338
1.2634372,80.895676
1.3008997,75.16333
1.2211027,76.40117
1.1783265,75.368935
1.2044673,70.816154
1.0885133,71.81975
1.1296341,69.189865
1.0618668,67.84126
1.0114805,64.655655
0.9461363,67.46113
0.92896783,63.62964
0.97989124,61.370308
0.9464492,60.960106
1.0321804,57.85738
0.94980425,61.554096
0.93832606,54.223465
0.9185844,53.806564
0.94759274,52.74382
0.95948946,50.606926
0.89371,48.9167
0.89936656,47.570015
0.9313106,48.435806
0.8737387,44.583523
0.9327423,43.66627
0.87718576,44.592205
0.7847665,44.775658
0.8114932,47.476242
0.7445228,44.65889
0.6410231,43.156563
0.62023014,43.395885
0.6389277,43.99952
0.5395299,43.823997
0.590931,48.567024
0.6147927,50.012814
0.52985543,48.619713
0.50800174,48.739704
0.5477687,49.01679
0.5779225,49.177296
0.6291446,54.12328
0.65698403,57.854237
0.6423235,61.88527
0.8130362,62.77808
0.89690506,62.83559
0.9159229,68.519394
1.0758444,66.41909
1.0878314,74.04605
1.2222303,72.46258
1.3011146,77.08495
1.3683769,80.99842
1.4154117,80.66029
1.5540321,87.481415
1.5904107,91.457954
1.7108591,90.60271
1.7225846,94.73974
1.7602035,97.12238
1.8662604,100.17638
1.8496244,99.32116
1.8747244,103.698265
1.8921053,106.0941
1.9134765,105.462364
1.8806126,112.299484
1.9601496,111.9535
1.9053984,112.5594
2.0052001,115.12035
2.0241294,114.765465
1.8623095,116.253426
1.8769122,114.442314
1.9268836,116.55691
1.8499591,112.993935
1.9138952,117.67334
1.868144,116.8016
1.8201892,119.38521
1.7796701,112.98511
1.7927477,114.45485
1.7637691,115.26045
1.7173356,111.087036
1.6721084,111.83244
1.6507195,108.37107
1.6009313,106.780846
1.6762584,107.11335
1.5600184,104.94359
1.5309545,103.76482
1.4871176,103.609146
1.5285987,99.91688
1.4442357,98.70081
1.4066851,100.14572
1.4338176,98.13878
1.4848353,95.46347
1.3404975,96.16489
1.3573363,90.73146
1.4417508,89.33335
1.2829506,90.71327
1.3045878,86.58396
1.3913847,87.74522
1.3929702,81.77363
1.2822235,81.496605
1.2576813,79.35855
1.2053459,81.420135
1.2238153,79.81905
1.2136314,74.45214
1.0972464,73.40866
0.9810965,73.05905
0.9701431,70.72348
0.96498245,70.55119
0.9863337,68.51868
0.8693617,70.26962
0.95918,64.97869
0.90629417,62.636723
0.8888182,60.412014
0.93351215,60.87183
0.7718654,57.455467
0.8081789,60.358627
0.767307,57.322895
0.7437527,53.923824
0.7513691,53.499733
0.68215704,52.72094
0.8261965,49.164764
0.74617577,49.632847
0.70359635,47.32034
0.7039563,45.037033
0.7760172,47.642506
0.6197261,47.597942
0.69972205,45.555313
0.6117053,42.559425
0.5428167,44.731167
0.5358322,41.23407
0.49609846,44.538567
0.4576351,45.54693
0.34436396,45.529446
0.30071452,43.548534
0.3382137,47.4652
0.30452994,47.64437
0.33142957,45.71552
0.32949015,49.205753
0.37439874,52.04168
0.3969242,52.7639
0.38510245,54.472706
0.3824561,59.914932
0.53063875,57.824406
0.5620214,62.809937
0.65343267,67.14407
0.7220517,67.32494
0.8291165,68.96003
0.95915395,73.359634
0.9452969,75.26933
1.0114415,78.67155
1.1285292,84.662254
1.2775764,84.34842
1.2529577,89.78394
1.3221062,89.698616
1.3877144,93.40969
1.5007355,93.337074
1.5349207,98.14423
1.4890261,101.34486
1.596133,103.530075
1.5994076,104.50006
1.691875,105.64499
1.6430748,107.62746
1.5750554,110.1109
1.6385754,113.39922
1.6744717,112.69792
1.6816694,114.58262
1.6102295,114.78646
1.6253176,117.23414
1.5824424,117.07264
1.5951239,116.32132
1.5888969,114.76778
1.5707004,115.18322
1.4787142,114.21415
1.4867461,116.14212
1.4127284,115.3203
1.4136329,114.350624
1.4405693,114.50437
1.3999407,113.471176
1.3062896,111.51892
1.2939535,107.03012
1.3712549,107.93894
1.2821839,104.65742
1.2734635,104.13869
1.1937777,103.232765
1.1567018,102.389145
1.11883,99.59779
1.1520026,97.73725
1.0378996,98.673935
1.1360645,93.59934
1.107776,93.368546
1.065731,93.52109
1.0860662,92.62596
1.0283575,88.03253
1.1085621,85.887054
0.9671891,86.02467
1.04204,84.57355
1.088464,81.116035
0.9126636,80.55544
0.8585058,79.59345
0.85792667,76.45165
0.75343806,79.37322
0.7852724,73.63707
0.7171037,74.72207
0.70504284,73.45283
0.6773693,72.568954
0.65415573,69.65513
0.60635316,66.953514
0.6115314,66.82838
0.5407664,64.83628
0.4507983,59.29279
0.4534171,59.53357
0.44678473,60.938873
0.4444923,60.54968
0.43010435,58.66085
0.40201414,53.6594
0.4676012,55.889107
0.4193798,54.825474
0.39668012,51.104874
0.35216242,48.38216
0.39082953,49.821606
0.4285991,46.906803
0.43982923,49.937458
0.41044998,46.199306
0.32318065,46.158573
0.26390702,42.486668
0.30664036,46.55281
0.21358833,43.70845
0.1631905,40.73682
0.15643723,45.78562
0.08028922,47.03842
0.09258457,43.570786
0.02301771,45.243813
0.08667551,44.5715
0.031023672,46.63504
-0.02916442,50.552128
-0.016813824,50.945786
0.09157134,54.198788
0.0738703,54.706997
0.15060596,56.83598
0.16434342,59.701683
0.26950127,59.59268
0.3461031,64.69211
0.3941355,66.33796
0.5294266,69.08288
0.4971665,72.76287
0.588585,76.705414
0.7457384,77.87682
0.80527306,82.28755
0.87429994,85.71362
0.9652266,88.23829
1.0060558,89.50868
1.1048216,90.33842
1.186946,92.02205
1.197411,97.29833
1.208382,99.44402
1.3239748,105.551254
1.3764988,104.40451
1.3145261,108.94226
1.3359133,109.209915
1.3815831,111.80624
1.378771,111.571205
1.2937778,114.62474
1.4458767,114.19125
1.4622054,111.60427
1.3329798,116.30483
1.3192489,116.73492
1.3473101,114.30129
1.3841753,114.08878
1.3584783,117.32254
1.258251,116.69953
1.3459313,116.0329
1.2640585,115.85018
1.2403271,113.94468
1.1736695,112.562904
1.1523844,113.36174
1.1854135,112.30554
1.1349494,108.63654
1.0984546,111.49088
1.0172312,107.003334
1.0118777,106.72083
0.9954593,108.44404
1.005156,107.442894
0.989439,101.409195
0.83463156,95.149895
0.9483692,97.491905
0.9592459,96.53615
0.89626515,94.028595
0.9428901,91.22097
0.92870754,92.439316
0.9275668,90.342705
0.8681269,92.75685
0.83132225,86.544495
0.79042643,85.597305
0.77666676,83.887764
0.75007135,80.89584
0.69891536,80.56507
0.77720904,82.356674
0.6692666,79.561226
0.6890105,75.24372
0.5308061,75.51351
0.56409,73.95345
0.5994766,68.922195
0.48348778,64.94925
0.4593933,66.415855
0.5375771,64.75164
0.39092147,64.46238
0.47668585,59.04017
0.4376427,61.170956
0.44564667,61.12479
0.27369747,56.94631
0.3722158,56.52044
0.32000986,53.51154
0.3676707,55.07493
0.3723722,51.81469
0.34086847,52.109364
0.38153365,48.328587
0.30959934,47.076813
0.36067075,49.83569
0.3424812,45.54211
0.28976616,47.928093
0.3034742,42.16532
0.23143564,40.308376
0.18656926,42.329414
0.16777496,46.009815
0.21290332,40.398495
0.091461144,47.37281
0.06649118,45.837547
0.042280223,46.396446
0.05216484,44.780525
-0.075339645,42.188694
0.05279328,45.46121
-0.061910592,49.875435
0.0010849946,52.322468
0.053595893,50.341988
-0.011368871,54.989697
0.13296431,54.99633
0.1476593,59.82037
0.2951732,59.72335
0.22074498,62.727028
0.33061546,65.86186
0.4080566,67.720085
0.56829375,67.14448
0.6938442,74.187065
0.67497844,77.05711
0.81413335,77.25763
0.8970203,86.87799
0.9611804,85.918434
1.0944443,87.51409
1.1522758,91.2768
1.1797024,94.71874
1.2761495,95.30741
1.2788173,98.0044
1.3272506,99.09461
1.40386,102.23187
1.3661021,107.312775
1.3843164,107.227165
1.4187834,108.07504
1.4617226,112.48097
1.484255,111.36327
1.5569504,112.56545
1.5144564,115.39918
1.4646969,113.891396
1.4699064,114.511024
1.5089711,114.99682
1.4751968,120.039154
1.4754163,117.98227
1.4375254,116.148155
1.429279,116.311874
1.350803,114.24931
1.3825011,114.99816
1.3213265,111.98884
1.3370619,114.041855
1.3114486,114.08568
1.31993,111.26147
1.2219018,108.39645
1.2019944,109.51096
1.285494,104.45665
1.2210692,104.21724
1.1613601,103.304565
1.1598175,102.19873
1.1242949,99.8305
1.1851197,100.603294
1.119526,93.61987
1.1790605,94.86023
1.0755757,93.743706
1.177225,91.75
1.1074228,89.18243
1.1269882,88.55846
1.0487125,87.86311
1.1239299,85.554405
1.0763323,85.11072
1.0618438,83.43631
1.0237725,79.53792
1.002953,77.02967
0.98105526,75.8784
0.94072837,75.94317
0.87658215,74.275894
0.82477736,71.398384
0.7796413,71.39952
0.7840804,69.88477
0.7519443,68.11565
0.7055341,68.45479
0.6893929,64.6689
0.7101447,63.42875
0.6365385,63.79956
0.5505783,62.348843
0.6093361,57.082344
0.66297036,60.26847
0.6097599,58.475155
0.57506514,55.617405
0.67471695,54.49494
0.63832825,50.889175
0.6299574,50.630802
0.57452744,46.999664
0.6296386,49.40864
0.6237972,47.477425
0.6098946,46.212917
0.54023206,51.226215
0.5530856,48.82196
0.4825417,43.798225
0.43963593,42.729492
0.48615995,46.23891
0.48403713,45.249832
0.4342911,46.16562
0.41161385,43.02051
0.37594202,45.473946
0.35217556,44.888233
0.3167366,48.37676
0.25727868,48.053
0.39482644,50.01193
0.30101717,51.530533
0.32019827,55.462128
0.3715617,52.570763
0.56162834,55.316837
0.49965677,57.179382
0.6340483,62.259678
0.6268759,64.169205
0.7353716,66.71931
0.8430806,70.66739
0.92517024,73.763916
1.0741185,71.98778
1.1122745,80.24113
1.1726384,80.920975
1.3681837,82.80509
1.3676214,89.68723
1.4831239,89.716515
1.522063,90.23144
1.6548625,96.29805
1.6263489,97.524666
1.6025484,102.52567
1.6371312,101.28696
1.669065,104.099915
1.7687927,108.40049
1.7114161,106.74209
1.8240359,110.49233
1.8381379,111.94511
1.8406918,112.19152
1.8726246,113.23415
1.9347289,114.54669
1.9336586,113.679115
1.8644015,112.75471
1.7671213,113.65687
1.7596925,114.6273
1.8101915,119.258316
1.7405254,116.33136
1.8079646,113.11158
1.7471443,113.54436
1.6720436,112.21305
1.6459421,113.50196
1.6549487,111.27623
1.629002,107.71695
1.6285077,110.15895
1.5291475,106.14038
1.6476669,107.73362
1.5831745,106.745155
1.5232043,107.888756
1.550158,102.16099
1.50146,101.18348
1.5036412,99.76817
1.4754113,96.34676
1.4246895,94.88981
1.4769702,96.001656
1.402816,90.723785
1.4048673,90.131134
1.4615964,89.59011
1.4139527,87.267365
1.4534826,89.01155
1.4695914,83.85404
1.3420632,82.12163
1.3879995,81.48922
1.2805052,80.41849
1.2508278,79.757195
1.2644756,79.25204
1.2281221,75.28817
1.1695709,75.86267
1.1275654,72.356094
1.1154943,69.462524
1.0013036,68.33509
1.0031899,66.980675
1.0199786,66.05695
1.0012228,63.140068
0.9517122,62.185738
0.9834976,60.287064
0.82857865,58.017944
0.9055575,59.176376
0.8511624,58.190285
0.9688256,54.338455
0.9069989,57.06028
0.9209453,52.323208
0.8662333,49.73789
0.9325014,49.092304
0.88430804,47.783104
0.8285992,48.850765
0.8840551,47.800564
0.95182437,46.023563
0.8354257,40.939754
0.8110462,46.002907
0.8091566,41.48748
0.6783078,44.72988
0.5974055,44.19642
0.6499645,41.19797
0.5925299,44.084015
0.5393612,47.95606
0.59542036,45.860195
0.5383686,47.176105
0.5570232,49.102932
0.5246499,48.48862
0.5351987,52.667995
0.5997811,54.199856
0.7560865,51.213425
0.6952428,59.327976
0.7155758,58.64158
0.67549574,60.55401
0.86879176,66.60942
0.9284908,65.60228
1.0029007,67.17474
1.0849378,70.47506
1.2159833,77.67413
1.2483475,79.289314
1.3904722,81.47116
1.4273129,85.49446
1.535044,86.717415
1.5536397,88.02026
1.6516652,91.436485
1.758511,89.839325
1.7568997,95.32195
1.8549322,99.76711
1.8738109,102.961235
1.8856571,102.099525
2.0015557,106.46223
1.954369,106.799164
1.948199,106.93125
1.8974514,113.430595
1.9263072,113.70427
1.9442691,111.749084
1.974777,114.53313
1.9706081,116.81508
1.8609446,115.0936
1.8911887,114.9817
1.924759,116.08544
1.9592496,115.559586
1.8609961,118.32925
1.9192463,114.46411
1.813481,114.77809
1.8834913,114.336105
1.7064201,108.942055
1.7055908,113.63636
1.6368876,114.01559
1.7063694,106.46318
1.6496776,108.6668
1.5898607,105.12855
1.6620699,105.71223
1.5531615,104.24821
1.55955,102.793655
1.5645638,100.85965
1.4340905,98.52126
1.5242816,95.9905
1.4305576,94.81865
1.4389324,98.92495
1.4337567,93.381134
1.4893167,90.15424
1.4719518,87.53914
1.3793775,87.447014
1.3868192,87.25855
1.4383898,84.5631
1.3721169,85.382904
1.3349777,83.88561
1.3418093,78.98357
1.2475859,80.43956
1.3019776,77.40591
1.186482,75.352356
1.0570937,73.94631
1.0941232,75.022255
1.077703,72.05728
0.96767414,71.17165
1.0068328,67.431984
0.9795464,69.25767
0.90993255,66.31033
0.89648336,61.86266
0.85137427,62.53563
0.83408815,57.823013
0.82007,56.748234
0.831288,59.59199
0.7662607,56.951973
0.83650243,51.507133
0.80783707,52.849724
0.79558116,51.259518
0.7718089,53.056694
0.8329379,47.92554
0.7733611,48.294804
0.7425543,46.19059
0.71640676,45.65548
0.6263183,43.87415
0.6549117,44.59936
0.67246556,44.06445
0.6416092,42.602787
0.5667368,46.058407
0.61083436,45.296883
0.39794394,44.352104
0.3985725,41.757446
0.41370067,46.110634
0.35276073,48.63462
0.3827599,49.87262
0.37188497,48.62956
0.41495216,51.61599
0.5063571,49.911846
0.4964106,50.641685
0.46272555,56.13877
0.52915543,56.143097
0.5948868,59.084362
0.6545379,65.017624
0.7377953,65.18094
0.84376794,65.52378
0.8037543,68.99315
0.93093526,73.20708
1.1151266,76.285484
1.1375417,80.25479
1.2108879,82.52341
1.2886544,85.1308
1.3002481,85.658264
1.3867954,90.214775
1.3978871,94.17469
1.5986012,98.25754
1.561535,98.97952
1.6181077,99.02465
1.6639117,102.60034
1.6424876,104.45379
1.655096,104.91995
1.6815374,108.13554
1.7026438,112.13804
1.6675452,114.09915
1.6946044,111.8866
1.719598,114.25432
1.6937463,115.16471
1.6731938,112.9056
1.6625476,113.98544
1.657575,116.20568
1.6072577,115.256935
1.690582,116.373276
1.5726417,115.17203
1.4992707,116.32576
1.5836978,112.006035
1.5247219,116.009964
1.502643,112.13725
1.5845201,112.55245
1.4207385,110.90706
1.381153,111.04265
1.3840797,105.43988
1.2892227,106.61071
1.3082262,105.179756
1.3105557,104.82216
1.3292849,99.501114
1.1963227,98.53482
1.2320634,96.31616
1.1627716,97.1074
1.2198358,95.978226
1.0857235,91.41594
1.1171521,94.431366
1.1931453,90.25613
1.0366608,91.386856
1.082968,85.08224
1.0321599,87.23277
1.0416422,84.22158
0.95954347,82.608055
0.99007714,78.52089
0.9210683,80.29087
0.8718262,76.21114
0.8863709,75.10449
0.831081,78.23833
0.8243532,73.80033
0.85036075,71.715645
0.65733004,71.46992
0.61423475,71.133255
0.59939605,67.99256
0.59778094,62.088417
0.6075727,64.873314
0.48514187,63.59544
0.4695603,61.38171
0.4244994,60.208046
0.4896824,59.280098
0.5141777,58.81856
0.47801176,52.522827
0.49663574,53.810066
0.43762618,53.61114
0.44321206,48.775562
0.5023134,48.79813
0.42890075,48.124435
0.433262,46.381176
0.3736339,44.542637
0.38426507,45.204483
0.27631092,45.896523
0.22214158,44.995987
0.26362422,47.02074
0.17747065,47.420353
0.27908063,43.953594
0.18619047,44.830868
0.07418061,46.139465
0.058524586,44.659748
0.047393132,44.521282
0.04155253,47.10538
0.06669385,47.767265
-0.018089559,49.173725
0.0012982982,50.833973
0.09839865,54.64431
0.08547185,55.45573
0.18025054,55.021317
0.18936653,61.890305
0.2377068,61.07626
0.3197697,61.529106
0.4213292,64.43412
0.4459793,71.59101
0.6290208,72.60933
0.653975,73.43005
0.7411434,79.1714
0.8694246,81.27831
0.9438708,84.78149
0.9590723,86.65123
1.0572703,89.83873
1.0974486,95.88982
1.1329056,97.40362
1.233494,101.028694
1.2401977,100.56378
1.3579233,104.202286
1.2393459,104.53263
1.3240705,107.779816
1.3451457,109.37824
1.4123179,110.1551
1.4071084,114.08296
1.3406013,112.223
1.406943,112.62543
1.3825171,113.63164
1.408705,113.5325
1.419618,116.34904
1.3255191,114.39701
1.3419921,114.04084
1.4129109,115.53245
1.3456424,116.35346
1.3338895,117.077484
1.2833952,113.54096
1.2559855,114.67351
1.2352769,109.50581
1.2233465,110.48188
1.1437556,110.49622
1.0388135,111.35462
1.0907193,109.162895
0.97187203,108.89962
1.0584828,105.40679
1.0466405,103.206474
0.90071857,103.28008
0.99577767,101.873405
0.93668544,97.95273
0.97898465,99.8496
0.86191326,96.71419
0.9279136,94.41742
0.93906844,92.98377
0.92524964,92.7114
0.9451118,91.635445
0.9390538,89.74746
0.8705015,83.978226
0.83159167,85.296425
0.8148438,82.655075
0.8730499,83.78424
0.78505033,80.22736
0.6243956,81.75246
0.69519717,76.22967
0.6712361,77.07597
0.6269688,72.789116
0.5585145,75.28564
0.616852,73.68717
0.48717332,67.935036
0.5263766,69.251915
0.45188758,66.59362
0.39623764,66.50824
0.41658324,61.828125
0.40516508,60.651863
0.38202292,57.881824
0.2926332,56.30814
0.36261183,57.803425
0.29304776,53.401543
0.36862314,50.36224
0.33155003,49.744534
0.26430044,49.86978
0.38872987,49.648766
0.3932765,48.933723
0.3447055,49.15072
0.35445789,47.26618
0.23979545,45.701786
0.2495275,43.87146
0.1994046,42.7648
0.15270457,43.94735
0.21755749,47.88634
0.11171627,42.961777
0.09101821,44.139194
0.10112889,41.156017
0.07545882,44.942352
-0.06864166,48.68849
-0.041475307,44.475216
-0.01961687,49.326035
0.0036592104,49.52396
0.021859933,52.227646
-0.0047232076,54.493008
0.03981424,55.2646
0.054781415,55.885273
0.1740209,60.925137
0.20061715,60.706394
0.32250354,63.009083
0.35915503,66.12675
0.38913035,71.066185
0.51544285,69.785904
0.6066403,72.041
0.7174671,78.96108
0.77257764,78.71382
0.86707556,84.26252
0.9798304,84.30102
1.0584275,88.1556
1.163427,86.42851
1.170784,93.06671
1.2686182,95.25777
1.2784714,100.42171
1.3011786,100.23725
1.2939954,104.5738
1.41174,106.85575
1.3063738,108.36221
1.417438,108.940544
1.4013933,110.698746
1.4114453,113.15219
1.4356307,114.32322
1.4043112,117.01672
1.4419203,115.1483
1.3980931,119.197296
1.5505028,115.35206
1.4987342,116.498695
1.4298819,116.618324
1.4088728,115.19771
1.3128306,114.683846
1.3755586,110.31342
1.342254,114.53437
1.3475744,112.86638
1.3723121,109.7445
1.2600665,109.696175
1.2889622,107.94519
1.2989445,109.84388
1.1791583,110.48953
1.134979,107.16302
1.109348,104.14846
1.1340407,100.892136
1.0606403,98.2706
1.1267362,100.39142
1.0500851,96.99842
1.0971984,97.75253
1.0567495,95.42835
1.0979248,95.44593
1.0655229,91.29647
1.052011,90.043236
1.0266844,91.81244
1.1520426,89.65687
1.0157043,87.47269
0.97555435,84.10622
1.0354868,80.98989
0.96929455,79.86405
0.8466716,78.402954
0.89369303,77.22065
0.87471616,76.21975
0.8451677,75.62976
0.80290395,74.99027
0.81647325,72.40562
0.70716155,70.44644
0.7541415,71.89383
0.64508176,65.75205
0.6443283,64.61125
0.62640643,62.43126
0.6197675,58.976154
0.5552153,59.722534
0.63231885,58.51628
0.61791277,58.474915
0.5835184,56.75151
0.6243734,56.060154
0.5724134,53.52348
0.58012176,50.89904
0.591663,50.046803
0.6410019,50.9995
0.5605859,47.8245
0.5177713,47.573086
0.63657004,50.38503
0.5729274,45.792633
0.52094054,47.13656
0.46861356,43.04791
0.45534968,44.70555
0.39978054,41.319626
0.36414152,44.975277
0.32789373,40.439926
0.3910053,45.461506
0.36211017,43.479015
0.30834997,49.876003
0.28280285,49.21238
0.32677358,48.097836
0.22311512,52.691284
0.3165341,54.195946
0.29352692,54.447235
0.41821083,54.10565
0.37257168,58.032734
0.5015051,57.800335
0.5540956,60.5639
0.64750963,61.92801
0.72385645,70.17772
0.81735,70.3861
0.8833858,73.51731
1.0039141,73.31713
1.0216931,79.43655
1.1961572,82.51151
1.2370646,85.527275
1.3689437,88.94178
1.3669993,88.921135
1.507867,92.52881
1.5191736,92.66061
1.5636088,94.61429
1.6477973,97.24362
1.6265905,101.30664
1.6649941,106.932434
1.7248068,110.80703
1.8063335,107.52672
1.7848916,110.94877
1.730974,109.866455
1.8491576,113.029205
1.7415465,115.294395
1.794394,109.82335
1.8120095,115.982704
1.8048912,114.12479
1.7901083,116.918274
1.7627864,118.065025
1.757933,114.56369
1.7002835,114.89581
1.7595457,112.879585
1.721682,112.3308
1.7060848,113.45823
1.570228,113.22008
1.5898,110.396576
1.6075717,109.00517
1.5413746,109.082664
1.5046153,108.881226
1.5400171,104.71327
1.5267358,104.51536
1.5605685,103.04916
1.493057,99.12031
1.4583399,100.62161
1.4468058,97.39737
1.4491271,96.74763
1.3887807,98.044426
1.3672726,95.27731
1.3068392,93.11655
1.4289689,90.35751
1.3430403,88.04412
1.3411778,91.29551
1.3999197,90.36317
1.404397,81.83067
1.3049353,81.45413
1.2829185,79.59274
1.2563646,79.4888
1.282581,76.21927
1.301577,74.3237
1.1385069,77.0619
1.1634029,74.51007
1.0716418,75.25661
1.0988421,70.08777
1.0162991,68.43641
1.0472833,64.941734
0.99218214,66.90431
0.92148507,64.55638
0.8656352,63.82151
0.90763,60.657837
0.9233548,60.021076
0.88835794,58.262527
0.8708502,57.83313
0.87464845,54.210938
0.90105134,52.622208
0.92854273,52.726376
0.77182025,53.554775
0.8612647,50.38997
0.91598386,49.98026
0.847608,49.24233
0.8167657,46.181065
0.8622754,48.93267
0.8719757,47.624756
0.81925035,42.831985
0.7981783,45.02034
0.70283395,46.61155
0.5925519,46.043545
0.7273085,43.005333
0.6692917,43.382336
0.5847056,46.904552
0.56922513,46.587868
0.5661694,46.158447
0.5373033,48.86993
0.5193138,48.458168
0.55573356,51.859573
0.5525986,53.287067
0.67043096,55.822693
0.6407448,55.987556
0.77893245,62.62599
0.7940185,65.0423
0.8174748,62.59856
0.9541458,66.50253
1.0137095,67.62826
1.1307139,71.18056
1.2699697,75.39451
1.2241247,77.432556
1.4400508,77.57178
1.4526292,80.23908
1.4893254,86.97713
1.5565706,88.66101
1.6002132,94.22507
1.7233373,95.82534
1.8272871,98.17617
1.7960314,99.54305
1.8222232,99.59773
1.9311299,103.10536
1.8789409,105.757805
1.9595963,105.93565
2.0084138,108.4543
1.9730815,112.54419
1.9993386,112.22397
1.9470174,112.17608
1.8828951,115.07299
1.920286,114.88117
1.8871698,115.54378
1.9541986,114.842735
1.9696805,114.55062
1.8668077,116.44523
1.887218,116.36874
1.7812307,113.141975
1.8289295,113.82909
1.778461,113.01119
1.7902547,110.83809
1.8047476,111.91987
1.7641556,111.92089
1.658486,114.089325
1.672449,108.07102
1.6853403,103.54951
1.6291435,107.14112
1.5875645,103.245804
1.6434981,104.0821
1.5254271,99.42158
1.5238212,98.750725
1.5354364,97.419136
1.5534515,95.88869
1.3838339,96.77768
1.4878327,93.712654
1.4576799,89.98301
1.4568266,89.6504
1.3824021,89.94998
1.456767,86.93174
1.4785734,84.94386
1.2861906,81.38708
1.3947022,81.31366
1.3262076,80.12804
1.3059862,77.85707
1.2829002,79.188126
1.221444,78.761406
1.1446217,76.35026
1.0910399,74.061615
1.1259303,68.86235
0.97102445,69.825806
0.95566416,70.116455
0.97824997,64.82248
0.8886361,65.93695
0.8987735,64.83043
0.8868226,59.315598
0.8742651,61.34454
0.9115413,56.586132
0.87130153,56.897625
0.83360976,54.42344
0.83077115,54.347004
0.88548446,55.472008
0.8170217,54.226803
0.754811,48.925076
0.85243195,49.750656
0.8626273,44.453667
0.8101863,46.965332
0.85766554,47.67961
0.72351885,47.76583
0.7580889,42.039562
0.6801163,43.56343
0.6455715,46.0489
0.6308665,44.263115
0.4812247,46.486988
0.517445,47.858173
0.49169514,49.06044
0.44310427,44.224243
0.4741439,45.162373
0.40722808,47.25025
0.4650576,47.04298
0.4574343,51.093246
0.40611675,52.75552
0.5142998,55.37729
0.4767376,53.471214
0.51984155,58.181324
0.57698685,60.748447
0.6816235,66.24105
0.7768705,64.56456
0.7594832,67.15945
0.8522335,69.08706
0.93606836,75.017944
1.1219916,76.65522
1.1080172,78.23948
1.2106348,81.41852
1.3133916,82.54768
1.4361502,85.0976
1.5133345,89.96574
1.5013965,90.994835
1.629482,97.42295
1.6052395,96.27669
1.6455194,101.34799
1.625727,102.30043
1.7749113,104.48797
1.782001,108.84914
1.6821047,108.21138
1.7023017,108.68378
1.75503,112.97865
1.6522069,114.5178
1.7219095,112.30544
1.7233661,117.90508
1.7847364,112.81226
1.7188524,114.31656
1.744679,116.99751
1.7267479,115.63972
1.6968782,117.38168
1.6164694,116.77201
1.6444148,115.31343
1.4905494,116.02358
1.5754579,115.55178
1.5242593,107.529106
1.4814521,110.01611
1.4366627,109.60916
1.4546014,108.87373
1.3873146,105.93979
1.3710494,106.605736
1.3496265,104.30246
1.2863915,102.0849
1.344461,102.732285
1.2339619,100.21072
1.2623886,95.28164
1.2156845,95.36975
1.1759372,96.59354
1.2402769,94.45674
1.1460094,93.08984
1.1286998,91.090126
1.175146,90.23363
1.1718166,87.91602
1.1631095,86.259224
1.1539582,82.80109
1.0496956,82.557594
0.99619985,80.942215
0.9621821,77.07091
0.91915137,82.37531
0.92542046,75.27693
0.87200683,75.9378
0.8966846,70.138176
0.76333725,72.753975
0.8046098,69.630066
0.6757203,69.53409
0.73328626,66.05241
0.6309746,66.953354
0.54523015,66.371346
0.58641505,60.129944
0.536175,60.178
0.56734014,59.245586
0.47968036,56.597534
0.5045377,56.561348
0.49900472,56.29577
0.6119539,52.752922
0.4795274,54.129757
0.44235152,53.957047
0.52216315,50.608486
0.39655483,49.373833
0.46867695,46.84048
0.42946705,45.806778
0.45809075,46.86387
0.38084328,44.136
0.39431003,46.00551
0.2991409,44.194237
0.24367847,45.600475
0.25761577,44.034645
0.29229376,43.55836
0.0992366,45.27628
0.10428463,46.64933
0.085259095,44.04816
0.16473545,47.17485
0.09756379,49.001896
0.067368664,48.09136
0.15684128,51.749702
0.033554688,53.641342
0.09499735,54.686546
0.14344475,55.135555
0.19689378,59.97336
0.33062536,60.937595
0.42587838,63.61919
0.43946478,65.97499
0.5716508,70.28941
0.55083394,73.44518
0.72731876,79.20212
0.8482786,79.06144
0.9141509,81.77235
0.95613724,84.27882
1.0542134,84.7087
1.0742167,87.72177
1.1573268,92.068596
1.2379862,95.333176
1.2226228,96.8242
1.302902,102.75454
1.3208746,103.51642
1.3472141,104.78462
1.2777178,102.07586
1.463293,105.275665
1.3767576,108.39723
1.4188871,112.61702
1.4161657,113.6139
1.4360157,115.22203
1.4145415,114.37743
1.4162657,114.65787
1.4453263,117.12457
1.3466814,113.66127
1.3516781,116.23354
1.4549663,115.473595
1.251321,117.367256
1.2367753,114.337265
1.2082285,115.839165
1.2515997,115.28543
1.1868861,113.03105
1.2096666,112.80487
1.2206541,111.975235
1.1547914,111.38697
1.1031761,109.62846
1.0723847,105.80237
0.9973987,103.71019
1.0374863,104.388596
0.9817881,104.898384
0.95356876,105.075195
0.98551524,98.65582
1.0240959,99.63851
1.0440902,97.27815
0.9483826,96.13269
0.9084725,91.53349
0.8738471,89.49366
0.875284,89.91157
0.8514687,91.39598
0.9302594,83.43562
0.93205583,88.71538
0.86565113,85.933304
0.7637012,85.90643
0.69887346,81.341576
0.69764304,79.17698
0.7273418,71.80949
0.7265543,73.99729
0.6178151,76.03937
0.5560388,73.940895
0.5317389,70.81837
0.5708229,68.247375
0.49294284,67.498764
0.4297537,69.461365
0.35285237,67.85543
0.40783322,63.039894
0.39104363,61.139034
0.39108005,60.92474
0.32497105,58.49334
0.38044322,56.545048
0.32170147,53.123535
0.351383,54.183098
0.27318388,53.626163
0.2903771,51.44426
0.3202098,50.244057
0.2914537,48.968483
0.28872436,47.87719
0.22582664,47.951664
0.27920792,46.012188
0.26730916,46.8439
0.21073514,43.797287
0.16183022,46.733673
0.046994593,44.59064
0.025360843,43.716354
0.046191394,43.19525
0.05671239,42.095036
0.13135685,43.644173
-0.025433399,46.0962
-0.053644076,45.71189
0.010265678,49.37016
-0.03986296,47.872757
-0.030770084,48.15647
-0.06375208,51.28408
0.022453593,54.869835
0.09731137,56.113483
0.18072723,58.70385
0.13278627,60.394493
0.3106361,63.557503
0.34173357,65.25634
0.43134484,69.561424
0.46654826,72.43024
0.6113117,73.567604
0.7441385,76.72024
0.6912553,78.7886
0.86191285,83.326324
0.8827973,85.26398
1.035279,87.7398
1.0839965,94.567245
1.1251538,96.02404
1.1661868,96.01465
1.307983,98.346146
1.2717618,99.199715
1.3089087,104.43336
1.3122257,105.502304
1.3398057,103.17287
1.4146903,107.72686
1.4611285,108.58979
1.4347428,112.981766
1.4589318,112.50247
1.4617782,113.452934
1.365552,113.805016
1.3552979,114.88773
1.4293004,115.33752
1.4319694,113.65426
1.4463674,115.5535
1.3241924,117.92351
1.2289946,114.359146
1.3696412,117.97
1.3431755,114.673416
1.3135756,116.46324
1.2745234,112.83407
1.2590803,112.46535
1.1941338,106.26746
1.2153342,105.826355
1.1402452,105.65325
1.1221795,107.73131
1.1116582,104.21347
1.1948005,105.86421
1.0961438,98.55972
1.0444423,102.37716
1.1080055,95.43132
1.0728027,100.02642
1.020522,93.81787
1.0418184,96.83936
1.0500008,89.621414
1.0265296,87.888115
1.043333,90.49673
0.93746173,87.56504
1.0071203,85.33511
1.0679406,83.04641
1.0299894,82.00926
0.95410013,81.12559
0.82914764,81.250114
0.89815515,74.97924
0.8358315,76.61361
0.81872445,75.48755
0.79275924,73.68987
0.6786685,69.25902
0.65013665,70.10508
0.6365722,72.47782
0.6209625,66.78101
0.6082128,64.615524
0.58085674,62.115726
0.48810363,62.57059
0.6529861,59.8862
0.5931719,57.91654
0.5782528,59.90026
0.602831,54.68542
0.5300355,56.35288
0.546936,52.79202
0.54968786,53.659534
0.55152243,52.461723
0.49625024,49.02435
0.55943346,50.441036
0.55056196,44.84501
0.5985578,42.983116
0.4933261,41.561096
0.50895196,42.419125
0.42741215,45.523956
0.40693554,48.23941
0.37369847,44.39269
0.39116848,46.2418
0.24781556,44.63012
0.3121434,46.57787
0.28622144,45.14188
0.22658195,46.229126
0.18642181,48.432213
0.26536876,50.471367
0.2683664,50.593254
0.25062454,52.094524
0.25960925,53.77394
0.3174577,56.06898
0.43929714,55.054478
0.4323982,63.057766
0.5175694,63.80646
0.617782,62.843307
0.71918297,66.23491
0.74195904,68.481255
0.9149238,74.45768
0.9391387,76.50853
1.0528175,76.92458
1.179969,79.233086
1.2299126,83.96817
1.3161615,89.563576
1.35476,89.822845
1.3942827,92.95796
1.4945484,98.12671
1.5268981,100.326126
1.6372572,97.70953
1.7065707,103.492744
1.6968191,105.06776
1.7106248,108.22001
1.6634649,107.678795
1.7770827,107.5525
1.7644167,108.840904
1.7725118,113.377235
1.7274643,113.438774
1.7315334,116.55097
1.816142,118.617775
1.703625,114.33728
1.7552752,115.89354
1.7045535,116.52919
1.773392,114.56005
1.7218364,112.71955
1.6669854,113.98676
1.6129144,114.96441
1.6584162,112.968254
1.6049029,113.283485
1.5719268,109.49698
1.5304527,112.90035
1.53954,108.92912
1.5229175,110.33793
1.4651469,107.16994
1.4800993,105.23148
1.4827974,102.52945
1.4268517,99.89685
1.4716719,99.43919
1.4246022,98.80357
1.3692861,97.01721
1.4343688,93.895096
1.3790468,96.2436
1.3872865,95.87829
1.3417515,92.20531
1.3560246,95.749084
1.3052465,85.798645
1.3421718,87.48226
1.4466698,82.85227
1.3037163,81.76197
1.312798,81.80768
1.2291263,84.27272
1.1679031,78.54476
1.0734309,78.163
1.0391767,74.02169
1.0895104,74.10975
1.1150483,73.37797
1.0688832,70.738976
0.9883812,72.158356
0.9157816,70.76215
0.9633831,62.820217
0.89306414,64.31732
0.8932687,65.44322
0.91687363,62.101704
0.8879298,61.721157
0.86607987,58.173775
0.8541763,54.818844
0.84525037,55.26967
0.90553427,53.270855
0.8956507,53.553936
0.9003101,55.042583
0.81214994,48.01295
0.83384186,47.431538
0.88260067,50.252754
0.7463235,45.104733
0.8256488,48.87747
0.78151983,43.826355
0.78493476,44.327885
0.78367686,44.951073
0.69056255,42.518517
0.59570104,47.779743
0.66727555,44.40577
0.65919185,45.93712
0.60345775,42.841766
0.6179215,45.328144
0.5507154,46.98113
0.5019996,49.603264
0.51596403,49.0299
0.5220172,50.097023
0.56069624,53.491077
0.58430713,56.460064
0.67573136,56.59503
0.7274679,59.046482
0.7384854,59.217415
0.898613,64.12509
0.8924155,65.17428
0.99760664,69.8302
1.1111618,71.07728
1.1772169,71.99436
1.2771537,78.5915
1.339057,78.64396
1.4311731,83.05736
1.5530927,86.045944
1.6390663,87.79608
1.6641006,90.16458
1.8405551,93.15025
1.7365487,99.1548
1.7702305,96.93553
1.856573,102.12148
1.8737191,104.62361
1.9065478,107.79961
1.9485384,108.1467
1.9874034,110.04669
1.9762154,110.632744
2.010181,113.87189
2.005971,111.84656
1.9201564,116.01173
2.012569,114.66614
1.9462589,113.77354
1.9788101,117.5325
1.923608,116.59349
1.8676924,117.426445
1.8986877,115.39087
1.844716,117.68894
1.7690134,113.7674
1.8880394,111.56016
1.7872357,109.252785
1.7638253,111.35748
1.7058915,108.41273
1.6845053,111.776924
1.7499079,108.47427
1.6481745,106.05554
1.7058797,106.59625
1.6311436,103.84573
1.5418098,101.8105
1.5532019,104.20785
1.6291202,101.69421
1.5006285,98.47434
1.5515453,96.17408
1.4819585,95.40789
1.494004,94.448685
1.4404261,91.55443
1.4648395,90.219955
1.4430401,88.79337
1.4662535,88.56107
1.3898869,86.32711
1.457664,84.35583
1.3797455,84.01071
1.3540658,80.55151
1.3045694,79.689
1.2147923,76.4546
1.2606558,77.46493
1.2618908,73.32502
1.1102169,72.91411
1.0957662,71.64424
1.0701245,73.65197
1.0195011,69.89386
0.9364422,66.82883
0.8836612,66.02388
0.99264616,64.16541
0.939926,62.86764
0.90279293,58.863277
0.8843833,56.694386
0.8827672,62.25946
0.905843,54.64468
0.8149158,52.806274
0.88154197,52.554474
0.79729956,52.350185
0.83967066,46.929367
0.8469835,50.590042
0.8394403,47.889618
0.7477549,45.892845
0.76596934,43.081787
0.7938782,44.08329
0.7374068,43.48498
0.6100504,42.311806
0.750216,42.632256
0.62850034,45.79912
0.5744449,41.5524
0.56783617,46.624466
0.56773597,43.708538
0.51378286,45.62343
0.46815515,45.797436
0.49565536,46.77352
0.376756,50.188248
0.44989043,51.48291
0.39671105,54.144665
0.5346355,52.07423
0.49394003,56.80045
0.65086323,59.024544
0.7064298,59.30115
0.68551034,61.71086
0.716424,68.34695
0.9544491,66.14051
1.0156479,75.31753
0.9930381,74.143684
1.092969,73.890564
1.2079675,77.02259
1.2657373,85.16549
1.3459854,85.71988
1.4035351,87.568306
1.460751,90.68407
1.5589736,94.32293
1.6211172,94.954254
1.5914825,99.13262
1.627762,100.290436
1.7379019,103.29706
1.7511142,108.11931
1.7337106,107.28184
1.8400712,109.9979
1.8388554,111.23497
1.8134804,110.071686
1.8205069,114.48344
1.7340823,113.735985
1.7889221,108.30102
1.7809942,118.244514
1.8406954,114.0093
1.769664,117.15402
1.711076,116.55007
1.6761265,116.0446
1.6811203,116.08529
1.6899346,115.63733
1.5928153,118.51349
1.59396,111.86023
1.5378127,111.93357
1.5506412,111.9563
1.5104271,110.376396
1.4478146,107.92192
1.4232516,106.85506
1.4328063,105.43275
1.3535024,106.96866
1.3329749,100.06781
1.3501678,100.265594
1.411797,99.72731
1.2676992,99.72278
1.2865046,96.96513
1.2377986,98.68153
1.2260938,94.91069
1.1263164,94.77275
1.2223346,86.85561
1.1890502,87.94752
1.1391169,87.88648
1.1803565,89.36083
1.1909513,83.36431
1.0733534,84.273895
1.0473101,80.322815
1.1169496,81.55925
0.97956586,81.30403
1.0120096,75.673584
0.8658614,76.828545
0.7917266,73.41652
0.8705457,73.0651
0.8081016,75.82448
0.797908,70.23783
0.71598,68.45426
0.67371327,67.95313
0.58031726,66.249916
0.6444544,60.920326
0.65553844,60.372868
0.5953956,57.996582
0.5507191,59.118824
0.5933839,57.008762
0.67482966,52.646927
0.49549407,52.339737
0.5500486,54.78442
0.49871275,49.303272
0.5731231,50.404305
0.48518914,49.308777
0.48892552,48.418983
0.4720705,45.18652
0.39983732,48.21382
0.4372449,46.95418
0.40739858,43.577957
0.38068193,43.6406
0.3362466,41.89783
0.3062744,40.85507
0.23614816,44.261818
0.16931345,43.242306
0.14510618,48.791004
0.08637155,46.416153
0.16268562,46.853855
0.13182761,46.701553
0.13542637,49.83683
0.050722916,52.20147
0.12616718,52.861866
0.14553593,53.90681
0.18770126,57.231174
0.29370356,57.49936
0.33729008,63.11889
0.44733542,63.69888
0.54566014,66.11379
0.5388006,70.29471
0.665849,73.05662
0.6671214,73.304344
0.7812778,74.70793
0.895153,79.84338
0.9869037,82.04498
1.0628073,87.54875
1.0462432,88.76823
1.1944236,90.23146
1.177266,94.61968
1.2343549,96.62143
1.2876196,101.119576
1.3371111,103.22202
1.3804543,102.98291
1.4022496,103.00077
1.441493,106.75206
1.3795859,109.6755
1.4727695,111.36617
1.4152026,112.7529
1.4432942,115.00416
1.3958709,115.70738
1.4554466,115.29606
1.4124186,115.29645
1.4574336,113.55831
1.4206845,115.381454
1.37259,115.182625
1.336416,115.18207
1.355285,113.27123
1.2635099,113.23337
1.3909731,114.28052
1.2099259,114.32031
1.2113655,115.58058
1.2009246,110.55995
1.1914649,111.97585
1.0786302,109.98891
1.1378715,107.18631
1.0745608,107.6719
1.0892537,103.92874
1.0289781,100.18419
1.0282074,100.75645
0.9376592,99.655
0.9988874,96.4603
0.964794,97.763725
0.90998554,96.25928
0.901638,93.03841
0.84426266,89.26366
0.9986571,89.59362
0.9291551,88.01283
0.8671662,86.569855
0.91427433,85.97471
0.8832817,84.72649
0.8454866,82.725494
0.77487046,78.32018
0.779014,77.765144
0.68188506,79.78705
0.69616383,74.46275
0.65694106,71.71555
0.64601445,72.37879
0.57169944,71.12033
0.571975,69.587204
0.4955113,70.93792
0.45753387,64.847374
0.35789263,64.50704
0.41862765,64.19063
0.45954522,62.6342
0.35984483,57.12707
0.36882547,60.085762
0.3686166,60.25079
0.29451635,54.16447
0.34083545,55.350693
0.36613747,49.71841
0.28786096,53.267735
0.32372007,50.01289
0.336036,48.142963
0.29810235,48.045967
0.27398866,47.044178
0.28518498,43.11065
0.23357949,44.904316
0.15590566,44.08888
0.15118927,45.433548
0.11860807,46.609776
0.03798498,43.993668
0.08692853,44.349575
0.025802588,44.418514
-0.031444635,46.96201
0.030061647,44.690178
-0.05632889,46.913326
-0.024206504,46.448193
-0.023974856,48.804676
-0.10089663,51.50056
0.041149445,51.230083
-0.0694204,54.70826
0.034961358,56.195045
0.12855174,59.74112
0.10499327,58.1533
0.27669254,60.410473
0.3127972,67.974045
0.37588432,69.39119
0.52946913,70.95861
0.5158643,75.00278
0.6787583,76.33261
0.7659706,79.13143
0.78883034,82.427414
0.95872116,84.91618
0.9639596,90.83789
1.0988606,88.82934
1.1918237,93.98732
1.1855894,96.460205
1.1142029,99.817505
1.3079383,99.54231
1.2629546,103.76425
1.2892805,106.28881
1.3997171,104.86538
1.3861568,110.400764
1.3542464,108.41986
1.3922815,109.371254
1.4545153,114.893486
1.4103495,113.07954
1.3838964,116.40963
1.3905867,115.6574
1.3900329,115.19703
1.4410526,116.282524
1.4066129,117.21042
1.3487056,112.61404
1.29531,116.384094
1.325449,117.08752
1.2850372,113.862755
1.2734553,112.25506
1.2491727,111.11233
1.2490733,111.74167
1.2308042,109.837326
1.1045941,107.08378
1.0995295,108.19375
1.0237867,107.29636
1.1012069,102.89263
0.971157,104.55106
1.0516266,99.73176
0.99193835,100.068344
1.0459855,99.33383
1.0456314,99.6405
0.9501288,96.7507
0.9996458,95.43758
0.9704081,93.12029
0.98234063,89.61285
0.9698398,89.27271
0.8811331,88.31616
0.9975569,85.54934
0.96267813,83.93298
0.9154352,83.394875
0.8822939,80.589714
0.841824,79.28268
0.8373079,80.733284
0.78824866,75.50209
0.7743194,78.613144
0.77706283,71.34571
0.68705934,73.21903
0.57343626,68.51031
0.6102399,69.93652
0.5742831,67.25331
0.53646016,64.962456
0.5435637,64.62336
0.51109695,63.185986
0.42035067,60.64277
0.5232862,60.59112
0.47661906,61.89516
0.4368325,53.852448
0.47142327,54.278454
0.53435963,51.80464
0.42565736,54.782814
0.48346397,51.23624
0.57184976,49.285683
0.51291525,47.003918
0.50653714,48.294937
0.42754835,48.14278
0.41104475,45.7024
0.39501178,47.58111
0.39699703,46.215
0.38305578,42.492672
0.39296272,46.054337
0.19422469,46.28031
0.26603004,43.412857
0.23195417,45.120396
0.24984676,46.442665
0.19414058,49.847374
0.15143967,47.96333
0.23810254,49.186314
0.16268966,50.05402
0.22448629,50.672527
0.22791295,51.948383
0.2722159,57.270382
0.37554637,57.562893
0.3919588,61.19112
0.49130815,61.55653
0.50475746,67.65664
0.68605703,65.241745
0.7243313,72.78863
0.8635075,71.470924
0.89755136,75.59192
0.9733599,80.835075
1.1219746,79.054214
1.1488992,83.043655
1.2401533,87.4755
1.2753003,90.87344
1.3221399,92.03543
1.3899095,95.69256
1.5130233,101.414444
1.5268428,98.92886
1.5419905,102.3451
1.5985143,102.44569
1.6609226,106.715546
1.6634173,105.80752
1.6758058,110.85312
1.6840175,111.32923
1.6784173,110.391335
1.7263242,112.77737
1.7097889,115.75597
1.6686915,114.1252
1.7376459,115.136505
1.6675762,111.755745
1.6749039,112.364525
1.7205193,115.42894
1.7169605,117.262024
1.6068951,113.858345
1.6239274,116.56741
1.6342258,111.87163
1.5969834,112.89694
1.5694025,111.65967
1.5266911,109.89162
1.4664438,109.77025
1.4992002,106.94992
1.4551213,104.42137
1.3854594,109.239174
1.4113573,103.028984
1.4018263,102.59779
1.3464434,101.64734
1.3957468,102.63827
1.4345955,97.42763
1.3101023,96.78556
1.3442394,93.36655
1.2792614,90.73855
1.3685794,90.88615
1.3068945,90.64614
1.3319871,85.29149
1.1588906,86.29257
1.2723479,87.36735
1.1874505,84.98473
1.2503445,83.35428
1.1962208,78.91304
1.153905,75.22137
1.1316994,77.658516
1.094116,73.77501
1.0636154,75.00396
1.0039443,73.190125
1.0366735,72.64847
0.9189952,68.8518
0.9465483,68.94606
0.915313,67.549484
0.84714836,61.926697
0.8568008,60.707844
0.8082691,58.68705
0.8222892,60.77646
0.8565743,59.072617
0.89198214,54.47948
0.81807774,53.207623
0.894987,51.50486
0.8681509,50.259502
0.9434868,51.453278
0.7530225,48.19173
0.77236325,48.965782
0.82693464,47.964294
0.7540545,47.670475
0.73279095,47.640594
0.7414073,48.52871
0.7143369,46.257614
0.66986513,44.897175
0.6779079,43.848526
0.67588425,43.34268
0.6055126,42.4802
0.5445937,44.087296
0.58386755,46.524242
0.4867524,46.598087
0.5351371,48.320477
0.42997986,47.43933
0.57465386,51.56706
0.5804563,52.262726
0.618412,48.85584
0.5795192,59.508614
0.62395185,59.422756
0.7094564,61.197166
0.71289325,61.049988
0.76732403,63.923252
0.9172995,64.217804
0.9520124,68.45244
1.0664587,72.585594
1.1425374,73.87686
1.2608349,76.85095
1.3223628,78.71922
1.4680923,83.748795
1.4696419,88.6117
1.5201651,84.607605
1.634427,86.904144
1.6530949,93.41276
1.6820136,100.180595
1.7956483,101.17338
1.8342378,104.5024
1.8787103,103.80908
1.9843423,105.85099
1.9865891,107.746376
1.8855547,108.9905
1.9746702,111.60447
1.9144723,112.28754
1.8730412,112.60114
1.9849349,114.15685
1.9566814,113.73394
2.0246675,115.64449
2.0256743,116.02082
1.8968583,117.1872
1.8269936,115.777885
1.8990116,118.50448
1.8573916,116.84642
1.8258909,114.03538
1.9199867,113.74981
1.8450453,113.84985
1.7745744,112.71946
1.7617624,110.679504
1.6280556,108.01364
1.653164,105.57889
1.6531752,103.41009
1.5849534,106.87411
1.6228263,106.98759
1.571473,101.85619
1.5683959,101.22488
1.5479187,100.31969
1.6042963,99.95276
1.4882144,94.64576
1.4758822,95.315285
1.4931179,90.88479
1.4491066,92.12644
1.495374,89.70296
1.5354322,88.16849
1.4840229,88.182884
1.3888937,86.460365
1.441916,84.840485
1.4056919,80.326866
1.3564068,81.51136
1.2932235,78.26416
1.2483805,77.60926
1.2999222,74.91269
1.2364159,74.85082
1.182759,73.720215
1.1558948,73.328026
1.0730568,72.03406
1.0871825,69.29663
1.0663419,64.904465
0.95056695,62.758366
1.0120206,61.595695
1.0464122,60.740837
0.8356102,57.512997
0.86535954,60.947468
0.9723524,58.046227
0.9520081,52.83839
0.92582595,55.728745
0.9486804,53.78433
0.86281645,53.510727
0.8311413,53.6735
0.8863828,48.91609
0.85916615,48.788754
0.8527971,46.48953
0.77908003,45.466293
0.8807336,45.026066
0.8023258,45.58313
0.75898457,42.858334
0.71095943,43.878456
0.6403574,42.726994
0.59633696,40.889244
0.63994604,41.700542
0.6660995,46.29544
0.5573888,42.66136
0.42458025,46.367393
0.58128285,48.908566
0.540998,50.398182
0.46210867,54.96305
0.5162064,51.737167
0.49897525,52.122
0.5323835,55.74529
0.6805864,56.992584
0.6726118,59.749603
0.68562394,60.849525
0.79148954,63.019787
0.9356794,68.28931
0.9234083,71.51385
1.0192256,72.14686
1.1439344,75.13062
1.2678434,79.535225
1.3621287,83.17337
1.3864238,84.340096
1.4305547,84.64456
1.5801414,89.63589
1.5365491,93.40007
1.5935858,97.03065
1.7088008,98.32224
1.7774771,99.305435
1.7904799,104.717735
1.8317778,106.12767
1.7903789,108.3622
1.865886,105.76446
1.8429289,105.8174
1.9117919,113.109695
1.9014074,111.27289
1.8267559,112.82512
1.8678966,116.66236
1.7992622,114.29615
1.8187034,113.094185
1.8563262,115.88114
1.8639599,117.09414
1.748707,114.27022
1.7604084,113.034164
1.653765,114.81387
1.6056421,113.81457
1.5862272,112.640236
1.6071613,112.03422
1.5425206,110.64143
1.5553082,111.29713
1.517991,111.79243
1.5504068,108.90982
1.4414504,107.30151
1.3746257,104.66097
1.3547204,104.65178
1.3522923,100.958145
1.368638,101.46168
1.3253831,100.43733
1.3528465,98.06207
1.3758024,95.985634
1.2633951,94.348526
1.3611934,91.82005
1.2186731,87.93371
1.3041483,90.45639
1.2267818,88.02972
1.2005467,85.64591
1.1445298,83.73597
1.2123413,84.72304
1.1939305,82.87919
1.0669297,77.77337
1.1290463,77.97786
1.0681127,77.3222
0.986027,74.49191
0.90554583,78.33234
0.88518244,70.56017
0.8078729,72.26383
0.83232075,67.97547
0.80476844,67.1203
0.7254294,65.84659
0.6318654,65.62623
0.75325686,62.04342
0.6918168,62.8526
0.63579625,61.59607
0.5621875,58.91709
0.68208486,56.991417
0.58385766,53.877308
0.6248711,56.975323
0.62217265,53.278603
0.56445605,51.466824
0.60229427,47.060047
0.55555767,45.689594
0.5444721,47.479855
0.4991432,45.94614
0.43540755,43.566296
0.5362082,44.882755
0.43309352,44.88216
0.41894683,43.922695
0.4128526,44.457638
0.38040203,41.170685
0.22029608,46.61785
0.24675152,45.585995
0.21519677,42.794357
0.1465149,47.116657
0.113347776,45.593105
0.13132906,48.821953
0.15048231,48.677464
0.14243321,49.831787
0.12964992,52.634846
0.20817134,54.593422
0.26855972,54.91677
0.31715703,57.40655
0.30611908,63.007717
0.45883882,66.709
0.41012797,66.32726
0.6078675,71.22167
0.6001645,76.67936
0.7844582,73.5576
0.8535528,76.99875
0.94173974,80.10244
1.0338835,83.32853
1.1468544,88.48258
1.190444,90.57527
1.1460737,94.88792
1.2737324,95.66053
1.3359189,95.98007
1.4075985,98.380844
1.3519397,102.92268
1.3277141,104.39168
1.4419595,106.48748
1.4315826,108.86644
1.4898866,110.12161
1.5088663,114.06079
1.4183092,110.064804
1.4389412,118.44641
1.441076,112.70024
1.4747185,113.958954
1.4060159,117.421
1.4299957,116.18882
1.4600382,118.37518
1.371224,116.216805
1.3808348,114.2275
1.3935208,116.11804
1.3953637,115.64931
1.3639812,114.41294
1.2953488,115.401375
1.2325491,111.20025
1.1963423,114.12686
1.1843864,109.21985
1.1978831,107.9228
1.0308573,107.92831
1.0718888,105.03558
0.99893147,106.04088
1.080651,100.60151
1.1161382,101.67799
0.99797934,99.02015
0.9959558,100.78097
0.946364,97.70091
0.99705356,94.37938
0.94084907,92.996506
0.97286206,93.310005
0.8853235,88.78002
0.9723089,88.80794
0.9361001,89.05476
0.90090996,84.315
0.8560959,83.06106
0.8487885,83.01635
0.7770955,79.13424
0.77946085,76.57944
0.71097803,77.305016
0.72820204,74.78881
0.6520769,73.587234
0.68999785,70.47648
0.577019,71.279655
0.5447284,71.18308
0.46712095,67.086334
0.52960485,65.84713
0.41332754,63.517338
0.43065763,63.263268
0.4766325,61.941647
0.417379,59.83991
0.35446304,59.1108
0.27276063,57.284798
0.31968334,56.437366
0.37364665,53.21503
0.35627013,52.289814
0.3452336,52.586983
0.30568105,50.06886
0.30020264,48.787086
0.29044345,46.658535
0.28199798,47.69882
0.26146248,41.789494
0.25176883,43.91539
0.19127691,45.117893
0.16783646,46.579876
0.16282105,47.016296
0.14092231,43.601185
0.07379296,44.961494
0.0042441636,45.743793
0.046645433,43.693314
0.009116336,45.467735
-0.0074857683,46.02821
0.025317453,46.87079
-0.06605711,46.433285
-0.040417213,49.985676
-0.028433762,50.63006
0.07483931,54.276615
0.017024346,55.18841
0.10880346,59.36446
0.07492035,59.730907
0.2517232,60.267292
0.31195194,64.89896
0.43947455,70.355095
0.4967237,72.1648
0.58360606,75.941185
0.68442756,76.46541
0.7454051,77.84414
0.88592285,83.50626
0.91759384,86.347275
0.98361796,87.74432
1.0581231,88.75923
1.1455811,93.849365
1.1663972,97.963974
1.2464597,98.65711
1.1729438,101.31357
1.3341999,103.741844
1.3430274,107.14023
1.3473928,104.743774
1.3182579,110.36424
1.419493,110.74344
1.3761497,113.89787
1.3240696,111.536545
1.3687211,114.54488
1.3631073,113.584915
1.390903,114.623314
1.3955051,113.97569
1.3426441,113.56942
1.4397298,114.028625
1.2875427,116.56565
1.3242364,113.76129
1.340982,115.14609
1.2452356,115.8764
1.2316402,112.6641
1.1556915,111.6216
1.1559919,110.772484
1.1864986,111.51072
1.0769957,111.21974
1.1056195,109.58824
1.1046524,108.174934
1.0788682,104.968925
0.98547834,100.37697
0.92677736,102.52458
1.008773,99.85185
1.0667526,99.26163
0.98855036,99.1076
1.034138,97.097534
0.9531488,93.86369
0.97318023,93.41335
1.0249091,87.38445
0.94180435,92.472786
0.93832034,87.075874
0.8683389,85.198326
0.87926173,84.037766
0.8604365,84.91527
0.8488851,81.14239
0.8458152,81.51852
0.7642734,74.9477
0.77924544,77.061455
0.7527352,74.31147
0.6565998,75.22861
0.6142487,71.5198
0.5739769,69.087135
0.56394887,64.84963
0.5369261,70.35226
0.5390057,63.76601
0.488511,65.66661
0.5220941,58.764557
0.44277832,61.01463
0.40989017,58.207508
0.4524344,57.77535
0.49770778,54.85664
0.4320757,54.63812
0.39863372,56.035553
0.45772472,51.793964
0.41616485,49.460163
0.5430097,50.032677
0.3720691,48.66654
0.37661156,51.617897
0.4144852,41.063507
0.33274692,42.42738
0.3844788,44.522938
0.33552516,43.01983
0.26912066,45.65724
0.269208,44.95063
0.25612572,43.54495
0.22190198,42.550385
0.22678994,43.17817
0.2077993,44.41192
0.090871446,46.822533
0.15878826,47.22642
0.20941573,45.904648
0.1318789,50.102398
0.17811923,52.816563
0.20220263,55.16591
0.27724403,53.529457
0.2845687,57.536663
0.31722477,60.79499
0.39192796,67.139824
0.4949076,64.11671
0.5874548,70.495834
0.697284,72.1713
0.7548732,74.153625
0.8390254,74.1761
0.92685115,78.21213
0.99536425,81.778854
1.073652,85.53603
1.2352802,87.90204
1.2625828,89.98736
1.3565543,92.19198
1.4319079,93.68957
1.4743553,98.033264
1.5948875,99.74014
1.5160519,101.500496
1.4729339,103.11137
1.5365791,104.91169
1.615215,109.54791
1.6402225,109.827934
1.6130295,109.6977
1.6237257,107.72546
1.6745207,114.1136
1.6812042,117.07361
1.639407,113.09153
1.6835232,113.973404
1.6432778,117.392525
1.5617571,115.34577
1.6088318,110.66409
1.5350425,112.57016
1.565475,116.090675
1.5557206,115.922745
1.5643299,114.681244
1.4814837,114.82968
1.5085613,108.971275
1.5140594,107.94362
1.4746296,110.243454
1.3974123,105.9035
1.3851115,106.14749
1.3327895,105.54007
1.3817383,105.48773
1.3795856,102.29939
1.3330969,99.76704
1.363627,98.77672
1.2897623,95.51895
1.2728301,96.06322
1.2918577,94.260796
1.3112434,95.16998
1.3071443,92.16356
1.2416773,90.94698
1.2117313,87.645515
1.168009,90.83049
1.2917186,82.87025
1.2397801,84.1184
1.1842415,81.819725
1.1780641,78.6778
1.0918642,82.04571
1.0924206,78.06562
1.1145005,75.92254
1.0959517,74.12133
0.906814,72.87566
1.0473928,71.44807
0.984682,67.95127
0.8846275,66.24426
0.82025623,65.47026
0.80060095,62.440563
0.7706063,63.564346
0.80243105,64.15985
0.8003898,61.503403
0.7845321,58.00223
0.771831,55.749157
0.8334271,54.12193
0.7091412,53.517162
0.82308483,50.20821
0.82848966,51.95742
0.79002535,48.76111
0.7908128,47.132385
0.8059019,45.674873
0.8194659,46.100216
0.7659886,45.679985
0.6830122,41.247566
0.68764484,47.73978
0.667607,44.158466
0.62898105,43.862278
0.613317,42.17966
0.55729485,42.993713
0.5192105,42.959152
0.6060037,45.794415
0.5414461,47.358604
0.47858247,47.082478
0.48449013,48.846916
0.5297136,46.78749
0.44276902,53.42689
0.4990924,53.4134
0.5278471,58.59315
0.5921198,56.54523
0.62513405,61.922077
0.6396692,62.083656
0.8353718,60.443314
0.79821277,66.77307
0.9414017,65.660255
1.0546817,74.63228
1.031961,75.84659
1.2835146,79.64031
1.1937141,80.15639
1.4305861,83.75733
1.4927161,82.84329
1.5225419,85.28869
1.7130468,92.976524
1.7126751,94.92354
1.6804037,96.73295
1.8045753,100.21905
1.8432231,100.31739
1.8232737,106.931854
1.8460038,106.61905
1.8444172,107.68763
1.9363735,111.89757
1.9126325,107.30354
1.9861618,111.29149
1.9013735,112.55456
1.9255201,114.58509
1.9370921,114.01954
1.9393755,116.88065
1.9515184,115.79129
1.968675,115.96923
1.9281607,116.81993
1.8749634,114.81339
1.8758751,115.9137
1.8803965,114.43717
1.8325131,115.22394
1.8138883,114.35847
1.8142276,109.73597
1.6879247,112.62586
1.7393417,110.50745
1.6965498,105.41166
1.6998248,106.29179
1.6454022,103.385315
1.5905603,105.28851
1.5748277,102.85526
1.6061461,103.84948
1.5711571,101.3747
1.5015659,99.26862
1.5839213,96.586
1.4747292,95.77201
1.4857864,93.06084
1.4800436,90.99922
1.4479825,91.01782
1.5129341,90.97523
1.4355205,87.61066
1.3922752,90.36271
1.3534558,84.53599
1.4255829,83.430275
1.4815683,82.314255
1.3648422,80.21254
1.3472782,78.23647
1.2594079,76.102264
1.1759784,76.10694
1.1762468,71.5264
1.1190996,72.12146
1.102978,69.65288
1.0156875,68.1629
0.9667654,69.779305
0.9860712,65.617256
0.96754783,63.71307
0.990299,62.443615
0.94952804,61.400635
0.98248214,58.138485
0.8820793,58.378147
0.9720536,57.360367
0.8468313,54.458652
0.9117036,55.032608
0.97091836,49.521954
0.83141947,51.636242
1.000847,48.422306
0.90791297,49.025566
0.89089876,46.58258
0.8213394,48.13284
0.8081329,44.31696
0.7892524,45.655483
0.79506475,43.079403
0.7083266,44.57676
0.6797195,44.40727
0.6247853,47.28703
0.6247355,44.325687
0.6295498,44.090466
0.57680774,46.627552
0.5084366,47.069733
0.47260237,47.64334
0.53424835,49.19879
0.527131,46.677948
0.5590281,52.928112
0.4417408,55.871845
0.6103021,56.843292
0.6598132,61.01621
0.77285767,59.570942
0.8225465,66.240364
0.83098,65.66469
0.9564778,69.50892
1.0040225,68.736534
1.1244543,72.25931
1.1156601,75.89588
1.2515562,77.72508
1.3982304,81.002914
1.3250034,86.93948
1.4888685,85.51726
1.5303072,91.5979
1.6576165,90.869896
1.7192613,95.0629
1.7320628,97.24543
1.7839024,99.73833
1.7732824,104.04703
1.9049019,109.43217
1.8873521,107.85671
1.8961288,106.15435
1.9283067,107.52726
1.8148645,113.411415
1.8781148,113.6536
1.84061,114.012596
1.9321944,113.39901
1.8834125,115.89517
1.9005533,114.60229
1.7680042,118.69303
1.9014441,115.7846
1.8296881,117.38511
1.8083433,114.88009
1.8180047,112.42332
1.7368397,114.506996
1.6721715,111.91335
1.671202,111.24737
1.6041913,110.41925
1.5966147,108.06198
1.632463,110.99594
1.5960594,106.52801
1.5148621,107.060745
1.492412,103.609634
1.4760356,103.72748
1.4323522,99.491806
1.4547051,101.057205
1.3727642,100.26459
1.37842,98.10991
1.3791392,95.1251
1.3278388,99.31851
1.2478462,90.73293
1.3497461,89.55631
1.2832981,90.71205
1.2854434,89.325485
1.1994056,86.99573
1.168747,89.548386
1.2450109,81.919815
1.1607473,83.26711
1.1296775,80.9641
1.0602487,78.27357
1.1074455,75.62455
1.0418439,73.31117
0.9759638,75.37157
0.96314263,72.24263
0.9069901,72.80335
0.8680443,68.498024
0.7735493,70.18163
0.7924682,62.93534
0.6589977,63.451393
0.726393,62.183346
0.7325343,65.0249
0.73151875,58.105827
0.73069996,57.891335
0.5907155,57.844696
0.681686,55.516167
0.6738816,53.138103
0.6195411,50.382595
0.65958494,50.884872
0.6672056,49.624947
0.6538077,48.579433
0.6639499,47.870396
0.54767925,44.145786
0.57199687,43.114986
0.48208877,47.46531
0.51010686,46.07607
0.48962906,40.881783
0.4565547,44.10896
0.4407219,44.980297
0.30176637,41.76877
0.28540525,42.632008
0.27168232,45.11992
0.1889834,47.153996
0.25585118,43.622967
0.18775824,46.98104
0.20883052,49.513256
0.27135763,51.10985
0.2119888,55.0249
0.3744768,55.03704
0.31305444,56.084373
0.39427894,60.156673
0.45854756,59.864258
0.45899537,64.85268
0.5760218,65.17108
0.6017541,68.48818
0.81903297,73.036064
0.8232437,77.50571
0.9988197,74.44614
1.005233,82.8988
1.1180202,83.80699
1.1405878,87.71617
1.1904433,88.182304
1.1927255,91.994576
1.3825729,96.85913
1.4012675,96.041916
1.3279611,101.89118
1.4007224,102.53836
1.458942,103.055176
1.4890875,105.44569
1.4659777,109.02907
1.5242773,106.49493
1.5019649,111.49852
1.559654,114.57961
1.5012769,112.08351
1.5405171,113.02806
1.5290309,115.70264
1.4727924,115.24946
1.4763483,116.065216
1.4274644,116.415504
1.4398879,114.91302
1.4357212,116.2071
1.4898874,113.20004
1.3046656,111.71295
1.3379879,116.38945
1.3908043,114.41377
1.2840707,110.75824
1.2729328,113.439514
1.1303543,107.866325
1.180103,110.32809
1.1498331,110.393776
1.1352794,106.171875
1.1340759,106.055466
1.1581682,101.43295
1.0719246,101.727554
1.071393,98.070564
1.0338577,96.024025
1.0444641,93.787895
1.0110426,92.99547
1.0929229,96.43703
0.98602957,93.808205
1.0051998,90.49965
0.99782914,89.09222
0.96579456,88.684105
0.93130153,87.04117
0.89545166,85.47307
0.83176285,79.357414
0.7623987,81.8374
0.7573715,79.25041
0.7679183,81.03974
0.68483096,76.39038
0.6638864,74.324974
0.66029966,75.307945
0.62229156,71.72582
0.5923189,67.22177
0.4739188,67.77625
0.39728034,66.48961
0.4362676,61.238407
0.47539487,61.384457
0.39371753,59.50081
0.38843632,58.092014
0.36920536,59.743214
0.39565364,57.897507
0.31261584,55.527542
0.3400495,55.088097
0.31751102,54.576317
0.35378045,51.667595
0.42360243,50.598125
0.36017784,48.535847
0.3558483,45.599003
0.20717447,48.09319
0.2981942,47.971004
0.2727862,46.701584
0.1826254,47.035156
0.19829966,44.504894
0.2449436,44.52265
0.10425011,44.3486
0.08905678,43.421642
0.024379414,41.623726
-0.021122022,44.632393
0.03208993,44.309032
-0.063940085,44.564857
-0.13514154,47.05333
-0.081676915,49.821327
-0.022166276,51.121296
-0.03146517,53.068874
0.07125405,54.2767
0.026265485,56.551125
0.13262144,58.53555
0.21731247,62.163963
0.23172273,64.26996
0.30135033,64.39421
0.3148184,70.76531
0.53210664,70.41288
0.5772131,75.581535
0.65130293,75.6608
0.7676594,79.62318
0.79044217,82.07041
0.8518612,86.41043
0.9685425,87.19473
1.0393931,91.60986
1.1049237,92.855064
1.2236841,97.32371
1.2313594,97.90189
1.2183359,99.19092
1.2198323,104.62629
1.315845,107.20275
1.328834,105.22297
1.3923789,109.13018
1.314556,110.800186
1.4016719,112.5048
1.3950832,112.481865
1.3169028,113.16289
1.386222,115.83988
1.413544,115.56032
1.3175693,115.846054
1.4095204,115.95075
1.3583851,116.70693
1.3712826,115.13938
1.2914503,115.62561
1.3458701,115.1462
1.283668,115.0082
1.1943176,112.14481
1.1999906,113.34718
1.1683934,114.41803
1.1293839,105.70727
1.0396321,106.46353
1.0733895,104.98872
1.057662,104.54507
1.0155605,102.254196
1.0155566,105.21889
0.9682482,101.04333
0.9667512,103.36818
1.0268309,97.825676
0.94029105,97.15514
0.99461746,95.911125
0.7978225,93.67548
0.9128443,88.881485
0.89992297,90.016785
0.9531025,86.45144
0.84663534,85.53435
0.8071884,85.93695
0.9544628,84.838905
0.92600423,82.12735
0.8056468,80.422646
0.8623121,77.412964
0.7479264,79.632545
0.7444554,75.2103
0.65852016,73.99223
0.6877763,75.692764
0.5517097,73.39129
0.5956624,72.43811
0.5400291,70.99274
0.5397377,68.07607
0.5034818,65.525566
0.4496533,63.873165
0.44367602,61.38955
0.4524585,59.885605
0.35841155,58.76645
0.44945472,58.389324
0.41857544,57.18718
0.4263817,58.302227
0.36107203,52.07987
0.4117802,49.908756
0.38162753,50.261917
0.33428714,47.66636
0.3875536,49.2894
0.42210236,44.34356
0.39271912,46.809246
0.37981397,48.66322
0.26982534,43.643913
0.27451774,43.968582
0.23773137,46.15164
0.23826489,46.80302
0.17336564,44.363834
0.12482362,46.23471
0.11927452,45.867702
0.16048484,45.72479
0.043359794,46.844692
0.040692437,45.129715
0.1053292,48.56488
0.14776902,51.778908
0.077259764,50.663506
0.08817802,52.243477
0.2133488,54.21605
0.21704304,59.51576
0.2668011,62.141132
0.39381552,58.032974
0.4482664,66.022934
0.5054584,67.933754
0.6150613,70.28483
0.597845,73.47083
0.8252567,74.763
0.8681307,80.62123
1.0424995,79.718475
1.0411447,83.13107
1.2206984,88.366264
1.2359523,91.13981
1.2555957,92.10281
1.3017087,89.630745
1.3767918,98.83184
1.4481956,98.63428
1.4256169,103.54861
1.4802467,106.5228
1.5076091,112.35518
1.56779,107.61939
1.6081573,109.39612
1.6177329,109.88701
1.5453012,113.8884
1.5747229,113.619225
1.5454108,112.79824
1.6396351,111.56699
1.6399314,118.91783
1.5118246,116.736115
1.4975163,117.226585
1.5796878,112.21645
1.5332042,116.439514
1.5671923,115.67769
1.5583684,113.85925
1.4488186,112.60034
1.4741914,112.42015
1.345599,108.87442
1.4148778,112.26361
1.3192178,108.720955
1.3663993,107.761475
1.3180429,107.29275
1.2663851,106.274284
1.3135954,105.26771
1.2822019,103.7516
1.3095828,99.554436
1.2455044,97.72523
1.3223239,96.01575
1.2701434,94.287056
1.2432019,93.21955
1.2499503,93.64004
1.2229525,89.619064
1.2826811,87.744125
1.1975285,89.68651
1.2092175,85.9636
1.2073063,85.44605
1.1632172,83.92164
1.1196523,81.24121
1.0667281,78.418846
1.119578,78.29914
1.0288745,78.99138
1.0803901,75.45741
0.97161216,75.48835
0.93965167,71.12754
0.9012522,71.23684
0.78481984,67.803566
0.887353,70.05452
0.8186206,65.20698
0.8031841,63.687935
0.7159449,61.38354
0.71057117,61.671227
0.8181263,58.01281
0.82205576,58.3384
0.8071228,57.73938
0.7534707,58.162537
0.86898696,54.040733
0.74723864,52.251324
0.7534076,49.923206
0.8108324,49.89121
0.77685714,46.511543
0.72856575,50.46122
0.76457995,45.787807
0.71899337,48.925594
0.6451847,42.79509
0.7175644,47.273457
0.6528425,43.288025
0.5719064,42.502724
0.5749435,43.326496
0.5665015,44.323082
0.5005621,41.178715
0.5406566,45.604538
0.41200218,45.056217
0.47744438,44.473415
0.4198034,48.714798
0.41232234,51.016853
0.3722486,51.735325
0.48508567,52.783215
0.5415177,55.110912
0.5331465,59.36701
0.6135413,61.35839
0.63497674,61.432922
0.7343948,65.81484
0.83458304,66.59516
0.98984665,69.893814
1.0035095,73.03411
1.0830437,74.14264
1.0338032,77.69522
1.3474021,82.48745
1.401004,85.15612
1.396116,87.008064
1.5022724,87.73511
1.5647568,90.540886
1.6271684,93.89293
1.7633265,97.7065
1.7135899,102.5606
1.7057723,100.837326
1.7761096,105.82488
1.8406161,107.48156
1.8656526,111.59606
1.8482015,109.30265
1.8558263,108.723335
1.9557133,108.77839
1.9605699,113.4162
1.9433033,113.656975
1.8835294,116.25257
1.8811295,113.78132
1.8584173,114.88454
1.9319342,113.76679
1.9779785,116.32209
1.915485,115.72239
1.8464422,111.21742
1.7858926,117.7518
1.8578808,112.73678
1.7260007,111.89277
1.7560387,112.292496
1.6763388,110.224106
1.7074118,108.051186
1.639763,105.313194
1.6546849,106.74821
1.6406512,105.14361
1.5916314,105.47989
1.573884,100.95802
1.4796666,104.14824
1.5022534,101.3052
1.4800582,96.22295
1.4312382,97.728806
1.5530617,96.4559
1.4308735,92.682274
1.5340099,90.60867
1.4695109,90.14613
1.470984,86.11918
1.4447699,85.9354
1.4230508,85.45242
1.4006497,82.81423
1.434483,82.1108
1.3674656,81.73887
1.3603319,79.690865
1.2683549,76.13046
1.2992473,74.538315
1.200796,75.91017
1.2130784,74.54088
1.0660623,72.84116
1.1887245,70.110245
1.0954523,64.57381
0.98265666,66.31951
1.0325279,67.48291
0.96812856,65.93047
0.96753955,60.249283
0.9937933,60.787468
0.9565951,60.195095
0.94763356,56.039944
0.9410617,55.636696
0.83942956,58.25708
0.9530735,52.04667
0.9305754,51.720226
0.8642564,49.097115
0.9057912,50.04248
0.9269015,46.78204
0.84209055,47.704735
0.9653328,46.235817
0.8532481,45.172497
0.8139315,45.83137
0.7524566,44.207134
0.7153296,40.762333
0.7398716,41.913376
0.68783045,43.15034
0.6436708,45.351784
0.58369863,44.46651
0.59084815,44.631157
0.5495487,43.469753
0.5304615,50.287273
0.55522984,52.153416
0.584502,48.828094
0.51262116,52.26991
0.62223303,52.503975
0.6260591,56.648254
0.65585256,59.383217
0.73140985,60.893703
0.802521,62.976265
0.8416444,61.32287
0.9884349,69.00945
1.0143583,71.03665
1.1730691,72.457565
1.208734,73.70406
1.3005604,78.48551
1.3983757,83.361984
1.5068897,84.46683
1.507913,87.82012
1.6588424,90.27432
1.7185127,93.22735
1.6523557,99.89111
1.7174741,95.766174
1.8288851,101.51506
1.7972109,102.9975
1.9130584,104.54347
1.8752714,107.34518
1.9232798,109.242805
1.9102784,110.15614
1.9319246,111.794586
1.862362,114.535866
1.8883123,115.189705
1.8320451,114.700485
1.8928553,115.99638
1.8150333,116.253586
1.8659384,111.82755
1.816679,116.54436
1.7601681,113.43702
1.8326373,113.92136
1.7956587,115.76622
1.7107036,115.10786
1.7055248,116.46577
1.6994684,114.18554
1.5828645,112.91408
1.6177657,111.28001
1.5982294,105.935555
1.5009364,110.41527
1.4639101,105.65005
1.4762989,108.56818
1.5384308,101.84674
1.4267894,99.570435
1.3529788,101.18856
1.4467324,99.764885
1.3963116,99.37429
1.402234,94.1454
1.3317516,94.76231
1.3671845,93.81282
1.3557713,91.161285
1.3794765,89.2751
1.3546988,87.44644
1.3055377,87.56817
1.248484,87.36847
1.2635138,83.530205
1.2203388,80.82634
1.2212331,79.95174
1.161794,77.07009
1.0847613,77.59384
1.1532992,77.68716
1.0185269,72.30929
0.9904469,69.53285
0.82375485,69.2271
0.87866515,71.37515
0.85599107,68.41752
0.8408045,64.69239
0.6976933,63.74609
0.7390609,62.662846
0.7213884,59.151905
0.750388,57.994522
0.7511431,58.73045
0.73201436,56.387405
0.6558673,54.956017
0.7142718,52.982243
0.70488775,52.760998
0.78757346,51.19556
0.74651474,50.413265
0.66552216,48.96493
0.6852209,46.225685
0.6510938,44.386497
0.5896891,44.12763
0.54018736,46.47681
0.53114396,46.843693
0.5136587,47.039474
0.47615072,43.13044
0.45784438,42.988865
0.3811885,45.795048
0.3629998,43.483795
0.26639533,44.025433
0.20513117,45.351738
0.3426122,46.246136
0.23119949,46.91774
0.24093483,48.862373
0.29982108,52.486706
0.27409905,53.582996
0.40382525,54.88404
0.3416145,56.50225
0.4212739,60.82418
0.51742524,62.812325
0.5480282,64.78699
0.6117272,66.63677
0.6429763,67.55639
0.78058094,72.58156
0.93595076,76.691055
1.0151522,79.32819
1.0420882,81.07764
1.1472404,84.709785
1.1680951,88.96666
1.2095982,91.34687
1.3609493,91.84273
1.3883915,91.78766
1.4571108,94.922714
1.482366,99.36441
1.5017042,102.659805
1.533465,103.002304
1.5074248,108.47388
1.4793459,109.34969
1.5889207,110.59885
1.5558748,109.51036
1.6210526,114.97379
1.5993348,112.34737
1.5893861,114.696495
1.5742663,114.84417
1.5998087,117.18576
1.5519077,117.704735
1.5376055,117.18131
1.5095155,114.51554
1.4536164,112.76789
1.530288,116.268845
1.4451569,114.99634
1.383223,113.981895
1.344151,111.038826
1.3629868,111.58694
1.308681,113.13648
1.3160645,107.42297
1.2312666,109.59434
1.2216963,106.31658
1.1349636,104.91835
1.1941323,106.250336
1.1588701,101.57048
1.0851101,100.96741
1.0938529,99.15278
1.0516709,98.39458
1.0872166,96.73764
1.0123442,95.78592
1.0790248,93.55422
1.0194547,92.1795
0.926168,92.29285
0.99242395,90.5322
0.9208772,82.80505
0.90161645,87.63953
0.93326604,84.93851
0.8395732,84.46399
0.86795753,76.548904
0.79498243,79.35817
0.9006103,76.240776
0.7769907,75.784935
0.64777184,69.86854
0.59554005,70.05579
0.6871977,72.5493
0.5757629,69.91612
0.44832724,69.28349
0.52525884,65.07108
0.6155607,64.44482
0.48436597,64.17041
0.46800804,62.954395
0.37002826,57.43413
0.37611973,57.351288
0.4468052,57.256367
0.37459445,53.429867
0.3425967,54.269375
0.3609053,51.679337
0.36478063,50.519257
0.34874174,50.63514
0.3518112,49.105244
0.36302686,47.72457
0.35680377,45.389843
0.2363199,46.671547
0.275284,47.692863
0.19652544,45.15375
0.12824073,46.0224
0.2176573,44.587708
0.14664881,42.94616
-0.033636898,44.341274
0.065158665,45.27346
0.031612,46.593323
0.0062565804,47.140743
-0.047825035,47.010136
-0.051438633,48.714363
-0.0039745346,49.175995
-0.05268793,50.895126
-0.05396676,54.158585
0.09044249,54.990005
0.11960587,53.826965
0.066086456,56.772038
0.24491075,61.98965
0.22494362,62.16115
0.3738158,65.71001
0.47388998,68.4613
0.47620526,73.64485
0.52643216,75.532486
0.6753056,75.95334
0.7654258,81.26618
0.8748603,79.79818
0.8342466,85.416595
0.9171477,87.59154
1.041735,90.32885
1.1027,94.32285
1.2094675,96.13964
1.2493339,99.699585
1.2325091,102.73081
1.363831,102.91779
1.2842942,103.52066
1.2818718,108.323364
1.3343294,109.82948
1.3385719,106.36844
1.3450425,114.79496
1.4479728,113.92585
1.432493,115.41804
1.3602357,114.98569
1.3440182,115.05108
1.3900595,114.385086
1.3696772,112.65025
1.3264742,113.52049
1.3453152,113.309586
1.262881,116.21251
1.1776177,113.76276
1.2323979,117.81926
1.3202342,113.65116
1.1510932,114.17126
1.208824,112.76499
1.1587198,109.51252
1.1170648,108.22081
1.1296823,109.137924
1.0210323,105.041565
0.97260803,102.78224
1.0078095,103.31511
0.9619123,102.48146
0.8674294,99.398674
0.94082326,98.27371
0.9533956,99.1734
0.8732418,94.401794
0.9485519,93.839645
0.9764711,95.3824
0.95288485,90.19989
0.8405608,90.18293
0.85779464,86.6997
0.87723094,87.76953
0.8412242,84.91713
0.77956676,84.20667
0.879404,82.026726
0.8472922,78.82114
0.77701396,78.36594
0.6777821,76.73821
0.6119047,75.45595
0.61059725,71.63008
0.579331,73.43319
0.5629691,70.440025
0.43828338,71.39227
0.46670586,66.26046
0.50152177,71.191765
0.46905214,64.77122
0.48267004,67.35981
0.4294218,60.783752
0.43690717,60.511333
0.4163712,58.08881
0.34506255,55.934704
0.4225957,56.83819
0.41367495,53.89606
0.36440188,52.849552
0.3655522,50.065163
0.35977894,48.45118
0.42108294,48.5874
0.40145382,49.69368
0.4113805,45.014233
0.32594046,43.986298
0.3090283,44.573914
0.31933734,44.80308
0.2492617,44.78138
0.24062477,41.59718
0.1635246,44.44303
0.18863456,43.075497
0.17412938,48.32133
-0.033141408,46.449627
0.014105683,47.409973
-0.01475168,46.67446
0.05568023,49.31491
0.0029321548,49.7709
0.054055545,51.347416
0.1302163,53.835503
0.14828509,55.143417
0.09829335,56.4049
0.22221065,60.306213
0.48851725,59.135662
0.42156813,65.84759
0.48230052,65.21545
0.5332757,68.50091
0.6571428,74.401344
0.8299498,78.626564
0.87430006,76.34563
0.9207877,82.829475
1.0407064,86.587456
1.0906506,87.762764
1.1804968,91.02066
1.2173755,95.14176
1.288702,95.85514
1.3274502,100.80542
1.3813956,96.78289
1.3808063,101.19155
1.4379516,103.76781
1.4797821,107.88273
1.4481335,107.32881
1.5142038,109.17199
1.5358487,111.95307
1.56912,113.7393
1.6075379,113.84007
1.5995159,113.5423
1.6277089,115.504074
1.5820653,118.54234
1.5777969,112.807884
1.4939122,112.866646
1.4846792,117.589035
1.4743459,116.33995
1.3772403,116.472336
1.4888994,115.26276
1.4331268,112.258064
1.4912477,112.35478
1.3998369,112.493
1.3750769,113.35683
1.3713905,108.66382
1.2924619,108.02219
1.3368769,108.033356
1.2671787,106.227585
1.2016588,102.5405
1.2489449,102.0379
1.186821,99.66693
1.1877717,101.43935
1.16644,98.85483
1.2098975,97.3124
1.1765617,94.52193
1.0861796,92.274055
1.2345612,90.73189
1.2228692,90.88405
1.2167394,89.76985
1.195454,85.286606
1.1736516,82.38979
1.0818263,86.13687
1.0748732,81.56459
0.97869146,79.27677
1.0460967,78.99058
1.0956178,78.97547
1.0147066,72.65635
0.9397619,75.5407
0.83645296,72.95397
0.8598408,66.16983
0.8120502,70.19428
0.7927091,66.71098
0.8157195,65.865074
0.77378315,62.901016
0.6807899,63.151432
0.69431436,59.363735
0.6700738,57.996235
0.6905393,57.730904
0.7242869,57.84363
0.71909237,54.88906
0.67266643,54.956333
0.71907324,53.866753
0.63435495,52.251225
0.6221739,52.7545
0.7535095,46.45041
0.6522628,44.25961
0.6644715,48.26226
0.65571374,47.862534
0.66025794,45.650696
0.62009573,47.105743
0.62327045,41.83901
0.6264843,41.823048
0.50577855,46.340992
0.45580047,43.698563
0.540232,46.135517
0.44111216,45.17077
0.40719157,49.068348
0.34320757,46.73083
0.35488856,46.537106
0.44334695,49.809307
0.39608154,49.521816
0.46956944,52.39809
0.43937516,55.595493
0.53865254,56.71836
0.5625604,61.01968
0.6664506,62.295277
0.71857387,66.5997
0.78057605,64.83266
0.91820896,69.17418
0.99603784,71.32656
1.0312779,70.59464
1.1844413,76.84283
1.246474,78.76064
1.3620621,81.630005
1.443478,84.03659
1.5011989,86.97795
1.5492522,92.1344
1.6409713,94.541145
1.625422,94.21711
1.701625,99.798645
1.7624675,99.47365
1.8806584,104.390335
1.8402886,106.52697
1.7904814,106.75998
1.8336809,113.841324
1.9380094,107.97732
1.7365681,114.63154
1.9279026,112.68606
1.8940461,112.89808
1.9050893,113.48865
1.9197671,114.79496
1.9088713,116.98174
1.798607,114.75361
1.8740623,116.86879
1.8140705,115.902016
1.8128914,115.57627
1.8593519,117.9395
1.7210114,114.61776
1.8348607,113.73644
1.6603867,111.19873
1.6509788,113.87711
1.6791734,109.73074
1.6900046,110.270744
1.5664797,106.91904
1.6282607,106.81377
1.5494832,101.8906
1.5262153,104.25329
1.5209883,103.43749
1.5467783,100.7174
1.4823943,101.64927
1.5178764,98.71284
1.470675,95.3377
1.458127,93.82644
1.4763931,93.43969
1.4649639,87.29855
1.3760668,89.0321
1.4585359,87.04083
1.4612871,83.54733
1.3195729,83.62657
1.3087189,83.2411
1.3795431,85.19303
1.3508581,80.23281
1.2669697,78.10267
1.1828666,78.6997
1.158861,73.18661
1.1783175,75.13095
1.1396556,70.39907
1.1129253,69.123924
0.9924517,70.294075
1.0917528,66.638
0.9609988,62.837967
0.94519275,63.633575
0.9255413,61.94202
0.93625504,60.59978
0.8972972,61.269108
0.8491166,57.51006
0.9318269,56.241817
0.94803023,54.150433
0.94296664,50.717197
0.90349305,51.685562
0.920705,51.13
0.90771157,46.726257
0.8535694,48.73013
0.8740104,48.697124
0.8758814,46.319786
0.85528314,46.328697
0.8781163,47.22213
0.72995335,42.2002
0.8034672,46.42222
0.7243937,43.644135
0.65730226,42.188305
0.7601396,41.739746
0.5215354,46.106518
0.57117057,46.333073
0.57482094,47.50443
0.5504685,46.098198
0.46605065,48.501953
0.5563348,49.321
0.4729424,53.934998
0.62170017,54.47279
0.6591204,52.73463
0.6779073,57.18353
0.7576449,59.398804
0.76934516,60.745052
0.83498514,66.68997
0.95433456,67.046425
1.0450116,70.88586
1.1411349,75.559715
1.178802,77.46374
1.2859148,78.49871
1.3586321,82.85407
1.4663488,83.119026
1.5336978,91.34714
1.5698235,91.92408
1.6944573,92.448975
1.7463386,96.56599
1.8020636,98.84949
1.7802767,98.00699
1.8431809,100.89597
1.8052946,104.90211
1.9284682,104.73719
1.9395044,109.88122
1.9585781,109.89912
1.876796,111.96128
1.9101744,115.096825
1.8779444,114.580025
1.9037989,113.03563
2.0037808,118.15768
1.9243826,117.5307
1.8540344,114.86057
1.892126,114.84928
1.9449722,117.89926
1.8362616,112.93665
1.8588872,116.50136
1.6463622,114.8728
1.752335,110.72093
1.709086,116.27407
1.7526603,104.7848
1.6364188,111.07062
1.7252023,109.49485
1.5917746,106.23774
1.5462382,109.692215
1.6135544,105.4862
1.5173712,102.31252
1.4550716,101.902794
1.3981493,101.97406
1.488894,97.76221
1.4977188,98.02301
1.4036961,94.71925
1.4512149,96.22196
1.3618909,94.29044
1.38122,91.620964
1.3926028,89.03694
1.3567466,87.53004
1.3852618,82.261024
1.2867589,85.28114
1.3190073,82.83669
1.2220501,82.21925
1.2727419,79.9638
1.2089186,79.382355
1.1531471,75.81678
1.2212743,75.25776
1.1100922,70.77412
1.0024749,74.17413
0.99310607,70.8066
0.9871757,70.60701
0.9668409,69.720955
0.8452576,68.05954
0.8683791,63.19148
0.89393926,62.34624
0.76727635,61.67342
0.8000611,60.06086
0.80764055,57.651726
0.7343114,55.70055
0.7906715,55.426582
0.7286088,52.303246
0.7436666,51.617725
0.7191479,49.959034
0.7079889,46.82186
0.70939887,45.893322
0.65232927,46.231678
0.7268079,46.796696
0.66165507,45.646652
0.605408,44.553337
0.59302163,45.13839
0.5439559,45.050903
0.539775,42.596886
0.4765747,43.616474
0.4414661,43.64547
0.3633817,42.975445
0.4235449,45.05988
0.324267,45.27299
0.24753383,44.20034
0.31350645,47.772434
0.25718877,49.58257
0.3298625,55.078053
0.3773939,49.01045
0.39539468,55.892616
0.40127447,55.779736
0.5279835,57.559532
0.51443094,62.717327
0.54975253,64.06497
0.748524,64.93772
0.7087741,69.60832
0.8669029,71.785355
0.9818029,77.69069
0.95388603,78.16972
1.0827693,80.5937
1.0803943,86.56713
1.2365255,87.79091
1.2490909,88.47944
1.3870022,91.34205
1.4147321,93.899734
1.5063541,97.69631
1.4950213,103.02079
1.5237485,101.6239
1.4999204,105.11791
1.5097115,106.23706
1.6658632,107.27828
1.5942746,109.90956
1.6208837,112.4786
1.5762731,112.63822
1.5844395,112.56273
1.6335771,114.186295
1.5371188,118.5468
1.6868951,116.14974
1.5743476,115.67293
1.5972637,117.741455
1.5209384,113.009514
1.5234474,114.61574
1.4408792,114.95241
1.4825644,113.13391
1.4014344,113.03885
1.4847071,112.15744
1.2865375,112.77552
1.3258672,110.070694
1.255206,110.45612
1.2979172,105.03826
1.2857093,106.237625
1.2281135,103.23359
1.147098,105.300354
1.130624,104.99073
1.1286757,101.26194
1.112578,98.3544
1.1756117,97.413666
1.1031796,96.31532
1.0546613,91.96448
1.0859064,89.44265
1.055039,90.995674
1.0506322,89.82021
1.0227126,86.71173
0.9397731,84.27169
1.0900522,83.55927
1.0372162,81.73007
0.9575322,84.34039
0.93179774,81.99467
0.8487612,76.74904
0.814893,80.45813
0.7872976,75.63616
0.74286425,75.79168
0.73277354,73.98647
0.6416588,74.01961
0.65789497,72.228424
0.6113637,70.798676
0.65299237,66.577576
0.5156465,64.82186
0.4650866,64.512245
0.4188354,61.71559
0.4893953,60.236008
0.4554914,59.0205
0.5256082,55.97745
0.41570792,55.501305
0.4265735,52.510536
0.42138368,53.151463
0.43703192,49.617195
0.3848846,54.543556
0.40882486,47.519802
0.4268233,49.370182
0.3939711,44.732117
0.3325675,46.58676
0.2250828,46.50873
0.23278381,43.54011
0.28165793,43.89151
0.22600356,45.276302
0.10837859,45.89142
0.14786711,41.680004
0.1867821,46.230522
0.026690084,47.268074
0.037335206,43.848957
0.018045094,49.276703
0.05847533,47.182213
0.03799189,47.58424
-0.10984205,50.600418
-0.013460111,49.294468
-0.026715541,56.526867
0.14352943,55.789368
0.15004677,62.392723
0.19474472,61.020435
0.21693216,60.714516
0.34219187,66.13893
0.44268996,70.96407
0.4781667,70.40025
0.59953636,74.35646
0.69010794,74.7907
0.7432867,81.48984
0.77910703,82.73477
0.9567107,85.85528
0.96399593,83.96563
1.0569363,88.64877
1.0556006,91.70364
1.200836,96.3895
1.2079524,102.39569
1.3436885,99.12014
1.3112477,101.32216
1.2494658,104.60726
1.360899,105.78483
1.4107957,106.86675
1.2676829,110.17175
1.4738429,112.16794
1.3367524,111.69715
1.3841697,111.00128
1.3992661,114.26974
1.2965422,112.76737
1.4289945,114.95626
1.3810713,113.70254
1.3649793,119.09244
1.2490883,115.51516
1.2217659,113.01485
1.2893032,114.20363
1.2618053,113.287926
1.2239307,115.30559
1.1829383,114.23364
1.1879057,113.59624
1.148221,109.4553
1.1360552,107.93093
1.1792647,105.05297
0.99712896,107.902275
1.0739924,105.31655
0.9849358,101.23123
0.94417936,103.68007
0.9614861,101.17612
0.9452951,99.178
0.8838308,95.03046
0.8548617,95.29268
0.9096534,94.478165
0.9341794,93.139305
0.94474703,87.48093
0.82060075,88.46281
0.8869015,85.29856
0.83374816,86.236664
0.8704886,85.404526
0.76550746,84.34308
0.83934593,80.383026
0.7722775,81.46217
0.75750273,76.32147
0.6764882,72.849525
0.6091204,73.95691
0.60411364,73.20219
0.6104223,71.520905
0.5064544,71.39829
0.49460554,67.31455
0.50086653,67.43885
0.41541657,65.391365
0.42106012,64.69928
0.3828045,61.568996
0.38745886,59.34076
0.40017605,56.48752
0.3177959,56.660603
0.31356564,55.589054
0.31884393,56.085598
0.35240334,52.49372
0.35268402,50.062805
0.42280483,50.79263
0.37592646,46.836967
0.35518962,46.881096
0.2913134,49.24299
0.3679784,45.284603
0.29025048,50.781013
0.34833962,44.075592
0.24213976,43.118908
0.16726808,44.841866
0.14614172,45.621895
0.11724212,42.239098
0.045515377,45.229168
0.12014066,44.961155
0.053361084,48.595158
0.00039763527,47.779285
0.03565085,47.92332
-0.0063975067,47.544357
-0.025885627,52.511326
0.106897004,51.08545
0.021707518,51.47872
0.1530823,56.909035
0.07592647,55.331573
0.23300917,56.627365
0.3125564,60.864765
0.31675118,66.37888
0.39334726,69.87338
0.48368746,67.55211
0.63861305,72.4887
0.7154684,76.63658
0.82928735,78.285225
0.89627874,83.81624
0.9632505,87.14407
1.0775057,85.200455
1.1339056,89.54882
1.25325,91.59493
1.305326,95.61441
1.2663685,96.96583
1.3232489,97.775375
1.3824836,102.65321
1.4546927,102.85125
1.4515064,106.47645
1.5053904,108.308075
1.4378846,109.48596
1.548401,110.44984
1.5694357,115.40045
1.5787548,113.26999
1.4875791,113.15602
1.534821,114.72106
1.4595443,116.44515
1.4951215,114.61849
1.4769763,116.07786
1.396615,115.552956
1.4806443,116.88829
1.4776788,115.670074
1.3834546,113.99368
1.4123636,114.990616
1.3463074,111.14304
1.3335216,111.10745
1.3168448,110.57487
1.2816885,111.49035
1.2363379,107.66842
1.2313077,104.20614
1.3192645,105.12742
1.1869887,104.11676
1.1405661,102.747604
1.1000178,101.10761
1.1611731,97.87612
1.2583107,96.85332
1.1422004,96.56349
1.1375972,98.45576
1.0978365,91.78672
1.0736511,90.47389
1.111362,88.11406
1.11867,86.39706
1.0851408,87.6158
1.1053832,87.62899
1.0835893,84.406235
1.057467,82.54544
1.0375425,78.72887
0.9231798,78.63419
0.96707565,76.17742
0.9565438,76.48262
0.8918455,71.41301
0.8399592,74.44332
0.8009311,68.8191
0.7277595,67.99923
0.77628875,66.46139
0.6861942,65.16738
0.6575417,64.354256
0.6885852,62.744415
0.6003426,58.28553
0.7208093,61.012714
0.62274027,60.503025
0.64779526,59.649155
0.6466364,54.991272
0.64522284,53.026188
0.6242042,52.822445
0.6710898,49.686222
0.7238281,51.80324
0.66887814,48.92104
0.66687685,49.879566
0.73108387,46.485016
0.64553714,43.704536
0.5962392,48.239655
0.6080739,44.735725
0.5626286,45.6273
0.5338106,43.907757
0.4259539,43.762043
0.45689186,46.51154
0.44003668,44.41866
0.34912664,46.55789
0.36839,44.623768
0.4101612,45.773823
0.31441113,47.672085
0.25235343,50.122524
0.31092536,50.588
0.4208978,52.31327
0.43419376,55.29475
0.45801437,58.333008
0.53306466,60.938595
0.59553903,62.63568
0.7011887,66.230644
0.77831167,68.24973
0.852054,69.38431
0.95089525,70.638435
0.9823874,73.32592
1.1377566,77.972275
1.1765734,80.30966
1.232693,82.56503
1.3931997,87.8138
1.4301469,88.11881
1.5706574,93.35862
1.5075647,93.1827
1.6514999,97.28523
1.6535674,99.775085
1.7499527,101.19948
1.7949568,103.69094
1.7966882,107.15815
1.8394108,108.15747
1.774455,109.93696
1.9005144,112.35949
1.8230114,114.25772
1.8932457,112.87614
1.8818676,113.07127
