ppg,abp
1.1351844,92.70709
1.0926392,101.87938
1.2270991,102.65341
1.2279186,103.0906
1.290195,106.562256
1.4681703,111.817474
1.4713991,113.43694
1.5473046,119.664154
1.4564105,123.58558
1.5339764,123.68585
1.5861474,125.72908
1.6278148,128.10754
1.7057183,131.36894
1.745016,130.63187
1.7731689,135.82224
1.6666067,138.66045
1.7614528,137.4507
1.7484604,142.87694
1.6936537,138.83153
1.6666923,144.87195
1.8180608,143.20474
1.645892,144.47336
1.6986293,147.38603
1.8282696,145.7954
1.7582415,145.55363
1.7985017,146.12451
1.7194959,145.31216
1.6754923,145.29828
1.6985724,141.91556
1.6017329,140.3025
1.6922605,139.31721
1.5667398,138.63611
1.5996624,134.38734
1.5426253,135.56102
1.5415164,137.49527
1.6085031,135.93266
1.4823787,136.2314
1.4374176,132.55336
1.4591337,132.23175
1.4552269,125.812256
1.5046172,125.14555
1.3963833,126.11528
1.3528149,123.8962
1.3127116,119.52044
1.3525214,120.07014
1.3735482,114.52808
1.4089515,115.81329
1.3207382,116.095604
1.419638,114.59139
1.3334762,116.70948
1.3938582,106.82372
1.3399639,105.64289
1.3202492,102.42086
1.4037482,104.80851
1.3262771,99.24394
1.2291188,99.070816
1.1804783,98.92691
1.1873927,94.15855
1.233402,91.89996
1.1476547,91.30563
1.2254544,88.43832
1.190588,88.92941
1.0741777,90.89981
1.0925449,85.032135
1.0447716,82.7564
1.0128069,80.44455
0.97518945,81.283676
1.017071,76.3012
0.9775923,75.93388
0.9884049,74.63638
0.897933,72.11807
0.93521345,72.96456
0.8422522,65.16354
0.8642144,65.82918
0.8849731,64.326836
0.8530153,60.06082
0.8465258,58.567986
0.8529115,59.25708
0.8596735,58.222523
0.8200032,56.739735
0.822658,56.547043
0.8061976,54.76776
0.89787334,50.559555
0.7732426,50.03829
0.792666,51.707706
0.8711112,47.5603
0.8398558,48.165394
0.8350343,47.61788
0.7234171,40.98779
0.7624624,45.531322
0.72199625,45.23213
0.7219965,46.038136
0.73850054,45.457912
0.6113773,44.32558
0.5654619,47.00264
0.5882638,47.887955
0.5542845,44.647865
0.5560481,50.17428
0.5231435,49.88042
0.42592824,50.53665
0.5260495,52.02129
0.47738153,53.371323
0.5465958,55.57438
0.60089684,57.85961
0.61737674,58.42897
0.69599557,63.996124
0.63044727,62.498215
0.6931471,64.05796
0.7871488,73.24483
0.95627123,75.369316
0.9229741,77.91506
0.9840576,81.63284
1.1272373,83.06151
1.0480264,86.67358
1.2375525,91.04988
1.2949584,94.314674
1.3500518,97.89808
1.4324708,101.46452
1.5557964,103.36877
1.5223734,109.962845
1.7078722,110.2164
1.6369032,112.95474
1.6898441,115.9319
1.7579565,121.6487
1.8469336,122.588196
1.8697902,121.90644
1.8421694,130.55246
1.8878706,134.21355
1.9166257,134.40851
1.7804086,136.77074
1.9272993,136.97493
1.9344331,141.24509
1.9728532,139.23538
1.97325,142.19513
1.8358177,141.44514
1.9742237,144.18231
2.0029802,146.31323
1.9623494,143.70245
1.9446412,144.99626
1.9854785,144.77014
2.0011735,144.3337
1.8880813,143.63835
1.8428522,146.32558
1.8287611,147.18483
1.8467592,145.3164
1.8297509,143.15723
1.7388293,140.7266
1.7143778,138.46284
1.7861329,134.50871
1.7715036,138.56683
1.7636101,136.29156
1.68177,130.42366
1.6554217,131.81494
1.6859878,129.3266
1.5329272,128.8306
1.5843582,126.02653
1.5658491,125.88588
1.5952454,125.37737
1.5520693,125.37229
1.5351529,121.554756
1.5863944,121.630516
1.434598,115.544395
1.5033997,115.78581
1.5311282,115.873436
1.4820935,111.11727
1.456903,111.95272
1.4015883,105.64355
1.4527967,103.275894
1.4253395,105.585556
1.4303017,102.01337
1.2946562,102.21415
1.3730623,97.35977
1.29297,97.49678
1.227964,94.29666
1.3031837,94.60919
1.2576805,89.0645
1.2433255,87.93445
1.1710291,88.03489
1.171269,83.96106
1.0529971,82.58006
1.126455,81.34726
0.97961026,79.78574
1.0067137,80.81815
0.9825078,74.235245
0.99555254,76.842224
0.9282628,72.03232
0.8559239,70.56496
0.9497956,69.248566
0.9117972,65.708984
0.8275485,65.38063
0.8438671,64.88642
0.9215098,61.40454
0.87962174,59.717167
0.8110486,56.596577
0.7305146,56.812172
0.77662843,56.394665
0.8362269,48.960106
0.8003146,53.792904
0.7429468,53.72272
0.7645484,51.04235
0.8188933,49.652718
0.76586473,48.823956
0.6346859,47.204666
0.64295125,47.09556
0.6536763,46.149555
0.6538513,46.5135
0.575305,45.881924
0.5933594,44.70101
0.49856603,44.63502
0.53843284,44.074352
0.4495926,50.454468
0.32328168,46.49948
0.45783004,46.993145
0.37750325,48.711086
0.38124448,52.384327
0.42481086,52.73214
0.3281852,53.1474
0.36836198,57.320137
0.28989646,59.784134
0.42398837,61.866966
0.4152583,60.573376
0.53702295,62.985718
0.5602321,66.882225
0.5976389,70.368095
0.6972244,71.165016
0.7563905,75.02892
0.7958415,78.59865
0.869944,83.85624
0.9066367,86.66571
1.1333134,88.538795
1.0575587,90.7395
1.1337596,96.98332
1.1970053,99.78211
1.268367,102.21131
1.3576453,104.60676
1.3253763,107.135216
1.3996485,111.575356
1.3869526,118.23348
1.5463043,119.68925
1.5010071,121.782486
1.5704848,128.89926
1.5881586,125.78387
1.5928973,128.001
1.6411498,130.12712
1.6035761,133.59491
1.6084411,136.1792
1.6978956,136.84502
1.7202165,139.47266
1.6852654,144.07921
1.6500249,140.94568
1.6037585,143.33049
1.6473417,144.27922
1.5999837,144.06042
1.7023306,145.16231
1.6277236,143.75502
1.6561344,147.55705
1.5777353,143.37932
1.5326686,148.58725
1.6193684,143.10962
1.5769016,142.84612
1.572354,142.31264
1.4871391,145.9476
1.4506377,143.67078
1.3624277,141.34851
1.3842279,137.83905
1.3471117,136.41
1.2964088,135.6487
1.2986455,137.50731
1.2688173,130.64987
1.2025822,130.487
1.237186,127.28756
1.2231326,128.36038
1.2617124,128.81097
1.2174429,123.274666
1.1808197,118.73125
1.2366712,121.12873
1.1530559,116.25508
1.1332921,117.48154
0.99664694,116.047
1.0365505,114.654976
1.1271435,110.57245
1.0901866,107.88277
1.0234647,106.40217
1.0092101,104.18678
1.0259881,104.9528
0.9688413,103.3568
1.0171007,99.88731
0.9444598,96.78078
0.9187637,95.280426
0.93836886,94.21468
0.9369213,92.50846
0.8201904,89.90074
0.82128185,87.88718
0.8339142,89.404045
0.7922497,85.25433
0.75948787,80.65287
0.7026287,80.58133
0.63400006,80.97467
0.57317126,75.42951
0.5455958,73.453545
0.44665533,74.213425
0.54863644,74.136734
0.3778981,68.50025
0.39545903,69.935616
0.47583827,66.88307
0.40676972,62.174515
0.47931704,60.924706
0.5282909,59.313305
0.44681662,60.93637
0.3384832,58.211914
0.40939683,54.145004
0.4831582,55.70179
0.45982388,55.067657
0.4088684,48.652313
0.39002064,51.151512
0.39128336,51.222805
0.38547745,49.34813
0.25826842,45.99192
0.32861435,51.450012
0.30694947,44.70095
0.2632917,46.051468
0.24271071,44.095703
0.2210787,46.318066
0.19115327,42.79713
0.104761064,43.298004
0.13770287,48.077732
0.041578952,41.714165
0.057589788,48.885216
-0.032128032,49.12336
0.041566454,48.341896
0.022645786,52.582306
-0.042292327,48.83028
0.052682117,56.327503
-0.015072811,55.693592
0.019874489,58.09735
0.091931395,58.375774
0.09672988,63.783012
0.094467536,65.69989
0.14265329,69.56667
0.25177658,71.30265
0.28658,74.409225
0.4265862,79.852455
0.52823085,80.9269
0.54234713,90.63999
0.48245868,88.818245
0.6787743,91.092674
0.83049357,93.87066
0.82991564,97.03524
0.9390281,103.40393
0.9448595,103.74229
0.99729687,109.059525
1.0342199,111.21076
1.1819481,117.37424
1.1799595,119.40795
1.2043816,119.00325
1.1372646,122.36929
1.096531,124.5503
1.3107802,128.48976
1.2683923,127.127335
1.288227,132.72446
1.3674668,133.61646
1.2780368,137.18057
1.3492954,139.3515
1.4351952,140.64655
1.2493311,141.38936
1.3752167,142.07718
1.3954502,144.32355
1.3297198,143.14584
1.4337974,141.43694
1.3875313,145.34354
1.3859491,144.3268
1.3425208,144.42322
1.3662114,143.81787
1.3128101,146.52974
1.2723786,144.53207
1.2535657,143.36035
1.2378178,144.05785
1.2693086,140.41269
1.253658,138.86313
1.1127585,138.99326
1.1481237,133.67682
1.1575513,135.83952
1.1094034,135.54424
1.0378051,132.54834
0.9721643,130.6361
0.9568932,127.61528
1.0186794,130.12074
0.8739184,126.67757
0.97573584,125.975876
1.015092,120.94033
0.9340324,118.7112
0.9299927,120.369865
0.9284454,116.061066
0.96684444,117.33393
0.8761495,115.64351
0.8482346,111.71231
0.9357402,109.76864
0.8627045,110.18966
0.82177275,107.244095
0.8634021,103.03637
0.84779215,104.70414
0.89250016,99.16749
0.7692284,98.69521
0.7862135,95.481575
0.7205872,92.54902
0.7249516,97.058815
0.7607414,91.20283
0.7228045,90.40556
0.563863,88.25593
0.6324379,85.67982
0.62049073,86.31343
0.54240406,82.4642
0.46786112,80.17992
0.48252195,80.679855
0.42071617,76.688194
0.49963677,77.05177
0.4332848,73.18703
0.35647854,72.35851
0.40222102,68.12952
0.36671206,65.499084
0.33355302,63.005905
0.38872054,63.114613
0.41254503,60.68558
0.3278449,57.108017
0.379049,61.081326
0.4143237,59.46275
0.4181353,54.600647
0.4062044,54.445133
0.3858165,50.14716
0.40990168,53.545967
0.42130968,51.661507
0.35796452,49.3216
0.30025086,44.87601
0.26522863,48.37617
0.32135785,47.65037
0.27355447,45.806126
0.34982124,45.724342
0.23996612,43.423073
0.17747754,45.389313
0.07605566,47.445347
0.1775477,42.86732
0.1373052,46.15899
0.18356629,42.747917
-0.011028338,46.408546
0.0041837194,47.706116
0.01631722,49.17484
0.066396095,47.810146
0.05646334,56.076866
0.10067128,55.29477
0.050160043,59.59308
0.16121386,60.60258
0.20849198,64.16481
0.1987548,62.08963
0.23627,67.347916
0.37174156,72.018105
0.37659028,72.01642
0.44384092,77.21526
0.5178556,78.32663
0.60678804,87.132484
0.67478114,85.764946
0.8404835,89.39878
0.88821924,96.17959
0.924615,94.82163
0.98134464,101.604294
1.0219322,104.57164
1.1346763,106.323494
1.2094005,109.64214
1.3048828,110.425156
1.3207633,113.837975
1.3525426,121.172195
1.4818738,122.66484
1.373388,124.74344
1.4284824,127.044716
1.4701538,132.47008
1.5420817,132.37004
1.6582791,135.4706
1.4875779,136.0916
1.5551192,136.95654
1.5930215,136.2546
1.7003828,141.97395
1.5972303,141.40732
1.6273379,143.20142
1.5321515,144.23079
1.6342081,142.91719
1.5942975,143.73146
1.5937004,146.5785
1.6388885,144.30647
1.6193793,144.20078
1.4967685,143.94937
1.5160291,141.07904
1.5161878,144.8369
1.4972035,142.50859
1.4912442,143.32158
1.4393392,143.15561
1.4911019,141.52011
1.3722727,137.42648
1.394444,137.77782
1.3280904,134.49072
1.406977,133.16475
1.272817,130.01894
1.2983826,130.11958
1.3111659,125.67153
1.2752279,125.96
1.3274997,125.6521
1.2432252,120.46626
1.2097592,122.67158
1.241602,118.202995
1.2365165,117.89943
1.3058387,114.03799
1.2545165,115.44728
1.2189145,110.33466
1.3396443,108.10005
1.2980126,106.324524
1.2127702,110.58901
1.2293998,105.24834
1.1413705,104.75773
1.1394742,101.55937
1.1355766,97.505264
1.2236207,97.16824
1.1743802,96.2068
1.0312549,94.93135
1.055651,92.34605
1.0389107,91.12033
0.97498226,89.115524
0.94567806,89.01178
1.0134077,85.67893
0.9152323,81.80161
0.8426063,77.32893
0.8997767,78.67102
0.89143443,77.72747
0.8097482,75.243965
0.8798511,70.440796
0.78811336,72.46256
0.8132565,70.34354
0.7609056,67.18739
0.7882307,68.35382
0.7609128,62.59784
0.7359719,62.230026
0.7631291,59.914772
0.8384021,60.55134
0.69398963,60.279453
0.7120281,54.68032
0.81830066,53.71343
0.8430604,52.710995
0.7797178,51.268093
0.7132861,50.59658
0.7255508,47.389435
0.7431347,51.0353
0.7890114,46.3869
0.71416444,45.05964
0.62919617,43.703842
0.64584005,48.01119
0.62077135,48.197968
0.6030906,43.815575
0.57728976,42.314846
0.49377438,44.554363
0.51910067,45.51616
0.4573067,48.373966
0.52112466,44.769875
0.4584798,49.859215
0.50418025,48.87084
0.45861068,50.06743
0.51568377,53.36633
0.49941045,52.335915
0.43428075,54.668663
0.48232815,57.817688
0.5770466,63.18571
0.5936941,62.196415
0.6790254,66.41808
0.7373053,68.67991
0.72908086,73.07004
0.817447,75.25389
0.96115977,76.847725
1.1123993,80.66484
1.116015,82.24036
1.1024096,89.84293
1.1637223,94.03371
1.3401265,94.55042
1.3704481,95.528366
1.4589105,102.84431
1.5355897,104.58218
1.5533558,108.32786
1.6273631,114.75009
1.7569369,115.38424
1.6100826,117.23761
1.7592204,119.57286
1.8250654,123.36436
1.8907776,126.2702
1.8269985,129.42953
1.9392481,130.25398
1.8464491,131.74648
1.9398263,138.39151
1.8914837,138.82397
1.9243221,140.25388
1.9210467,143.80467
1.9805378,142.04755
1.9348958,142.738
2.015998,145.05919
1.9452184,138.998
1.9431379,146.43639
1.8716125,144.77379
1.8576435,144.5763
1.8957036,146.87146
1.9389778,141.82501
1.8538386,146.1188
1.7785132,143.86755
1.943235,144.74529
1.7989272,142.24179
1.8144156,143.5517
1.7811319,142.04382
1.7317573,140.72073
1.697092,139.80334
1.6459256,135.48318
1.708466,134.30074
1.6549366,132.19778
1.7005603,132.27708
1.5937241,131.17831
1.6088986,125.59907
1.5606167,123.72742
1.5435836,125.002754
1.537541,120.63659
1.5255346,121.03811
1.4981776,120.439316
1.5436409,118.170395
1.5152103,116.95904
1.4783499,113.43828
1.5384786,108.58959
1.5139451,107.89236
1.4466621,109.25739
1.4682006,104.94186
1.4829891,104.51971
1.3393872,101.12961
1.4336442,100.8723
1.4231658,97.9243
1.4364312,99.217094
1.2938409,97.09722
1.2614692,89.903694
1.2995846,88.22346
1.1885813,88.72966
1.1923531,86.00832
1.1028004,88.10112
1.1763611,83.82345
1.1865056,80.83013
1.0387099,81.0109
1.1459205,77.91323
0.95427316,72.38399
1.0552071,75.133224
0.9087782,68.518936
0.9754028,68.10153
0.93309826,66.81554
0.8987617,66.84779
0.938526,64.296326
0.99134415,62.8588
0.9842908,56.45292
0.8836243,59.997368
0.9084471,58.99571
0.89338905,57.335056
0.9448023,53.319527
0.8869846,54.588406
0.92167217,53.711582
0.9075558,51.757984
0.79545134,46.833042
0.9187535,50.33433
0.8788821,49.425953
0.83898395,47.683987
0.781859,44.880516
0.8556299,45.590225
0.6823499,46.954086
0.6810314,46.67466
0.7095081,46.36406
0.63667625,43.251156
0.56443566,47.016785
0.54683995,45.49964
0.5290913,45.760292
0.49561912,48.51394
0.4825599,47.052486
0.41385144,52.38803
0.4703911,53.26267
0.49655432,57.232117
0.48470196,58.900192
0.5605929,61.912457
0.60985684,58.87366
0.52749866,61.006653
0.70044297,66.97312
0.6430204,69.072235
0.67387044,70.12957
0.7316169,74.73974
0.8002717,74.91772
0.91565984,77.65119
0.95836693,82.74077
1.0491016,86.9837
1.0948784,91.042595
1.2482679,97.1748
1.3265657,97.492294
1.2892504,102.97468
1.4609767,102.74329
1.4398128,108.76237
1.5258508,111.11354
1.601447,111.72505
1.6719853,117.935555
1.622961,120.71883
1.6604263,122.65408
1.6975399,123.96739
1.8125062,128.30716
1.66972,127.35043
1.8674862,129.77065
1.8566346,135.35893
1.8152843,135.64162
1.8662546,138.18887
1.8022577,138.22519
1.9067227,138.59314
1.7831887,143.55266
1.8306432,146.63327
1.839959,140.90947
1.7065152,143.73259
1.8154465,144.4431
1.7390383,144.57945
1.7397977,147.18777
1.7178267,143.18176
1.802019,144.53255
1.599303,144.23453
1.7286365,142.16121
1.6454102,142.72208
1.610863,144.58936
1.6363022,137.0304
1.5485767,139.08434
1.5712994,135.60196
1.4347532,137.74791
1.4659605,134.89629
1.4492028,134.01106
1.3639747,130.64413
1.4481155,132.4124
1.353816,126.8186
1.2983614,126.92521
1.2429907,123.68434
1.3291,123.42811
1.311861,120.2481
1.3571155,118.87274
1.3177185,117.71219
1.1865587,112.16138
1.2262193,113.14644
1.2819381,116.53673
1.1675627,111.05011
1.2163943,109.3147
1.1589087,104.654305
1.2029893,101.161125
1.0712616,105.66751
1.1129584,103.06311
1.1279658,97.52979
1.032988,98.10224
1.075075,93.020256
0.9403838,92.114975
0.97332275,89.01011
0.9305146,92.10305
0.88922906,90.67109
0.8831323,81.79653
0.87191594,83.25335
0.80646336,83.13777
0.7852708,82.43287
0.72125727,78.69623
0.70510316,76.21364
0.71882486,75.13433
0.6865431,70.87621
0.6499787,69.64898
0.62791055,72.74112
0.5951995,66.21699
0.56657207,68.289185
0.5937099,65.12581
0.56404936,62.33038
0.5506349,61.229385
0.5497057,58.509144
0.52897316,54.085056
0.5667333,53.21092
0.55265117,52.38634
0.44721434,51.97345
0.47395557,50.107655
0.45242822,46.73868
0.46942395,47.22765
0.5150621,45.280224
0.45856997,46.72033
0.39414182,42.613487
0.42147186,45.261494
0.33946213,44.375404
0.30873314,44.044968
0.27160394,45.483887
0.2582394,42.091507
0.22819026,46.745625
0.16463836,42.483124
0.19428909,49.58441
0.14057463,49.608566
0.06654036,51.91968
0.11518616,50.15746
0.1758262,53.8244
0.08626405,56.80028
0.10968975,54.486214
0.13977689,58.38314
0.16687214,56.255814
0.20201585,62.607708
0.27391064,67.180466
0.28665623,66.71665
0.32361698,71.60359
0.4003304,72.8112
0.48755223,80.67682
0.51408976,77.64554
0.6226057,82.87216
0.6874182,84.47331
0.73479337,88.124016
0.87214136,89.40717
0.88128096,94.46461
0.9758201,96.3765
1.04367,104.13024
1.0780995,104.78262
1.1747088,111.022736
1.2191211,116.26709
1.2460843,116.05986
1.1850151,116.21476
1.2337446,120.67185
1.2867007,119.88357
1.390111,129.34044
1.382366,132.28676
1.3713245,130.67128
1.3303216,135.44756
1.3486819,137.57303
1.5303375,140.59154
1.3857034,138.53136
1.4618783,140.68195
1.3972592,143.31337
1.4890686,145.24063
1.4183589,145.5634
1.494601,148.52106
1.3416286,144.66237
1.350344,139.95483
1.3452204,148.15477
1.3131334,142.74103
1.363432,142.56664
1.3430912,140.86356
1.3829014,140.87457
1.2509301,143.88574
1.344451,141.34183
1.1537803,140.52281
1.154621,142.78746
1.1394536,135.66083
1.1912633,136.24777
1.1300327,133.13179
1.1323833,132.71118
1.0735521,130.49144
1.0268537,131.98401
0.9893141,126.8647
0.95391995,126.056435
1.0590383,125.512794
0.96059436,124.16239
0.9468243,120.775925
0.9483738,121.62614
0.9485874,123.00807
1.0277396,115.181335
0.9829463,116.2714
0.9715705,109.893456
0.8345642,109.78826
0.8372295,109.82938
0.79977137,103.71642
0.91696507,101.67884
0.83128273,101.980804
0.8187348,99.95623
0.81655186,99.531456
0.7698487,97.789085
0.69005,98.5562
0.74091923,93.36763
0.6898308,92.266106
0.67951006,89.8005
0.68541956,88.18236
0.52898705,85.14089
0.6182963,82.469635
0.59883714,84.36487
0.44703674,79.98268
0.46094024,80.60598
0.45113322,79.12916
0.38653818,72.649704
0.40657747,75.01298
0.29839936,72.26841
0.37156647,73.42747
0.36213395,71.58138
0.38650075,65.790955
0.37387386,61.560894
0.37589997,62.15119
0.3114501,60.912052
0.39135534,56.478477
0.2661714,58.990498
0.33108518,59.72471
0.33327892,55.920303
0.2994262,53.086037
0.32706717,49.572395
0.22146781,49.892063
0.31576017,51.250458
0.3127313,49.40357
0.3016163,50.858513
0.23849076,44.90556
0.21410394,47.147804
0.21925429,43.898632
0.24095277,42.469078
0.20691572,45.286694
0.089789785,42.147514
0.066768594,47.374638
0.055372067,49.01127
-0.036644675,47.45073
0.045900058,47.097942
-0.057967134,54.461113
-0.03346748,48.774094
-0.032756127,52.78033
0.003068459,51.961056
-0.034604184,55.843243
0.07054186,57.04795
-0.026869448,58.67108
0.085701734,58.694347
0.0969753,62.018356
0.14496544,66.5293
0.27604544,66.86971
0.24292545,70.478584
0.3059997,76.334404
0.3106342,80.64393
0.5112916,82.02312
0.614332,84.22471
0.614231,88.61185
0.74681515,90.77972
0.7962328,97.057755
0.8202103,97.408325
0.94160855,101.33847
1.005872,106.207886
1.1160867,109.997314
1.1091391,111.52264
1.17806,114.83743
1.2226186,114.43173
1.2511096,121.56295
1.2831763,124.42208
1.3681775,127.32452
1.3679792,127.32323
1.4683163,132.42451
1.3914921,133.82819
1.3982704,134.5324
1.463441,135.22734
1.3929955,138.10712
1.5332806,144.11375
1.5505095,140.70412
1.5191063,140.198
1.4855771,142.74402
1.4819255,143.81471
1.4661663,142.08536
1.4901308,146.49591
1.4274673,147.94829
1.3975729,145.39957
1.3789858,145.20851
1.4349664,147.92587
1.3858365,145.11922
1.3898746,143.73343
1.3597575,142.74298
1.3419842,140.95844
1.3655455,141.32277
1.2352377,140.03555
1.3037738,136.4654
1.2413887,134.9852
1.1721467,137.39496
1.1915809,132.25478
1.2000822,134.21295
1.13539,131.46461
1.1891834,128.58444
1.1283497,127.62491
1.1300397,125.024254
1.1204851,121.94809
1.1738242,121.46856
1.1796116,118.89941
1.043101,120.24348
1.1309819,113.4839
1.0754998,111.765205
1.111585,111.75703
1.0528249,110.13097
1.0296061,110.36732
1.038653,104.435844
1.0372968,102.97552
1.0619125,100.64784
1.0727221,103.32367
1.0481355,99.98241
0.9912472,95.52255
0.9302313,98.65149
0.9459598,91.51167
0.94241756,92.05896
0.8733107,88.00546
0.8665292,85.601654
0.74250674,82.82936
0.82167304,87.05865
0.76728654,84.495255
0.7316582,79.399055
0.7425845,76.5813
0.67217386,76.27124
0.69233674,74.10471
0.64802885,70.82554
0.67098117,67.80356
0.6384153,71.32408
0.63160294,64.48145
0.5931045,64.66785
0.669024,63.081715
0.6391463,60.277527
0.5623184,59.622437
0.6409697,56.80099
0.7047315,58.156837
0.6287359,55.971897
0.5312171,52.682583
0.64972925,54.038216
0.58198076,49.030094
0.6140562,49.01631
0.6082341,50.49201
0.60657537,49.187656
0.60118514,49.203518
0.5893949,46.333992
0.56090856,47.16472
0.48221382,46.702866
0.42487136,47.977722
0.44054034,44.67834
0.36386505,44.835373
0.37661728,45.443447
0.36458007,46.142723
0.36946034,48.466064
0.34032428,44.832554
0.36114296,47.026844
0.26777822,49.54727
0.34666204,52.73274
0.37667283,54.991177
0.45048726,57.25425
0.3204662,55.81875
0.39790407,61.253464
0.4643567,62.979824
0.563448,66.97719
0.60353047,65.38967
0.59280145,68.96325
0.74203277,70.03712
0.7597293,74.35219
0.8604573,80.91025
0.8714109,78.662415
0.95347273,84.98188
1.0652506,90.44236
1.2047735,93.541145
1.302651,98.557945
1.2460965,101.904305
1.3025944,101.10011
1.3758501,104.38622
1.474751,108.16328
1.5083027,108.92689
1.6861457,116.38329
1.6197346,119.3287
1.6691657,122.95121
1.7746214,123.374435
1.7980301,128.63911
1.7637794,129.7995
1.7840451,129.30984
1.7560298,134.7995
1.8486953,136.56586
1.8056326,137.75662
1.8448282,138.8437
1.8838186,142.87315
1.8740827,141.83275
1.947447,139.64359
1.8437756,140.86064
1.926271,144.76767
1.8593228,144.06847
1.8932312,140.88065
1.868393,144.00964
1.849467,143.29951
1.8358614,147.5351
1.8385046,142.29701
1.8010446,145.78276
1.7455214,140.35829
1.8722881,140.0923
1.7269567,139.64116
1.6975148,135.29102
1.6996713,138.26724
1.6860689,136.15114
1.6132009,136.23248
1.5881388,135.92415
1.6165485,131.33755
1.6017468,131.89386
1.5354728,125.40815
1.5629021,128.55328
1.4990356,120.310356
1.5119665,124.57577
1.4731413,119.92633
1.5153024,118.89336
1.4185534,114.513664
1.477164,114.70025
1.5387064,116.452225
1.5298736,112.32582
1.4671185,109.26707
1.4640397,107.76891
1.4790123,108.27912
1.4246025,103.414154
1.4481996,106.82519
1.4286385,98.726875
1.338124,101.35159
1.3167052,99.37507
1.2939992,94.08919
1.3871853,91.37228
1.3071128,91.04249
1.2897416,88.402916
1.2380921,88.71358
1.1392363,86.81207
1.1592853,82.64805
1.0588015,81.38662
1.0543836,77.99343
1.1127878,80.97454
1.1022897,75.89211
1.0229287,76.3219
0.9207134,71.47076
0.9219917,72.623726
0.9565515,65.52612
0.97843283,66.29991
0.97805053,67.13208
0.93349844,62.590324
0.9107936,60.59854
0.93125486,63.394367
0.9118759,55.05071
0.9675971,58.3946
0.89270574,55.907906
0.8992952,53.549488
0.9249352,52.99547
0.9492838,48.89347
0.8030084,49.005463
0.87410045,48.705048
0.9393472,46.77171
0.8910539,43.813
0.86635834,44.12617
0.7415709,45.43066
0.7877871,44.185833
0.7982169,42.935677
0.6679992,43.851383
0.66391665,45.753338
0.5957564,44.44679
0.64839154,43.712616
0.59170705,47.86749
0.52835417,49.42541
0.5303521,48.185963
0.58907,46.374973
0.5213446,51.586273
0.46860856,51.81044
0.48033303,57.60895
0.5819987,51.022305
0.5719192,57.26311
0.620336,60.479897
0.71544206,64.35729
0.6319938,68.97153
0.76425356,71.5285
0.8613171,69.877304
0.815705,73.39645
0.9812542,74.20595
1.1467552,82.409225
1.0753943,88.59108
1.1687595,87.25855
1.3099322,94.3839
1.3133624,95.325356
1.4420693,101.39599
1.5196315,103.932205
1.5481943,105.84997
1.5398378,107.75402
1.5974605,110.33738
1.7167832,115.32235
1.7258042,116.939255
1.7335105,121.3875
1.7888988,121.46503
1.8140159,127.26374
1.8230406,128.09795
1.8524458,129.49976
1.844401,134.09428
1.9349735,135.55348
1.9407837,138.0999
1.9610107,139.64072
1.9084903,139.07556
1.920499,141.63506
1.8671446,142.93846
1.9235005,142.27617
1.9428695,144.12976
1.9684246,143.60445
1.8484194,146.93315
1.8964123,143.58768
1.8125974,148.14255
1.8366028,144.51143
1.7306765,144.28404
1.7885693,142.00366
1.7300913,143.78915
1.789513,142.21342
1.7432417,140.52078
1.637056,140.95866
1.658722,137.23099
1.6768363,132.6973
1.5424058,135.1813
1.5142776,134.59874
1.5773228,130.83328
1.5035118,130.91199
1.413144,130.26042
1.6071676,125.57935
1.4635901,124.698494
1.4126661,123.657616
1.3817407,119.76519
1.5136359,121.24632
1.3652403,117.2554
1.4276457,112.50944
1.3509953,115.465996
1.2819169,110.81278
1.3078718,109.05224
1.3083289,109.49408
1.3305507,105.214294
1.2077516,103.00031
1.3230541,102.97541
1.2337525,99.11433
1.2371663,103.238625
1.2522273,96.049934
1.1712751,95.783134
1.1627054,90.20647
1.0646605,92.05354
1.0898108,90.61551
1.0724862,89.76547
0.9701511,87.82286
1.0149453,86.394646
0.9817991,81.689804
0.8613297,75.66995
0.9272488,77.717
0.8726283,77.253456
0.8440618,75.20802
0.78931284,72.08852
0.7939175,73.56585
0.71368927,67.045456
0.720068,68.583534
0.6963823,67.16984
0.7673371,65.10008
0.7594725,63.81113
0.6805832,60.13382
0.74156153,57.94277
0.7717199,59.248104
0.669309,55.425198
0.75722045,55.36286
0.6691405,54.065372
0.7316042,51.962612
0.6811509,53.066353
0.6292494,48.008694
0.57501096,47.94815
0.5118237,47.215256
0.621317,46.880424
0.49483338,46.934635
0.4976317,48.31036
0.548778,47.35039
0.39041963,45.0548
0.43446773,47.35747
0.34143543,46.547985
0.39258623,47.53974
0.2614886,46.198814
0.32492644,48.923862
0.27965733,48.45015
0.2895494,52.073986
0.29669237,51.337395
0.21509501,53.840717
0.23192532,50.120197
0.28103286,58.63651
0.26959404,58.526386
0.3253069,59.346573
0.29423773,62.624096
0.44276157,62.54085
0.40453482,66.74784
0.5192821,69.03564
0.5520811,72.35927
0.62808746,74.83921
0.64967334,79.39685
0.79196274,85.522484
0.8441042,84.98047
0.9023003,91.97656
0.9508732,95.45923
1.0377566,98.66829
1.1698778,100.50618
1.1523123,106.10483
1.2121273,103.86273
1.3164303,110.70614
1.3424745,115.92881
1.2792288,116.07534
1.4384046,117.91605
1.3877715,121.88915
1.3537903,126.81156
1.4546506,127.36679
1.4640613,131.2818
1.5867801,132.45865
1.568998,134.73978
1.5434415,137.45387
1.5214447,136.63907
1.6129644,142.62988
1.4629694,137.84717
1.489438,144.29988
1.5447463,141.0367
1.51764,144.10962
1.475108,146.71504
1.4221065,145.75175
1.5261093,146.96341
1.4298902,145.13788
1.416803,144.65535
1.5000708,144.60724
1.3437829,144.76346
1.3912556,141.07906
1.2638804,142.2165
1.3262016,140.36327
1.3883995,140.16249
1.3352697,141.49544
1.219292,139.21924
1.2197863,138.60017
1.1931933,135.98195
1.1720328,130.722
1.1486752,130.87833
1.1530135,133.3025
1.0696635,127.13575
1.0887321,126.460205
1.0931586,126.13142
0.9986479,120.98948
0.99414504,119.72132
0.9388493,118.982864
1.0416591,117.54172
0.98769027,114.65959
1.0352794,112.30452
0.9295181,106.4701
0.8815782,108.96971
0.9355608,108.58422
0.9125138,104.46866
0.87926346,105.53701
0.9203737,100.59567
0.82064766,98.2007
0.8250072,99.3552
0.82414573,98.978455
0.825707,94.77246
0.7252057,92.52599
0.79768693,94.88264
0.71196747,87.95969
0.55581844,92.347534
0.61911595,86.51341
0.55626196,83.19731
0.56311923,78.25552
0.47765747,77.37877
0.54899603,79.66414
0.49079058,77.84245
0.45790416,69.7961
0.49213824,72.233406
0.3636392,71.448456
0.38824344,70.067184
0.39105353,67.979614
0.29325286,63.923275
0.3909658,65.990524
0.30014324,61.905163
0.3418822,56.78434
0.41909868,59.626595
0.27352342,54.77111
0.33895475,53.990974
0.3316297,54.37046
0.3562629,53.241848
0.36657673,51.501217
0.32598293,48.63309
0.2704761,47.957565
0.28898704,44.597378
0.31879884,46.63779
0.16174652,47.045483
0.19306427,47.839725
0.1559348,42.20397
0.118695535,47.335953
0.20246549,41.786087
0.09149837,45.90099
0.07100488,48.434998
0.06454087,48.9983
-0.10900814,46.033085
0.0041819327,47.490524
-0.088458225,48.72923
-0.070511416,48.998512
-0.07916068,51.344543
-0.0068202093,52.138477
0.007283433,53.46742
-0.039445225,57.617237
0.031573046,59.943726
0.115422435,63.11535
0.09569595,63.739388
0.17911173,66.662476
0.19409709,70.59237
0.26263276,70.11971
0.3105429,74.8205
0.4623495,78.496735
0.43678018,79.22839
0.66962945,83.35515
0.735764,93.039474
0.79107887,90.31656
0.8210485,98.12829
0.8178244,101.071465
0.9436612,103.282
0.9089352,109.773346
0.98742324,107.50362
1.0497097,112.27657
1.1588706,116.43852
1.2007654,120.44717
1.2928271,124.087074
1.2678562,125.36709
1.3061199,128.17772
1.2886578,128.56122
1.3916382,134.06503
1.3670205,133.77242
1.3834324,136.01366
1.2529948,137.06102
1.4121885,140.10184
1.378973,140.12234
1.3422692,144.60052
1.388814,145.2459
1.3604685,140.25235
1.4454366,146.33693
1.3596324,144.66862
1.3628258,143.1049
1.4470282,142.86163
1.3505057,142.50716
1.2779183,145.5892
1.2822411,144.0529
1.2494818,143.46971
1.2099047,143.6583
1.2343535,143.29337
1.2714882,141.54121
1.2703607,138.23444
1.136244,140.42778
1.1821407,134.51451
1.0867732,135.88867
1.1346544,136.14395
1.0625312,132.52771
1.1112369,129.52014
1.1449506,127.84594
1.0559244,127.32203
1.1023906,126.10442
0.99350905,124.19702
0.93999326,120.851555
1.0583586,118.200424
1.0075201,116.38663
0.9427263,115.98597
1.0005264,114.32184
0.9756276,107.979294
0.9521902,109.592285
0.91927475,107.2632
0.9904931,103.414024
0.908765,102.616356
0.90035146,102.76262
0.90934545,101.911156
0.95224553,97.84721
0.9231109,96.67162
0.8464022,96.58263
0.81192434,93.916016
0.77405334,91.67055
0.842415,90.4008
0.7159512,88.78188
0.6888638,86.00854
0.7534564,83.98753
0.5993495,85.40063
0.63718307,81.57792
0.52889216,78.129295
0.59912825,76.251785
0.6299539,75.59868
0.5116496,72.10817
0.57239676,73.6314
0.48581406,70.35067
0.46106228,66.11014
0.44677413,65.757576
0.52556115,62.85522
0.5466259,64.930435
0.4174367,57.098923
0.5075083,57.46548
0.3867584,57.32186
0.46938127,56.027935
0.54445696,56.511887
0.51629835,54.6271
0.49085754,50.020657
0.4937633,49.823116
0.45758247,53.34459
0.44534963,47.969376
0.5240082,50.592415
0.4368466,48.788063
0.38736764,44.224243
0.31000084,45.266754
0.3211035,46.74956
0.3237418,45.17132
0.30835646,44.174614
0.25533208,43.47345
0.26565465,43.91969
0.21826616,44.81175
0.24185863,47.809975
0.28614023,50.0311
0.16504705,51.94662
0.21057503,53.41207
0.10101686,54.230713
0.19533968,55.98997
0.25804844,57.36017
0.23598821,59.75389
0.33347562,63.27609
0.38804328,61.918785
0.46041512,66.226654
0.41392377,67.3395
0.50072086,71.59409
0.5006457,73.88078
0.67470604,77.372314
0.7912785,80.18189
0.78205043,87.12307
0.9207851,86.996216
0.897697,90.30447
1.0460005,94.22087
1.148498,97.8785
1.2282442,101.57854
1.2611424,107.44251
1.381233,108.35656
1.3547896,110.34648
1.506554,116.332565
1.5899148,116.94351
1.4890596,117.55564
1.659385,123.52352
1.5776113,125.35784
1.5818906,129.58109
1.6635487,127.56589
1.6423643,131.59714
1.6229638,133.24657
1.7321925,140.95041
1.7677679,140.78793
1.7362808,136.6984
1.6168332,139.78802
1.6634153,145.63007
1.7539692,144.93208
1.7610904,145.02515
1.833058,144.86304
1.7121793,147.5953
1.8634862,145.03821
1.6703906,147.07181
1.6525042,145.43518
1.7600664,143.01831
1.6457385,146.69647
1.6191661,142.31189
1.6952527,140.92569
1.6003923,139.14589
1.6073909,141.61856
1.5189407,136.02934
1.5655098,138.4045
1.4637576,134.50153
1.54625,129.26628
1.5575426,133.96332
1.51085,131.29834
1.4758742,131.23474
1.4713255,129.03174
1.4661645,125.793076
1.4934494,124.06726
1.4043614,120.8815
1.3593023,120.00871
1.4087064,116.71038
1.4240572,117.0122
1.4670943,113.93871
1.3243232,111.62855
1.4214544,111.57337
1.3217939,111.596664
1.2719742,107.2456
1.4021991,106.87635
1.3260491,105.50524
1.3642383,98.91586
1.322608,100.23971
1.2938076,97.19508
1.267714,96.64936
1.2569008,97.617485
1.1418176,93.54886
1.288786,90.18577
1.1842488,87.42107
1.1827619,86.78815
1.090475,86.70257
1.0496969,82.621124
1.0263299,76.83523
1.0496866,74.734184
1.0709583,75.69608
0.9338183,74.79194
0.8706514,72.97263
0.91159177,71.782104
0.89548594,68.2962
0.8826474,69.38819
0.8841023,65.108894
0.8721358,63.81573
0.76392263,60.74027
0.8512966,62.758747
0.95565027,58.679905
0.9687466,55.372677
0.856739,55.22209
0.93696755,53.740925
0.7854523,53.324856
0.83618027,52.64132
0.8237676,52.124626
0.8577583,49.28244
0.7674288,50.371704
0.8171819,46.65017
0.7727491,47.05793
0.7087712,48.31998
0.69301504,45.578247
0.6640595,41.969807
0.6861584,45.04473
0.6970937,43.949703
0.6112968,42.858963
0.5925651,43.548412
0.6502289,46.138153
0.56837475,48.16717
0.5519025,46.809124
0.44902232,51.484856
0.54812354,52.95535
0.50312406,50.345497
0.49776512,52.930695
0.5319835,54.432888
0.54257166,55.595554
0.52988493,60.68457
0.67358893,62.715008
0.71576107,64.624535
0.8788507,66.974396
0.8155533,74.740616
0.97925586,73.512245
0.912302,78.44214
1.0683136,82.17856
1.1263254,83.96481
1.1933495,86.16757
1.3127818,90.93564
1.284685,96.64226
1.3213558,97.106224
1.424101,103.96108
1.5609254,102.13788
1.6655954,102.91308
1.6745971,108.67094
1.7716331,114.433586
1.7772149,119.121895
1.7988048,119.26837
1.7895122,121.127686
1.9349451,128.069
1.907964,129.58131
1.906816,130.94987
1.8969009,129.66489
1.8617504,134.65952
1.9058757,135.86766
1.958763,140.02898
1.8679171,141.14262
1.922886,142.81429
1.9881765,140.42725
1.9615581,142.33179
2.029264,146.84616
1.9205657,146.89182
2.0437977,147.73291
1.9258423,143.96103
1.9674987,147.15724
1.9573029,146.39774
1.8404104,139.435
1.8224287,144.02086
1.9276433,145.34383
1.7562991,142.9589
1.7998775,140.21823
1.7423737,141.23378
1.724283,141.61841
1.6802788,135.30069
1.7064917,136.1576
1.7484307,134.38744
1.6605278,132.15472
1.6668965,132.89005
1.5205544,127.598785
1.6246462,126.01619
1.5263536,124.50826
1.4975805,127.309685
1.4987621,124.31235
1.5277706,120.844826
1.4418021,116.670044
1.5120826,117.841736
1.4591148,115.57425
1.4735981,109.0158
1.5171126,109.97223
1.4074125,108.37583
1.3874805,109.27981
1.4247797,107.397545
1.3577869,104.47409
1.3942277,104.78824
1.4462919,99.42473
1.3292485,100.1069
1.2938948,98.20856
1.3611591,93.624374
1.3354073,91.68655
1.1690521,90.32854
1.202136,86.63634
1.1546224,87.283676
1.0757855,87.99433
1.1775105,82.57227
1.0328882,84.03121
1.0749233,78.790436
1.0749782,76.25927
1.0387304,76.22858
0.91950476,72.20585
0.93761504,73.943665
0.8804279,68.24627
0.85782295,71.541336
0.896119,68.483185
0.88957196,63.133144
0.87618744,59.776184
0.8831345,61.346493
0.8633124,60.77732
0.76850784,59.825768
0.8512692,55.81275
0.8225525,55.096004
0.7837372,57.750614
0.7839845,50.97058
0.85633016,55.27719
0.80155426,52.387863
0.74230486,48.335617
0.69741786,45.415977
0.7741044,46.870647
0.6710175,47.338272
0.58206195,44.11172
0.60365075,45.8198
0.6277221,43.173454
0.57075906,44.944355
0.5568141,45.597843
0.47950846,45.128918
0.55957294,44.606995
0.49453464,43.899914
0.46566156,45.638252
0.42962465,46.53973
0.35163578,49.151443
0.34473807,50.82548
0.31473434,54.3566
0.39341512,56.145386
0.35637453,54.37811
0.4004752,57.481335
0.5115386,62.18527
0.41469422,64.04586
0.5510018,70.25013
0.6067373,66.54301
0.61298233,72.79348
0.7652592,75.39705
0.7533776,80.999825
0.8884774,81.671585
0.88998675,84.65456
1.0586745,86.78268
1.0971813,90.428215
1.0348387,97.18901
1.2540824,98.69448
1.2731957,106.84988
1.3132039,107.40482
1.3729535,103.91458
1.4311165,108.20806
1.5139447,119.56652
1.5251384,116.888565
1.5322288,120.81588
1.4902796,125.49192
1.6460382,125.183754
1.5726163,128.68463
1.6646162,132.23431
1.6462871,133.45126
1.6198181,135.62935
1.6449344,140.46933
1.7338405,139.56868
1.6549138,137.3601
1.6613399,140.60791
1.7120328,142.42302
1.742072,142.98497
1.77421,143.03764
1.6728218,145.86809
1.6647704,144.65323
1.600928,145.20802
1.5312933,143.6067
1.6238428,142.26118
1.5694,142.80498
1.5268086,144.04735
1.5362972,143.82466
1.4825709,139.19626
1.493122,141.85115
1.4095275,138.86525
1.3475015,139.61768
1.3181847,137.87485
1.3353997,134.76852
1.3670028,134.16727
1.2780921,132.81566
1.2199591,128.71867
1.2438269,128.90506
1.0761395,130.891
1.1037582,124.78548
1.1983573,125.58731
1.1308769,122.139565
1.2189791,118.3414
1.1097296,118.63826
1.1102209,113.4476
1.1310079,112.82954
1.087082,113.27757
1.0519975,108.37462
1.0659846,109.17734
1.009803,108.925446
1.054739,105.79258
0.9282783,101.90111
0.97315216,102.48257
0.926701,98.62653
0.92676365,97.117805
0.92937964,96.2533
0.8446058,94.36289
0.8254433,89.16934
0.87292016,91.53828
0.813294,89.3076
0.76939654,85.08598
0.7351546,84.26776
0.66326094,84.16022
0.6730307,82.32987
0.5176781,76.62489
0.5864865,78.952675
0.5183194,76.07536
0.54518425,70.69834
0.5365126,72.795525
0.46859205,67.62036
0.4141288,66.73536
0.49366274,65.98643
0.39436227,64.60605
0.4299061,63.043125
0.35583496,61.920082
0.38255084,59.665577
0.4788396,55.003506
0.3898357,57.459854
0.4043022,55.10859
0.36652827,52.619328
0.48361507,54.317566
0.38202313,48.818134
0.37390772,52.699535
0.33328778,48.095787
0.39800626,49.238316
0.36997083,47.387817
0.2499155,43.733124
0.22782068,45.990723
0.052691985,45.535484
0.17154872,46.061127
0.13212304,44.893944
0.118147366,43.611214
0.18789811,46.778957
0.08348792,44.275898
-0.03849474,46.48913
-0.017526455,51.09536
-0.06520106,52.339184
-0.017981457,51.012993
-0.048641656,53.02305
0.054975886,52.787704
-0.024062563,55.853893
0.07607617,59.947174
0.08842071,62.02307
0.17378563,61.956203
0.15392448,65.11654
0.2070886,68.38649
0.26768178,70.65504
0.30494368,76.983086
0.4374786,78.60874
0.46400404,82.03936
0.59492713,85.924194
0.61919475,86.76655
0.6903694,90.38799
0.79229033,94.04771
0.7328544,96.194695
0.84076864,102.85645
0.9659941,107.04984
0.99113107,110.00006
1.0429528,110.91186
1.1476316,114.567
1.1760647,117.97219
1.223227,119.7107
1.3061498,122.16345
1.340649,122.32843
1.3255392,128.85017
1.2429516,133.23283
1.3423866,133.61308
1.3330753,134.36156
1.3795006,138.49223
1.3719015,140.5515
1.3836077,133.63147
1.3679317,142.43317
1.2845168,140.90219
1.3735127,143.77997
1.379131,143.90573
1.3176554,144.43335
1.3395499,145.07962
1.34882,142.67592
1.2929599,144.4288
1.2997353,142.85727
1.2504787,146.20786
1.2750808,144.01646
1.3120416,142.54036
1.2792362,140.0916
1.195228,141.92914
1.197982,139.59079
1.2207445,137.37405
1.0578597,138.81207
1.0385622,134.52858
1.1058509,136.97475
1.0854188,133.04614
1.0758126,131.58682
0.9747332,131.17741
1.0360602,127.70653
1.0066141,125.84205
0.98752207,125.6457
0.961129,124.03789
0.90007824,118.69345
1.0114055,121.0138
0.95509636,115.589775
0.98893577,113.96703
0.8785137,111.406784
0.91409904,116.10124
0.8276974,106.52968
0.93350804,107.46609
0.7686847,107.99233
0.8494395,105.10949
0.9092546,104.74315
0.80288756,97.97318
0.83547014,100.236176
0.7813915,98.21021
0.81521505,95.309326
0.69189346,92.762405
0.7275535,92.203545
0.6687491,88.11494
0.64781636,86.95103
0.5662245,86.66669
0.6125236,82.65435
0.60300934,83.30671
0.5151752,82.811356
0.56499624,77.14097
0.44145474,77.256134
0.4639136,73.464676
0.45671093,73.524254
0.50769347,72.306404
0.305409,69.962006
0.3557381,65.98658
0.34401187,67.7442
0.3819141,65.16817
0.38117427,60.79097
0.34770757,58.02872
0.41252646,58.467957
0.40927073,56.258446
0.361486,55.589794
0.3866102,51.261642
0.34882468,51.07502
0.3867428,51.155056
0.38157514,48.560852
0.30222633,47.7352
0.33448237,48.3233
0.27163345,48.10902
0.28947046,46.815758
0.2630059,42.928642
0.22753006,41.669662
0.23302998,45.136414
0.2958724,45.429058
0.15796416,44.267155
0.05625044,43.43366
0.09321631,42.03816
-0.036009893,46.6979
0.076951586,44.296516
0.09008208,51.929684
0.08229816,51.570118
0.037338477,51.242577
0.05544003,52.420113
0.08099696,51.72016
0.20485415,58.607742
0.22874166,60.064957
0.18798108,60.73521
0.23530407,63.3849
0.24496979,64.53172
0.4078722,74.08391
0.3873174,74.27311
0.4406531,77.41273
0.59339213,76.44803
0.61626697,84.16779
0.8344142,87.13087
0.78066564,88.31879
0.896543,91.50324
0.9783836,96.828316
1.0275698,99.36116
1.0520117,107.37279
1.1010488,106.05482
1.1744283,108.593
1.1945982,116.40079
1.2391255,112.870804
1.4278289,122.54186
1.3974303,119.20124
1.4434646,123.66593
1.5559095,127.944084
1.5549175,128.60146
1.5006108,131.84769
1.599033,134.7429
1.5573299,134.26422
1.5660762,137.35559
1.5754293,138.76845
1.5632485,140.90771
1.5971813,141.16673
1.614322,141.89618
1.6285659,143.27635
1.6545721,145.2867
1.6301776,144.02066
1.539623,142.55492
1.6080995,145.08533
1.5048778,143.08368
1.5563163,144.27892
1.5558089,141.19662
1.5068815,144.41129
1.4223188,142.66022
1.4329686,141.55865
1.5304513,141.0631
1.3901461,139.79716
1.4012526,138.23131
1.470522,137.25606
1.3699219,135.45401
1.3983511,132.23134
1.2816359,130.24672
1.2278391,131.07332
1.3056604,124.23108
1.3448514,123.99148
1.2555654,127.242744
1.3152047,124.60768
1.2620533,122.38861
1.242684,116.575325
1.2926779,119.0548
1.2752444,113.92803
1.240962,113.09768
1.1904215,111.16759
1.2748967,110.437256
1.1941155,107.45617
1.2446557,106.48448
1.1856412,108.00549
1.2147756,100.0715
1.1818987,103.26762
1.1507149,100.572784
1.1678842,99.631584
1.0976009,95.5925
1.1265794,92.229744
1.0554572,94.58994
1.0841928,90.75306
0.99629414,87.61894
1.0020591,88.230064
0.96911174,82.84947
0.95735455,82.34578
0.8380952,79.33954
0.8698393,79.771095
0.79210824,78.45304
0.8831075,75.19647
0.8875536,70.50503
0.819465,72.60374
0.7332873,68.555885
0.71488434,68.962326
0.7010531,65.300285
0.8134982,60.76344
0.7684866,62.32208
0.7914257,58.90892
0.7368823,58.52562
0.70191836,57.850674
0.7408879,56.585163
0.72344923,55.398937
0.82002217,53.574226
0.7957148,46.5287
0.7443448,50.86395
0.7107479,48.33046
0.7292763,50.58834
0.7739977,43.763393
0.6815291,46.554367
0.6989252,44.3936
0.5867121,46.42022
0.6854889,47.256096
0.5734621,46.613018
0.5206517,43.3355
0.558612,47.415825
0.52473444,47.581944
0.4951461,44.286674
0.53181446,47.159504
0.4060843,49.216064
0.46972767,50.062244
0.4721586,49.241512
0.45182517,51.77659
0.4369278,52.4615
0.5339556,55.475925
0.5361225,59.08691
0.5423606,61.298744
0.5956983,64.762146
0.6236576,66.95793
0.73539704,70.6185
0.7929796,69.85706
0.8206463,73.46442
0.911122,76.42765
1.1462681,81.89555
1.139353,80.374565
1.2135414,86.35438
1.2070351,90.92613
1.2405986,92.95212
1.3848768,98.67253
1.3954028,101.88399
1.4846417,104.02657
1.5761771,106.68664
1.6349789,112.21249
1.6082466,115.172714
1.7902453,121.043526
1.6952862,120.7847
1.7962285,122.78035
1.7814587,128.56259
1.8606151,128.2009
1.9132297,129.58487
1.9521387,132.91476
1.9378103,138.00836
1.8909684,133.86995
1.9051003,139.55435
1.9969945,141.90726
1.8963772,141.7381
2.0112977,141.07361
1.9619814,142.71155
2.001626,149.36224
1.9721928,141.69255
1.9041305,142.57593
1.9356291,144.19147
1.898609,143.66574
1.890438,142.67577
1.8622731,141.28143
1.9458618,140.45432
1.7878643,144.66373
1.8285446,141.46013
1.8127021,142.85172
1.8183328,140.22983
1.7622315,138.56793
1.6627337,137.50465
1.6537437,137.68079
1.6113821,132.38751
1.6738249,130.13635
1.6130364,136.20682
1.5540327,130.2941
1.563836,126.66001
1.5922533,127.415115
1.5882467,120.65924
1.477268,121.501335
1.5733786,122.47006
1.4900558,115.960686
1.4751412,116.98456
1.4890596,113.70352
1.6373416,111.585976
1.4972134,110.60665
1.4804709,107.0517
1.4461914,105.60775
1.4433304,103.68259
1.4371026,103.60264
1.3876971,102.38531
1.3970727,103.37413
1.4125189,100.06902
1.3564444,94.772446
1.3355945,94.932396
1.3565145,93.00529
1.2430785,88.36102
1.2282933,90.14438
1.2416171,92.070915
1.1448367,83.31248
1.1557621,81.426384
1.1168224,80.265045
1.0539895,77.917854
1.0462326,74.93034
1.0681129,75.29118
1.0376425,72.4203
0.9009827,71.6757
0.9040833,69.312515
0.98324335,67.55456
1.0300695,66.36162
0.9336652,65.98794
0.8963022,61.065376
0.93101746,59.441105
0.89921933,57.368835
0.9120047,58.58608
0.87592643,57.617207
0.8088171,54.11521
0.8605417,55.259262
0.88685316,49.579296
0.8980184,50.94018
0.80871093,47.762657
0.7034254,47.20213
0.8576348,50.003372
0.8490177,45.529484
0.79887474,46.89367
0.8051064,45.469654
0.74804574,47.153885
0.6586137,46.32685
0.6217418,46.060726
0.65733457,44.09002
0.57480377,44.69856
0.5727976,42.783974
0.54586977,45.57277
0.48942727,48.704437
0.5064242,49.01268
0.48439953,49.748585
0.45820585,53.574833
0.5648152,53.8139
0.5018806,52.69726
0.45329282,56.720867
0.62077236,60.054478
0.56653315,63.79749
0.53873396,64.74402
0.67493397,66.734436
0.72515726,69.62096
0.7920839,70.57342
0.9224302,76.389885
0.929383,78.93238
0.9708002,82.35551
1.1370926,85.79456
1.1126368,90.16823
1.1834612,91.01336
1.3171263,101.459526
1.375166,99.89099
1.4192665,105.072655
1.4870251,108.07705
1.5998502,112.32533
1.538496,113.51526
1.6048274,119.184296
1.6350483,118.0945
1.6575602,124.68317
1.7155745,126.13476
1.713911,130.7267
1.6906286,130.3933
1.8732325,132.71542
1.7258251,132.72546
1.7122836,136.42242
1.8335735,137.77902
1.8328336,140.67719
1.8289635,143.3019
1.7420597,141.14743
1.8433282,142.51588
1.8215597,143.4408
1.732113,146.47276
1.757366,148.70384
1.7575184,144.86858
1.6712962,142.52312
1.7682152,145.5787
1.7615299,143.6351
1.6713405,144.12102
1.6056335,141.39754
1.6694461,140.51161
1.653164,141.0531
1.540944,139.43379
1.5698618,141.50934
1.4944506,138.49269
1.545671,135.02675
1.5151354,136.22305
1.4247806,132.3995
1.5051738,128.66855
1.4125376,129.3863
1.3856268,124.97885
1.287036,124.39227
1.3517551,124.478035
1.4060693,122.76157
1.273746,119.4574
1.2648442,119.02229
1.2119193,120.12114
1.3275899,117.22624
1.1521606,116.6117
1.1726474,114.566
1.2395759,108.192375
1.1948764,107.90272
1.1920213,105.73451
1.1713934,99.972595
1.2339963,102.7514
1.1013438,99.19461
1.0070395,98.10022
1.0913352,96.43487
1.0640279,94.42249
0.9439194,94.097015
0.9734295,88.721886
1.0000293,89.27263
0.9758061,86.56456
0.92400503,85.565254
0.8113858,82.05893
0.7013878,81.41158
0.81775796,82.82412
0.81180036,83.28173
0.7420159,79.475975
0.6648642,75.99047
0.65950954,72.916756
0.58167356,72.87881
0.6089425,72.700356
0.66768146,68.79311
0.6661116,63.265404
0.56170064,62.57082
0.5545477,62.327225
0.518809,61.048527
0.5245202,58.20637
0.5220825,59.490425
0.5002375,53.917355
0.50038236,54.867
0.5794986,53.17627
0.47379997,49.81272
0.49060908,49.42751
0.47479665,49.105198
0.45434016,46.401955
0.439191,48.289955
0.41490483,47.692223
0.42647743,46.864445
0.34865406,44.763588
0.37814423,44.27292
0.28954482,45.905132
0.29027742,44.653248
0.26968452,44.328247
0.2247459,46.514366
0.1883655,47.432766
0.08660907,47.70032
0.16617157,48.492615
0.0774411,53.78403
0.12870282,54.332645
0.09635734,53.017227
0.11489961,57.08945
0.10631907,57.550945
0.06573601,58.764282
0.21228741,65.22415
0.24804865,67.40398
0.2100251,66.12774
0.28212526,69.66885
0.3218804,76.54534
0.44515046,79.51492
0.5280934,77.30977
0.6585948,82.77609
0.6776438,85.50071
0.71012825,92.91475
0.74500895,96.21938
0.81411016,93.31705
0.9472146,99.639656
0.92981267,101.217545
1.1073341,104.42803
1.0832658,109.67525
1.1934096,113.38349
1.1661512,115.18186
1.1417066,119.37719
1.2790531,122.61598
1.2868887,125.71615
1.4454659,126.71926
1.3971127,127.21295
1.4450995,134.0783
1.3841249,131.96806
1.3873957,134.69907
1.3085768,138.20143
1.3831507,140.33574
1.4472405,137.01689
1.3708615,139.15509
1.4042573,143.43639
1.3311635,145.76407
1.4009184,144.37296
1.4974673,143.19743
1.4076207,149.01097
1.4184259,145.05818
1.4398707,143.74228
1.2932159,143.63484
1.2979773,145.26282
1.3275739,144.35925
1.2410922,140.19301
1.2055999,140.66664
1.2606333,140.86331
1.1345953,136.68706
1.2278585,137.96689
1.144977,134.93832
1.0575696,135.18503
1.0497857,132.07538
1.0570308,138.03012
1.0835918,128.5986
1.072654,130.35597
0.9495804,125.6988
0.97756654,125.62431
0.8945168,123.30237
0.9574994,120.589294
0.9416818,121.76385
0.95592505,118.7039
0.9372628,115.07786
0.8712338,115.5351
0.93455994,114.18163
0.997699,110.41428
0.90532,110.234665
0.96191126,109.6917
0.8589196,103.93822
0.8723636,102.15171
0.8943215,102.60735
0.7941714,97.015594
0.8378194,96.7551
0.74874383,98.00037
0.71018547,94.577286
0.83714384,93.123886
0.63674045,90.71929
0.62464446,90.698975
0.51793283,85.7815
0.5635092,84.332664
0.53337514,84.21627
0.557773,80.369576
0.49639502,77.94935
0.42803988,79.763084
0.37866893,74.90839
0.5021826,73.56179
0.29671744,66.804344
0.4497147,68.009155
0.36935657,67.47499
0.27223364,66.93681
0.32862484,65.073586
0.32991394,63.88587
0.3458252,60.540237
0.27576506,58.637802
0.2723714,60.56272
0.35918814,54.85612
0.4354927,52.88923
0.34758583,55.83682
0.2613979,52.208576
0.27855384,48.895138
0.33452186,47.74318
0.2776294,50.67177
0.34459788,49.25769
0.22834805,45.88378
0.15061425,47.014015
0.30134457,44.582993
0.08482867,47.47684
0.1430218,47.114605
0.13400412,42.461628
0.03906056,42.991474
0.04155116,45.975616
-0.014907341,45.869545
-0.045837026,45.42661
-0.033551723,45.032555
-0.026652016,49.013596
-0.0678936,48.82363
-0.09576974,51.179115
0.0264658,50.990486
0.0006258188,57.081505
0.05709587,60.645454
0.09648558,63.58053
0.07332156,64.914116
0.079615444,64.67314
0.19876799,70.165924
0.30023804,71.792694
0.36334863,73.71624
0.39186013,76.99403
0.50092536,79.96267
0.52193797,85.28198
0.64250076,87.85505
0.6967073,88.08756
0.741937,94.73446
0.92831355,96.13519
0.9546747,101.148445
0.9356767,104.24308
1.1520598,107.732544
1.1416173,107.543
1.1178594,113.91788
1.271699,115.67092
1.2748797,120.91863
1.2570997,122.88506
1.2698084,124.04542
1.332708,126.907814
1.364141,130.3628
1.4117731,132.66061
1.4490422,135.1349
1.4472167,138.88074
1.3440212,137.59673
1.4508008,139.92355
1.4782317,141.8204
1.4751192,140.88019
1.5006939,143.85129
1.4528446,147.68597
1.4928644,143.72679
1.3942742,144.86258
1.4498904,143.28993
1.4131955,144.97758
1.5309687,143.03093
1.4466269,143.85135
1.354153,142.1722
1.3506194,143.38438
1.4299808,146.90367
1.3832062,142.14583
1.3415372,137.52061
1.2755004,140.26239
1.2685442,138.21738
1.2134056,139.54546
1.2033738,134.11694
1.1776862,131.40079
1.2785614,131.49763
1.1742904,132.12541
1.1274115,125.87336
1.1693549,128.35701
1.1528505,123.61896
1.0616434,123.89744
1.0961372,116.09623
1.204377,118.562706
1.0993388,118.44141
1.1082209,115.4644
1.1465436,114.72087
1.0830101,111.21423
0.9827811,110.58199
1.0745735,109.31832
0.962665,108.6753
1.1272725,106.994644
1.0273712,101.79412
1.0407891,97.726234
0.99204206,99.507225
1.115667,96.51923
0.9518058,95.43422
0.90947723,92.88666
0.89136636,87.61852
0.94778657,88.39054
0.82576495,88.04041
0.891466,84.70351
0.88663346,83.27596
0.7898553,79.755974
0.77887285,79.92684
0.66710263,79.037445
0.6134006,76.067726
0.6867164,77.046936
0.7170198,72.92423
0.66370136,68.45518
0.708215,69.36447
0.5712909,68.14876
0.6260799,64.71084
0.7301207,63.927277
0.69351697,58.58928
0.6277123,59.002148
0.71000606,57.911854
0.62795985,56.400726
0.6441552,53.9072
0.6894732,48.944344
0.6348085,53.047226
0.5959505,48.882145
0.58177185,45.918015
0.6932378,49.10464
0.6485034,44.62891
0.54437864,46.761143
0.5959651,44.959198
0.51740485,43.406357
0.43255502,45.55333
0.47957745,42.81503
0.5125267,46.233788
0.4331776,45.643246
0.3525167,45.591972
0.34690323,48.040485
0.46007767,46.39514
0.32643512,45.84566
0.3126868,48.56312
0.338658,49.28042
0.27809358,50.256683
0.23395392,53.09773
0.27905494,53.83237
0.3567736,59.30825
0.40385664,57.364388
0.47738263,61.504166
0.5134904,65.20026
0.52127224,69.81954
0.585509,70.40468
0.6966495,75.67836
0.7710797,76.26075
0.7475897,78.42222
0.9373546,85.49583
1.0001819,86.131546
1.0516514,93.76976
1.1568309,96.32286
1.2942097,96.28982
1.3420279,99.942154
1.3326715,101.90586
1.535467,106.9087
1.4925624,108.14235
1.4497561,112.641624
1.5875314,120.45298
1.6242875,115.43477
1.6528331,119.709885
1.7376424,124.69711
1.7833911,126.67649
1.7210267,129.63011
1.8391867,132.19278
1.8166462,136.33934
1.8701259,132.94151
1.8699776,136.89008
1.8354349,137.97426
1.9026293,141.89622
1.8367784,141.37659
1.8641977,143.59564
1.9343432,144.22795
1.8037921,144.55557
1.819866,144.76118
1.8591139,145.44283
1.8245126,145.8791
1.7471436,146.03522
1.8512422,144.83931
1.758487,148.44533
1.7520049,143.16348
1.762941,140.2743
1.7128929,141.97308
1.6649488,139.8158
1.7630221,139.05331
1.6662052,136.25182
1.5710381,135.25652
1.6717426,135.63219
1.5539385,135.86821
1.5660924,131.89677
1.6122307,127.558876
1.5897362,126.58162
1.5711879,129.73163
1.5766714,122.7226
1.4658374,122.2876
1.5104722,118.666595
1.4788885,118.598724
1.5064765,119.2733
1.4610273,118.416504
1.4578904,114.747284
1.5398211,110.847435
1.5268171,107.67383
1.4388541,107.09572
1.4108328,106.150696
1.3787754,104.346146
1.476057,104.5089
1.4380909,97.938286
1.4145265,99.112404
1.3487042,97.0545
1.3702639,97.76539
1.233748,92.31418
1.3089572,92.39789
1.283067,91.23592
1.1597339,85.63522
1.1864805,87.24431
1.2168593,85.97405
1.1246607,84.28393
1.0823721,82.31905
1.0176784,78.95067
1.0412989,77.090034
1.0279001,70.498146
0.91586006,73.792656
0.94778097,71.63396
0.9021374,67.31608
0.96192485,67.06622
0.8997609,62.18614
0.9280105,61.44558
0.9809318,63.804245
0.84280175,60.23434
1.0220699,56.310738
0.9008559,56.50793
0.91333354,54.857235
0.89789665,55.36528
0.90523934,50.856922
0.8670364,48.898735
0.89051324,49.13522
0.90219647,51.6191
0.8698503,44.35321
0.87022257,49.829563
0.82005805,43.258934
0.75234073,48.582405
0.78514034,49.360115
0.7743346,45.997223
0.717128,46.52247
0.73548514,48.13461
0.7597398,46.67469
0.631936,45.47826
0.6224912,46.73516
0.54668474,46.550655
0.5721632,45.81881
0.6089802,47.10109
0.5918406,51.35839
0.6295993,51.780373
0.47367108,55.838387
0.5809228,57.80466
0.6057935,56.67343
0.6640902,61.453785
0.58556783,66.31927
0.732859,67.65926
0.832025,72.47622
0.79337263,72.79126
0.87184423,77.19761
1.0140027,80.06381
1.0351775,79.59319
1.1189195,82.85839
1.1521109,85.83887
1.2530847,88.54044
1.368681,95.8725
1.4724447,99.952286
1.4390005,103.353485
1.5011792,109.08064
1.5815296,110.120094
1.5784922,112.169785
1.6927291,112.3156
1.791755,120.646324
1.698928,121.428345
1.8260553,125.613106
1.8539808,125.507164
1.8915728,130.47144
1.8337165,129.76463
1.9027466,133.61821
1.8527312,136.86584
1.9204255,136.52121
1.905557,137.52614
1.9447352,142.62582
1.9131403,141.68501
1.9209638,141.99391
1.9416867,141.28345
1.9327476,143.96504
1.9674724,146.6191
1.8423274,146.6795
1.825132,145.0323
1.9083043,143.69794
1.9198374,147.63246
1.8198715,142.80614
1.8427896,145.71869
1.7854698,141.21397
1.7893318,143.79538
1.779921,136.75638
1.6743637,142.3914
1.6643435,133.99669
1.5934038,135.58992
1.7331411,135.90898
1.569311,133.5976
1.5147523,131.05602
1.5094205,128.68738
1.5191913,127.31392
1.4976324,129.06459
1.4415907,123.28055
1.3700231,126.32683
1.5014722,123.36123
1.3592347,120.059685
1.3859013,116.106155
1.3663785,118.17165
1.4625443,113.97756
1.2964376,112.45638
1.3795347,108.90225
1.371038,105.364296
1.3496557,106.80146
1.2547411,106.100334
1.3782258,104.83599
1.2736169,100.68429
1.1903366,99.617386
1.1777865,98.31929
1.2435484,95.82433
1.2417728,96.98006
1.1103797,92.90474
1.099308,90.78854
1.1186969,89.56318
1.0863053,83.37851
0.994453,89.72657
0.9429675,81.43838
0.96373224,80.59454
0.9302362,78.04059
0.860856,78.18891
0.8284065,75.24453
0.8229291,71.115166
0.82310146,69.005714
0.7591044,67.77516
0.7343355,71.33305
0.68640465,66.684105
0.7077834,63.157516
0.6402251,66.62217
0.77948904,61.468132
0.6692454,62.5283
0.7238313,56.56802
0.6780411,57.330177
0.7138697,55.977398
0.71485597,54.732124
0.7326473,53.809494
0.62658006,50.724033
0.6404084,48.900726
0.695723,46.523994
0.63722885,47.86932
0.55603206,48.588238
0.5909943,46.672783
0.55728155,45.43229
0.5845024,42.78579
0.4476269,44.957405
0.3950133,42.28738
0.3984152,47.795746
0.34967086,49.260555
0.35434654,48.29746
0.27684292,48.293083
0.24137136,47.087208
0.32098427,48.89253
0.3022347,47.76599
0.23348047,50.86392
0.2423428,55.55312
0.15114203,55.282936
0.3119439,61.47778
0.35525247,60.21186
0.24570286,61.798103
0.36766973,67.45026
0.4076912,70.237144
0.51607466,68.35561
0.55918926,76.75687
0.6384306,77.49246
0.69704145,82.42264
0.78221476,85.3677
0.86591256,90.28385
0.85968244,90.64996
0.96285576,95.542145
0.9807811,93.79256
1.1626842,98.47449
1.1012905,105.5051
1.2232525,109.93523
1.3112038,110.69811
1.2964139,114.87445
1.3122245,117.430405
1.315149,120.30072
1.3665593,121.16083
1.455915,129.17891
1.4813144,124.60205
1.4824505,131.38179
1.5604881,135.08177
1.5807079,137.41566
1.5452732,134.7485
1.5555457,140.11081
1.5295947,142.15393
1.6215805,142.57874
1.5670681,143.18155
1.5126107,141.23465
1.5941858,140.9861
1.4496678,141.48386
1.5041444,145.34613
1.5311687,147.78076
1.4230806,144.42737
1.4298133,142.13873
1.4355736,146.05807
1.3866675,142.8906
1.3462089,142.8062
1.3752201,140.91653
1.3179765,142.64534
1.3052479,141.67668
1.3112781,141.90965
1.2140939,134.15419
1.1996818,135.41745
1.211084,134.75543
1.2055042,134.88756
1.104308,131.32591
1.0769145,124.95024
1.0675336,128.02617
1.0744333,127.06919
1.0846926,125.59129
1.0855329,126.79542
0.9856687,120.92864
0.9361249,121.5671
0.98570275,116.25553
1.0723157,116.76606
0.982093,109.90736
1.0298978,112.70344
1.0031855,104.65645
0.902959,108.1312
0.9085515,107.18863
0.8902931,103.512436
0.99090016,99.625046
0.8613685,98.85436
0.86315644,99.91166
0.82966423,97.72068
0.7989078,99.48961
0.7958076,93.2278
0.6661613,90.00207
0.6804656,88.38032
0.6206568,85.12296
0.5529893,83.85397
0.65546477,82.17528
0.64981,81.48559
0.5623051,79.74075
0.43788794,76.201385
0.45985907,77.814865
0.49061608,77.13867
0.42750522,74.69357
0.4007097,69.14162
0.37184325,66.90437
0.403803,68.3771
0.22641551,64.81257
0.36216378,65.92771
0.38227567,61.86335
0.4184406,61.955387
0.28841704,58.93976
0.28680834,56.997345
0.2793407,54.79476
0.38647062,53.1674
0.36690697,54.175148
0.39399514,49.999466
0.2776666,48.928375
0.30165717,47.97568
0.2825479,46.776833
0.1641046,43.847523
0.20513244,44.874382
0.23277196,48.140285
0.12947857,44.169594
0.20396635,47.49842
0.16472536,45.729084
-0.027573043,47.385143
-0.030782744,45.205643
0.08798756,46.685154
-0.111832224,48.71656
-0.047024477,50.620274
-0.04524591,48.558132
-0.027286973,50.15098
-0.05064201,51.782677
-0.020890309,57.190716
-0.058118884,55.035477
0.013122729,56.970844
0.07779975,62.58856
0.07473214,61.975018
0.1135625,64.071785
0.11457537,67.975395
0.1995016,71.669464
0.27094012,74.614685
0.28876248,74.047295
0.3822549,80.25008
0.5026177,82.46465
0.50052875,86.01767
0.7194668,93.78699
0.7298214,92.20247
0.7300932,97.17313
0.80891186,102.15348
0.8173968,101.09522
1.0506432,103.894905
1.0065187,111.651764
1.0855149,112.001205
1.1147157,116.072754
1.2037505,118.32945
1.2216765,122.96093
1.2090588,126.84138
1.3024595,124.77382
1.2701756,128.0786
1.3173852,128.4336
1.3633479,136.06958
1.3712393,135.36595
1.4026718,138.7773
1.3470745,136.16162
1.3499223,140.08813
1.4354882,144.30676
1.3300208,142.83801
1.3817025,144.60268
1.4042754,144.19177
1.4078566,145.74219
1.4030416,143.8593
1.3545989,144.86386
1.3316364,142.72511
1.3087395,145.16066
1.3193072,141.41829
1.273613,139.36972
1.3314759,144.60527
1.2589855,141.2055
1.2652203,142.82516
1.199815,136.37119
1.1460708,136.84424
1.097181,133.78345
1.11783,136.911
1.096834,133.26883
1.0604678,133.99501
1.1145537,129.96039
1.0844012,128.94374
0.9231794,127.35228
0.9749379,126.24738
0.99532264,125.315895
1.0478746,123.29952
0.9525304,118.02482
1.0550466,115.78095
0.97531193,113.357666
0.99754214,114.328026
1.0343688,114.79581
0.9976431,110.22844
1.0068206,105.365845
0.95357895,107.25634
0.968493,105.35442
0.9747541,100.54086
0.84270245,101.80184
0.9244044,98.08514
0.87105465,97.226555
0.9272075,94.36353
0.9261044,91.83773
0.76225126,90.53169
0.79782444,93.06072
0.75176406,84.558304
0.71819955,86.05605
0.692034,87.64709
0.63209194,79.32442
0.65345377,78.00085
0.4778814,77.57517
0.5586352,75.15836
0.5356001,73.80442
0.47165856,72.746124
0.50575536,73.59496
0.5735864,69.93515
0.51490766,66.92949
0.51076674,63.996006
0.5597461,66.87112
0.44764602,61.819767
0.47531557,59.774654
0.44411093,59.43033
0.49397054,57.211285
0.5457397,54.498344
0.52883923,50.801945
0.5389259,57.799236
0.37348416,55.074234
0.46859127,51.54959
0.4493735,47.33792
0.43678477,46.877445
0.4336404,48.20307
0.37518144,45.201042
0.3842423,46.609093
0.3143184,44.207928
0.24783736,46.401985
0.3628267,44.914104
0.29634964,43.483093
0.301626,43.966953
0.22594057,47.39939
0.10708516,45.33314
0.15805711,46.76862
0.29113477,50.23408
0.14902171,50.33493
0.24382712,51.162853
0.18727688,53.026638
0.21314572,53.879887
0.25756484,56.247707
0.23788425,61.1525
0.32959935,57.535877
0.35294583,61.681484
0.39970967,64.09232
0.44554222,72.371506
0.56896824,69.25178
0.568179,79.09482
0.6331809,78.49501
0.7111712,82.05029
0.80435824,82.08629
0.9408486,88.92324
1.019725,91.79673
1.0746021,96.68746
1.1151941,98.31836
1.2520449,100.942604
1.2709556,104.46344
1.2640213,109.347595
1.3842355,110.81258
1.4173906,112.75323
1.4427882,119.751625
1.5637919,119.92191
1.6156341,126.35825
1.5333802,125.16205
1.6286314,129.4044
1.6054577,133.15965
1.6657178,133.9977
1.6758492,134.63133
1.5948614,136.30446
1.7596952,135.5646
1.705535,143.11346
1.733128,141.93321
1.7691423,142.26486
1.713639,144.60979
1.818954,141.67606
1.6892713,145.37138
1.7335608,149.03935
1.7065483,143.95724
1.7165189,148.0235
1.7580851,141.6186
1.8168445,145.73163
1.6716404,144.86577
1.6634132,144.44904
1.7642176,141.1485
1.6107271,142.6094
1.565222,140.53209
1.4689494,134.7681
1.5536344,134.29315
1.5148894,133.07799
1.5445039,137.33965
1.4643106,131.79283
1.4712217,129.40178
1.4064643,131.38228
1.3899211,127.648155
1.335702,125.088234
1.4168679,127.95832
1.3907135,122.465904
1.3946073,117.83449
1.3198079,117.26138
1.3708255,119.0993
1.4010041,114.298996
1.3861201,115.293236
1.3482287,110.23173
1.3100004,107.5776
1.3128716,106.31573
1.3427223,103.809135
1.2226545,102.5882
1.2678505,100.17198
1.2583313,99.56581
1.2862728,97.07033
1.3453095,97.25142
1.257002,95.215614
1.168747,92.959656
1.2560544,90.35226
1.1334568,91.0852
1.0773962,89.75672
1.1226294,84.07955
1.0007591,83.78289
1.085385,84.123856
0.99674726,77.21197
1.0358846,77.8741
0.87769526,75.57528
0.92871255,74.276886
0.9415574,71.633766
0.85593385,71.27023
0.849552,71.79869
0.90325415,69.60102
0.839945,66.399376
0.8719131,63.090282
0.9447309,58.192806
0.86603135,58.67189
0.799385,58.544624
1.0281587,58.21342
0.90559614,58.684647
0.88810146,52.461643
0.82899034,50.409363
0.8148161,49.86454
0.7831853,46.834904
0.8406944,50.128166
0.6897854,46.2983
0.92111886,49.44143
0.7362465,48.132416
0.79641134,46.357147
0.74166536,44.57845
0.6749956,44.718815
0.60226226,44.769577
0.61777234,45.163803
0.6139219,43.37599
0.6067327,45.912094
0.54799336,49.460815
0.47986352,54.05524
0.5562512,48.581715
0.57598484,50.68449
0.5409878,50.8977
0.4622638,54.439323
0.6229897,54.592403
0.56963664,58.12452
0.5838881,62.546825
0.64871985,67.297
0.61205226,63.31115
0.8226413,69.88939
0.8131923,72.48389
0.89019996,68.40982
1.0119567,78.711235
1.1001157,79.346886
1.1056434,84.069534
1.2143422,89.24024
1.2957402,87.33816
1.3691719,90.65695
1.4597875,98.4747
1.4351451,102.94662
1.5460062,105.83537
1.6074315,107.64849
1.6631218,109.70127
1.6682208,115.81235
1.7162952,116.04556
1.7738059,122.35229
1.8147223,122.8231
1.8141984,125.90814
1.8962258,128.93849
1.908991,130.8891
1.9926258,132.78352
1.8850089,133.74214
1.907573,136.90062
1.9793334,139.23253
2.0204518,141.26865
1.9073217,139.8319
2.023376,142.03426
2.0558646,143.25404
1.9440649,146.45988
1.9423165,143.21138
1.8861773,145.41212
1.9185878,142.69809
1.9312049,145.61298
1.8711891,143.76784
1.865913,144.91624
1.8763027,143.50374
1.8283052,143.6414
1.7910994,143.18668
1.8618025,141.59863
1.8459411,140.52098
1.78953,139.64609
1.7057241,136.5244
1.6940523,133.51886
1.5701643,133.72296
1.5809089,133.54572
1.5136033,127.547966
1.6113347,128.08215
1.58924,126.6353
1.5768702,125.3655
1.5665913,129.60318
1.5410804,122.10648
1.5047575,119.08141
1.4091552,117.96037
1.4018561,116.67036
1.4581068,113.97908
1.5268365,111.50902
1.5272113,111.6486
1.4924864,107.55493
1.4322374,107.225975
1.4374288,104.78669
1.3879126,102.75112
1.418709,100.91032
1.3333753,102.17
1.3856641,99.06693
1.2948183,97.555305
1.2463886,95.862465
1.2348487,89.795105
1.2240102,89.00191
1.1707778,93.12972
1.1760672,89.375595
1.1021752,84.36315
1.1306914,85.20745
1.0288122,83.67995
1.0843221,83.4495
1.0640628,81.247734
0.97399735,73.234276
0.9538083,75.12764
0.9906954,74.38703
0.8386632,71.88941
0.8945225,73.31058
0.8106943,69.06814
0.8182914,67.74608
0.84667575,63.262455
0.8062322,61.082832
0.8457228,60.328426
0.71744573,58.9174
0.7313222,57.541424
0.75748765,55.29255
0.8167452,53.65383
0.89444554,50.92031
0.7925382,51.018726
0.77290004,52.16645
0.745518,46.962353
0.7568755,47.138046
0.6964608,46.27525
0.7110513,42.93139
0.62583524,48.342186
0.67475456,44.53143
0.56902105,47.35864
0.5208488,46.11967
0.5355965,46.43439
0.41491288,44.742657
0.46203056,50.959995
0.48952353,44.94938
0.38181764,47.39263
0.46287128,49.36218
0.37302467,49.70941
0.4690009,55.412334
0.3269308,54.914402
0.3770699,55.28991
0.41189212,61.02905
0.39494,59.422256
0.45115364,61.115185
0.46941856,65.31612
0.48316082,66.17502
0.5243253,73.163864
0.71407664,73.804924
0.738859,76.21252
0.7743314,78.950485
0.9174385,82.48194
0.89409906,82.02041
0.9971027,89.749115
1.1253086,91.60671
1.1123745,94.74111
1.2879386,96.15814
1.2159115,103.42663
1.401072,106.45304
1.3230696,110.801605
1.4207236,110.88742
1.460963,114.29344
1.4208987,120.08422
1.5406568,121.23023
1.6219405,124.323494
1.5219944,127.0432
1.5881494,131.2479
1.6651376,128.86931
1.6029315,132.96886
1.597834,135.12547
1.7009803,138.43617
1.6851163,139.84163
1.6308863,140.5799
1.7315327,145.4684
1.6706259,146.82256
1.6547108,144.51804
1.6042337,143.66937
1.5730233,144.95726
1.596366,143.81114
1.6104012,144.18121
1.5462363,144.95815
1.6401546,144.34648
1.5390698,147.15775
1.5692885,146.00421
1.5641668,142.17473
1.4518439,142.45403
1.4939548,137.52162
1.4276867,141.39851
1.3960264,135.15279
1.3845149,137.31123
1.4108766,136.7632
1.2284002,134.0498
1.3291833,132.38438
1.333969,129.01004
1.2706085,132.07002
1.19087,128.1159
1.1525552,124.8069
1.2323482,124.567314
1.1493163,126.0013
1.1647952,118.778564
1.1675799,118.1574
1.1448469,117.61104
1.1104016,113.535545
0.9926467,114.33572
1.0593324,109.032715
1.1036065,108.959366
1.1184294,106.2528
0.97770816,101.95901
1.1012844,105.79621
1.0013891,106.23071
1.0287515,98.40581
0.9576968,96.202194
0.9010068,97.26431
0.9634385,93.40375
0.80840033,92.69232
0.80389535,92.85582
0.84998137,87.57862
0.7201246,86.98371
0.71184665,88.05326
0.6481189,83.189285
0.6076534,82.693184
0.51651996,80.46172
0.5353826,76.92203
0.5935984,75.158615
0.50550425,75.36685
0.4764836,69.54482
0.4497104,70.34542
0.45900807,67.463844
0.39143023,67.697876
0.4978821,67.91496
0.4860693,62.58253
0.44715196,60.836353
0.46273983,59.54241
0.37470707,59.137695
0.40467677,54.94839
0.43546534,54.566257
0.44870144,51.269543
0.42201138,49.230835
0.36874712,52.103565
0.27831715,49.40909
0.29738465,45.98606
0.37419832,46.877712
0.24013647,47.56165
0.4127277,43.11308
0.21539268,43.44716
0.26130703,43.98921
0.0584956,44.206333
0.08106676,43.167522
0.09978837,45.753292
0.19945532,45.333897
-0.00379869,45.76664
0.08506537,46.913696
0.022491414,47.574413
0.08409433,50.93597
-0.05857965,51.370487
-0.04711256,53.668995
0.017767465,55.014954
-0.029261833,57.42595
0.0019695628,57.383762
0.012085084,60.00643
0.050577924,62.511036
0.18607345,62.25889
0.17144416,69.237076
0.2978618,70.36953
0.36645126,72.90679
0.3905644,78.1539
0.47384968,78.27714
0.5398292,83.39287
0.5683383,86.95805
0.7237326,93.209435
0.7809135,92.88469
0.84865886,96.28795
1.0108229,99.17456
0.98547673,104.47955
0.9532443,104.729576
1.0051686,112.429855
1.0778041,115.552414
1.1595381,117.35627
1.1617657,122.273346
1.2330896,124.77759
1.2657367,124.18581
1.292654,129.43512
1.2511747,128.65858
1.3364921,131.65823
1.2904971,135.47815
1.3798276,137.26135
1.4241259,140.35945
1.376415,140.6769
1.4262567,143.3193
1.3388524,141.59628
1.4085035,145.38322
1.3365496,144.93425
1.3827686,141.33086
1.384072,149.24731
1.3473431,144.36647
1.2991183,145.87827
1.325364,143.98605
1.2876421,140.8055
1.29358,141.11475
1.2735261,141.28467
1.2617564,142.57509
1.2450526,142.47775
1.197788,141.26762
1.1453848,141.07652
1.1340054,138.552
1.154335,133.7056
1.1002712,133.9097
1.0386481,135.2119
1.0768672,131.16905
0.9529249,127.7205
0.9270376,130.05545
1.0203373,126.69574
0.96534157,126.219284
0.9524836,122.62589
0.9800847,120.46992
0.98477983,120.477394
0.8464702,116.50126
0.91094244,118.44667
0.89718086,111.69234
0.9250455,109.43902
0.96700305,107.20743
0.846295,106.70294
0.86549944,100.96549
0.8038106,99.66915
0.8466514,100.40459
0.9575387,99.545074
0.81099886,100.08297
0.7393131,97.153946
0.6981735,93.24168
0.72548,92.16284
0.69422287,92.75993
0.75301284,88.46418
0.5967033,87.32923
0.6093072,88.41687
0.5788265,82.46283
0.5107328,81.06376
0.58501303,77.6747
0.50704724,79.91628
0.46355674,77.587036
0.44996145,74.70673
0.32177055,72.418076
0.3861971,69.73436
0.39398503,70.66477
0.49958917,67.13801
0.40089616,62.4339
0.5193249,66.307205
0.28831103,63.413834
0.35555092,59.319527
0.36368355,57.296658
0.45823896,57.891003
0.3813591,56.064964
0.38989317,51.735977
0.39761588,50.99291
0.3170194,50.65721
0.4230082,51.02624
0.35610163,52.100533
0.3669782,47.632233
0.28415897,46.776608
0.23544994,49.41237
0.23697196,46.357063
0.34148967,46.317657
0.18626684,43.46166
0.17199922,44.355045
0.10220618,46.57814
0.16857831,44.291252
0.08380429,46.577843
0.05795023,48.108547
0.048238024,47.68495
0.0424758,51.34119
0.055411648,48.38571
0.05387219,53.612892
0.016670456,53.252663
0.09378927,54.36708
0.12185088,56.618343
0.25039533,61.00177
0.18388319,63.336273
0.19795665,63.84895
0.29274392,66.6077
0.28592667,69.45357
0.44133133,70.78129
0.47992563,76.6198
0.5542557,82.210526
0.6042694,84.03115
0.7143606,87.0202
0.8951394,91.32083
0.8814877,92.66782
0.97763026,97.835846
0.97314763,101.26947
1.048581,102.84276
1.2116286,107.03377
1.2112652,111.1817
1.2653322,111.83217
1.2688758,117.788994
1.4063126,115.314674
1.4450614,121.17373
1.4970762,129.67691
1.4716355,128.93303
1.4909918,132.1151
1.5683761,131.75305
1.4853561,134.9054
1.5474374,134.5425
1.5389246,140.04509
1.5809821,139.6417
1.6186178,141.11107
1.588222,143.5963
1.5914097,144.27173
1.4805715,141.89905
1.568475,144.38574
1.6595209,142.96283
1.5335004,146.38585
1.5274023,142.22794
1.5116065,144.68045
1.5259924,143.10648
1.4708233,143.90474
1.4986922,145.66049
1.545115,142.14435
1.5100384,139.1529
1.4644101,138.10211
1.3872924,140.8077
1.4745243,136.29832
1.3997175,136.39531
1.3850526,134.99503
1.3381281,133.3182
1.3702984,135.47012
1.3711436,130.78575
1.285273,128.2846
1.2091024,126.08506
1.2509967,127.62609
1.2612125,123.17116
1.268603,121.81639
1.2532344,118.68404
1.2399886,114.96076
1.2812903,117.542206
1.2504698,115.46584
1.2515858,110.14817
1.2134249,108.04834
1.2167823,108.48064
1.2371176,109.11925
1.2806408,102.83008
1.2989396,102.50376
1.2291422,100.30232
1.1852714,99.04913
1.0970768,98.85921
1.0561388,96.0782
1.0479021,94.40466
1.054436,92.03173
1.0172005,87.719765
0.99993443,87.47402
1.0412672,85.153336
1.0278636,85.9622
0.974625,82.54914
0.95184714,79.37246
0.97134644,77.323204
0.855137,78.21637
0.87948626,75.78445
0.840228,73.18737
0.8282048,74.256905
0.82068884,71.263245
0.77817386,65.66019
0.73566365,67.61782
0.69895875,69.73136
0.74036485,62.488384
0.7609844,58.355976
0.7164022,60.37763
0.77628386,59.589226
0.76610166,58.046608
0.784956,52.14923
0.7155244,49.326767
0.7997434,50.528988
0.70146596,50.109337
0.7685505,48.32603
0.73794115,47.301655
0.68384963,48.689114
0.6099109,46.866787
0.6371595,48.365463
0.6494485,44.84653
0.6926478,47.585278
0.58558345,45.782288
0.5807952,45.736378
0.51044446,44.463837
0.58655685,49.386963
0.5533118,47.94113
0.52930933,45.24862
0.5165038,51.766148
0.54246235,54.88958
0.4588628,54.67679
0.4311374,54.327045
0.46329194,55.21674
0.5465047,56.872997
0.5955118,59.457497
0.56392854,63.341995
0.5196078,66.27793
0.64859354,65.13785
0.70919365,69.41359
0.77906734,73.33141
0.90573215,73.487434
0.8289503,78.117195
1.057123,82.12669
1.0447304,86.863434
1.2467351,92.233086
1.2440625,89.09531
1.3513296,99.690125
1.410312,102.046684
1.4335685,100.719536
1.471642,106.2402
1.5889268,108.52356
1.6411742,112.56847
1.720126,113.56497
1.7247819,115.20065
1.7552154,121.14781
1.8249227,122.13205
1.7877042,125.192986
1.8626654,131.69012
1.8154869,130.76659
1.9586059,133.57654
1.9399245,138.28555
1.8765882,140.32141
1.9820395,137.29108
1.937313,141.06168
1.8988954,140.74838
2.009259,142.93759
1.8852935,141.75403
1.959838,147.19128
2.0019073,143.52037
1.9210356,145.29767
1.8603159,141.97124
1.8962089,143.6214
1.8757132,142.25208
1.9156235,143.28299
1.871534,143.28075
1.8321768,144.34947
1.7980524,142.83626
1.7871516,138.74782
1.7848914,137.46243
1.7845345,139.18184
1.6865191,136.84727
1.7074367,135.82855
1.697208,136.61128
1.6286417,130.03874
1.6708828,131.22986
1.5869579,131.8934
1.5627222,126.14745
1.6239021,125.52656
1.4716499,122.40603
1.5631938,120.085625
1.614988,121.13005
1.5942814,114.07115
1.468004,119.1703
1.5193375,113.25457
1.4659553,114.55018
1.5260779,113.78464
1.4573323,108.83359
1.4529977,109.967865
1.407774,105.88582
1.4042362,103.33989
1.5280243,101.69911
1.452154,100.7667
1.4010458,98.24744
1.4219859,98.15448
1.3724964,93.145966
1.2626065,92.65489
1.2605172,91.445274
1.2219641,87.3435
1.1962396,88.2461
1.1977698,85.92988
1.0939438,84.089005
1.1327127,82.433304
1.1155238,78.62232
1.1286161,78.50655
0.9414925,73.883896
1.0412003,78.168785
1.0036033,73.50112
0.9594319,72.505844
0.9983563,67.88884
0.8886265,66.31198
0.9461227,64.97658
0.9396051,64.39114
0.8558288,64.48899
0.93775314,56.120476
0.93491435,56.984665
0.9579302,56.19011
0.86866486,56.84893
0.8907569,51.989716
0.9513895,54.058197
0.8453476,50.17295
0.9036303,48.50029
0.89916414,46.825153
0.80127776,46.827023
0.80160713,47.12045
0.74607325,43.814716
0.7443628,44.74544
0.7278466,47.414814
0.63308793,42.70442
0.60167754,44.55333
0.6657278,46.40205
0.5975666,44.813255
0.6427712,47.66352
0.4624121,46.474586
0.47840992,49.91031
0.44645533,47.538975
0.45615137,50.860405
0.38002342,52.407986
0.47863692,51.822353
0.573579,56.46435
0.58407265,58.724884
0.5649705,62.0512
0.52116233,64.13914
0.5410364,66.83723
0.6484202,68.71806
0.7987448,70.35099
0.8262438,71.880844
0.8946585,76.48424
0.94223887,81.084724
0.9564491,85.581314
1.0641189,91.17823
1.112466,90.379074
1.2638594,95.40998
1.3055364,98.288826
1.3166986,99.20811
1.4721495,105.24462
1.4327601,107.03685
1.5760863,109.009735
1.5456815,112.23949
1.5118989,119.219864
1.6053088,119.44449
1.659233,124.46833
1.794828,126.72061
1.722,128.99345
1.8242044,130.72195
1.7838997,129.04422
1.7898042,135.21793
1.8159945,134.54663
1.7877218,139.52954
1.8753761,140.21045
1.8036522,142.98358
1.7727044,143.0634
1.739213,145.12189
1.9066916,143.24629
1.7593244,147.71744
1.743722,146.82387
1.8225757,140.52744
1.7284096,144.6225
1.6807736,145.6469
1.7364045,141.38068
1.7717192,144.78117
1.6466627,142.12732
1.6185515,137.71225
1.6008143,141.91405
1.588308,139.00017
1.6035088,140.08359
1.5454522,138.98172
1.5783397,139.02731
1.4829476,137.97679
1.4993137,133.99261
1.3616571,130.43056
1.3521007,131.7921
1.4292237,128.62238
1.31699,126.07722
1.3809252,123.57016
1.2933501,124.39291
1.2133791,119.71591
1.258587,117.838135
1.2362075,118.87015
1.2216294,113.23613
1.3076894,117.31053
1.2151495,110.221825
1.2372317,109.63766
1.1853673,107.85261
1.1913618,108.35661
1.1035562,104.349846
1.1660064,100.17961
1.1708055,98.6501
1.2353705,102.57912
1.073471,99.40672
1.011198,96.35019
1.0283747,90.00446
0.9671581,84.76685
1.0179098,90.03565
0.9128734,86.68926
0.919577,86.23131
0.8262194,84.1476
0.82123345,83.3316
0.70389134,75.95752
0.75068384,75.910614
0.7096338,74.38973
0.689323,75.969086
0.59659433,73.38783
0.6078908,71.34192
0.6696704,68.598915
0.5115376,68.55866
0.585634,65.268875
0.507747,64.23681
0.48969293,60.91481
0.5664015,57.21748
0.59788907,55.97356
0.5139094,58.415092
0.59552145,54.519283
0.5284453,54.751972
0.51208687,49.77901
0.57756835,49.291767
0.4975683,50.67003
0.44620514,48.773804
0.534777,44.658787
0.40806928,47.23918
0.46483415,46.238766
0.33939213,46.23937
0.36040962,43.572453
0.26224953,47.05462
0.27348778,41.427254
0.20225044,44.879383
0.24325766,47.821796
0.16420707,44.981773
0.20023474,45.38241
0.16480091,51.322342
0.03708378,48.015404
0.007917409,47.897152
0.05101575,51.473797
0.20621464,56.38316
0.0366421,54.132584
0.05662185,55.453472
0.15996501,61.17381
0.16273375,61.521976
0.20795412,66.93951
0.28652465,71.0711
0.36964092,72.99864
0.36975375,73.316605
0.46948934,74.84358
0.47732976,83.149254
0.7498624,85.58244
0.6453251,85.5004
0.6403498,87.36938
0.7849489,94.324104
0.86198336,95.12392
0.86587036,95.92501
0.98389,102.7832
1.1475497,105.82503
1.0740658,112.60987
1.1122358,112.54608
1.2054733,118.66182
1.2196369,119.81537
1.2225186,121.134674
1.2354468,125.5533
1.3257897,125.147095
1.361133,130.20895
1.3840787,133.12206
1.4248693,134.71265
1.3791441,134.96747
1.4507362,136.54794
1.3394291,137.92493
1.465681,138.13635
1.4254923,145.12924
1.4911014,140.68597
1.3685274,145.29022
1.4836224,144.9137
1.3894683,141.0675
1.3711671,146.06534
1.3459941,142.9822
1.3946389,144.50706
1.3186858,150.23393
1.3233562,142.0175
1.3178583,146.10893
1.253401,141.03484
1.1585333,140.932
1.3156062,141.39757
1.1809819,141.61461
1.1097034,134.10889
1.0890156,135.98868
1.1593238,132.95323
1.161618,131.8213
1.0226011,130.77399
1.0733411,127.695404
1.0110304,132.07658
1.0008388,126.54215
1.0487536,126.513985
0.9588858,121.59857
0.9886139,124.29361
0.9247753,118.491066
0.8990809,120.1683
1.0266308,117.47081
0.841232,114.63507
0.91483873,114.20923
0.9753981,105.948875
0.81385624,109.409515
0.9237202,106.59313
0.88000053,105.30853
0.80405754,102.768364
0.8561748,101.099594
0.9025117,97.229805
0.73887914,96.104706
0.76733625,99.074715
0.70035887,95.64377
0.71435136,91.23603
0.64928627,90.86696
0.64035416,85.8157
0.58107287,82.42362
0.5582109,87.26906
0.50144583,82.85803
0.45942047,80.46396
0.48357338,81.09997
0.5535802,78.909935
0.4111927,76.04762
0.35765254,71.96639
0.3042871,67.606476
0.27669346,68.96673
0.35350004,64.66794
0.297571,66.118675
0.3490167,63.254692
0.2819577,62.828766
0.32196113,58.769905
0.27084923,62.10779
0.4023995,55.159683
0.32554176,55.521175
0.29129377,52.209885
0.34281301,53.858486
0.3466575,52.18406
0.3341513,49.15675
0.31165814,46.905136
0.2314322,49.339375
0.33113256,48.000797
0.22952428,43.229183
0.23442264,43.325745
0.1976344,44.726227
0.21576008,43.917835
0.10051754,47.651356
0.0124204485,46.446423
0.048157014,45.332623
0.08550249,42.852386
-0.02131262,45.529808
0.06796261,46.976395
-0.09228524,47.560883
-0.027149806,51.23249
-0.0311506,50.471516
-0.055205397,50.030563
-0.032245904,51.024025
0.06414831,55.234642
0.036242235,62.2522
0.06674342,62.170406
0.09852129,63.811115
0.23387033,62.70832
0.24094099,69.76216
0.32978904,69.892845
0.27723098,77.04074
0.4016694,76.83943
0.5135457,85.9131
0.6374307,83.908195
0.6442823,89.33584
0.6990955,94.51202
0.80425006,95.90799
0.8593828,100.19557
0.930688,98.920006
0.9448068,103.43033
1.045199,107.60625
1.1679069,108.83082
1.2115964,113.62883
1.3389587,115.987625
1.2442384,122.29277
1.3455124,122.114685
1.4088782,125.674355
1.3900307,127.58256
1.3809148,129.93654
1.4481636,130.40736
1.4073659,136.03319
1.3954813,137.04364
1.5177286,137.5077
1.5013337,136.08536
1.5131587,143.29897
1.5467432,143.92638
1.4629034,142.60103
1.5715662,141.15355
1.5077876,144.85826
1.4707909,147.20209
1.4358554,146.52687
1.4127532,139.09953
1.3591729,145.65952
1.4097787,145.93587
1.3443856,140.68823
1.4329813,145.9027
1.2898185,143.78232
1.3529066,139.85077
1.342478,139.9542
1.3755152,142.1041
1.2441633,136.4274
1.2313999,136.53374
1.226768,132.88243
1.2913811,132.51389
1.0756671,131.20203
1.1793675,128.67026
1.1821384,125.65706
1.1236982,127.75325
1.078354,126.24179
1.1211245,122.29026
1.0861415,120.68918
1.1125268,119.5254
1.188947,116.19206
1.021539,115.4296
1.168426,115.03682
1.0821766,116.04781
1.0612671,107.65569
1.0326575,107.54005
0.97874767,106.54721
1.1266675,103.70038
1.0671612,103.005516
1.0366417,98.611336
1.1210719,99.38375
1.0282823,99.33667
0.98501813,98.41011
0.9161921,92.02189
0.9548164,91.30338
0.9048405,89.81067
0.8155102,89.392525
0.7612535,81.719086
0.82471704,87.09537
0.8481678,82.627785
0.701572,79.685
0.7414228,77.923
0.6603274,72.292694
0.54185355,72.46393
0.6179821,71.752716
0.61301285,71.02997
0.63421863,68.72213
0.66105175,63.843075
0.5860016,66.82991
0.57631505,64.21177
0.5871741,62.536858
0.6065034,59.015762
0.62579334,58.8051
0.5693434,57.08439
0.5891697,54.426525
0.60727876,53.931343
0.65388566,51.785347
0.71799606,49.394474
0.5243735,48.245922
0.5424315,49.142124
0.6443103,48.056858
0.5427521,49.105545
0.6033711,44.50883
0.5948686,42.808052
0.4952352,44.088573
0.5418122,44.80096
0.51624817,44.233124
0.3574698,43.646767
0.3844317,43.738667
0.3567051,46.90727
0.3781693,48.484917
0.35795546,46.97799
0.29001123,52.879986
0.30500987,49.67456
0.37196392,53.069237
0.3363476,55.313194
0.3356525,55.036133
0.2850896,57.307747
0.4999416,62.60891
0.46298462,64.85019
0.59642774,65.34841
0.4833025,64.69059
0.63484216,71.19095
0.69792247,76.5792
0.8041103,78.18284
0.8104586,78.819626
0.8567514,86.97129
0.94492406,86.75141
1.0586692,88.3255
1.119199,94.17179
1.1771085,97.69524
1.2594088,102.4984
1.3303372,100.419205
1.3479602,106.00784
1.4781047,108.9255
1.5678262,113.03574
1.5839615,115.04077
1.6866655,119.26976
1.6419984,121.85257
1.6827495,124.550835
1.7648335,129.94496
1.7914587,130.59512
1.8094463,130.3715
1.7574319,133.99976
1.8587809,136.9602
1.8868779,136.84242
1.8931447,139.73528
1.8703669,137.85158
1.7747163,143.4959
1.9353338,141.56686
1.8998501,146.38136
1.8423313,147.61957
1.8929886,142.32114
1.8468109,145.38963
1.8436755,143.13979
1.7371526,146.0274
1.7818512,145.24234
1.8272265,145.48778
1.7522905,144.30359
1.6816919,140.04402
1.7626407,140.26808
1.7423136,141.73203
1.6772621,142.42648
1.715075,138.99446
1.7326787,135.57204
1.6625878,134.68681
1.5430381,136.42342
1.5783514,130.26096
1.5968336,128.05165
1.6059424,127.641624
1.5555582,128.82866
1.4482963,122.54076
1.4594058,120.36706
1.4813507,122.990944
1.5424304,116.84701
1.5150182,117.567024
1.4934742,116.40433
1.518788,111.10393
1.45409,113.15695
1.4337487,108.23416
1.4293758,108.11575
1.4867265,109.72986
1.4270461,102.9234
1.3368235,102.12858
1.4158989,101.87516
1.398766,97.22447
1.366656,99.64487
1.2353563,96.49813
1.2793505,93.087776
1.2679647,89.85056
1.2215803,90.49142
1.1930145,90.016304
1.2357736,88.894485
1.176075,85.21605
1.1048445,83.59729
1.1037291,83.056076
1.0917718,78.27707
1.062724,76.065346
0.9731081,74.399574
1.0017276,76.74068
0.9158817,72.01232
0.9706417,69.014854
0.9706121,68.51139
1.0185171,68.04716
0.9833559,66.69941
0.9192506,59.84105
0.9713375,57.41895
0.87879366,56.41747
1.0022842,56.19451
0.7900792,53.427567
0.9414187,54.239567
0.901518,51.694523
0.8082218,48.169968
0.926675,50.794327
0.8443575,48.949566
0.8836969,46.73777
0.79926574,43.736095
0.797544,46.637943
0.81939983,45.815525
0.7045331,44.6344
0.7136596,45.421364
0.70943004,43.66988
0.64495707,47.468395
0.6935791,46.032475
0.56691074,48.587765
0.6971959,46.869473
0.5623129,48.709927
0.5865217,48.82561
0.55641174,48.730846
0.5809209,53.091534
0.55804783,51.788193
0.5756039,50.640766
0.59616226,58.740643
0.621035,56.668297
0.65776277,62.857758
0.6872917,64.589066
0.7376066,64.31247
0.7371093,66.32378
0.8720885,75.22647
0.94430625,75.499664
0.9825469,79.661026
1.083642,82.7686
1.1630603,85.755646
1.1626798,87.98381
1.3378493,93.304474
1.3788865,96.745186
1.4574325,97.395836
1.515655,104.76046
1.518605,107.24536
1.6959544,104.55387
1.6756295,111.558914
1.6564599,118.17962
1.653758,117.774124
1.7725544,117.85106
1.7785027,121.17857
1.847509,128.64847
1.8730161,129.15561
1.9366227,132.4393
1.9802569,132.5259
1.8960005,136.31984
1.9567634,138.12514
1.9064853,138.75728
1.8763808,141.67538
1.9075359,143.57472
1.9795749,140.95253
1.8743057,142.24316
1.8751557,146.73701
1.9043415,146.42892
1.8246654,144.49538
1.8341606,145.59137
1.8548509,146.95332
1.8324443,146.66684
1.7825599,143.93845
1.758946,143.49345
1.7219663,142.54756
1.6717472,139.17882
1.7634797,140.33853
1.6561376,138.48732
1.6595052,139.67583
1.6201851,136.94861
1.6585325,136.4205
1.5494101,132.89679
1.5328946,133.51013
1.5419167,131.99547
1.5545299,130.1648
1.4790546,128.22264
1.4387693,122.43506
1.4815022,122.99657
1.4030555,122.367714
1.4048985,123.40836
1.4577938,116.333565
1.321141,119.793045
1.3178358,114.09343
1.425711,113.843506
1.3697947,109.15681
1.2928768,109.22736
1.2902815,105.8361
1.2499045,107.2538
1.3665291,104.67921
1.3524469,100.687775
1.2854272,96.39774
1.2519512,100.533806
1.2148794,96.66606
1.0999643,95.60037
1.1240647,89.74934
1.1746937,88.87349
1.0656108,94.88933
1.0108548,87.83485
1.0218672,83.49451
0.9785692,83.5396
0.9669692,80.76311
0.8987284,80.10732
0.7642999,79.02284
0.8428875,74.270294
0.8239755,75.11109
0.7898835,74.95198
0.70661587,71.24227
0.7174191,71.27649
0.70312274,67.060814
0.6903594,63.400555
0.6332373,62.527184
0.70922446,62.13989
0.697588,60.431736
0.6694324,58.07585
0.63361776,58.50181
0.6900823,54.38501
0.6195447,53.625584
0.69148815,47.91214
0.685422,51.807526
0.64941555,50.656666
0.6235494,47.597656
0.58239055,44.833138
0.5171281,42.029163
0.49663612,48.038204
0.50114936,44.714016
0.5139841,45.57907
0.39521828,44.961594
0.42887008,46.28571
0.38214472,45.89017
0.37434712,41.916965
0.33923647,45.537704
0.28039825,46.603634
0.29302716,44.84808
0.14603826,50.033707
0.14058821,51.994545
0.25179592,53.422768
0.29437897,56.11991
0.21518296,56.846058
0.304838,59.735706
0.3101094,59.79681
0.39645436,63.316273
0.44453934,66.06234
0.41882795,70.07446
0.54608095,70.977715
0.51077306,75.9057
0.66976726,76.44672
0.6460191,79.400795
0.7138199,82.01803
0.90193653,85.23345
0.91643643,88.48094
0.93890303,93.578026
1.0566136,94.18077
1.1076866,101.23097
1.2449788,104.68743
1.2063427,108.55148
1.2617184,113.48187
1.3413997,113.893845
1.37432,116.12663
1.3624845,118.53431
1.4346569,121.91613
1.4704958,125.711006
1.486617,129.07512
1.5545173,132.8421
1.4508907,130.61472
1.596563,138.42915
1.4835836,136.9656
1.4890181,140.35901
1.4699426,141.71698
1.4162942,141.57817
1.5375293,141.02115
1.5599746,147.51413
1.6133353,144.72562
1.5589992,144.46614
1.5370806,145.26357
1.4725002,148.3915
1.4551986,143.9365
1.5005234,145.66939
1.5007831,143.28447
1.4477934,147.23117
1.3368729,142.66537
1.3232814,143.2263
1.2771674,142.01872
1.2834895,138.35709
1.2550851,138.93799
1.2821368,139.26768
1.1462402,136.75871
1.1554103,135.33713
1.198582,130.98602
1.2182529,133.65063
1.072831,130.85634
1.0553731,131.97852
1.1304013,125.805336
1.0205268,123.5646
1.0500082,118.857285
1.0506092,119.874405
0.9747188,118.75202
1.0121148,119.089294
0.9759956,117.26321
0.9109248,113.15307
0.926003,111.070114
0.95329475,109.73154
0.9837608,108.4686
0.95749176,103.7163
0.87436825,103.22638
0.8898821,101.22813
0.95606035,97.062614
0.89132553,96.8547
0.85897946,95.77337
0.8116504,94.38041
0.8242781,92.51193
0.6768566,91.54941
0.6643434,87.18535
0.7054188,86.66896
0.6635612,88.34117
0.5262025,82.04246
0.5338489,82.263245
0.5156845,81.66554
0.465424,79.427216
0.39251384,77.05405
0.44320905,74.81989
0.33169734,70.60449
0.41805622,67.74067
0.32103997,71.32354
0.3920865,66.437
0.32753903,62.70905
0.35441825,66.642166
0.3955232,62.959282
0.35604358,58.608852
0.30631453,58.99734
0.42929184,59.95287
0.3102733,53.5816
0.38013205,53.011417
0.29588738,50.51304
0.32601833,47.021286
0.34269875,48.84295
0.28987154,51.397797
0.16811214,47.935627
0.24228385,44.389107
0.1989267,44.09794
0.2087167,45.670494
0.20006973,44.198914
0.09062822,44.024334
0.068732396,43.459682
0.037196767,46.02564
0.027104454,47.636093
0.022928484,44.424507
-0.027934384,45.57171
-0.06450205,49.03586
-0.033664968,50.26837
-0.039938692,50.410385
-0.044713218,52.961132
-0.030694796,54.326595
-0.03804334,55.68544
0.07581454,58.04381
-0.02080378,59.36133
-0.022999382,64.46036
0.15707661,67.614746
0.13472132,69.502014
0.22921446,71.29067
0.27025822,70.74091
0.30192882,81.51143
0.3414175,79.706924
0.4447526,79.88538
0.5469799,83.83239
0.7818709,91.94266
0.7007574,92.06166
0.7694545,95.39795
0.7818193,99.33457
0.9666635,103.51982
0.85594815,109.54217
0.98949116,109.67056
1.0929776,113.53444
1.1044964,116.59652
1.1965526,120.01499
1.1819555,122.82047
1.2404865,126.32154
1.1829506,128.5895
1.3112637,132.00327
1.3344747,129.92378
1.3737493,133.82846
1.363623,136.19969
1.3569897,138.3642
1.4524977,139.87479
1.3115377,140.8267
1.4334671,141.68463
1.3265185,145.065
1.3383658,145.36143
1.3573571,143.41528
1.3487223,143.68874
1.4415095,144.59906
1.3649048,145.92813
1.3324047,145.7846
1.2728293,144.88524
1.2864683,146.4248
1.301235,147.02141
1.2430109,146.6075
1.3134588,140.9032
1.0611926,141.36664
1.2447612,139.65854
1.2199997,132.25928
1.1797146,139.16565
1.165839,135.5601
1.1445376,133.45515
1.0542544,131.50383
1.0609827,129.75409
1.0375558,127.06457
0.9960516,126.73025
0.96308637,124.75641
0.964761,125.104744
0.99407524,122.66529
0.9269707,121.46942
0.97558016,119.809395
0.91896206,119.63899
0.96595937,117.53012
0.9689884,110.1761
1.0164711,109.27243
0.9474457,107.13071
0.9223568,106.86646
0.8938064,105.154076
0.92354816,100.402794
0.955532,99.579216
0.8912089,95.44674
0.9022111,98.55626
0.8616544,96.00739
0.7975008,92.957054
0.83594805,90.443344
0.7062681,90.61537
0.7772588,85.07855
0.7022871,87.65464
0.614214,83.76577
0.6648199,85.35646
0.6345832,79.83582
0.63727283,78.095406
0.6167525,75.41946
0.5265008,74.50907
0.44935575,73.266655
0.5024139,72.833
0.58609,72.02822
0.6109359,68.00124
0.4912551,64.59229
0.5438464,61.68443
0.36660132,66.3956
0.49999577,63.531666
0.52890915,59.933952
0.48302823,57.152294
0.48536822,56.88659
0.4733488,52.250496
0.37836823,52.855003
0.4598838,47.802628
0.51873946,48.911053
0.49362725,47.425087
0.47784576,47.36598
0.49227938,48.900005
0.36949247,51.000984
0.3667823,48.769444
0.42791268,45.393394
0.325901,43.11053
0.34306565,44.01075
0.2533053,45.779736
0.20342185,46.42326
0.2710965,42.253162
0.20535932,47.56414
0.14571127,46.81109
0.19696496,47.344822
0.19311282,53.61848
0.1594478,51.874523
0.17030315,54.02078
0.20434569,59.061897
0.19458796,56.61458
0.3430194,58.832283
0.19507164,57.956963
0.30610052,63.349655
0.42553627,64.66227
0.459337,69.84069
0.52860194,73.13188
0.57169676,73.43745
0.6589642,81.37925
0.75336736,82.70627
0.8497151,81.58245
0.8663891,88.5595
0.95456797,90.82168
1.0595084,95.42142
1.1883836,97.85439
1.1600841,101.430275
1.2168002,104.8359
1.3414546,107.91917
1.337286,110.14951
1.4716873,115.74459
1.4329917,116.64591
1.5031009,120.32183
1.6225302,125.39193
1.5828767,123.67849
1.6378882,131.9024
1.6332479,130.73296
1.649045,132.1733
1.673279,138.35065
1.6615885,138.17307
1.6890826,138.05804
1.7399292,142.02145
1.7416285,141.87161
1.7446467,141.67422
1.7551347,143.60353
1.7548269,142.94534
1.7325786,142.18024
1.7755271,144.57744
1.7274977,144.68134
1.7448277,142.5358
1.68535,146.18643
1.7067322,142.16382
1.6658133,140.90074
1.6831349,144.46881
1.7103925,142.21779
1.6511854,143.6153
1.600772,136.72522
1.5490878,137.49866
1.5513272,139.09929
1.5270938,135.08379
1.526003,135.31766
1.5125296,132.7574
1.5847334,127.80484
1.4960604,128.76672
1.4232054,126.260506
1.411228,126.12351
1.3947399,125.01514
1.4120475,122.279945
1.4599433,122.05812
1.3983828,117.88039
1.4125882,116.3894
1.3268166,115.69801
1.3708987,110.77779
1.364949,111.694695
1.3903451,110.83351
1.4102734,105.916794
1.3822987,104.83377
1.321106,100.610275
1.3281431,102.9085
1.3161725,101.19645
1.1793047,97.83533
1.2866309,97.08696
1.3038564,96.62591
1.2607174,91.564545
1.1724992,92.00005
1.1182687,88.50083
1.1088707,88.51751
1.1066532,85.6934
1.073233,81.7009
1.072037,81.40096
1.0261471,76.78561
0.95192313,77.03033
0.95720726,78.36498
0.9681091,74.933784
0.87453717,73.21451
0.8117337,71.72262
0.7752712,69.234825
0.8351836,67.25334
0.8724483,64.35914
0.87949705,59.42097
0.9490683,63.376694
0.8513993,58.46992
0.94526464,58.820225
0.80163896,54.90703
0.8996923,53.309578
0.84277505,54.75987
0.8298607,54.107906
0.76321054,50.30126
0.912598,47.276974
0.8461193,48.46376
0.7785956,47.43307
0.85284954,48.19322
0.8042119,44.189396
0.83099455,46.657753
0.73457986,44.354084
0.7304467,46.049973
0.68093383,43.554752
0.58282155,44.067596
0.5680809,46.841415
0.5560661,48.015053
0.54170424,44.401478
0.53077644,46.35132
0.4873115,47.404873
0.4968563,51.53617
0.5052652,51.956905
0.49869496,52.660534
0.5532947,56.772354
0.62321436,56.78504
0.5804384,59.422665
0.72558415,57.908733
0.697048,66.67394
0.7217063,67.241295
0.83030736,69.17136
0.8797921,73.32794
1.0054504,77.38501
1.0315062,78.13954
1.0535451,81.077576
1.117585,87.480804
1.2138278,91.44169
1.3435591,92.76748
1.3662828,95.96016
1.4312012,103.58093
1.4766139,106.024475
1.5546137,111.38921
1.5538766,112.43469
1.7265931,116.93115
1.795588,116.68602
1.7764517,120.03688
1.7593231,121.961334
1.9263904,127.71082
1.8840681,128.51263
1.8439445,126.8142
1.8684496,131.60265
1.9434435,136.12805
1.9211956,132.90793
1.9522384,138.27985
2.0678637,142.98961
1.982082,143.27164
1.9405743,144.07213
1.9494354,143.51372
1.9860442,145.64066
1.9298607,146.7966
2.0057678,146.6541
1.8836689,143.88913
1.8571916,145.06575
1.9212309,143.09247
1.9657742,143.76062
1.8531741,145.15688
1.8825785,143.3938
1.7934529,138.01501
1.7872146,140.89694
1.8052595,139.22282
1.760028,138.5793
1.8083194,138.87729
1.681966,137.80206
1.6455197,132.58598
1.7101965,133.22935
1.7258441,128.4409
1.6218803,129.525
1.5340055,131.30414
1.5949193,129.86728
1.6230357,123.34872
1.5372729,123.347206
1.5202428,120.47502
1.5560045,118.616005
1.5347035,119.28398
1.511246,115.2162
1.449768,114.416985
1.5495251,112.47726
1.4996152,110.85845
1.3814132,106.94862
1.3926094,106.771935
1.3999654,104.8292
1.3952768,98.64051
1.3289046,101.40399
1.3167356,97.89973
1.2284646,98.91681
1.3125491,97.58709
1.2892408,94.08377
1.2671943,93.92034
1.2058634,93.61452
1.0724568,89.69844
1.0687661,87.079414
1.1808077,86.96957
1.1096354,83.03586
1.0095118,82.54224
1.0754273,78.17614
0.8891885,77.348045
0.9032634,78.35345
0.9188338,74.32118
0.94264376,72.67937
0.8514757,65.10113
0.91451323,64.67415
0.90266687,62.24874
0.8382866,62.37076
0.7738286,60.443615
0.80438405,59.767284
0.86295164,55.967472
0.78580505,56.109596
0.76018494,52.99191
0.7555072,55.996338
0.78993106,52.14585
0.7356368,53.196808
0.75903684,48.578472
0.8327115,51.29978
0.78358805,45.780735
0.7695453,47.18542
0.6468823,47.485657
0.641996,43.062874
0.5837299,46.648968
0.56353515,43.273636
0.5685053,44.595318
0.5375707,43.587273
0.4513807,46.377544
0.42090005,44.68593
0.38327727,48.86183
0.38848537,50.715473
0.4033545,49.89062
0.40033278,48.651054
0.28865677,51.021
0.43544126,53.309093
0.35196868,53.722538
0.36145884,56.005028
0.43772128,57.74609
0.489676,61.940296
0.52962774,66.22688
0.47970164,68.062256
0.6146045,72.10901
0.60464394,72.11986
0.8125678,76.75303
0.7933985,78.29172
0.87327486,82.762985
0.8896334,87.102234
0.9682213,87.872795
1.0772555,96.20569
1.0710695,96.88524
1.2301168,96.27232
1.2222658,102.34611
1.2682186,107.0398
1.4533932,105.769646
1.4388951,114.41486
1.4537944,118.38065
1.4979028,120.680115
1.546909,123.91979
1.5746065,120.544785
1.623679,125.01655
1.6118925,127.32161
1.6577785,132.96533
1.5912737,134.23694
1.6901215,137.28929
1.6643134,138.08914
1.7206289,137.73521
1.6635612,140.59842
1.673682,140.52914
1.6790975,139.9385
1.6370134,146.13298
1.6905576,143.73926
1.6020422,146.79306
1.6627393,147.51181
1.7375311,146.46516
1.5682927,144.98253
1.5863012,147.01878
1.6054766,144.71776
1.5199717,142.60103
1.4218379,142.55927
1.469141,143.75194
1.4032495,142.16142
1.4162132,138.31241
1.4018259,135.39407
1.4068836,138.47362
1.3208472,135.39911
1.2486688,135.63065
1.3558128,135.17673
1.1848037,132.46947
1.2500405,133.66183
1.2060747,128.44147
1.2245893,125.57848
1.1674091,123.25735
1.2053686,123.54564
1.1921781,120.17688
1.1422305,117.979004
1.1435298,116.30473
1.1646551,112.587776
1.1545421,116.601006
1.1230534,114.83121
1.0144578,108.9634
1.0022182,107.423615
1.036949,105.87393
1.0019892,104.99118
1.063126,101.69452
0.97086334,98.69773
0.9508246,99.33234
0.83904856,95.1298
0.90500355,93.042244
0.92341673,89.23629
0.81986386,91.74382
0.81960356,87.24799
0.6925124,85.50818
0.7275306,85.11679
0.5818076,81.78203
0.6671521,82.45251
0.6227689,77.75652
0.6420018,74.12329
0.51618767,76.12766
0.5662021,71.9505
0.51636326,69.37463
0.49247968,68.39721
0.51467615,68.60405
0.41431126,64.75641
0.47230747,63.185875
0.3951665,64.26228
0.44331473,63.222275
0.39814633,58.116634
0.3579945,53.631985
0.41321355,58.080696
0.3299743,51.38076
0.44560593,51.8032
0.41338962,50.283554
0.44758156,49.143513
0.35532647,53.027157
0.30417,46.420883
0.4106622,48.8045
0.3190686,48.169113
0.3010944,47.16921
0.29757193,48.05273
0.23685159,47.425964
0.1378173,44.781605
0.16857313,43.63709
0.032351684,45.99545
0.04302312,48.003727
0.05211832,49.736774
-0.08741655,47.63776
0.02410786,46.95048
-0.0509777,48.262936
0.04534181,49.23873
0.079956435,54.24169
0.019974291,57.760666
0.024711818,56.855717
-0.0094084535,60.16125
0.12187612,61.08317
0.03118219,63.7502
0.12824434,64.97401
0.19322957,67.54525
0.32140484,74.532234
0.4173908,72.54701
0.374052,73.8923
0.44864365,82.340904
0.5284106,85.4578
0.6529588,89.07027
0.7320445,92.31868
0.70273405,98.628365
0.85047424,96.98572
0.9748672,98.70781
0.9254386,104.84792
1.0348674,107.37514
1.0872347,114.793526
1.146473,113.97352
1.1285372,116.9943
1.2039418,121.421455
1.208492,125.37134
1.2461985,126.12997
1.2307374,127.76353
1.389199,129.82442
1.3567579,131.64526
1.303063,133.48463
1.3662009,138.82225
1.4616245,135.75517
1.547509,140.08627
1.3089751,142.48402
1.3234831,142.28438
1.3521538,140.92
1.4133512,144.13869
1.3660547,146.49457
1.3567127,144.54082
1.2827531,146.7509
1.2949114,146.9929
1.344637,146.71852
1.334038,141.44882
1.2800142,143.95006
1.3100986,144.488
1.1976757,141.72314
1.2520591,133.50319
1.2165564,139.50146
1.2369562,139.75601
1.084504,139.01033
1.1004444,136.9463
1.0917219,130.95503
1.0009946,131.47194
1.0493337,130.4128
0.95515454,129.00644
0.9932496,127.406555
0.97820336,128.3739
0.86093855,121.513504
0.9164254,120.40545
0.9200682,123.59956
0.9693699,118.429
0.89446104,114.46638
0.83252335,115.326096
0.8686266,113.75687
0.8995083,113.57863
0.90757185,107.36756
0.8389108,109.685196
0.8529235,105.41083
0.9603316,104.62275
0.84363496,100.21065
0.8761329,99.176506
0.8050494,99.98119
0.7884877,95.857056
0.74346673,92.673195
0.81127197,92.41332
0.74947315,90.781105
0.69366705,90.70043
0.65324837,85.011635
0.61237764,85.412674
0.62211484,84.12571
0.5405743,79.67392
0.5406052,81.448456
0.462084,81.5441
0.38187504,77.35929
0.43656498,72.31339
0.41585255,71.94537
0.35441262,67.95087
0.3730012,67.34999
0.36089024,71.73313
0.4166385,63.978153
0.34947342,64.64525
0.39323854,61.12119
0.36307845,60.224213
0.36612266,58.27666
0.36442286,56.27319
0.47201708,54.949238
0.33206967,53.706406
0.29095146,50.53741
0.42424747,53.69053
0.36212224,49.93222
0.38586035,47.994274
0.36927703,48.303497
0.24558623,47.058704
0.31146687,49.96547
0.25461286,44.663994
0.25589094,43.49513
0.23620723,45.62939
0.1257035,47.555885
0.21887562,46.813755
0.19513974,47.46353
0.088390864,49.30234
0.08999423,47.145584
0.07340849,47.519367
-0.03415934,49.181335
0.0024285482,48.95987
0.104185164,51.60238
0.059295345,52.8673
0.024799597,55.372536
0.11751356,57.022007
0.07971625,59.09176
0.17244802,63.387123
0.23967752,65.82304
0.25642923,67.61848
0.3542998,70.70587
0.28557238,72.87302
0.4562908,76.06335
0.56529945,79.418365
0.6531568,80.702736
0.789069,85.569626
0.7798139,90.877815
0.85663265,93.010254
0.99138165,97.41565
0.98081774,96.12209
1.1259629,102.76176
1.10716,108.53948
1.2582607,109.944046
1.231488,113.41148
1.2973449,116.10831
1.3108112,116.0597
1.3933598,126.24457
1.385695,120.97155
1.5313476,131.29193
1.4282007,133.00015
1.5427638,132.2694
1.5327897,135.23868
1.5665581,139.87283
1.4685787,138.73944
1.6528664,142.24069
1.5956246,143.96887
1.633305,142.89923
1.5668911,146.81291
1.5954713,140.72542
1.5414914,144.4078
1.5787258,145.24031
1.638322,144.38538
1.5851038,143.87384
1.5091894,142.95116
1.6065613,145.82948
1.5641981,143.91153
1.4401025,145.49345
1.4638873,143.76875
1.4044163,137.90257
1.4763077,139.16246
1.4509495,138.59976
1.325051,140.90704
1.3732148,135.77802
1.4127373,133.58896
1.3129584,132.3147
1.3881645,130.65543
1.3375319,131.66577
1.2792695,127.21019
1.2483124,125.230675
1.314955,126.45424
1.2413682,120.396996
1.2438234,121.568565
1.2866832,120.59704
1.2334775,116.00465
1.1897365,117.178825
1.1982435,114.6045
1.3182762,113.19314
1.1499152,109.95363
1.1952814,106.5505
1.2517977,104.99671
1.1314503,105.37596
1.087749,100.75501
1.1946853,100.185356
1.1835774,98.21321
1.1793438,94.71011
1.158408,97.862
1.1444016,97.76024
1.0451136,93.081696
1.0505763,86.83271
1.0160297,85.258
1.0779686,86.61141
0.9800502,83.441574
0.9469623,79.84618
0.9123115,81.23608
0.8598573,81.54835
0.84587455,77.16929
0.7852614,76.435295
0.8097322,74.97086
0.7156744,71.5271
0.7391811,72.21789
0.7474019,66.456825
0.7780161,62.663677
0.7078296,64.59193
0.7729371,61.22391
0.69440645,64.581635
0.82463425,55.56994
0.8324577,59.57001
0.7465413,56.66937
0.69129276,54.054966
0.752796,52.19412
0.8020858,54.232727
0.8117481,49.864452
0.7653596,47.80566
0.7827294,47.67216
0.7102138,49.088547
0.71964,46.07701
0.7006157,47.5701
0.59309584,45.54954
0.6314311,48.17962
0.62766755,42.02616
0.5616637,46.216972
0.47980398,45.871223
0.5645253,48.652245
0.5408769,46.214836
0.50591666,44.797173
0.47042897,47.81139
0.3946796,50.606888
0.42138776,51.623444
0.43783867,55.7753
0.5173478,55.39699
0.4675313,59.560417
0.5933963,61.590157
0.56827563,65.19524
0.64331836,61.772243
0.67148197,66.79781
0.7823384,70.62796
0.79381895,74.82654
0.9223693,72.93672
0.9290833,80.22591
1.0398229,81.81447
1.0757347,88.27255
1.171866,89.182556
1.3014034,89.00999
1.2858769,93.885155
1.4369849,99.73109
1.4987652,101.91955
1.454091,102.86499
1.594819,108.21924
1.6298368,113.08103
1.6766112,112.02043
1.6753753,119.40817
1.7616025,120.67359
1.7574412,121.81825
1.8057877,127.45151
1.867815,127.63295
1.8633457,130.32245
1.9221048,132.0654
1.8683074,132.95389
1.934475,135.84409
1.9628676,137.46185
1.9447651,139.49638
1.9532127,143.73766
1.9537364,143.32213
1.9562808,145.81161
1.9446911,145.17123
1.916205,144.09225
1.9341854,146.50313
1.9602762,145.7718
1.9095569,144.96574
1.8231341,145.90346
1.9080721,142.60782
1.8942589,143.2618
1.7675545,142.75073
1.8360128,138.90645
1.7841783,142.49538
1.7804328,140.3233
1.8114172,141.1455
1.64904,138.79462
1.6554832,136.05515
1.6677964,137.07204
1.6251616,134.35793
1.6829029,128.23439
1.6373109,127.74531
1.6516349,127.22558
1.5419416,123.73681
1.4897497,125.97348
1.4944454,122.43782
1.5420271,120.75281
1.539155,118.143486
1.603524,116.38649
1.5619283,115.46449
1.6086063,110.60875
1.5732509,107.81314
1.3990755,105.718
1.464877,110.48918
1.487382,101.908485
1.4747477,107.50856
1.4337395,103.30489
1.5062176,101.01062
1.4118291,94.81578
1.3793079,94.232834
1.3111521,96.23015
1.2840648,92.29665
1.2569433,91.882
1.2000173,88.778435
1.2159573,85.14362
1.1785775,83.76252
1.1401632,83.31571
1.1633953,84.68436
1.0529541,78.84073
1.0926542,76.57468
0.96547693,74.08996
0.98855436,73.098335
0.9894617,69.08387
1.0630267,71.226326
0.99808955,70.798256
0.971081,65.51081
0.9231256,65.32839
1.0056481,59.598225
0.94143623,61.589306
0.9743024,60.04017
0.90646374,55.7288
0.8509824,55.83645
0.89358324,54.050293
1.0100927,53.298927
0.83565915,54.305233
0.87336344,51.387142
0.8412559,51.07564
0.83730423,48.359325
0.77811193,46.574234
0.87043476,47.346897
0.84996825,45.02367
0.7048166,48.55831
0.68936765,44.568054
0.75286454,46.504044
0.5890265,43.93869
0.5425423,47.74653
0.5140046,48.586864
0.52940214,48.965202
0.549538,48.734768
0.55119276,47.08121
0.47267634,46.037712
0.4916373,51.4165
0.42641833,51.69754
0.43904343,55.763176
0.4857471,54.119537
0.5968754,61.884777
0.5079924,61.80399
0.54499644,64.89246
0.6303308,62.975952
0.736247,65.57646
0.74116683,67.07659
0.76369995,72.30376
0.97507554,77.13381
0.8632134,80.16443
1.0412475,81.30819
1.1312464,82.9238
1.1704623,86.70293
1.1971384,95.438225
1.3400081,100.13656
1.4149804,99.69663
1.3563809,103.57607
1.5129329,107.73102
1.5087544,108.65591
1.5138192,113.90652
1.7304568,114.511765
1.6468872,120.760574
1.6912667,120.15621
1.6667674,126.14805
1.7496983,129.86443
1.7106915,130.4875
1.7431723,129.01396
1.7255954,135.47871
1.948158,139.07898
1.7870365,137.51328
1.7747425,137.23503
1.8054024,142.46864
1.8311167,140.1065
1.7635733,143.10352
1.7977968,143.11526
1.8671219,144.6334
1.7609998,141.25232
1.6848559,141.19075
1.851255,144.5379
1.6913563,142.46133
1.7027544,142.04024
1.7074932,141.80742
1.7252262,144.81247
1.504094,140.11658
1.6417292,141.89212
1.5161332,138.09724
1.4900514,139.3185
1.4545966,139.44781
1.4613476,137.55772
1.4722306,134.0708
1.4254385,133.76785
1.4280977,133.5892
1.3270714,127.69456
1.3124137,128.42572
1.3034104,127.36169
1.2992957,126.96607
1.318186,124.924644
1.3801534,121.32259
1.3791903,119.50916
1.3144472,114.57677
1.2054396,115.27362
1.2219113,111.05148
1.2622454,111.94098
1.2367496,108.36608
1.184268,107.42925
1.2326875,104.2952
1.1778706,104.65448
1.1281482,104.01575
1.1751918,98.65656
1.1669192,98.6425
1.114646,95.67844
1.1055404,94.54745
0.9534364,93.61625
1.0145662,89.2583
1.0081412,91.92184
0.9319146,90.2798
0.81537336,86.376785
0.8689056,83.92958
0.88087445,81.08176
0.7899755,78.85367
0.67251843,78.26395
0.70383173,76.99294
0.58256906,74.168495
0.6820798,72.675156
0.60817856,70.418076
0.61780614,69.28682
0.5463329,67.08944
0.5053582,63.654823
0.48634744,67.56057
0.5304067,60.042
0.57298833,59.12156
0.6115568,57.032143
0.5088726,54.396145
0.49857956,55.96092
0.49933508,54.389885
0.45456913,51.591045
0.5623938,49.32209
0.45022646,48.496113
0.51879793,47.107647
0.5042739,46.574028
0.40457416,48.895805
0.43578947,49.107906
0.40182745,46.39258
0.28521153,40.504078
0.37102464,42.029106
0.35455653,42.91625
0.2634546,48.216785
0.26334834,45.470924
0.10849958,46.714622
0.12256896,49.46322
0.10834725,46.960033
0.18404076,48.562157
0.10605304,48.83838
0.048909787,54.429436
0.007778381,52.743202
0.1447001,58.851707
0.13946088,56.437492
0.23954159,60.888924
0.20486389,62.262466
0.18384191,64.38342
0.3049735,66.95079
0.2726104,71.20528
0.39851078,74.87947
0.42135325,73.507645
0.52072835,81.97715
0.6011668,81.90099
0.7121038,86.67988
0.78666466,89.962944
0.8062792,93.523895
0.7547694,97.90197
0.9075214,97.336075
1.0236675,101.79849
1.0166881,105.84394
1.0452659,109.43216
1.2293453,113.079926
1.2461287,112.78252
1.2765261,121.47343
1.1963526,123.207855
1.2461507,130.79425
1.3515933,127.31985
1.3535619,128.32315
1.3125801,133.8336
1.3458656,132.19144
1.3784958,133.70763
1.3822045,140.39743
1.3604985,145.1414
1.37759,141.72313
1.4905794,142.50813
1.4536277,145.08742
1.5044407,143.38112
1.3391733,146.48128
1.4819762,144.04745
1.3987164,146.98119
1.333621,145.44983
1.3690462,144.56898
1.2996024,144.6794
1.2809253,144.24625
1.2158412,145.37154
1.2681011,144.2429
1.2515218,142.2801
1.2454586,142.30357
1.2521068,139.61621
1.1488332,136.59236
1.1187245,138.42297
1.1135783,134.0058
1.2058516,136.47977
1.089984,134.17442
1.1190711,130.64119
1.0651866,129.42436
0.9172346,129.0678
0.9711352,127.04443
0.98680997,122.64751
0.98454314,118.29351
1.0094564,120.09228
0.89299953,116.69146
0.82778245,117.360275
0.9052381,115.33827
0.838491,114.40127
0.92528754,112.030014
0.86639047,105.47091
0.87266123,107.36703
0.85643625,103.84732
0.79665107,103.3557
0.7875563,100.17937
0.76413727,101.28235
0.80207676,100.93955
0.78339845,96.05467
0.6875548,92.86926
0.7148144,90.9054
0.7322451,92.004745
0.66565394,88.31446
0.6185563,87.27254
0.51763976,82.86782
0.48175865,82.55785
0.5342071,82.642494
0.51583314,80.678925
0.37333757,75.7381
0.4162631,78.961365
0.40290526,70.731834
0.50362295,74.21638
0.36750337,70.16208
0.33848712,72.38179
0.33961496,65.4011
0.31885353,63.889397
0.27976197,60.889744
0.31506637,62.00813
0.34480315,57.294216
0.2871719,55.008976
0.3055411,55.616016
0.35863593,55.137196
0.2529999,55.323376
0.37139955,53.979942
0.3391872,48.330532
0.29418114,52.92597
0.36591697,48.8539
0.25070503,44.00399
0.2552723,49.409653
0.26170152,48.192333
0.22286503,47.225033
0.067978755,47.06934
0.11574976,46.725975
0.05694176,43.644424
0.10615315,45.473637
-0.016818644,44.112907
-0.021552734,45.709236
-0.059832912,49.041862
0.0094029,44.507668
-0.0868215,49.138824
-0.03590039,49.484543
0.017292699,53.81974
0.04458958,56.043304
0.029811235,57.384598
0.018818721,57.81094
-0.01780724,59.319084
0.10739191,62.628345
0.13578193,67.68535
0.12940551,67.842545
0.23876888,70.55853
0.37925488,74.51229
0.4559312,80.807144
0.5259784,82.43709
0.5597043,85.75927
0.5741741,88.09024
0.6589464,92.596306
0.7799336,93.88837
0.8670177,94.32
0.9887129,101.92666
1.0340471,104.93175
1.0354925,108.809456
1.1539912,107.43774
1.1578143,112.79012
1.1638346,118.33744
1.2553414,119.9368
1.3098308,121.40409
1.3326939,128.65807
1.3289388,125.45265
1.3991218,128.90927
1.3724792,136.04008
1.4192953,135.5789
1.4678085,137.57933
1.3659693,139.05818
1.3604871,141.49396
1.5003778,141.1177
1.5012851,142.10077
1.52941,142.9398
1.4939563,145.46452
1.5128413,145.5549
1.4306873,142.89563
1.5355406,143.5987
1.4046543,146.47816
1.4009147,145.8155
1.4710866,143.32932
1.4065697,144.7584
1.3172168,144.50995
1.3332269,141.19537
1.3267323,139.16035
1.3657228,141.82986
1.3205168,141.56226
1.236393,138.83055
1.3269719,136.85097
1.2674326,132.65869
1.2436498,133.88849
1.1693426,131.39435
1.1335274,128.62737
1.1755542,126.890656
1.1353091,127.43914
1.1169193,125.87136
1.1253414,123.45774
1.146858,119.64835
1.117189,118.77114
1.0115097,119.47925
1.0669065,114.75808
1.0449122,110.974815
1.0536813,112.93267
1.0671899,109.31646
1.0756027,106.06031
1.0973083,105.55555
1.0271405,100.828354
1.111165,100.175026
0.96462286,102.418884
1.0278232,95.09561
0.9952093,100.03877
1.00482,94.146736
0.9718065,92.06978
0.9490907,89.15523
0.84997076,88.24969
0.86397785,86.18908
0.79174834,85.13411
0.83837193,82.175896
0.8292791,82.18606
0.7234834,78.66251
0.7842801,79.97757
0.767301,77.68019
0.71719027,74.37334
0.63475716,72.029236
0.6732756,68.48722
0.6077555,67.91324
0.65883666,69.6985
0.7021483,67.05434
0.6144013,63.338737
0.6535572,62.794304
0.66903996,58.322655
0.6309412,56.66567
0.72854483,54.70549
0.69952184,53.297146
0.7243458,54.45761
0.64301586,50.122643
0.6394202,51.793354
0.6359185,50.453007
0.6615787,48.58817
0.6520995,47.339943
0.6044854,48.02882
0.5541215,47.996796
0.47353235,46.351658
0.5753678,44.99652
0.50241137,43.83314
0.38021985,45.552933
0.47118074,47.382713
0.4126779,43.834152
0.35658786,47.372936
0.30229366,45.649418
0.34165657,46.205627
0.33567935,51.09916
0.34350657,47.63373
0.31953672,50.32602
0.4260586,53.977077
0.47670284,55.121014
0.38486266,59.169395
0.41257054,60.919884
0.53335136,61.016594
0.42824528,68.21628
0.63209224,67.3503
0.64639854,68.77476
0.6636836,67.67542
0.7290325,79.73346
0.78167665,78.82058
0.9514742,82.30304
1.1138679,87.168015
1.1043931,90.66734
1.166864,94.06633
1.1650279,97.096436
1.3767605,95.372284
1.3503363,104.59482
1.5002296,107.80272
1.534057,108.826256
1.5422956,113.79772
1.5907198,115.97546
1.5658221,120.29838
1.6698203,123.802864
1.681495,124.90312
1.7190732,127.211815
1.7328286,129.38304
1.690934,133.15097
1.7782173,136.5515
1.8005311,139.4753
1.8758597,142.50208
1.8388956,142.95866
1.8689268,140.14159
1.8985064,145.69154
1.9056426,142.49928
1.9205844,144.91171
1.8221111,147.76862
1.7700565,144.8534
1.9095799,147.04993
1.8752751,143.84637
1.7848071,146.46701
1.8381302,144.32878
1.7900981,141.98465
1.8014784,142.93279
1.7443666,146.12796
1.7568748,142.38736
1.6947149,140.74672
1.7071465,137.11003
1.6498773,140.83525
1.5717778,137.94139
1.5840119,136.92699
1.7025561,130.66887
1.5798851,135.25003
1.628159,129.96355
1.5542576,128.75716
1.504726,124.317635
1.5182205,123.43034
1.5151209,123.36456
1.4883581,121.382
1.4857975,121.365654
1.4707274,120.1451
1.4965059,119.35806
1.456262,110.67871
1.5013156,112.41064
1.5428214,110.26988
1.5054369,107.282585
1.4543123,106.958595
1.3852942,105.13011
1.3968295,102.25099
1.3835973,100.23368
1.4225777,102.75578
1.3405186,96.6852
1.2719512,94.88673
1.3776314,95.05086
1.3037232,91.6081
1.27036,87.79198
1.2939425,86.971756
1.1053568,86.32121
1.1013396,84.4422
1.0656524,82.97576
1.1101594,79.65435
1.0972842,77.63972
1.0997179,78.86984
1.0178212,76.34915
1.0087504,75.17429
0.9914472,68.5341
0.9687667,68.49594
0.99454945,67.37981
0.93766195,67.065994
1.0378591,62.215034
0.92446387,60.994778
0.93410885,62.995125
0.83736145,59.624382
0.9162984,57.438507
1.0012835,59.036594
0.9861376,54.109043
0.9613904,52.153923
0.9638689,50.053288
0.88843316,52.684765
0.8355109,49.20358
0.8689042,48.74875
0.8798404,48.23003
0.845259,45.24664
0.8436754,44.52157
0.78852266,43.049126
0.75454956,42.658474
0.76483923,42.548058
0.6819944,45.5414
0.6470184,45.726257
0.6544222,44.344852
0.43072012,47.246082
0.5650003,48.54129
0.45075205,48.27948
0.588897,52.24621
0.55780506,51.571877
0.45606712,50.392235
0.5961814,56.703045
0.55163574,56.019157
0.5568502,61.94097
0.65005344,59.507843
0.6800475,65.245026
0.6983933,69.22775
0.65791655,68.33227
0.85215914,73.18838
0.8970416,74.717186
1.0204053,80.62662
1.0747688,81.99731
1.1107837,83.37698
1.2516938,87.378494
1.3465791,91.65226
1.3636011,95.83604
1.4341867,99.34231
1.3917472,98.5226
1.526106,105.03637
1.5323088,110.1362
1.6221539,112.65344
1.6751252,113.42309
1.7247287,119.344795
1.7266203,122.17566
1.666437,121.73744
1.9165832,127.767586
1.8570423,131.25873
1.847219,132.43109
1.9544711,132.17601
1.8902972,133.0026
1.8197913,135.74109
1.9261975,140.18716
1.9356147,140.37225
1.9296368,140.13513
1.8880134,144.07184
2.0000753,143.29611
1.9159373,140.79306
1.9018775,146.51988
1.974639,144.20784
1.9081836,144.9155
1.9191307,140.88132
1.8986212,145.1755
1.868775,145.97351
1.7988131,143.56616
1.7407705,142.0669
1.808792,142.09128
1.6702442,140.1948
1.705256,137.23593
1.6178272,139.7716
1.5754353,137.58386
1.6458663,136.34163
1.6234119,132.36731
1.5269133,132.97655
1.5356996,133.25253
1.4007599,128.93196
1.4693878,127.5629
1.4172691,122.81963
1.4820333,121.52794
1.3958328,121.69667
1.461373,124.48686
1.4289283,117.98862
1.3617823,115.858345
1.4082173,116.247505
1.3280281,112.04624
1.4173399,113.75143
1.3622311,106.93229
1.3613182,108.511635
1.3462106,104.68977
1.3566414,105.338745
1.4010378,99.50037
1.2256618,100.55577
1.2930229,102.481606
1.1845878,97.61235
1.1082822,96.04377
1.0995185,94.30548
1.1321509,92.331154
1.111958,90.127464
1.0519928,85.79642
1.0397425,82.32558
1.0378066,83.21711
0.90915346,81.56991
0.96071684,80.9525
0.91306186,76.66697
0.8900486,74.197586
0.8350008,77.69568
0.83497345,73.84443
0.7172605,68.11258
0.763201,70.66767
0.8239073,65.52249
0.65612537,63.20527
0.7015694,61.69873
0.6222929,63.222843
0.7257755,61.096928
0.7020912,59.378113
0.677492,56.135338
0.6400644,53.587822
0.6068235,53.32824
0.66224045,51.2627
0.6371765,50.51759
0.55238575,48.91842
0.56805444,45.57384
0.6294621,48.444508
0.5766629,46.054825
0.5819394,46.94046
0.556546,43.186977
0.5196002,46.229393
0.3659513,43.660427
0.44560105,43.302113
0.3693378,48.37666
0.36951298,45.960205
0.37134722,47.755974
0.2996449,45.407112
0.18668507,48.03844
0.28186697,52.911076
0.20929934,49.55262
0.3006468,51.601456
0.28469798,56.474087
0.21620582,55.97477
0.20667331,58.745888
0.22397079,63.083775
0.31048873,63.789772
0.39590046,67.06746
0.4152027,66.45115
0.4958194,70.13267
0.49936202,75.890076
0.5937764,77.726814
0.7210058,82.02419
0.73173785,83.89975
0.8640168,88.02823
0.9553288,91.55026
0.90446275,95.78477
1.0706666,96.4901
1.0229716,98.48024
1.2372482,102.401596
1.2352178,110.9082
1.2345449,111.40001
1.2820611,112.662865
1.2741556,116.483315
1.3741066,120.34141
1.3894597,125.78641
1.4205266,124.03078
1.5018077,128.26189
1.4961125,127.62595
1.4827468,132.69472
1.5047077,134.17775
1.5412405,141.48517
1.55879,139.40863
1.5078288,136.88322
1.5283947,141.68828
1.5320398,143.44217
1.5317175,144.6621
1.509416,142.28015
1.5468477,141.86562
1.5773761,142.18193
1.451242,145.0618
1.4603392,144.6192
1.4830148,145.20815
1.3603029,145.30647
1.4538102,146.99504
1.4066222,142.84074
1.4185159,143.58186
1.3185538,139.48227
1.3488764,140.4526
1.2994351,137.56374
1.2744607,137.12585
1.1756034,137.46031
1.1923596,137.22598
1.1235256,133.50377
1.1673456,131.98264
1.1464062,131.01402
1.072254,126.90576
1.0686245,124.68713
0.97053814,123.6227
1.0092382,126.997444
1.0562999,118.74403
0.9804727,119.45466
0.9539445,120.84599
1.0779921,115.90911
1.0239071,114.60544
0.99825394,113.17965
0.93813986,111.68778
0.9932652,108.657684
0.92282885,104.55489
0.8735044,103.71216
0.85916585,101.17924
0.90206254,101.89153
0.83870506,96.378975
0.8202322,94.92233
0.8033821,96.43087
0.7964216,93.05593
0.81282914,92.72165
0.66373056,89.97714
0.69350064,87.85175
0.6568386,86.6724
0.54978585,84.286446
0.66732895,81.66421
0.5346735,79.300125
0.43408,78.45433
0.44741303,74.63681
0.5180559,73.78541
0.5302305,71.500984
0.40732235,67.88938
0.3298911,70.17273
0.33901742,68.89626
0.46017697,66.025444
0.41871366,60.66878
0.4098214,61.08675
0.3557599,60.31066
0.34915438,55.615093
0.42064995,55.80635
0.2827327,56.464127
0.39373326,54.05403
0.30991048,51.229908
0.33240432,55.783897
0.33467776,49.3205
0.30366606,47.482357
0.19156094,47.161957
0.26322803,43.10461
0.18908635,45.824493
0.2520931,49.98729
0.21831049,47.197502
0.115782745,47.17022
0.08376173,48.13541
0.10499607,43.421413
-0.05735739,45.223927
-0.021631971,46.71305
-0.00050421734,44.52644
-0.0034530156,50.056606
0.050607383,51.490097
-0.11434124,45.502586
-0.014145793,51.067013
-0.0015554134,53.926346
-0.043307006,52.793396
-0.05065895,58.250988
0.030837618,57.488045
0.037374184,61.121006
0.1720038,64.31701
0.1728282,66.86395
0.18015748,69.49898
0.18438558,74.27033
0.33900604,75.51378
0.38399684,78.16248
0.4611473,80.53571
0.5390466,86.082535
0.46443322,90.74074
0.71706724,94.1746
0.83649206,93.64736
0.70615095,101.28058
0.9173307,104.1612
0.9393879,106.66241
1.0836912,108.9536
1.117485,111.49679
1.1457999,117.42544
1.2321494,118.313034
1.2818955,122.913765
1.2850741,120.5447
1.2724444,125.01137
1.3217758,129.58636
1.316811,134.29887
1.2963364,132.07352
1.3402797,138.337
1.286817,138.11578
1.3856909,139.1902
1.3977087,139.01175
1.3362111,142.31396
1.3679705,138.65964
1.3355036,143.215
1.413818,142.82776
1.351061,147.73419
1.3326625,147.49142
1.3747394,148.78844
1.4017674,145.11923
1.343807,141.64894
1.399274,145.69385
1.3586749,142.46819
1.2504531,140.81474
1.2212703,139.69873
1.1758229,142.12314
1.1737859,140.68343
1.2483735,139.28705
1.1406518,138.13113
1.1403967,134.76909
1.0722312,133.59784
1.1769961,132.64235
0.92498577,128.26823
1.1228443,129.25813
0.96455216,125.96883
1.0049437,126.69433
1.0062346,123.08947
0.9657238,123.13124
0.9151415,118.21203
0.98389554,119.38421
1.0365127,114.58388
0.980926,113.49843
0.8879891,114.35855
0.9761402,111.10237
0.96613985,107.21266
0.85838825,101.537964
0.84077466,105.31599
0.9165522,101.43198
0.97709537,100.20838
0.92420053,96.57605
0.88041157,96.25591
0.9111492,96.396645
0.8495389,90.38228
0.82193947,91.70285
0.7939442,87.997246
0.73604786,89.837234
0.6269658,89.691536
0.80462235,82.89581
0.6629363,79.91988
0.6207057,81.95125
0.61069065,81.374214
0.52109915,77.74855
0.46698236,74.5101
0.49255335,73.23255
0.5374807,74.854706
0.49733904,70.86616
0.52671206,67.9711
0.4834158,66.510826
0.5020144,67.64422
0.44377932,60.420082
0.44050923,61.615376
0.41458908,58.407104
0.5358424,57.43217
0.48861432,56.182705
0.4665872,55.245792
0.5066977,53.473225
0.5028202,54.076775
0.4949033,51.44081
0.43979082,50.66638
0.5003908,50.521687
0.44956776,48.02867
0.47421,44.610687
0.43319336,45.129883
0.39502928,43.222317
0.32523465,44.738785
0.35803702,44.83089
0.32865936,42.84433
0.35161847,46.776993
0.27726886,45.307743
0.245009,44.80682
0.18259494,45.088726
0.23278931,46.178356
0.20645122,49.91895
0.12729084,50.322075
0.26108813,53.638916
0.17087077,53.138233
0.20293313,55.91148
0.28243205,60.38483
0.27203152,56.19638
0.36254883,65.202965
0.4123197,65.186615
0.44391814,69.97896
0.5565693,74.45475
0.57845265,76.85224
0.66507095,77.184906
0.71215093,82.26829
0.77509075,84.17834
0.81514347,89.85745
0.9446486,95.09244
1.0565455,92.043
1.126682,98.52515
1.2501615,104.82349
1.2434416,102.59
1.31145,106.56652
1.4364383,115.29272
1.3980931,111.18131
1.4374583,117.39397
1.558546,119.594826
1.4715747,122.803406
1.6081706,124.82661
1.6810527,127.35069
1.6614151,134.90863
1.7154187,134.06197
1.7103438,134.26903
1.7107415,139.4562
1.826202,137.11765
1.6686773,138.86913
1.7708987,143.52957
1.6772033,141.96994
1.7197338,143.51967
1.608353,141.58752
1.7469808,143.4649
1.7187486,146.77191
1.7118123,146.90553
1.7309617,144.85938
1.688122,144.98866
1.6737084,143.90318
1.6884055,141.39038
1.6519299,143.62444
1.5915635,141.82835
1.5770969,138.69194
1.6221305,143.90553
1.5433823,137.6809
1.6521746,140.38638
1.5369067,138.18289
1.5152844,133.393
1.4789501,135.38853
1.5225041,132.72366
