ppg,abp
1.0704986,87.387115
1.2226782,93.99303
1.2414988,94.30523
1.2492893,101.41644
1.433115,106.50317
1.455662,109.301445
1.5523998,116.558876
1.6079848,118.040115
1.6545823,126.121315
1.7812849,128.16104
1.6083076,131.69002
1.6904222,131.33205
1.7072521,133.12688
1.7282988,134.58496
1.7525953,138.22195
1.7580485,138.31104
1.8022178,140.87776
1.7149761,140.13834
1.6945927,143.93062
1.6223154,139.47914
1.6599251,139.90582
1.6874199,138.67088
1.5951627,140.49246
1.575815,132.8311
1.5391487,132.27492
1.4509524,132.52417
1.4743967,129.72813
1.4591544,127.46111
1.4591961,126.24864
1.3818437,118.93393
1.3734542,116.19979
1.3980875,113.2707
1.3633109,109.303375
1.3519212,110.01807
1.4262033,107.18821
1.277838,103.03678
1.367288,100.72894
1.3055781,95.33215
1.2593232,99.340065
1.2261544,93.71086
1.2260607,87.25866
1.1373924,89.82809
1.0844867,82.18164
1.1260326,81.98302
1.1406614,79.353676
0.96522087,76.84293
1.0140545,69.39027
1.0129837,69.08559
0.90734345,69.035774
0.87633765,62.395294
0.9265547,63.361847
0.8577409,59.378197
0.853884,56.75617
0.7672015,50.295963
0.8384898,49.70955
0.8337149,47.087765
0.8198339,43.30329
0.83574736,42.206203
0.85134214,40.8862
0.8454399,40.0
0.7604671,40.0
0.75389767,40.0
0.78372884,40.0
0.6084921,40.0
0.65225375,40.0
0.5913799,40.0
0.53013575,40.0
0.5378578,40.0
0.5170366,40.0
0.48047942,40.0
0.53889537,40.0
0.4905877,40.0
0.48566478,40.772503
0.55347264,46.769802
0.5694867,46.287605
0.57852775,51.660717
0.754785,53.241272
0.77473223,58.457947
0.8462527,64.888535
1.0355886,67.861244
1.0643305,73.689156
1.2193207,77.301384
1.2340518,84.26279
1.3710519,88.09111
1.4863454,89.22034
1.5695684,99.62268
1.69121,104.902054
1.7509016,108.45282
1.8012981,112.59676
1.7485932,116.11088
1.8001232,118.84228
1.8651433,127.91079
1.9031912,128.40765
1.9729848,130.84239
1.874546,135.2767
1.9374809,137.60426
2.0168984,136.05655
2.0005872,139.1169
1.9515977,142.8925
1.9276494,143.72252
1.9199101,138.96342
1.8988639,142.70615
1.748383,139.69052
1.836367,140.72913
1.8013922,136.98601
1.8518784,133.47693
1.7548469,133.32831
1.6982037,130.09105
1.6530247,129.32939
1.7422708,126.62907
1.6654842,121.08676
1.570688,123.02138
1.5476985,121.00756
1.568799,118.54431
1.5013248,114.145615
1.5013196,111.80436
1.4712515,107.03604
1.4740144,106.75162
1.5408802,99.784706
1.4980626,100.75646
1.500671,97.92653
1.4118837,94.09398
1.3633989,90.2921
1.4038064,90.058464
1.3773673,83.76111
1.1411563,83.60037
1.2492791,79.8379
1.1309489,80.786476
1.2160617,72.298584
1.1074234,74.67062
1.1412145,68.46614
1.0641271,67.603455
0.980488,60.070927
1.0085294,61.456993
0.88378435,54.70432
0.96931297,54.26836
1.0678763,53.699608
0.9675471,49.05824
0.95464945,47.61975
0.97006583,42.77906
0.8866277,40.0
0.9115244,40.0
0.85779065,40.0
0.8232679,40.0
0.81267655,40.0
0.7932794,40.0
0.8304593,40.0
0.72335005,40.0
0.68145293,40.0
0.67839867,40.0
0.74792755,40.0
0.5864685,40.0
0.494365,40.0
0.41598797,40.0
0.55122256,41.418255
0.50871277,40.72178
0.5492236,44.173393
0.6126396,50.575096
0.6197817,54.832684
0.6883703,57.63884
0.813838,60.45666
0.93387425,66.077255
0.96405005,73.76971
1.1020141,73.66723
1.1484162,81.60016
1.2696972,87.53552
1.445168,92.40445
1.4419451,97.88744
1.5651643,103.361885
1.6352061,108.326805
1.7172581,113.8206
1.8457485,115.35314
1.8573657,116.52178
1.8471396,123.49507
1.8532974,123.7359
1.9474854,134.05771
1.8519427,133.06067
1.9414804,133.95343
1.8817004,135.0832
1.8915868,140.36272
1.9157068,138.96756
1.9504573,136.83443
1.9015492,136.4972
1.815213,138.36821
1.8323044,135.87411
1.8406186,140.4546
1.7214189,136.32106
1.734004,136.58232
1.6687491,131.34987
1.6172875,134.4443
1.6005297,134.38165
1.6833642,127.203255
1.4184998,122.34237
1.4789191,122.064644
1.458199,120.94338
1.3726411,119.25026
1.4268837,113.16814
1.4165939,112.4103
1.401496,109.08058
1.3820077,103.98705
1.3879403,104.592186
1.362656,98.85415
1.3554736,99.61189
1.2626861,90.4469
1.282531,91.94397
1.3083494,88.0434
1.222208,85.35841
1.2007531,81.75495
1.1327193,81.51095
1.1154103,78.09846
0.9683396,74.16643
0.9790179,71.52349
0.96930206,68.76876
0.83829886,64.75435
0.84351206,64.14398
0.8180079,63.11021
0.80232644,57.95986
0.80512846,55.691605
0.76754373,47.826954
0.7433639,51.06035
0.75986993,48.86845
0.7451904,43.85017
0.73893833,42.5373
0.72357047,40.0
0.696673,40.0
0.70911497,40.0
0.68807054,40.0
0.5900617,40.0
0.59122586,40.0
0.5366491,40.0
0.42984042,40.0
0.42884532,40.0
0.29246262,40.0
0.28502637,40.0
0.3824856,40.0
0.35452402,40.0
0.26078546,40.0
0.18063666,42.385265
0.29678127,48.13793
0.31671643,48.724236
0.4367815,54.46369
0.48761418,55.384
0.611645,58.800793
0.65942174,65.87011
0.75407237,67.82767
0.8020997,72.810326
0.9389962,78.59255
0.9948984,81.36306
1.0702819,91.038506
1.2651775,94.600296
1.2758886,101.31379
1.3367366,106.46387
1.4597307,110.60517
1.4597738,115.97083
1.4987308,121.92015
1.5786128,122.13008
1.5284889,125.38089
1.657717,128.54262
1.5898895,132.40231
1.5912459,136.48149
1.6851655,134.15991
1.6423475,136.06038
1.6196835,140.39545
1.6277112,140.92311
1.5861455,140.39232
1.6583825,139.85457
1.5681758,139.44832
1.552472,138.11722
1.4468226,141.22139
1.3781509,138.30444
1.3506992,134.6344
1.3178275,128.35815
1.3244352,130.73972
1.2657206,128.10443
1.2819791,127.52431
1.1393805,123.96802
1.2347994,123.39193
1.0922277,117.256035
1.1498923,115.35886
1.2372798,112.32006
1.1247357,109.17262
1.0304936,107.242165
0.9943989,104.205605
1.0910954,100.94622
0.9569554,98.19771
1.013193,91.85089
0.9585184,91.07445
1.0478556,88.54357
0.9475713,85.218994
0.86692536,85.80607
0.8893666,82.656555
0.8139293,80.19653
0.780566,78.31043
0.59737414,74.73602
0.64582145,70.00884
0.6206537,68.006355
0.47831848,63.34447
0.6003414,60.3953
0.4086876,58.310753
0.51459354,55.499836
0.41567725,52.077877
0.34588984,49.689625
0.51157653,50.99306
0.45804113,45.74058
0.41794124,40.0
0.3745856,40.0
0.39243248,40.0
0.37966084,40.0
0.40505543,40.0
0.31293106,40.0
0.33462828,40.0
0.31786743,40.0
0.15818328,40.0
0.25789064,40.0
0.14752252,40.0
0.04005077,40.0
0.059347034,40.0
0.05554165,40.0
0.028548272,40.0
-0.0063735843,40.0
0.01151007,40.0
0.05114825,44.34359
0.07685904,48.43277
0.13456872,53.833008
0.26213294,56.727684
0.3863034,62.1977
0.4364545,65.93168
0.5532508,74.37163
0.68867844,79.588936
0.75950474,80.92376
0.6862297,88.57073
0.9454521,94.85131
1.0215746,94.72404
1.0470535,101.24357
1.1371905,106.12106
1.3068999,112.70865
1.2938408,112.64503
1.3092439,121.96734
1.3476534,124.27288
1.3709463,127.71146
1.3837314,135.2587
1.4455335,131.09126
1.3669513,135.02866
1.4169762,137.22519
1.3382337,137.00867
1.4826998,137.35312
1.2749375,142.10832
1.2805331,141.6934
1.2818712,139.84186
1.2803655,137.86732
1.1974682,137.0315
1.291982,135.2294
1.1735958,136.23012
1.1606642,132.8423
1.1090168,131.60947
1.145875,132.6099
1.1018041,128.34146
1.1136342,125.63756
0.9130603,125.49784
0.91013855,121.18161
0.9365412,114.546455
1.0075942,115.57663
0.9248132,108.98348
0.8894716,112.3412
0.8572332,107.05747
0.76380223,100.38768
0.9101287,96.82359
0.8211135,99.348694
0.8025344,94.80752
0.8764721,91.835594
0.8268771,87.64029
0.7768391,86.647484
0.7783916,83.807625
0.6937435,80.06414
0.5743238,78.24201
0.58377415,72.968506
0.5145365,70.266235
0.515223,68.05263
0.371368,67.678986
0.42413843,59.99978
0.3892974,60.148006
0.37647477,55.927216
0.36754203,53.90167
0.3026213,50.563187
0.25523058,54.298164
0.46096763,46.34563
0.28410318,42.13005
0.34389633,43.034485
0.2482159,40.0
0.32007256,40.0
0.1721504,40.0
0.28706983,40.0
0.30165806,40.0
0.1734385,40.0
0.039678745,40.0
0.13446791,40.0
0.10821957,40.0
0.025864834,40.0
0.013211329,40.0
-0.04967794,40.0
-0.09956111,40.0
-0.0040168716,40.0
-0.07025719,41.395893
0.092656836,42.74685
0.084318876,49.18089
0.037377328,52.03466
0.18959472,53.25934
0.21325931,59.56479
0.41803515,62.944405
0.4957295,69.90096
0.57823926,77.75806
0.5963054,81.51574
0.7847458,83.03866
0.8484584,87.22296
0.9118335,97.77328
1.0175548,101.837585
1.0835394,110.63881
1.1937358,106.64324
1.2619536,114.11948
1.2813481,120.242226
1.3873225,125.2887
1.2922766,125.11151
1.3738027,128.7826
1.3775486,133.83475
1.3948208,135.09656
1.4741925,139.29912
1.4539313,139.8157
1.4152623,138.61118
1.4187288,140.20811
1.4652458,138.23372
1.4656823,142.71085
1.2539234,140.3789
1.3442779,138.32927
1.3475827,132.62646
1.1901557,136.35246
1.291854,135.96518
1.2327526,132.98799
1.2601535,130.30731
1.1277124,129.55858
1.1130835,127.59314
1.0972685,121.98273
1.1382183,121.02805
1.1014946,118.16039
1.0444413,116.346436
0.97350746,113.17755
1.0530874,109.08982
0.98455274,107.99126
1.0549377,104.927864
1.053975,101.84048
1.0839707,97.53281
0.9418246,94.88479
1.0111777,92.17355
0.9272426,91.68265
0.94048244,85.47059
0.8230931,82.937225
0.75477296,81.07598
0.79009587,77.27192
0.7867065,75.987755
0.65713394,70.53267
0.7591521,69.51856
0.64207566,67.84869
0.4906133,62.24029
0.44360825,62.187088
0.46715686,57.941856
0.6403705,56.42911
0.48440677,56.509617
0.5506643,50.078316
0.49598086,46.845596
0.5463463,42.279465
0.5632449,43.223316
0.533681,42.83759
0.5243787,40.0
0.49140862,40.0
0.5768945,40.0
0.48885357,40.0
0.44592738,40.0
0.30119723,40.0
0.37506804,40.0
0.22453997,40.0
0.27943796,40.0
0.19454898,40.0
0.14195934,40.0
0.18506448,40.0
0.16226089,40.0
0.15162715,40.0
0.19245787,42.396584
0.26096845,44.469887
0.34555092,53.87374
0.36465034,53.58977
0.48506334,59.384445
0.5562149,63.713932
0.70301807,71.34282
0.74784315,71.23313
0.88094026,79.26439
0.9331428,86.45871
1.0669652,87.421616
1.1805613,92.78601
1.2105131,96.69674
1.3511536,108.28694
1.4369013,107.26233
1.5198498,111.27935
1.4651561,115.77483
1.6317683,123.00348
1.5790887,125.77055
1.6190797,128.63351
1.653506,126.07977
1.6922369,133.51231
1.7701042,135.1987
1.6302652,137.73291
1.7051233,137.85828
1.756991,139.47891
1.70963,139.37819
1.6566421,138.49344
1.6741954,141.3819
1.6736089,136.21297
1.6984562,138.50288
1.5405426,139.44148
1.5501945,135.47482
1.5035846,133.2634
1.5462613,130.2006
1.4635756,128.88432
1.3800269,123.90276
1.3409933,125.37423
1.481024,118.94147
1.2765107,119.61694
1.4285026,113.766304
1.3141497,116.47024
1.3498147,113.14851
1.3087974,105.430595
1.2610849,102.14044
1.2596118,100.48985
1.1991487,103.39733
1.262037,93.73803
1.1353229,95.07988
1.185604,89.42634
1.1664788,86.87379
1.1804295,85.614784
1.2114167,80.51359
1.083409,80.784874
0.9882034,74.00293
0.9748819,74.67547
0.91648227,70.56083
0.87768245,70.21489
0.88098395,68.1999
0.8325576,63.864017
0.82259905,60.461266
0.84332794,57.929314
0.75283825,54.415813
0.73057973,53.648895
0.80358005,46.635563
0.78844064,45.989506
0.84232455,43.809334
0.6974174,43.728397
0.78956753,40.0
0.8719915,40.0
0.8374198,40.0
0.7350786,40.0
0.6668454,40.0
0.6434528,40.0
0.6614668,40.0
0.6896039,40.0
0.57248527,40.0
0.5512608,40.0
0.572926,40.0
0.5089237,40.0
0.4412427,40.35419
0.4747177,40.0
0.446676,42.56745
0.4689852,45.45685
0.47391245,48.855515
0.51198155,51.760918
0.70854336,54.685703
0.83983654,61.34121
0.8231259,66.50931
1.0437968,72.044754
1.007609,75.3512
1.2886978,80.07892
1.3442175,85.56428
1.3613766,93.01255
1.469105,97.668976
1.4860067,101.294205
1.628607,105.52395
1.6927141,110.31038
1.729272,116.13442
1.8470013,122.55338
1.8210018,125.06854
1.8769804,127.15767
1.9476088,129.85101
1.9776835,134.60835
1.9297184,135.82649
2.026161,137.66953
1.9408691,139.78943
2.0302823,139.0948
1.9821258,138.80043
1.9413269,141.52826
1.8705269,141.87833
1.7971699,138.74469
1.8251941,136.34131
1.8545969,136.26434
1.7712774,137.26219
1.772767,134.70918
1.7674361,135.10483
1.6478947,129.44896
1.6876924,126.651695
1.5138224,123.45469
1.6811367,122.752075
1.5964385,122.51668
1.5549951,118.17506
1.4988637,114.40831
1.5063084,112.58288
1.4266661,106.27263
1.4986215,104.820595
1.5590662,104.191795
1.478665,101.5176
1.4074934,94.17516
1.3631524,92.69358
1.4182811,96.40078
1.3872198,90.70754
1.2802334,84.151306
1.2743943,85.65332
1.2366847,81.98305
1.1822323,79.13687
1.1482431,77.18166
1.1159366,73.11848
1.0628599,69.27933
1.0603874,66.74027
0.9452357,62.474342
0.9732599,62.120804
0.9108429,56.402287
0.9136807,57.52466
0.88951415,50.550873
0.92290324,52.61658
0.88700616,43.080536
0.8385496,42.418633
0.8061879,43.131805
0.85485446,40.0
0.845309,41.505756
0.9446837,40.0
0.9181537,40.0
0.79314125,40.0
0.8731053,40.0
0.80164057,40.0
0.6522295,40.0
0.65824604,40.0
0.5959779,40.0
0.5707078,40.0
0.66094834,40.0
0.56574225,40.0
0.47281384,40.0
0.5985285,40.0
0.55771667,45.19693
0.58065313,45.93724
0.63378215,51.0989
0.69711757,57.044262
0.791201,57.81589
0.8978842,61.59108
0.95839345,70.75161
1.1346915,73.784096
1.1278844,80.99304
1.3351629,81.804535
1.4544231,86.631004
1.5996649,94.18422
1.559473,101.10264
1.58703,102.83016
1.7178475,109.84882
1.7594761,111.87764
1.8059106,115.623146
1.81373,120.75189
1.8643563,127.12296
1.8456067,130.71707
1.9349916,132.08534
1.872102,132.99768
1.9281863,135.48259
1.8997743,135.79793
1.9120101,139.91438
1.8852804,141.55261
1.905316,142.70511
1.8634601,141.35965
1.8199694,143.5984
1.8098593,140.7095
1.7809079,139.41014
1.6781503,135.78804
1.763177,137.3717
1.7092955,133.72588
1.6713879,129.96397
1.5860075,128.66693
1.5258156,127.33323
1.4931543,128.02917
1.5163219,124.659485
1.5050471,121.411476
1.5202252,117.30978
1.3826759,113.23598
1.4046705,109.35687
1.4043446,104.24486
1.3431301,103.830185
1.3435513,99.541725
1.3924304,98.60778
1.3297796,95.44586
1.2986038,91.18732
1.2886317,89.175095
1.238401,86.77947
1.2230772,85.966774
1.2167796,82.47634
1.2226294,78.25569
1.0994182,74.70292
1.0218154,73.54303
0.9740881,73.16974
0.93798023,69.67112
0.98553085,63.309532
0.90628946,62.316227
0.88916194,61.483418
0.7930025,58.498722
0.7619497,54.07404
0.7686308,51.782547
0.7995199,45.949165
0.75743645,45.294308
0.7087623,41.099987
0.7038505,40.02392
0.74761015,40.0
0.7353054,40.0
0.76377404,40.0
0.62672627,40.0
0.61171585,40.0
0.63169307,40.0
0.5904167,40.0
0.44738528,40.0
0.49511802,40.0
0.34436792,40.0
0.35256347,40.0
0.3542954,40.0
0.38506258,40.0
0.25100076,42.229424
0.35763013,43.770184
0.3212256,44.990112
0.3732318,50.36422
0.44295195,53.605026
0.5521764,58.76765
0.58919805,62.184826
0.7089254,65.79578
0.7837809,74.45978
0.8745585,73.184074
1.0691051,79.38559
1.1209805,82.18362
1.2417716,95.42883
1.2472234,99.35086
1.3702633,102.23568
1.4861014,107.686806
1.4918296,111.41887
1.4855722,112.225586
1.6266441,120.11115
1.6626406,123.26232
1.6513785,128.42062
1.7430366,130.0398
1.6264424,132.96965
1.595201,133.62361
1.5920078,136.91876
1.6050388,141.012
1.6064866,136.74417
1.575421,141.63869
1.5063759,139.09105
1.5950375,140.99205
1.4182203,137.22643
1.4939497,136.91797
1.4966679,138.85095
1.4273515,133.63455
1.431816,135.42
1.359159,133.09926
1.2118802,130.7626
1.2658828,129.23364
1.2393745,122.90965
1.1315126,123.268295
1.1845404,122.089355
1.2767959,117.50719
1.1397417,114.605225
1.1641356,112.2555
1.0860664,105.83494
1.0346445,109.07933
1.1222873,103.36737
1.0780908,100.1194
1.1876122,96.30371
1.0361317,93.60363
0.914272,90.11492
0.90720195,90.245056
0.91982913,86.053154
0.8294812,84.849304
0.7549507,77.76274
0.82140386,76.524445
0.691212,75.6662
0.68684506,71.74162
0.6584523,67.63639
0.64191043,66.76371
0.6137697,67.60852
0.50211966,58.551785
0.5150638,57.114365
0.44311434,53.54258
0.4208426,53.595783
0.48422512,48.677643
0.40854827,45.40628
0.42165765,40.636906
0.4729359,40.0
0.43902346,40.0
0.41322976,40.0
0.3902047,40.0
0.30363294,40.0
0.401026,40.0
0.24594212,40.0
0.28008926,40.0
0.21989785,40.0
0.20452139,40.0
0.19327204,40.0
0.114309914,40.0
0.051179614,40.0
0.049750444,40.0
0.054407556,40.0
0.0016804382,43.97243
0.08346243,46.6894
0.045625694,48.68796
0.12777613,52.49335
0.11025153,56.877136
0.24312748,60.83472
0.3331261,64.56376
0.37286526,70.81371
0.5316445,75.89623
0.66030097,78.8525
0.7640196,86.36723
0.89123684,91.25077
1.0169429,95.43778
0.9923128,101.4329
1.0895404,103.875755
1.087036,108.4086
1.2899306,113.51833
1.3034717,119.032326
1.2963872,121.00915
1.3306016,130.11783
1.4006323,129.62036
1.3810508,131.37401
1.3888112,135.42612
1.3164929,140.63785
1.4063128,139.15648
1.4051611,138.684
1.3739856,140.07451
1.3734039,140.19437
1.428796,142.21332
1.357376,137.64713
1.3532797,139.18283
1.2539017,137.5823
1.3197538,137.09573
1.223077,134.00223
1.2178533,131.91724
1.1413375,128.86327
1.0912956,131.00687
1.0542269,127.85474
1.0874465,125.03511
0.983237,120.718636
1.0050191,118.715454
0.92564625,114.288185
0.9369461,112.368965
0.91138697,113.55915
0.9979815,107.39324
0.95271397,101.755
0.9059868,100.634056
0.8831457,101.475845
0.7897057,96.28965
0.81827676,93.529884
0.7383456,88.210434
0.7295104,87.46092
0.71744084,83.07494
0.7019588,81.27135
0.70351535,80.13707
0.5942658,77.64809
0.45655528,72.42061
0.48009378,67.994026
0.39831457,66.74587
0.39833984,63.31371
0.37615898,58.69293
0.4311053,59.380398
0.32025027,54.69126
0.3546127,51.056892
0.3688063,50.373028
0.3678096,48.97323
0.22844596,47.30502
0.33243847,44.546417
0.3454892,40.0
0.35621482,40.0
0.2597568,40.95378
0.26387244,40.0
0.2948595,40.0
0.24195257,40.0
0.22293954,40.0
0.1904713,40.0
0.045362987,40.0
0.02180525,40.0
-0.032416645,40.0
-0.00042583045,40.0
-0.10167663,40.0
-0.044562116,40.0
0.0018130856,41.228424
-0.009140487,45.289642
0.08476779,46.57675
0.08104773,50.615463
0.089555144,53.780243
0.2836384,56.937286
0.31967372,64.22334
0.34513226,67.023224
0.48821476,75.60572
0.7293232,81.80716
0.7532584,86.288414
0.76373184,85.70719
0.80114454,93.227234
0.95612377,98.87723
1.0290792,102.34268
1.139819,108.22937
1.1965306,113.04424
1.283537,118.35696
1.286534,119.37581
1.3960667,128.26912
1.3824493,124.569374
1.3027843,130.38605
1.4264565,135.16933
1.3929263,136.33398
1.3916166,139.19125
1.3689655,137.39499
1.3260812,138.1021
1.3997221,140.70107
1.4255583,138.66675
1.3775936,138.3439
1.2712904,140.4749
1.3480994,136.84767
1.293842,138.56369
1.3162516,135.04521
1.1860315,137.58292
1.2332649,132.45741
1.1442378,128.18748
1.1739155,127.63223
1.1458275,126.54956
1.0575795,119.43678
1.0501463,121.26813
1.0887668,116.817474
1.109406,117.43287
1.031594,113.27481
1.1014494,105.745735
0.9121551,108.931114
0.92298037,103.35865
1.0118604,100.0958
0.97053,94.54796
0.9932148,92.88452
0.92026037,92.10392
0.92789924,88.439926
0.7985237,82.82323
0.7711944,84.15973
0.78290707,80.00427
0.7319983,75.10151
0.7147245,74.622154
0.5189698,71.08819
0.60338587,71.26857
0.64648217,68.53528
0.5651443,60.615505
0.4542007,61.929176
0.46480206,55.94603
0.49632534,54.480545
0.50169164,55.168827
0.43370172,47.615574
0.5005074,44.674736
0.47492394,43.871326
0.49285638,40.0
0.4936694,40.720757
0.4041397,40.0
0.47310373,40.0
0.5390011,40.0
0.48226944,40.0
0.37428045,40.0
0.34827366,40.0
0.3423483,40.0
0.33176476,40.0
0.21944164,40.0
0.14930162,40.0
0.25358918,40.0
0.08394341,40.0
0.10675144,40.0
0.046120152,43.2425
0.28628144,46.660645
0.33451775,51.349438
0.37501216,56.19834
0.43713772,58.804066
0.47642785,61.82386
0.52430654,67.92963
0.7187128,69.06694
0.8109825,76.09753
0.8846693,79.316025
1.0446925,87.718094
1.1191974,86.465775
1.2523087,93.12594
1.2852894,102.546295
1.3812054,108.358826
1.4848346,112.84642
1.4271177,115.30827
1.539175,117.731895
1.578707,118.23672
1.6416789,127.518105
1.5880497,129.32462
1.6441047,135.05074
1.6262255,136.59372
1.6789709,135.85846
1.7034168,138.61285
1.646059,138.61073
1.7056599,139.02335
1.6626656,140.95506
1.7269834,139.73187
1.7101146,137.61664
1.6754344,140.10342
1.5260668,137.39418
1.6787508,137.4821
1.4773319,135.53725
1.5064577,132.77345
1.4783881,132.0326
1.4719201,127.933655
1.4660851,126.19424
1.357409,124.66094
1.3334553,120.26434
1.2782512,119.30257
1.3126326,115.19655
1.2835642,114.899445
1.2654002,114.52266
1.3255522,106.15167
1.261966,100.71163
1.3104084,99.38437
1.1927706,99.065094
1.2175165,95.66599
1.2830329,91.7356
1.2475495,87.3246
1.2651727,87.29018
1.1486288,82.095894
1.0261925,81.01864
1.0413252,77.28515
0.9377499,77.37224
0.9828673,71.7178
0.92343116,73.45256
0.89728296,64.00121
0.8418365,64.932945
0.8070928,60.859573
0.8155413,60.129837
0.7523924,57.131523
0.74161005,54.247314
0.7920947,46.770756
0.72877455,46.31343
0.76630527,48.234688
0.7086704,42.447353
0.7583042,40.0
0.8003453,41.14174
0.72238475,40.0
0.8018998,40.0
0.71200025,40.0
0.64321965,40.0
0.70236754,40.0
0.55193037,40.0
0.62239486,40.0
0.5449975,40.0
0.46276113,40.0
0.47257623,40.0
0.42756015,40.0
0.49640524,40.0
0.3791036,42.59341
0.45137885,45.15034
0.5424209,47.791008
0.6734242,50.876526
0.66841865,51.68537
0.73180217,55.55341
0.8202604,66.47138
1.012485,69.68379
1.032909,73.70453
1.0956516,81.41128
1.2002089,81.35602
1.3222088,90.62814
1.5139778,91.840805
1.5123059,99.02316
1.4989791,103.017845
1.7174566,110.62985
1.7443415,112.52085
1.8066584,121.30775
1.8345503,120.06631
1.8812408,122.85237
1.9709831,127.50529
1.921421,131.69754
1.9631952,131.37192
1.9179299,136.4962
1.983074,139.30724
1.9706643,139.24944
1.9396352,140.18262
1.9572207,141.17278
1.8340054,138.64345
1.8145297,138.4702
1.8201159,141.0653
1.8652238,139.72545
1.8579303,136.39401
1.7646891,133.8276
1.6959131,133.3216
1.6792085,133.81808
1.6439679,125.485146
1.6758019,126.931786
1.555724,126.928635
1.6644558,121.32519
1.6081333,116.95233
1.5023905,118.95287
1.5642881,114.17937
1.5103614,109.4974
1.5860627,107.59544
1.5187559,106.10527
1.4273247,106.05638
1.408348,95.64528
1.4667562,97.00013
1.4402637,91.14865
1.3655374,91.05881
1.4590846,89.878105
1.1893036,84.85789
1.295357,83.31797
1.2389821,78.50316
1.2645296,75.887314
1.2103227,73.13678
1.1354669,69.275955
1.0969155,66.25945
1.0439023,65.94294
1.009222,61.4755
0.90814793,61.51481
0.9597291,57.680477
0.9688231,52.560654
0.8891908,51.908165
0.91090566,49.742214
0.85959506,47.055023
0.9509337,42.14909
0.9166672,40.0
0.9041075,40.0
0.9060022,40.0
0.8630689,40.0
0.79535365,40.0
0.8533265,40.0
0.76086825,40.0
0.75510436,40.0
0.72567225,40.0
0.64595765,40.0
0.6077178,40.0
0.52371997,40.0
0.57666695,40.0
0.5436254,40.0
0.5215468,40.0
0.5429027,45.26759
0.54096305,44.528553
0.6891608,44.60745
0.7086481,53.264782
0.78770846,58.722893
0.80685866,64.603195
0.9329155,69.90367
1.0759617,71.01392
1.1870763,75.97468
1.2417637,82.83965
1.4512438,88.122
1.4270004,90.96051
1.5055497,98.40991
1.573744,101.18024
1.6894839,109.37345
1.7469857,111.58786
1.7819628,116.6955
1.754488,119.306145
1.7814281,122.91967
1.8862407,125.64042
1.7891374,132.38568
1.9131927,130.31834
1.833947,135.41519
1.909706,137.1104
1.9144738,135.79489
1.9186367,138.75041
1.9051876,140.66856
1.8701879,141.3029
1.8810328,140.07399
1.8616121,137.6234
1.8231468,140.20395
1.8702233,140.83682
1.6670512,135.85332
1.6908793,134.75179
1.6860319,131.57368
1.5783526,130.8856
1.4920534,127.80624
1.5049281,125.15212
1.6618193,123.37155
1.5162928,121.96983
1.4788487,114.62361
1.4704437,117.80335
1.4547997,111.7629
1.418934,105.50942
1.3977356,105.59254
1.4427804,104.636185
1.3756585,105.00599
1.4538397,94.40025
1.4687895,91.11068
1.2436556,92.35058
1.3391513,88.39199
1.2176536,83.24004
1.2007842,85.08437
1.1450737,79.52928
1.0983113,77.33719
0.9953354,72.986145
0.9913449,70.89595
0.92135173,70.45952
0.9693491,70.42128
0.88959163,60.830624
0.95796216,62.85982
0.78164726,54.332676
0.83841205,55.80145
0.7552256,52.022694
0.6987166,51.01023
0.8034178,46.038628
0.76704925,45.63904
0.8162975,42.443516
0.7292649,40.0
0.8142958,40.0
0.7737704,40.0
0.7682139,40.0
0.654571,40.0
0.64505774,40.0
0.55232733,40.0
0.59130216,40.0
0.5576668,40.0
0.4626009,40.0
0.43904302,40.0
0.36204118,40.0
0.35919884,40.0
0.34812048,40.0
0.26872948,41.22346
0.37922192,45.047615
0.40304506,45.90953
0.4581708,53.67159
0.5564084,56.82357
0.603499,57.81563
0.7192461,66.306526
0.7233214,68.71172
0.8264837,70.3143
0.9705249,80.07485
1.0813131,86.99044
1.1842561,90.51144
1.3400757,91.94089
1.2983817,100.089806
1.3848716,106.3159
1.5117941,107.17698
1.5202085,113.50866
1.5784051,119.853546
1.610407,121.18566
1.5227249,129.09122
1.5892149,131.16383
1.6942928,133.55026
1.6647046,133.00613
1.6955565,134.94298
1.5508745,139.62018
1.7052393,135.27351
1.6298664,138.34604
1.6573777,141.72507
1.6436191,143.24188
1.5860046,137.02441
1.4943104,136.73288
1.4511237,141.71927
1.5211561,135.43178
1.4305342,137.50806
1.4373517,130.69174
1.3212218,130.37482
1.2432687,132.0735
1.3105222,125.8377
1.275766,121.82204
1.2936268,119.64909
1.2762959,116.04737
1.1601629,114.44593
1.1811484,114.10093
1.1913416,110.482414
1.1920083,108.294266
1.1067877,100.020256
1.0569565,104.39304
1.1193762,100.454155
0.98753965,95.29555
1.0102915,95.148705
1.0447307,86.32657
1.005296,84.256256
0.93051124,82.738075
0.8539336,82.62344
0.8132279,78.66019
0.84533906,76.73728
0.73591447,72.725624
0.6534194,68.73634
0.5745789,67.836105
0.61722636,70.19732
0.53281933,65.49141
0.5470701,59.04393
0.4681644,59.8003
0.4527774,54.785103
0.45812598,51.627815
0.5490718,45.51753
0.50721604,40.545803
0.42604265,44.687126
0.4535281,40.0
0.43702248,40.0
0.37973768,40.0
0.41796353,40.0
0.3331013,40.0
0.36936307,40.0
0.31100118,40.0
0.24248183,40.0
0.19975144,40.0
0.21778113,40.0
0.25299305,40.0
0.06783228,40.0
0.041095804,40.0
-0.030177273,40.0
0.10099029,40.0
0.03736566,45.00965
0.1424679,46.39831
0.12547664,48.273506
0.2628373,51.807777
0.30529118,58.299824
0.4126437,62.27743
0.37329406,64.57616
0.5084842,69.39708
0.61786854,76.2408
0.77306867,81.71778
0.86158466,87.477905
0.9482685,92.51383
1.0154808,97.15325
1.1183155,105.65962
1.2167877,107.439995
1.1739345,112.95583
1.3108419,116.90297
1.3259614,119.94132
1.3130451,124.872795
1.4429889,129.21713
1.3469223,131.66864
1.4140995,138.0247
1.3977745,135.51686
1.3948481,136.88683
1.5195634,134.86572
1.3879054,139.91309
1.3546317,141.60657
1.4236379,140.47209
1.2133336,142.3985
1.2810808,141.32468
1.2987758,141.20903
1.3366576,135.91345
1.2443932,134.60925
1.0983601,133.70354
1.118658,129.26294
1.1273756,128.98984
1.086766,128.77278
1.032519,123.07785
1.016024,120.4134
0.9568475,118.2014
1.0067127,117.73016
0.9843245,112.09701
0.9149887,115.95647
0.89574385,110.37394
0.88200366,104.87762
0.8685227,103.808365
0.88664895,101.87899
0.8708441,94.33369
0.8920005,93.61441
0.7811578,93.06657
0.6953961,90.944565
0.77679914,85.01415
0.7914334,83.78146
0.68233496,79.47888
0.6197402,76.88787
0.511108,77.798294
0.5362611,72.82217
0.42613152,69.20176
0.42422363,62.812134
0.44330204,64.6874
0.37288913,58.805416
0.3722189,59.51603
0.3473286,55.70945
0.37503996,49.38892
0.31198376,51.445316
0.33243638,45.44227
0.39062983,47.77506
0.34329355,40.993713
0.301902,42.65742
0.41748372,40.0
0.27706626,40.0
0.28724152,40.0
0.1274178,40.0
0.19153425,40.0
0.20076436,40.0
0.15102859,40.0
0.03742341,40.0
0.04723875,40.0
0.03371684,40.0
-0.010127417,40.0
0.020609787,40.0
-0.037961774,40.28219
-0.081951685,41.957626
-0.008038092,41.851242
0.08971755,45.15946
0.07490145,54.52504
0.08893416,54.16703
0.2518956,59.40822
0.33756232,68.06198
0.3547461,74.664055
0.47776294,73.056404
0.6446381,80.55448
0.7372461,88.07264
0.8574783,91.24044
0.9135972,96.94607
1.1072583,96.39442
1.1178051,109.1759
1.1494673,109.72551
1.1327709,112.30931
1.2879283,117.92584
1.28118,124.55339
1.3625116,124.06489
1.349942,129.88689
1.3977633,132.56836
1.357593,138.04716
1.4269562,137.10255
1.4344729,137.42433
1.4349484,137.4366
1.4175507,138.93254
1.3171076,141.45952
1.3597103,141.52486
1.422363,138.96756
1.2352625,137.81169
1.312552,136.08575
1.275351,137.0556
1.2651851,131.66963
1.177862,133.67639
1.1563474,133.39647
1.1418213,131.44049
1.1445959,130.24524
1.0396861,127.05061
1.062964,123.46543
1.0698017,115.03674
0.9503498,116.75198
0.9530118,114.707954
0.93098384,108.06489
0.98854476,106.28211
1.0314963,103.19347
0.919286,102.06451
0.95166653,100.74411
0.93810755,93.55764
0.91835827,92.06082
0.90825313,91.00141
0.8549211,84.77671
0.8069153,83.86634
0.84482574,78.19216
0.68729097,81.51644
0.6849942,78.758835
0.66948193,70.394295
0.6569101,69.47484
0.6146971,67.247185
0.5164845,62.6285
0.48301402,62.671524
0.49286118,58.561993
0.4227114,58.96789
0.47223997,53.680637
0.49247777,52.446114
0.49077767,47.13779
0.5043612,46.974895
0.47502655,43.43902
0.4918947,40.0
0.53323096,40.0
0.43063977,40.0
0.40144277,40.0
0.39469653,40.0
0.37323338,40.0
0.40911242,40.0
0.2582907,40.0
0.26790246,40.0
0.25085503,40.0
0.20671117,40.0
0.19394304,40.0
0.14563324,40.0
0.19156693,40.92721
0.18984088,40.186466
0.21630083,40.764614
0.15126126,44.37991
0.2858215,50.872395
0.411292,53.167465
0.47361708,57.5835
0.5456647,64.87908
0.5752526,69.16032
0.69163734,72.31616
0.81580496,79.14496
0.9522063,84.670105
1.0421572,87.54409
1.0657506,92.28235
1.1757525,97.118454
1.2899489,102.872955
1.3991586,110.11105
1.4070342,115.61844
1.5283585,118.2695
1.5623349,123.60948
1.5427686,127.28569
1.5604533,125.11151
1.6191785,131.991
1.6933821,133.4229
1.656185,137.10548
1.6242137,136.35278
1.7157604,141.0726
1.7131116,137.80884
1.6601703,139.57861
1.5755172,141.17517
1.7049127,137.13063
1.5846025,138.15457
1.582203,137.65854
1.4898157,137.36716
1.6361337,134.06216
1.4646275,134.15659
1.4381803,132.42319
1.4706752,127.15759
1.4951262,126.763466
1.3728944,125.716965
1.3045709,122.71811
1.3732413,119.42572
1.3075113,117.76658
1.3291762,112.929
1.2415885,109.9408
1.2762661,102.694824
1.3143482,105.65064
1.3654275,102.84152
1.2173845,100.53345
1.230437,93.45989
1.2302463,95.659584
1.2309129,89.16566
1.1617175,87.75905
1.1333923,87.44602
1.118024,83.59818
0.99968565,81.70875
1.0081319,75.791756
0.9528308,75.06234
1.0265974,73.88556
0.9131705,65.57695
0.8785672,68.015816
0.86483216,64.63414
0.71475464,60.85322
0.85021085,60.098904
0.7419996,54.640823
0.74145013,49.616264
0.75411004,48.297626
0.7904836,42.790005
0.76333994,43.973797
0.83214134,40.9624
0.6577416,40.0
0.7303575,40.0
0.74777085,40.0
0.81463504,40.0
0.599227,40.0
0.6780737,40.0
0.6153877,40.0
0.69063693,40.0
0.51551074,40.0
0.5139945,40.0
0.46477377,40.0
0.38666382,40.0
0.42974088,40.0
0.4121309,40.669044
0.5145845,41.018982
0.577823,47.209297
0.52794003,47.660843
0.6214723,49.68056
0.6589587,54.484264
0.78931683,61.62066
0.9081056,60.783188
0.937452,68.85591
1.0094384,76.63051
1.166072,81.912346
1.3096364,83.77966
1.3612778,90.48406
1.4402207,98.739136
1.5211431,102.60681
1.6176982,106.770096
1.692675,113.13403
1.7961385,116.60402
1.7548791,120.38978
1.8429208,124.44959
1.8035105,126.68776
1.810048,128.68066
1.9300398,129.96939
1.9480029,135.43512
2.0032299,137.57138
1.9366889,139.24823
1.9023468,139.78442
1.9375156,139.92397
1.936561,140.28142
1.8989391,140.21886
1.846706,140.1879
1.8107477,137.1286
1.8702893,138.22263
1.7635015,135.58427
1.7129577,136.96764
1.647811,134.85373
1.6954798,130.05397
1.7480462,127.88757
1.5885042,128.98482
1.6465653,124.34058
1.6058671,119.165436
1.4941996,120.03904
1.51467,114.33001
1.4605067,111.1419
1.4688265,108.04607
1.4822956,105.91748
1.4634056,102.86134
1.4692874,99.66912
1.4904209,96.35082
1.4118221,97.568695
1.4328502,92.372086
1.4567747,89.99848
1.320735,83.39644
1.3596772,85.38771
1.1865646,80.15193
1.3318453,76.6332
1.1568034,72.50434
1.1499043,69.42582
1.1304814,71.42361
0.99510396,68.58962
1.0253006,64.765495
0.9376618,60.11983
1.0997512,57.875385
0.9235228,56.561157
0.9440293,52.59276
0.87461185,45.54739
0.86441725,44.650085
0.9885361,45.62529
0.90956074,44.071465
1.0056199,41.64656
0.9055046,40.0
0.9722439,40.0
0.8044094,40.0
0.8879374,40.0
0.86143935,40.0
0.741847,40.0
0.7112982,40.0
0.5774072,40.0
0.6330467,40.0
0.64768386,40.0
0.5408691,40.0
0.57053596,40.0
0.5587584,40.0
0.5841778,42.678173
0.5282739,42.35203
0.60228264,48.16273
0.7213294,49.781097
0.74792916,54.334873
0.77649784,60.58273
0.8483116,64.050415
1.0347044,65.768715
1.0604279,73.12417
1.2617418,78.46928
1.3956426,85.66787
1.3666576,89.62429
1.4481393,94.48222
1.5400794,96.49584
1.593818,99.48254
1.5999786,112.23766
1.8117484,115.97666
1.8391662,120.91634
1.8005931,122.303375
1.8879907,124.28323
1.9085474,131.9494
1.9851537,133.41869
1.916609,135.57257
1.9818457,135.63405
2.011778,138.8322
1.9701331,140.57619
1.9404856,138.59236
1.888243,144.77692
1.9604648,141.02791
1.8669019,135.91263
1.8892188,140.66838
1.8110757,138.57039
1.7225902,133.45204
1.6687008,137.26527
1.7080003,133.08858
1.6906571,133.20862
1.6222376,128.21617
1.6016922,124.49788
1.5051813,124.42711
1.5248928,122.657745
1.495905,115.23422
1.5280062,117.52455
1.5137944,112.33847
1.4753287,112.90699
1.4543757,108.367516
1.4107282,104.282936
1.4820374,103.29703
1.4171698,101.48201
1.4035156,98.87941
1.3539168,96.11215
1.3571,89.685814
1.2949349,89.37702
1.3149838,84.34494
1.1753935,77.72483
1.1611114,77.199974
1.1076266,76.29428
1.0089014,74.589226
1.0213689,66.08552
0.9609661,68.81071
0.85965234,63.80961
0.88956666,64.48161
0.8253281,62.633812
0.8010362,55.35075
0.89811456,55.32293
0.7484393,51.582745
0.82378244,45.908894
0.73386365,46.10725
0.7197057,44.756237
0.7526739,43.695267
0.75038403,40.12834
0.7382543,40.0
0.6940101,40.0
0.6884239,40.0
0.7471527,40.0
0.5937934,40.0
0.5925175,40.0
0.53902996,40.0
0.51970094,40.0
0.45151892,40.0
0.31487334,40.0
0.37599927,40.0
0.30808848,40.0
0.33992708,42.63994
0.3987665,40.030075
0.39191204,45.999718
0.40273872,48.710808
0.47639608,54.282578
0.5521938,56.248676
0.66691333,60.24897
0.7943968,67.30856
0.8840478,74.64269
0.87358093,75.451485
0.9761989,81.30804
1.2051895,86.076706
1.2848269,92.68671
1.3022388,98.47357
1.3987055,103.9648
1.4509073,108.43077
1.4642588,111.21621
1.6793525,116.36121
1.6086022,119.94333
1.6374567,124.4499
1.6710222,126.75921
1.655518,131.0679
1.6280445,132.76347
1.7983438,135.95486
1.7009314,139.67667
1.7482238,140.89693
1.6522322,142.21893
1.6787423,143.81007
1.6587989,139.29124
1.6831851,140.88977
1.6161345,140.57518
1.5563219,141.53552
1.4845219,136.23557
1.4416467,139.29343
1.391039,135.72876
1.4768755,134.33044
1.3604354,130.49576
1.2705301,127.07089
1.2932099,124.195015
1.289182,121.32313
1.2487814,117.651405
1.2232476,118.06603
1.1996367,112.225845
1.1467463,111.01043
1.1740283,110.11771
1.1607264,106.86007
1.0324533,101.37298
1.165184,99.35697
1.1548884,96.898476
1.1648865,93.80276
1.0635871,92.075325
1.1028852,88.65355
0.99584204,85.396965
0.93441045,84.65039
0.9783306,84.5504
0.76515955,79.38922
0.74635434,76.319756
0.67112494,70.988884
0.6242854,69.03723
0.61892855,67.12571
0.65194815,60.995853
0.632224,59.938675
0.5423876,59.092453
0.4763062,52.751553
0.46866372,53.092823
0.56847227,49.60981
0.46055025,45.481678
0.48698,42.763145
0.4482761,43.037933
0.46780044,40.0
0.49560577,40.0
0.45126304,40.0
0.37523508,40.0
0.46219152,40.0
0.3956577,40.0
0.34055123,40.0
0.22992504,40.0
0.23764315,40.0
0.14008334,40.0
0.18397933,40.0
0.10872237,40.0
0.032394692,40.0
0.06087127,40.0
0.12230888,42.003914
0.100512266,45.187496
0.08376539,47.982185
0.14641827,52.55013
0.2781113,52.13142
0.33855662,60.84948
0.39139092,60.623657
0.45959875,70.15836
0.6185108,76.2488
0.726078,77.92417
0.77778965,85.49801
0.88644403,88.924484
0.948237,95.81783
1.026742,100.97699
1.1702105,106.65169
1.151504,108.29287
1.314349,112.72666
1.3342593,118.26
1.3393644,123.34405
1.3759922,127.54504
1.47929,128.92126
1.4354087,134.51524
1.4158387,133.65408
1.4585686,133.34357
1.3505816,138.35677
1.3859016,140.63492
1.471546,141.38356
1.3526093,141.86937
1.3897007,139.09918
1.4058832,140.01437
1.2601483,139.54613
1.3718206,138.69992
1.2695777,139.41263
1.1928676,135.26434
1.2122047,135.0982
1.1051037,130.35461
1.082656,128.73984
1.0759305,124.309235
1.0404477,122.24123
1.0216316,122.29421
1.0133847,119.93473
0.96479875,112.80833
1.0079095,113.17542
1.0063262,107.87607
1.0190843,106.56012
0.87511486,106.21717
0.8834284,99.585075
0.8555555,98.398865
0.80094427,95.268845
0.8230221,95.79069
0.8066865,88.07549
0.7050526,86.79817
0.8005464,87.25508
0.58894354,82.96351
0.6424252,79.358406
0.6140909,77.18466
0.53933454,73.44165
0.4679263,72.45572
0.5256334,67.71261
0.43463063,66.12652
0.35650432,59.53779
0.38455978,55.886173
0.40543127,56.40749
0.2616997,53.271004
0.3285591,53.10277
0.36748123,49.79634
0.38239557,47.466206
0.3903018,45.366768
0.28258204,42.791973
0.31109336,40.0
0.33346155,40.0
0.22447263,40.0
0.25052127,40.0
0.16313481,40.0
0.20638004,40.0
0.12383909,40.0
0.11430602,40.0
0.01808713,40.0
-0.066636786,40.0
-0.020176943,40.0
-0.048144232,40.0
-0.13865016,40.0
0.010428508,40.0
0.04246952,43.27042
-0.07550001,48.243607
0.08351803,49.40083
0.17105187,55.84346
0.22674336,61.017784
0.2926207,60.950497
0.39678848,65.31617
0.49445242,73.31635
0.6134499,75.1575
0.6235055,81.01782
0.71841043,90.89341
0.8852705,94.786026
0.92600954,96.589584
1.0061947,103.45281
1.1444062,110.45849
1.2192062,111.03942
1.256116,116.43496
1.2892666,121.17503
1.2036526,123.095375
1.2983309,128.62694
1.4320592,131.90935
1.3086653,133.63138
1.3893234,132.43834
1.4181834,137.45232
1.3939675,141.0098
1.3417065,136.68393
1.3486825,140.04639
1.4163225,143.8418
1.4160341,140.10455
1.3168156,140.75142
1.291165,139.47885
1.1823609,136.92264
1.2870263,136.23929
1.2188823,136.0782
1.158102,136.14388
1.1396755,129.33546
0.96812975,125.55306
1.0451835,122.96598
1.0989487,124.721375
1.0145901,119.90461
1.0088753,119.30011
1.0503215,113.940384
1.0627222,110.21207
0.92607206,105.679596
0.9826623,106.547615
0.93230355,99.08572
1.0131862,101.335915
0.9386742,98.509636
0.9450626,94.08686
1.0132937,87.06139
0.7949395,87.13096
0.744373,83.648254
0.7324602,82.50187
0.72695714,80.11224
0.6698376,80.40809
0.7363816,74.86169
0.6069284,69.99754
0.6103324,64.50531
0.5764381,65.362144
0.5968541,59.744446
0.54762524,62.92164
0.43497804,54.62205
0.46752524,56.860485
0.45783895,50.04359
0.41882977,46.942787
0.39534497,45.62892
0.42514724,44.477108
0.43694827,40.0
0.43773597,40.0
0.39345333,40.0
0.49012396,40.0
0.49096727,40.0
0.39924276,40.0
0.30835673,40.0
0.27347898,40.0
0.26564828,40.0
0.16738832,40.0
0.14646162,40.0
0.120783545,40.0
0.14444071,40.0
0.037438236,40.0
0.07916317,40.0
0.1508779,40.862972
0.1727037,43.707684
0.26745734,48.638103
0.3513091,52.97104
0.3696696,55.633617
0.38403687,63.727192
0.5491267,65.5652
0.6509077,68.48619
0.77138954,72.28486
0.8597105,81.43304
1.02613,82.12543
0.985212,91.07199
1.212148,96.60185
1.3031408,101.59603
1.4370391,107.17895
1.4422565,109.38018
1.4437354,116.84225
1.5142685,118.25186
1.4735519,126.67059
1.4928793,127.082535
1.6587379,131.05942
1.628806,130.85475
1.6491607,135.06206
1.5860937,135.96379
1.6971776,140.87355
1.6256727,139.7605
1.6547455,141.04501
1.6328418,141.50522
1.5573902,139.91054
1.5609869,139.80894
1.6761123,140.13002
1.443202,138.31532
1.4664087,133.6178
1.397159,137.27223
1.4524108,135.87906
1.3984963,132.402
1.3376011,128.00175
1.3839746,126.48295
1.3318083,123.79573
1.3964419,120.4115
1.2164493,118.321884
1.2323873,116.06766
1.2235798,109.18689
1.216122,107.93732
1.2930396,103.09468
1.3517789,104.28184
1.2948141,100.02395
1.251042,99.3028
1.2283552,96.43229
1.1736372,90.73334
1.1789154,91.022285
1.1047992,88.19357
1.1530491,83.26593
1.0865271,80.89919
0.97718096,76.138306
0.88757247,75.76252
0.94762295,73.42766
0.8516395,68.975044
0.7909233,68.851456
0.78745127,66.7711
0.8564834,62.072723
0.8246712,58.476116
0.8153184,56.979877
0.7867095,55.512154
0.68410885,48.42827
0.7544756,49.469643
0.6902731,44.06402
0.7820414,42.674095
0.78529495,43.143284
0.7493497,40.0
0.6919862,40.0
0.7291212,40.0
0.57621974,40.0
0.6937477,40.0
0.5786906,40.0
0.5966131,40.0
0.56446266,40.0
0.4897735,40.0
0.38858575,40.0
0.42966396,40.0
0.48363692,40.0
0.38482273,40.0
0.42350227,40.882008
0.42609605,44.55698
0.55496055,47.91455
0.6130307,50.108517
0.6508188,53.24659
0.6815188,61.810207
0.8250494,62.543438
0.9237188,68.0877
0.99336255,70.9014
1.0899042,79.019646
1.1344453,82.605545
1.2808721,89.220406
1.3959191,92.40606
1.4587113,100.33845
1.6402119,102.51125
1.6382573,104.99385
1.7237012,112.67402
1.7842577,119.34842
1.7839572,118.4356
1.9059589,129.40675
1.7604922,128.71587
1.898515,130.66756
1.931158,136.96219
1.8951179,136.10951
1.8442231,138.71573
1.9472971,139.00961
1.9829748,138.24739
1.9181026,136.83
1.8593515,142.51994
1.905017,142.68
1.9108143,139.20824
1.7823808,137.46126
1.6886396,135.76324
1.7380563,135.72923
1.7565565,132.49498
1.6384321,130.97914
1.6931409,127.35154
1.5281737,126.41852
1.5298221,124.22589
1.5749621,119.98971
1.5372143,118.07331
1.5531896,118.164986
1.5283929,116.991516
1.3672829,110.08731
1.5196522,108.95283
1.5123227,105.23178
1.4457831,99.20334
1.4596843,100.782486
1.4893963,95.272446
1.4236866,93.207405
1.4057602,87.22927
1.4256088,90.36528
1.3373467,83.66192
1.2765386,82.17295
1.2051661,78.94189
1.2257503,77.99485
1.1855692,75.93614
1.1167027,70.012634
1.0586672,71.06395
1.1205816,64.659035
0.99241984,65.95217
1.001194,61.484
0.96285313,57.237576
0.93304896,53.919773
0.9245326,52.876667
0.8897679,46.600014
0.896834,48.510197
0.9351237,40.983654
0.98306406,40.0
0.8870453,40.0
0.9540976,40.0
0.7764482,40.0
0.8804062,40.0
0.8094879,40.0
0.8379349,40.0
0.7107652,40.0
0.74977016,40.0
0.6401918,40.0
0.575377,40.0
0.6203426,40.0
0.5236538,40.0
0.59605455,40.0
0.5802827,41.303734
0.53654754,45.019184
0.619771,44.8677
0.70146984,47.048477
0.74391645,54.3752
0.79010344,57.731373
0.80852723,61.280846
0.83627003,66.106186
1.0631051,70.13903
1.1521603,75.37486
1.2807189,81.71748
1.2873307,88.235794
1.4884933,91.71281
1.5229919,98.53796
1.5228751,102.624756
1.7117362,106.531044
1.7287537,111.94713
1.7703316,113.39068
1.8747511,121.10138
1.870902,122.17245
1.9589747,126.50115
1.8974017,133.23602
1.9568754,132.82071
1.989093,133.67868
1.9151213,136.33308
1.9971054,142.4479
1.9746015,140.17699
1.938766,138.49585
1.9184626,138.6978
1.9290568,139.74065
1.9392788,140.50252
1.7958406,139.44008
1.7089698,137.06854
1.7322397,136.15462
1.6125872,132.18314
1.673113,128.0939
1.5971392,129.75906
1.6655953,129.05418
1.5745827,129.23076
1.5385739,121.7372
1.4942288,120.30961
1.544117,120.204796
1.5174594,114.67653
1.4476912,112.38191
1.492395,109.31154
1.3976817,108.04101
1.45936,104.93665
1.3811982,99.67185
1.4600134,95.46576
1.3748747,94.038315
1.3599422,90.82192
1.3562225,90.51299
1.275652,83.661224
1.2129272,83.122154
1.1848985,78.53556
1.1767622,81.60107
1.2023597,73.976494
0.98206484,73.69158
1.0446684,72.15472
0.8583911,72.84942
1.0308865,67.32816
0.8207701,61.045174
0.8425303,56.6183
0.8057096,56.283054
0.770728,52.19736
0.83980775,52.026764
0.82451034,48.665516
0.89891356,43.0332
0.79560626,41.446938
0.8581188,40.0
0.8074183,40.0
0.75999105,40.0
0.7637224,40.0
0.656147,40.0
0.7236322,40.0
0.6624133,40.0
0.6040753,40.0
0.5482376,40.0
0.500593,40.0
0.4119815,40.0
0.44129363,40.0
0.407965,40.0
0.36657533,40.287575
0.31115782,40.0
0.30100018,47.14859
0.44357386,47.898777
0.48611555,50.936344
0.5649298,56.62213
0.621156,57.942345
0.68777204,64.50638
0.8013802,69.347916
0.9433772,76.317726
1.0141659,79.52138
1.1470526,87.21091
1.2013508,90.363434
1.2802756,96.87542
1.3542076,98.85956
1.5438871,103.60506
1.5157353,112.034134
1.581234,113.63706
1.5680065,120.285866
1.6832235,122.726036
1.6957228,128.621
1.6929268,130.8882
1.7570297,132.1438
1.6452162,133.99527
1.6836812,136.32846
1.7107877,143.42708
1.7108138,137.467
1.7413493,140.78964
1.6721314,139.61931
1.5722584,140.91837
1.5634774,140.62317
1.5852896,139.50401
1.508642,139.05116
1.5284051,136.64249
1.4750255,135.09595
1.4360389,134.09889
1.3873409,129.99063
1.3969944,130.40045
1.3264065,129.74635
1.3219359,125.37307
1.2835034,120.68581
1.2466947,117.50689
1.1860938,116.86127
1.2395334,110.34554
1.2198547,112.09172
1.2677802,108.03302
1.0693567,108.25769
1.2061082,105.36592
1.123545,99.39851
1.0851768,94.76335
1.0850012,93.83777
1.0894331,92.997314
1.0648009,87.81823
0.9033351,82.24444
0.95555997,82.865654
0.90273327,77.889046
0.8801532,78.48807
0.75495297,69.92364
0.7318552,72.499245
0.7056231,66.88477
0.58017987,63.494896
0.6186437,61.25961
0.58489704,62.314835
0.5129498,56.807972
0.57824177,52.499054
0.51378417,52.37555
0.52443707,46.235558
0.431937,46.033276
0.5298463,41.5454
0.47832775,40.0
0.48070234,40.0
0.4731914,40.0
0.44066715,40.0
0.3733056,40.0
0.41940433,40.0
0.32053897,40.0
0.3971088,40.0
0.30346313,40.0
0.17315425,40.0
0.16247293,40.0
0.082385436,40.0
0.16510978,40.0
0.08303143,40.0
0.009197474,40.0
0.1126284,42.847374
0.13839322,46.495144
0.2724627,48.145073
0.21101406,54.76669
0.37847197,60.810303
0.33842123,62.923878
0.4439114,63.472824
0.5694097,70.0718
0.5983661,79.49914
0.77431554,81.97142
0.8547093,88.384056
0.96455234,93.58991
1.0305668,98.62898
1.1171445,104.88647
1.154284,104.48655
1.2445549,110.00625
1.2628094,114.46882
1.5038296,120.91995
1.4893636,128.09775
1.4208273,128.49147
1.390593,129.69362
1.4514003,133.62125
1.4705933,139.86888
1.5004221,136.68533
1.4925324,140.0418
1.4149199,143.02711
1.4045477,143.37926
1.3988637,139.44688
1.3322773,141.34395
1.3152899,139.2269
1.3503664,136.5845
1.306955,136.76564
1.2638123,138.21016
1.105963,138.50081
1.1778408,133.59793
1.1841211,131.75903
1.1533846,133.6014
1.1135192,128.62213
1.0789698,122.34476
1.0284382,121.02994
0.9701135,120.16951
1.0115062,113.32043
0.9665961,111.49006
0.99695134,106.25672
0.813939,104.5489
0.88100743,103.74891
0.88794595,101.34652
0.914625,98.73226
0.86664534,93.48131
0.9239985,90.46169
0.77807885,91.028854
0.8601029,81.16981
0.7347374,84.80805
0.5512501,77.29523
0.6402914,80.611664
0.52332217,73.506615
0.52140045,70.469124
0.49063927,66.57503
0.48938164,63.546352
0.4119514,61.947384
0.35158822,59.181175
0.30471122,59.72565
0.29464883,53.129562
0.30556247,54.067677
0.40431213,46.710247
0.3626172,45.661995
0.30131787,42.658047
0.33629847,40.509586
0.3948444,40.0
0.37902236,40.0
0.28122866,40.0
0.26551545,40.0
0.2230463,40.0
0.28946507,40.0
0.21333374,40.0
0.088114485,40.0
0.19049548,40.0
-0.030296203,40.0
-0.07244716,40.0
-0.016324954,40.0
-0.015200188,40.0
5.473341e-05,40.77227
-0.012185728,42.62232
-0.04871146,43.486412
0.027975546,48.876
0.13216382,52.905403
0.18217555,53.93492
0.21894132,61.963406
0.33622947,63.693085
0.524931,68.83904
0.56638503,74.025406
0.6388802,82.266335
0.7226725,87.72423
0.79700965,90.92399
0.9779902,94.80612
0.9205891,98.3206
1.0776403,104.56342
1.161426,109.97221
1.2637417,115.30434
1.2609586,119.08801
1.3638817,125.54836
1.3943571,123.84642
1.4086119,134.39241
1.3364118,132.6418
1.4281169,134.30122
1.3379325,138.6293
1.4902526,140.79405
1.3579183,135.86247
1.3725772,138.32288
1.3605641,142.54158
1.3356568,140.60219
1.2709597,140.1939
1.2968704,140.1452
1.2453544,136.17014
1.2193711,138.60895
1.2574131,136.50702
1.1351333,133.43661
1.1792836,129.99718
1.1399497,128.39668
1.0997593,125.27983
1.0638179,126.50912
1.0271033,125.440735
1.0284075,114.58192
0.9565256,116.536865
0.9870879,113.18239
0.96071345,108.82407
1.04732,109.31207
0.90437716,102.39764
0.9804258,100.45869
1.0796561,97.66351
0.8473539,97.85877
0.93468666,91.90695
0.7982731,89.68343
0.8069204,88.47137
0.82866764,84.91322
0.80723554,79.513725
0.7650997,78.42068
0.7396175,72.40121
0.5899806,72.43552
0.6020479,69.37495
0.5232653,66.1026
0.56731737,63.819225
0.44672284,61.847187
0.47547927,57.944042
0.55211556,55.13506
0.5090734,54.888935
0.3951784,51.795567
0.46013936,47.991524
0.42769375,42.032932
0.40048078,45.42281
0.51064456,40.0
0.47592053,40.0
0.37863153,40.0
0.4584268,40.0
0.43505102,40.0
0.31759095,40.0
0.3929014,40.0
0.2382408,40.0
0.2062274,40.0
0.18140699,40.0
0.23794354,40.0
0.12161415,40.0
0.11423115,40.0
0.121533155,40.0
0.11894151,40.025932
0.041854274,43.54066
0.17861018,45.224644
0.26046064,51.37959
0.3620486,53.855797
0.34839547,61.131134
0.4972905,67.88054
0.57775056,71.25273
0.71200174,72.59
0.8326983,75.93912
0.8608403,81.856445
1.0109395,89.20543
1.1056794,96.19533
1.2778722,101.983734
1.2575576,101.810165
1.3833967,105.545715
1.3999642,112.587715
1.5305547,118.22372
1.3983582,124.349724
1.4844234,121.14006
1.5346357,128.59392
1.6094587,135.5228
1.6811692,134.11684
1.644144,139.27242
1.6167223,138.21722
1.7178519,139.59799
1.6016169,140.21848
1.605242,140.25108
1.5503439,139.16196
1.598686,138.89455
1.5817512,140.75024
1.5211196,136.86047
1.4759152,138.87622
1.3788077,135.40807
1.3965306,137.00708
1.3719741,132.00604
1.292179,132.69067
1.3606919,127.279205
1.2396127,127.50257
1.2890393,123.558464
1.3185148,118.91906
1.3311969,119.27041
1.3010782,115.47846
1.1841302,110.78464
1.2293478,110.31642
1.1265478,102.66711
1.2574877,106.63809
1.1925932,98.103386
1.1755093,94.839455
1.2171234,95.405495
1.1872665,91.67619
1.1738709,83.34692
1.1577629,84.17252
1.0649558,83.511566
1.0025359,79.91576
0.96625894,76.668236
0.94177926,74.33629
0.8473362,69.84213
0.81842154,68.74316
0.7511019,69.317894
0.79457295,66.07212
0.80353063,61.45283
0.7701845,56.34664
0.7248057,55.36023
0.70578253,49.68448
0.64375377,47.485836
0.7851664,43.348457
0.7064567,42.970303
0.6762861,40.0
0.6879435,43.521748
0.75201935,40.0
0.65430117,40.0
0.6684414,40.0
0.64376825,40.0
0.6149998,40.0
0.5933783,40.0
0.55868536,40.0
0.56630474,40.0
0.48826247,40.0
0.44290972,40.0
0.40523478,40.0
0.30100507,40.0
0.39651498,41.678772
0.47051346,43.65454
0.49101293,44.144566
0.5465282,50.981422
0.48713204,53.64801
0.6061255,55.616234
0.7063625,61.613525
0.81064725,65.17647
1.0236565,71.65994
0.9838117,74.98877
1.1158146,80.05333
1.2809844,87.5705
1.2917342,91.84918
1.4360615,98.395424
1.6155447,104.27832
1.5016332,108.911514
1.6685543,111.99875
1.8145622,113.77471
1.7621394,119.29462
1.8876979,125.133224
2.02462,128.73463
1.8939158,131.56375
1.8682741,128.98322
1.8400856,135.66133
1.8679532,139.15318
1.9326841,137.57199
1.8471236,140.65155
1.8204253,142.1259
1.8392446,141.24792
1.885712,141.65103
1.8460004,140.35587
1.8668045,137.09892
1.7500257,134.76897
1.7248014,136.54288
1.7313555,133.05585
1.7170463,135.56969
1.6558022,126.994385
1.5564339,129.46558
1.6211439,125.55419
1.4648101,124.09041
1.459995,118.55613
1.4939008,119.73245
1.4416562,116.28143
1.4539433,113.21518
1.5295212,109.45725
1.4261321,104.91153
1.4616777,105.08846
1.4757998,102.70026
1.4014076,97.94774
1.4394984,95.10788
1.4860384,91.03723
1.3966008,87.50336
1.2959026,86.3245
1.3317295,86.4117
1.292143,80.303375
1.1279631,76.647766
1.1661333,75.52687
1.1046776,70.14151
1.1747714,70.27585
1.0519109,62.065716
1.0327623,64.7503
1.0478438,61.345554
0.94710696,54.97754
0.9557195,53.35587
0.9321758,55.229385
0.9659155,49.601696
0.9534793,44.147636
0.87931824,46.36984
0.81806165,45.521023
0.95628184,40.0
0.9321859,40.0
0.85225916,40.0
0.9458496,40.0
0.90514356,40.0
0.8419303,40.0
0.7625749,40.0
0.7095229,40.0
0.6658286,40.0
0.64011234,40.0
0.62660205,40.0
0.5846444,40.0
0.6065175,40.0
0.54552597,40.0
0.55545306,40.0
0.44604567,45.235443
0.5816838,46.255318
0.705687,51.734634
0.7439967,55.23475
0.8227675,61.89219
0.8342548,66.35459
1.0765672,69.32755
1.1204247,71.36511
1.2528551,80.453964
1.1732002,86.27254
1.4157883,87.023346
1.4371258,93.655174
1.5314089,98.07284
1.5949261,106.90551
1.7026327,108.50392
1.8368676,114.70077
1.9109409,119.8299
1.8036853,120.96578
2.0381067,126.07779
1.9454448,131.23747
1.960602,130.70879
2.1096175,132.96387
2.0531843,134.7416
2.017649,141.63942
1.8938663,141.06104
1.9071257,142.16579
1.9302752,140.71515
1.8952465,139.52126
1.94589,140.53589
1.8042233,143.0969
1.8445495,138.41226
1.7334416,139.0211
1.7005395,136.5108
1.7367136,133.92413
1.6720606,131.76494
1.6358312,129.31245
1.5740346,123.38669
1.5672528,124.2235
1.5510513,124.36877
1.5832114,119.09236
1.5182997,117.7145
1.4726666,113.882095
1.4854861,109.91019
1.5050884,108.83421
1.4419966,105.76355
1.4444216,102.688354
1.3669426,99.56546
1.4597267,93.7622
1.4163358,93.23028
1.300545,89.31952
1.3396807,86.50302
1.2642833,85.58904
1.1831151,82.98567
1.157206,79.67079
1.0727265,77.29953
1.126826,73.34975
1.0273175,69.183495
1.0044081,70.347984
0.9064952,66.84532
0.8209636,62.378498
0.90951145,62.229267
0.8649302,55.059658
0.8185592,53.217903
0.7880409,54.15395
0.8366889,48.707394
0.7747999,42.500805
0.80296665,44.01104
0.813164,40.60552
0.77714545,40.0
0.74195814,40.0
0.73888063,40.0
0.75591236,40.0
0.70662314,40.0
0.69778174,40.0
0.65058273,40.0
0.5958004,40.0
0.48739606,40.0
0.5238744,40.0
0.37938905,40.0
0.48108265,40.0
0.3996634,40.0
0.45609728,41.46594
0.41014716,43.656967
0.4422822,46.991848
0.5664407,51.675247
0.5222631,52.464508
0.61918265,55.640347
0.67714375,60.93725
0.78109616,65.37019
0.923467,71.18139
1.0132384,74.78382
1.0811164,81.355095
1.1765299,87.88901
1.3468846,91.79077
1.2523855,99.67989
1.431915,103.55234
1.5998591,105.51837
1.5494143,112.096695
1.7233981,116.02826
1.6852316,118.04343
1.7480762,123.8804
1.705866,126.79131
1.7768939,130.46503
1.7345078,131.17267
1.731228,137.0598
1.7069044,138.03493
1.7201269,139.0077
1.7361916,139.38991
1.734493,144.16043
1.6966306,142.0379
1.7395357,140.83167
1.7076567,142.75076
1.5922472,141.19307
1.5580602,137.2524
1.4996473,132.47209
1.5334597,135.0421
1.4241853,133.74464
1.3598186,130.89525
1.3612068,127.70868
1.3463426,127.006134
1.3532162,121.13282
1.3194892,118.400856
1.2966657,119.017586
1.1705679,114.06762
1.2882408,109.674934
1.232779,111.01279
1.2333395,105.83142
1.1331469,102.70734
1.1386458,98.83592
1.187916,101.40885
1.130162,95.16263
1.0601184,92.73497
1.0742542,90.584045
1.0752558,85.965416
0.938853,84.08402
0.91179955,78.85603
0.8801228,76.66303
0.81008124,75.29026
0.7248988,73.1574
0.7157229,69.95234
0.7171631,66.214554
0.64885455,63.37952
0.5540932,63.797855
0.5765686,59.48792
0.5955282,56.936146
0.54968107,49.35251
0.512899,49.46618
0.5181299,46.13788
0.5561168,45.970707
0.5415124,41.4097
0.50909644,41.11213
0.5748576,40.0
0.45941582,40.0
0.3941137,40.0
0.40099552,40.0
0.34627676,40.0
0.36412796,40.0
0.2774487,40.0
0.25682768,40.0
0.21060018,40.0
0.14883736,40.0
0.1323638,40.0
0.19836333,40.0
0.087034926,41.917164
0.09790852,40.0
0.12641814,45.080025
0.111278124,47.73264
0.18271622,51.116207
0.26285675,54.52937
0.41382635,62.85801
0.3596294,66.17497
0.51603496,69.72355
0.7099446,75.74209
0.8127964,80.75354
0.9395802,84.08338
0.96301115,92.13361
0.9772487,98.30315
1.0808227,97.34922
1.1544584,103.88058
1.2354301,108.236275
1.3139564,111.89423
1.3677882,119.34985
1.4248843,122.56022
1.3096496,126.67897
1.4740405,130.29158
1.4222318,133.38788
1.3803586,136.04712
1.379059,138.46002
1.5194596,136.45418
1.4287206,141.51138
1.478749,141.05908
1.3667189,141.70084
1.4791753,141.46707
1.4682454,137.65923
1.3710234,136.33644
1.2378027,141.09866
1.4264034,137.00049
1.2237034,137.45306
1.2310445,132.71062
1.1307553,129.21165
1.1481878,129.56943
1.1336044,127.24058
1.0936583,123.19165
1.0883589,120.84791
0.95825225,114.53457
1.0209041,114.21038
0.95081806,112.58032
0.9279087,109.15378
0.96366113,108.53021
0.89279026,106.74651
0.88982373,101.18939
0.8582869,99.41086
0.8249066,97.14431
0.82429314,94.93097
0.8405442,93.32717
0.7780736,88.197685
0.79011524,81.522835
0.69431967,80.75296
0.64883155,76.37558
0.6036879,78.009186
0.52024466,75.27799
0.5459781,70.70761
0.51483715,67.97153
0.42983714,63.16707
0.40378746,58.587368
0.38393933,57.888733
0.40144482,57.02748
0.34591597,54.124527
0.371474,49.396404
0.28784147,45.28612
0.22414598,44.332443
0.33868167,43.12284
0.24277285,42.90914
0.30317348,40.0
0.27139133,40.0
0.29319966,40.0
0.1628139,40.0
0.22247744,40.0
0.18132636,40.0
0.20852548,40.0
0.10061996,40.0
0.04625378,40.0
0.04619037,40.0
0.047410022,40.0
-0.0042994726,40.0
-0.06543841,40.0
0.002771499,40.0
0.006546871,46.443756
-0.03496934,42.087776
0.02287578,48.607292
0.1298413,52.29134
0.16399068,58.534206
0.2868981,66.77213
0.30751508,67.51823
0.4280457,73.383606
0.6611,81.28418
0.65032864,81.67475
0.76959026,83.48959
0.8511425,96.722595
0.9411064,96.65768
1.0141848,105.498856
1.144392,110.77008
1.2003942,114.02703
1.2177457,115.650986
1.3368797,117.587555
1.3147666,127.644005
1.303919,126.041954
1.4058003,131.05629
1.3956115,133.72285
1.2424761,134.29521
1.3501971,139.61015
1.3928758,140.38554
1.4036838,140.57971
1.3565617,139.6845
1.3443671,140.39981
1.3701035,141.48079
1.2774042,143.36246
1.2034322,135.71962
1.21499,134.57907
1.2359408,131.95216
1.131249,134.59166
1.2100815,131.83449
1.111983,130.62271
1.1534854,129.58957
1.0930667,122.06062
1.084346,123.071205
0.9418105,118.97339
0.93400013,113.988716
0.9985519,114.13768
0.95973724,111.583534
0.95343924,108.993706
0.939863,105.02034
0.96222234,103.24148
0.9417786,96.00968
0.9013042,96.692604
0.88559395,95.66469
0.8674877,92.95159
0.8752029,90.22016
0.868023,86.66447
0.69982713,83.605606
0.66367877,79.30996
0.72202504,76.02698
0.69250673,73.67087
0.52384603,72.22013
0.53695744,69.5929
0.53732973,63.315742
0.5381435,62.93018
0.39725363,60.457264
0.3718966,57.721786
0.44008684,52.5767
0.5070105,51.665264
0.45041636,46.056156
0.41428372,46.506386
0.45014495,42.425354
0.44026914,40.0
0.35841563,40.0
0.37422663,40.0
0.33485916,40.0
0.3871025,40.0
0.33492783,40.0
0.36875615,40.0
0.30121267,40.0
0.23619218,40.0
0.16462955,40.0
0.16942586,40.0
0.12873992,40.0
0.102361225,40.0
0.14842774,40.0
0.10347562,41.154922
0.15207942,42.48143
0.16932374,46.63999
0.20010775,47.747364
0.20300704,52.00692
0.3328357,55.90021
0.46911582,58.712006
0.54079866,70.967354
0.5866249,73.41932
0.79104286,76.91566
0.8808761,80.35225
0.83294284,87.181496
1.0461652,89.535774
1.0521077,95.259
1.2342807,98.12109
1.3927072,105.53418
1.406118,111.78569
1.5304747,113.203026
1.3848535,119.580086
1.4424692,123.88598
1.4690988,126.34166
1.5144036,131.77621
1.5800344,135.3907
1.5954365,136.39917
1.618267,139.47818
1.6285156,137.12514
1.5154245,141.4438
1.5709046,141.64102
1.6030172,143.47627
1.5093497,139.87022
1.5409094,139.58995
1.5456558,137.35835
1.4514872,137.8137
1.544918,136.00278
1.3812401,134.409
1.348668,129.42836
1.3517538,127.10222
1.3939462,126.07941
1.2179046,125.96641
1.2925503,122.442474
1.2183555,120.65695
1.2012352,115.828735
1.2433573,111.6884
1.272024,111.38367
1.2164712,111.44547
1.1869779,104.57588
1.1393499,100.00135
1.2563777,99.51836
1.1346782,98.49622
1.1897631,97.342766
1.0825549,94.39724
1.0783113,90.45419
1.0890061,85.200745
1.1148456,83.40848
0.9762373,77.45447
0.9722782,80.713715
0.94899976,74.22013
0.8876323,68.61178
0.8531559,68.00956
0.8873191,65.04261
0.81240976,63.84798
0.7118574,57.785675
0.7326251,61.356773
0.7571743,54.80818
0.69906634,52.307877
0.67190105,51.18851
0.724768,49.669422
0.7421916,46.70128
0.7076634,41.080704
0.77587944,41.083893
0.7017391,40.0
0.69493407,40.0
0.6555242,40.0
0.6528457,40.0
0.68051124,40.0
0.5946283,40.0
0.5693775,40.0
0.46858212,40.0
0.49541116,40.0
0.42558587,40.0
0.4001307,40.0
0.37033495,40.0
0.36155206,40.0
0.39534992,42.4757
0.45251638,42.598213
0.41312537,44.641926
0.5452545,51.29135
0.598621,55.06426
0.6521653,59.38879
0.7037211,63.293633
0.8695176,69.41474
1.0120426,72.01593
1.0679733,74.79203
1.2050093,85.42588
1.2608228,86.230995
1.3557624,95.2298
1.4471071,100.14318
1.6222109,104.20092
1.7370135,110.65443
1.7255615,111.35196
1.7197953,117.039536
1.7206277,121.81786
1.8390367,126.1575
1.7971672,130.02623
1.8137975,133.61096
1.8463593,135.32278
1.901856,138.83253
1.8140424,135.35606
1.858416,139.28642
1.8458056,143.80098
1.8825154,141.8505
1.8224528,139.4075
1.8568298,138.99722
1.8158547,136.03775
1.71235,139.54454
1.7808013,137.31479
1.6459862,135.5704
1.6945434,131.30411
1.6397861,132.24399
1.6078866,128.4275
1.6711698,125.66402
1.6046289,121.54017
1.4624946,122.27256
1.5260189,118.54005
1.5516899,116.50667
1.4947956,116.12169
1.4958882,111.86739
1.5716622,106.38596
1.4984467,105.93462
1.4516071,103.274155
1.3980243,102.40236
1.4386959,94.592285
1.3866875,93.82043
1.3636566,91.659
1.3796259,87.75251
1.3314911,82.57997
1.2354676,83.16044
1.3052782,75.218506
1.2478569,77.528854
1.1320727,73.86326
1.0649229,72.81756
0.9892037,67.01694
0.94341815,65.85356
0.98042405,60.561924
0.9729467,59.980076
0.9697602,55.16514
0.951127,52.095055
0.93466467,50.150665
0.88717735,46.135353
0.87433785,46.392227
0.86125183,42.12638
0.8093065,43.454205
0.90330917,40.0
0.88792324,40.0
0.8797453,40.0
0.84452295,40.0
0.8068345,40.0
0.73695195,40.0
0.7996826,40.0
0.6806588,40.0
0.5813737,40.0
0.63411725,40.0
0.5410692,40.0
0.5062555,40.0
0.57887846,40.0
0.54557085,41.62706
0.5123801,41.56053
0.5876355,45.934475
0.6527069,49.440903
0.7570777,53.6109
0.7325196,57.302982
0.88789546,61.607044
0.90879625,65.68386
1.1046402,72.03911
1.2112801,78.315605
1.30739,82.606125
1.3417027,87.5042
1.4692458,92.61409
1.5490311,93.166824
1.7448131,103.78978
1.7323774,107.137436
1.7422391,112.55458
1.8631756,115.273384
1.8767849,120.05096
1.9288341,120.12937
1.9046899,128.18732
1.8483405,130.0995
1.9111613,131.83003
1.9984839,136.09056
1.9379513,133.16057
2.0255814,136.77173
1.9904962,145.82082
1.9890494,141.65309
2.0027401,141.19456
1.9301537,142.33652
1.8954153,141.64467
1.9508504,138.35828
1.788235,137.65948
1.7445089,138.45374
1.7384198,136.70302
1.7403183,132.19008
1.8140359,126.92532
1.6255155,126.076294
1.6136494,124.54554
1.5627289,126.909096
1.5163143,119.178764
1.4951901,117.516335
1.4901432,114.44489
1.5355396,111.23085
1.5308406,111.14555
1.5128435,104.019646
1.4788152,104.78472
1.4871992,98.04804
1.4423177,99.80866
1.381099,93.180115
1.2995065,92.958244
1.3240827,88.900955
1.2303342,89.43189
1.2441257,81.936455
1.2534153,80.02305
1.1850929,76.94973
1.0997912,77.58729
1.0450778,72.76241
0.9731102,71.97142
0.98016006,68.35171
0.94285715,60.893295
0.93775094,58.58025
0.8598365,56.736446
0.884767,53.107323
0.9266222,56.744102
0.92048407,48.71409
0.9171573,48.2075
0.87635106,40.864056
0.9008076,40.47187
0.8683952,41.636078
0.83467597,40.0
0.7429895,40.0
0.83391416,40.0
0.7776507,40.0
0.7539106,40.0
0.63155943,40.0
0.61981654,40.0
0.514101,40.0
0.3975124,40.0
0.41976643,40.0
0.47736076,40.0
0.41832176,40.0
0.3869229,40.0
0.3917131,40.581135
0.48282832,45.556797
0.36821392,44.843533
0.49489725,52.264034
0.6187285,54.69183
0.65481275,59.238327
0.7463269,62.521236
0.8921375,69.64582
0.96447176,76.04127
1.1258435,81.42855
1.1474714,86.23952
1.2876184,86.79385
1.3379797,97.58558
1.3999442,100.941376
1.5339322,103.845116
1.571812,108.786476
1.6674112,114.23704
1.7782692,121.7414
1.768093,124.00782
1.7948481,124.10486
1.7142612,129.17554
1.7071748,133.71544
1.8469833,131.02632
1.7138714,137.58919
1.651771,136.60939
1.682985,137.29062
1.7760139,140.40855
1.696843,143.54648
1.6649771,140.53497
1.7227283,141.46474
1.7119428,139.80031
1.5885208,140.346
1.6060776,135.30301
1.515393,132.87527
1.4588192,136.04977
1.4668067,132.09541
1.4315928,131.43565
1.4393775,126.68772
1.4103175,125.26359
1.2773031,124.07543
1.2953625,116.94164
1.2824856,115.19474
1.1847115,113.45531
1.1917204,110.79206
1.2201196,104.50312
1.2121254,106.45269
1.1699626,101.297615
1.1679761,99.5138
1.1039933,92.42246
1.1586744,94.91264
1.073238,89.246895
0.96905196,88.0166
1.0153408,82.22402
1.0070016,83.31253
1.0145062,74.97375
0.8813367,76.2714
0.793906,73.5967
0.682333,68.71275
0.6909338,68.882126
0.6655663,66.0856
0.6536517,61.73614
0.6184615,58.697227
0.572878,56.429447
0.63528705,53.459274
0.5821974,50.20426
0.5783423,45.451473
0.5149679,45.343273
0.49281812,46.256786
0.56034744,40.0
0.48679355,40.0
0.59726787,40.0
0.47584066,40.0
0.40392098,40.0
0.39532658,40.0
0.29907614,40.0
0.39053527,40.0
0.39185622,40.0
0.34008878,40.0
0.17956416,40.0
0.1943839,40.0
0.13749546,40.0
0.13210617,40.0
0.10658726,40.533096
0.14273499,43.38201
0.123239115,45.20475
0.20828252,49.790066
0.3489424,52.223694
0.37931207,55.522064
0.41673973,65.18044
0.51380193,64.59809
0.5914759,74.37954
0.7024161,78.11995
0.8600865,81.60079
0.8842791,87.15127
1.0207001,94.48869
1.1196257,98.7981
1.155307,103.133804
1.277605,111.05498
1.3493924,112.93566
1.2691177,115.469185
1.2608663,118.31507
1.3973519,124.590416
1.4261563,128.26155
1.3315934,128.50952
1.4544275,132.83963
1.3942934,134.2312
1.4441444,135.04839
1.4079676,136.41075
1.3882607,141.16634
1.3517663,141.48083
1.47293,141.86517
1.393955,141.00879
1.3718196,143.66112
1.3566968,140.57494
1.3686515,136.76811
1.2390512,132.40952
1.2189384,136.04407
1.2599353,130.7488
1.1994504,130.7623
1.0619857,130.47913
1.0919646,124.74414
1.0220535,119.91642
1.0312957,119.06827
1.0319612,120.37397
1.0479645,114.87492
1.0944926,114.488144
0.9771378,108.19764
0.90224594,106.609726
0.92353266,103.73607
0.93405706,97.44665
0.8350309,96.05857
0.96186996,95.67232
0.7421403,93.77681
0.80186135,91.4422
0.7261016,84.37736
0.6979777,84.849335
0.7648999,81.5472
0.6403114,80.13918
0.6124635,76.97643
0.5348396,72.38951
0.48831245,69.495026
0.4396143,65.90338
0.38947347,61.709614
0.38011405,59.693447
0.3313612,55.671463
0.34016207,55.9272
0.3412147,51.39727
0.3284592,50.348198
0.48673588,46.444687
0.33477455,44.37258
0.3425767,41.433266
0.31685752,41.283493
0.3612826,40.0
0.35407278,40.0
0.3840177,40.0
0.26497975,40.0
0.14903425,40.0
0.18048051,40.0
0.05732904,40.0
0.037279528,40.0
0.11379539,40.0
-0.020550996,40.0
-0.011499529,40.0
-0.019921599,40.0
0.04277532,40.0
-0.026583191,41.933994
-0.005455177,45.422596
-0.014116533,49.049
0.13391255,52.497803
0.17462097,54.99861
0.21291079,62.88333
0.347094,66.88622
0.47205815,67.567406
0.51260996,71.899216
0.64188236,78.597984
0.75297785,83.09646
0.91483504,87.64881
0.95170695,95.39035
0.997316,101.80563
1.1217363,103.69506
1.0680846,110.02662
1.2199478,112.68741
1.3189021,117.31005
1.3309388,121.3491
1.242402,126.57039
1.3050058,129.6845
1.4000087,130.39932
1.4170568,132.23976
1.3224319,137.32748
1.4077169,137.49074
1.3355616,137.6877
1.4062018,140.41039
1.3511225,140.25885
1.2582699,136.46
1.2522867,136.00749
1.296986,139.41962
1.2475489,139.32661
1.175588,136.25093
1.207122,135.80623
1.2528545,133.53023
1.1901879,130.99225
1.1399261,129.95212
1.0699809,126.305664
1.0265692,123.552635
0.8959556,122.62219
0.963476,117.980576
1.0309765,112.65391
1.0188102,113.13364
0.87170315,109.794136
0.9008864,106.03215
0.94455135,101.32197
0.9610348,101.02215
0.8968436,97.309975
0.84326196,96.747284
0.8482274,91.48225
0.81518954,88.79205
0.78666335,85.5578
0.698379,85.047295
0.71058434,82.88233
0.73193777,81.60482
0.63615966,76.800476
0.5318366,73.55777
0.47609323,72.00967
0.5128152,65.7276
0.5294516,62.608803
0.4265399,58.61787
0.422451,54.89423
0.44445956,56.461918
0.4041241,53.632633
0.36439386,51.36521
0.34429786,50.41785
0.3330195,42.34996
0.4786344,43.925613
0.45287594,42.33252
0.38870057,40.0
0.46366066,40.0
0.44066006,40.0
0.34366792,40.0
0.4039388,40.0
0.34432238,40.0
0.21895447,40.0
0.22900312,40.0
0.22025488,40.0
0.112336285,40.0
0.10085363,40.0
0.1501927,40.0
0.044746134,40.0
0.054057706,41.833305
0.10876667,45.845776
0.10730041,47.223885
0.24446808,47.492264
0.32693493,55.557713
0.3426396,56.454937
0.44697255,64.1412
0.46067226,69.9919
0.62375945,71.14524
0.79393435,77.688095
0.8359357,80.16541
0.97354716,87.256065
1.0646405,96.64118
1.0916072,97.07927
1.2012292,104.117004
1.3805726,106.463036
1.349216,115.381485
1.39171,118.5832
1.5029675,122.298195
1.5513555,123.376114
1.4633318,132.11346
1.6115329,131.79437
1.5790367,133.92632
1.6075541,137.27817
1.5077963,137.06453
1.6178743,141.29051
1.5539601,140.23326
1.5506746,140.60512
1.5453095,139.23978
1.4858361,140.75946
1.4676251,142.4164
1.3965659,138.85973
1.5367206,137.41177
1.3673309,137.5199
1.4506173,134.78616
1.3286998,133.74472
1.3165554,127.81019
1.3267357,124.824356
1.2809649,121.68668
1.3282486,121.60249
1.180218,120.59844
1.3041103,118.65895
1.1263452,112.82651
1.126407,112.36879
1.2054386,107.609856
1.2480757,107.389496
1.1788493,102.202385
1.2310413,97.56217
1.1610378,95.83299
1.0817336,96.02335
1.1554592,91.29956
1.1205924,90.36946
1.0479137,85.292946
1.1169887,79.801285
0.95827484,82.47115
0.88192743,80.7521
0.94441956,76.176414
0.896425,70.05753
0.80246246,68.3723
0.75478435,64.21077
0.75075144,64.781624
0.7587097,58.130943
0.6951137,53.43151
0.74572366,54.26703
0.73228854,51.414417
0.6372182,45.704285
0.6989561,42.978104
0.7272943,43.030968
0.7255227,42.796864
0.56679934,40.0
0.685089,40.0
0.652859,40.0
0.66991895,40.0
0.5983507,40.0
0.54416263,40.0
0.544782,40.0
0.4733014,40.0
0.51620084,40.0
0.39662182,40.0
0.33601585,40.0
0.39926428,40.0
0.35051173,40.0
0.38710696,40.0
0.3845676,40.0
0.4295083,46.626358
0.44928265,51.157455
0.5726493,51.205555
0.6076621,58.98519
0.70766395,63.207775
0.79073936,65.19917
0.7953101,72.13464
0.9578094,76.4312
1.0578504,78.71408
1.2084883,85.318886
1.2808506,93.81346
1.4736743,98.65945
1.5341883,102.52715
1.5423636,107.11979
1.6546144,109.12134
1.7770215,113.54683
1.7485559,119.63517
1.7220734,121.55513
1.8017895,127.78224
1.9183127,130.73772
1.813059,132.81186
1.8187261,133.60648
1.9355534,139.27478
1.8272865,136.43628
1.864405,140.00562
1.8789978,140.39474
1.8416612,137.30771
1.8502452,142.49121
1.9141706,138.42499
1.8290771,139.11324
1.7206595,138.5995
1.7393054,136.8647
1.6726778,134.10481
1.7088758,134.17659
1.6430072,129.22298
1.5849537,129.28067
1.5890695,127.44502
1.4523684,125.39148
1.5244002,119.26579
1.5009732,118.17886
1.5315939,113.1091
1.541132,112.60544
1.4873809,108.53499
1.4683053,109.87659
1.424819,103.44804
1.4888517,101.840576
1.4172857,99.47023
1.4032422,93.55938
1.3338135,93.97275
1.2501076,91.06475
1.3142598,84.258865
1.3864781,81.426605
1.2618644,81.16223
1.2182328,77.80865
1.0911316,76.10858
1.0807137,74.185234
1.0746554,70.19192
1.0985402,68.152054
0.96219957,63.99938
0.9385957,61.15746
0.9442896,56.460308
0.98067546,54.756653
0.8688497,50.76101
0.833819,48.966377
0.95692414,45.556393
1.0049702,43.61879
0.9154388,43.152267
0.8779713,40.0
0.8983093,40.0
0.96679384,40.0
0.82788616,40.0
0.9286229,40.0
0.92053676,40.0
0.7767668,40.0
0.68214685,40.0
0.63344055,40.0
0.6786203,40.0
0.58123714,40.0
0.6762387,40.0
0.5647481,40.0
0.5071357,40.0
0.5130209,42.566677
0.6104005,41.001175
0.62044513,44.050655
0.63540584,49.70017
0.6882552,57.23344
0.7841286,59.414597
0.9709513,66.29636
1.0456514,69.534546
1.1055768,74.280785
1.2275223,80.069824
1.3007205,80.7278
1.4713941,89.30038
1.4965043,93.56322
1.5639833,99.88175
1.6515907,103.09456
1.7925346,107.97237
1.7425612,112.72892
1.8270323,117.58956
1.9410172,120.66276
1.9552585,125.71845
1.9624072,130.69598
1.944231,133.68279
1.9174557,135.83362
1.9678886,136.3534
1.9271698,143.16348
1.9689271,140.27586
1.9520488,137.32066
1.972966,139.4185
1.8770012,140.16444
1.8645599,140.56772
1.807629,141.56337
1.8956695,136.10945
1.7870936,136.82603
1.7516947,136.1891
1.7121261,133.57335
1.7629668,133.4292
1.6299824,128.53232
1.5593393,130.29076
1.6764888,129.00232
1.558308,122.29544
1.5600494,116.33517
1.5191038,118.52272
1.5828267,113.46737
1.4773756,108.78117
1.5437129,109.10858
1.5159471,106.73592
1.4172571,101.30902
1.4657365,99.69207
1.418652,95.49628
1.31585,94.776276
1.3700291,89.283035
1.2426411,83.84648
1.3049111,84.10013
1.1991026,82.28118
1.3033805,78.6696
1.1253188,78.926254
1.2041585,73.99148
1.0604734,69.50509
1.0239459,69.36944
1.0071563,64.420845
0.8429048,62.531696
0.85726243,59.431656
0.94242233,49.24379
0.8196232,50.062527
0.83559453,49.234573
0.82415044,48.68448
0.939483,44.995953
0.77508414,45.226463
0.8856965,42.035294
0.768178,40.0
0.8306313,42.25193
0.9098991,40.0
0.8353139,40.0
0.6783806,40.0
0.7290209,40.0
0.6829137,40.0
0.6094743,40.0
0.54351836,40.0
0.5158113,40.0
0.47277495,40.0
0.38772225,40.0
0.5041716,40.0
0.4823656,41.733658
0.3986405,41.93685
0.40643302,40.92805
0.51557535,45.312096
0.56381357,53.16711
0.6880553,59.40342
0.6950082,61.900417
0.8935725,69.66476
0.8267691,69.668015
1.0305241,77.909996
1.0698878,85.45941
1.2382718,85.9934
1.2837533,88.85573
1.4135774,98.63384
1.4583042,103.7032
1.5250664,109.91266
1.5289979,112.164696
1.6753389,116.856865
1.6630343,117.29663
1.744176,124.343094
1.7151477,127.518875
1.7443053,131.89818
1.7739346,130.41415
1.8323618,133.91179
1.8097132,135.86665
1.795897,140.12679
1.7306771,137.82079
1.8101735,140.44026
1.7104887,140.5544
1.7190049,141.69533
1.6562285,141.40764
1.6210185,136.33928
1.6003407,139.97612
1.625523,135.21877
1.4821247,135.06053
1.5839665,134.06845
1.457369,129.83067
1.5202434,129.05183
1.3259928,125.8223
1.2792199,121.75379
1.2690643,119.803665
1.3151871,117.40468
1.2706958,113.170555
1.3059858,111.87428
1.2079129,109.57687
1.2469199,105.53991
1.1841477,103.05384
1.21687,99.81603
1.2362826,99.03955
1.1417614,92.97508
1.2222369,90.12563
1.0672673,88.55618
1.0632606,87.91114
1.1161569,82.91581
0.9262282,77.70253
0.91984576,72.737915
0.87877446,74.28019
0.8412265,69.82985
0.69156903,70.68846
0.6970613,68.58663
0.69441795,64.08936
0.63481164,60.32974
0.5613731,59.096943
0.6878383,56.7423
0.6260136,52.102833
0.53133166,48.701637
0.5718533,45.054676
0.60592645,43.19983
0.5681201,41.63368
0.48841175,42.19795
0.5004907,40.0
0.4723855,40.0
0.4618994,40.0
0.4390825,40.0
0.4579634,40.0
0.3636876,40.0
0.26359147,40.0
0.24521673,40.0
0.19471326,40.0
0.13749465,40.0
0.15628034,40.0
0.18825012,40.09291
0.22886556,40.0
0.18247862,44.753098
0.22363454,40.950287
0.2641136,48.90733
0.27727467,50.889294
0.39875188,53.168568
0.38787857,62.287193
0.43864456,64.78962
0.57262206,72.3222
0.6226505,73.24421
0.776104,76.42159
0.9412234,87.34461
0.9941887,91.808105
0.95629954,96.585396
1.1423457,103.69409
1.2221626,107.70941
1.3057222,112.46214
1.3977835,113.67622
1.4497838,122.39235
1.4413772,118.85645
1.4248397,124.989525
1.5276093,131.20638
1.4171591,128.29297
1.4237503,135.26631
1.4507167,133.52126
1.560207,137.97375
1.4884039,139.66652
1.5155779,139.432
1.3522042,139.59236
1.498332,141.89153
1.3731054,139.7812
1.4240083,140.17929
1.4001544,140.14636
1.341142,138.79779
1.27295,136.16342
1.2605463,132.32819
1.2184274,130.83844
1.2154881,128.8932
1.1862061,123.655426
1.0114698,123.28292
1.052796,122.2801
1.046953,116.37352
0.99172443,111.810394
0.94068795,112.914566
1.021878,113.50495
0.9452829,107.34343
1.0258667,101.71933
0.9926922,97.94067
0.9297228,95.86378
0.91999424,94.25868
0.9149396,91.49085
0.80974936,89.584114
0.841306,87.641464
0.7046244,81.27869
0.73180664,81.80307
0.69573575,77.50676
0.62852806,75.980804
0.70991874,72.66639
0.52673686,68.000404
0.48136207,68.30331
0.46685925,65.6256
0.45327222,61.362865
0.32320154,59.285385
0.42610192,53.412918
0.3693916,54.551403
0.35901088,47.33142
0.3075349,47.45966
0.39618993,45.641426
0.40814295,41.66907
0.38294646,41.502228
0.38673222,40.24834
0.25576106,40.0
0.26271626,40.0
0.29737163,40.0
0.1724435,40.0
0.21391352,40.0
0.165153,40.0
0.08461483,40.0
0.057378214,40.0
0.019500298,40.0
-0.06723896,40.0
-0.1335983,40.0
0.0065291333,40.0
-0.056333236,41.158707
-0.0094971135,47.045815
-0.008316214,44.491806
0.060469948,48.821472
0.02211565,54.810005
0.21719342,56.603683
0.33374935,59.134583
0.4240577,66.157104
0.4948671,71.74923
0.5426934,78.586586
0.6794579,84.462585
0.8175027,89.965256
0.8135337,92.7819
1.0870931,97.56725
1.0742915,103.02685
1.0903473,107.86598
1.1465187,113.2973
1.2525254,114.81846
1.2152232,120.8842
1.3500515,123.384285
1.2819831,129.24872
1.3984638,130.71617
1.3311542,136.19043
1.3848653,136.05238
1.4356409,136.20482
1.4437096,142.06384
1.3786104,139.53809
1.3535419,142.09146
1.3533282,142.52882
1.3554709,141.28171
1.2948469,137.0439
1.2536335,137.48447
1.2528039,141.63904
1.203459,134.9306
1.2054639,134.1181
1.1505085,131.09715
1.0881382,130.2451
1.0851358,128.3692
1.007408,125.59848
1.042934,122.29431
0.9248856,121.0477
0.939534,119.70755
0.93770605,112.98279
0.93473244,113.96913
1.0274755,112.60773
0.8869257,103.83326
0.8944805,100.78018
0.8682418,96.743935
0.8756209,98.65859
0.8498514,97.60676
0.9349886,91.161514
0.78925264,88.97821
0.83220094,86.06497
0.86032504,82.00383
0.7074261,82.821556
0.68594146,77.71198
0.6695535,73.85083
0.61597604,70.59888
0.51343274,69.525734
0.5770835,64.56247
0.42306188,63.529434
0.46629468,60.463345
0.31945944,56.797184
0.43755883,52.987034
0.34337777,48.881355
0.45570824,47.409534
0.38029447,46.60443
0.36956543,44.771748
0.49902266,42.3707
0.43630832,41.021408
0.41208807,40.0
0.33995065,40.0
0.34235075,40.0
0.31884378,40.0
0.27642864,40.0
0.22922702,40.0
0.20430884,40.0
0.17428017,40.0
0.17144361,40.0
0.049559627,40.0
0.08931048,40.0
0.0932626,40.0
0.0875968,41.01481
0.13247515,40.78404
0.14581382,42.765697
0.12442867,50.090805
0.18466456,49.26979
0.33526677,57.678036
0.34381378,60.302235
0.5606431,63.45623
0.6534544,74.03823
0.6626868,76.71727
0.77071124,77.956154
0.90760595,87.685234
0.9814857,90.809105
1.0852399,97.624794
1.1775527,99.57515
1.3401765,101.71161
1.4283516,108.768265
1.3275833,119.33713
1.5034578,116.97285
1.463333,121.012314
1.4775183,127.2471
1.5434188,130.16585
1.6112906,135.13782
1.5658816,138.75049
1.5290279,137.67416
1.5180823,138.67671
1.6072825,140.21149
1.5258318,139.8703
1.5363656,141.39612
1.5196424,142.61696
1.5130515,140.25761
1.4602238,136.14752
1.4154747,139.79066
1.4671917,137.98987
1.3745811,132.19026
1.4222267,132.11603
1.2888671,128.86873
1.2878387,128.41614
1.334271,125.67881
1.2591186,120.66903
1.2546382,122.10989
1.1109478,120.5021
1.1675049,116.232185
1.0996168,114.20054
1.1388139,107.865944
1.3193381,104.29818
1.1747279,105.28793
1.1152955,101.918076
1.1020442,99.262924
1.1574428,95.21912
1.1145663,92.609955
1.0675915,90.85415
1.0259143,86.00657
0.95666033,82.458755
0.8967892,76.27034
0.923017,77.12068
0.869861,71.26395
0.93845886,73.10375
0.786787,68.124535
0.7414588,66.309395
0.6974197,65.207825
0.7679583,60.481277
0.6215976,57.59314
0.6308787,53.771988
0.74356496,51.94674
0.60261345,50.951775
0.67200506,47.77627
0.65925527,45.514595
0.6678704,40.892624
0.6303495,41.372116
0.6821312,40.0
0.6817928,40.0
0.6419263,40.0
0.6419324,40.0
0.5904982,40.0
0.5601763,40.0
0.49556062,40.0
0.4140294,40.0
0.42193502,40.0
0.33525664,40.0
0.28794992,40.0
0.33100188,40.0
0.30791715,40.0
0.37365744,42.665623
0.3361068,44.563866
0.37375984,49.185505
0.4851232,53.255146
0.47176388,53.910946
0.60822463,59.271667
0.65844345,63.218487
0.86035633,66.99235
0.94977224,72.076775
1.127902,74.81788
1.0983871,87.65709
1.1949027,90.389694
1.3513249,92.85258
1.491293,98.44321
1.4907142,105.85683
1.6769922,107.75693
1.6741507,112.453766
1.648043,115.81421
1.8281218,123.60528
1.7384005,123.29683
1.8087876,132.14519
1.8247083,130.59761
1.8212839,132.1298
1.8396167,135.04623
1.8637823,136.92607
1.747221,138.73984
1.8859179,138.8818
1.8153781,141.43437
1.8529872,143.07074
1.8629903,143.52693
1.7901973,136.93735
1.7412905,141.14098
1.7018201,136.73203
1.6824291,133.92747
1.67705,132.0639
1.6779876,133.79347
1.6489521,130.85143
1.5542268,124.55132
1.5103549,122.54794
1.5992029,119.604324
1.4876553,119.10293
1.5334569,116.95556
1.4703997,113.10184
1.4727447,109.35666
1.4142795,109.31278
1.4924018,109.32277
1.4038079,102.80991
1.3686497,99.55253
1.3938646,95.39709
1.3515882,93.49904
1.3695188,91.532196
1.3491431,87.14518
1.272707,84.9493
1.3237814,78.08454
1.2512553,77.598175
1.2152174,74.56529
1.1004522,73.34968
1.1072761,70.726395
1.0522197,67.58188
0.9558803,65.289085
0.9292489,64.18987
0.93431747,60.108116
0.8576165,54.679134
0.9772533,54.32258
0.86077577,52.468983
0.8243827,47.746315
0.8780501,45.261795
0.9032383,48.298565
0.8329382,43.2518
0.8973163,40.0
0.9221722,40.0
0.78894675,40.0
0.9000502,40.0
0.76111054,40.0
0.7197396,40.0
0.73217493,40.0
0.57770234,40.0
0.58497673,40.0
0.65583277,40.0
0.6515948,40.0
0.5411142,40.0
0.5400064,40.0
0.5639424,40.0
0.57367617,43.442043
0.4618255,48.039383
0.6157746,47.062485
0.5834823,50.761925
0.7744207,55.29796
0.83838207,64.19931
0.96940833,66.53027
1.0788298,72.172966
1.17465,75.110664
1.25083,81.49843
1.376606,85.93081
1.488775,91.20808
1.5607529,95.648384
1.5910509,104.7637
1.6503862,105.23123
1.7830966,111.79763
1.8715634,114.252556
1.9353378,121.52906
1.8872032,123.706856
1.9782567,128.04387
2.0675848,131.22885
1.9363887,133.12085
1.9655093,136.48117
1.9907187,138.68379
1.9570711,138.7042
1.9929712,141.42946
1.8967693,141.04312
1.9469961,140.08463
1.9182025,143.59894
1.8402056,139.65506
1.8452175,136.55618
1.8846381,138.35141
1.7557818,135.19235
1.7574662,132.5237
1.6980728,130.00714
1.7449921,133.4881
1.7421285,127.46296
1.6735625,126.36247
1.5270524,125.58062
1.4906478,120.638245
1.54834,115.37583
1.4392167,111.2874
1.5506489,113.18038
1.5136085,109.40182
1.4735329,101.94823
1.4834609,100.950584
1.4623014,99.102356
1.4456413,94.48601
1.4102637,92.45409
1.3245525,94.93612
1.4952275,88.15347
1.275169,85.846436
1.3531195,83.87129
1.1342077,82.54513
1.2538782,78.54001
1.1128181,71.62583
1.1041676,69.91993
1.0343305,68.54785
1.0654813,65.3291
0.9149512,63.973892
0.95962906,63.78686
0.8907512,58.749817
0.8989754,56.87976
0.8194884,52.69207
0.83627135,53.637722
0.9097178,46.12406
0.8929457,49.17573
1.0111166,41.14407
0.85058874,41.83492
0.79268485,40.0
0.7661974,40.0
0.7498781,40.0
0.66974914,40.0
0.7358285,40.0
0.6310323,40.0
0.7078207,40.0
0.5167338,40.0
0.5895093,40.0
0.52940285,40.0
0.493298,40.0
0.43354237,40.0
0.42034617,40.0
0.40955558,40.0
0.4131985,45.432312
0.51052046,42.422665
0.6026084,51.6408
0.7274416,52.348038
0.74188626,61.507294
0.800588,64.942696
0.9342505,71.07128
0.9887575,74.43444
1.0883918,79.61748
1.1263785,86.7674
1.2709032,91.774765
1.2535006,97.22401
1.4253898,98.54551
1.504888,107.063675
1.6180929,107.80293
1.6736721,114.84951
1.6397859,115.31059
1.7341915,122.73957
1.6734686,129.10048
1.7345986,130.26784
1.7694008,130.82684
1.7956383,134.7774
1.8659499,138.60413
1.7926662,139.65973
1.712946,141.46478
1.7721885,138.83366
1.9042456,140.9934
1.7260206,139.02351
1.7183394,143.30844
1.5999012,137.50487
1.6720104,138.0304
1.5302961,138.00015
1.6161121,134.24841
1.5455652,135.19162
1.5219944,133.4772
1.44183,131.74925
1.3959204,125.68288
1.3627156,122.55891
1.3646905,119.464134
1.2828878,116.25279
1.3441086,116.42715
1.3088655,110.657776
1.2404383,111.373184
1.264114,106.63965
1.3106651,104.21493
1.320027,101.83783
1.1621729,99.579384
1.2152264,93.709335
1.1444012,91.29829
1.1072601,94.99949
1.093537,89.297
1.0475076,86.53205
0.94283694,81.45849
0.97697747,78.29675
0.86537814,76.48286
0.8978784,72.395874
0.69467676,74.70647
0.76271003,70.13104
0.80400914,65.736565
0.6668626,61.767025
0.6476332,59.69941
0.69094115,54.00191
0.53288513,53.48974
0.551457,49.266663
0.5574754,48.22428
0.64763427,45.961876
0.6358955,40.609135
0.5979075,42.374794
0.5890498,40.0
0.48844096,40.0
0.47732633,40.0
0.5313782,40.0
0.4034235,40.0
0.38126308,40.0
0.35612744,40.0
0.291424,40.0
0.2989553,40.0
0.24189833,40.0
0.23476301,40.0
0.1995868,40.0
0.15047307,40.0
0.15892144,40.0
0.15836014,47.750195
0.2100112,45.626213
0.2164634,49.936188
0.34709066,57.08564
0.3173844,55.670742
0.3552225,61.635166
0.5615018,68.746796
0.7104243,73.78608
0.7907032,76.58457
0.86021817,84.045235
0.87522787,87.790436
1.0564827,92.4097
1.0797374,99.780655
1.1973877,104.23798
1.3287338,105.225235
1.272858,110.25264
1.372488,117.16291
1.4360918,119.970345
1.3782201,125.552795
1.5053862,126.20213
1.5216271,132.7234
1.4890115,133.41156
1.515182,134.36755
1.5323715,135.66177
1.4757669,139.79073
1.5120294,139.95691
1.5180811,137.93729
1.4318606,138.91531
1.3737274,142.10236
1.452871,136.72115
1.2477685,138.47156
1.3831584,139.41554
1.2262713,139.32596
1.2312508,132.43167
1.184376,132.62532
1.2039832,130.50089
1.1384308,126.757904
1.1214217,126.60638
1.0474393,122.87061
1.0413982,120.76379
1.0287535,117.915276
0.9348026,114.83386
0.9233818,110.95892
0.97978616,108.6189
0.89485073,102.81562
0.8879487,98.8558
0.90816367,99.04119
0.8932584,97.6731
0.91371983,94.26993
0.91249275,93.687515
0.81177986,88.2589
0.76617414,84.42624
0.67791295,83.586586
0.6502767,78.924706
0.71355677,76.83692
0.60642064,75.57456
0.5728082,71.791954
0.56265396,64.484795
0.40942138,67.537186
0.42194358,64.43295
0.38169006,60.387077
0.399272,58.587566
0.3211497,54.587128
0.30915996,53.06207
0.39423355,47.166428
0.32759452,47.71824
0.31867322,43.09361
0.3011672,42.882042
0.3238946,40.144653
0.26735154,40.0
0.31507707,40.0
0.35533097,40.0
0.2621873,40.0
0.25903448,40.0
0.16062126,40.0
0.03656492,40.0
0.011846445,40.0
0.08697413,40.0
-0.08492676,40.0
-0.0830279,40.0
0.00289531,40.0
-0.058363076,40.06278
-0.016648432,40.713013
-0.031766772,45.420444
0.11434132,53.335804
0.042998005,52.115417
0.11768756,56.103527
0.1742873,61.951405
0.30645522,63.935997
0.46094587,70.08131
0.44508758,74.61774
0.66103506,83.621765
0.799157,87.55148
0.79724324,92.44912
0.9888236,96.34207
0.9480724,102.15519
1.0604641,105.17349
1.0739292,109.22193
1.2055595,113.269485
1.1941544,118.145096
1.293918,125.041916
1.2939811,128.56532
1.3280262,125.40511
1.4775063,133.91162
1.3740335,134.40489
1.3667651,136.73062
1.3297813,138.40869
1.3748401,142.3141
1.3905776,145.14435
1.3876088,139.7413
1.3509722,139.67851
1.2484766,142.00378
1.3170133,141.94875
1.2336358,141.6819
1.2998477,136.71477
1.1592296,137.4851
1.1346179,130.75536
1.0474219,130.78453
1.1407022,131.23248
1.0067354,128.49297
0.9133872,122.525
1.0484242,122.627174
0.95748025,120.936905
0.96756357,113.96493
0.81217265,111.659065
1.0305558,109.35721
0.91154194,106.61227
0.84370565,104.31788
0.9081396,101.306244
0.8349421,98.02707
0.9636834,97.81225
0.79936624,90.668
0.8345539,90.01151
0.84990656,88.678825
0.75761545,87.08426
0.7047326,85.31972
0.643277,78.65671
0.67907196,75.44189
0.58685845,75.63349
0.42592445,71.948784
0.4621858,65.593124
0.4542904,61.39621
0.5098085,57.89228
0.35603166,61.77847
0.3216615,54.327465
0.39055306,51.535072
0.36828336,51.45695
0.40822327,48.932446
0.36003444,44.420475
0.46827802,42.798958
0.36576158,40.0
0.35745767,40.0
0.3241499,40.0
0.42645597,40.0
0.30586785,40.0
0.3258084,40.0
0.2545352,40.0
0.15899695,40.0
0.23848154,40.0
0.1322373,40.0
0.040764026,40.0
-0.0035769052,40.0
-0.060240004,40.0
0.04639087,40.0
-0.00028321298,40.14088
0.024703484,43.706005
0.017585987,47.975815
0.20628044,52.53073
0.17241046,54.59204
0.35290852,59.839836
0.42062294,62.34233
0.4966518,64.28672
0.57345694,72.93942
0.7063268,78.59696
0.80610085,82.080246
0.9613661,88.29537
1.0458307,92.463104
1.1974642,100.58532
1.1799364,102.54994
1.338244,107.095955
1.3680856,114.76848
1.3595352,116.32495
1.3700619,122.42752
1.4940814,121.62228
1.541711,128.60269
1.4050828,128.85739
1.451905,134.43452
1.4479074,135.25304
1.537978,137.69281
1.5636777,140.47981
1.5481218,139.69388
1.597784,140.95401
1.5075449,142.58713
1.5661145,141.9938
1.4418533,140.90118
1.5046949,138.19496
1.4078981,136.59113
1.3699197,135.15007
1.3996329,135.65654
1.2203981,134.90433
1.309697,128.185
1.2689255,127.26392
1.2328278,124.78935
1.081577,124.455574
1.2309623,119.149216
1.2075913,116.8553
1.2338343,113.778984
1.0691501,111.09603
1.1316843,106.61864
1.1852263,107.92299
1.1061141,100.97375
1.0915275,99.66969
1.1237531,97.77429
1.0567098,93.81869
1.1325661,88.523026
1.0798818,88.15238
0.9617739,86.55948
0.99948245,80.18519
0.93174595,77.31357
0.872078,77.55106
0.7983003,74.672226
0.7232585,71.77508
0.7173587,68.94616
0.7230859,67.978165
0.738679,63.172226
0.7109391,61.848995
0.7367335,58.21677
0.58714443,53.188206
0.66043264,50.61966
0.6410927,48.628185
0.69743913,46.45529
0.77768207,44.046524
0.6337931,42.8221
0.70693344,40.0
0.6430421,40.0
0.57399327,40.0
0.55126184,40.0
0.51152635,40.0
0.4771124,40.0
0.445783,40.0
0.4642268,40.0
0.4643966,40.0
0.39770696,40.0
0.41646513,40.0
0.25220558,40.0
0.35317495,40.0
0.30385426,41.312008
0.31967196,42.6279
0.43536362,45.72342
0.49398848,51.89981
0.47208422,50.13218
0.55793923,54.899796
0.6106809,60.60352
0.70245886,64.91466
0.87278104,69.78017
0.98178416,74.41629
1.0495416,81.67461
1.2102834,83.83081
1.2787751,90.29343
1.3420879,94.9224
1.4516242,100.00935
1.4955988,104.687706
1.6337346,110.26209
1.6105125,115.76256
1.6551495,119.77619
1.6777409,124.3897
1.7392535,125.00164
1.8937653,129.26797
1.8588088,132.97437
1.8216527,132.63586
1.816389,138.36688
1.8629373,137.45486
1.7957938,140.39734
1.852777,137.44064
1.7753835,138.93407
1.7263634,140.98996
1.8351796,142.30759
1.7405609,139.45831
1.7220219,141.8264
1.6447169,137.63516
1.7079228,135.8345
1.6025449,129.53581
1.5790634,129.75294
1.6004044,128.69241
1.5815468,126.676636
1.5513207,122.51476
1.4907093,120.9093
1.4144378,119.45647
1.4653811,113.998886
1.4528877,113.154
1.4618156,108.05961
1.4461577,102.433205
1.3414782,100.84131
1.4305061,98.10915
1.3631327,98.43436
1.3384844,94.763275
1.4166461,94.380806
1.374197,93.49519
1.3087412,86.47481
1.3242723,82.87296
1.2668078,81.91706
1.1859837,77.83839
1.1694379,73.43325
1.076998,70.19341
1.0130792,71.24155
0.9789806,68.04163
0.99031025,63.898308
0.9017668,62.003002
1.0209248,56.42082
0.8866274,56.82249
0.85816073,50.22126
0.8802447,48.755753
0.9060403,46.889324
0.9104395,42.792233
0.8440789,42.62098
0.83551997,41.609215
0.84440863,40.0
0.8174522,40.0
0.8459464,40.0
0.7779476,40.0
0.732037,40.0
0.748243,40.0
0.7828755,40.0
0.60571104,40.0
0.6505125,40.0
0.61368537,40.0
0.5657741,40.0
0.57094,40.0
0.5341024,40.0
0.5397135,40.0
0.539899,43.74902
0.7076462,46.71581
0.6019481,49.631092
0.7993641,56.266293
0.85265034,57.505753
0.9529514,63.32165
1.1227458,67.98368
1.1142142,74.57536
1.0823979,79.382385
1.2458847,84.843544
1.3936353,89.28717
1.5353826,92.34311
1.6011682,98.28301
1.7445266,107.78745
1.771727,107.8807
1.8443546,110.798
1.8500473,118.467155
1.8541257,121.77641
1.9037598,122.843605
1.9149979,130.55377
1.9891754,133.25137
1.9740145,138.21573
2.0652463,137.98306
1.9672922,137.82404
1.9218043,142.13083
1.9103738,139.39543
1.908188,141.3603
1.9663601,136.80264
1.9948684,137.40567
1.9044333,136.66528
1.8926276,139.20279
1.754643,138.98967
1.833451,137.19519
1.7693338,133.01108
1.6374136,129.39584
1.6904507,129.7284
1.6125443,122.438
1.6258543,122.65648
1.5988898,121.79221
1.6218393,120.74802
1.5925801,114.11792
1.5288165,110.826385
1.5318412,113.98877
1.4653573,106.40283
1.5266393,105.855675
1.4091095,100.21277
1.447246,100.97013
1.4997313,96.91802
1.3817495,92.45286
1.3145312,90.45665
1.3438338,88.85712
1.3438451,82.71806
1.1925395,84.57382
1.2327814,79.954666
1.2100767,77.97943
1.108933,73.74252
1.1148702,70.41093
0.98491377,68.256546
1.0169581,68.55534
0.8734465,63.568546
0.8754984,61.05368
0.94686776,56.23932
0.99214166,53.214554
0.8715638,49.412647
0.8947605,51.220806
0.90355426,44.823494
0.8122745,41.350857
0.8319727,40.924232
0.9637797,40.0
0.85019773,40.0
0.86134535,40.0
0.9015972,40.0
0.78122175,40.0
0.8487026,40.0
0.7657599,40.0
0.5834607,40.0
0.6678658,40.0
0.44853958,40.0
0.54747003,40.0
0.49099323,40.0
0.50805205,40.0
0.42478144,40.0
0.36628157,42.23525
0.48860246,46.14896
0.53119195,45.613148
0.5594429,55.649128
0.6631474,60.37991
0.78185374,64.739784
0.89680415,66.79162
1.0076023,70.9691
1.0353738,78.748604
1.1691792,81.31449
1.2355641,86.78806
1.3540761,88.58151
1.4845989,95.960815
1.4804938,102.66765
1.5724282,106.110374
1.5856669,112.09059
1.6889763,117.27495
1.7702138,121.233154
1.7069193,122.02001
1.7845695,129.99902
1.8234395,132.14742
1.7592205,133.89128
1.763529,135.69191
1.8257778,139.28827
1.7884047,139.77081
1.8222892,141.62753
1.8015467,137.92148
1.7146242,140.79146
1.7302685,141.90723
1.7286526,139.49101
1.6939253,137.21492
1.6129922,138.72214
1.5426214,136.14133
1.4878398,130.80809
1.5015892,131.10106
1.4539008,134.5084
1.4435644,129.92361
1.4090416,123.796135
1.3936685,125.89166
1.3560617,118.46323
1.306359,117.4071
1.3783371,113.79525
1.3071162,110.90869
1.2667989,111.80671
1.276091,106.692696
1.2071044,105.48899
1.2491659,99.218216
1.2580624,96.86874
1.2560288,95.07385
1.0982113,91.72353
1.1395131,91.13066
1.064622,87.10215
1.0117431,83.71624
0.944685,80.80024
0.94735134,76.59666
0.9280762,74.588295
0.9216479,70.25263
0.75054663,69.823845
0.7449032,65.57509
0.7591446,61.070255
0.7170478,60.285297
0.60550296,60.24724
0.6508793,56.009136
0.6767228,52.088867
0.6056386,47.801945
0.6177874,46.221203
0.62972987,42.508446
0.5510963,41.54543
0.5462287,40.0
0.55511266,40.0
0.5353783,40.0
0.44673863,40.0
0.47594315,40.0
0.45045123,40.0
0.30146933,40.0
0.38203076,40.0
0.29354706,40.0
0.2794907,40.0
0.21749675,40.0
0.17170134,40.0
0.13996947,40.0
0.19290252,40.0
0.18471697,40.0
0.13541748,45.230026
0.32909003,47.234467
0.2539976,52.419
0.44057783,55.069233
0.43968713,62.723587
0.45305824,63.92217
0.6249209,71.75727
0.7688553,77.27673
0.9418296,78.43729
1.0474066,84.462975
1.0958472,90.213524
1.1673138,95.99987
1.2198546,99.079796
1.3239238,103.847984
1.3060722,111.89576
1.364405,115.07469
1.4628081,119.937485
1.4406122,121.606606
1.4288844,123.59941
1.5379304,129.782
1.5263988,130.5912
1.5910994,135.18684
1.5460484,136.39613
1.4328825,138.74738
1.5178525,140.42937
1.468387,142.00455
1.4737564,141.47054
1.4286696,140.80627
1.3865434,141.73303
1.4231098,136.57414
1.3346066,137.87875
1.4105389,134.31964
1.2750041,132.5681
1.2699243,131.5302
1.2060237,128.50912
1.1464525,126.460045
1.1835446,127.25906
1.0393488,124.489685
1.1475774,125.95244
1.1084574,119.600395
1.0908426,114.8486
1.0059811,112.685234
0.84413767,108.2791
0.91062236,105.62107
1.0113729,103.67684
0.92014724,100.40192
0.92575884,97.65138
0.9963306,97.30346
0.8855462,92.75382
0.8915442,90.843
0.8826399,85.6719
0.73340386,83.63424
0.7424566,80.765495
0.7358813,78.13437
0.62619704,75.212944
0.7204613,71.03597
0.53705484,69.39391
0.4843415,68.736725
0.43714246,65.21235
0.47170237,63.80465
0.4123323,58.123005
0.43447697,55.1421
0.4092537,53.861137
0.38435873,49.40901
0.37609655,49.43808
0.4394768,47.608883
0.33733854,41.52765
0.4179472,40.07985
0.32982376,40.0
0.31179976,40.0
0.37380058,40.0
0.31941652,40.0
0.22855282,40.0
0.13081007,40.0
0.116375946,40.0
0.08944429,40.0
0.07570549,40.0
0.12686269,40.0
-0.03550061,40.0
0.011974627,40.0
-0.08536558,40.0
0.003551107,40.0
-0.06272003,40.36329
0.043146458,46.671017
0.031620674,52.431236
0.14955461,54.088806
0.25296938,60.834663
0.25171658,65.4404
0.38438082,66.317924
0.49236143,76.99317
0.55817467,74.21374
0.7264226,81.81745
0.8131695,87.19024
0.85215557,93.504654
1.0211226,97.74961
1.0669945,104.08307
1.1399858,108.8976
1.203928,115.43049
1.1756876,119.467766
1.3453667,121.17458
1.2278342,124.73357
1.3492503,126.609886
1.2934232,132.64905
1.2962757,130.69533
1.3032498,134.66669
1.2904783,137.55315
1.3484637,136.71945
1.3551643,141.7805
1.373369,139.67964
1.3698732,143.4939
1.3140507,143.22792
1.2711391,141.0762
1.2099333,139.35896
1.2614522,138.19307
1.1465998,136.46355
1.1879258,135.75888
1.1345496,130.27203
1.0865124,127.16649
1.0663868,129.21295
0.989799,126.96397
1.1074623,119.74412
1.0233027,119.5476
0.9499815,116.5387
0.93809444,115.996185
0.975919,109.38377
0.92080885,104.47388
0.914659,109.215836
0.93989754,102.596985
0.9078769,98.74519
0.8544154,97.152306
0.8918301,92.348915
0.87632275,90.24103
0.768915,86.08798
0.74586105,87.34177
0.7167922,81.20267
0.5886311,80.99881
0.64623594,74.624306
0.599693,76.43502
0.5102473,74.819885
0.5004352,70.44987
0.44996443,67.829285
0.5068291,64.67733
0.40057367,62.370003
0.34987524,57.244892
0.3616729,49.680317
0.3853084,53.73495
0.3528073,46.527363
0.33159867,47.8103
0.37924105,43.067898
0.41594994,41.979275
0.35576224,40.0
0.32512105,40.0
0.3549702,40.0
0.33152783,40.0
0.2580693,40.0
0.2540731,40.0
0.23420587,40.0
0.17976852,40.0
0.11621729,40.0
0.13014397,40.0
0.17505655,40.0
0.05572335,40.0
0.007902432,40.0
-0.010885218,40.0
0.06861819,42.309383
0.1696188,46.82591
0.16509996,48.556065
0.19576946,52.864223
0.25901887,51.204384
0.44999576,61.85198
0.5049703,65.63931
0.5164811,72.91159
0.61063385,75.14413
0.7786864,79.724236
0.85960263,88.195946
1.0622983,91.79394
1.0937034,95.023865
1.1729827,98.67985
1.1874634,104.020004
1.3031368,112.376915
1.2855293,110.47885
1.3111395,115.03898
1.3354155,123.80224
1.4576665,123.86837
1.5008773,129.80994
1.4660939,130.48932
1.522546,135.98753
1.487151,137.4494
1.5058674,137.12149
1.5770338,138.7154
1.5560726,142.06462
1.5037557,141.35023
1.4371032,138.6901
1.510726,136.13426
1.3425664,137.71054
1.2860816,136.34993
1.2328753,134.4338
1.3828064,134.777
1.3987309,131.79588
1.2731035,132.40645
1.1875184,125.307556
1.2296029,124.956154
1.2958058,124.71325
1.1059136,122.55658
1.2032746,119.05803
1.2101203,112.28982
1.1333662,107.34013
1.1309979,109.36334
1.1293323,107.422264
1.0832835,101.2459
1.1012951,100.54624
1.1504458,96.295815
1.1672952,94.75254
1.1224973,92.20357
1.0103449,88.94052
0.99842924,87.36069
0.9636824,85.58237
0.97850037,83.918724
0.9017725,76.56043
0.880482,75.20733
0.8399775,73.67711
0.7998721,71.17027
0.7371078,66.17853
0.70436484,66.00329
0.6556349,61.445957
0.6599375,57.560856
0.64329845,56.6273
0.6367645,53.688263
0.6353095,50.844044
0.64470524,44.884052
0.59123796,44.79836
0.6633873,43.45945
0.63887006,40.0
0.68704194,40.0
0.67621017,40.0
0.65429235,40.0
0.52427864,40.0
0.5576477,40.0
0.5173606,40.0
0.46708015,40.0
0.3429518,40.0
0.49513352,40.0
0.38307405,40.0
0.30611798,40.0
0.30519474,40.0
0.23944366,40.0
0.2616301,40.0
0.33956185,42.60347
0.42207104,46.378803
0.47140306,50.15247
0.53238297,56.503693
0.58986455,59.749153
0.71187407,66.49294
0.8295505,67.74773
0.9120755,72.99869
0.9931017,77.39528
1.1235492,84.0523
1.2074332,91.08024
1.3240051,97.9678
1.4018292,96.17239
1.4848413,104.463974
1.5868491,105.90028
1.5006505,112.46991
1.5843557,116.756325
1.7126063,118.62636
1.7212054,122.80043
1.7517571,131.55087
1.8529184,133.98203
1.8120779,134.79918
1.757542,135.615
1.9040275,137.70657
1.8490472,135.97125
1.8257471,140.37529
1.7009511,139.38274
1.7293432,140.5214
1.7451077,139.92198
1.7701222,137.40752
1.7786125,140.26347
1.6749058,134.03964
1.6193931,134.38226
1.596407,132.5215
1.6342332,129.63948
1.5931337,126.241005
1.5280997,126.36887
1.5516404,126.46093
1.499449,124.44561
1.415824,119.91281
1.4848586,116.01626
1.337808,114.88416
1.3860191,109.39086
1.464314,108.38919
1.4147568,106.22077
1.3634663,99.95823
1.4738971,98.818825
1.3843824,93.13374
1.2857953,90.92512
1.3354052,92.10235
1.3266156,85.014534
1.2478714,87.55347
1.2375156,79.613075
1.1271306,78.68262
1.1796663,77.86632
1.037177,75.17919
1.0682467,70.417496
1.0519955,66.010475
1.0176519,66.05093
0.92636794,62.310413
0.90231436,61.46636
0.90113646,57.450485
0.820352,55.37571
0.91287035,52.134064
0.8607844,46.309875
0.8288645,48.015373
0.9334314,42.934555
0.847006,40.0
0.9527146,40.0
0.87280643,40.0
0.88375115,40.0
0.840324,40.0
0.7618199,40.0
0.75118923,40.0
0.6804312,40.0
0.755856,40.0
0.5827206,40.0
0.6551769,40.0
0.56662035,40.0
0.53869456,40.0
0.5472968,40.0
0.5503206,40.0
0.5689587,42.85591
0.5226398,45.052
0.52168053,46.626194
0.6776362,51.879116
0.7051404,60.642704
0.88379824,63.275963
0.89571106,66.11983
1.0330628,68.82867
1.236163,78.83933
1.2353828,79.54949
1.3637868,84.3477
1.4627247,91.58471
1.5210152,97.75823
1.6514719,102.10559
1.6541044,108.07876
1.739957,113.20922
1.7046318,115.69163
1.8438647,121.63113
1.9149868,121.45865
1.918556,124.01307
1.8975594,128.16971
2.0091498,133.36234
2.003574,139.028
1.9721098,138.16524
2.02522,135.8994
1.964195,139.54514
1.9154352,143.17188
1.8928361,137.50432
2.0057395,140.53107
1.9235464,140.21504
1.8206624,137.24821
1.8483449,137.72253
1.841701,134.425
1.8312045,131.71976
1.6773342,133.04146
1.7137213,129.46568
1.6190717,127.566956
1.5822234,126.26784
1.566359,126.86179
1.5839623,120.577705
1.5149757,116.67159
1.5045855,118.12901
1.6008525,111.70322
1.3878552,108.32551
1.4386995,105.92575
1.449209,103.44133
1.3984426,101.85062
1.5188428,99.25624
1.3915211,93.475174
1.3946861,91.55119
1.3609703,90.2797
1.2860044,84.36051
1.3043333,85.01612
1.2380123,81.2702
1.1376804,76.82848
1.2492377,76.50835
1.1206828,71.03131
0.98733115,68.84216
0.9352334,65.62979
0.9451143,65.36634
0.9222986,61.77368
0.9395308,59.57653
0.85926056,53.927265
0.918479,52.604015
0.8563586,49.637672
0.8672973,44.82004
0.8736995,43.80653
0.93342584,40.0
0.8662215,40.0
0.8796622,40.0
0.91705686,40.0
0.8048389,40.0
0.746187,40.0
0.75052446,40.0
0.7047967,40.0
0.67038214,40.0
0.63525164,40.0
0.59151417,40.0
0.5359721,40.0
0.56075096,40.0
0.51903665,40.0
0.4999029,40.0
0.54649717,40.0
0.5135395,44.107536
0.5925203,44.529087
0.5710386,51.218876
0.6831232,55.764122
0.6300804,59.82575
0.8117832,65.182274
0.9893535,70.06135
1.0291244,74.109856
1.1230702,77.306984
1.2781044,85.637695
1.3063297,90.98822
1.3748548,92.95425
1.497333,98.13255
1.505909,108.251526
1.6436462,109.61932
1.7126629,111.953224
1.7397001,117.063095
1.7944093,123.6906
1.837236,128.3955
1.7609811,133.51767
1.8900608,134.51213
1.8215777,134.60564
1.7599772,140.24065
1.782206,138.44882
1.8730229,142.0927
1.9106594,139.17044
1.805352,138.66283
1.7696887,138.23326
1.6586423,141.44937
1.7273167,139.05022
1.6996188,134.04237
1.5921713,135.41791
1.5955019,134.27975
1.5549916,134.56812
1.5055463,130.41869
1.4689609,127.82261
1.4176809,125.26911
1.3198876,122.68094
1.3378402,121.06704
1.3716177,117.31916
1.3755243,116.70521
1.3154068,114.57068
1.3097636,110.397675
1.2507077,108.086945
1.2146367,102.12715
1.3296602,101.16984
1.1989089,100.83138
1.1627485,98.44165
1.221059,94.52345
1.2139932,90.185
1.1641273,86.955795
1.0112134,84.00113
1.1496348,80.56891
1.0330632,77.89783
0.956824,75.2582
0.83102095,72.55425
0.84286183,70.51873
0.8137509,68.643326
0.7214228,66.209404
0.79521805,60.762886
0.7109093,60.83812
0.70162296,55.201702
0.55462736,50.38418
0.6271879,50.21478
0.5066067,47.152084
0.66837263,45.64659
0.63983494,41.84215
0.57917094,41.19544
0.54497254,40.0
0.60935503,40.0
0.66541004,40.0
0.47047102,40.0
0.5410075,40.0
0.44876143,40.0
0.32558787,40.0
0.462323,40.0
0.27527073,40.0
0.2688344,40.0
0.21926112,40.0
0.22222833,40.0
0.14103809,40.0
0.16465949,40.0
0.20664166,42.142296
0.2696432,43.566635
0.31799376,48.777546
0.31538606,49.80302
0.41360453,59.139683
0.568564,62.82325
0.60371214,67.172615
0.704669,72.067505
0.8433917,76.19323
0.8934358,83.44349
0.97330594,84.60418
1.1686054,89.85463
1.1742859,96.00023
1.3172408,105.5176
1.2942057,104.806656
1.3514663,113.73945
1.4665968,118.46618
1.4214222,122.61954
1.491948,124.82818
1.44181,129.92969
1.5425634,127.05527
1.4982885,132.35548
1.4221572,133.92245
1.4774278,138.33517
1.5074058,136.01692
1.5431912,138.89032
1.4470869,140.02647
1.5248011,142.863
1.4319429,139.10059
1.3565556,140.50943
1.426771,140.9746
1.331336,137.61314
1.2837942,133.86574
1.3154126,135.9476
1.2688355,132.83875
1.259976,130.83267
1.2051948,126.65481
1.1539346,123.873184
1.1085699,123.42082
1.0553707,117.20956
1.077606,119.79695
1.07635,111.432236
1.0277923,109.18453
1.0032853,107.81324
1.056426,105.61154
0.9781125,100.75035
0.8817946,103.03361
0.8843948,97.45044
0.87724257,94.84576
0.88912684,91.83091
0.81171376,90.01547
0.8768764,84.13302
0.809629,85.20668
0.68618625,80.59667
0.68512785,77.42459
0.6150861,74.48236
0.6768287,69.69328
0.47254652,68.72055
0.4846833,64.44981
0.52971333,65.16269
0.40559456,60.9582
0.34434706,62.54235
0.41226014,56.174202
0.37786886,49.57315
0.39149255,46.509754
0.41329062,44.08857
0.38641486,46.61397
0.41322848,40.989037
0.37211895,41.212227
0.35944268,40.0
0.339324,40.0
0.34184763,40.0
0.17196697,40.0
0.24637386,40.0
0.25292045,40.0
0.21888077,40.0
0.04281273,40.0
0.07065976,40.0
-0.054880645,40.0
0.07168608,40.0
0.03161333,40.0
0.013912267,40.0
-0.08704248,41.26564
-0.08072273,44.335556
0.033056203,49.716095
0.07289055,53.463814
0.13678813,57.761036
0.23117538,60.728336
0.43099022,67.25762
0.4642374,70.579384
0.64838856,76.22272
0.5575262,80.75341
0.65378845,85.68559
0.83183885,89.24134
0.92868525,95.139114
0.94930434,99.62114
1.2055426,105.5855
1.2214221,108.67764
1.1875969,116.641365
1.2253616,119.08739
1.2294519,123.06613
1.3765447,129.45706
1.3164626,130.72363
1.3164647,132.52702
1.3026737,135.5909
1.4445671,138.32368
1.3986273,138.73521
1.3932728,140.68819
1.4004365,140.94739
1.3785983,138.83296
1.3757302,140.32437
1.4418468,139.16887
1.3088045,136.21317
1.2576703,137.54663
1.3209003,135.21016
1.2484714,136.52438
1.0815794,133.46202
1.1221769,131.52628
1.0371183,127.88645
1.1127809,124.48252
1.1098018,120.705185
1.0069014,120.583405
0.9161708,116.93558
1.0144401,113.19718
0.9916805,113.90954
1.0018922,109.93938
0.82138,107.09349
0.8902142,102.78113
0.87218845,100.47584
0.9438148,98.82529
0.88486254,95.44209
0.8249252,93.04304
0.8066073,89.710526
0.72692907,83.318886
0.76798904,86.49932
0.75498456,84.11629
0.70290536,74.95336
0.543012,76.896736
0.5133287,72.96131
0.4070235,65.23349
0.5023337,69.58351
0.42622268,66.58173
0.44421193,62.73675
0.4550178,59.717796
0.3762714,55.479897
0.36472005,52.69209
0.30018556,49.98606
0.3689092,48.71225
0.2576191,47.981697
0.32126582,42.38479
0.28268823,42.213783
0.32922834,40.171906
0.40246662,40.0
0.38033068,40.0
0.20366538,40.0
0.24475181,40.0
0.21816765,40.0
0.15017305,40.0
0.093248956,40.0
0.11079778,40.0
0.039519347,40.0
0.08914026,40.0
0.08380052,40.0
-0.008012917,40.0
-0.017519578,40.0
0.034942273,42.468636
0.104233325,46.16127
0.118068285,51.002373
0.12244463,52.07217
0.30694768,57.18021
0.42340872,63.145073
0.45338702,69.234
0.60372806,73.46602
0.6719144,77.44361
0.772108,81.67117
0.84704506,85.90534
1.0229807,91.44924
1.0960357,97.1156
1.1782835,103.361984
1.2418619,106.32559
1.2627953,113.14812
1.3459152,119.53415
1.409004,123.70641
1.3555416,124.53518
1.4708768,129.76126
1.4579066,134.17046
1.492861,134.17482
1.4886503,136.116
1.5038185,139.359
1.5513129,140.19562
1.4562007,137.09984
1.4157381,136.99745
1.478804,140.15302
1.4476326,141.88129
1.438914,138.56747
1.3500577,137.91852
1.3924471,140.39754
1.4035659,134.53506
1.3611653,131.9268
1.3648384,133.09439
1.2575788,131.7171
1.2917224,128.82158
1.1836593,125.859055
1.2742535,121.59005
1.156316,119.93736
1.0853525,114.53138
1.121897,113.39345
1.0981036,109.93667
1.0998154,109.363686
1.1402333,105.95343
1.041031,102.34268
1.0774189,101.72546
0.9948364,97.72925
0.996286,92.51802
1.0157461,92.71688
1.0211868,87.28593
1.020711,85.79181
0.978023,81.1742
0.97721916,79.70964
0.8927245,75.75379
0.8619617,73.43805
0.78431624,72.003685
0.6763991,64.49486
0.76059127,63.811428
0.6490552,59.7987
0.7038305,56.45293
0.6881219,59.20133
0.59605914,54.775574
0.6549058,51.081173
0.66887426,49.7281
0.642021,47.394062
0.67398536,40.0
0.5616067,41.938732
0.5621061,40.0
0.5823803,40.0
0.609248,40.0
0.5240296,40.0
0.49594334,40.0
0.49213213,40.0
0.4470693,40.0
0.45262486,40.0
0.3663105,40.0
0.3636509,40.0
0.28756937,40.0
0.3280976,40.0
0.32966942,40.0
0.37431487,40.0
0.30081528,42.874176
0.29130155,44.33796
0.3887164,50.83995
0.4529686,54.87363
0.56882054,54.05896
0.6164068,62.40028
0.67030376,67.05396
0.81789976,71.14814
0.88400286,77.95671
1.0598147,79.751144
1.1421353,85.51547
1.1865965,87.51067
1.3404689,95.03923
1.3612465,99.013756
1.4124395,107.02874
1.4318249,110.75225
1.6868659,117.0561
1.6244519,119.733795
1.7439632,126.98318
1.716696,126.88287
1.756764,128.00237
1.753602,129.62347
1.7776854,131.57365
1.7388641,137.65729
1.8510898,139.81238
1.8265766,135.63815
1.7483933,139.34439
1.7172098,140.49629
1.6656145,140.2591
1.7226641,137.85185
1.6845491,140.4713
1.6696647,138.94217
1.724481,137.23729
1.611592,135.04361
1.6845834,130.76445
1.6077965,132.37411
1.5567243,130.5286
1.5188559,128.99747
1.4625531,122.14569
1.5150452,123.56332
1.4045427,117.90673
1.4735394,113.94798
1.3967744,111.46507
1.3738241,105.19845
1.4523487,105.683044
1.4104258,101.41243
1.3389331,99.78524
1.3524563,95.93714
1.3859086,93.93249
1.3654897,95.583916
1.3594978,87.96244
1.2771028,90.07236
1.1397054,83.1847
1.1366663,81.31957
1.1916261,77.36745
1.1179758,73.440056
1.0847329,72.807144
1.117498,69.99656
1.063849,66.93553
0.97193384,65.6379
0.9346487,64.31082
0.900307,57.67676
0.86602145,55.159115
0.8388186,54.18984
0.86299604,50.38785
0.83100367,46.002182
0.80995035,48.683083
0.86467737,40.0
0.91106045,40.56131
0.8955401,40.0
0.82731307,40.0
0.80032414,40.0
0.784815,40.0
0.7756198,40.0
0.70502687,40.0
0.76680297,40.0
0.693096,40.0
0.6204588,40.0
0.62846136,40.0
0.5255653,40.0
0.6051436,40.0
0.49528918,40.0
0.5293787,40.136303
0.5821003,45.07597
0.68231547,50.301216
0.61934245,50.6993
0.61842173,54.247746
0.78849185,57.20498
0.9177117,66.479
0.93277603,67.738785
1.0938128,71.63286
1.22963,78.86801
1.3477588,81.77463
1.4082875,85.59807
1.5134509,89.968185
1.639993,95.61334
1.7357745,102.01088
1.753347,110.58964
1.8018082,113.92665
1.902859,117.859375
1.866099,119.65807
1.9445941,125.21904
1.900939,126.55514
1.8830751,133.3986
2.033503,133.216
1.896577,134.86151
1.9665108,139.6656
1.9351637,137.42253
1.940853,140.74281
1.9708052,138.87195
2.03323,137.74039
1.924042,139.52524
1.9549215,138.20697
1.8152103,138.399
1.7837088,134.98259
1.8244758,136.10153
1.7084174,133.16722
1.7215958,130.9509
1.6534106,131.4211
1.687759,128.0267
1.5800915,123.38561
1.6973983,118.78611
1.5602661,119.197426
1.5648277,113.94564
1.575178,112.48165
1.509291,108.97188
1.5289574,106.47822
1.4232273,103.89528
1.4755604,101.66804
1.4415865,97.41522
1.4042089,93.422
1.4353929,92.62178
1.3995115,93.03725
1.3590051,87.516174
1.2713722,83.17755
1.2665751,81.45019
1.1973612,79.08691
1.1812216,74.34157
1.2274804,72.97018
1.1218449,71.067764
1.1421589,65.648285
1.0051578,64.31494
0.95516413,63.3096
0.98422694,56.29861
0.9549475,55.23221
0.8817937,54.585224
0.9356321,50.493694
0.9347404,47.07312
0.8630252,44.80654
0.9055331,43.093586
0.891096,40.026882
0.7858632,40.0
0.8933556,40.0
0.8834161,40.0
0.842389,40.0
0.70660096,40.0
0.70081437,40.0
0.82101727,40.0
0.6192819,40.0
0.5490673,40.0
0.5703132,40.0
0.53595126,40.0
0.447778,40.0
0.5200725,40.0
0.48759335,40.0
0.4912477,45.34273
0.650936,48.381992
0.59337306,52.350887
0.5957921,51.19361
0.58987653,57.073658
0.8402901,62.164352
0.82150704,64.91918
0.9821655,71.70971
0.9915003,77.59278
1.2396145,84.100624
1.2389035,89.79348
1.3409717,92.97572
1.473824,97.48545
1.5095742,103.63858
1.6476117,105.471405
1.6579458,112.805534
1.7489715,114.433945
1.8349973,122.17285
1.7315564,124.32088
1.8121003,126.40603
1.8629327,130.6094
1.8095258,133.05435
1.8259679,137.24998
1.8264191,135.96286
1.9688419,135.319
1.8220745,140.23694
1.789962,138.70972
1.7424701,142.4979
1.7886345,141.85425
1.7465105,140.86934
1.7037748,140.78006
1.6910129,136.78343
1.6606566,137.51564
1.5466717,134.04749
1.531995,126.16375
1.4888191,130.24477
1.5172782,125.58141
1.4621997,122.639366
1.4766613,121.72943
1.4360352,119.425606
1.4069047,116.535545
1.3794658,113.045494
1.3986415,110.641075
1.4057255,109.34477
1.2981814,107.245636
1.2398646,101.321945
1.1944106,102.62435
1.2470473,96.35895
1.1468624,92.7821
1.2585253,90.62757
1.2098997,91.5337
1.0957129,86.28913
1.1163895,82.88686
0.98667073,78.31759
1.0097611,77.885185
0.8321259,78.30855
0.9291529,71.218376
0.90099645,70.29326
0.7987178,68.629
0.79310125,63.344475
0.83135736,60.165894
0.7795885,57.269943
0.6792643,52.609978
0.6963693,50.337246
0.64282095,49.067326
0.65956634,43.51562
0.6746777,45.8352
0.60131997,40.546104
0.6818419,40.0
0.65695924,40.0
0.68391323,40.0
0.5797527,40.0
0.5338194,40.0
0.50294805,40.0
0.38845843,40.0
0.44835627,40.0
0.35877886,40.0
0.33528668,40.0
0.15809387,40.0
0.18180396,40.0
0.16589604,40.0
0.13013987,41.31367
0.20730686,46.134937
0.18164699,44.80942
0.29841197,44.91774
0.38615116,46.568085
0.37043992,54.808323
0.4628901,58.80013
0.5152196,63.93709
0.6884999,68.3282
0.7202653,77.09369
0.91485876,79.06036
0.95395076,84.759384
0.9878726,93.87229
1.0710464,92.39165
1.2542598,98.698746
1.2853764,104.50718
1.2992749,108.13862
1.381195,113.404175
1.4553709,118.13125
1.5028869,121.91373
1.5638363,125.14626
1.5350144,132.46458
1.5699866,132.80482
1.5577217,136.2781
1.5547259,139.0342
1.5715903,138.3234
1.61081,141.54889
1.5116193,141.40926
1.5563278,140.64719
1.5036963,141.36356
1.501936,137.9745
1.4563466,141.26549
1.3636812,137.92323
1.4436225,137.96796
1.4004768,131.23994
1.3087687,131.65562
1.2316942,129.22054
1.2124475,128.20853
1.2240369,126.73248
1.2049448,121.610916
1.1199343,122.80548
1.1469182,118.301704
1.1608534,116.15435
0.98919153,112.639595
1.0431297,110.60919
1.0151261,105.562256
1.1084065,109.03965
1.0269626,101.072235
1.001177,95.280655
1.0086993,94.14949
0.87586224,94.41842
0.9073489,90.7657
0.9189214,85.81303
0.76954645,84.18422
0.7735022,80.634575
0.6941525,79.42825
0.6527701,77.75619
0.6011539,74.48687
0.49040446,68.68134
0.5810034,66.27825
0.57018065,68.46814
0.4865986,62.001465
0.4048507,59.14786
0.5234043,56.866264
0.39780137,53.401897
0.4143715,51.514984
0.45827702,47.409267
0.32498038,48.255028
0.34447277,42.94407
0.38014,40.0
0.23977268,40.0
0.40302682,40.0
0.31786042,40.0
0.27729398,40.0
0.29408598,40.0
0.2517164,40.0
0.14419316,40.0
0.095475234,40.0
-0.021254998,40.0
0.040804695,40.0
-0.027913766,40.0
-0.056650802,40.0
-0.03966643,40.0
0.016886923,42.26327
0.023787506,43.000786
0.045775775,44.994022
0.1296075,52.4893
0.09457672,52.60612
0.22442265,57.409065
0.34056506,64.73635
0.3801508,68.1513
0.47436634,73.74838
0.62346035,76.57881
0.6697904,87.05587
0.774929,89.59233
0.890162,96.17737
0.9213386,100.14362
1.0338976,102.274704
1.0900643,109.2337
1.201997,113.81524
1.1457901,115.65052
1.2963576,120.002205
1.3266252,122.0706
1.2735407,127.91574
1.4294728,131.3793
1.3699005,133.42792
1.4123306,135.61707
1.4055852,135.2006
1.3514795,140.60825
1.2943803,139.22894
1.2603321,140.98596
1.292772,143.61444
1.2726246,138.24419
1.3890668,141.9185
1.3123404,143.89613
1.2659996,136.69373
1.2346852,136.10753
1.1651263,135.88219
1.167524,133.75609
1.1142771,129.96507
1.0450876,129.24417
1.0671918,126.27277
0.9996773,121.25379
0.93967944,119.19874
0.9421973,115.84533
0.99299634,114.828476
0.9526389,110.66217
0.93230313,107.01892
0.96905136,108.56004
0.8599331,102.71257
0.9451836,97.4061
0.9352549,93.30321
0.8031523,92.416115
0.81077003,90.745186
0.7840377,88.56588
0.7605734,87.95853
0.73701525,81.482475
0.6792469,80.61157
0.60352594,80.174995
0.62003493,73.83229
0.5140733,71.82005
0.5730073,71.179665
0.47108227,66.07722
0.48777443,61.23379
0.48821247,60.12028
0.4840798,57.227924
0.3869362,53.17535
0.35812774,51.46215
0.35401994,49.413036
0.22282161,48.75677
0.30529857,45.50112
0.3311306,42.755207
0.2864229,40.0
0.37275785,40.0
0.31028244,40.0
0.31234002,40.0
0.2788933,40.0
0.25493085,40.0
0.14546472,40.0
0.092981204,40.0
0.08426998,40.0
0.08100673,40.0
-0.007220383,40.0
-0.013050834,40.0
-0.009263216,40.0
-0.027814154,40.0
0.014763572,40.33917
0.07453766,45.760925
0.13644971,48.471397
0.22508883,52.39891
0.22271591,56.915844
0.34362108,59.145702
0.4432327,66.80228
0.45198736,70.14136
0.5541691,75.547554
0.65516,81.21349
0.8262487,86.99634
0.8457177,91.44541
1.050341,95.093605
1.0581292,102.39838
1.085882,103.326195
1.3306894,113.404236
1.3109971,113.831856
1.2096676,116.13568
1.3324108,122.56735
1.4246039,125.876434
1.3295071,129.06111
1.4977437,131.96933
1.4952369,133.39983
1.4067851,136.28566
1.5767881,135.23288
1.498573,138.91333
1.5271277,143.21461
1.5636699,142.95578
1.4498324,139.1406
1.489048,142.38408
1.436276,139.9103
1.3942245,139.00063
1.3817786,138.5242
1.2545019,135.38141
1.2604752,132.82956
1.1857575,131.24399
1.3039267,126.67702
1.2312073,126.74973
1.0318918,120.763695
1.1293722,124.58104
1.2004162,119.95772
1.1510535,118.49997
1.1395353,111.22853
1.1301968,108.44091
1.1170057,109.23242
0.9878128,102.47332
1.1234889,100.128685
1.1000481,98.58384
1.051235,96.0875
0.9161512,92.365425
1.0215352,89.43394
0.94683576,87.829315
0.93341494,85.74542
0.87518364,84.23812
0.8470951,79.04633
0.81859136,74.87913
0.8212751,73.573425
0.73400205,67.26439
0.6676909,67.803955
0.6360779,66.03943
0.5815469,58.11798
0.66656923,58.524426
0.6378296,53.53744
0.6007565,54.795517
0.6142075,47.1366
0.6245995,44.513824
0.52066416,45.643936
0.56666964,41.904034
0.57346976,40.0
0.58882713,40.0
0.5389804,40.0
0.53948665,40.0
0.49474028,40.0
0.4913613,40.0
0.6380721,40.0
0.4086669,40.0
0.41678706,40.0
0.4167454,40.0
0.3124521,40.0
0.30695406,40.0
0.26402682,40.0
0.21077797,40.78473
0.22757211,41.815178
0.37316942,41.740486
0.31345886,47.872276
0.3284782,53.30455
0.51934576,56.462772
0.5607507,59.645916
0.72051096,68.12891
0.754075,66.97456
0.8405041,73.550156
0.96395123,76.36314
1.0620013,82.970795
1.1824679,90.037636
1.2643338,95.01332
1.3290297,100.44266
1.3992037,108.76822
1.5303987,109.94318
1.5534918,113.986916
1.6891639,117.20509
1.6941814,123.92742
1.666175,123.195114
1.8320862,130.05327
1.7189292,128.29953
1.7644012,133.71088
1.8227309,135.28177
1.7826682,137.65967
1.8140535,140.58937
1.8617022,138.7664
1.7842232,143.19846
1.8002437,139.66756
1.7062609,137.88559
1.626338,139.8929
1.6414151,135.72144
1.5416161,135.07977
1.5805161,136.46375
1.5200548,130.73907
1.5551575,131.7962
1.4330443,129.77965
1.5205089,128.28165
1.49702,123.28754
1.4653376,122.93596
1.4477284,120.479515
1.4532408,114.49325
1.3955184,116.465195
1.3503877,112.67673
1.3322828,108.70445
1.3346473,104.31125
1.4192692,103.01103
1.2507833,99.50409
1.307117,93.99271
1.312242,91.73277
1.2890388,87.618385
1.330015,85.963875
1.2451397,87.65891
1.123867,83.02835
1.12916,79.22842
1.1590222,78.63652
1.0436623,74.54163
0.90920025,72.25704
1.0554276,69.43345
0.9072393,63.41243
0.9296121,63.059612
0.94448286,56.48565
0.90820605,56.371834
0.9185862,55.9505
0.8969321,51.433502
0.879086,45.757755
0.87297183,45.019695
0.92411876,41.075344
0.89145535,42.386517
0.788556,40.0
0.8557198,40.0
0.7748774,40.0
0.7933354,40.0
0.7626133,40.0
0.7540714,40.0
0.6411939,40.0
0.68827283,40.0
0.60494304,40.0
0.5280913,40.0
0.52429646,40.0
0.49468687,40.0
0.5576058,40.0
0.5056908,40.790314
0.49424618,42.385254
0.5171609,46.983063
0.5816292,46.27027
0.74143463,51.514427
0.7663863,53.822792
0.81818914,61.386154
0.99335563,67.17575
1.0568537,69.796486
1.218186,75.572044
1.2556846,81.73872
1.2679461,83.89819
1.4889632,89.66959
1.6500508,94.475365
1.6248565,100.15564
1.7060105,107.05501
1.7086593,111.50467
1.8762591,115.02097
1.7662659,118.242874
1.8710418,120.24234
1.9317683,129.63017
1.8376044,131.03305
1.9682941,133.6396
1.9361504,135.85986
2.0161922,139.11937
1.9540443,138.62038
1.9620796,139.74231
1.9363519,141.04225
1.9567465,136.50282
1.8426131,140.01556
1.8802652,139.19698
1.9037566,139.27795
1.8205258,140.93239
1.7650857,137.43071
1.6822027,132.96573
1.7128997,133.24614
1.7135938,127.43911
1.7473663,126.28941
1.6098655,125.091034
1.5050592,123.86129
1.5666407,120.75594
1.501236,118.94288
1.6686852,114.55506
1.5704722,112.8267
1.5394645,110.41865
1.6053307,108.45059
1.4583067,102.8286
1.4883744,102.327515
1.3644608,95.511604
1.4370817,95.4379
1.3783338,93.100586
1.3880788,88.884514
1.3680477,87.657074
1.3200022,84.82563
1.198399,80.97178
1.2079848,77.33131
1.2124939,69.33023
1.1197804,70.551636
1.1035628,70.93746
1.0199083,66.05931
0.99569464,63.08151
0.9803639,60.004448
1.0421329,59.14686
0.88811034,52.479877
0.87291324,52.464176
0.8893277,48.89691
0.9180524,46.909622
0.9348534,47.20202
0.93587726,40.621162
0.8240511,42.89842
0.8633805,40.0
0.86823136,40.0
0.84553945,40.0
0.9038158,40.0
0.7821813,40.0
0.75497055,40.0
0.7345992,40.0
0.6385339,40.0
0.5945144,40.0
0.5980062,40.0
0.4469494,40.0
0.49277845,40.0
0.5317346,41.809383
0.45879474,40.0
0.55608976,41.77134
0.64750296,46.711643
0.6010955,53.676346
0.68402183,52.278954
0.6884969,60.641926
0.8937551,64.77741
1.0055685,68.45833
1.0960133,75.048836
1.147911,78.55363
1.2751327,82.55908
1.2683016,85.76546
1.4176424,93.00392
1.5358416,99.129234
1.6038274,102.694214
1.7333165,108.18401
1.7023724,114.08732
1.6809672,114.03763
1.7863,124.197914
1.7814039,124.30538
1.8797493,127.923
1.859418,132.1542
1.8224123,133.70198
1.8711822,136.1583
1.9593823,137.56136
1.8801856,140.22308
1.8134373,139.38977
1.8203484,140.98418
1.8511555,140.00688
1.7305394,136.9909
1.7802545,137.31976
1.6820736,136.44913
1.605798,137.29663
1.7148676,138.5248
1.6267263,135.14462
1.5478286,127.58828
1.5579454,128.96431
1.3870026,127.33858
1.4846264,124.90164
1.4871758,121.61937
1.4122375,116.0482
1.3379823,116.69477
1.2951901,112.51432
1.4391953,109.66731
1.3228458,105.97462
1.3403728,105.505615
1.3008397,102.57786
1.3310007,101.57728
1.2565795,94.67772
1.2530496,90.56928
1.2550038,92.26927
1.1267008,86.10905
1.1637625,86.91215
1.0789845,82.853195
1.0233449,80.05561
0.99487907,75.76089
0.8914892,72.87665
0.9100526,69.13549
0.86702204,66.95503
0.8554243,65.05048
0.719472,66.09983
0.7843746,57.642925
0.7142104,54.37787
0.75910586,52.048664
0.73420405,47.221138
0.6763184,47.304543
0.7238795,44.482887
0.5786622,40.0
0.6272459,40.0
0.6490911,40.0
0.6265916,40.0
0.5979415,40.0
0.5319902,40.0
0.5289783,40.0
0.52260363,40.0
0.3714474,40.0
0.38946366,40.0
0.30888397,40.0
0.40760154,40.0
0.29101846,40.0
0.20899399,40.0
0.2867031,40.0
0.26270336,40.0
0.27477047,40.1791
0.21976645,49.888073
0.3414264,51.491764
0.36461353,54.4222
0.41920814,56.49309
0.61506677,59.66955
0.76486856,70.19734
0.71059614,71.749504
0.8416052,79.69744
0.93551236,82.487465
0.98287195,89.79932
1.0478544,95.103386
1.2678865,97.09039
1.2809354,102.379074
1.3206046,105.92021
1.3864852,108.69151
1.3658527,114.45395
1.5388541,122.049446
1.5747722,121.41232
1.522795,128.52838
1.6128203,132.62782
1.5401268,132.67506
1.5618163,137.01907
1.512462,134.57085
1.5158571,142.15637
1.5402565,140.72208
