ppg,abp
1.1048481,103.385895
1.154344,106.44137
1.2464075,108.38596
1.2557362,109.73671
1.3262368,110.47049
1.3448112,117.08133
1.3953445,117.52644
1.4855825,120.280975
1.5252901,121.7002
1.6167299,118.5788
1.5347142,124.48447
1.6421514,126.574554
1.6554563,130.76126
1.7384443,127.63927
1.712097,130.58907
1.7397335,131.9081
1.7443352,134.60733
1.7084726,137.20502
1.6865058,135.75801
1.724946,135.81615
1.7653345,136.7168
1.6789237,141.4286
1.7105633,136.88547
1.7718728,137.08762
1.7571393,141.51343
1.81716,134.35796
1.7220354,140.67763
1.6876434,136.51918
1.7066951,137.89679
1.6737173,137.84903
1.6563705,137.80739
1.7217357,139.59085
1.6667264,135.96783
1.6364036,135.74869
1.5736381,134.2401
1.6120938,133.48334
1.5466241,130.74281
1.4859153,130.37871
1.5962292,130.13605
1.4987543,131.47305
1.4464129,128.65515
1.4835197,127.116875
1.4582239,124.40801
1.4574404,121.61048
1.3719357,124.202385
1.4248123,118.28698
1.442131,117.174355
1.3491554,115.376915
1.4664284,116.556465
1.4058839,116.86892
1.3058362,117.48927
1.324977,113.942986
1.2915837,114.97624
1.3152716,112.9085
1.2827352,108.62961
1.3305647,109.43425
1.2912037,105.14456
1.3383622,105.75446
1.2559719,101.77742
1.2086288,102.99438
1.2461486,103.552086
1.2241381,102.34704
1.192392,100.49322
1.0966778,98.39866
1.0904613,99.33164
1.0994018,97.36558
1.0466785,97.67087
1.1198128,94.76324
1.0358982,94.5651
0.97783685,92.07833
0.92596674,87.024445
0.9951609,88.11101
0.87762946,87.55106
0.9284709,84.98492
0.85591924,83.74585
0.89605355,81.2746
0.87192166,82.07561
0.82587487,77.59767
0.8339654,83.45084
0.94073075,76.784805
0.86452764,73.829575
0.881576,74.43279
0.79277146,73.81544
0.94668025,72.21758
0.8838372,71.27316
0.88404554,73.07388
0.84252197,72.2588
0.85108256,70.27835
0.87827975,70.54488
0.89041406,67.318726
0.8723002,69.169945
0.8218438,70.30442
0.73826134,65.952675
0.5909768,65.6267
0.78086746,67.99411
0.6946122,68.49689
0.57188874,67.88467
0.60911393,66.431
0.60546076,70.380775
0.6630224,64.73595
0.5126884,68.93653
0.4816592,67.932045
0.4700225,67.80651
0.44771072,72.61329
0.58865446,72.59593
0.54098046,74.74398
0.5516256,74.66923
0.57912606,75.7174
0.6362138,80.30557
0.66612786,82.20941
0.7602596,80.14439
0.7553814,83.78645
0.8460598,86.36258
0.9323999,89.69867
0.9929545,91.845695
1.0457507,91.320816
1.1377456,100.03993
1.1414472,97.176125
1.3163502,102.729385
1.358404,102.334785
1.5097526,102.402176
1.5347595,108.77437
1.5823771,107.27168
1.5465299,112.9432
1.6936351,117.09088
1.6608,118.80437
1.7834718,118.75476
1.7330447,121.949295
1.8173962,121.96304
1.7852982,122.2164
1.8971123,128.3496
1.8485702,126.796486
1.8702042,127.1588
1.8995601,130.80322
1.8832858,131.51746
1.9749733,136.5425
1.9280015,136.95305
1.9689014,133.89253
1.963195,138.11572
1.9572572,137.17384
1.9277763,137.32787
1.973889,137.09355
1.8960816,138.29437
1.926648,137.253
1.929413,139.57378
1.9697739,141.32281
1.9142684,138.62679
1.9014618,140.44765
1.852771,140.25514
1.8458903,136.1771
1.903336,136.53749
1.8511539,136.68623
1.7071316,134.85962
1.741592,133.01443
1.7204354,135.98013
1.6603881,134.36465
1.5635887,133.52576
1.6717818,129.47757
1.546374,130.43163
1.543393,129.42699
1.5865066,129.23053
1.5142739,121.12836
1.5010008,126.55575
1.4988105,120.3315
1.4913676,119.75061
1.4614983,120.100334
1.556876,118.91205
1.4945276,119.36644
1.4917082,115.903694
1.4660711,116.951675
1.3761735,112.14748
1.3612355,112.273
1.429479,111.54157
1.4392124,110.23472
1.4150152,109.40226
1.3896549,110.84745
1.4516125,109.174995
1.3000976,104.588196
1.2860366,102.767525
1.1852701,103.4266
1.2328469,99.888466
1.2098497,100.08703
1.2017846,98.46416
1.1648455,96.930534
1.0678054,92.53139
1.064505,93.36882
1.0248847,92.440414
0.9969485,91.79545
0.9481273,89.30607
0.8561949,89.260124
1.0212289,86.02058
0.94705266,88.33832
0.9824263,82.00409
0.8220387,84.03945
0.8958516,83.01658
0.78973573,81.977425
0.81805176,81.115364
0.8344814,80.078125
0.84465617,75.854996
0.80607104,78.231
0.7927566,74.402916
0.7472748,74.240456
0.7892081,74.045
0.7895924,72.84643
0.7539784,68.23812
0.7893917,68.07844
0.77240324,68.68604
0.7391952,68.612404
0.748489,71.21797
0.62374264,65.54783
0.660715,72.71403
0.65913993,68.542145
0.589466,66.76136
0.57033813,65.74714
0.57533604,67.52443
0.488459,69.414764
0.5026133,65.31332
0.48496506,65.60029
0.372088,69.33957
0.337331,71.61699
0.37831056,69.689255
0.32521352,71.96174
0.35696146,74.22357
0.2769347,74.73781
0.39679396,72.6107
0.45933765,74.89189
0.4252444,75.81705
0.50915545,80.31952
0.51018375,79.23623
0.5732597,81.12516
0.4979681,84.16728
0.65266126,87.55273
0.729009,89.11452
0.7233565,90.016365
0.8201347,92.229004
0.76972085,96.48559
0.9888589,100.680374
0.9676803,100.40187
1.0895414,101.81648
1.1387,105.11505
1.254726,106.731926
1.1556535,109.47218
1.3991534,109.6045
1.3492959,113.51627
1.3435133,118.131966
1.4775871,115.69139
1.5135024,117.300705
1.566318,120.9144
1.5518856,125.74782
1.5818197,127.6328
1.5605608,132.18658
1.6152083,133.14664
1.6094564,129.88382
1.6598399,133.88449
1.6778407,130.87068
1.6048317,135.41609
1.5954282,134.14029
1.7143087,134.44875
1.5651369,135.913
1.5308557,134.49358
1.5943823,139.2593
1.6107628,138.6744
1.6220354,141.49263
1.641492,140.54004
1.5134194,135.89525
1.4972918,139.25787
1.5072156,138.61708
1.434199,136.9809
1.4957587,139.02211
1.35551,135.6513
1.4690256,135.96008
1.3981948,135.65558
1.333658,134.51466
1.310677,135.89679
1.3358829,130.63287
1.311275,132.82065
1.2418758,130.62065
1.2176608,128.701
1.2253579,123.886734
1.173141,125.97047
1.1484478,124.774605
1.1545463,126.41763
1.0680467,125.480255
1.0756099,120.72711
1.0652297,122.143814
1.0683358,115.78194
1.1432741,118.59187
1.0735373,116.24467
1.049536,114.22617
1.0645728,114.16166
0.9500728,111.309494
0.9658398,111.931694
1.0788512,109.60131
0.96447605,106.868935
0.9354978,106.11876
0.88882244,106.144104
0.967833,104.94086
0.91073567,104.535095
0.78949493,103.459145
0.8841871,98.349556
0.7639716,98.29033
0.75234675,98.249435
0.72939724,98.03874
0.69114244,94.693565
0.62560624,95.580826
0.68034595,94.62636
0.71889347,88.77136
0.55898327,89.65087
0.59306,91.92487
0.48916015,88.44814
0.5140465,90.91523
0.50335425,80.7934
0.42783186,84.64989
0.42992547,82.46499
0.49775553,79.26818
0.4358421,79.301765
0.44986942,78.152016
0.2605327,78.10591
0.46895716,79.6108
0.39991978,75.234955
0.38992786,76.04187
0.37382177,73.05848
0.30653015,72.12714
0.42716122,69.31181
0.3206668,68.2153
0.32788584,68.21651
0.26772374,68.79367
0.30920938,72.92987
0.26186776,69.203804
0.25044173,66.36971
0.21612562,66.15223
0.2691667,70.678116
0.1118552,66.215576
0.13725168,66.16429
0.14322071,67.20088
0.09980127,65.457146
0.04153271,66.02823
0.015786918,67.295425
-0.08148092,68.45017
-0.045344442,72.88229
-0.10470777,71.22753
0.037467044,72.477264
-0.010592213,71.639656
0.04982686,77.30493
0.0088879755,79.19166
0.08166724,76.715515
0.070861384,77.78004
0.15897922,81.81069
0.11846505,82.451035
0.20964098,82.511955
0.2596484,86.16287
0.31925264,90.37279
0.4200372,90.658714
0.5307426,93.78583
0.53140444,96.94266
0.6436481,103.3462
0.6389527,99.72792
0.71374696,102.839806
0.8545679,104.40348
0.87686855,108.63626
0.9424877,109.69309
0.9226722,113.249916
1.055653,114.08963
1.0798903,119.34625
1.1334447,118.39525
1.097208,119.80511
1.2519326,123.55203
1.2130187,125.30633
1.2658044,123.38633
1.3576337,127.41039
1.3650289,132.02715
1.4012176,130.65572
1.3293412,131.65129
1.4070418,133.97281
1.3529319,133.36986
1.3968148,135.28236
1.3589693,135.1245
1.4290826,137.19499
1.3053104,138.92532
1.4128385,135.2065
1.4039654,138.42387
1.3130912,139.79755
1.3741868,136.98428
1.350495,140.77136
1.3384511,139.10086
1.287364,138.53505
1.3049622,137.8294
1.284737,136.78075
1.2707734,136.14796
1.1638296,137.49088
1.2693547,133.77258
1.1644121,137.2264
1.0662355,134.7097
1.0879998,129.81105
1.1323642,129.48785
1.0125816,127.349365
1.088103,127.53614
1.0164315,125.01253
0.9379187,125.0804
0.97223055,126.39011
0.9410365,127.05
1.0429075,122.35219
0.96668166,121.53711
0.8870036,118.86824
0.9195368,119.63852
0.8710368,119.1407
0.9026654,116.291306
0.89037114,117.7341
0.8668615,112.14576
0.9827528,113.28118
0.9934245,109.12218
0.86685026,109.994576
0.87437624,111.007286
0.8059934,109.20488
0.89970624,103.20463
0.80704534,103.30454
0.84983855,105.20949
0.8100921,102.10264
0.7804222,102.03888
0.7705063,99.29387
0.66581166,98.267365
0.6438929,95.36641
0.6439563,99.150764
0.50939745,95.484184
0.60644454,94.44482
0.56616485,91.56775
0.5510121,91.87034
0.52549106,91.322174
0.5270167,91.96866
0.42681167,87.56215
0.5370942,85.038994
0.50431085,83.85624
0.45066983,83.367134
0.45185673,82.24603
0.41848975,82.915115
0.42549786,80.388466
0.34884942,79.98393
0.37289557,78.22789
0.2931704,75.409836
0.38390756,72.69708
0.40984422,75.320526
0.44875324,71.57344
0.4167355,73.78288
0.38752708,72.45617
0.4405539,67.88872
0.4061343,68.7876
0.41867393,67.80152
0.373026,69.24599
0.23709857,66.08974
0.3002321,66.22818
0.29341444,66.16094
0.2050108,66.74572
0.23686996,67.886734
0.13754727,68.151505
0.1982469,67.66516
0.02482189,67.21028
0.14341731,70.137
0.12473635,72.001915
0.046485394,68.78134
0.098950885,71.722275
0.11904989,71.02748
0.10698985,73.999405
0.12836635,74.05056
0.12271417,76.68008
0.10790114,78.37043
0.17768337,78.15725
0.2891633,80.014656
0.29628745,84.10905
0.39755732,83.88748
0.41361153,87.41923
0.5832356,89.165344
0.5160848,89.803215
0.6543108,92.03694
0.77634555,95.79366
0.8413218,98.66591
0.91990054,101.25248
0.958162,101.33057
1.0680776,104.7824
1.0693309,108.85393
1.1940058,109.91343
1.2173303,108.67664
1.2702777,116.474464
1.3358094,116.12528
1.2994958,118.321236
1.4318305,123.16844
1.4532353,123.07016
1.5177928,125.94614
1.5943556,124.75173
1.6033373,127.8186
1.6318527,131.08171
1.5715992,128.99959
1.609515,133.09584
1.60641,132.45007
1.6194906,132.6016
1.6059928,136.98352
1.7117276,137.77707
1.7049476,136.8399
1.6448073,136.1332
1.5609589,140.7051
1.6322305,137.6006
1.6132884,139.07857
1.6790167,137.89987
1.6110308,140.47504
1.6194842,138.16666
1.6770452,138.25713
1.5290794,136.46346
1.5973364,139.83156
1.4755367,136.48116
1.4819025,134.18288
1.5045313,136.07838
1.4098293,134.48524
1.5183352,135.82411
1.4671327,132.7613
1.5134618,130.08107
1.4948621,129.66933
1.3391422,132.20836
1.347605,131.88835
1.382588,126.02329
1.3672445,123.118546
1.3711796,122.80082
1.3018235,121.94482
1.3308206,120.45005
1.3185714,119.09977
1.1850582,120.87933
1.3301976,119.68859
1.2779235,115.19787
1.2954993,115.13346
1.4199387,115.09554
1.3168777,112.68325
1.3471622,112.3404
1.3473378,108.579666
1.3063502,109.52587
1.2390946,107.12902
1.2256746,105.6755
1.2543489,101.95468
1.2217696,102.896965
1.0901712,103.16181
1.0863979,103.104675
1.0800359,99.49861
1.0442879,101.42778
1.0547789,97.88112
1.0000491,96.94785
1.0868938,93.96537
1.0038718,93.34293
0.9808785,94.75445
0.9057773,90.179504
0.84586173,90.738106
0.8868684,86.09264
0.87051857,90.5012
0.881973,87.39362
0.927386,87.14023
0.7837776,88.066734
0.80494004,80.76029
0.8179811,81.06519
0.827354,82.587944
0.8784655,79.46535
0.79851586,78.69184
0.8560969,75.982796
0.803286,72.4776
0.8528793,73.40462
0.78646487,70.37633
0.8298742,72.684814
0.7872164,71.48009
0.8204702,71.414474
0.74039626,67.74463
0.83251655,67.47148
0.6673373,65.86649
0.75678474,69.67258
0.7021354,68.232445
0.58853954,68.18157
0.626665,67.67885
0.67900276,66.85278
0.6330282,68.68473
0.5699434,64.94678
0.56116486,64.65885
0.49540696,64.91391
0.49854162,69.09779
0.5500781,71.19207
0.462762,68.490486
0.5107026,71.541115
0.48699442,71.51482
0.47709382,76.69862
0.5530668,75.78042
0.5578876,73.52642
0.63628006,76.83822
0.5766246,77.34948
0.7620689,82.75817
0.7525183,85.95384
0.85060525,85.05972
0.84741884,88.972404
0.9335705,93.80881
0.9386885,93.31521
1.1285273,94.99293
1.1408978,98.904335
1.1992526,97.8603
1.2583861,100.21925
1.261756,107.24301
1.4238328,107.7332
1.5286788,109.41394
1.5769341,109.58621
1.5719638,113.718735
1.6960828,115.2843
1.7500908,120.98132
1.8750384,118.905655
1.8004446,121.17877
1.8000802,123.47441
1.8567569,127.30917
1.906511,129.5945
1.9201028,126.03442
1.8368586,131.4231
1.8535043,132.98526
2.0095017,132.06882
1.8810471,136.15222
1.993662,133.66327
1.921897,137.26813
1.9492358,135.55833
1.9530073,141.15091
1.945288,136.68784
1.8832507,136.49327
1.8792284,138.16255
1.8569998,140.29764
1.8893745,139.65631
1.9490038,141.09482
1.962148,137.66644
1.8543712,136.0912
1.7904013,140.42026
1.8560045,136.11276
1.8533213,135.04155
1.7960715,138.87709
1.7984242,136.5301
1.6912384,134.6793
1.6919765,132.12552
1.7785197,130.18285
1.6689061,130.0582
1.551894,130.57185
1.5956867,126.27655
1.5547851,126.814804
1.5921706,126.43014
1.4794594,122.847244
1.5738413,124.91101
1.5265285,119.995804
1.576352,120.497444
1.4680859,118.632164
1.5673146,118.68157
1.5020281,119.24558
1.5485077,113.242935
1.4752558,115.76902
1.4471347,111.71392
1.47149,109.2615
1.448063,110.06342
1.4021572,109.60911
1.4507686,108.683
1.3961782,108.104744
1.3213352,102.63476
1.4001222,100.87458
1.3176144,102.0125
1.3295325,103.43532
1.3158417,98.728516
1.2357445,99.59428
1.169627,97.49582
1.1522335,96.23166
1.1905625,94.45258
1.0978054,91.76258
1.0985326,90.39011
1.0493728,90.41528
1.0509386,87.46918
0.9129496,87.12588
0.93396777,89.767555
1.0111946,86.6652
0.93553054,83.757286
0.87862706,80.43741
0.8711174,84.310524
0.9393395,78.837776
0.87517524,79.587616
0.8389867,78.38344
0.8605546,77.91844
0.7815241,76.596634
0.8105022,74.417496
0.8671297,72.16439
0.8381392,72.35277
0.85891235,71.5485
0.83661306,71.26068
0.74726343,72.4344
0.8521225,69.66816
0.8604061,67.6169
0.69976175,70.36529
0.7443523,66.39069
0.65775126,66.52503
0.65746355,65.19211
0.59260726,65.38221
0.63348,67.2163
0.5845591,65.79786
0.6145138,69.65933
0.50748914,70.20961
0.50767636,68.93055
0.42141244,70.605385
0.42490694,68.66431
0.35702357,67.88121
0.41730398,71.55377
0.3389795,71.613434
0.44915438,72.14955
0.44955105,76.046425
0.48348334,75.74221
0.48878047,77.01156
0.5439198,81.76791
0.6569242,81.22418
0.6193372,87.623634
0.75496453,86.003685
0.72284377,88.46872
0.858522,87.18225
0.89574647,94.50481
0.9033626,94.248726
0.9733947,96.4928
1.0993677,102.41626
1.1675762,103.30933
1.2425865,103.0039
1.341597,106.053345
1.3731748,110.93773
1.3457762,112.56152
1.4548439,113.10634
1.490538,118.20864
1.5148643,119.36965
1.5976069,115.261765
1.5414187,121.64575
1.5828372,123.714745
1.5938349,128.70705
1.6822386,128.22801
1.6162384,128.82555
1.6965998,130.4428
1.7172737,131.91814
1.7355042,136.74428
1.7782453,132.73695
1.6393526,134.34064
1.7347778,136.21373
1.7802995,136.8114
1.6773127,131.73308
1.7735685,139.4146
1.6870848,138.58978
1.6936727,139.61226
1.758252,139.49966
1.6289871,141.09543
1.6399251,140.9659
1.5647383,138.57944
1.5700129,138.4986
1.559867,139.70804
1.5537497,135.80273
1.5331559,136.51999
1.5599909,134.95815
1.5449861,130.23833
1.495714,132.86055
1.3268405,134.16457
1.4257857,133.32262
1.2937826,129.08058
1.2786132,126.48758
1.3827021,128.07591
1.2029362,128.40727
1.2279552,125.72842
1.2370025,120.80569
1.2181493,125.363
1.208172,120.83512
1.1745113,123.45383
1.227424,119.214485
1.1107491,120.50205
1.1525794,116.14872
1.0896695,116.05418
1.0367472,116.9781
1.1203485,109.55276
1.0861999,114.23282
1.1156679,109.075516
1.1187205,109.40081
1.0158389,108.64292
1.0581481,107.15136
1.0024114,106.73857
0.90458065,104.74537
0.9584083,105.166115
0.9232778,99.85259
0.9087291,104.66164
0.8757093,98.86791
0.776871,97.73097
0.8046166,95.63086
0.73187125,93.6473
0.7904349,93.61411
0.7375635,89.09843
0.5824754,93.093254
0.6050481,91.16961
0.5964127,90.08657
0.6002853,87.665855
0.48655692,86.13473
0.5020951,87.1125
0.5290326,82.09982
0.55317605,80.98229
0.4492902,77.83925
0.4384272,78.66476
0.48167017,80.61974
0.42823854,78.12309
0.49452072,76.04165
0.44224146,75.270905
0.39556634,74.40324
0.48179215,71.674194
0.5060408,72.44882
0.46259138,71.57429
0.47376,70.00401
0.33888307,70.686935
0.40527275,68.21763
0.33700252,67.2287
0.3420065,68.19254
0.31648576,66.994865
0.3051094,65.265076
0.30793163,67.23069
0.23868781,66.346344
0.10379026,63.709354
0.18584691,68.91877
0.12497967,67.66876
0.08927484,66.11708
0.055934817,69.992256
0.025027726,72.26426
0.043441094,72.12929
-0.093434975,70.18243
0.02815757,69.72939
0.06690588,76.43165
0.020922469,71.3431
0.09827995,76.89736
0.025322825,78.265656
0.19930688,81.24827
0.23519835,82.80098
0.24274495,82.549706
0.33513653,87.84164
0.34407693,86.46665
0.39817703,91.477135
0.47764036,94.442406
0.5553556,94.83558
0.5749379,98.85881
0.6658131,96.5596
0.7589051,102.7347
0.80386555,105.51517
0.9057295,110.61664
0.86743104,107.336945
0.9567218,113.33073
1.0991455,114.920105
1.1260642,113.3275
1.1187788,117.55026
1.0699834,123.07001
1.2369028,123.6793
1.1932036,122.31687
1.3496782,124.076515
1.3697524,127.98512
1.2730905,132.0087
1.3978348,130.25098
1.4452841,133.1824
1.3043822,136.16464
1.3778739,134.95158
1.3879477,136.30342
1.3229977,135.64468
1.3958505,134.14763
1.3904672,137.32924
1.314459,138.60233
1.3877703,141.41937
1.4525697,140.22443
1.2982411,140.13603
1.4451776,140.71814
1.2756182,137.71661
1.2742839,139.03041
1.2635776,140.6645
1.2401158,134.84288
1.2574158,136.95245
1.1623979,141.01808
1.1802392,135.18826
1.2120634,135.5456
1.2114927,136.34296
1.1356218,134.20305
1.1034235,133.91557
1.0482281,129.04462
1.0643612,131.30348
0.9520843,127.44035
1.0456983,125.37701
0.99989057,129.35411
0.85943747,125.31579
0.9449696,125.50991
0.994008,119.40979
0.84324425,120.19407
0.8784206,121.0371
0.8456839,120.75397
0.9390077,120.13051
0.95676565,115.206154
0.8819835,115.98994
0.89488816,112.25503
0.86573076,112.31167
0.8790259,111.294044
0.9308686,106.9174
0.84874725,107.495155
0.8063428,107.11339
0.7672904,103.557076
0.84669745,102.89105
0.77313024,103.12029
0.8195783,100.74731
0.70336676,98.56371
0.68288976,98.03883
0.5938083,98.28519
0.6688952,94.948746
0.5591559,94.76874
0.5359285,96.02332
0.5219093,91.30105
0.5076428,91.845825
0.42714295,91.90401
0.48023823,88.25182
0.36193565,88.4048
0.328321,86.91225
0.41526726,85.540474
0.4429774,80.387924
0.36824512,85.26712
0.30381203,81.23752
0.29495603,80.49765
0.38444567,78.58463
0.4149582,78.280014
0.34923688,74.334854
0.26662472,75.39945
0.4254151,77.2157
0.39221224,74.42603
0.31042698,71.81664
0.38315484,69.36743
0.38745865,70.49455
0.42617884,71.51645
0.25178793,66.57345
0.2917625,67.642426
0.24440303,67.46206
0.23972557,68.012146
0.24478513,66.692154
0.17304751,67.345825
0.18815175,68.53847
0.123323165,64.88297
0.066173054,69.645584
0.015533288,68.93543
0.07771784,69.27254
0.036162395,71.68985
0.008391798,67.50502
0.07695691,72.24733
-0.008517971,72.27898
0.05813943,74.980225
-0.033556312,73.7945
0.10290137,75.287895
0.0655836,81.62965
0.13207568,79.271614
0.21746765,77.77864
0.18741713,80.30487
0.2714833,86.63264
0.36451283,86.34844
0.4781102,87.39697
0.41238698,91.744865
0.5541939,92.474945
0.6206151,94.90268
0.6873793,98.73294
0.7506395,100.69534
0.9229583,101.19355
0.9818708,102.59471
0.994222,109.353745
1.0830822,110.35061
1.2057344,111.142746
1.160408,113.28922
1.1979442,116.77095
1.2810981,117.58861
1.3052168,118.96001
1.2775491,122.631226
1.3713425,125.69921
1.3950962,126.483986
1.5135826,129.33809
1.4363688,128.58943
1.4647079,130.52795
1.5027701,128.35558
1.4529065,133.85423
1.5143341,133.93129
1.6037052,134.71191
1.6084526,134.84038
1.5125893,139.51501
1.679351,140.60901
1.6076361,136.60088
1.5567936,140.70033
1.4903141,137.40074
1.5392996,140.50912
1.494681,142.23375
1.5882524,140.61134
1.545094,141.329
1.5151645,139.00597
1.4299585,136.50478
1.4282755,135.55862
1.4341114,135.70207
1.4499195,133.63823
1.4697874,136.07794
1.3941556,134.36244
1.3320454,130.90392
1.283025,132.17159
1.3385969,131.3319
1.3184049,129.5532
1.3671662,127.54364
1.2873106,127.459465
1.2492697,126.556526
1.2541599,125.40906
1.2581389,125.75729
1.1705618,122.0684
1.2037774,122.52333
1.1461996,118.56959
1.2941687,117.01857
1.1654993,120.652504
1.1972932,120.456924
1.2032951,117.05585
1.2265681,112.01428
1.2128884,115.249374
1.1952269,111.1057
1.1873744,110.1599
1.1472988,105.79143
1.1241317,108.152336
1.0817118,105.00374
1.0421165,103.0801
1.1242564,103.38375
0.9662686,102.688515
1.0823997,100.55961
1.0225092,99.58975
0.9566639,97.33198
0.9377356,96.288734
0.9895283,94.93531
0.96179897,97.183914
0.9655583,92.22033
0.85937333,92.39564
0.8155915,90.245865
0.85163665,92.244576
0.79009366,87.807335
0.7583928,83.73145
0.7500032,84.785225
0.74439895,80.03638
0.77415484,80.79748
0.7095308,81.37002
0.6528228,81.312515
0.78455436,79.464066
0.69245505,81.47341
0.8062873,78.034
0.7318844,76.90111
0.84716463,73.72273
0.8072888,69.36952
0.7205604,72.04169
0.7427464,68.80906
0.7477279,70.61766
0.74673194,69.03308
0.6990773,71.22733
0.73049945,69.72789
0.6744511,66.5761
0.6387233,69.676285
0.5879736,67.54736
0.55005443,70.66229
0.5315882,65.75686
0.5529495,69.990616
0.51828253,66.75083
0.4465919,69.36668
0.4665558,64.403076
0.50331205,67.25677
0.420615,67.53676
0.477935,68.611176
0.46828413,71.50359
0.45333534,76.18045
0.41596836,73.6952
0.4278353,71.964775
0.49944136,75.28106
0.64820826,76.79196
0.55933344,77.66291
0.58351076,85.44214
0.60022354,84.37213
0.74383986,86.20757
0.7695183,89.79555
0.85240674,90.12965
0.98803,92.43312
0.9939445,96.50809
1.1893923,96.575806
1.1982771,98.95513
1.3014958,102.99636
1.3033848,105.52149
1.3260531,108.46937
1.4674699,109.31404
1.473962,109.76184
1.5447714,110.900665
1.5679171,113.48589
1.7172718,117.47127
1.8275903,121.79614
1.7097913,121.080124
1.7654068,122.30983
1.8047926,125.9258
1.9438148,125.18724
1.9093448,130.36945
1.8753241,133.19064
1.8753597,129.75992
1.8486794,135.30347
1.9151604,134.73764
1.9649308,134.7549
1.9195594,135.46616
1.9433975,141.18954
1.8550503,136.6368
1.9551866,139.63509
1.9597656,138.59708
1.8668329,140.38487
1.9929962,137.26451
1.9237965,138.04424
1.8921158,136.02773
1.821576,138.57956
1.7919339,141.69217
1.8700492,134.77563
1.9059714,135.17497
1.814666,136.88881
1.6457403,135.0295
1.7830046,132.72389
1.6816981,136.82407
1.7037579,132.97305
1.7095255,131.76495
1.6229137,131.17729
1.5441402,128.89337
1.6550863,128.93712
1.6009005,129.11714
1.5092064,123.6206
1.6319865,125.455414
1.6440126,121.651085
1.5221095,125.14932
1.568465,121.14647
1.5313586,120.901344
1.5529729,117.715065
1.4963651,119.097244
1.5226686,115.92846
1.5182788,113.43675
1.4861962,111.02584
1.4780871,111.26181
1.4595448,110.89587
1.4236567,109.415344
1.4444199,106.6289
1.4550576,106.61502
1.5172784,106.107086
1.3168672,102.089485
1.3498424,101.868675
1.2932211,102.35187
1.1976372,99.340385
1.2652714,100.319405
1.2560474,94.21252
1.241162,92.06263
1.057482,96.795876
1.1782222,92.6467
1.1329302,92.35953
1.0323843,94.13707
1.0656269,88.09798
0.9464924,88.0016
0.99457705,88.7075
1.0268205,87.307655
0.94914865,83.11202
0.9683551,84.41143
0.8921662,82.38553
0.9803957,83.150085
0.8407006,78.31285
0.8900101,79.238556
0.96137923,76.25842
0.94015396,77.68778
0.93457663,73.93439
0.9167932,73.11664
0.9542205,71.543236
0.8536673,71.88248
0.8426657,74.47931
0.94524026,69.33757
0.8386127,68.49253
0.7619995,69.38539
0.68470055,68.66609
0.8052701,66.425705
0.7311138,68.530556
0.7380034,68.8429
0.6522944,69.04526
0.69310635,66.00361
0.5401763,64.79618
0.5945611,68.145645
0.63278073,66.25694
0.6474253,68.000946
0.5198265,68.33836
0.5011973,70.97936
0.52910167,71.057465
0.5489891,69.48986
0.47184104,71.280556
0.5362151,74.052414
0.51044214,73.22143
0.59047365,76.808876
0.50563145,78.10914
0.6228917,78.36415
0.66156167,79.951355
0.62490183,86.43719
0.7295241,85.620514
0.86618173,87.99224
0.8306722,88.04553
0.96173143,92.07912
1.0414234,92.18154
1.1023945,99.10904
1.1354094,101.24724
1.2611058,105.27656
1.2361104,101.95361
1.3818747,106.84558
1.470296,106.82085
1.4829136,109.87833
1.5007248,113.685745
1.571728,114.14086
1.6227663,118.2627
1.5538185,121.40488
1.6583585,124.468605
1.7043195,123.60482
1.6942419,126.54224
1.801604,125.81921
1.7771189,130.25842
1.8012712,132.50687
1.8711947,132.33778
1.8614228,133.54921
1.7743934,138.58101
1.8297083,133.1942
1.7770728,134.68088
1.878973,135.62659
1.8689594,139.62285
1.812795,135.7579
1.7684529,137.01968
1.7543206,142.06137
1.7217152,140.00063
1.7429132,141.72115
1.7726725,141.10164
1.645689,136.41106
1.6909895,134.06958
1.6464936,141.06645
1.6245865,136.1281
1.6067474,140.61053
1.6527456,137.55968
1.5450249,131.44383
1.4859025,136.8516
1.4596243,133.63283
1.4935468,129.0514
1.4815177,130.61125
1.412801,127.67922
1.419955,126.86215
1.3710749,125.90388
1.2942877,123.37697
1.2814375,124.816055
1.3129435,125.316315
1.3919473,125.34584
1.2919644,121.69356
1.2400502,118.79794
1.26794,119.62625
1.1834643,120.43801
1.2831161,113.40073
1.2741985,116.61823
1.2116017,113.597015
1.143635,110.68351
1.210253,112.41141
1.1374406,111.12982
1.1758257,105.43404
1.102762,108.41896
1.0494494,105.33765
1.0791571,106.94275
1.0497456,104.72239
1.0013305,102.204506
0.964387,102.76438
1.0153488,99.288994
0.94156575,94.1837
0.8588031,93.991615
0.8214693,96.76784
0.8129968,93.862114
0.8024428,92.958916
0.8080735,92.60606
0.7702054,89.80909
0.64726174,86.848236
0.7047143,85.82358
0.64327604,84.95439
0.7243007,83.19581
0.56550795,83.98174
0.62725365,83.19811
0.5712052,82.25955
0.49346566,78.63266
0.57352704,78.14087
0.5636154,78.86913
0.5254271,74.095
0.53036284,74.0025
0.4763502,70.13715
0.48385468,69.90064
0.5639701,71.62618
0.47263917,68.872826
0.570886,71.27693
0.56157,69.83558
0.48191985,69.02554
0.49623933,64.38811
0.43067014,66.27211
0.3338871,67.20986
0.360276,67.83505
0.29136682,67.22537
0.22665973,65.908226
0.27453902,67.04097
0.25205898,70.240585
0.18563724,69.46371
0.12979858,66.689606
0.16879787,68.60588
0.11607107,70.58291
0.102222465,69.70619
0.19069326,71.1477
0.052607004,72.70942
0.092744745,73.70674
0.09864772,75.13684
0.09784129,77.904945
0.28357494,78.831184
0.20483924,81.26496
0.21880485,81.31299
0.37900606,84.494774
0.28228664,87.525375
0.3987411,91.13701
0.49096936,87.36523
0.57817584,90.797554
0.6205412,92.9283
0.7768853,96.83077
0.7357986,101.77392
0.7345086,101.805885
0.8998685,105.45547
0.90424234,106.68378
1.00756,109.14779
1.0683445,109.58997
1.1694075,114.28318
1.1949393,115.38953
1.205384,118.877655
1.2888068,119.90819
1.2717795,118.022446
1.3143783,123.12015
1.3290733,124.99914
1.3573867,125.35724
1.2948469,128.55113
1.350933,129.96687
1.4069704,129.81845
1.3736507,130.6997
1.4044532,132.69101
1.389078,134.8623
1.3902695,134.126
1.3377228,137.88445
1.4015245,138.3645
1.4050446,136.57361
1.4173517,138.16103
1.3807573,140.51991
1.3322804,141.026
1.2533067,139.78664
1.378389,138.076
1.2979645,139.4294
1.3294026,139.01913
1.2174958,137.70822
1.291781,134.33679
1.1981068,137.30681
1.221721,134.65009
1.2503427,133.88974
1.1662681,134.55356
1.1547351,133.00063
1.1094103,129.9792
1.0759466,131.64993
1.080714,127.91123
1.2019104,130.21268
1.1260028,127.874535
1.0706776,120.777626
0.9774144,122.876785
0.8523719,121.98318
0.9657552,121.25502
0.9511386,118.56907
0.9392824,122.41778
0.95507747,119.859634
0.926254,115.98626
0.97576797,116.238014
1.0203575,114.79167
0.86572653,110.732864
0.85305494,114.66703
0.9139554,107.058105
0.8496516,113.30855
0.7730301,109.780846
0.8299446,107.15698
0.8246213,106.91138
0.69061977,103.60018
0.72214556,101.16237
0.6949988,102.03128
0.6567369,98.175415
0.60411465,98.30315
0.6361354,98.15287
0.642036,93.72376
0.51380074,95.05783
0.5696335,92.7191
0.58120394,95.29007
0.3775635,86.05478
0.45068252,89.73594
0.47765255,88.8566
0.34114012,84.92786
0.3649557,84.05882
0.37090877,85.49919
0.36856967,86.3564
0.32001224,80.26583
0.36854452,78.50546
0.2597496,78.649254
0.3823327,74.85696
0.25686994,79.08638
0.3622217,78.237
0.40110335,71.65933
0.30806452,71.7749
0.278289,71.08528
0.22355297,71.9388
0.40693307,71.82059
0.29497012,70.5438
0.25827956,69.225784
0.21419847,70.108955
0.27907988,71.39795
0.30854863,67.04312
0.1640066,68.28966
0.2310485,65.64161
0.09878536,65.05516
0.11334911,66.64711
0.14353147,67.21926
0.05932018,67.84315
0.048549406,68.87936
0.12097808,66.863365
0.008988951,70.667175
-0.046239186,69.21863
0.053842053,70.9861
-0.07298382,71.05918
0.13086455,74.833405
-0.058730353,74.27369
-0.025921978,74.6826
0.04603114,79.94479
0.16889083,80.2176
0.1280173,79.06536
0.23367777,81.45693
0.27510223,82.09467
0.29982555,87.19542
0.29472604,87.55361
0.36472932,89.366844
0.4954079,89.65713
0.55726045,95.15414
0.65178007,101.162
0.75443286,99.44086
0.78894264,98.99612
0.91743493,100.71379
0.92649466,105.658424
0.94958293,109.426865
1.0352734,111.07412
1.1294743,112.3044
1.189247,113.97625
1.1399893,119.214066
1.2749357,119.848145
1.3062956,119.85004
1.3338221,123.38218
1.3527194,124.26828
1.3063169,127.27409
1.3882357,129.86871
1.4502226,130.37274
1.3360265,134.79366
1.3740989,134.46103
1.4100559,132.09122
1.473209,135.42079
1.4194032,139.26007
1.4572217,138.10696
1.5788107,140.82777
1.489303,137.04597
1.4839467,136.22537
1.4843727,141.37053
1.5136034,141.01157
1.448364,136.42282
1.4915365,138.93793
1.3870922,136.30127
1.4818375,137.84439
1.4301684,136.4925
1.3735801,136.07605
1.4558395,137.03674
1.2552354,137.80487
1.3507496,135.3352
1.2483308,137.29381
1.3076892,134.96024
1.2877958,131.49203
1.2258217,130.33578
1.2358693,131.33372
1.2145691,128.83212
1.2877398,129.75827
1.1693817,127.52996
1.1209189,128.84349
1.2301358,127.65241
1.1532899,122.32617
1.0499444,120.40351
1.1650038,120.36354
1.1554155,121.66798
1.2464346,117.40533
1.2339649,115.35078
1.0891557,113.67892
1.0724088,113.80602
1.0784473,111.14394
1.1362089,109.24579
1.1062001,111.49311
1.052097,108.15729
1.0712625,112.21058
1.0845026,102.4319
1.0241725,104.21263
1.0365709,101.03741
0.94148517,101.27515
1.0368826,101.82963
1.0050508,103.25292
0.95804536,98.286354
0.85901064,96.77746
0.82045025,96.24553
0.78868204,93.63951
0.7242805,90.40529
0.78028065,92.12823
0.7930316,87.44589
0.7657501,87.40243
0.67589176,84.906265
0.7117882,89.78665
0.7257913,85.81732
0.7717381,82.79016
0.61904544,83.702324
0.70946664,77.96721
0.7461771,79.66832
0.5829549,77.93814
0.74038005,76.68126
0.5665255,78.62204
0.60409975,74.41559
0.68285066,78.211624
0.6491116,74.84413
0.6500488,70.103745
0.6284591,71.51066
0.59235877,72.975525
0.6631327,70.908394
0.6423854,67.66611
0.6438773,67.030426
0.55671555,67.21118
0.5475667,68.05478
0.6143287,66.13014
0.5489327,68.03582
0.5747924,67.46976
0.45050585,68.31364
0.52821296,64.48743
0.43728325,65.969925
0.46925268,69.50638
0.38583782,67.34606
0.4256375,70.267395
0.4217725,70.12381
0.33899793,70.996346
0.38578925,73.74927
0.35237098,73.49236
0.37027878,72.50042
0.46494415,80.91371
0.3835701,80.65368
0.5149352,80.43789
0.5107615,80.818184
0.5608528,87.2585
0.689434,85.348076
0.7123391,89.58464
0.8858807,90.20468
0.9176423,91.21252
0.9898366,95.157234
1.0398988,96.894455
0.9984588,100.81229
1.1744369,99.52743
1.2647791,101.360146
1.2778553,105.131714
1.4390744,108.346466
1.4001323,110.491745
1.4519848,110.05154
1.5810931,114.5416
1.5565422,117.95116
1.739468,117.58297
1.657628,123.009186
1.7456582,122.65332
1.7952592,127.60274
1.7103527,129.79633
1.7954702,128.81311
1.8158846,130.90045
1.80832,134.06526
1.7930132,134.19025
1.8968977,137.30049
1.8395199,137.18904
1.9062877,136.15639
1.9131947,138.15904
1.849003,141.51884
1.838048,138.39143
1.9460362,140.39449
1.9040827,137.12022
1.8844082,138.2196
1.83565,136.04842
1.8780336,139.21378
1.8617276,138.64365
1.7976962,137.19717
1.8053088,138.96284
1.7830255,139.50574
1.7927773,137.62335
1.7852048,138.07245
1.7333015,133.88313
1.6663781,135.48405
1.6977484,130.20009
1.7365396,133.28061
1.6789258,131.47145
1.693301,128.85388
1.6113546,128.92334
1.6238863,127.980156
1.5047435,127.5799
1.6015837,123.99874
1.6249232,125.58567
1.5621071,123.14166
1.4670144,122.52828
1.503191,119.510635
1.5059836,118.51152
1.4587872,119.00097
1.4281781,120.48287
1.4337504,117.556816
1.5496482,114.92215
1.4431798,110.86258
1.4339421,110.66169
1.4723252,111.20958
1.3295535,107.10691
1.4353294,108.80708
1.4031714,105.036896
1.376409,102.380775
1.3242422,103.027405
1.3696835,101.09582
1.3095257,101.64704
1.2739381,98.60577
1.224283,99.97391
1.1941953,96.57086
1.1682554,91.02392
1.0758543,97.577866
1.150003,91.92969
1.0519451,90.83381
1.0813586,89.54007
1.0578929,90.83841
1.0337578,87.5235
1.0018752,83.91687
1.0267202,85.7009
0.89836955,84.484634
0.86624545,81.147354
0.92111427,82.639305
0.9697128,80.40537
0.91631913,79.8826
0.888059,80.035065
0.87104005,73.397224
0.901916,74.48258
0.94955665,73.157104
0.92653906,72.34825
0.8817822,74.2737
0.8716457,72.42268
0.9128743,70.67484
0.9501444,73.16466
0.8387033,70.22936
0.94484323,67.17188
0.81213856,68.848236
0.93416345,68.804245
0.79091114,66.29653
0.7609334,64.038315
0.71334034,68.42303
0.709951,67.976875
0.6848486,68.68888
0.62938267,70.02974
0.6158185,68.15096
0.6379201,69.60972
0.478477,68.36893
0.48363176,70.35323
0.5500782,67.75574
0.5466185,74.08399
0.45833328,73.098076
0.5113886,73.60254
0.58126366,76.89864
0.61500317,77.946396
0.6757002,82.45463
0.6803151,79.111916
0.7779616,83.05104
0.7926392,84.54586
0.8256044,86.51188
0.9291168,90.819145
1.0287374,90.58619
1.0517359,95.52402
1.1313069,96.70734
1.2447293,96.4248
1.2483157,102.17977
1.3212954,103.08594
1.436541,105.66615
1.5030358,110.34434
1.5780307,109.975204
1.6333077,113.768166
1.6189615,116.46522
1.6890116,115.85596
1.6960416,120.046265
1.7587426,121.40496
1.7468778,123.911766
1.8538287,125.982254
1.7741057,130.1456
1.8307862,131.38509
1.92866,134.4177
1.9146172,130.55273
1.8665941,132.9592
1.9768928,133.34477
1.8928262,132.01736
1.9450364,135.31079
1.8550553,138.26714
1.7876322,136.74162
1.8899404,136.04704
1.9340049,135.76338
1.8989505,132.85066
1.8404739,139.88416
1.8059503,137.47449
1.7419461,138.42206
1.8245325,140.46332
1.7822398,137.7937
1.6901655,138.49646
1.7900004,136.31396
1.7453685,133.72855
1.7375506,136.3808
1.6204419,132.9284
1.6132553,136.8633
1.5979395,133.97252
1.5722948,133.90434
1.6343179,131.81665
1.5199816,131.93433
1.487761,132.40117
1.4709125,126.95403
1.4714758,126.37488
1.4570745,126.25751
1.4223305,123.960724
1.3336606,118.0537
1.3801607,122.2215
1.3187207,121.09258
1.3991915,119.99598
1.3224281,118.47126
1.370853,117.605125
1.28395,112.99897
1.3838798,112.057884
1.2845695,111.454865
1.3061756,109.20383
1.3298702,111.48937
1.2235329,109.95714
1.1738644,109.53178
1.1541371,103.78622
1.2084959,104.16122
1.1555877,104.69718
1.0776896,103.98514
1.0915397,101.401924
1.027561,100.4025
1.0062554,98.52302
0.9724381,96.75311
0.9394603,94.16239
0.8263407,94.966446
0.89884603,91.760864
0.8514026,92.3406
0.75311345,90.137375
0.73131263,85.96425
0.7823854,89.70432
0.7324054,83.66595
0.76149553,86.22741
0.6020304,84.99921
0.72760457,83.03724
0.6200399,80.61009
0.73984355,80.27498
0.60038745,79.226006
0.61497945,77.40423
0.64260596,71.17292
0.6366865,79.055016
0.58647615,74.32413
0.6142089,74.58882
0.67208135,72.7136
0.5850518,72.22219
0.6574214,70.19766
0.6285746,70.0897
0.5276299,68.116875
0.5882618,67.57987
0.51795846,68.92949
0.43336973,67.98595
0.38123712,68.6328
0.36103097,65.76575
0.35038888,68.693855
0.38986596,64.84413
0.27645636,63.041668
0.29190812,67.14868
0.29992592,68.5957
0.15145968,69.905846
0.18036939,69.946846
0.17173034,70.67756
0.2524618,71.90789
0.14910956,72.37997
0.1406528,72.86303
0.2030743,75.2102
0.19617073,77.11364
0.27249599,77.168076
0.35346907,79.46635
0.4081488,81.03389
0.30637264,80.695175
0.5145015,87.21036
0.4977331,84.69639
0.6280118,91.153
0.5763636,93.37491
0.60698366,97.31308
0.6501891,95.60829
0.8651595,101.723
0.89240336,99.77786
1.0021884,103.84923
0.9667303,109.17704
1.0944151,108.8539
1.0799696,109.82171
1.1813204,112.91193
1.1705307,113.75396
1.2343833,117.3615
1.3095683,120.0948
1.3713725,121.66411
1.3842347,124.495575
1.3446681,127.28596
1.3517898,131.48198
1.3621002,130.09535
1.5042043,130.59122
1.4721396,134.12013
1.4592527,133.01381
1.4867315,133.98083
1.5123215,135.1715
1.5030338,133.216
1.3988303,135.14236
1.4216603,138.51343
1.5205051,136.36203
1.4323058,136.1367
1.4853684,139.7247
1.3479006,139.8572
1.4577668,138.17004
1.4125257,137.07655
1.4627421,139.61774
1.4991987,137.18951
1.3093495,139.12628
1.3600259,132.387
1.3769958,135.48944
1.2332906,137.1027
1.2736746,134.8684
1.3082775,131.48453
1.1039844,131.41608
1.1373276,135.28134
1.1234921,131.68407
1.2157034,130.03618
1.0960006,128.92776
1.1294304,126.30671
1.0365331,126.51919
0.9981515,123.3761
1.0538446,121.928856
1.097572,123.7543
1.0073977,121.94962
0.9564721,119.42726
0.9943167,117.23318
0.92111814,118.57954
0.88540685,115.685326
0.9182622,115.935684
0.99553955,112.157166
0.9134478,111.94547
0.8913887,110.80645
0.8380646,110.142624
0.8082741,108.869255
0.8259433,108.585526
0.80989134,106.11362
0.7520743,103.99888
0.7994232,103.52509
0.77008647,101.93854
0.7020018,98.58043
0.6613279,100.85071
0.6786147,95.98363
0.59950876,96.35671
0.55892044,97.22102
0.58886397,93.067856
0.54413664,91.8081
0.4362585,89.59336
0.4765617,88.4437
0.37600175,89.70478
0.41067445,89.21293
0.49109676,87.02387
0.3454011,84.900894
0.33607492,85.671234
0.37854874,86.745834
0.35608178,82.64225
0.37029263,80.53959
0.27221665,79.13288
0.30934122,77.50909
0.28794262,78.74979
0.2550801,75.362366
0.34809127,74.221596
0.3758487,71.64281
0.33856827,75.37287
0.24721406,73.41416
0.3170198,70.5421
0.29796642,66.81569
0.27681687,69.71092
0.3239118,66.87718
0.2894375,68.67624
0.12686639,66.203285
0.20906727,71.25917
0.17116639,63.79736
0.1998427,67.57684
0.04117005,63.421764
0.024784492,63.903156
0.033619612,68.309204
0.021494336,67.424385
-0.10001693,69.52054
-0.035050303,65.92798
-0.027639277,70.80161
0.0009326108,76.913
-0.06655798,73.01582
-0.05567093,74.10742
-0.04348516,77.4986
0.007880918,74.83601
-0.017134441,77.01955
0.1064107,79.96456
0.16894843,80.68166
0.15603127,86.48842
0.18852092,84.27969
0.23422666,89.28836
0.32286534,89.101875
0.44907916,94.3561
0.5292644,90.28472
0.61698735,98.51507
0.64361817,99.11316
0.78107053,100.90995
0.7336836,101.52143
0.9128463,109.213806
0.94867206,107.74315
0.9633017,112.54889
1.0546088,114.26381
1.0481539,115.38498
1.045246,117.87506
1.1776851,116.716255
1.2585918,122.1564
1.2137138,120.91994
1.2604603,122.77155
1.3750335,127.18741
1.3476286,127.39098
1.3991925,134.99216
1.3818252,131.93083
1.3611383,131.85541
1.3982719,133.93999
1.475012,134.83969
1.4213771,135.13927
1.3857968,140.19128
1.3930722,137.75255
1.5120252,140.90704
1.456718,137.1179
1.4411964,138.50792
1.3661999,137.16594
1.3457842,134.5263
1.4843454,137.18283
1.4322252,137.76465
1.3797945,140.60608
1.3278372,136.67184
1.3355638,135.78024
1.3005689,135.6855
1.2437532,135.85977
1.2305019,133.77118
1.2074466,135.5453
1.1995057,133.59685
1.1828175,132.451
1.1338603,132.73232
1.1086878,130.98988
1.1079024,126.76966
1.1051825,127.963394
1.1170087,126.06057
1.0779415,122.937836
1.1036597,125.47678
0.9206948,124.57741
1.0385443,121.995186
1.0137882,121.36091
1.0143998,118.48697
1.1133236,117.32549
1.0740831,114.33989
1.0348634,112.18963
1.0173289,112.572876
1.0451459,111.45509
0.97880167,110.85506
1.0481752,108.62126
0.9445981,109.35243
0.9943111,105.49257
0.94874954,106.618744
0.99006236,106.41069
0.90510154,106.26039
0.93266726,100.172165
0.8845116,102.018974
0.9036321,99.11202
0.7919506,98.692406
0.7590068,97.482445
0.68030953,98.13717
0.81071335,93.782776
0.69977534,95.01084
0.6439501,87.8353
0.63040996,88.696945
0.62968004,90.06245
0.6012161,86.30365
0.5623792,88.72297
0.5813887,83.04176
0.6725324,84.40159
0.54846543,81.26956
0.50499135,79.94855
0.4936204,80.34172
0.53408766,82.80335
0.58995813,77.68979
0.54670143,76.15166
0.59368694,79.17359
0.561264,77.605255
0.5658759,73.56138
0.59833395,71.79284
0.5127023,69.88998
0.5775051,70.35823
0.45582163,69.4983
0.49944633,67.32921
0.4620062,66.82272
0.57185614,66.44681
0.3969236,68.442314
0.4748194,68.07374
0.43985328,69.962135
0.39150497,69.98003
0.32718995,68.02264
0.38497615,71.431305
0.37879926,64.8629
0.31198925,67.816505
0.2689063,67.51445
0.27409807,66.72837
0.31997302,72.11129
0.29103312,68.04632
0.2598056,70.0954
0.14743672,74.23942
0.33886632,76.135605
0.39011544,76.9498
0.4009192,77.96031
0.4591796,78.65417
0.47348464,83.38771
0.417573,84.37363
0.5793662,88.90308
0.6335881,87.31318
0.71331483,90.89053
0.71046454,90.90468
0.763579,95.13601
0.9130838,98.17397
0.9433665,97.42031
1.0391507,100.51401
1.097543,101.69243
1.2393217,106.78127
1.350761,108.36772
1.3381656,111.70296
1.4119197,115.20995
1.5080591,111.25463
1.5049398,121.053085
1.6037041,119.55175
1.632179,123.31106
1.696866,126.60384
1.7080184,126.15322
1.7927732,127.12965
1.6668991,130.86337
1.7906098,132.42883
1.7910538,133.74475
1.7267703,131.06049
1.7329454,135.10284
1.8900636,136.18846
1.7402052,135.60915
1.7674292,136.38332
1.8938172,134.01013
1.7881659,138.06212
1.8326395,143.37073
1.8017842,138.72221
1.8443549,139.25995
1.7514226,136.69595
1.7568413,140.36305
1.8277229,139.9582
1.7111907,137.90086
1.7993835,137.56625
1.7972869,135.74908
1.6057917,136.18143
1.710365,135.21368
1.6676383,137.07062
1.6412652,131.40471
1.6333863,132.08687
1.6453891,134.581
1.6169093,128.49948
1.5494202,129.71944
1.4758468,130.8011
1.5597126,127.59974
1.5282747,128.39969
1.4619062,126.03692
1.4395688,125.52095
1.4722565,122.504555
1.4952301,123.52348
1.4742384,121.42784
1.5329239,118.689705
1.4329418,117.86634
1.4106698,117.06377
1.4971368,113.82333
1.5024856,110.97622
1.3921157,114.02997
1.4631102,111.9953
1.466942,110.00828
1.3770252,111.70031
1.4116538,107.44728
1.3933523,104.63132
1.3577896,106.17932
1.2866019,105.45524
1.2333938,102.393
1.2867329,100.92291
1.2909943,99.82231
1.2152066,97.87046
1.2703578,94.68069
1.1893617,94.887955
1.0334394,96.815
1.0921314,91.417274
1.0910636,95.943596
0.9606731,88.908
1.0322224,90.488
1.0264595,88.23658
0.9150507,87.84672
0.8676779,86.880104
0.9157003,82.20127
1.047179,83.62971
0.87311363,80.72547
0.9949894,78.884834
1.0356506,81.537125
0.8933761,78.808105
0.942354,75.85351
0.946586,77.050255
1.0062047,76.9254
1.0623847,73.34956
1.0598601,74.75669
0.91291964,71.46538
0.8248764,69.53218
0.8020982,71.13793
0.9175782,69.24213
0.8791475,67.79024
0.86083883,66.63679
0.90220374,67.77298
0.79041207,65.97598
0.76346225,67.14509
0.688085,69.31721
0.6191368,69.62995
0.6458691,68.5955
0.6321855,65.81941
0.61682475,70.86973
0.6833718,70.93107
0.5664354,69.48428
0.506129,67.99218
0.50678027,69.80101
0.5234069,72.62825
0.6032868,74.5984
0.57638645,73.40244
0.5597774,75.5322
0.64777017,81.259285
0.6219618,80.663124
0.6187807,79.21533
0.6991493,81.48367
0.7275608,85.36832
0.827248,87.258705
0.8455004,90.12772
0.95450443,87.60176
1.0772264,97.226845
1.1278255,96.0343
1.170609,98.43462
1.2825339,100.80607
1.3876113,103.31989
1.4769266,107.22065
1.5191839,107.701675
1.5077004,108.49087
1.6723105,112.84743
1.6947389,112.84968
1.6396047,115.08749
1.7407693,120.1764
1.6925625,118.37054
1.8220603,121.76058
1.7805102,127.99475
1.8662845,125.823875
1.9181385,127.50286
1.9824877,130.21985
1.9885384,134.29303
1.9283997,134.76697
1.8885378,134.20673
1.8949339,133.76291
1.9792701,137.33372
1.9551641,138.07149
1.950406,136.4636
2.0295796,136.72232
2.0147235,138.58966
1.9372039,134.89134
1.8945025,135.88988
1.973937,139.2028
1.8576354,139.13087
1.8181984,138.49725
1.8573706,140.65794
1.7871677,139.07503
1.8768677,137.35954
1.6874462,137.42867
1.7385721,138.3472
1.8030183,135.61475
1.6582525,132.27379
1.6899983,132.69276
1.6232443,132.56026
1.5591129,132.7652
1.5888604,129.5005
1.5546992,129.6754
1.4959735,128.88855
1.4757822,125.75876
1.5133083,127.280624
1.4892972,124.02669
1.4512074,122.395966
1.4099343,122.43061
1.4015783,120.1721
1.4544773,118.89084
1.3380684,117.62171
1.437318,115.90939
1.4294788,116.33892
1.3930764,112.84509
1.3786958,109.98528
1.4004996,113.279015
1.2740517,110.234566
1.3196558,107.32683
1.3252187,107.362434
1.2775072,105.82581
1.3174155,105.76156
1.2166966,100.82729
1.1553348,101.4432
1.1846656,102.140274
1.1003593,101.703224
1.1208198,98.20473
1.0699053,96.89932
1.0599624,96.62878
0.9560178,95.78363
0.971817,91.47033
0.92346436,91.44487
0.90746415,93.7792
0.91995233,90.64248
0.81636953,90.57958
0.8600957,87.32994
0.737657,86.71176
0.7927896,83.64964
0.75486606,82.49428
0.79463214,80.06642
0.7136546,79.39863
0.7367752,81.32308
0.69187844,75.4188
0.75256366,77.84846
0.7553636,74.68812
0.80125624,71.95611
0.65150356,72.98939
0.77096313,70.72478
0.7101826,72.86927
0.75277835,68.7197
0.6373959,72.17371
0.6638756,64.95126
0.6562878,70.92071
0.51532066,67.531624
0.5753772,67.86001
0.47908798,67.97644
0.46784237,68.5578
0.45687026,70.36627
0.40137625,66.51094
0.41987455,68.931335
0.40208134,69.17228
0.40870643,68.00535
0.3667594,69.169525
0.3094573,66.221825
0.28549176,69.21024
0.33240816,70.81707
0.26568478,71.15188
0.20819458,72.99183
0.30106992,77.97065
0.2016863,77.777954
0.43906832,78.2098
0.30911523,78.71075
0.44135955,82.56202
0.45323858,81.81003
0.41410327,85.95579
0.42139202,83.69579
0.6900846,88.43814
0.72617173,91.11739
0.7105761,92.992676
0.840918,98.324356
0.9273583,97.17794
0.95985967,102.163795
1.0397968,103.77373
1.1277744,104.708565
1.125109,107.59577
1.2282535,109.788475
1.2487413,111.756195
1.2388972,112.93371
1.36279,115.96543
1.3437274,117.69098
1.3390796,120.07909
1.47347,124.12711
1.6200426,126.51092
1.4834994,125.69695
1.5215071,128.14026
1.5041074,128.17609
1.5484494,130.84068
1.5613663,134.36673
1.5989586,134.67603
1.561935,134.34567
1.598063,137.22978
1.5160941,136.35704
1.5178502,137.66574
1.5337564,137.86737
1.4623125,137.0276
1.5028968,139.629
1.5075576,138.3255
1.5026956,137.29614
1.5265714,141.00067
1.427309,136.19817
1.4353545,137.7312
1.4357461,137.6718
1.366348,134.8785
1.3452762,135.87215
1.3522823,135.79593
1.325616,135.63663
1.2138048,135.6898
1.2340412,132.5216
1.1824356,131.26624
1.1775696,132.98131
1.154237,128.78316
1.2078466,129.15411
1.1116117,128.8413
1.0805727,124.77698
1.1558231,125.78194
1.1149656,124.09401
1.0895165,122.21443
1.019509,119.80795
1.0164086,121.11225
1.0622361,119.34838
1.038697,116.971855
1.0861411,115.60774
0.89356744,113.93302
0.9659343,114.373055
0.91433847,113.39091
1.0009574,110.530945
0.9281505,109.85513
0.8862337,106.400696
0.98813957,106.787445
0.87726784,104.88682
0.8538561,108.43571
0.8032576,103.73433
0.7924673,103.541306
0.7590588,99.82459
0.7610954,98.447205
0.613666,98.11713
0.64676493,95.37095
0.6930295,97.96608
0.6161422,95.55441
0.5852374,94.32851
0.55332845,90.802
0.4818293,92.5557
0.50510454,90.192276
0.46497163,88.49546
0.47751838,84.32125
0.35427165,86.13866
0.41807613,82.09817
0.36942828,82.93229
0.3334175,83.89153
0.42730364,78.406555
0.34110108,80.7959
0.3479002,74.424805
0.4130918,75.83721
0.35741025,77.79757
0.33234257,75.62141
0.36121306,70.88713
0.28924692,71.62009
0.26863435,73.869675
0.35964015,73.92558
0.26401433,68.440285
0.33538157,67.82467
0.2573552,66.431
0.29019588,67.22737
0.25395492,67.51511
0.21112728,68.10788
0.088742815,65.56398
0.10477559,65.43394
0.1605585,69.80108
0.0839558,67.289116
0.020488812,69.53976
0.06989562,65.86426
-0.034814052,67.478836
-0.111890644,69.86961
0.016360363,71.58599
-0.08088597,71.70216
-0.077937335,71.662224
-0.013306683,72.38546
0.09725718,77.286125
0.00549628,78.142365
0.0021083949,78.12146
0.08436746,80.73987
0.06886796,85.056175
0.25343356,82.798454
0.1395224,83.01592
0.35389265,86.11591
0.29423448,89.717964
0.36165044,95.09755
0.54940194,92.44072
0.54352146,95.38964
0.57789534,100.17835
0.7057355,102.99584
0.71444196,101.50794
0.8754826,103.29461
0.81546265,105.1698
0.9505262,111.422745
1.1087315,111.71267
1.0814228,116.21315
1.1427444,119.27805
1.1147321,119.77604
1.1882654,118.07091
1.1996225,122.81785
1.2803222,124.6298
1.2584753,128.24236
1.3001051,129.91893
1.2933458,130.99324
1.3930551,130.2454
1.3329312,130.247
1.4033139,137.94223
1.3967884,137.52396
1.3465201,135.22937
1.3693234,137.35342
1.3218939,136.9335
1.3809487,137.2424
1.3466239,139.10994
1.3082181,139.56786
1.4111129,137.87215
1.3162661,139.17355
1.344166,139.27385
1.3532332,138.78575
1.2561648,139.36166
1.3226951,136.70229
1.3411067,138.61218
1.2301078,136.27783
1.3078398,136.37828
1.2547582,132.6056
1.2255466,135.64807
1.1399469,132.27399
1.1506102,134.13763
1.0600388,131.79968
1.1092166,132.04654
1.0833035,130.62042
1.0761788,126.04999
1.0996096,123.950455
1.034743,126.91622
0.9939087,126.62509
0.94036067,122.45581
1.0045869,120.66288
1.0058485,123.255585
0.9944701,120.46177
0.95184934,116.672554
0.94664556,118.85848
0.9925936,115.22074
1.0419153,114.05195
0.97258943,113.60456
0.9341933,112.23816
0.9619442,109.40666
0.9360106,108.98801
0.9014927,108.848854
0.900005,106.32738
0.849129,104.42118
0.8603883,104.01069
0.9211215,101.38022
0.73530346,103.28967
0.74301445,99.79346
0.75996894,100.79135
0.6139064,95.53577
0.66419625,99.80642
0.71203977,93.285576
0.6530338,91.975266
0.54214245,92.21264
0.5680025,92.77376
0.5520158,92.24133
0.557525,89.79801
0.5592323,87.26699
0.59178823,87.733505
0.4658002,82.350685
0.5526902,82.201805
0.54769033,81.85937
0.5200319,81.515564
0.55768466,77.72799
0.4387552,80.25892
0.5411297,76.7534
0.48261368,72.27684
0.48185933,76.42417
0.5537639,72.84282
0.50961393,71.836075
0.38574195,70.087585
0.49741027,70.82793
0.498652,71.99375
0.50096947,70.87616
0.44701135,67.43453
0.46556693,70.471756
0.4929482,68.02461
0.41723555,67.48922
0.3828401,70.08409
0.3568035,67.19272
0.2826022,67.65491
0.27103326,68.89563
0.19796482,63.00262
0.18346551,66.24285
0.21815571,70.10341
0.121685125,69.41461
0.1402129,70.55158
0.21814993,71.55967
0.08463627,72.09421
0.21102107,72.38019
0.26996094,74.40027
0.1777596,72.66419
0.19283737,76.23185
0.274849,81.57148
0.32722566,79.37654
0.35564342,83.79066
0.46321398,86.1155
0.5456481,86.94681
0.66331017,89.34892
0.67239344,95.16721
0.6879164,94.11396
0.77045715,98.06403
0.8315808,99.1224
1.0205715,100.36784
1.0077345,104.191025
1.1467205,107.94306
1.1884317,108.29611
1.1923407,110.36248
1.3139153,112.35603
1.4262286,113.95979
1.4288145,117.18072
1.5020208,113.963776
1.4711373,119.90844
1.6002623,122.823105
1.5903813,127.441734
1.6592281,125.766785
1.6372411,130.28764
1.6316304,130.0869
1.6455144,131.30418
1.7232447,132.79842
1.7275352,132.96439
1.7623435,135.09325
1.7423221,133.58052
1.7745947,138.32004
1.6836959,138.36795
1.7383763,137.87401
1.7011006,135.89606
1.7354263,136.97815
1.7529833,138.14162
1.6831723,137.8034
1.7685683,141.09453
1.8119568,135.07336
1.6450756,137.87563
1.6019431,137.85756
1.6736389,138.21024
1.6461393,136.63443
1.5278671,134.92403
1.6006582,132.09557
1.5527254,135.2519
1.6192485,130.31097
1.5831169,130.88412
1.5215611,130.85767
1.442326,131.11847
1.4417566,128.90623
1.4671154,125.886314
1.4576385,125.25816
1.4193981,125.27353
1.4811616,122.464745
1.4053458,123.023155
1.4817315,121.29372
1.3269751,119.18027
1.3617094,116.92045
1.4103236,121.135895
1.4736444,116.03928
1.3210652,115.23379
1.3216245,113.68058
1.4471161,109.01874
1.3911763,110.21652
1.3083731,111.24773
1.3471173,108.89353
1.3145823,108.94241
1.2716155,105.38728
1.299791,106.00043
1.323959,101.97143
1.1842834,101.666824
1.1713768,99.95521
1.1568328,97.061844
1.2042388,99.972984
1.2102041,98.81191
1.1126026,97.6405
1.101468,91.3273
1.0263879,93.88559
1.0127345,92.213486
0.9202496,92.86788
0.9698861,89.278206
0.9447278,91.269264
1.0543097,86.47291
0.98583907,88.26211
0.92599505,83.92931
0.81415737,83.25652
0.8941706,83.28663
0.9080264,82.19266
0.86059093,79.822174
0.9424327,77.26384
0.83511925,76.20062
0.8818368,76.33667
0.9291072,77.01936
0.8467689,77.110596
0.8805521,69.73895
0.8387342,73.97787
0.9245421,69.42287
0.8008884,69.085655
0.7454223,71.36071
0.8187129,67.2494
0.73487586,67.384544
0.8364388,70.81139
0.6532967,65.16277
0.6574031,66.73935
0.7127342,66.21366
0.7087864,68.45409
0.6891158,67.588165
0.63751763,70.34868
0.6321268,66.66484
0.5835128,72.14874
0.5800818,68.35211
0.5763648,69.244415
0.6096326,74.049675
0.6139571,74.067696
0.5084197,71.60745
0.55953586,74.23992
0.5840845,72.47292
0.59361297,77.00695
0.680261,77.82143
0.790138,78.834335
0.72471863,83.40846
0.76012033,84.63102
0.8211803,86.0623
0.96275,87.53101
0.98091644,93.69798
1.0819982,92.05334
1.1336142,95.11501
1.1446995,97.02907
1.2499729,100.55231
1.39126,102.9616
1.441094,104.597725
1.4659276,107.49767
1.5075583,109.09317
1.5861511,114.47593
1.6520853,118.25066
1.7709613,117.59818
1.7156539,117.908615
1.7467972,116.220184
1.7715188,119.24202
1.8553952,127.2638
1.9404787,125.68368
1.9521343,129.16249
1.8675979,131.7779
1.9040319,129.70493
1.9941684,135.56183
1.9457524,135.23267
1.9761462,137.76892
1.9834466,136.89716
1.9189126,139.17474
1.9433383,135.90488
1.8639776,137.55193
1.9135805,140.16232
1.9191556,139.66878
1.9530139,137.95833
1.9476731,140.51933
1.8731759,141.66246
1.9375435,137.6908
1.7868003,138.88383
1.8520945,136.66985
1.9125601,139.32582
1.8936225,135.76389
1.7540343,138.4353
1.815478,135.86732
1.7571871,136.42664
1.6772044,134.25476
1.630193,131.1912
1.6242176,131.76843
1.6247637,130.84166
1.6127787,130.71251
1.5973084,124.33503
1.6183745,127.19339
1.5314941,123.74851
1.5163159,125.79425
1.566389,122.73355
1.5397674,122.37714
1.5499731,120.669426
1.4767138,119.83816
1.3973131,116.38693
1.5073699,115.760765
1.4642159,115.862686
1.413833,114.0776
1.3907954,114.52015
1.4711238,109.068085
1.3649848,113.75007
1.3949128,107.67546
1.4303094,106.89815
1.4085346,108.07367
1.31117,105.327965
1.2386024,105.46804
1.3739179,103.59415
1.2808797,96.171364
1.308973,99.42022
1.0937982,97.03608
1.1756865,96.201805
1.1210208,93.82547
0.9982118,97.393684
0.96602035,96.34179
1.0012705,92.3917
0.9211003,91.35683
1.0295403,90.439026
0.830436,89.65558
0.92249984,82.842415
0.972452,85.4492
0.7926477,79.26318
0.87813824,83.49095
0.81380445,82.47064
0.8170357,81.69828
0.79250145,78.55452
0.87628293,78.22791
0.8048105,76.8988
0.81309456,78.347115
0.8089163,74.64964
0.7131075,74.936676
0.84725356,74.575066
0.76866156,74.25338
0.7838604,71.60744
0.81994915,70.69883
0.7262633,67.957924
0.7114094,70.632484
0.66206956,66.63399
0.6695157,69.77918
0.5658996,66.33813
0.59617585,69.143196
0.5646377,67.05188
0.46523842,67.34369
0.4920579,69.02187
0.47693387,65.90631
0.47208098,68.64086
0.38302246,69.361176
0.41925544,69.33109
0.45488328,68.16069
0.35838583,72.38532
0.4262514,72.253075
0.37471333,73.1792
0.39950156,72.35891
0.34950748,73.72951
0.3638576,79.50423
0.4788059,82.32397
0.54282993,78.87131
0.49473563,84.3622
0.5582838,83.45876
0.71553785,86.20045
0.61709267,88.67342
0.8337352,91.874985
0.80978936,93.52737
0.81437075,97.1446
0.93913645,96.41485
0.93797094,101.2721
1.0373447,103.87621
1.2071123,103.93503
1.2221755,110.86653
1.2612622,107.82988
1.3575993,112.222786
1.4082118,115.85705
1.3439788,117.116585
1.3845577,118.51219
1.4104466,120.46551
1.6028771,121.39336
1.6591971,123.20587
1.6498274,125.66542
1.6208835,126.6364
1.6251802,130.03061
1.5599717,131.61902
1.5566039,133.35432
1.5690638,133.60466
1.5718559,136.193
1.5962924,135.19643
1.6769326,138.29532
1.6528938,138.46027
1.608055,136.76381
1.6428381,137.18771
1.594112,137.12138
1.6001773,135.5179
1.5253823,139.06667
1.6313976,138.48552
1.5329603,141.52635
1.5152946,141.64352
1.5042944,138.43861
1.4941956,136.69673
1.5146291,132.85962
1.4374666,135.95572
1.3878946,139.23454
1.392076,132.22614
1.318999,132.33627
1.2694112,135.5744
1.3133986,129.82256
1.2248782,129.85356
1.2433779,130.09662
1.1904868,128.46127
1.1940626,128.33961
1.1717814,123.6974
1.1201204,126.04905
1.1317412,121.47119
1.0966787,123.52917
1.0697055,120.56131
1.109795,121.660065
1.122088,117.55477
1.0273333,115.75273
1.0021031,115.950386
1.0922883,113.36538
1.0416453,114.40427
0.9340616,109.813736
0.99008214,107.658554
1.0100938,107.053085
0.9500001,109.23619
0.9388892,105.678215
0.8652597,101.55948
0.9546732,104.25186
0.75156426,100.80274
0.7778413,100.48988
0.79781973,97.75697
0.831122,99.46263
0.76858866,94.52185
0.64876616,92.27143
0.6697731,96.21586
0.4983413,94.78346
0.62335217,92.08136
0.62864,90.14453
0.5383448,90.65727
0.49488294,88.98029
0.45952126,84.680855
0.41037217,85.72392
0.40392312,84.047806
0.36486223,83.077835
0.46535733,80.14686
0.46682015,80.364586
0.4177121,77.74238
0.35166547,79.532875
0.32109392,76.36099
0.48669633,77.27324
0.41008648,73.31217
0.35490915,73.29549
0.36627203,72.63571
0.33901715,72.2809
0.41062996,68.12698
0.36241403,70.477936
0.2994626,68.70637
0.32553735,68.70469
0.3073666,68.74794
0.30920675,68.39229
0.20182237,65.93453
0.14525111,69.45254
0.21184988,66.10478
0.058798492,67.635185
0.16012794,67.603806
0.025612941,66.52992
0.007639875,67.58848
0.0906917,68.073006
-0.02125379,70.18435
0.021114811,66.38631
-0.045413006,72.93569
0.03226489,72.18735
0.0367774,74.520874
-0.06925789,76.79358
0.0034001404,77.018425
0.014150829,77.28013
0.037476353,80.78217
0.11141985,77.71348
0.18853736,83.27054
0.29298398,85.65796
0.30599993,87.50009
0.41718978,91.26808
0.48454884,92.01406
0.5252889,94.85179
0.58211946,96.18973
0.595461,96.379555
0.66502315,101.0499
0.76974124,102.79511
0.836862,104.6688
0.876578,107.99573
0.9831736,108.64807
0.9755255,112.98419
1.0469295,113.51053
1.1991056,114.50479
1.1745795,120.361
1.1816097,120.32036
1.1763183,124.46463
1.2411367,126.94155
1.3009777,126.65512
1.3711777,130.22284
1.2982317,128.53076
1.3980654,130.85217
1.3423628,132.68613
1.4045991,132.24185
1.3413446,133.57869
1.3195609,136.80994
1.3213767,134.85654
1.3487828,138.91707
1.3753233,136.59811
1.3398132,138.3966
1.3327311,140.14519
1.4117297,140.97165
1.3742176,139.6958
1.3135154,139.2482
1.324084,140.08803
1.3891813,138.22325
1.2351518,138.32101
1.3259547,137.06195
1.1994926,140.24529
1.2494463,135.9234
1.2696074,137.28566
1.1652048,132.47774
1.1679072,135.5587
1.125004,133.83835
1.0378572,131.48293
1.1349856,130.45963
1.0117506,127.8737
0.97608495,128.92781
1.0717748,127.13668
1.0042242,127.24404
0.9780815,126.43365
1.0386422,123.92327
0.9283046,118.95252
1.0022461,121.596756
0.946344,118.531876
0.96088326,118.10212
0.9317575,113.390724
0.9822505,115.37561
0.9113816,113.94814
0.947048,116.12904
0.9037155,108.00218
0.9010268,109.116325
0.85994357,105.1655
0.83496237,108.27377
0.8761198,106.053925
0.8294791,103.72465
0.8157584,100.436356
0.8060978,102.09525
0.76197386,100.03559
0.71444345,99.582726
0.6866921,98.57196
0.6701003,96.11859
0.66812295,95.513084
0.595767,93.269066
0.53098595,91.886795
0.5243711,91.48513
0.5235141,92.50555
0.44398203,88.28579
0.5376035,87.92603
0.43381032,86.49615
0.39027035,85.17034
0.4679625,84.64819
0.43889704,81.4384
0.39315236,80.66968
0.4432076,78.35901
0.37452546,80.69408
0.32597536,78.42475
0.42861658,77.38873
0.3847368,77.56486
0.40637285,72.78023
0.3679356,75.91178
0.42600673,73.67893
0.3424163,70.66994
0.48982006,68.27795
0.28100657,67.1603
0.45041826,70.76187
0.33010167,69.580376
0.4067712,65.88166
0.30711016,66.81136
0.27277127,67.50269
0.292075,65.010445
0.28909302,69.32984
0.22545308,67.700935
0.2736121,66.52479
0.13243431,67.89668
0.22731116,64.69581
0.1716301,67.38331
0.08781499,70.96639
0.15866373,70.823
0.021454101,71.52765
0.09436366,72.110596
0.07302846,72.93582
0.11188034,78.44314
0.13496967,76.18757
0.27906433,76.54121
0.19369178,80.07303
0.2963092,81.959335
0.37824163,82.892395
0.44640574,81.94876
0.45268628,87.55479
0.46048796,84.82201
0.5519413,91.32993
0.5820877,95.0421
0.79982245,96.18464
0.8257376,99.240265
0.8758002,102.04308
0.97289246,102.54364
1.0368406,102.485405
1.0900155,109.388115
1.1656059,109.166756
1.161313,109.50857
1.3280706,113.282715
1.3944905,115.677414
1.4339287,119.19867
1.4150016,121.73863
1.3370112,123.183044
1.5402324,125.37606
1.4892433,124.09441
1.5296127,125.39697
1.5213572,129.02086
1.617346,130.7934
1.622405,134.30995
1.6130366,134.287
1.5882255,134.74104
1.7100688,133.05858
1.676762,138.32863
1.6854959,137.84192
1.6579633,137.49535
1.7240384,142.15219
1.6745816,136.97545
1.5709931,139.33334
1.6103749,138.17656
1.660347,138.3815
1.5248297,141.39413
1.5267334,132.78865
1.5820392,138.63736
1.6132472,137.89601
1.5509541,136.88089
1.5711582,136.94162
1.4249467,133.66797
1.5404364,132.24927
1.3898591,134.27136
1.3985034,132.89565
1.453758,132.12073
1.4200267,132.85072
1.3733879,131.45279
1.3448105,127.3552
1.2452573,129.12358
1.4329746,126.53612
1.2427977,123.32164
1.3349159,124.812805
1.3204126,121.96813
1.2853663,122.61342
1.333164,121.86318
1.3424449,117.09356
1.3478196,116.22082
1.3787185,114.99331
1.4108951,115.271416
1.2968287,113.7667
1.288658,112.18166
1.1928854,109.54721
1.2194787,108.848335
1.301217,106.17019
1.1775775,108.86117
1.246095,104.87362
1.1676954,105.099
1.1687274,103.68804
1.1703153,102.288925
1.0429577,99.103065
1.069782,98.315186
1.0605189,94.86062
1.0188955,96.40671
0.9945276,94.345345
1.1223904,92.11219
0.9411718,91.19682
0.8830907,92.01529
0.8800104,88.80932
0.8099706,86.28096
0.85404515,83.79798
0.79060256,85.71018
0.8115365,88.02823
0.76549685,81.94933
0.797112,82.06282
0.8864878,79.30145
0.8083299,79.068436
0.80054235,78.43069
0.7522266,77.21886
0.8915392,75.1108
0.8148808,75.26081
0.8297629,72.63449
0.9402523,72.3859
0.7830763,71.94335
0.8441488,72.07726
0.82497555,72.486824
0.7686022,69.86988
0.76088953,70.46989
0.7686288,66.33252
0.76066273,66.759026
0.6610161,70.876526
0.750125,67.20875
0.68039054,65.79844
0.5527504,65.15795
0.6778774,66.97104
0.6344098,66.89053
0.5881603,69.97159
0.54672766,70.00944
0.48441803,72.038025
0.51794916,67.57247
0.53832304,70.8199
0.44790384,71.08427
0.5044421,72.01523
0.55704606,73.09899
0.4739403,75.95356
0.56856453,77.76501
0.5931794,78.86743
0.6895613,82.930336
0.65128237,83.74633
0.7398392,83.058044
0.7756422,87.36285
0.9264263,87.59441
0.8840653,89.33132
1.0045545,93.0895
1.076435,93.583244
1.1057763,99.70411
1.2445599,100.89357
1.2911345,103.72304
1.3119191,107.88359
1.5718886,110.06555
1.5886445,110.7701
1.5367006,112.43578
1.5823553,114.87325
1.7244573,115.743034
1.7433383,117.024994
1.7836103,119.89595
1.802645,123.612495
1.8185805,126.21487
1.7842377,128.9486
1.9002315,128.09927
1.8905318,128.93428
1.8673791,133.86082
2.0014086,130.36815
1.9764956,132.95782
1.9627197,135.44066
1.9948766,135.60251
1.920131,140.06639
2.0614798,138.41893
2.0033937,140.74646
1.9118133,134.20808
2.005668,139.92332
1.9703434,142.6466
1.9118133,136.24368
1.8965201,139.62712
1.9342418,138.0328
1.9456702,137.14294
1.8725338,137.51222
1.8547074,137.57164
1.9219729,138.23767
1.8258581,136.34743
1.7870522,138.03038
1.8162272,132.62529
1.7124411,133.5413
1.7284211,132.10382
1.6420527,131.33698
1.6125858,129.42319
1.5701231,129.09334
1.5502474,128.06874
1.5469736,124.63126
1.5559316,125.36084
1.5716754,120.14745
1.6629152,123.86253
1.5156192,120.20032
1.5643116,119.5263
1.5353686,118.80931
1.5520266,118.332375
1.400735,118.016754
1.5247767,117.13477
1.5109229,115.95392
1.4858996,112.091515
1.3999381,109.25436
1.4149497,107.69901
1.3966007,112.021866
1.3718797,106.11972
1.3743209,106.98539
1.3579856,105.762024
1.3125875,103.28779
1.37286,103.075325
1.3032748,102.782005
1.196622,97.93296
1.2292092,99.29903
1.266331,93.41634
1.1025945,96.95465
1.2046046,92.13605
1.1536545,93.22306
1.0690671,89.17765
1.0634836,92.052025
0.99888146,87.63908
0.9870204,92.13042
0.99192584,83.95027
0.9992525,89.73205
0.96277755,84.16855
0.8981203,84.43759
0.9068214,82.17253
0.87119555,82.03213
0.860351,76.173256
0.9327332,75.568634
0.83692294,77.086784
0.7895796,77.97835
0.92198974,76.76073
0.85541445,73.43724
0.80209917,71.88191
0.79413784,71.758606
0.8205649,70.80821
0.85979277,68.98597
0.8649829,67.263115
0.76960087,65.681755
0.7880471,66.70361
0.7895484,66.84969
0.6547247,68.89699
0.6223492,64.08916
0.55425686,68.369415
0.6027919,64.62478
0.55858153,68.18047
0.49360383,69.636375
0.48130932,68.85584
0.46475115,69.87717
0.4590467,68.36017
0.42068854,74.05288
0.44967347,67.9484
0.34841448,72.63535
0.45801845,71.13874
0.51685,75.07755
0.43184662,72.029945
0.5594177,79.12243
0.47225514,79.46024
0.5677824,83.280304
0.6090946,80.80979
0.566907,81.58315
0.72924465,88.637344
0.76542646,90.193245
0.8614706,90.8722
0.84443307,93.27266
0.99984473,93.84881
1.0330367,99.63481
1.1036736,98.71921
1.1352503,101.40231
1.2161541,99.9455
1.2715586,107.27165
1.2932674,108.27029
1.3750147,109.80089
1.4362884,111.40369
1.4266119,116.137794
1.553345,117.51301
1.5811712,119.3981
1.5336171,123.6268
1.6353804,125.09484
1.6995112,127.686935
1.6689647,124.96102
1.7433088,128.6964
1.6831595,129.2681
1.7555918,133.74551
1.7806324,134.49258
1.8525244,132.86452
1.7060878,137.66812
1.701242,137.79399
1.7938424,136.145
1.6928195,140.95058
1.7158458,135.5216
1.6957598,142.85315
1.7387328,135.1614
1.6232616,140.16023
1.765493,136.96684
1.554537,138.10335
1.6090361,140.80574
1.5875125,139.8614
1.5471642,136.43411
1.6352953,138.05759
1.5482359,135.45757
1.5023439,135.42294
1.5300957,137.00008
1.3781358,136.88318
1.3488593,133.97482
1.4780284,130.99318
1.3950106,132.34267
1.4123586,126.826965
1.2630833,126.731705
1.259467,127.78695
1.2634841,125.12978
1.1951494,126.821175
1.2498246,121.7892
1.1634839,122.43851
1.1547234,119.96506
1.0990344,119.21225
1.2507793,115.31618
1.0742487,117.48411
1.1754675,112.789986
1.1791538,114.92654
1.073286,115.77588
1.157365,112.53145
1.1150532,110.3577
1.12619,108.233635
0.9680612,104.548325
0.9719646,108.070244
1.0370421,106.036354
1.011266,105.35598
0.9397191,101.56024
0.97064877,100.79525
0.9232008,102.646935
0.92575645,100.387474
0.8089225,96.67658
0.75811255,97.26952
0.6932517,95.31207
0.73291653,94.18925
0.67563754,91.24386
0.7371972,87.86473
0.5715455,93.88855
0.59099627,88.46145
0.5830822,88.24809
0.5395488,87.5697
0.51477295,83.146935
0.52652293,84.80324
0.45348877,80.32538
0.49805778,83.92398
0.3727347,80.28482
0.52207303,76.78591
0.45198855,76.90935
0.50524247,77.316216
0.5129812,75.36344
0.51728845,71.84355
0.34653088,72.16828
0.46334386,75.338646
0.443044,69.74112
0.47217295,71.06525
0.37199506,71.340614
0.37746072,70.03737
0.3796066,66.04423
0.36688143,72.289085
0.28521684,68.74228
0.21554129,67.25211
0.20490831,67.931496
0.1903116,66.14901
0.18939477,67.28607
0.10369123,70.99554
0.100204304,69.308266
0.11737706,67.630066
0.03661023,68.82306
0.09071467,70.35036
0.028933316,69.43807
0.085293666,74.31278
-0.006005454,72.85744
0.027619109,73.405624
0.044583753,75.51791
0.01201051,77.119
0.12650944,77.336105
0.12862752,81.761925
0.15959823,81.814026
0.24857742,84.99949
0.23171125,82.85497
0.43301317,85.929794
0.48749742,92.952065
0.45525134,91.88575
0.5459631,92.702385
0.6317228,97.90226
0.689477,99.24726
0.7840292,102.01387
0.77794254,105.6174
0.95813113,106.21915
0.8963101,108.5556
0.9612278,112.94044
1.0219332,113.64139
1.1213441,114.49723
1.1076576,119.15839
1.1755438,119.91745
1.2305334,124.68916
1.3375974,127.93583
1.3136511,126.02301
1.3532718,126.54989
1.3705261,129.29816
1.3771925,129.0907
1.2643858,135.47408
1.3633058,131.27936
1.3562723,132.54155
1.3506447,132.65987
1.4070665,136.71802
1.4494905,138.8509
1.2724468,136.47847
1.4792778,140.64972
1.3359373,137.76794
1.3371338,138.40265
1.349155,139.60655
1.3641168,140.3628
1.3434503,140.84941
1.3712051,137.22142
1.1906976,136.57195
1.2625002,136.14851
1.2490411,138.50432
1.1319429,137.8915
1.2183639,137.47568
1.1248518,130.39206
1.0353316,131.261
1.0797275,135.60152
1.0215701,132.05826
1.0731026,129.4119
1.0029097,128.86313
0.95894265,129.25302
1.0729502,125.497696
0.9674908,127.31053
0.9526451,124.28727
1.0138258,124.90007
1.0293666,121.94278
0.8519171,121.70685
0.9929937,120.25452
0.85865045,118.12486
0.98023987,113.88746
0.8573385,119.06586
0.88183767,112.73019
0.8338813,111.86322
0.89972645,111.7283
0.8440191,108.7705
0.8390321,111.41085
0.8266373,108.14829
0.80495,107.184746
0.72574914,102.88813
0.86437154,103.23952
0.80213004,99.53758
0.6802773,102.656166
0.669241,97.16742
0.64487743,100.53312
0.70737725,99.72207
0.64565104,94.18866
0.5720186,97.459305
0.5909548,91.82352
0.47892246,90.445274
0.50513107,89.96418
0.4719413,88.927284
0.40817422,87.3853
0.42589918,87.73083
0.45598915,86.98064
0.4520238,84.433784
0.3851494,83.24029
0.3519565,85.292885
0.39794898,82.98099
0.35698137,81.679886
0.3961098,78.05273
0.32440904,75.29817
0.30434436,75.03448
0.35950294,75.8499
0.32907292,72.970566
0.33904228,69.09524
0.41213104,72.42199
0.29157192,74.257286
0.29785383,70.49329
0.31646022,70.80599
0.31241333,70.187775
0.28645343,70.593414
0.23420377,67.68957
0.21175843,67.17815
0.2469697,65.75282
0.17593454,68.09854
0.19476734,65.27653
0.13864885,65.671646
0.14054228,69.14334
0.08732333,72.2326
0.043062877,67.252266
0.031628147,66.574974
0.00360845,68.53974
0.12791556,71.54716
-0.001361945,70.39271
0.002440922,71.90919
0.050053284,74.787346
0.055514246,75.35318
0.17421988,76.86695
0.106473684,81.21402
0.18893293,79.45147
0.20440416,82.60619
0.25937837,86.96032
0.3417702,86.93409
0.37787047,87.904816
0.5080099,93.98405
0.5158503,92.31911
0.6235775,93.646484
0.68158203,96.27565
0.84605855,100.70625
0.8801248,100.82155
0.8926323,104.22928
1.0231981,104.98904
1.0219481,110.31329
1.2292753,111.793335
1.1602184,113.051605
1.3080993,119.75611
1.1799997,119.23049
1.3920655,122.02679
1.3809474,121.581245
1.355833,122.65157
1.5025227,126.79292
1.4997791,127.32592
1.4658903,128.95038
1.4060822,131.14911
1.507683,135.29926
1.5142884,130.16647
1.4248579,135.73282
1.5390759,134.78328
1.5497293,135.66809
1.4533485,139.49255
1.5270658,135.84079
1.5430925,136.74532
1.5279881,138.64914
1.5305926,136.86821
1.5987905,137.65413
1.5068138,139.21187
1.5165284,136.86646
1.514399,138.78969
1.5115969,139.0968
1.433073,136.23434
1.4761894,136.3229
1.4571908,137.20909
1.4296693,132.86224
1.4372238,134.66893
1.3916713,137.05112
1.3677877,132.50128
1.35422,131.81213
1.3426776,134.12321
1.3114288,129.29222
1.3236897,125.26246
1.3354434,129.20396
1.3337964,125.36346
1.2276405,127.107506
1.2069279,122.48445
1.2406265,120.26846
1.2145377,122.48278
1.2211139,118.70058
1.20645,118.70819
1.2218484,118.44735
1.1798935,118.16948
1.222796,112.975204
1.1698773,113.80299
1.2268859,113.03516
1.2108849,114.69029
1.1933852,110.294754
1.0877074,108.02518
1.097676,106.979126
1.0873597,106.90211
1.1122681,102.78205
1.0878224,102.63755
1.0303618,100.6803
1.0725312,101.17525
1.087855,99.15852
0.92457455,100.120445
0.972371,96.22583
0.9282173,93.74118
0.8690933,92.9421
0.8785954,91.1891
0.8426053,89.64648
0.8745688,88.09686
0.85711336,90.201904
0.7437662,90.25492
0.753145,83.34039
0.7429716,85.92299
0.7075227,81.32165
0.710209,83.82882
0.74707556,80.445496
0.7596259,79.99906
0.72651416,79.31858
0.69824326,77.821175
0.7730129,73.67792
0.6820692,76.82156
0.76053315,75.38746
0.74848425,72.84125
0.7840337,72.11724
0.7699596,71.5141
0.7089538,69.733215
0.7252872,69.57138
0.6854666,67.625206
0.7795812,65.16396
0.66504365,68.41202
0.6090113,69.08058
0.6354805,67.913055
0.6370598,68.34544
0.6380211,67.16722
0.57769984,67.30477
0.5296909,67.85345
0.49873367,66.73337
0.46631095,70.63032
0.41619486,67.97071
0.43153763,71.0303
0.4176549,70.647804
0.47650608,71.1303
0.33921248,75.00692
0.462855,72.60795
0.5096252,74.676994
0.61942595,73.93328
0.5272966,79.253654
0.6199781,77.584625
0.64456487,81.126564
0.6042153,84.51561
0.7651118,84.46871
0.78328156,86.59268
0.836686,88.72019
0.95939034,92.94285
1.0637544,93.470474
1.1314447,97.31813
1.1898634,99.85767
1.2367295,101.82919
1.3800553,104.12197
1.3886184,107.10393
1.4037464,108.748856
1.4927028,110.24604
1.5626113,114.64876
1.6590258,113.753426
1.635525,118.59518
1.7868829,118.63396
1.6768259,122.091194
1.7661512,127.783035
1.7430376,123.45651
1.8263867,129.93344
1.9218571,129.05489
1.8931541,132.10886
1.9156941,130.73117
1.953764,131.9009
1.9281732,137.11464
2.0110784,134.01578
1.9095513,135.55989
1.9942756,136.53119
1.9608244,134.81122
1.9661578,140.29391
2.0080307,139.55002
1.9353443,137.1424
1.9813068,138.07062
1.8941514,138.82494
1.868475,137.99097
1.8754551,140.20087
1.8548954,137.75024
1.8757132,136.19257
1.783926,137.15964
1.8723623,139.15457
1.7180545,134.6825
1.6628557,132.71646
1.730816,138.32738
1.6655403,135.27583
1.71706,130.58975
1.6233504,133.11497
1.6104648,130.53221
1.6040205,130.11382
1.5997682,126.00274
1.5755395,126.65134
1.5252048,120.76945
1.6334567,124.138336
1.5602679,122.560776
1.5282284,121.71491
1.5197551,118.68381
1.4526681,118.05297
1.5172191,120.64285
1.4938095,118.18582
1.4167522,114.58308
1.4861239,114.22267
1.5211031,109.74799
1.4362787,107.23186
1.4587947,110.61786
1.4448045,106.24169
1.4448806,109.89508
1.4248778,106.2688
1.3392671,105.83629
1.3589509,102.84785
1.3234396,100.66872
1.2952973,99.80817
1.2938476,100.24844
1.2593161,97.51858
1.1236494,97.89639
1.1450123,97.425186
1.0710254,89.70362
1.0864902,92.173805
0.99478716,88.87455
1.112991,92.83921
0.9996903,88.64275
1.0355622,85.69484
0.96091026,89.819084
0.90971327,87.64806
0.9743115,85.6434
0.9143968,82.29168
0.8935447,79.623215
0.93256783,79.731804
0.913894,79.13848
0.91075504,75.40863
0.99164134,78.424965
0.86839557,73.66394
0.88849235,71.61386
0.85360426,71.87132
0.9433503,71.64365
0.931043,73.61737
0.80975974,68.54604
0.88863486,67.53059
0.8956073,66.79659
0.7516409,68.89725
0.8436028,69.58873
0.8217143,67.01174
0.77254707,67.535736
0.665735,69.880936
0.68085694,68.25202
0.6357535,65.92846
0.557625,67.67921
0.5511153,67.53945
0.5535771,71.14979
0.5206478,68.650185
0.5457721,69.02166
0.4622949,69.99669
0.54292977,70.46136
0.48196822,75.30256
0.560306,74.377945
0.5697081,76.78364
0.58020276,78.08041
0.6056724,76.60022
0.5841404,79.05212
0.66890633,86.77481
0.76249945,83.39234
0.782687,86.350395
0.87574714,90.118286
0.8362147,89.801704
0.9688253,92.54509
0.95266384,93.88536
1.0242709,97.83544
1.0928451,99.392296
1.2248846,99.659615
1.3039019,103.367325
1.3614448,108.4562
1.4085184,110.3376
1.3961953,111.33099
1.5185512,110.450096
1.59674,115.36943
1.6303304,118.273415
1.6430614,120.2308
1.6853875,123.03186
1.6601154,124.21151
1.8102367,124.56246
1.7161051,128.0569
1.7931685,127.1736
1.7941405,128.56186
1.7213144,132.59541
1.7697343,133.72464
1.8865963,132.67114
1.8303838,135.39601
1.8450341,134.64798
1.850749,136.92677
1.7927371,137.756
1.7616918,139.70944
1.7920581,138.48242
1.7897114,135.92085
1.6935811,134.45905
1.7197182,137.88336
1.7430816,139.83572
1.7465683,139.12872
1.5943681,139.12819
1.6182933,139.1956
1.5945164,138.37703
1.6285524,133.64784
1.5731947,137.80841
1.5741806,138.33923
1.4692402,135.064
1.4509662,132.26141
1.4502205,133.84227
1.4579018,132.99094
1.4021734,125.1564
1.33653,130.29192
1.3422611,129.30962
1.395228,126.320206
1.372488,123.6506
1.3986987,121.76461
1.3632373,120.69387
1.3390393,122.96236
1.2598996,118.603004
1.3025956,118.18586
1.2475169,117.37731
1.2743443,115.16877
1.1455007,114.88946
1.1432354,110.54468
1.2289637,111.66044
1.1415384,110.55772
1.2459549,108.01398
1.1798565,108.54504
1.1059567,106.50839
1.1215962,103.62394
0.9917558,105.83961
1.1104051,103.78368
1.0342746,101.608025
1.0054513,100.19286
1.0442916,98.572556
0.94434166,98.603806
0.886563,97.17582
0.78152806,96.49159
0.7769385,95.369156
0.71277547,94.680336
0.72646683,92.46387
0.631934,89.09167
0.687487,88.023834
0.60735995,86.26177
0.7075912,88.38039
0.58973277,85.12419
0.5922231,81.09691
0.55720216,79.52457
0.5460807,82.05443
0.51131076,80.47615
0.59785104,77.13999
0.4759496,77.981026
0.5566436,76.3601
0.61305106,73.08281
0.60685635,74.52142
0.52950805,73.84116
0.45230386,74.18891
0.41614085,70.49631
0.62415564,68.22674
0.4852496,68.42969
0.49423787,69.08394
0.3763397,64.55252
0.46439615,69.0843
0.33207816,68.23809
0.35832262,67.026924
0.3441518,67.96931
0.21393923,62.59002
0.18346255,65.31237
0.17380297,66.42818
0.20969327,70.22784
0.15990004,70.1486
0.12156625,69.13231
0.06560247,67.784805
0.12633328,72.50463
0.11090411,69.55949
0.14142561,74.030754
0.09495984,73.243866
0.16907647,72.44821
0.2310177,74.48778
0.20580001,78.69916
0.19608402,83.53819
0.29643038,81.01993
0.30937976,82.3676
0.33049804,88.192505
0.37313572,89.95784
0.46947277,89.559906
0.5250226,91.87303
0.5946297,95.1784
0.7377287,98.02514
0.732445,97.55325
0.85780185,101.04036
0.84577686,105.0854
0.9326344,102.937355
0.9691103,109.25675
1.0228839,109.49689
1.0521603,115.62381
1.1098869,116.84582
1.2006862,118.05896
1.2902945,122.38534
1.3000224,124.05691
1.2210714,122.39231
1.3558736,125.19946
1.3765613,129.85246
1.3773386,127.93322
1.4351422,131.9213
1.4373838,130.78056
1.4471498,131.95045
1.4066097,135.4479
1.4708875,135.98792
1.3722979,138.63713
1.4073976,138.7998
1.3840048,137.86502
1.3797408,138.59882
1.3836614,135.37236
1.3239348,136.94923
1.4220914,141.56245
1.4168626,138.10698
1.3300377,141.08925
1.3217251,137.51875
1.3977336,137.7553
1.238368,137.55104
1.2799466,135.1361
1.2179158,138.71472
1.1455257,134.25328
1.1083641,134.49783
1.2308387,134.47679
1.0807104,139.05536
1.1314338,132.6718
1.0683323,129.20842
1.0641179,128.21877
1.0514134,127.75384
1.0264254,128.57301
1.0031562,128.19511
0.97096634,124.34612
1.0453091,125.81592
1.0052251,121.81263
1.0130125,123.835945
0.95478964,117.73719
0.9492183,119.52134
0.9505126,116.73474
0.8842984,116.409325
0.8077745,115.56141
0.9505734,117.17919
0.8724034,114.15001
0.9308615,111.34967
0.8452333,111.376854
0.8112114,107.5907
0.7638984,108.535416
0.774669,107.607994
0.7960979,102.152336
0.7650674,101.675026
0.7336647,103.55287
0.6156803,100.571365
0.6058753,100.72465
0.6932957,99.14602
0.64377934,96.61847
0.5410683,96.66641
0.55009735,93.39523
0.4550402,93.38957
0.47913608,92.70939
0.46201417,89.4912
0.35688013,89.350494
0.35730508,87.654526
0.4014918,85.90972
0.3761409,87.7841
0.28986368,84.287415
0.2857197,81.28537
0.37878782,81.86052
0.29367214,82.329704
0.3612178,81.91654
0.29180658,76.03025
0.38641924,73.40449
0.28202316,72.894356
0.36495057,72.527084
0.34338441,74.12241
0.29619738,70.37128
0.35068032,69.304955
0.30133218,69.16599
0.34672716,67.59156
0.3148567,69.32118
0.26324067,65.99178
0.24486993,63.20289
0.2201803,67.06925
0.082353674,64.94245
0.10350629,65.02794
0.09650683,67.36019
0.10036127,69.16934
0.02976638,68.457344
0.050892048,69.21143
0.010865097,67.5509
-0.06706603,71.574036
-0.0171384,69.05469
0.007381255,71.932396
0.06897678,73.48737
0.01810358,72.27404
0.040799066,76.52113
0.026576294,75.33149
0.06411109,77.06762
0.05519291,78.501656
0.082042985,79.52932
0.13700831,81.93567
0.22015966,83.68195
0.23861353,85.232445
0.23959514,90.415726
0.41485846,89.59951
0.5327249,92.45797
0.5775132,94.89078
0.6555094,95.603096
0.7164479,100.738266
0.71031517,100.55144
0.7786581,105.53943
0.90718323,107.6481
1.0395669,106.130615
1.0389822,110.70747
1.1262037,111.203514
1.0912536,111.73537
1.2062105,116.33631
1.2436408,119.784424
1.2729456,123.85079
1.3460758,126.16978
1.3594888,126.88334
1.4339604,128.80176
1.4432311,128.64032
1.5274208,129.4256
1.4651785,132.08723
1.4558817,133.62007
1.4954684,134.21547
1.4881152,134.9288
1.5363944,136.89343
1.4055948,137.9521
1.4275899,138.22766
1.4448986,134.44588
1.4433182,137.90053
1.467769,138.38573
1.4669254,142.21925
1.4765385,139.81917
1.4174132,140.5619
1.4865907,140.92027
1.4079348,137.79076
1.3511024,138.85228
1.3815993,136.95218
1.3781474,137.48509
1.282408,136.10919
1.298548,135.53503
1.3923781,136.59877
1.2251823,132.13872
1.2935207,130.24123
1.1870308,129.48233
1.1237928,127.946106
1.3014424,129.29865
1.1544832,126.14826
1.197365,126.267685
1.1424787,126.476685
1.1649853,123.3991
1.1859565,120.667274
1.1845617,121.41752
1.0881965,123.842865
1.0761691,116.99105
1.1472758,117.050064
1.0283141,117.66994
1.1534567,113.20136
1.1816077,113.57263
1.0609964,109.38287
1.1715571,110.84058
1.0540521,111.60249
1.0967116,108.53455
1.0362397,106.31685
1.0878594,107.70065
1.0694367,102.56063
1.0585991,104.395676
1.0227282,99.331314
0.9380729,99.722855
0.9372026,99.069046
0.9710681,96.48974
0.8611903,100.00101
0.91590184,94.96376
0.86348796,98.405014
0.80085343,94.60196
0.66873586,91.07412
0.6827498,90.949455
0.75727266,89.429695
0.715564,89.20283
0.7578572,86.10747
0.64134663,88.086266
0.72290766,85.30636
0.52267736,85.77233
0.69851315,80.70889
0.55068123,80.00327
0.6599228,80.34223
0.60335064,77.399345
0.6599861,76.763916
0.64949805,74.50145
0.6660294,71.663284
0.72884256,74.03691
0.66898006,70.60931
0.7023413,71.89331
0.6201968,69.81366
0.5649127,68.92846
0.64480966,68.08147
0.59770864,69.02926
0.6453984,68.92626
0.5740707,66.39594
0.5476074,68.70857
0.5523917,62.173805
0.5573496,64.60698
0.44916335,68.557655
0.47022185,70.27605
0.4353102,68.4058
0.43298742,63.62586
0.40806282,69.85099
0.4119936,69.16933
0.4117026,72.49901
0.3805501,69.41326
0.29423353,70.79425
0.41370818,72.79213
0.49793226,73.73246
0.4090582,78.15158
0.44871548,78.41353
0.4876504,79.11626
0.52834415,78.69901
0.62081486,85.69123
0.5682601,86.72586
0.72595197,88.928764
0.7690636,90.91182
0.810273,91.186195
0.97037435,96.99015
1.0629208,95.48486
1.0812973,100.87217
1.2016089,103.18349
1.3014522,102.00779
1.2456366,105.155014
1.3263882,109.15271
1.455377,110.93706
1.5206356,113.032005
1.5514754,117.54695
1.6503597,120.37945
1.679643,120.18835
1.7672945,126.106224
1.7542082,125.764145
1.7748606,126.18163
1.8634995,127.355225
1.827841,125.38641
1.7801857,131.27309
1.875851,131.31203
1.9065301,135.26027
1.863967,133.29892
1.8681499,132.85535
1.9615351,135.17177
1.8410747,137.73712
1.8643669,135.94174
1.9205267,138.61057
1.9976814,136.18663
1.8771256,136.83235
1.9123145,140.24098
1.8898115,138.13203
1.8969898,139.28772
1.8802546,137.65904
1.7639171,138.69614
1.8379803,138.00874
1.7350216,137.24487
1.6873585,137.4796
1.6367433,138.67798
1.6836826,134.85277
1.606718,133.89087
1.6485245,132.45564
1.6457418,131.26573
1.6135474,132.29239
1.5466601,130.66235
1.6648151,131.75862
1.5828304,127.23359
1.6149722,124.99422
1.622065,126.6574
1.5641866,125.489395
1.5119835,124.62481
1.5141447,120.59161
1.4828148,121.170265
1.5496017,119.6365
1.5385331,116.30456
1.480436,116.96571
1.4200798,113.22589
1.5409241,115.77462
1.3810997,111.09702
1.4505888,113.75023
1.4459876,106.129005
1.4599392,107.96837
1.4490825,108.60118
1.4343625,105.33724
1.3614852,105.18018
1.3867894,103.66045
1.3006501,101.70747
1.2730703,101.30367
1.2058727,101.18905
1.1382372,99.811066
1.1311886,99.697586
1.164308,95.99873
1.1574718,94.18667
1.0310258,91.82962
1.0747547,91.608154
1.0719092,90.42065
1.0770713,91.427986
0.9993928,88.76164
0.9948498,83.55328
0.9822863,85.98837
1.0134687,85.540634
0.98816264,81.92834
0.8511338,84.61848
0.9195699,81.04394
0.8286094,78.27706
0.9907423,80.625885
0.9667039,78.51438
0.9637425,74.96845
0.97326535,74.68882
0.95139027,71.45481
0.84920675,72.75295
0.90669405,69.517456
0.8300822,69.08104
0.881496,68.90374
0.8617473,71.02554
0.8468049,69.6867
0.8679003,67.57917
0.84598875,67.47585
0.8031496,64.34565
0.7510588,65.713356
0.7352116,66.90903
0.65627134,71.10194
0.6332274,69.072365
0.5609373,68.6014
0.5941924,69.14682
0.5727744,69.60002
0.5679271,68.524185
0.5234084,69.78008
0.51756984,69.88223
0.51437414,70.88441
0.5857206,73.513855
0.57695735,75.38345
0.548456,78.36618
0.53449225,81.86602
0.67286646,79.58243
0.6899019,80.08374
0.72136074,84.154724
0.7460037,86.14282
0.82357234,87.76362
0.9959997,90.68561
0.9977492,93.40173
1.0913817,96.28341
1.163052,97.83279
1.1848422,94.36507
1.2157876,104.111496
1.2107327,101.53467
1.4027897,106.28766
1.4334686,108.29488
1.490898,109.639915
1.5689816,111.58484
1.6347251,115.718796
1.7076749,118.99292
1.7052966,118.13263
1.7955761,121.73895
1.7835884,121.403595
1.8132818,123.767654
1.8535736,128.20695
1.7810298,129.74112
1.8951823,131.90482
1.9062252,131.59102
1.8234297,134.52296
1.8961118,134.9305
1.8148221,135.75816
1.8801348,136.05367
1.8866167,136.47424
1.9105985,138.58748
1.7835202,141.87502
1.7856219,136.7289
1.9208788,141.52794
1.8361536,137.34605
1.8128239,139.70619
1.8127122,136.84383
1.874289,137.69405
1.7600375,135.91968
1.7010149,136.23102
1.7130033,134.6331
1.7376117,137.17564
1.5823984,138.44827
1.6436777,137.41133
1.5997791,134.68239
1.5846696,134.4314
1.5445884,129.1842
1.5286357,131.92621
1.454457,131.08746
1.4681647,131.03632
1.4954191,126.87573
1.3948642,125.39871
1.433947,126.51555
1.4036603,125.97138
1.3985994,122.820786
1.3658199,118.10882
1.3589668,118.75584
1.3026544,119.79
1.4286225,119.74547
1.3828162,116.57072
1.2467325,113.9731
1.3096696,114.98948
1.2941636,114.240135
1.2552792,115.646126
1.2540572,109.18242
1.2115073,109.34815
1.2027925,106.863686
1.3075404,111.1232
1.1915307,103.67251
1.0920407,107.34377
1.1329938,106.23756
1.0676986,100.113594
1.020939,93.86433
1.0785614,97.14304
1.0198503,97.431335
0.84821546,96.61806
0.91983944,100.794815
0.9176115,93.66275
0.83112943,93.97627
0.804026,93.707344
0.7600761,89.491844
0.80787385,90.76172
0.6915417,85.62462
0.78700405,87.739006
0.67719495,82.093544
0.6860471,81.53981
0.6771944,83.54087
0.62382656,80.588684
0.59458846,78.75636
0.65873957,74.51364
0.5838765,78.410095
0.6656022,75.33116
0.64827645,73.84227
0.6271884,75.65105
0.627663,73.15555
0.64110607,73.44115
0.5955035,71.62778
0.5275859,70.09382
0.5784667,70.87942
0.5448076,68.341156
0.4875319,66.40149
0.487909,70.77899
0.44512823,66.8284
0.39544377,69.04938
0.41485795,69.64777
0.28586113,67.98218
0.28645223,68.58571
0.22446083,67.654495
0.2211998,68.81669
0.28109062,67.323425
0.1948132,69.9891
0.18886927,69.980125
0.09074645,73.589775
0.18315765,73.02908
0.16746947,73.17203
0.13895096,72.70883
0.18265808,78.1015
0.2152362,74.23122
0.34605557,79.60058
0.30831805,81.57471
0.27414364,82.25379
0.3376238,84.67437
0.59766304,85.53096
0.6134402,87.51507
0.55607396,93.602585
0.597053,94.12871
0.7851064,98.89408
0.75457513,97.170166
0.90897775,100.87899
0.8923688,103.337105
1.0337926,105.878784
1.0853548,107.73495
1.0837802,109.9407
1.1464608,115.0056
1.1930722,114.28738
1.288613,119.76915
1.319205,121.744354
1.2912389,122.497505
1.2135442,125.23105
1.3172812,129.19493
1.3667113,129.16249
1.4743075,129.30606
1.4423524,130.56644
1.5283478,130.57161
1.489309,131.95584
1.5217686,131.51193
1.4549633,136.05762
1.4903072,138.92514
1.4449545,137.62207
1.5380846,136.79843
1.5085486,136.18282
1.5512619,136.6383
1.4684845,140.87094
1.4241694,138.05804
1.4795669,140.08578
1.4305745,135.90541
1.4744413,134.10608
1.4094737,137.19443
1.3924001,136.69357
1.3185208,137.4166
1.3135759,136.5493
1.1756451,136.01205
1.2606258,132.63657
1.1798631,135.3955
1.2958729,130.32271
1.1656362,132.30627
1.1099094,129.11063
1.0621738,133.77217
1.0607017,128.85355
1.05764,126.80323
1.0940598,126.0489
0.9971675,123.1994
1.0225294,122.92939
0.9965589,122.66263
0.91896385,120.88718
0.9863724,122.251495
0.9640299,118.31513
0.956082,115.966774
0.91762733,112.85719
0.92632085,118.34446
0.90900636,112.8588
0.9034622,112.20716
0.93083143,112.098114
0.89088726,105.79131
0.90534973,110.562515
0.8311958,104.9329
0.8534735,108.18226
0.81571686,106.05261
0.75558674,103.43846
0.8002394,99.40613
0.76707953,100.831535
0.5833516,100.18581
0.7222145,96.22843
0.6649782,99.71453
0.567815,93.37073
0.57483494,96.226395
0.45007223,95.22206
0.56086046,91.34087
0.42790857,88.342354
0.4346549,88.03938
0.3625178,91.28745
0.24119326,86.12018
0.3618962,84.21819
0.40620092,89.46561
0.38938755,84.1738
0.41362545,81.66557
0.2154387,81.01969
0.40625876,78.10977
0.36486104,76.4911
0.31402776,76.36628
0.25206354,75.81265
0.37571526,73.81739
0.3068637,72.73601
0.2385914,71.16526
0.32651883,72.14806
0.257879,68.895355
0.34692937,68.8761
0.26714095,68.50783
0.20762439,69.78505
0.24049267,66.70354
0.27637973,68.506065
0.17835927,67.579155
0.17220405,65.17938
0.15866037,65.77888
0.070505746,67.02379
0.10010711,68.08445
-0.03357303,65.840706
0.08616164,68.96036
-0.01620556,65.25524
0.028340545,69.03844
-0.048916437,70.40905
-0.029067123,70.14863
-0.008759672,72.23055
0.0208598,71.6907
-0.11182445,77.605896
0.03188524,75.136185
-0.011281338,77.17353
0.037374236,80.75378
0.15102926,80.44634
0.19580996,85.37803
0.28399804,83.95121
0.29812703,89.02065
0.396641,88.92288
0.47986916,91.045906
0.49315512,96.10232
0.563557,96.479294
0.6850061,96.7663
0.7023942,102.66513
0.8525556,100.92724
0.79783416,105.46821
0.952001,107.03091
0.98546714,111.36553
1.1303772,109.357414
1.0615058,114.073166
1.1479597,117.22627
1.1605414,117.82492
1.1624693,118.56193
1.2094429,124.507935
1.3245305,125.8434
1.2869322,127.61657
1.2815583,128.3506
1.3664154,130.17108
1.3828504,129.78659
1.4398065,131.06345
1.4229122,131.9295
1.3698298,135.5982
1.4029169,133.77419
1.2840796,137.20183
1.4573203,136.57182
1.4113595,139.85403
1.3873786,138.47464
1.4084194,137.96657
1.4145784,139.22603
1.4067729,139.63737
1.4045395,139.96205
1.337429,139.17288
1.3830495,137.82921
1.3317865,136.29398
1.3184476,133.7287
1.2389376,139.00276
1.2790418,136.88974
1.272653,137.188
1.2382326,133.18654
1.2358433,133.72293
1.1792728,132.28194
1.1699142,129.14967
1.0719466,129.63652
1.224165,129.3544
1.101438,125.4654
1.0950602,126.78367
1.0877997,124.21848
1.1181183,120.53207
1.0487711,125.002075
1.1009963,123.67409
1.0314294,119.10013
1.0225747,119.53261
1.0437844,116.41491
1.0288236,113.89612
1.0643312,115.12491
0.95703995,112.88054
1.0614682,110.85269
0.9930716,112.589455
0.9729447,111.36464
0.9679609,107.55649
0.94227546,106.42631
1.0219309,106.72127
0.9301855,105.69479
0.87817156,103.55694
0.8143271,104.63707
0.87018454,101.439224
0.8630065,99.86482
0.7738196,96.53805
0.8085011,96.31893
0.7384807,96.04818
0.6684505,91.79232
0.76337504,92.48533
0.6382259,92.94482
0.63267326,88.6507
0.6510956,87.78072
0.63037294,88.91803
0.56375706,85.75691
0.6887964,84.569046
0.59215295,85.428276
0.54944277,79.96715
0.6168946,83.47579
0.5716275,79.38426
0.5830309,77.95103
0.57150173,79.099686
0.5630824,76.38559
0.59894544,76.00625
0.5281919,73.91235
0.50582004,73.33365
0.6311914,72.965675
0.59692,72.95579
0.58276063,70.718796
0.5557437,71.28441
0.58938515,68.759926
0.57778853,67.95712
0.5309207,64.03481
0.40760776,67.32176
0.5165986,68.98118
0.47387493,70.19485
0.38279605,67.95317
0.42426,64.59285
0.42877436,62.500656
0.3117027,67.62733
0.31381163,64.588554
0.32582673,69.0695
0.31703532,69.686295
0.24463257,70.55528
0.2731973,71.747894
0.36147183,74.72453
0.40930042,70.858185
0.30854332,75.87928
0.29497072,77.55476
0.40565506,78.8469
0.4803332,80.073
0.43325442,78.6963
0.5526097,84.477715
0.5546561,88.233955
0.6042564,89.72168
0.68909794,88.89595
0.7232386,88.12961
0.8548338,92.25492
0.8829319,94.94428
1.0023369,100.12377
1.0468599,102.39153
1.150605,103.93492
1.1918595,105.512024
1.2659434,112.37743
1.4625832,108.20422
1.3804014,113.07248
1.4665343,114.9666
1.4823182,118.91433
1.6265755,118.161385
1.6229059,122.84825
1.6940842,123.04119
1.708907,122.28936
1.7749853,126.45247
1.7187353,132.03204
1.7029558,131.31667
1.7659749,133.75464
1.8537345,130.58247
1.8313882,136.98062
1.8736097,134.33957
1.8538357,136.99486
1.8550155,132.9763
1.8499192,140.41464
1.8927506,137.41946
1.8037784,138.51859
1.8829635,139.3179
1.8325677,137.85959
1.8110206,139.71986
1.8371736,134.78888
1.7446469,138.84016
1.7616549,140.09702
1.7462825,136.73488
1.6440456,137.27835
1.7697084,134.31244
1.6603148,137.30876
1.6916381,136.05638
1.6185424,131.88129
1.6345221,136.2134
1.6338242,130.14653
1.5577028,133.94904
1.5892986,131.93332
1.5336504,131.34047
1.5900999,129.71967
1.4805806,122.61016
1.4516088,122.54342
1.4950602,126.00639
1.4839187,122.656746
1.439777,123.26665
1.5048336,120.90224
1.4370943,117.85048
1.3937235,116.89836
1.4750568,115.65071
1.4470384,113.369156
1.4466684,111.88706
1.4338298,111.45961
1.3667212,108.545845
1.3800609,110.49313
1.39348,106.40361
1.3228664,105.13155
1.3852283,106.49732
1.3644576,105.02262
1.3041569,105.16883
1.2598902,101.15017
1.2706968,104.11794
1.3015256,98.79291
1.2024733,96.67596
1.1147838,96.38108
1.1401016,96.37522
1.1249406,92.72418
1.1692643,92.558426
0.9856251,92.04817
1.0093995,90.66965
0.9693311,89.86532
0.9579685,89.11369
0.92174506,87.96427
0.8994524,89.14037
0.9477663,83.491776
0.9015621,83.1233
0.9628293,80.495926
0.8558776,81.43959
0.9424589,76.6137
0.9344827,77.93914
0.8180845,73.87187
0.8987122,77.82885
0.9792353,73.23563
1.007935,71.01135
0.926475,73.596085
0.87702143,69.03616
0.8837526,69.8256
0.8455962,70.8646
0.86088634,70.14214
0.80538034,66.83328
0.82559675,67.18947
0.79579204,67.7698
0.73832536,67.849594
0.77546626,66.984245
0.6818052,68.285095
0.691844,67.49053
0.7111557,67.49195
0.6567602,68.65892
0.6018297,68.24333
0.6290085,67.55968
0.6458258,67.42049
0.5734872,68.05595
0.47657308,70.80349
0.5799343,72.70303
0.54177207,75.99067
0.65025115,76.03512
0.63209385,76.45659
0.6029856,76.74008
0.67409754,78.84289
0.64699036,83.51435
0.8228906,84.77739
0.7259852,83.49018
0.864831,88.06003
0.8992535,92.01362
0.97641057,90.77923
1.0426282,93.76764
1.0290096,91.76255
1.1692197,96.02191
1.2461323,100.820404
1.3496563,102.047554
1.4188267,106.80285
1.4733368,106.29324
1.4486699,107.5187
1.626031,112.23061
1.5774497,114.297195
1.6638256,118.588
1.7654418,118.568565
1.8582352,122.41619
1.8785261,123.44035
1.8884937,123.89176
1.9170209,127.14481
1.878339,128.85725
1.8805807,130.37169
1.8850689,132.88559
1.9783882,133.63779
1.9270796,135.0855
1.955572,134.28406
1.9354393,132.27043
1.8894155,138.74619
2.0082924,136.8967
2.0361145,139.24197
1.9224205,139.53403
1.9370004,139.08403
1.9274905,135.75719
1.8856223,135.9753
1.8677701,138.98285
1.7806709,139.00018
1.7703732,137.20695
1.7987996,139.3375
1.8156132,133.23091
1.8115206,136.04253
1.8121786,138.77962
1.7017615,134.05132
1.6661904,134.4675
1.6851673,136.0829
1.6047585,132.48349
1.6157199,129.18152
1.5264469,132.87123
1.5338235,132.37575
1.5155954,125.730064
1.5041574,126.67994
1.4987049,125.67834
1.5466942,122.90597
1.4686805,123.117485
1.3690653,121.28019
1.3262765,118.58548
1.427546,120.85205
1.3803906,116.231995
1.3789898,113.10562
1.2531325,115.18724
1.4239093,114.64915
1.2916316,112.83552
1.3818423,107.526146
1.4058684,108.8221
1.345098,108.60385
1.2880876,109.14418
1.2787855,107.62439
1.2681545,105.10315
1.228471,104.21019
1.14012,100.4179
1.1327139,101.800446
1.0945584,97.59918
1.0274975,99.992584
1.0120698,99.25316
1.0429562,94.852615
1.0485312,95.56889
0.9945602,94.63939
0.985076,91.82756
0.86892956,91.04989
0.8565997,91.79036
0.7567955,90.722565
0.8248201,87.201004
0.8054353,85.63251
0.73956823,83.89086
0.81975645,80.73984
0.68232846,83.08636
0.7427089,80.25106
0.80347353,76.76388
0.75338054,76.04633
0.6977297,77.86073
0.70894444,78.598495
0.6773956,74.436165
0.69292885,74.45164
0.654991,69.46838
0.6827993,72.640816
0.6752195,71.5801
0.6440398,73.37113
0.6954241,68.58015
0.58694464,67.408745
0.6181116,70.66576
0.575815,68.36144
0.5758528,68.06318
0.46184012,67.88279
0.41269702,61.090004
0.37816682,65.85394
0.44200292,64.035706
0.35062036,70.95539
0.3029924,69.16753
0.33078542,68.12602
0.24872972,66.52801
0.2780917,70.33763
0.28611442,72.52206
0.2758282,72.647766
0.2186257,72.76219
0.20803271,75.65282
0.3562707,75.32386
0.27834606,75.379585
0.33850342,81.15293
0.45127282,79.43572
0.42528433,83.38029
0.5159639,86.69321
0.5297234,84.66229
0.6056295,88.9638
0.6997993,92.49123
0.69967675,92.1037
0.84360963,98.8982
0.8367875,100.23963
0.89122236,100.11443
1.0417036,101.701035
1.0799367,107.5259
1.1393331,109.53844
1.2781123,109.11531
1.3516959,111.85015
1.3061677,115.62672
1.3154209,116.273834
1.3199617,119.25137
1.3874013,120.897285
1.3841858,122.13488
1.5197418,126.42338
1.4880813,124.22171
1.4182935,129.45012
1.496976,129.4436
1.5682985,131.1141
1.593274,131.47522
1.5117588,135.31589
1.5802038,135.9628
1.5444143,133.65692
1.4892135,135.90956
1.5901654,138.65764
1.5228174,139.64084
1.4755816,139.10356
1.5286546,141.07906
1.5287931,135.99077
1.4737333,136.65102
1.5290908,140.27539
1.4916203,137.7619
1.4570037,139.7265
1.4035476,138.54372
1.4755083,138.59941
1.2904236,139.98335
1.3858271,136.28645
1.3270074,137.97314
1.2949662,136.09172
1.2765206,134.37828
1.2125604,133.23563
1.2041851,130.42488
1.1159117,132.21083
1.1238414,128.88852
1.0971333,132.78293
1.1297718,128.72699
1.0553588,126.31732
1.0822443,126.58099
1.0833166,121.86163
1.1115589,122.37765
1.029397,118.77476
1.0574545,117.41313
1.0551201,114.88826
0.9824907,115.35632
0.94468397,115.511986
0.97352743,112.04234
1.0872086,112.87297
0.9684459,111.409134
0.99982184,108.1416
0.9579822,109.715965
0.9171259,108.04239
0.91590273,105.77598
0.91741556,104.85351
0.7690251,101.207054
0.7711545,102.275604
0.7535772,99.91402
0.8292828,99.168175
0.63559693,99.162544
0.67398435,95.77652
0.55545294,98.00353
0.61565125,94.81737
0.59281397,94.05999
0.59605986,91.84451
0.48334485,86.787796
0.4280575,89.02836
0.50891423,86.72771
0.41852227,86.00628
0.42225084,86.04093
0.40402582,83.98939
0.436488,82.712616
0.38770634,81.67543
0.4012795,81.13177
0.3805287,79.68048
0.38687417,77.22003
0.35887733,76.92759
0.3617202,78.7217
0.37134108,71.175766
0.4152358,75.65345
0.34346884,71.557014
0.34032476,74.808075
0.32972085,72.0747
0.30732328,70.26489
0.30703908,68.22374
0.1927702,66.43446
0.21698138,68.783554
0.09680789,66.164154
0.22937138,69.45256
0.08322442,66.66157
0.08388442,64.69669
0.05099222,67.066635
0.13849932,65.82638
0.086449526,64.97497
0.04925535,69.55786
-0.026659781,70.54496
0.00012371824,68.2384
-0.056739222,69.9156
-0.097109415,69.67892
-0.06723105,74.60756
-0.105819136,74.455185
-0.04068424,75.408035
-0.019754168,76.63857
0.09273105,75.8833
0.075463094,77.57821
0.055683706,81.22146
0.02628525,81.205315
0.30327725,82.573494
0.33530557,86.93519
0.39312375,87.865776
0.42103863,95.09176
0.49854589,91.54652
0.5621589,93.78717
0.5420677,97.99899
0.6420564,100.72619
0.7121609,101.46216
0.8159113,105.481026
0.8484732,111.76559
0.9567591,108.18059
0.9131572,114.1904
0.94837224,115.082664
1.1053994,117.69446
1.205124,117.08413
1.1554008,123.066605
1.2339433,124.09298
1.2983949,126.37401
1.324433,128.62769
1.3214794,130.16843
1.3208892,129.88765
1.3951496,129.9362
1.3713821,131.19229
1.3183289,131.44984
1.4184645,136.1897
1.3955853,135.38695
1.284418,134.49867
1.3918576,137.39568
1.4104726,138.45332
1.453702,138.40721
1.3834901,139.49802
1.3425816,139.53185
1.300875,142.01958
1.3725648,140.52759
1.3668861,136.17795
1.2587639,141.80588
1.345256,138.19879
1.3306836,136.23273
1.2767602,136.39815
1.242482,135.74237
1.1646062,136.21208
1.195232,134.79895
1.0412796,136.67308
1.1329774,130.75706
1.0956637,130.73938
1.0076687,130.74411
1.1417129,129.67445
1.0211754,126.009224
1.0145563,124.11073
1.0009686,123.42423
0.9905381,123.53919
0.9786512,123.48232
1.0113432,119.988075
1.010161,120.59662
1.0020666,118.12836
0.9838178,115.873375
0.93196124,119.2473
0.93263036,116.9397
0.9730513,109.81361
0.9680805,112.95125
0.9128596,109.788086
0.9470962,110.87831
0.87053853,109.494354
0.9770359,106.97846
0.88047385,106.826065
0.8883781,104.517914
0.92292833,103.856224
0.76380074,105.6268
0.7845439,104.20532
0.83804286,101.46837
0.77704716,100.24205
0.67421865,99.87993
0.74481446,96.9953
0.6905487,95.07593
0.7096338,91.86547
0.64517623,89.96721
0.6053849,90.2997
0.46496224,89.835396
0.5894927,85.84175
0.5315652,88.44611
0.49226975,83.03515
0.49961728,82.720665
0.45551792,80.695015
0.5358861,83.61261
0.43493706,78.66778
0.50631833,80.15147
0.41168186,79.268036
0.57223314,78.60962
0.4613562,76.639404
0.5070742,75.192764
0.4465739,74.04141
0.5306798,75.917435
0.42746451,69.786255
0.44682223,72.44929
0.44272482,68.17582
0.49961627,70.251305
0.3900203,65.82513
0.4168962,66.61449
0.46062517,68.576996
0.28833112,69.289215
0.3178341,68.2051
0.24070843,68.19582
0.2957779,66.180824
0.36297387,64.47539
0.24611276,69.70694
0.20684496,66.689
0.12766011,69.94838
0.23044461,69.10986
0.09877233,70.461945
0.25518426,71.083916
0.19353755,70.51184
0.2084092,74.796486
0.2333458,74.199844
0.2118083,75.98137
0.25860333,78.65502
0.30470696,78.473404
0.29095563,77.55443
0.35069722,84.36305
0.51429063,85.20431
0.57114124,89.064514
0.6335835,91.80989
0.7063241,90.65894
0.82852787,92.30655
0.8304629,99.86441
0.9371935,102.241295
1.020984,95.31025
1.0501084,103.37805
1.1214539,107.81819
1.1327378,105.11507
1.2535626,110.06119
1.2584232,114.29686
1.3392907,114.051575
1.4139881,115.9536
1.4765016,118.45392
1.5215507,121.938034
1.6134709,124.69157
1.5946145,126.84161
1.5274731,126.17028
1.6214488,128.95006
1.6147859,131.60835
1.6538827,130.45247
1.7049464,135.93352
1.8009441,131.32481
1.7666711,133.40544
1.7722763,134.16423
1.7287761,136.77544
1.7339387,137.11871
1.7267019,135.69464
1.7235287,134.15341
1.7668843,137.52245
1.7985961,139.13591
1.7147243,137.03217
1.7376783,139.26468
1.6925217,136.68135
1.6842155,138.90945
1.7888305,138.7058
1.6455858,135.9449
1.6353853,136.6444
1.6716486,132.84335
1.5625567,135.58578
1.5706917,138.42192
1.5113794,133.1829
1.561728,132.14331
1.5477388,132.2186
1.4769685,127.64555
1.5666147,128.73907
1.4698114,126.96159
1.5066398,128.35788
1.4698895,125.82271
1.401079,124.91398
1.4180747,122.38191
1.4088838,122.34496
1.4294205,121.390915
1.3860259,118.872536
1.4318374,117.256065
1.3531684,111.827934
1.3356118,110.8292
1.4040796,114.392815
1.4312208,115.381805
1.332191,110.03512
1.3049445,110.39518
1.3068085,110.59371
1.3434584,109.51965
1.2490393,106.442535
1.2857566,107.799515
1.2717587,102.45241
1.2216675,100.64703
1.2611276,99.12891
1.1453462,99.715126
1.1522684,100.12403
1.0939908,96.63022
1.1126806,96.29043
1.0957425,93.86958
1.0201238,95.154305
1.0031763,88.323
1.0194436,88.62617
0.986533,90.17958
1.0152637,88.64107
0.9172926,84.948265
0.8132276,82.36648
0.83055615,82.990036
0.9155988,79.20658
0.9272885,83.73914
0.8436685,82.71866
0.8512097,79.42805
0.8878334,79.986145
0.8421471,74.849075
0.9231936,71.99491
0.8853851,75.85337
0.96057117,74.52415
0.8467997,77.53001
0.8225493,71.19534
0.8762504,72.04137
0.85545486,70.42595
0.82976246,69.08944
0.7662092,69.47902
0.81283045,66.53711
0.80207294,69.930275
0.7804137,64.41938
0.7552605,67.86885
0.7622157,69.76205
0.6594738,69.45101
0.63130015,65.585785
0.6921906,69.487015
0.5488434,69.09841
0.5981083,70.724724
0.48631138,69.60853
0.6026366,68.44175
0.52093625,70.59075
0.575715,69.984436
0.436488,72.99567
0.5163066,76.69853
0.62664264,76.42365
0.5734215,79.10021
0.6285825,81.32366
0.67308944,79.26473
0.7647127,84.274254
0.79337704,81.04051
0.77519405,88.40595
0.9138688,85.30864
0.9867495,92.2066
1.0165869,93.34856
1.0854075,99.84092
1.1140351,95.32791
1.318673,98.57536
1.3602221,105.51385
1.4277326,101.86674
1.5518153,105.28387
1.5819912,112.331116
1.560865,110.91127
1.6624209,114.434975
1.6876308,115.89577
1.7621117,120.40456
1.7701715,121.194244
1.802788,122.18158
1.9061475,124.50154
1.8033106,128.17079
1.8689156,128.7338
1.8097516,130.76144
1.9867574,129.83685
1.9416606,133.12431
2.0308657,134.29778
1.9780056,138.72025
1.9176753,136.98166
1.9150594,135.95297
1.910363,137.95612
1.9623989,136.50055
1.9973717,139.85764
2.004125,137.6282
1.8411359,136.4806
1.9641502,140.79868
1.9604545,137.91568
1.9068857,137.57695
1.8545434,139.1003
1.8967698,135.60774
1.866432,137.56863
1.8271174,136.4021
1.7064583,136.68127
1.6974776,134.34674
1.653762,134.4141
1.6757332,132.52618
1.6619065,136.35103
1.6229953,131.01192
1.5684443,130.12637
1.5540085,126.92147
1.5658096,125.40307
1.6721579,124.65231
1.6198404,126.42385
1.5001191,121.33814
1.5396246,122.32164
1.553352,122.59122
1.5412574,120.29152
1.3993342,120.00636
1.5071609,120.54284
1.4901168,119.56403
1.5199264,115.487335
1.3642063,115.9438
1.45556,114.23155
1.4502561,109.566284
1.430718,109.02679
1.4258119,109.3492
1.4060354,107.3043
1.3777398,105.30907
1.3392762,106.157486
1.3023167,100.0149
1.3365166,101.41699
1.204035,99.63294
1.2772057,100.47233
1.1856456,98.57148
1.1638906,97.3858
1.2166727,96.80127
1.0243593,96.68598
1.1252912,93.275116
0.9734917,92.141884
1.0309991,93.2116
1.0161686,91.345985
0.9583538,88.1679
0.97398436,83.73078
0.85850257,84.44552
0.9077159,80.82584
0.6958218,83.58227
0.914253,82.950935
0.83863175,80.72398
0.85918266,81.18409
0.8397009,78.22947
0.87373745,78.1456
0.81412256,74.49328
0.845575,74.76316
0.81704515,72.90734
0.76833504,69.95005
0.855238,69.747856
0.7683308,71.52428
0.7459512,69.633
0.7394322,68.28494
0.81123245,68.87968
0.6929704,69.5246
0.63817674,66.878944
0.610151,67.4447
0.5522935,67.95675
0.59370625,65.10161
0.48121864,65.09755
0.47521654,66.435425
0.37194008,67.836
0.45515934,66.82228
0.38412142,68.77821
0.41756567,69.30701
0.44176054,66.33614
0.36610138,70.54425
0.31072617,75.87465
0.39476252,69.5341
0.39732242,74.79632
0.42682552,78.43697
0.41189012,75.53444
0.44107044,80.69789
0.5443027,82.01401
0.4626781,85.97083
0.5579003,81.06138
0.6302835,85.06986
0.72812456,88.0112
0.68054193,94.70719
0.8290499,93.82962
0.8824005,95.605515
1.0081815,97.65636
1.1137568,100.220825
1.1026466,106.85344
1.2170196,104.30081
1.1911144,107.129555
1.2651714,112.03947
1.3549693,110.01567
1.3504183,114.18595
1.4013181,114.49258
1.5194688,123.14131
1.4229528,122.505356
1.494457,119.94154
1.525378,126.01761
1.6015756,125.71488
1.5618559,128.94925
1.6544474,128.07677
1.6734524,128.47688
1.5675068,129.44347
1.739713,134.92017
1.6272237,133.16353
1.6651075,133.64314
1.6429892,138.45981
1.6975168,134.57634
1.6867629,137.84497
1.4841323,139.59622
1.6122497,138.47223
1.5300322,139.21568
1.5767353,140.60344
1.527369,139.17159
1.6356472,140.24057
1.4934789,137.59927
1.5113052,137.76213
1.486718,136.3711
1.5292184,139.05928
1.5035177,133.7848
1.4422346,136.4448
1.2458262,131.90869
1.3296139,134.29297
1.3148136,133.29175
1.3796101,133.8572
1.2090979,132.65323
1.2554855,128.54358
1.1759808,125.10204
1.1437206,123.608696
1.1467924,126.62525
1.1807573,126.627
1.213881,124.34037
1.0611093,120.09644
1.0872416,122.44558
1.1545497,119.53006
1.1076238,116.05844
1.1105883,117.71025
1.1306343,116.51834
1.0732008,112.99393
1.0397527,112.91771
1.033312,108.87038
1.0593756,108.04915
0.954528,106.07262
0.9646825,106.259796
0.97297835,102.97999
0.9491169,104.69729
0.8784704,103.557915
0.9348044,99.961555
0.88009226,104.2423
0.86171556,99.88325
0.7950705,98.404686
0.74096954,99.28413
0.70384526,92.361885
0.69505996,96.92962
0.5790505,93.60906
0.6779698,93.399124
0.4898123,91.89704
0.5101985,91.344666
0.47384208,91.16287
0.46993405,87.96843
0.54287237,86.23774
0.4783933,82.203445
0.5505889,81.76841
0.4798459,82.77499
0.46407083,82.9323
0.3815809,79.58357
0.4003392,77.388435
0.43079174,79.97494
0.42070344,77.41871
0.36574057,75.6464
0.3706678,72.09132
0.42878926,72.48721
0.41462904,73.288216
0.39468497,72.19635
0.46050864,69.664795
0.3648083,68.08454
0.2973377,70.90669
0.24666838,68.39236
0.26099777,67.34614
0.23986502,67.61215
0.2305184,62.3797
0.19188106,66.59441
0.15814294,64.6444
0.10454718,69.083786
0.10388903,68.80558
0.030614942,67.48803
0.0011951174,67.41712
0.13960086,71.57258
0.057867665,73.34336
-0.016902452,73.16782
-0.053968284,73.62634
-0.09427432,70.32954
0.079369925,75.05825
-0.024147728,76.22873
0.014875653,77.23697
0.08951786,79.68558
0.10605256,79.69209
0.15913537,82.60812
0.25208047,85.28682
0.23386993,85.21561
0.31401908,88.902725
0.37628528,89.819756
0.46380305,94.50319
0.5201362,92.39575
0.5706581,97.76797
0.68876106,101.86141
0.77514285,103.4379
0.8529652,99.893524
0.9205208,106.89942
0.9000989,109.371864
1.0085797,113.64336
1.0263723,119.83193
1.0630925,116.0883
1.1235999,118.75305
1.2137789,120.20454
1.2239841,123.24531
1.235506,125.6434
1.2401026,126.0235
1.2458348,126.77967
1.2695909,131.05817
1.3834981,131.37527
1.3001993,130.28108
1.3136221,136.57626
1.400099,135.43182
1.4117861,133.68477
1.2989378,135.1854
1.3748008,134.4523
1.3557734,136.37407
1.4008917,137.91324
1.3658108,138.22125
1.3567104,137.84193
1.3038281,140.4789
1.2628756,139.23213
1.2649789,140.94055
1.3479121,136.40031
1.3021392,135.67464
1.2010529,136.06075
1.2219586,137.37154
1.204862,133.62318
1.1526935,134.16571
1.0315238,137.9701
1.1749026,132.60542
1.1361455,132.52019
1.0880013,133.42853
0.9826296,131.12276
1.0494754,128.45538
1.0060841,128.52542
1.1087465,128.84108
0.9654282,125.19796
1.014144,124.18721
0.9405071,120.88617
0.974543,121.602615
1.0081234,120.78869
0.9153543,119.015305
0.8740247,119.83753
0.9230853,116.4231
0.8201952,114.595184
0.8859048,115.09018
0.90484846,113.56099
0.9773933,111.786865
0.8730123,110.84955
0.9596592,109.36881
0.8502598,106.47821
0.8698556,108.744774
0.90973085,103.096054
0.89746094,100.18281
0.83978325,103.06204
0.79783154,101.578766
0.68365645,101.07721
0.7123425,97.953804
0.7580466,97.78333
0.6770863,94.59213
0.60060763,95.85386
0.45026255,94.59951
0.4897147,92.89588
0.5055354,91.759056
0.5069247,89.50768
0.49675792,88.84039
0.39444938,87.45799
0.44881365,83.60483
0.37479827,87.47219
0.37306136,84.25715
0.4740718,81.576385
0.36186102,78.681595
0.43567672,76.044426
0.39543843,79.54075
0.32350743,72.86435
0.44968194,75.51058
0.35388553,77.278885
0.4254933,73.72423
0.3840752,72.66441
0.4185713,68.570915
0.33567736,72.64736
0.38368732,66.32496
0.34181547,69.96358
0.35881233,70.77785
0.27642038,68.74508
0.3135633,68.301674
0.34840205,67.84477
0.17679928,67.06802
0.24651703,65.35086
0.2077857,68.37132
0.18983915,67.6606
0.08807809,67.678246
0.18703616,69.102295
0.14742169,69.4991
0.10947695,66.09999
0.2136262,68.74115
0.106964484,70.55489
0.047519993,73.46429
0.13839546,74.57065
0.13204554,73.527145
0.066606395,75.312965
0.06738104,77.624825
0.16402633,78.60485
0.2262483,81.90188
0.23608643,80.90729
0.36370692,85.65881
0.44978988,88.53552
0.53317004,90.32572
0.55965376,90.97957
0.69372976,96.16815
0.7492183,93.760704
0.7134678,95.69874
0.9242638,97.94244
0.96193343,102.42151
1.0672318,108.22693
1.1233882,106.54644
1.2259516,110.361755
1.1837231,114.05041
1.2553561,112.98591
1.3937563,118.91118
1.4155833,118.63212
1.3979945,121.79202
1.5260029,121.68123
1.4988091,124.45906
1.4075488,125.3939
1.6478455,127.470345
1.5876838,128.56108
1.6666352,133.30711
1.6109359,131.68333
1.6458592,132.54713
1.5775555,136.13849
1.6604918,137.66846
1.6470958,135.14032
1.6008329,134.4669
1.588124,141.20543
1.684635,139.02037
1.6452669,137.63268
1.630525,137.37463
1.6453669,139.7378
1.6581348,141.46603
1.6998149,137.60905
1.70498,138.66513
1.6310459,136.01656
1.6276073,137.4871
1.4617842,135.80899
1.580403,135.94019
1.4749868,136.09369
1.494203,134.51492
1.4785393,134.17789
1.4212494,134.6504
1.4247392,131.84657
1.5128062,128.34816
1.414229,130.53647
1.3834293,126.2357
1.3237404,127.77261
1.4092872,129.79695
1.3995761,126.07487
1.3049322,122.833206
1.310186,121.758865
1.3681555,121.60462
1.2414113,118.66567
1.2840515,118.15455
1.339565,119.647095
1.2326266,117.35602
1.3233238,113.96817
1.2892919,113.46003
1.3402213,113.36582
1.2766328,110.54313
1.2450548,107.56683
1.3356602,109.41274
1.2004687,108.77173
1.1927115,106.62642
1.1192834,105.9843
1.093294,101.74829
1.1126357,101.63115
1.0950869,100.34581
1.0371345,97.225334
1.050684,99.06702
0.9812837,92.50664
0.9769915,94.948845
0.9742481,91.78264
0.9090969,92.68211
0.9622476,91.90625
0.8952601,91.05135
0.8585279,92.5352
0.81385714,87.27689
0.86494076,82.70625
0.8129046,85.56228
0.84452784,83.16589
0.8594507,79.19511
0.88974303,79.44778
0.8016156,80.0319
0.8888211,76.05868
0.85176075,79.22835
0.82136196,77.60872
0.83134884,72.54599
0.82631534,74.996605
0.89498276,69.69551
0.87362254,72.23875
0.7789301,73.35779
0.7720336,67.39972
0.77444094,69.0817
0.82911754,70.56655
0.7889421,69.10136
0.75078446,70.17469
0.6018822,68.61393
0.7437868,68.683464
0.7173046,66.806335
0.5466243,65.852905
0.5676943,64.54598
0.4800647,67.58539
0.6087797,68.816345
0.4727158,69.63997
0.5081711,70.23324
0.5222045,67.40543
0.5094039,71.66613
0.43568748,69.09598
0.55926925,75.31628
0.47232,68.11682
0.6311612,78.049164
0.5821738,79.35947
0.6276851,81.024284
0.64181274,82.54451
0.6447065,82.23722
0.7760877,82.768295
0.8199546,88.63789
0.9097938,88.92305
1.0431793,90.6722
0.91830486,92.4867
1.0879037,94.20424
1.1638508,95.82653
1.3064033,100.05833
1.2792922,102.18491
1.3635079,106.64604
1.4048104,105.05748
1.4970219,107.97798
1.4861628,112.51833
1.5872256,114.58173
1.709569,117.7136
1.7704005,119.06824
1.7785032,120.27992
1.7932563,122.02574
1.7642885,121.01407
1.8605524,124.34755
1.889792,125.75599
1.8915411,130.09839
1.9337181,131.84497
1.8875514,133.13945
1.9809965,136.23903
1.9573243,135.13821
1.9431381,137.31969
1.9816397,133.7177
1.9787214,141.10912
1.9977423,137.85391
1.9340749,136.10675
1.9045622,141.515
1.9119148,140.15639
1.8464404,139.98889
1.955647,139.8977
1.8775759,139.0927
1.8904421,139.61151
1.8422614,137.14104
1.7661694,136.8812
1.8445315,136.11864
1.8581387,135.02617
1.8174573,135.29868
1.7844524,136.91759
1.693506,133.50621
1.6810777,135.48793
1.7208829,134.00389
1.73793,129.26561
1.5855517,131.62839
1.5030985,130.19135
1.5565267,129.18329
1.6250626,127.464035
1.5111659,126.99993
1.5463264,119.509155
1.5253384,123.25823
1.5310489,120.236374
1.5619072,120.2516
1.5359405,117.93051
1.4858814,114.14353
1.5226289,115.55363
1.4485899,113.782364
1.4070336,111.003555
1.47587,109.26196
1.460287,114.99676
1.5122226,109.42475
1.3943111,113.27455
1.4233129,104.171005
1.3277575,107.118774
1.3090885,102.54146
1.3874207,102.2694
1.2444904,102.98085
1.2430418,99.31365
1.3002187,99.6715
1.208579,97.61765
1.1923274,95.812386
1.1298381,94.53086
0.9910116,93.4662
1.0682001,92.72572
1.0617731,92.34994
1.0205551,92.487946
0.93605757,87.26754
0.9500569,89.219666
0.9350375,85.11227
0.8746621,83.48704
0.92604095,83.296585
0.8257039,82.4997
0.8574926,80.8481
0.92039853,76.66199
0.92453814,77.51764
0.84827656,77.65332
0.8926703,77.06739
0.89153564,74.5247
0.8147197,72.66582
0.8463938,74.21641
0.8496522,72.19567
0.79421794,71.44929
0.84819925,69.508224
0.7882566,69.10216
0.7069016,70.253845
0.81150323,69.56852
0.7011702,67.83025
0.70924133,68.92549
0.6558436,68.61578
0.6273916,66.41346
0.58027226,66.250465
0.58107936,64.587616
0.52889776,69.81948
0.57903534,70.79533
0.42597732,66.536
0.49077812,69.700905
0.40983158,68.782265
0.4231763,70.04084
0.40056205,72.038826
0.42189422,71.93408
0.43835196,73.46728
0.41383705,79.00223
0.5404697,75.85112
0.5242466,79.154854
0.5927991,80.269714
0.66659474,83.952805
0.6299404,86.86137
0.7793017,85.40664
0.7363906,89.130745
0.82169586,87.98638
0.8599291,93.14211
0.97544086,95.75022
1.0324433,95.79573
1.1160467,100.861374
1.1988101,100.12022
1.2827033,107.54926
1.2522686,106.472435
1.2695101,111.527176
1.4625328,110.54117
1.4306217,114.41095
1.487318,116.031296
1.5041708,117.42926
1.6232129,125.18864
1.6279682,122.350395
1.5865757,124.58832
1.741634,124.47107
1.6809927,124.72355
1.6907998,129.72752
1.6526164,130.04509
1.682984,129.6927
1.727824,137.63327
1.7559059,136.99628
1.6433754,136.11351
1.7382863,139.39168
1.7309936,135.10732
1.7091857,133.9318
1.8223197,139.0077
1.7487528,137.5183
1.6200975,138.91145
1.7291126,137.35721
1.6458464,135.18478
1.6176951,139.3084
1.6477474,136.55545
1.6255617,137.70195
1.5040572,137.29646
1.5799716,133.81326
1.5358472,136.7267
1.5047019,139.5362
1.4405783,132.54099
1.4367893,134.06178
1.4223558,130.10414
1.3374666,134.26051
1.3850852,129.8715
1.3189356,129.26775
1.2896811,127.057
1.2563021,127.55985
1.2669885,124.71474
1.228693,125.80004
1.2740316,123.142975
1.221101,121.9972
1.1675286,123.7966
1.2506564,117.14371
1.1466756,114.67854
1.256906,116.48342
1.2245688,114.969345
1.0918562,114.89088
1.116361,111.7234
1.1185508,111.502594
1.0841105,112.64906
1.1116534,108.04947
1.1164027,109.52919
1.0468123,107.79759
0.9908982,104.42409
0.95797706,105.31827
0.98717964,103.48478
0.91115946,100.12316
0.7805411,102.47489
0.75993925,95.396324
0.9158171,97.857056
0.7611098,96.647964
0.713397,94.289085
0.6716858,93.23689
0.65620285,94.84965
0.646249,91.639885
0.67509997,88.0604
0.6108912,89.174614
0.6266255,87.52559
0.5058313,88.016655
0.45624855,84.70773
0.603264,81.08906
0.45134386,81.11155
0.5175384,81.735985
0.5283333,79.802734
0.44248137,78.26458
0.471421,76.67527
0.48828703,75.147514
0.55388445,70.73605
0.4519123,73.20859
0.4640478,75.24552
0.40289405,71.52839
0.49046817,72.45179
0.41360086,68.64788
0.42080086,67.48217
0.43583095,70.89253
0.33988422,66.69232
0.28350556,67.54976
0.36274534,67.04142
0.2810341,68.88785
0.2994829,66.84896
0.20351349,69.41899
0.20388298,66.20856
0.15852812,65.73209
0.12539667,69.75511
0.155574,67.56497
0.08850934,67.51461
-0.013978452,71.55759
0.0960438,68.52494
0.021133168,72.00561
0.026452176,73.47127
0.044360112,72.41491
0.03599848,75.39664
0.17698199,75.677124
0.09829591,80.791176
0.1563697,78.865974
0.15456061,87.2784
0.30377647,81.3928
0.26503712,85.40043
0.3326873,86.23719
0.41582295,90.56522
0.50949675,93.34894
0.5004931,95.34184
0.58814055,96.95391
0.71102184,100.747795
0.7393841,106.22423
0.8454533,104.18959
0.9009585,104.978615
0.96998256,105.41812
1.0024846,107.46802
1.096558,114.94747
1.1189419,113.767235
1.1334144,118.689575
1.2209231,118.60328
1.2291254,124.426384
1.2068233,122.11951
1.309335,126.01933
1.2595448,125.87956
1.2321239,127.640724
1.3361329,131.07678
1.3994844,132.07793
1.3305588,137.03651
1.4219744,134.74193
1.4183507,136.97243
1.3292459,138.26698
1.3814138,136.61604
1.4559387,140.19102
1.3544989,140.56613
1.3467832,137.88261
1.4165032,139.79836
1.3589358,138.12141
1.3092014,138.1618
1.346728,138.99213
1.2820178,138.17673
1.3289108,141.0226
1.2084297,136.14151
1.2654761,135.37213
1.2039165,135.84842
1.2258029,135.48143
1.1607921,134.37924
1.0661217,137.15984
1.1320016,131.25714
1.0416524,132.56735
1.1186167,131.2455
0.91782635,132.73189
1.0563027,129.40503
1.0989681,126.76662
1.0207664,121.737
0.9751497,125.19849
1.0086677,122.45306
0.9249486,122.75441
0.93206936,122.79895
0.96240926,118.32366
0.96163714,121.30086
0.9155672,115.95243
0.89316857,115.49664
0.89173186,115.44265
0.87147397,111.6667
0.9311868,116.2753
0.7948312,111.211914
0.8551187,110.17112
0.836812,106.23335
0.9164177,106.02826
0.7944393,106.45868
0.77611715,102.89398
0.77306134,104.475044
0.74935573,97.959625
0.78872085,102.92585
0.64148116,100.19925
0.56079036,98.09238
0.6728928,95.39177
0.5936528,94.82848
0.49804375,93.32103
0.4751977,89.19156
0.4670461,89.51479
0.46865496,91.02994
0.41327038,87.45717
0.4324649,86.78891
0.3901847,85.37642
0.42459044,88.013145
0.34795138,83.32412
0.36924222,84.806885
0.42725426,84.130646
0.35224843,81.66485
0.26540288,78.53932
0.30517125,77.07772
0.25888675,76.283066
0.28996742,74.39673
0.38947728,75.2969
0.37767524,72.049614
0.3464036,71.612
0.3085504,69.72627
0.39979213,71.50438
0.38660568,72.43596
0.29612377,69.72228
0.33534592,69.70313
0.20990708,65.20749
0.2672436,66.91919
0.16749606,67.73572
0.13491862,69.53223
0.18748191,64.36176
0.13539575,66.8271
0.14177841,67.70217
0.100407206,68.43388
0.13516514,66.266495
0.054411877,68.76523
0.12991023,70.73276
0.009092519,66.55348
0.06918753,71.49756
0.0060076187,71.297966
0.06941671,74.98801
0.085436426,72.771
0.04639589,77.30651
0.125611,78.38788
0.21969047,81.5178
0.2548017,80.651184
0.23890251,85.59437
0.36181897,85.130554
0.42337927,89.20859
0.49838638,90.864136
0.559346,91.72686
0.6091086,97.58123
0.7190616,97.12649
0.7561735,99.041595
0.89904135,100.00786
0.9304835,105.11592
1.0434294,104.81238
1.0258363,109.483
1.178768,111.814995
1.1348451,115.09671
1.2095937,117.74051
1.3141586,117.74927
1.2808586,119.95849
1.3662816,125.30129
1.4123818,125.835625
1.4311111,124.63365
1.389581,127.46789
1.4361631,128.17665
1.5320805,131.23128
1.5974103,131.034
1.6533784,133.68903
1.6161344,132.69136
1.624844,137.90428
1.4917588,135.7327
1.5533683,137.03984
1.5584029,138.2958
1.5421597,140.63057
1.6091624,139.02895
1.4945085,139.89426
1.5225899,139.9295
1.455321,135.14476
1.6217111,142.08183
1.426636,138.14584
1.4944226,136.76067
1.4796971,136.59326
1.4568231,135.31648
1.4361616,137.69421
1.403721,135.15228
1.395601,132.30498
1.3178341,132.72449
1.3765094,132.97906
1.3044025,131.89815
1.2881539,132.21452
1.3337387,128.02776
1.3440408,128.58224
1.3024726,128.63655
1.2805316,126.332825
1.264043,126.355034
1.2860097,122.788925
1.277635,121.61966
1.3137866,123.475266
1.2739449,120.29601
1.2176974,120.48756
1.1718818,119.59818
1.2219148,114.17042
1.1643182,116.59416
1.1695002,115.43267
1.2146113,112.28511
1.126064,113.90981
1.1800525,111.01426
1.2193552,105.979004
1.1505512,105.62425
1.1077228,108.07779
1.1170493,103.58157
1.1422919,102.90859
1.0334848,99.49701
1.1029973,97.96817
1.0359491,101.50388
0.94450784,99.08665
0.93521667,96.605415
0.8903391,95.5505
0.812159,92.86672
0.93932045,91.19839
0.83327585,92.42321
0.8520622,91.900635
0.82475746,90.98117
0.84908634,90.21029
0.8078669,87.252304
0.6995967,85.22691
0.7465549,84.024254
0.79538316,81.97838
0.7337712,76.91738
0.64119935,79.70079
0.6251831,75.50543
0.76761407,75.29483
0.75445354,79.315834
0.80913216,72.467285
0.75742763,78.660194
0.8281554,71.82553
0.7391828,73.3392
0.7451471,70.20485
0.73079896,70.849655
0.71392196,69.601166
0.61467093,65.81644
0.7554664,70.2038
0.6651377,68.049835
0.68400735,67.1757
0.58027214,67.675
0.6083383,66.44994
0.6293364,66.32371
0.578728,67.19136
0.48411787,69.20491
0.5106118,67.87867
0.5277602,67.48469
0.42061138,68.42135
0.5315491,70.329445
