ppg,abp
0.9765357,77.89192
1.1665443,80.03796
1.2478498,82.16129
1.2929857,84.60029
1.352041,78.71746
1.3895769,82.064384
1.4602293,83.35026
1.5532655,85.73614
1.5013015,85.05182
1.491374,82.62526
1.6273831,90.40719
1.6622888,86.42748
1.7102959,90.48675
1.6658765,87.4213
1.7149733,89.628555
1.7179575,89.049774
1.7439977,91.33739
1.8250414,85.2678
1.736948,90.86129
1.7575914,91.30141
1.7826159,87.833405
1.6764354,91.37304
1.7376642,90.423874
1.7100095,87.679405
1.7341241,89.63025
1.6687721,90.772354
1.7274317,88.571785
1.6676929,87.00497
1.6742077,86.51851
1.6559647,89.01875
1.6742079,85.68553
1.6269413,89.134766
1.5442625,87.58872
1.4699327,88.82436
1.4964554,90.111595
1.479292,93.09437
1.4657135,89.53027
1.4682816,89.82372
1.4366034,87.77395
1.389135,88.93599
1.414502,86.19173
1.4308327,85.12075
1.3687173,84.04142
1.3802415,83.23912
1.4148258,81.01074
1.3730805,81.8482
1.4082423,82.5043
1.4112728,81.77596
1.3453766,81.83578
1.3324324,82.468124
1.3373681,84.17321
1.3495651,80.57547
1.239114,80.469826
1.3183041,80.706474
1.192816,78.26293
1.2095279,80.6724
1.1633899,78.91561
1.205518,80.96902
1.1760167,77.10145
1.0666027,75.248856
1.0399506,77.27442
1.0518118,75.355675
1.0378524,77.96819
1.1111653,77.712555
0.9842478,77.3499
0.9619636,72.21734
0.96159196,77.35021
0.984109,72.63909
0.9251378,74.15699
0.9944395,75.46706
0.8558024,74.8527
0.9178729,76.642456
0.87417036,75.29641
0.89093536,74.67408
0.87691844,71.981255
0.9131344,73.383705
0.9023934,73.40268
0.8352876,72.09725
0.85031676,72.03588
0.8439136,71.992004
0.8748849,70.43691
0.81567323,68.13779
0.8687039,71.93867
0.81108683,73.06262
0.7796455,68.99556
0.7395281,66.68624
0.78033566,70.03545
0.7160577,67.878494
0.6997822,67.597404
0.6519074,71.68647
0.64888996,69.67021
0.6419751,70.109474
0.5915438,67.359695
0.5282815,69.909
0.4661607,67.27807
0.508907,71.91058
0.4542786,70.750854
0.4725581,71.334404
0.56466204,72.97867
0.62955904,72.0463
0.61714846,70.61962
0.7669139,73.1525
0.7420744,75.35057
0.79883087,75.90198
0.84177196,76.33278
0.95885015,73.361
1.1198648,77.59473
1.0471305,75.95157
1.1759119,79.8281
1.2372885,77.33564
1.2302824,80.370224
1.3636825,80.11404
1.4238839,80.69918
1.5422922,80.70156
1.6408993,83.338486
1.554232,83.82078
1.7103164,82.62658
1.7646,82.27345
1.7413344,84.04028
1.8438509,85.257286
1.8636878,85.16796
1.8972822,88.03064
1.8649908,87.17833
1.8766875,88.65885
1.9398085,89.48088
1.8924464,88.51578
1.8716971,87.32933
2.035299,92.2871
1.9054651,91.37432
2.0112855,91.6344
2.0664887,90.77947
1.8968685,87.91746
1.8732966,88.91469
1.9713916,87.65968
1.9002037,89.697235
1.9182245,90.434326
1.8995904,91.16326
1.8201482,90.85825
1.8041486,90.068275
1.8787293,83.993225
1.7413374,89.70852
1.7400099,89.16743
1.7901577,91.37065
1.6961522,90.65183
1.7157555,86.2043
1.6719302,85.003174
1.6840456,86.89665
1.6067487,86.90761
1.5538781,87.179924
1.5652239,86.6565
1.6348451,87.26213
1.5582993,83.15345
1.4782968,88.44499
1.4981146,82.51703
1.5463436,81.82965
1.5427865,83.28003
1.3987118,83.665474
1.4802201,83.0065
1.4129593,80.273926
1.4228987,79.583305
1.3962404,83.918076
1.5146307,81.272064
1.3827546,83.28101
1.3792808,85.5179
1.3609744,83.56042
1.3309058,83.97837
1.3196421,80.14688
1.202406,79.10691
1.2845485,75.58656
1.2058948,76.80827
1.198953,78.08499
1.1154805,77.412254
1.1001325,78.5442
1.0996137,77.95197
1.0062194,80.734795
0.9015343,77.396515
0.96018225,77.48925
0.9480293,74.91866
0.93123794,74.61549
0.90864015,72.86766
0.77781415,77.16887
0.8268361,74.37011
0.7656067,75.37929
0.8572545,72.289314
0.8966202,69.95058
0.82701683,71.932
0.86429465,73.50876
0.79929894,70.285995
0.88081497,71.18148
0.7928621,72.16929
0.8021425,68.70182
0.7410934,70.86811
0.79268813,68.34329
0.80174446,68.140656
0.78283954,67.48273
0.64733666,67.63165
0.7052143,70.4436
0.67221636,70.00196
0.614973,70.67246
0.52687794,69.17837
0.48975167,70.89818
0.49324673,70.33926
0.5334742,68.54865
0.2923024,72.14846
0.33061433,70.87118
0.34728953,69.99186
0.39390954,73.147026
0.43229133,73.179924
0.42041433,70.18019
0.4695098,73.682
0.4794489,71.87026
0.5270085,71.823044
0.5966237,74.529
0.71752506,74.041016
0.6298612,73.32475
0.81054413,80.04174
0.7470435,77.59157
0.8973817,78.133415
0.9176287,80.06722
1.0766398,79.75823
1.2151622,76.65747
1.1969043,78.58298
1.1747018,77.79364
1.368494,78.56252
1.4109727,79.820526
1.460621,82.30586
1.5392362,84.991684
1.5763249,81.6668
1.5944372,84.59964
1.6429418,89.51196
1.662037,86.52086
1.6246701,82.831055
1.5807648,85.308975
1.7255673,84.96466
1.7437024,87.41033
1.695062,90.31309
1.615865,89.3695
1.7654842,89.40974
1.6756064,90.30975
1.6324203,90.89204
1.7173045,89.67753
1.6902764,89.6427
1.6786512,92.85068
1.7894872,91.11747
1.6242146,93.687935
1.668375,91.85278
1.6033388,89.07545
1.5736777,88.97121
1.5757413,89.17451
1.557351,85.63698
1.4737152,88.25312
1.4317179,87.620636
1.4415905,87.5843
1.4402828,89.06633
1.2943734,88.61937
1.2959033,86.423744
1.3851168,88.48231
1.299873,85.53153
1.2565528,85.54927
1.2513444,82.814095
1.1675084,84.76361
1.2310656,86.8131
1.1632348,81.52429
1.138552,84.20129
1.1451126,81.170006
1.172312,82.96402
1.1574425,83.30475
1.1003298,82.66769
1.1074213,82.81457
1.0869565,79.771576
1.094222,76.98436
1.0131693,80.78546
1.117037,78.68903
1.0121708,79.61389
0.9500963,80.82602
1.0308677,82.00383
0.9611864,79.930435
0.9043804,78.41397
0.88296455,78.216545
0.8185025,78.201775
0.75163734,77.920975
0.8054126,78.8901
0.70173204,77.93665
0.65316415,78.53153
0.6710039,74.18397
0.67923594,77.32024
0.6114536,76.222496
0.5504619,75.84908
0.41399214,75.84774
0.5237393,74.464165
0.5610182,76.51771
0.46719927,69.36732
0.47925234,69.70514
0.4113715,70.886185
0.43181652,69.52852
0.45709524,71.15304
0.42891183,68.40132
0.6016765,66.40215
0.44166073,69.28946
0.43348524,71.72021
0.4102035,71.66265
0.38603595,73.900955
0.46762106,68.77196
0.38590363,70.429535
0.37018088,65.76423
0.27181578,69.21665
0.20547596,69.67754
0.23448275,68.135925
0.22346103,68.48404
0.094578765,69.613914
0.06427767,68.58282
0.16756648,68.42096
0.07773459,70.935394
0.09347683,68.46168
0.06546846,70.54222
0.10197503,73.54395
-0.008355286,72.66666
0.054906033,68.4593
-0.033704612,69.91323
-0.021618234,69.0623
0.11719244,73.43494
0.14084655,74.11419
0.08356169,72.82435
0.21724065,72.21636
0.2663004,77.846855
0.3246659,74.94049
0.38703495,78.40583
0.5757217,74.78336
0.5521807,76.440796
0.6315299,80.40312
0.7004996,76.64592
0.7436899,77.58849
0.86409384,81.458015
0.95499897,77.99703
0.95709056,79.33413
1.0521952,82.07023
1.0899657,82.40127
1.1944549,86.309845
1.2507762,83.11707
1.1933135,84.413216
1.3584417,88.211876
1.3022172,81.9024
1.3466619,87.0676
1.436573,83.85127
1.3975955,88.24262
1.3986013,87.5614
1.3313961,87.62863
1.3771765,92.057144
1.4690952,94.09496
1.4522585,85.72449
1.3645867,88.91458
1.3710959,90.67507
1.2895802,94.548164
1.3399147,90.45779
1.3913548,91.5409
1.2860209,92.18537
1.2711844,86.08393
1.1611251,90.942955
1.361469,90.77716
1.2383077,88.05183
1.3155687,86.73286
1.1566602,90.07588
1.1882079,87.2178
1.1438038,88.03774
1.1136476,90.121506
1.1719255,87.04902
0.9991405,91.362206
1.0953718,86.15068
1.1332388,86.71588
1.0176814,86.67987
1.0158694,85.743576
0.97449917,84.02308
1.0061529,86.874794
0.932559,84.21581
0.9281826,85.736
0.93430126,81.7949
1.0071669,83.35527
0.8746866,84.88729
0.9031987,80.80448
0.89538056,83.96146
0.9758888,86.20563
0.82614166,78.1917
0.9999338,79.94636
0.85279995,77.0381
0.8661817,82.22558
0.8062177,80.272
0.7865135,80.89547
0.756143,76.74867
0.65102786,75.89647
0.6125018,78.26546
0.6360405,78.41512
0.6045496,72.70193
0.42163306,76.83983
0.5562011,80.93393
0.48095828,75.290436
0.4775929,77.00412
0.41754305,74.92783
0.43277043,74.04893
0.44809118,73.519264
0.32350084,73.84132
0.34058806,72.97418
0.35067827,70.180695
0.3667755,75.52185
0.3863509,76.32985
0.38437718,72.82754
0.37235594,75.996254
0.41989687,71.21337
0.33004758,73.010956
0.29287425,66.601456
0.3986107,68.71888
0.27701715,72.620705
0.33647123,71.91794
0.28983593,68.09764
0.2247848,75.81614
0.30860633,70.56555
0.18584277,65.48183
0.19716135,72.01646
0.21456462,66.466545
0.077972956,71.87138
0.11492208,68.841225
0.14461316,69.490555
0.059599172,72.58958
0.057950035,69.23765
0.04897322,66.8758
-0.018446298,71.543396
0.07127718,66.81979
-0.023218295,69.474266
-0.0061806217,73.27127
0.083806515,67.53445
0.0042905835,72.28923
0.025314426,72.663124
0.2579749,74.14543
0.10261863,74.56763
0.21186724,75.61742
0.30040416,72.6128
0.38289994,77.071884
0.47466972,73.928696
0.54420197,72.26113
0.6651583,78.13519
0.7514235,76.34724
0.7204136,78.019394
0.8339484,79.68831
0.899278,78.8698
0.9299981,80.61141
1.0135819,82.642426
1.0857747,80.81907
1.2033132,82.82285
1.2973356,83.64976
1.2307806,85.60916
1.2851845,83.18213
1.4026296,87.95561
1.484468,90.90631
1.4561293,88.2773
1.4673189,90.62203
1.4258242,89.28548
1.5108421,90.22493
1.5340047,86.86376
1.481312,89.306015
1.4891819,89.85467
1.4822426,89.150986
1.5065404,91.14357
1.502427,91.929924
1.529976,92.09571
1.5526444,90.28347
1.4918772,88.49531
1.5659429,90.54232
1.373811,90.9138
1.5138633,92.83305
1.4304957,89.50424
1.383976,90.48242
1.4174843,91.14596
1.4147468,87.52412
1.3880427,90.26252
1.3284137,89.099464
1.2355832,89.45831
1.3359224,88.443016
1.2958151,85.897354
1.250094,88.584274
1.3878523,89.64565
1.1867439,86.06325
1.1663599,85.64037
1.1829622,85.19205
1.2131062,85.02488
1.1622356,84.96553
1.1863545,84.05259
1.1126931,87.06791
1.0736098,81.89429
1.1620666,83.07601
1.1379014,82.24195
1.1795254,80.8767
1.1795485,86.461395
1.1077203,83.7418
1.0273244,83.556175
1.0665945,78.35027
1.1334764,77.9983
0.9961182,81.51723
1.08013,81.16468
1.0599668,80.26465
1.0823565,78.13111
1.000495,77.49752
0.8620364,78.10072
0.91087323,79.26487
0.81586367,76.29609
0.7735681,77.79198
0.8389469,78.95435
0.7509358,74.39217
0.7837668,75.11649
0.8906303,75.27935
0.7068579,78.51095
0.72715604,74.34395
0.749812,73.41128
0.6300888,73.48441
0.7244949,74.84154
0.6819773,72.66687
0.687194,74.42365
0.6964613,68.85216
0.7231817,72.34236
0.69881415,70.869705
0.69540495,71.88703
0.69982463,72.42065
0.7778638,70.11791
0.67527825,68.142784
0.628339,67.246185
0.6908105,70.04972
0.58949953,67.70983
0.61242974,69.43825
0.57262486,73.6808
0.5968336,69.14507
0.46621552,70.09228
0.53012604,70.58128
0.41650298,68.330086
0.3310988,68.25788
0.41413152,69.215294
0.413144,71.70608
0.3452501,70.01806
0.3856173,68.09065
0.44309667,72.30907
0.29295856,70.31496
0.3961416,69.634186
0.45147875,69.625374
0.42665815,73.27175
0.5306719,70.73343
0.516023,71.62417
0.536954,73.40916
0.66198564,78.6749
0.7688176,75.7904
0.85117733,75.1391
0.87490594,76.79283
0.8743754,73.77019
1.0364113,75.42869
1.0666463,78.54669
1.2408297,79.08388
1.3019255,81.38788
1.3192412,80.24442
1.3444558,79.72342
1.5153065,81.613625
1.5271521,81.42175
1.6321862,81.99154
1.6275443,81.803444
1.6579856,80.63979
1.7069366,86.14085
1.8391373,85.8378
1.8672044,85.90241
1.8076721,85.63275
1.8877878,89.15068
1.8925629,90.77745
1.8745493,88.54759
1.8937474,87.73649
1.8835553,93.67154
1.8690987,86.602394
1.9277452,93.456154
1.8769988,91.796394
1.8488036,87.52711
1.8929676,89.338234
1.8734455,87.66855
1.8217275,91.63593
1.8741792,88.74183
1.8505225,87.7107
1.8430032,90.380226
1.7863637,92.03787
1.7520549,92.89021
1.7289721,91.704834
1.7634121,89.2349
1.6848462,88.01467
1.6224055,87.401794
1.606748,87.36361
1.6856676,85.96558
1.5928857,87.943726
1.683363,89.633835
1.5696101,85.349686
1.5932009,88.09847
1.5756232,84.85875
1.5481688,84.43317
1.5265499,84.79161
1.5902214,84.67534
1.5170183,82.41128
1.4608117,85.38289
1.4259875,82.60923
1.4803158,82.05175
1.528402,81.72418
1.3949777,79.648506
1.4494812,79.82496
1.4850984,81.04684
1.4170086,80.49689
1.4591721,79.950264
1.3082354,80.21918
1.3285322,80.97656
1.2301282,85.6656
1.3124124,74.817345
1.3049023,77.26408
1.2209011,75.80617
1.2624182,74.73939
1.1206515,77.7655
1.1142544,76.96535
1.0981452,79.06264
1.0840399,77.9925
1.0877225,76.5023
1.0145712,73.2392
0.9819905,73.58053
1.071107,72.762634
0.8562238,73.84576
1.049427,71.210945
0.99269783,75.13813
0.9503798,72.37967
0.9276012,72.32572
1.0159061,68.71165
0.96661556,75.27184
0.87034875,70.91738
0.88104695,69.069176
0.86509925,72.56582
0.8689618,72.097015
0.8905814,72.01126
0.8787185,68.551346
0.83440083,66.51541
0.96227485,69.71798
0.85577923,66.15538
0.74221873,71.85335
0.75518525,69.2871
0.7132421,69.416214
0.61560774,68.03273
0.6411273,71.14928
0.6878271,65.13284
0.6229081,65.79647
0.5752363,70.38164
0.5474516,69.667854
0.5900413,73.06266
0.48735008,69.93696
0.51558197,71.68746
0.67542034,67.981834
0.5878454,71.0851
0.6156602,72.49145
0.671313,70.449974
0.65659344,71.944244
0.7245465,70.18126
0.78554666,73.242294
0.7462914,75.85203
0.96222186,72.53047
1.0342976,76.997505
0.9567858,74.98199
1.1240671,76.6253
1.1346664,78.159004
1.2599255,79.1046
1.2836696,81.90787
1.4481889,79.152534
1.4796,82.53811
1.5322803,81.92679
1.6071054,82.38598
1.5859102,84.97979
1.6983999,85.60919
1.7425448,81.94937
1.7938032,83.24619
1.8680849,87.64822
1.8042052,87.44297
1.8629957,86.527794
1.9462246,88.572586
1.9399409,86.7634
1.8485355,83.78683
1.891029,85.069176
1.9286833,86.91263
1.9475056,88.856
1.8560917,90.66248
1.9409237,88.706924
1.8485272,91.99675
1.9201751,91.64715
1.8407747,88.78559
1.9134718,88.71322
1.7651515,90.46418
1.8012441,88.95762
1.8214983,89.86243
1.7360177,87.80946
1.7893405,90.08915
1.7473289,90.97688
1.646993,85.95114
1.64142,88.32773
1.6799879,89.19406
1.5891442,87.20429
1.588722,87.87501
1.622527,86.50398
1.5119059,86.38459
1.4590939,87.9326
1.5108756,88.84887
1.4287698,84.04632
1.4766488,89.09857
1.4535991,86.34865
1.3514969,84.974144
1.3321707,88.627495
1.3940642,82.56043
1.2539803,84.67011
1.3668349,84.35059
1.3084168,83.569534
1.3007779,84.26156
1.3209803,81.91067
1.2861347,83.087715
1.3325434,81.08929
1.2603527,78.98359
1.2699398,79.49885
1.1902008,76.86137
1.1007912,77.01973
1.0927106,76.51208
1.0974654,77.23783
0.99749535,76.34848
1.0593381,80.93279
1.0205444,77.15589
0.987181,77.1724
0.9020851,78.92329
0.9147517,75.90097
0.8541112,73.1356
0.8110213,71.91211
0.8476316,74.36969
0.79311496,75.95005
0.70386463,76.31945
0.8140728,74.10944
0.8303118,74.36821
0.6401405,71.78892
0.66039765,73.82035
0.69528025,71.83885
0.69626045,73.99047
0.6997247,67.62334
0.776531,69.444115
0.7060874,70.09049
0.7020566,70.117455
0.64764583,68.703255
0.709427,69.009895
0.63438827,68.465416
0.59393126,69.905
0.6363498,69.111694
0.5805985,73.06648
0.47519112,71.54854
0.45615938,71.859184
0.4999328,71.08138
0.3640853,66.83284
0.41497523,70.94094
0.2590967,69.844696
0.26822293,71.94268
0.24312805,68.58602
0.30249017,67.4727
0.13727309,71.92412
0.25103423,75.45599
0.22345707,69.759476
0.2585222,70.81788
0.2887396,71.159
0.22875883,75.13099
0.26854518,72.497986
0.38310847,72.77049
0.37701106,74.307335
0.47104496,76.20045
0.518536,77.09547
0.61940706,76.02765
0.6092477,78.92349
0.7060515,79.42139
0.9571762,79.07669
0.8796932,80.29022
0.99792737,82.01866
0.99719954,80.2426
1.1450148,80.29997
1.163819,81.908585
1.2462549,82.91419
1.2668692,80.787094
1.3075236,83.3694
1.3835845,83.55223
1.4364953,83.57559
1.4805795,85.27928
1.4946401,85.56468
1.4117222,83.25401
1.5372484,88.87131
1.501936,87.529724
1.5125157,85.87982
1.492186,89.88815
1.5033873,91.41237
1.544051,91.30854
1.5264763,90.82758
1.5356979,89.53601
1.4891007,90.520195
1.4806442,88.43944
1.450925,90.21218
1.5282751,87.23729
1.4580421,89.99789
1.4301543,89.04185
1.2994864,90.59809
1.3424375,93.85986
1.3735498,92.564644
1.3927835,90.8571
1.3237236,90.255516
1.4092865,84.30285
1.2957786,87.09056
1.0775092,92.221504
1.2742177,86.64628
1.1878066,86.0546
1.1191117,85.37447
1.0845652,90.34406
1.0967295,84.7907
1.0536374,87.35134
1.0244926,88.61204
1.0377128,82.75362
0.9992638,82.823044
0.9951524,81.571495
1.0055437,85.25254
0.97375923,85.1923
0.8924504,84.57708
0.9318089,81.98599
1.0298878,84.77658
0.8855384,81.06502
0.9791254,79.52072
0.9183044,82.21083
0.89223695,75.46066
0.9021275,77.25776
0.8231627,80.77875
0.788923,81.8948
0.81428236,80.33544
0.7944142,79.4796
0.7426905,79.84349
0.71617275,75.23018
0.58752924,76.06824
0.61079705,77.13939
0.53316075,75.906296
0.5435498,75.44522
0.50560635,79.4781
0.40635794,71.89091
0.36400262,76.8608
0.35521346,75.306335
0.4085942,76.854996
0.33475444,71.096146
0.35384443,71.389656
0.41000456,74.53218
0.3829768,71.117065
0.3932455,70.951645
0.33590633,69.49005
0.35572007,70.90584
0.3743008,72.928444
0.38111275,69.998085
0.2503516,73.10483
0.36895904,70.25518
0.32787645,70.87558
0.42407572,68.521904
0.31321442,70.752655
0.22686504,71.47319
0.27140462,70.20333
0.19325122,69.74185
0.13113621,71.57692
0.16744965,68.37022
0.07115263,70.83368
0.09912116,67.45976
0.041401424,71.53565
-0.046808876,70.930435
0.026201716,71.014946
-0.09344769,73.17373
0.0364841,72.696915
-0.029328667,70.91584
-0.13858958,72.69924
0.012470772,73.42624
-0.049207274,71.723785
-0.053893212,75.34228
0.03777037,71.72866
0.124896504,73.20927
0.1744982,75.645226
0.26327342,71.273026
0.21848331,71.91456
0.3369452,77.26784
0.45184967,77.92646
0.4444591,82.78048
0.46030048,74.649864
0.62221384,78.35016
0.74228466,82.53122
0.7475562,82.08574
0.84525865,79.90813
0.9839341,80.208336
0.9650157,78.55966
1.0301229,84.27424
1.1996907,86.589745
1.1876106,83.85056
1.2113204,84.31152
1.2378935,86.24426
1.3136828,87.354576
1.2696682,83.25899
1.2834145,88.782486
1.3012238,86.45917
1.3245591,84.79149
1.3505405,91.36185
1.3912791,88.51001
1.237528,92.636086
1.4798235,90.543434
1.4055071,85.87597
1.4277297,88.62974
1.2881924,90.4244
1.2891223,90.26785
1.3941768,88.70304
1.392837,92.3236
1.4109147,88.716835
1.2531977,92.71865
1.3285488,89.91715
1.2090887,90.549904
1.2782838,87.18565
1.2063624,90.92732
1.1826167,89.941216
1.2426503,88.825516
1.1607128,95.87242
1.1339879,88.805595
1.0547211,83.66675
1.1005521,87.66196
1.0462037,87.349304
1.0084449,87.4617
1.0628372,84.5987
1.0394095,84.28844
1.0399339,85.67023
1.0116414,85.58325
0.9339939,83.06144
0.99738467,83.12398
1.0115001,84.30287
0.85504395,83.753426
0.9113119,82.12635
0.8859645,84.39214
0.941657,78.89812
0.8826084,80.41851
0.9223835,81.64055
0.9338559,80.2206
0.8426163,83.89649
0.95523226,78.60686
0.7517551,76.255264
0.7887671,77.85573
0.7238722,80.71784
0.8158329,78.82279
0.7483958,79.70185
0.6457359,76.63612
0.7090468,78.15709
0.71934795,75.196014
0.5966327,79.18242
0.5622627,75.2468
0.46860087,76.43253
0.57795393,73.138084
0.52298373,70.3317
0.52941334,75.19132
0.5075513,76.036385
0.5871045,74.90079
0.3983331,71.318146
0.47278786,71.52686
0.54714423,74.978905
0.40007123,71.335045
0.48078316,71.48506
0.5284571,71.10373
0.48595124,71.33364
0.56423295,74.41946
0.44488433,69.28905
0.40910557,69.02962
0.5115594,72.05401
0.44855744,69.71043
0.30185866,69.15512
0.322672,72.714005
0.43780357,66.26159
0.3301931,68.631516
0.31828663,71.55797
0.3282786,67.970184
0.2037834,70.33977
0.17196508,71.68565
0.21389574,68.68513
0.21743685,70.96851
0.09587832,69.44722
0.1417149,69.788895
0.15419616,67.44315
0.17878532,68.319496
0.20849039,71.54
0.16953586,73.1976
0.27795494,74.78825
0.26364297,71.96864
0.2884268,71.50634
0.39877722,73.346725
0.34310475,73.83363
0.42349216,74.316315
0.5445685,79.198296
0.6783587,73.42645
0.75623596,78.52155
0.86363506,78.88722
0.7901184,78.03022
0.9538833,83.69549
1.1210974,77.18395
1.0980098,83.17609
1.1956539,82.21881
1.2425672,81.34709
1.3177938,82.266754
1.3784482,85.018005
1.3998349,84.58696
1.4474801,85.43229
1.4653914,88.64351
1.5737212,87.774994
1.5522177,87.63425
1.5630201,88.329865
1.7762147,85.296425
1.6328512,88.97577
1.7650536,87.981476
1.6698483,87.15306
1.7096308,89.18004
1.7476844,91.1391
1.7436461,90.87859
1.6917557,87.94758
1.6942834,88.4579
1.7663423,89.27736
1.6462914,91.686935
1.5739706,89.31362
1.7647537,91.69197
1.673648,85.879234
1.6519023,86.92345
1.5260538,87.027756
1.7499346,85.36643
1.5455736,91.81323
1.6423383,89.76218
1.5209941,88.34512
1.5251743,91.88485
1.3932606,83.98936
1.4865422,89.037
1.4858466,86.29656
1.5063097,87.601006
1.3851863,86.15957
1.4819982,85.25077
1.3528672,85.55926
1.4085417,85.07589
1.4153948,86.88431
1.3305007,83.78206
1.3202068,85.39086
1.3550081,87.44429
1.3964834,85.71013
1.2302082,81.69408
1.3948843,83.31604
1.2701182,82.825806
1.3751359,79.5736
1.208686,81.15533
1.313329,80.09741
1.3191371,79.881004
1.3436798,81.671646
1.2039922,81.394844
1.3156347,81.479866
1.1996247,84.027145
1.265719,76.70938
1.2228357,75.38404
1.1755617,79.581436
1.0208752,80.30358
0.98523176,76.06235
1.0631768,77.917046
0.9784767,79.26146
0.9762321,72.5338
0.90244925,74.214424
0.97604847,76.8065
0.8338961,72.072
0.8507564,75.23325
0.9338029,72.35815
0.73352295,75.18503
0.78112316,72.60166
0.8592705,72.80072
0.8753946,70.49053
0.9049011,72.96248
0.8979307,69.45681
0.8911431,72.520454
0.87522775,66.31089
0.85677797,70.57561
0.84787893,72.63227
0.79040664,69.75326
0.8175006,72.17778
0.85540336,70.32577
0.761871,68.61265
0.7547771,71.29041
0.79418266,67.304504
0.82998854,70.4265
0.7115216,67.81702
0.66429967,69.83605
0.6405457,66.63645
0.5445346,69.94231
0.61549157,67.895004
0.52945787,68.808
0.46096885,69.42958
0.5307877,69.818985
0.42579392,68.651436
0.49596873,72.508354
0.46870428,72.02241
0.5350158,70.20647
0.53937316,72.65212
0.7055917,72.70226
0.75832385,74.315475
0.7044671,75.69804
0.8156821,75.9042
0.9670003,74.84258
1.0192989,73.15927
0.95057225,79.801956
1.1941798,78.1476
1.2398615,79.25568
1.2287506,85.18593
1.3553394,74.04247
1.4013541,79.53609
1.5847572,79.74575
1.5998228,80.42177
1.579164,82.18357
1.7097584,81.31828
1.6578568,80.735344
1.7440672,84.57143
1.7723283,84.38412
1.7755387,89.65591
1.8948123,88.59822
1.8713133,83.9076
1.8664048,86.68836
1.9561077,89.70655
1.9043336,87.51624
2.0267203,88.67051
1.9294974,91.90404
1.9080858,88.27758
1.9418544,88.87703
1.9817431,88.68574
1.9983972,93.56016
1.9788944,93.81698
1.9085919,89.68052
1.9606119,87.94677
1.9105086,91.85582
1.8683429,88.258514
1.8127725,92.58989
1.8466165,89.19307
1.8538427,90.38924
1.7866987,91.790886
1.8929594,88.29477
1.7575107,90.460846
1.8212984,89.21095
1.7453303,87.56634
1.8056355,88.57863
1.6282356,85.3028
1.749188,88.10164
1.6397612,86.08741
1.6736264,87.13189
1.6020952,87.68869
1.6017247,86.526566
1.4538215,86.59207
1.5738602,88.64553
1.4497446,84.383484
1.4774684,83.5299
1.4947058,83.438675
1.5936941,81.97261
1.4418331,81.5545
1.4605162,84.14333
1.4498264,84.05312
1.3968319,80.39576
1.4102929,85.10279
1.3928216,80.61032
1.3483281,79.803635
1.397929,81.88209
1.3077934,79.21714
1.2907757,79.5281
1.2680521,78.79064
1.2157588,75.09885
1.1495837,77.23447
1.3208404,79.27592
1.107436,76.15413
1.0990503,76.011444
1.0660057,75.44142
1.0077891,75.0421
1.0114545,78.29718
1.0253875,78.917244
0.87869006,73.683136
0.94699746,77.954765
0.85250723,72.41837
0.84871817,75.44157
0.87604547,75.310905
0.8408531,70.77662
0.85638344,70.02084
0.82368076,73.04083
0.8739344,72.23184
0.8850319,68.74547
0.83596647,70.39031
0.7993639,74.21703
0.8950631,70.07488
0.85424334,71.5795
0.82362765,66.19533
0.7290922,68.998474
0.78514755,69.820885
0.6345855,70.45844
0.7192638,70.49582
0.6570089,69.99775
0.6119934,67.92116
0.5879642,69.24948
0.6095707,68.39046
0.53785384,71.92714
0.44692752,71.08009
0.45498848,65.82768
0.3539026,71.76312
0.4715699,71.984955
0.39533424,70.86299
0.43301684,69.092995
0.44682777,72.13444
0.55140257,69.29333
0.49911216,72.60491
0.57019293,72.11935
0.5354459,70.33531
0.5902128,69.562
0.6493909,75.496864
0.72938323,77.472595
0.80576324,78.06692
0.8358237,78.7878
0.9736986,75.49385
1.0797031,73.57775
1.0966944,76.000786
1.1552988,76.787155
1.2020651,79.53196
1.2944881,83.230934
1.4824815,83.113396
1.5555013,82.17802
1.3977268,82.447655
1.5684184,83.00457
1.4950396,85.047424
1.6208005,80.70708
1.68495,87.52353
1.6513547,84.93908
1.7685871,83.85561
1.7282087,89.25625
1.7393138,86.043785
1.6780111,87.73454
1.7291042,91.27518
1.817094,89.15098
1.7556454,89.997536
1.759524,91.26398
1.7591136,89.204346
1.7264445,93.36973
1.679544,89.297905
1.7207884,91.19588
1.6925933,91.262
1.752861,91.21906
1.586233,90.69893
1.6288522,89.45365
1.5315676,90.93834
1.5745213,87.61577
1.5386826,86.51251
1.4902478,90.41281
1.4987397,90.11599
1.396773,87.92718
1.3945767,88.0567
1.3666433,88.146675
1.4083977,86.273994
1.2729399,88.837006
1.2695152,85.45848
1.3465934,85.18623
1.2167464,87.38408
1.2296034,83.879395
1.1474679,86.61088
1.2961123,85.42227
1.0885127,81.4102
1.1714542,84.41934
1.153074,83.34345
1.1643633,85.832146
1.1732298,83.17144
1.1113757,83.77789
1.101153,82.54862
1.1063856,83.49636
1.1700422,79.36907
1.0515721,79.67984
1.1073227,82.22854
1.0924505,79.10483
0.9070274,80.78791
0.9540291,83.465576
0.9362134,80.70721
0.86743265,75.44112
0.8725915,79.897064
0.8297952,78.91542
0.7649629,74.735435
0.6395625,75.61394
0.61489993,77.83804
0.6841786,75.17078
0.7162142,75.6923
0.62276167,72.90823
0.62218904,71.89312
0.5273795,71.77242
0.5920364,71.565506
0.5629572,76.067856
0.5186567,72.260185
0.4341992,73.737564
0.44076926,75.85326
0.4625522,73.95055
0.5190231,74.20363
0.42402986,70.39245
0.49302465,73.74925
0.45645282,70.30076
0.4940653,69.426956
0.43628967,71.943634
0.4872385,72.26808
0.39373645,69.898796
0.4055027,68.83748
0.3202141,67.467445
0.30128416,72.09818
0.17477818,68.40267
0.22228956,67.43171
0.2171836,69.41068
0.091132596,70.29691
0.16879618,67.60198
0.07908699,69.568665
0.07893513,74.42173
0.053025868,68.74351
0.11438838,69.28483
0.04137469,72.62594
0.06236048,69.779434
0.13005218,73.305374
0.052140635,73.69783
0.09005337,75.01568
0.15051764,72.81611
0.07845619,71.77722
0.27584934,75.12157
0.35885167,73.47013
0.32648155,77.7825
0.4527267,74.108
0.5007673,73.719925
0.5702876,74.30179
0.66724163,79.43247
0.73716867,78.74412
0.77135164,81.87935
0.84277993,78.30069
0.9280429,80.950836
0.8947806,82.25246
1.05068,81.62383
1.1625401,84.9962
1.163018,82.932846
1.1737044,84.04672
1.2795488,89.812035
1.2629496,82.657074
1.3494909,84.51981
1.3099493,84.671074
1.2971673,83.018036
1.41313,86.90756
1.3918104,90.77164
1.3317069,84.94141
1.3708928,89.66817
1.3603568,92.03123
1.4041909,88.303894
1.427337,92.211494
1.4436445,91.541176
1.3993134,90.96186
1.4881454,88.80576
1.3867215,89.18664
1.3042717,88.57664
1.2466813,93.009926
1.2189938,88.05124
1.2789865,92.96758
1.2797456,86.77062
1.2797524,91.87841
1.2867869,93.59253
1.1360155,88.40044
1.064687,88.60551
1.1027154,86.89376
1.0603884,85.58881
1.0670742,86.45107
1.124223,88.115204
1.0087792,88.242615
0.9789576,88.79431
0.9694722,87.02276
1.0004271,87.84453
0.9310653,82.73258
0.99227387,83.26398
0.9399194,83.08169
0.92851067,84.26907
0.9129792,89.536125
0.9413629,84.174644
1.0224545,82.870804
0.9575161,81.62607
0.85681844,84.67688
0.81871134,84.57139
0.87048024,81.38818
0.9368295,81.112656
0.8082472,82.29813
0.7905877,76.38273
0.7951384,76.13566
0.6860745,77.167915
0.7346162,81.61968
0.6365421,79.63047
0.6091162,79.004326
0.61684054,78.55552
0.57542676,74.39516
0.53499657,76.716415
0.5110778,74.12637
0.48478505,75.25515
0.5159369,73.72154
0.40156797,75.55338
0.38410962,73.680435
0.41516614,72.58616
0.29108813,74.2474
0.34684384,74.68069
0.36344582,74.66762
0.3816163,75.50413
0.45100164,72.07331
0.30561778,74.70881
0.38215825,71.13778
0.3757005,73.93702
0.3960495,71.846725
0.33669207,68.62568
0.2457241,73.296265
0.27276713,69.62754
0.36686647,71.67496
0.25255075,68.77248
0.2775779,68.83621
0.210992,69.15221
0.23485808,68.09044
0.20517462,69.18446
0.20774299,70.518036
0.15961598,70.86413
0.16789432,71.413155
0.031016927,70.73857
0.0035832622,69.673965
0.021955293,67.973404
0.0226485,71.10967
0.028031614,70.18646
-0.06676501,68.73323
-0.010132989,71.54751
0.013463751,69.9465
0.0074440516,71.21978
0.063537866,68.541145
0.087377794,65.9445
0.0709051,72.309875
0.21186565,73.63025
0.172674,73.54916
0.28679144,75.56132
0.43677375,75.425606
0.48227057,76.15364
0.5440719,78.2943
0.69770163,78.80721
0.6862724,81.67647
0.79355466,77.95424
0.87565464,77.591064
0.8817862,83.120285
0.9630559,81.273384
1.0469968,79.66581
1.1291308,81.77929
1.213431,82.1301
1.329727,84.67873
1.257333,86.418846
1.2986964,87.255066
1.3672189,87.07512
1.3835392,85.21151
1.3993288,88.158005
1.4183393,84.77889
1.4475888,87.43205
1.4601971,90.80923
1.4992899,85.67819
1.4478921,90.89007
1.4674165,88.82344
1.5177522,84.56641
1.4878852,89.15147
1.5345085,89.299644
1.4982376,87.54816
1.4600253,88.40101
1.4878198,91.366066
1.3821621,88.68351
1.5131512,90.25573
1.3602403,90.33083
1.3921134,87.651245
1.4637617,86.26901
1.3747106,87.803696
1.2870259,90.58911
1.2226865,88.08489
1.3140731,87.61825
1.3178515,86.58827
1.2554098,84.724884
1.2143922,86.92681
1.2871945,86.094604
1.1870666,86.35093
1.2272828,85.583496
1.1331617,87.28397
1.1508756,85.02518
1.1441832,87.724945
1.1272737,85.99371
1.030342,83.56928
1.0159519,84.086006
1.1849993,83.33121
1.0330405,80.49644
1.0733889,80.60138
1.1672245,80.72701
1.1378309,81.85606
1.0939178,80.12721
1.088967,82.94116
1.0266854,79.48995
1.0577064,83.44519
1.0701821,81.34562
1.002483,77.667336
0.9311688,77.434875
0.96804076,80.21443
0.8831131,79.24845
0.9170986,76.738815
0.7643995,76.607864
0.83198047,80.46899
0.7476429,77.43
0.69690067,74.020424
0.7480994,73.7868
0.64864254,74.60252
0.80320036,74.69715
0.7172244,77.13572
0.66553557,73.67149
0.7666501,75.194496
0.64841455,76.48217
0.5809395,75.316315
0.7092954,74.15979
0.6587144,73.39807
0.6795302,74.44684
0.65896565,73.43889
0.5267383,71.98056
0.6331095,74.70246
0.7368312,69.1341
0.65426826,69.172714
0.7624125,71.43356
0.6950962,70.27803
0.5939644,68.86458
0.60471874,72.249374
0.63378626,71.88397
0.66090673,68.17693
0.5590177,71.932526
0.4396776,66.868324
0.47177687,66.1113
0.46203178,67.394554
0.4014361,67.52575
0.4130742,70.7923
0.34186766,71.85329
0.2970462,66.900116
0.27930573,70.52463
0.32194304,68.58203
0.39443445,70.341965
0.4494941,71.73654
0.31508046,71.326515
0.41997436,72.878876
0.47198844,72.27886
0.5944439,74.54988
0.5461364,76.10115
0.6443812,73.14892
0.6193077,78.55166
0.86194086,75.116165
0.88462365,77.743744
0.9793258,76.75592
1.0928763,79.649895
1.1420561,74.15089
1.2862171,79.27006
1.2802296,81.653145
1.4323965,81.62772
1.4874532,84.031265
1.4291294,81.33468
1.6287683,84.16207
1.6495433,81.30102
1.5493327,86.139534
1.616848,85.76857
1.8180786,85.83888
1.7379549,90.581566
1.7406489,89.579765
1.8854654,89.95891
1.8429345,88.61379
1.8175852,87.30912
1.80047,87.73743
1.96457,89.83795
1.9212399,90.05687
1.8321639,90.5921
1.8697152,90.07161
2.013696,90.44692
1.7817553,84.510414
1.7858256,89.57655
1.9028436,87.228645
1.7856073,89.539444
1.7949344,94.1333
1.8621986,86.30895
1.7629766,89.00818
1.7941033,88.99253
1.8166602,90.07488
1.7135139,88.631615
1.7427891,88.95591
1.7775835,90.490295
1.6757627,91.29177
1.6164906,86.254326
1.5311763,85.453636
1.603862,85.92822
1.5690073,84.68799
1.5384257,86.82421
1.5251648,88.807686
1.5998228,85.665215
1.4780765,87.30082
1.4834646,83.547714
1.4912684,84.19767
1.5117351,87.20055
1.4662774,83.144684
1.499003,83.83188
1.427883,80.97717
1.5071119,83.38009
1.4220771,86.032906
1.3934991,79.349236
1.3234135,77.81098
1.4505306,86.046936
1.344998,81.9321
1.3540558,78.165474
1.2970414,77.39768
1.340565,79.75168
1.3443625,80.94771
1.3198802,77.19275
1.192434,78.32318
1.195023,77.27577
1.1222625,78.820816
1.0719008,80.7786
1.1242735,71.888176
1.0508935,77.30178
1.0424569,76.32496
1.0068039,75.53458
1.0800304,76.96084
0.9255472,72.41131
0.98684514,74.5485
0.96870846,73.76945
0.8653331,73.117836
0.9495322,72.08313
0.97816056,73.492065
0.9113791,74.77363
0.8670646,72.9752
1.0524443,74.961365
0.8556676,70.48378
0.9537507,70.91833
0.93824416,70.10404
0.9561287,71.89333
0.8549459,72.693855
0.9364844,72.317726
0.86143154,68.462105
0.8640027,70.33531
0.7413864,69.38642
0.7947608,67.55403
0.8333779,68.788635
0.61101204,72.32514
0.6893786,67.12543
0.5845254,68.81132
0.5468667,66.508156
0.54456234,71.55652
0.5008467,71.55167
0.57742643,69.03836
0.54893047,73.854546
0.5776369,73.554504
0.6071731,73.659
0.58765,72.22651
0.532944,72.20096
0.5776521,73.16588
0.61218864,78.37126
0.73280466,72.92248
0.823561,74.83838
0.8300123,74.64343
0.8299194,70.46879
1.0224724,73.51485
1.0987763,78.77604
1.1818218,77.137024
1.2225355,76.82954
1.2999951,77.005
1.3399522,80.184135
1.3780265,82.294174
1.5337485,81.49254
1.529822,79.27027
1.5990429,81.0742
1.5985126,86.72597
1.7589931,84.22611
1.7074772,82.79923
1.7543083,82.26433
1.7277611,86.95803
1.8576708,87.40369
1.8647339,87.28467
1.7922714,87.67733
1.9613152,86.18043
1.8278738,86.21199
1.9183037,87.73593
1.8794876,88.68457
1.7990246,87.173935
1.9285692,90.06248
1.8920035,90.33327
1.8652385,89.640945
1.9037002,88.40382
1.8385723,90.20939
1.8284569,89.462555
1.760268,92.79156
1.8477404,92.70479
1.8597655,90.78456
1.7792886,90.548325
1.6588087,88.5058
1.8017547,92.47816
1.7309251,88.64101
1.6681592,89.311745
1.6451077,89.45401
1.7346374,89.45671
1.6079609,87.04788
1.5465032,82.685585
1.4420693,87.68439
1.4849913,86.83417
1.5568172,87.99727
1.5071089,85.4628
1.3661402,83.2771
1.503993,86.2763
1.4784658,82.47272
1.3665289,84.96897
1.3589463,83.61758
1.4350151,84.23238
1.4245979,83.89189
1.2921219,81.74119
1.4035757,81.73122
1.3920075,82.84594
1.3045768,78.16333
1.3226881,79.66394
1.3048009,80.39076
1.2245997,79.97154
1.1227608,80.86204
1.177628,81.9173
1.1583823,77.59441
1.119417,78.19889
1.05298,78.8108
0.9360956,79.4039
1.0784225,74.978714
0.8755326,77.752174
0.95096564,78.67634
0.85057944,80.18627
0.90004563,75.96226
0.841798,75.475845
0.8037042,71.54249
0.74348146,74.75565
0.8331636,71.05017
0.6687098,74.84612
0.7619971,74.12504
0.71940947,70.43116
0.67499864,70.89406
0.63979834,73.59895
0.7456737,74.288956
0.729826,74.89216
0.71887344,70.07641
0.6794388,68.13264
0.6734629,71.08871
0.6455213,69.20267
0.6655209,72.18994
0.57715195,67.62266
0.6119833,68.76169
0.47646773,67.110016
0.600138,66.98072
0.50856525,67.67852
0.52070826,67.91618
0.49772686,66.90601
0.52217495,70.52984
0.39055407,71.39267
0.34139,70.81887
0.43517128,70.40351
0.33771503,72.86853
0.15386987,71.906395
0.2819212,74.478096
0.2524121,66.95999
0.20908602,68.307175
0.33801264,71.89116
0.317415,70.8258
0.34729862,73.37682
0.40916735,70.11935
0.435273,76.38794
0.46096638,77.28819
0.6013169,74.3349
0.5649631,75.39313
0.64325285,76.87076
0.68996066,78.77117
0.76507425,78.059296
0.8968696,80.406586
0.9942514,83.358284
1.0321321,78.13476
1.0211176,81.618126
1.1082671,81.31266
1.1951311,78.21385
1.2814951,83.51143
1.3431509,85.47157
1.4250199,86.63274
1.4077294,86.78503
1.4083474,86.249626
1.4963621,87.320404
1.4782047,83.492836
1.6337893,87.0365
1.513954,90.39278
1.6300389,85.85015
1.5720161,85.05037
1.5403801,90.87914
1.5350078,92.38905
1.5616701,91.784294
1.5754173,93.13841
1.5594851,89.85897
1.4459914,92.69342
1.4305892,92.4132
1.4785305,89.617714
1.5153373,93.59769
1.440888,90.92131
1.5256987,90.00017
1.4046375,88.81804
1.459677,90.06426
1.4485676,84.55662
1.4707122,91.54762
1.2928185,90.334694
1.3386375,84.79598
1.2008054,89.3576
1.1481707,89.04707
1.2051497,87.31981
1.2373955,86.49695
1.0626243,90.106865
1.133378,88.44328
1.0772846,86.2577
1.1500186,88.48975
1.1545635,86.63906
1.0477002,83.664055
1.0683672,86.713936
1.0204353,83.074455
0.98807037,83.07685
1.0671394,87.11393
0.9533074,84.69369
1.0679606,83.51927
1.003581,83.246864
1.0588508,81.48797
0.9659244,78.49808
0.97634953,77.98163
0.9450763,84.636086
0.871194,81.694405
0.9284036,82.705795
0.90922755,81.28031
0.7928378,78.766014
0.7134508,78.5811
0.6356465,81.483185
0.72737867,78.4853
0.6152724,80.589485
0.62511605,75.08124
0.6163157,74.69255
0.49586993,75.714836
0.53644073,75.47442
0.5177948,77.04518
0.3593691,76.57114
0.4331508,74.68155
0.41863558,74.0078
0.37264413,75.24104
0.35704625,75.034004
0.44858593,72.02385
0.44445375,71.40984
0.33846,75.02032
0.3760817,70.599144
0.41002658,73.880745
0.2909211,75.73343
0.39946184,70.46252
0.35210025,68.63025
0.3208689,69.05848
0.36661768,68.30225
0.25197443,70.49574
0.20881179,68.81951
0.37039247,72.26718
0.18423098,70.514465
0.16473052,68.62914
0.2406187,68.35295
0.15143363,70.852554
-0.03550944,68.61103
0.09530167,70.817215
0.0195686,71.03695
-0.0072313584,65.92852
0.02286041,70.0398
-0.027641514,68.67471
-0.10796048,70.32107
-0.07054271,72.74779
-0.14909248,67.800476
-0.029304447,72.77433
0.015160465,72.22838
0.056280334,76.63027
0.08077986,75.66948
0.07608086,70.79954
0.18212444,72.724495
0.24059407,72.99653
0.39007512,80.46331
0.36076215,80.05921
0.41962123,80.29122
0.5146314,76.992485
0.58333254,76.843445
0.6886649,81.24937
0.73211116,81.048996
0.7781779,78.3576
0.8457121,82.649124
1.0141405,83.165695
1.0753272,84.63436
1.0973204,81.225914
1.1237106,82.40598
1.1749055,83.637344
1.1758684,84.05667
1.2797576,83.83187
1.2785604,83.072075
1.3009886,85.54637
1.2617395,86.67343
1.3488803,86.48363
1.3007325,88.854126
1.321763,89.946724
1.3389105,89.24626
1.3776015,89.9348
1.3838212,89.100006
1.2903211,93.43537
1.3059661,90.57944
1.347508,88.13728
1.2843189,92.9302
1.2866082,91.00455
1.2102518,93.79783
1.3435516,89.28572
1.2823226,87.30291
1.3367443,90.25412
1.1826735,91.41354
1.2617515,91.230865
1.1684059,90.58598
1.1283717,88.691124
1.0979061,88.19667
1.1259661,87.30045
1.1739132,88.65428
1.071747,90.11643
1.027083,86.92901
0.93710196,86.98109
1.0511228,87.41316
1.0238003,86.95468
1.110559,86.6476
1.034841,87.25951
0.9692311,83.740395
0.9373663,83.732025
0.99437517,80.67533
0.9496518,85.07079
0.8543293,85.727455
0.9777798,86.824295
0.99832755,80.92646
0.8975724,80.618
0.84246737,83.4688
0.9162332,79.29527
0.894151,82.14006
0.92143327,78.821594
0.8039874,79.39239
0.8501352,79.0238
0.77061045,80.14987
0.6880029,79.60922
0.7111936,78.538124
0.7709258,76.92069
0.69858533,76.50435
0.6653356,78.941284
0.60054713,75.27907
0.5509282,75.29881
0.46072018,78.18264
0.56363773,72.87927
0.51835465,75.491066
0.5128856,74.58098
0.52627355,69.68311
0.47131068,71.16139
0.46950683,74.59952
0.37647682,71.45515
0.36286598,74.64206
0.5653365,70.55541
0.42661124,71.82226
0.39632234,68.68528
0.42118976,67.222855
0.46045384,70.314125
0.4288107,69.5305
0.47904438,69.25427
0.49255848,71.74189
0.38959566,70.66372
0.39252478,69.51389
0.31778732,73.1185
0.3884291,70.13215
0.41587016,70.54466
0.30913672,64.62623
0.37395766,65.86571
0.22374569,65.17078
0.25975427,69.86857
0.12260017,71.22973
0.06700699,70.20394
0.13498071,67.80982
0.21135025,71.46214
0.13058941,67.20268
0.20553455,74.48123
0.19767836,68.14927
0.21017005,74.24286
0.2044977,71.59503
0.19895187,70.80439
0.30230397,71.50792
0.3444728,72.68056
0.4406702,74.90193
0.31954786,73.45087
0.57588696,76.1232
0.52097934,76.17251
0.71626645,77.45684
0.7191267,77.61581
0.84421784,78.681816
0.8764248,79.01214
0.96502876,75.832115
1.0876157,77.2668
1.1289301,80.49264
1.1898004,81.720436
1.2149142,81.73558
1.3640153,82.71326
1.3096517,83.09463
1.4075068,83.3465
1.4619803,85.59729
1.5951219,85.65673
1.5498844,87.68185
1.5427661,85.65097
1.5391212,87.09492
1.6841645,89.78934
1.578729,87.82088
1.656478,92.13871
1.679072,83.92282
1.6365383,89.182686
1.6846362,90.93037
1.682982,90.64033
1.6988757,90.08483
1.7549057,89.185524
1.6999465,90.989586
1.7115804,91.22056
1.6962881,90.987465
1.6715902,88.14083
1.7053559,91.11583
1.6921103,87.120186
1.5954899,90.39015
1.5896904,94.24233
1.5797037,92.20565
1.6352222,90.1595
1.5238221,83.37089
1.4981393,91.06723
1.4750232,88.05649
1.4164315,90.0539
1.4091742,86.631096
1.4117956,89.581085
1.392819,87.65658
1.3265419,86.035576
1.4057177,87.18723
1.2934504,84.587074
1.2315818,84.00238
1.4594911,85.75877
1.3047273,81.55418
1.2004337,83.98145
1.3158362,83.99912
1.2415456,85.43569
1.3299955,84.055984
1.3324705,83.73898
1.2968949,81.96688
1.3429158,83.403946
1.2970097,83.9808
1.2458856,80.59313
1.2138873,84.214226
1.2223366,80.34066
1.1356962,78.13072
1.1018797,81.62046
1.1402268,81.102776
1.124397,80.33558
1.1382939,79.2053
0.9714942,78.313736
0.93553066,76.481316
0.9735485,78.833824
0.87938476,75.35469
0.8743159,76.57571
0.9254341,75.39033
0.9054969,76.355064
0.8523633,72.22872
0.80483586,76.153244
0.90434736,71.68153
0.822633,72.23787
0.75834656,74.68894
0.86172706,73.127304
0.82514745,72.774704
0.74575907,73.85764
0.8753002,71.62916
0.87363744,69.65899
0.8854588,71.557495
0.88355243,72.96566
0.860139,70.68102
0.8335742,72.86056
0.8133331,67.852715
0.7678974,69.33173
0.72707045,69.08062
0.716506,67.38444
0.7136737,65.83694
0.70427114,69.544914
0.77660394,71.36313
0.6543844,70.64845
0.49268475,68.904175
0.62275636,70.18615
0.57477814,66.58131
0.4614315,70.56014
0.53541964,73.71356
0.39711735,74.34461
0.48348367,70.02777
0.5444108,72.41847
0.48471156,74.300644
0.5892363,66.25551
0.68378526,71.621376
0.6651608,74.95321
0.6348179,72.22164
0.71848214,70.89702
0.85308886,74.750244
0.8807665,74.483246
0.90883887,76.425415
1.1280951,76.963936
1.129075,77.78779
1.0815768,79.62352
1.3194448,78.67445
1.3451499,76.84363
1.4115607,80.099304
1.4876875,84.13305
1.5719347,83.19379
1.6556679,86.791275
1.7148045,83.165306
1.6759186,84.33009
1.7699178,86.59704
1.7285523,83.0861
1.8443018,83.01262
1.9161044,84.209076
1.8589787,83.35134
1.9420514,87.800705
1.8279424,86.41619
1.9183874,87.90328
1.9337891,88.387
1.9336575,90.36561
1.9977729,88.13051
1.9080001,90.48712
1.9427298,90.133
1.9337641,90.7461
1.9862179,89.12506
1.9536091,90.143906
1.8556348,90.70709
1.8864073,90.66562
1.9266413,90.02117
1.8941811,92.45911
1.8222308,88.99186
1.7807381,88.13957
1.8203341,89.52565
1.8222487,89.668724
1.77027,87.5318
1.7812827,84.015434
1.6802192,85.11684
1.6547753,87.014786
1.7007858,87.22162
1.5989405,87.707016
1.5912513,84.89546
1.6811358,88.35178
1.598759,89.33241
1.540877,86.76333
1.5863104,87.18882
1.5454867,85.16684
1.5507876,83.72933
1.5056742,83.73299
1.5762572,83.271126
1.4841623,85.309875
1.4727844,83.435265
1.4476197,79.74152
1.5466354,82.30922
1.4454784,81.69701
1.4446163,86.69309
1.4423898,82.68625
1.4060615,81.36999
1.3198639,76.07203
1.2818319,80.04959
1.3300335,80.575195
1.2490286,81.47698
1.1944911,75.08691
1.2352439,73.51892
1.1277972,77.109985
1.0275084,79.35577
1.0606073,79.402245
0.97908515,75.58202
1.1126397,74.97631
0.9782801,74.713104
0.8869613,73.34112
0.96645635,70.99333
0.9392132,75.11972
1.0336733,75.10104
0.88495183,73.795975
0.9802678,73.432945
0.8466805,73.93937
0.9154244,73.41086
0.90798026,74.09283
0.84047204,72.983734
0.85051996,71.8401
0.9533133,71.99607
0.88353485,71.59209
0.92198,69.79407
0.8399062,69.67605
0.822589,67.897064
0.78543615,69.04795
0.7322131,71.29831
0.80926013,71.750725
0.7065138,69.88697
0.7044851,65.9781
0.6064191,67.87832
0.5867486,67.22921
0.57928854,71.54203
0.5332296,70.739395
0.5067927,69.88839
0.4324806,73.72436
0.5022513,71.91754
0.5328861,71.72254
0.45273343,70.45035
0.374053,70.30812
0.35448167,73.94003
0.44755048,74.016975
0.4908929,72.63109
0.52917683,71.65998
0.6403342,75.25499
0.66110796,75.31084
0.7134173,72.47272
0.78755337,74.81621
0.8691537,78.62186
0.91802686,76.81841
1.0180026,74.915794
1.0981917,77.54085
1.1259508,81.06956
1.198013,80.64499
1.243233,79.454666
1.2912308,82.05951
1.3832896,82.80377
1.4348145,81.52475
1.5038446,84.294785
1.6379477,81.68947
1.621515,87.6756
1.6002034,81.180016
1.6527267,88.37658
1.6814686,85.894394
1.6570967,86.48787
1.8137903,87.30684
1.7260319,88.407295
1.6800421,86.929924
1.7229443,90.513756
1.8135841,87.23839
1.8274194,87.85573
1.7658018,88.69176
1.7956544,88.64794
1.696786,89.25047
1.7909302,93.1764
1.6866857,89.16285
1.7382373,88.68988
1.6642001,89.86708
1.6595056,91.271324
1.6832949,89.774216
1.6447108,88.095
1.5725182,86.84564
1.571166,87.40402
1.5379533,89.36296
1.6050963,90.50912
1.5344115,85.90714
1.4725851,86.57504
1.3630022,89.192795
1.4520688,89.104256
1.3361684,87.3763
1.3315585,87.02775
1.3622621,86.789116
1.3391849,86.429245
1.2457764,89.69113
1.3523399,85.66519
1.2016437,83.79826
1.27979,85.808014
1.1735243,83.81613
1.2340454,83.63092
1.201807,84.078476
1.1685243,82.37304
1.1816807,80.8663
1.1076968,85.33084
1.190307,83.891815
1.1446337,80.52631
1.0954344,81.74968
1.0694493,82.281815
1.0662026,79.94043
0.9894211,80.97734
1.0069709,79.76332
0.9180656,79.75919
0.8870442,78.85741
0.7959612,79.979164
0.8437071,78.01006
0.7969468,77.25098
0.7489886,76.73934
0.6228249,75.272675
0.68316513,73.995415
0.5816869,73.35706
0.63732964,76.80005
0.5767511,77.013725
0.61538863,74.09285
0.5683494,73.93851
0.5595369,76.07885
0.52963215,72.9196
0.46153468,70.6695
0.516135,74.99118
0.4301804,66.448364
0.5018647,67.72774
0.49363232,70.53452
0.4633779,72.66314
0.51313174,70.15202
0.5141496,72.214745
0.4111427,70.36315
0.37620637,72.117935
0.47189686,70.16683
0.44395548,69.82094
0.3550859,67.734856
0.360168,64.794846
0.3601027,67.33151
0.2835809,72.2216
0.0829112,65.74182
0.19064589,69.52161
0.19804333,69.15164
0.15500581,68.431725
0.13108236,71.85084
0.102334864,71.59608
0.042415034,71.193184
0.10497144,71.66044
0.07687771,70.75921
0.16423489,70.541855
0.09070646,69.72401
0.09728658,70.7807
0.12894258,73.67945
0.276979,72.988754
0.23809125,72.263885
0.33597094,76.23736
0.4413891,76.30321
0.41704476,76.049576
0.5206835,76.16391
0.56209683,78.17791
0.70009863,77.16486
0.71788573,79.59813
0.8378024,81.432816
0.93393517,80.0146
0.9545479,83.062096
1.0018502,79.70855
1.1311986,81.081406
1.0066599,82.00099
1.1360805,85.46437
1.2770927,82.97427
1.2460226,85.98707
1.2734953,85.07358
1.3329607,87.17638
1.3414968,84.76723
1.3457637,86.894325
1.3873945,89.27254
1.277894,90.14986
1.3780375,92.026054
1.467861,90.87235
1.4029632,86.10048
1.3546065,87.98443
1.4621785,94.6463
1.3084186,91.73706
1.413442,88.93992
1.3660264,87.67559
1.3936378,90.288666
1.3918614,91.33545
1.3241125,91.29209
1.2711138,90.56993
1.2960105,90.027534
1.2516334,90.21732
1.1675538,89.28108
1.204249,91.287796
1.1464487,91.52538
1.0839716,87.86134
1.099515,90.46879
1.1037805,86.919495
1.2073456,88.501976
1.039168,87.85622
1.0598651,83.84323
1.0867045,90.26941
1.0258656,85.34903
0.9286392,85.02063
1.0102124,83.65503
0.93419033,84.706024
0.9227813,84.094124
0.99394983,87.3342
0.9462223,81.81028
0.8789797,82.45152
0.93721896,84.03956
0.9848041,83.78772
0.9502963,81.31968
0.78950834,78.84047
0.862693,82.643936
0.83674145,83.12179
0.77992433,77.124954
0.8284635,80.71833
0.71485835,82.33395
0.7179228,79.62568
0.7042602,79.2094
0.72076243,80.88615
0.6379407,77.21627
0.6251024,76.140976
0.5493355,79.361374
0.47003105,76.538216
0.553026,76.35307
0.54986143,76.57165
0.46240664,72.78298
0.46242884,76.00056
0.36336797,75.75837
0.4354322,73.937706
0.35768187,72.113945
0.42793196,72.69675
0.27723283,75.64801
0.33877045,73.76723
0.38395217,72.6832
0.38153464,72.24122
0.36920577,69.67091
0.36936498,70.96868
0.26006323,69.37688
0.32251218,70.69495
0.24530044,67.980286
0.32755914,71.50243
0.3077327,74.07012
0.26082066,71.837975
0.2026086,70.17887
0.14505887,69.30621
0.16365722,73.09936
0.27245227,69.174355
0.14627747,66.88778
0.15353177,68.993904
0.0655449,70.215294
0.1774855,70.28435
0.1444859,70.885635
-0.01885594,71.878876
-0.039610345,69.97421
-0.02409343,70.53521
-0.027584197,72.23721
0.004651681,69.63058
0.019467885,68.43443
-0.056523927,69.119865
0.091191694,72.027145
0.03904368,76.779625
0.06368229,76.502
0.24073958,75.69974
0.3032863,74.15374
0.27586225,73.37755
0.3277134,75.713455
0.46896347,77.41116
0.47431958,76.455284
0.5578559,79.06276
0.6995161,77.67094
0.75023806,77.30057
0.8275601,82.264206
0.932126,81.501015
1.0442871,80.971664
1.0927292,82.87654
1.1489897,83.63995
1.1403217,83.92442
1.2169591,83.489655
1.285193,82.9097
1.3397578,82.39964
1.2825047,85.5175
1.4642646,84.56995
1.3138192,85.88127
1.3801365,88.26236
1.4340186,90.59797
1.4858826,85.3723
1.4963022,89.93704
1.4656609,87.41042
1.5263295,86.90135
1.4887043,87.85858
1.4276161,89.12114
1.4087677,90.884834
1.521279,90.87888
1.4467425,87.81825
1.4086152,87.42102
1.3744125,91.84124
1.527049,92.1863
1.4063584,94.1868
1.3546629,91.012566
1.3451827,89.70895
1.377045,87.55802
1.2560709,89.210236
1.3530066,85.9473
1.247489,91.94036
1.2542715,90.63637
1.2671019,89.928894
1.2157649,85.75328
1.2383707,88.51093
1.1503718,88.83081
1.1523963,85.456276
1.1903805,85.28514
1.1433262,85.05463
1.1916953,82.35432
1.1931053,85.00725
1.1930066,84.43696
1.0985024,84.18787
1.1157455,84.25962
1.0067959,85.713776
1.0561875,81.82816
1.0322999,83.67751
1.0912558,82.95489
1.113372,84.4836
0.96482104,81.82955
0.9932811,81.83439
1.0750346,81.856346
1.0502188,80.90445
0.92002934,78.550606
0.9430386,79.83959
0.9177923,75.64561
0.8787631,76.265465
0.8685031,79.33667
0.8324768,78.913895
0.88196594,74.9474
0.8953017,79.79124
0.75966144,77.33258
0.70713145,74.67564
0.6924404,74.83201
0.66792864,72.06957
0.68786186,74.35889
0.568075,75.568016
0.67437184,77.71627
0.5313586,74.00461
0.61621743,74.90558
0.64802575,71.2594
0.636857,68.894806
0.6008793,72.493256
0.61794573,68.75609
0.6734339,70.673744
0.60913366,72.36599
0.6214323,71.46788
0.6015333,71.05323
0.66406095,68.67175
0.5995394,68.62499
0.54866314,63.099716
0.5982794,69.06356
0.63919747,71.36469
0.5776464,73.62995
0.51029617,69.904884
0.50925636,72.88098
0.44390002,67.73208
0.32899556,67.997086
0.3464314,67.85196
0.30400446,67.19621
0.39729628,70.54122
0.38294545,68.258545
0.33657485,69.07299
0.3103121,71.55207
0.31897694,68.89611
0.37559646,71.67475
0.39608258,74.25116
0.42198855,71.56342
0.49037415,72.649216
0.49868366,76.74754
0.6523807,73.85469
0.73973316,78.46194
0.7332809,76.74606
0.79876727,77.59267
0.92443347,78.99084
1.0554762,72.8212
1.0850557,79.926056
1.1965275,82.10389
1.2416753,77.49682
1.2984326,83.16114
1.342447,82.655174
1.3818486,81.2778
1.5389212,82.22732
1.5289739,82.196625
1.6099478,81.66541
1.6517216,84.15401
1.6477706,89.89992
1.6901983,84.56266
1.7147971,86.445816
1.7566414,87.35041
1.8233187,87.886894
1.825301,88.313126
1.7642747,88.14057
1.7851636,90.78868
1.8541046,88.5922
1.8435206,86.94352
1.7792847,90.30126
1.8544073,92.417305
1.939558,89.6193
1.844954,86.952774
1.9176884,87.850266
1.8958356,90.743645
1.8304356,89.886345
1.8455985,87.04142
1.7652768,89.69385
1.8218765,90.62334
1.7331638,90.24254
1.811291,86.31165
1.77259,92.12927
1.6612935,89.270035
1.6039566,87.561
1.6046313,92.49851
1.5270647,88.98789
1.6352582,87.93715
1.6064533,88.7964
1.6106485,87.6855
1.5348804,85.63237
1.5221335,92.69377
1.4693729,88.792854
1.5772872,84.82275
1.5035455,83.402115
1.4913315,84.543274
1.4960146,84.41309
1.4685824,85.24777
1.4191011,83.62133
1.5537528,82.55957
1.4176517,80.558846
1.3682114,83.19409
1.2947549,82.7885
1.4072981,77.6981
1.3932682,81.31124
1.376348,79.75486
1.3279576,79.630714
1.2345961,78.01949
1.224707,76.830986
1.2256298,80.23811
1.2130774,83.86197
1.148377,77.22517
1.1794918,77.75845
1.1256648,75.14008
1.1469901,76.00852
1.0330949,76.56439
1.0095177,75.62878
1.0216688,76.44191
0.9638791,73.07113
0.9865444,73.14003
0.9760468,73.216545
0.8343672,69.94385
0.98506755,71.19041
1.002384,72.66674
0.9548432,73.9026
0.89396906,70.8199
0.85878086,70.94792
0.90196633,70.54034
0.9129377,69.82442
0.7913407,71.449974
0.8207171,72.1743
0.9766714,69.66726
1.0007135,68.9821
0.9118011,70.716385
0.90055126,67.73885
0.8945951,68.05021
0.8097752,69.00369
0.69264966,69.91112
0.7820228,68.28183
0.61566925,69.778885
0.6511311,69.030266
0.6842617,70.576
0.5791753,68.51136
0.5394955,68.29278
0.5742391,64.60903
0.50610673,73.070496
0.46258947,69.75547
0.5194206,72.8321
0.5500226,69.34633
0.55956113,68.9705
0.63333946,68.70054
0.5932823,75.671234
0.5735261,72.33295
0.71049434,72.20431
0.81127936,77.27083
0.8286436,73.56691
0.88142663,75.924835
0.9973074,75.35862
1.058686,77.17034
1.0689211,75.39466
1.1785773,81.035164
1.1967672,80.55821
1.3457891,82.14678
1.4134393,82.40334
1.5078632,80.68067
1.5240127,84.26841
1.5292186,82.87027
1.6035987,82.01213
1.7412875,83.00449
1.7746612,85.32768
1.6951277,86.506546
1.8050046,86.64862
1.8837873,89.619385
1.7868216,90.12394
1.8641207,87.23783
1.9537017,88.00589
1.906038,87.57322
2.006887,87.31246
1.9331266,89.6448
1.9552717,91.51588
2.0945687,87.75988
1.9030901,89.73021
1.9391016,89.303314
1.9433498,85.46727
1.8618541,89.01597
1.8959644,89.08704
1.9565188,91.22356
1.8587254,87.75846
1.8653696,90.137566
1.8068455,91.340454
1.8172224,89.30715
1.7163203,86.13092
1.7157711,89.72747
1.7295051,89.18487
1.6684748,88.71477
1.7435627,87.83474
1.7023157,87.94688
1.6249523,87.59316
1.64841,88.017136
1.5389154,87.29772
1.5533029,84.332504
1.5033537,87.47497
1.3512605,88.18686
1.5287286,87.33204
1.3925047,84.6672
1.4531312,81.09794
1.4484437,81.19082
1.4066806,85.55222
1.3706692,84.758095
1.4763297,82.50152
1.4150426,82.2815
1.3029842,79.25205
1.2961473,81.824684
1.2611556,79.91448
1.2231513,86.71543
1.355696,79.90129
1.2127424,79.71299
1.1567049,80.65297
1.1347494,79.31101
1.1496614,79.176796
1.246617,80.948906
1.071566,79.692986
1.0675831,77.42737
0.9136503,81.701096
0.979081,78.55884
0.90326065,74.885254
0.97405255,75.513725
0.84972566,75.7323
0.87085205,79.074234
0.8378213,72.90571
0.8546796,72.40868
0.7472465,72.81768
0.79374653,77.96067
0.7295992,75.758156
0.71535057,72.47094
0.740862,72.26565
0.7195433,70.91414
0.73753303,67.41289
0.7462908,70.18968
0.78106487,71.1484
0.65902185,69.50741
0.75704294,71.6859
0.6967051,70.902534
0.60805666,73.76848
0.6988462,67.33307
0.7289461,68.95475
0.5759481,69.97976
0.47823286,72.33121
0.5409476,72.06303
0.5186995,68.89092
0.46866697,68.48804
0.37348878,68.64241
0.40947556,70.43691
0.3022345,67.542175
0.29870304,70.677536
0.39387652,68.78421
0.37318242,69.76458
0.34588632,73.14082
0.35721982,68.97143
0.3044022,70.00957
0.31308955,67.84578
0.38904974,72.927475
0.262409,73.08244
0.37271035,73.06836
0.43121493,72.04485
0.44793805,74.415726
0.49634454,73.1631
0.5853341,75.28698
0.687742,79.42614
0.73870975,75.879715
0.84837884,78.31342
0.9522794,80.787636
1.0407666,82.88732
1.0988808,78.26708
1.2398733,76.97126
1.1977668,83.65127
1.3553975,81.47617
1.3409249,81.53276
1.4304727,84.944496
1.4429792,82.86726
1.4936486,87.22397
1.4080797,82.881516
1.4743718,85.24574
1.4644337,84.22819
1.4635478,88.84417
1.4821175,88.82493
1.5675616,88.792984
1.497638,90.43365
1.5683686,86.89118
1.6035309,89.54815
1.560942,87.75572
1.52305,88.142914
1.5407686,87.70744
1.5131239,88.681175
1.5671384,87.84654
1.6365921,90.30909
1.5085101,91.415764
1.4068031,91.639305
1.4954259,86.37512
1.3854995,88.05648
1.4354078,89.03902
1.4664571,88.25386
1.4029542,88.91938
1.3197336,86.004906
1.3441837,87.59462
1.2786238,88.23794
1.2729038,83.32771
1.2448969,89.31609
1.195929,89.13787
1.1834731,88.85955
1.1849757,88.31537
1.0469507,86.86753
1.1107757,85.95035
0.9779727,83.74008
1.0726734,88.12825
1.0099368,81.51045
1.0171319,80.62388
0.9539069,82.12961
1.0226464,83.92277
0.9773943,83.21047
1.0080308,81.26134
0.9503984,85.2909
0.97807527,82.25256
0.9900088,81.37578
0.93873674,80.41166
0.933592,77.85641
0.9116628,82.71759
0.83669055,77.4908
0.8580114,78.8003
0.66773164,78.20956
0.8215697,74.98316
0.64687806,77.39284
0.6110182,80.45922
0.71041495,77.329865
0.6646533,79.07021
0.5165466,77.68
0.4947189,77.31504
0.5534334,75.61953
0.43578088,76.54358
0.41595206,72.42639
0.4544443,74.36609
0.37932613,73.3202
0.3954519,74.04517
0.3597919,71.81906
0.38601413,74.88808
0.34782153,74.89538
0.3914066,70.72693
0.39533776,69.77076
0.36572468,71.16438
0.35419428,73.21782
0.3673578,73.34476
0.35587344,71.34704
0.3474263,72.98859
0.35008278,72.73131
0.29330418,71.2916
0.25148886,70.58934
0.26656774,69.90432
0.27398446,70.55614
0.2122984,69.738235
0.31885147,66.14217
0.12496924,71.91412
0.06189383,68.233604
0.09994411,70.85652
0.087753445,71.90164
0.010347044,67.975685
0.052990522,71.344765
-0.10342131,71.80435
-0.005848291,71.84699
-0.045398053,68.59577
-0.04012773,69.22215
-0.050571635,70.085335
-0.05031167,73.177246
0.009246719,73.26234
0.14409924,72.164185
0.16270433,74.02781
0.201014,74.57875
0.1956525,75.322296
0.3372533,76.08973
0.34499547,72.59461
0.47096068,76.80344
0.60033625,78.34521
0.5997978,81.98709
0.8120715,79.47587
0.7725725,79.3267
0.8248103,79.782104
0.85215646,81.487305
0.89281404,83.3874
1.0121799,82.831764
1.1429576,86.52938
1.1221805,83.85806
1.1320847,83.62316
1.211862,82.83227
1.2244793,86.830505
1.3347853,85.4827
1.2407953,83.702805
1.3740611,85.25986
1.3424212,85.643845
1.3595439,87.72534
1.3713298,89.0292
1.3534576,88.01228
1.3453817,88.33194
1.3474504,85.73469
1.4059875,88.77828
1.3555465,89.92298
1.4138402,90.38368
1.4080263,89.12558
1.318231,95.03054
1.4226388,88.944756
1.2599385,89.44504
1.3454297,87.67544
1.2951726,89.55968
1.2525115,90.235245
1.2272799,90.88892
1.1911134,87.435326
1.204519,92.56858
1.1928117,89.12372
1.1424017,89.03569
1.071739,90.43216
1.034567,87.701965
1.1120974,86.041595
1.0475096,85.69762
1.0215971,84.9594
0.97525847,83.46061
0.9411111,87.18412
1.0191932,86.44812
0.91470516,82.71514
0.98130405,84.73122
0.99731153,83.69189
0.96015966,84.84686
0.9623181,81.97307
0.9091116,82.73857
0.9472382,78.69826
0.892341,82.524376
0.8269841,86.2655
0.83794016,83.937225
0.8979561,83.58197
0.7962164,80.290596
0.7723392,78.85583
0.81391484,81.65095
0.8305489,81.63486
0.7337375,78.810135
0.70718414,80.346535
0.6313459,76.4275
0.6530836,75.443886
0.5744758,71.22578
0.6578545,75.657745
0.47804126,76.734566
0.49407044,76.49909
0.48933646,76.08784
0.4309835,74.58812
0.4417233,73.53397
0.48565444,73.493774
0.4316191,77.93148
0.41164318,71.49428
0.49151555,73.64964
0.33603105,74.9271
0.37484097,71.005486
0.2878465,73.21179
0.43053713,74.65098
0.40103975,70.7313
0.4110325,75.15654
0.45791727,71.54824
0.41670924,71.828705
0.3476792,68.86252
0.38990438,70.39126
0.44647446,70.18145
0.3819887,68.94688
0.41559675,64.61079
0.2767625,68.84471
0.297464,70.040596
0.24670517,68.27977
0.19007699,72.31943
0.22103724,69.80974
0.2588914,65.320915
0.19570445,70.92091
0.07338424,68.675674
0.12227156,71.08237
0.1264545,66.79799
0.096221074,68.568886
0.15752499,71.38188
0.11904601,73.18354
0.12165554,69.79732
0.132891,69.840706
0.24198242,71.992935
0.34146938,69.63952
0.33822995,74.184715
0.5069416,72.47843
0.4378519,76.59537
0.6182447,75.752014
0.59892935,77.07632
0.7204999,80.039795
0.7580713,78.89529
0.99308234,80.21026
0.9485075,80.558586
1.0328604,77.2722
1.1125026,82.54262
1.1403837,82.72262
1.2196072,83.11884
1.2812601,81.71674
1.2956355,83.37388
1.3884814,84.726654
1.4611233,85.62892
1.5114095,83.191574
1.5000108,86.18444
1.5088264,87.885376
1.5310264,88.98337
1.6081635,84.76856
1.6387945,86.808105
1.6250306,87.815834
1.5824499,87.8675
1.5932665,89.40547
1.7292866,90.40806
1.6404872,89.792
1.6167749,89.78729
1.6498235,91.223404
1.6066563,87.177864
1.6465478,88.52978
1.5552725,88.3097
1.6112473,88.33638
1.6291227,91.99286
1.5960155,87.993935
1.616363,92.940186
1.4448308,88.47095
1.5503899,89.667
1.5059028,84.35613
1.4666216,87.35817
1.3933536,87.85225
1.4906194,87.09516
1.3517964,88.06091
1.3618786,88.49743
1.3776085,84.47984
1.3397357,85.92373
1.2839764,88.83792
1.3009242,82.39676
1.2262399,86.70218
1.2993383,84.949974
1.2504524,86.306076
1.3198695,83.89566
1.2490411,84.535576
1.3077956,85.16493
1.1993384,80.343376
1.3619366,83.008835
1.3048099,79.53862
1.1753757,77.23943
1.2205889,85.85203
1.2375137,81.86633
1.1683034,77.13788
1.2833341,80.30969
1.182339,81.92918
1.1676084,80.594795
1.1281605,79.46691
1.0414947,78.33873
1.024222,78.769485
1.0134416,77.22874
0.99239016,76.26133
0.9549816,76.48458
0.9125789,75.58583
0.9134498,72.66807
0.92940694,77.46256
0.8346776,71.16873
0.82472223,76.20716
0.8368511,72.54255
0.8500669,74.605354
0.7786115,74.36186
0.72869617,72.45989
0.8314245,70.449486
0.80579203,71.51813
0.7944542,75.5051
0.75722873,74.66506
0.7954021,73.5243
0.8346165,71.038506
0.73702973,68.06877
0.8304724,72.168785
0.8406317,69.567444
0.7287044,72.98914
0.71566415,67.80732
0.7199413,68.98874
0.6343868,66.08179
0.8147962,69.58114
0.694892,64.6992
0.6169148,66.846535
0.55389124,66.94852
0.5764975,68.67831
0.5496296,69.21856
0.55070007,70.96371
0.55692357,69.99802
0.5016133,73.229256
0.4654077,68.612045
0.5111241,70.06939
0.48357773,68.225914
0.57337415,72.02431
0.63702714,72.48964
0.60960567,74.79478
0.6306274,73.639145
0.6560201,73.86659
0.74384713,74.315865
0.8158412,78.42
0.7974657,72.99389
0.8206814,75.624054
0.9599671,75.68797
1.0236162,77.02585
1.0371604,78.521866
1.2477529,79.0374
1.2809364,75.678406
1.3795918,78.81339
1.391578,81.29849
1.4456742,80.288216
1.5023342,83.3143
1.634904,82.647385
1.6915638,85.553116
1.8019123,84.65198
1.8193098,87.76357
1.916153,84.58555
1.8962783,87.57664
1.8798025,86.63275
1.8612273,86.89223
1.9051558,84.22834
1.9800507,89.91369
1.9730986,88.84569
1.9357129,87.01765
1.906066,88.5983
2.047023,91.156654
2.003412,91.627525
1.980735,91.7384
1.9499993,90.72455
1.9707016,90.57561
1.8968855,91.10242
1.958391,89.32764
1.8294107,92.626236
1.8599328,90.67068
1.8687046,88.01595
1.8074126,88.160995
1.7929482,86.76963
1.7442703,92.58924
1.7455164,88.93509
1.7304714,86.65001
1.745656,90.77632
1.6324872,91.67385
1.7195067,84.07244
1.7293235,85.87628
1.5910475,88.56093
1.6593018,85.687775
1.5705422,87.4186
1.5697032,84.76363
1.5107664,85.70048
1.5580834,84.578835
1.5483584,87.29889
1.4942558,85.63887
1.4774376,84.737785
1.4392883,85.313545
1.6547068,84.63183
1.5024806,83.45398
1.4846776,80.89774
1.4601684,82.07123
1.4865197,83.995605
1.3552425,79.852066
1.5052739,81.260025
1.3844125,77.863205
1.3431773,80.98483
1.3122091,79.29447
1.2326094,81.22003
1.2545,78.341095
1.2321448,81.897415
1.1407573,76.25627
1.0598394,76.54305
1.1020862,75.5619
1.0335485,77.59281
1.0429091,74.481384
1.0551132,76.660736
0.99004084,74.70196
0.9298404,76.17774
0.9645159,72.27962
0.96062046,73.40329
0.84413946,74.00006
0.85370415,72.72031
0.8226077,72.64413
0.82455474,74.18958
0.84700024,73.86582
0.89535856,72.566925
0.9923332,73.14867
0.955727,73.32178
0.8610044,71.11619
0.8252597,71.4355
0.7995853,72.7319
0.9226581,70.221214
0.85958934,72.267914
0.8197458,73.0612
0.7626603,71.20357
0.7751495,70.74443
0.73278975,68.05907
0.7313562,67.76675
0.6598358,65.96878
0.557522,70.95548
0.5059019,68.914536
0.53471446,68.48745
0.47979355,71.98281
0.67703617,72.320145
0.43569782,72.01018
0.36562154,72.944496
0.47236037,72.38556
0.45956156,71.72081
0.54171705,72.693504
0.53860396,73.91695
0.5848633,73.8492
0.6858315,71.558655
0.66089016,74.3148
0.7690178,73.28844
0.7674214,80.12448
0.7712804,74.10771
0.8904687,76.08792
0.87968624,76.49414
1.0527918,78.261765
1.1132323,75.95926
1.2405542,82.2476
1.2431402,78.05684
1.3527868,80.97533
1.4373493,83.09197
1.4688576,84.67597
1.5465927,81.044
1.5690914,84.23524
1.6819942,84.26522
1.6233197,85.55791
1.6749152,87.883545
1.6695406,83.07128
1.8048679,87.056435
1.7502267,83.72803
1.7869452,88.031395
1.7801609,86.95022
1.7574897,87.39104
1.8128242,91.35543
1.8093293,88.22643
1.7548034,91.997635
1.7383224,89.15684
1.7641417,89.816154
1.8471727,88.74687
1.6599307,91.421906
1.8123875,91.604195
1.6706166,90.48212
1.704572,88.7351
1.72225,91.77043
1.6854737,88.95095
1.6277466,89.09825
1.5949625,87.549774
1.5819279,87.34181
1.5388169,86.74709
1.4925697,92.58787
1.4497436,85.96944
1.5000181,85.12744
1.3625882,89.3085
1.3784016,85.87476
1.3336297,87.46953
1.3388551,87.3774
1.3668021,86.23976
1.2904909,85.94608
1.353805,84.48847
1.2567583,86.683495
1.3084778,85.19832
1.1982375,86.00648
1.2546835,83.51883
1.3556376,84.04332
1.2391981,82.83687
1.202347,81.0171
1.2489281,79.60892
1.2271049,81.72022
1.1281791,84.401764
1.220181,81.86327
1.1084789,79.36718
1.1046945,82.69015
1.0855337,78.2932
1.0489599,80.56406
1.0073674,78.7461
0.979353,77.24068
0.82732254,76.29322
0.8226129,78.096466
0.8826805,77.407845
0.8051202,79.331894
0.7910039,75.317085
0.7835406,77.49519
0.7717255,76.44071
0.66777694,73.20037
0.5843731,77.073845
0.6079916,74.25525
0.61737,72.35376
0.5692931,73.60385
0.5490478,74.2843
0.55412745,75.08949
0.5466968,72.73297
0.5147797,70.74418
0.5047556,72.853836
0.51767814,71.76943
0.52685803,70.19603
0.46976435,75.85477
0.53319824,75.55205
0.48181707,68.800064
0.5083399,71.504486
0.5065466,69.51301
0.3618743,70.27579
0.45176905,70.805984
0.39303046,70.41924
0.38454783,71.01904
0.28168243,68.7144
0.37887514,68.4711
0.21886669,64.96985
0.23138168,69.219574
0.21419056,70.11313
0.114639826,67.70428
0.108457975,70.30761
0.013396009,70.67292
0.11313006,67.99414
0.05517409,68.85371
0.09176385,73.434586
0.11874415,71.26556
0.13895592,69.99864
0.12634912,68.01504
0.1738511,71.31766
0.19537593,74.844246
0.35253128,75.764755
0.30149952,76.55849
0.48160696,77.29654
0.4819149,77.01998
0.51740783,79.624794
0.5686776,75.64456
0.6839085,79.55801
0.8427137,78.48826
0.8416642,79.13583
0.9554988,83.41201
0.9837359,81.260254
1.0240202,81.12618
1.0426848,86.76562
1.1988939,80.96285
1.2244486,81.520134
1.2184083,82.46126
1.2197254,87.01314
1.3434356,84.88479
1.3700912,86.53377
1.3715074,88.07125
1.4145083,88.958664
1.3733941,89.76165
1.3408285,89.86693
1.4807974,88.67631
1.4162476,89.103806
1.3894893,87.99213
1.3455786,88.13497
1.3806621,87.86059
1.413394,91.91791
1.3822793,94.39852
1.3843293,88.0204
1.3848177,87.95625
1.2946076,90.7601
1.402747,94.19589
1.3054553,88.38661
1.2894584,90.17626
1.189488,88.72606
1.1237503,88.09894
1.2272196,89.183014
1.0935631,89.86252
1.1160469,89.1525
1.0560158,83.87917
1.0536606,85.844955
1.058125,86.34746
0.93712026,87.813446
1.0382298,84.01135
1.0434309,87.13932
0.9932334,89.61106
0.97862977,87.06835
0.9434125,84.04654
0.9695517,82.33075
1.0031582,85.53871
0.8920665,84.34294
0.8983175,83.08897
0.880472,80.87325
0.94384867,82.691536
0.9075904,83.695045
0.81322,83.718094
0.86133164,83.10744
0.7667177,83.59231
0.8070574,81.524796
0.7483423,83.49523
0.7197235,78.55155
0.7123799,77.78716
0.7422814,78.32462
0.68787694,78.67753
0.672509,83.24486
0.6044585,75.59667
0.64078903,77.00762
0.5448171,79.682526
0.4589276,79.08421
0.46245545,76.191055
0.51971895,75.08918
0.3612156,76.87982
0.39535138,75.508705
0.44750422,73.047485
0.41735798,71.52177
0.44077644,70.66978
0.29763484,72.61714
0.26740634,73.35449
0.27729023,75.154396
0.40627128,71.719315
0.3451282,66.767166
0.32472986,69.825836
0.31973284,71.84745
0.27249143,69.64633
0.35469505,71.46072
0.36041263,71.64327
0.30710834,70.651985
0.26779428,65.70308
0.22736199,69.773476
0.3522085,68.05825
0.18800828,68.668495
0.18780187,70.1333
0.17705931,69.76536
0.13347101,66.03575
0.075429246,73.26836
0.0835805,67.38943
0.044993464,73.66191
0.0032596616,68.37562
0.0024543842,72.59101
0.01758572,70.13912
-0.11578422,67.18414
-0.059621833,70.64559
-0.009748204,68.40644
-0.048720922,76.57111
-0.014436301,70.53365
0.044261295,71.173546
0.057499416,73.95921
0.21725062,71.8905
0.1662221,76.50744
0.17552303,76.73127
0.37320104,76.315315
0.4404819,75.14687
0.41845918,78.789154
0.5812435,77.013374
0.6664368,79.643715
0.69662434,79.11494
0.80392945,80.33674
0.8449229,82.32296
0.87996465,78.4591
1.0243629,78.88063
1.0899569,83.071
1.1052324,82.33396
1.1651912,80.64945
1.2989566,83.5153
1.220288,85.64335
1.3214494,82.46603
1.278793,86.29298
1.4306827,85.08234
1.3658034,83.79685
1.5807009,89.41367
1.3584143,90.95127
1.5068152,87.24293
1.4050575,89.61532
1.4117713,88.77473
1.44289,90.4889
1.418701,86.892914
1.4192059,89.73421
1.4038182,87.81075
1.4510857,91.077896
1.4288114,90.912445
1.3024026,89.78745
1.4218525,92.17087
1.3698438,94.073235
1.4934644,93.41807
1.4386483,89.00245
1.3205034,91.275826
1.341151,86.64129
1.2850941,87.69652
1.2817119,89.0681
1.2346011,85.44504
1.1520437,86.47205
1.1860088,87.855545
1.1968862,87.1349
1.1896147,88.673004
1.1143545,88.708954
1.0377791,86.066025
1.131745,88.87663
1.1472462,88.1216
1.1546769,83.01935
1.1590565,89.09958
1.1224314,82.532196
1.0129485,80.61404
1.0754942,84.258255
1.0855327,79.7086
1.048019,82.99994
1.1514305,80.01631
1.0684121,81.38571
1.0456656,81.24107
1.0315155,82.164444
1.0771025,79.56422
0.96764886,81.38668
0.9225197,81.13501
0.9198729,81.99413
0.91519064,77.12741
0.828622,78.87478
0.79147905,78.63974
0.8776662,79.36227
0.7643947,79.051094
0.78823686,79.976776
0.70698863,77.05683
0.68659204,78.88788
0.70738757,74.122894
0.6898635,76.17889
0.5942786,75.84162
0.58976537,75.59402
0.6386822,74.9571
0.692209,75.7615
0.5274326,74.38276
0.66993254,72.32893
0.5695756,72.38631
0.62078273,71.032524
0.64994955,74.58591
0.5467408,73.00744
0.58031,71.44765
0.56537,69.31561
0.6064016,72.285576
0.5862563,69.33041
0.5525612,71.1837
0.57703406,68.505875
0.5649759,66.60009
0.5721899,73.49768
0.5072462,68.12992
0.4135246,66.03177
0.40076405,75.56558
0.33543652,68.40525
0.42443243,71.69092
0.36426064,66.93895
0.39732498,68.414665
0.42265508,68.67031
0.23239441,68.08468
0.36426714,68.965546
0.2544201,68.750145
0.21693471,72.51258
0.38938484,72.504074
0.27839294,70.69626
0.31861094,71.00699
0.4494378,73.20532
0.5321866,73.60339
0.5576251,74.39118
0.5714705,73.205894
0.6426219,73.97868
0.7756215,74.1406
0.7365373,76.19044
0.9247513,75.40208
0.97992533,78.983055
1.091802,78.56459
1.0793606,77.5907
1.1557426,78.50862
1.2707206,80.06658
1.3717562,79.62603
1.4165313,82.922325
1.5457008,82.7991
1.5314692,82.552025
1.5789318,82.42925
1.5934757,83.3789
1.6629369,87.152855
1.693307,85.48341
1.721875,87.18292
1.7040218,85.84227
1.7316005,89.219406
1.7385259,89.20505
1.8403661,92.24487
1.8411136,91.91137
1.8377521,88.82728
1.8119742,88.89516
1.783249,89.198265
1.8022316,89.50383
1.8268759,89.10321
1.7465105,91.399155
1.917563,93.23384
1.7096419,88.441055
1.8862969,86.89894
1.7090002,87.82245
1.8092583,89.250244
1.75528,90.77176
1.7357255,89.91799
1.7931299,88.79822
1.6811593,89.99883
1.6576834,87.52392
1.6840829,87.36302
1.5602288,90.20903
1.545241,88.132355
1.5819612,87.67683
1.4970853,84.601616
1.5923998,84.62716
1.5556349,85.5287
1.5413754,85.529686
1.5065893,84.0447
1.3872176,80.92778
1.409478,85.8952
1.4666544,81.97961
1.5174655,83.1249
1.4661008,84.68896
1.4372178,85.09685
1.4295609,83.25052
1.4003401,81.71465
1.3990302,81.56504
1.3919891,81.06168
1.3887352,83.33492
1.4213017,82.70769
1.3563753,82.0179
1.3914878,79.46117
1.25789,80.534676
1.2865653,77.65057
1.2106769,82.74961
1.1388416,80.5722
1.2230366,79.82907
1.2011544,78.43215
1.0735934,79.34646
1.0757887,76.52784
1.0609992,72.76644
1.0773115,73.94191
0.9757846,78.5206
0.8467991,72.40139
0.8959847,72.695366
0.91008323,71.27365
0.89763606,74.15037
0.81419605,74.5014
0.8482032,73.22495
0.8736143,70.45041
0.93665993,72.71147
0.96136284,74.59282
0.894198,67.62305
0.8242178,68.15008
0.96641856,71.160706
0.9340107,73.09958
0.9215165,72.16278
0.9532145,70.62795
0.9913052,66.92169
0.86535627,69.67445
0.87859213,70.214584
0.73557687,70.02433
0.7121794,72.82808
0.7070799,66.25443
0.738093,69.341736
0.7189954,68.35531
0.6535566,70.33997
0.6122978,69.85664
0.50423515,67.28114
0.59332997,69.451775
0.5672935,72.24085
0.564501,71.953926
0.48000783,73.83631
0.5682486,72.6383
0.67159814,72.08231
0.67440486,73.93005
0.676577,71.48788
0.5894726,70.57904
0.6411916,70.90566
0.836733,75.09313
0.863694,76.163574
0.9690466,73.83634
0.93946046,76.99293
1.0909585,76.50704
1.1633228,77.917244
1.2030165,77.36291
1.3581145,83.911446
1.282199,80.70187
1.3822949,82.29502
1.5310378,81.641266
1.4874966,83.71747
1.5693209,81.080894
1.6644162,83.82897
1.6437696,85.93186
1.6333686,84.1034
1.8020966,87.4654
1.8645993,85.75744
1.8192127,85.502785
1.923963,89.16219
1.8597659,91.53553
1.9007924,85.316124
1.8898249,91.446205
2.0449128,86.98217
1.97519,91.74024
1.8593211,85.89188
1.9738672,89.38219
1.9972245,88.859276
2.010132,91.34753
1.9120933,89.77263
2.026561,88.0031
1.8536954,90.43576
1.8735877,90.32936
1.8116843,86.48541
1.8688638,90.59148
1.797273,90.01063
1.7378612,89.213455
1.7648871,93.39311
1.7485301,91.08251
1.730191,85.92214
1.6250974,88.87072
1.6524181,89.18518
1.6578785,89.26092
1.5662683,86.097755
1.5663726,86.16435
1.5600225,88.33124
1.5494001,83.96593
1.5146298,87.666
1.441469,87.602684
1.4475586,81.27054
1.4971306,86.303535
1.4763412,87.08199
1.4129463,87.083176
1.4153167,85.59938
1.3916311,81.71935
1.4377326,84.34647
1.3876308,80.674446
1.3701662,82.43662
1.4677498,82.22456
1.3632417,79.6494
1.2896062,81.29198
1.2722245,83.58849
1.2709104,83.83579
1.2900095,77.6737
1.2262987,79.80384
1.1399484,78.549904
1.1628076,76.486885
1.1296474,78.92076
1.0433557,78.54158
0.9988491,77.06729
0.93432295,78.77573
0.99672204,77.8331
0.84484357,70.7895
0.8404758,75.16992
0.92799926,76.37298
0.78804046,76.23353
0.8248281,72.9567
0.7649447,72.35968
0.7435927,72.03857
0.7969092,72.26098
0.6337802,72.43721
0.7807603,71.612724
0.8128922,70.83059
0.65389,70.55077
0.6946607,72.32062
0.737226,71.840385
0.7500274,70.91267
0.7775429,71.52321
0.6895279,68.66621
0.73581046,69.74146
0.6179044,68.140816
0.6208995,69.01486
0.67224747,68.141205
0.5877733,69.41738
0.49105272,66.499626
0.577861,69.51416
0.42336303,71.75872
0.44943932,69.1684
0.36570626,68.7518
0.44158188,68.12866
0.3723193,71.07581
0.37521607,73.947136
0.36842227,68.97516
0.3524088,69.48955
0.37913108,74.32354
0.23880152,73.12331
0.29786998,71.82643
0.3250028,70.65181
0.30422956,70.67893
0.33454356,70.95332
0.500685,73.980835
0.47881094,76.86791
0.6409736,74.617035
0.76048285,76.192986
0.9150279,74.63564
0.8910491,78.34846
0.98529446,78.142715
1.120234,79.76657
1.1108755,78.14692
1.1051588,78.50564
1.1686758,82.70917
1.2298831,83.12121
1.2695916,84.930984
1.3502786,81.59434
1.4562411,82.691376
1.4637774,88.03468
1.4906721,79.81945
1.4667671,87.29729
1.5074359,87.719086
1.6156684,88.45838
1.5503743,85.95861
1.6309781,86.90421
1.7086366,90.27145
1.5558349,90.767975
1.6516781,89.30909
1.6058152,89.86493
1.6337347,91.14899
1.6069872,87.90888
1.6283317,89.88828
1.6030563,91.641174
1.6205639,91.75291
1.5695064,88.38908
1.5762869,93.60882
1.520317,88.55388
1.4482881,90.716576
1.4991239,90.645256
1.332545,91.217705
1.3898952,90.31034
1.339972,88.264626
1.2987859,88.683716
1.333045,89.76362
1.3324038,86.864105
1.1643429,89.02375
1.211213,87.338554
1.142944,88.08152
1.1179541,87.96356
1.1845069,88.273415
1.106212,84.30085
1.0348607,86.27534
1.1130267,87.399025
1.1362753,83.849815
0.977611,82.1556
1.0466956,84.28043
0.9309882,87.10622
0.9873995,80.65606
1.0615832,82.34358
1.0456815,83.72007
0.917304,78.187386
1.0025051,81.13323
0.97055507,85.88472
0.92764956,80.29843
0.8775428,84.66153
0.8931063,79.33358
0.71829647,81.63882
0.9223964,79.7244
0.76863986,80.29353
0.82098055,77.90345
0.6527417,77.608376
0.6135318,76.98057
0.69149333,76.74304
0.620748,76.39141
0.6564371,77.69971
0.6163684,78.833916
0.5545223,76.909485
0.6556157,76.301
0.46434513,79.40236
0.44244328,77.50149
0.4012501,76.15015
0.36739635,73.47836
0.37740654,74.61917
0.36049792,72.26889
0.46610427,70.246956
0.34919855,70.69188
0.46020558,72.19492
0.2977778,68.275375
0.45998555,68.04909
0.38368118,72.5162
0.31873125,70.06078
0.29662618,66.918564
0.3710414,71.66362
0.3011596,70.38338
0.29450577,70.92992
0.3098276,69.79585
0.21873187,68.9895
0.16954143,66.16501
0.18375243,66.66449
0.09001051,70.84898
0.014415622,69.87303
0.074749716,68.20596
-0.012257664,68.329926
0.045657076,67.37508
-0.019402275,69.127464
-0.02559217,67.79833
-0.106767856,72.057755
-0.008555525,71.96467
0.004292936,74.551735
-0.04047613,74.323135
0.037775807,73.52605
0.08102968,72.32353
0.06967575,73.4403
0.1893704,74.58193
0.22434281,73.608185
0.30036587,74.32054
0.37732527,76.61475
0.48422104,78.99164
0.48366526,79.47834
0.5524787,79.53169
0.57412016,78.12299
0.83471525,79.626335
0.7773231,77.97374
0.83980435,82.74059
1.0621006,78.18059
1.0555869,83.23607
1.0415043,83.18273
1.0830573,84.64337
1.0816604,87.73768
1.2454761,86.96721
1.2116386,87.223045
1.3001082,87.8432
1.2939855,88.683586
1.3263956,87.57849
1.339507,88.833664
1.3249955,86.61616
1.2748455,87.42344
1.4012194,86.61563
1.3907448,88.65779
1.3379772,89.801735
1.4361573,93.800514
1.3635281,90.20381
1.3480954,91.04825
1.3075979,90.98564
1.3563188,89.89431
1.3645184,91.11093
1.3478378,91.283516
1.2038639,91.641106
1.2504604,87.91625
1.2054393,94.00976
1.2360992,92.51885
1.1638471,88.83376
1.1051635,88.83886
1.146897,88.61569
1.0806949,87.83435
1.2109234,89.20811
1.0304513,87.57721
1.0308086,92.17661
1.1157681,83.66417
1.0036825,91.865746
0.98532856,85.38901
0.9788179,84.25798
0.9301842,87.52158
1.0078052,85.82659
0.95897824,87.958824
0.90287346,84.88182
0.8368472,85.18429
0.9343679,87.11407
0.9853532,85.689575
0.9039994,82.11876
0.9348821,81.081276
0.8791642,80.90892
0.8463777,81.790016
0.82360876,76.95482
0.79178613,84.53045
0.85880566,81.93428
0.84080297,83.178185
0.6687208,79.42405
0.7772879,75.54702
0.6964132,81.71801
0.68627816,77.05927
0.64873785,78.44417
0.65481156,80.5426
0.54761213,78.84644
0.56775934,78.75388
0.48957235,76.66193
0.52679867,74.65976
0.45026726,74.179634
0.46029377,74.308846
0.4526029,76.64111
0.43420538,74.26329
0.423983,75.099625
0.4597713,75.92459
0.47059235,71.6356
0.26252452,69.60955
0.40002447,71.15187
0.417915,72.17853
0.39299208,71.31657
0.41466546,69.31921
0.48678824,69.74579
0.44532222,73.31413
0.4051248,66.80376
0.29618564,67.38627
0.4209586,71.59587
0.3829269,70.864
0.29388055,66.65174
0.31917897,71.59952
0.2760299,70.91075
0.21546757,69.32649
0.21121247,70.83521
0.17348827,71.1979
0.14428693,72.686966
0.12741643,72.42764
0.13906391,68.31261
0.15603846,70.09086
0.08326549,71.72161
0.17401406,69.29081
0.09464739,66.34412
0.16290629,70.28751
0.13408339,69.23679
0.24783468,71.37226
0.17692144,68.299545
0.20513326,69.782585
0.3006941,72.88351
0.39248344,74.24215
0.40806124,77.520035
0.47100857,76.633224
0.62121594,76.03772
0.6786463,79.20698
0.7552489,75.62045
0.7108709,78.341255
0.8630848,76.959
0.9611048,78.59398
1.060412,83.019196
1.1951269,81.92088
1.1547356,82.08635
1.3143259,88.664474
1.3858185,87.170685
1.3611029,79.55161
1.3702315,84.84524
1.5050986,87.24411
1.5241226,85.4721
1.7127324,85.59967
1.4329352,85.972145
1.4313332,86.052574
1.6385645,86.2055
1.5580642,90.987625
1.5922523,88.83422
1.6413397,90.26294
1.7000334,87.71627
1.6102972,92.01221
1.5850015,89.233345
1.6613528,91.260185
1.6440012,89.80058
1.6282045,89.49603
1.5729061,87.5928
1.5729446,87.82529
1.4489907,89.49279
1.5381901,91.354195
1.5084999,89.379585
1.5776825,89.72841
1.4708893,87.37375
1.5181702,90.22947
1.4628165,87.24417
1.4104178,87.458755
1.4329715,91.26406
1.4242009,89.04793
1.3510518,86.466446
1.3941418,85.36104
1.3261042,88.98471
1.3849293,84.01776
1.3241421,85.13934
1.2677336,82.13418
1.343795,83.44511
1.3272334,84.72388
1.2248887,84.17989
1.2307856,85.95792
1.271538,84.64025
1.3201468,83.65677
1.2398528,84.0823
1.3165437,80.77634
1.1686479,86.99141
1.2570487,79.62398
1.2935044,82.78148
1.2504109,80.86164
1.1379691,79.643814
1.2869518,75.79373
1.1243937,79.493576
1.0602349,79.84656
1.1580013,76.08443
0.9943919,79.13391
1.076324,82.82087
0.92054623,75.13568
0.92256564,77.16213
0.89154506,75.841606
0.90610504,78.64041
0.8049368,78.35058
0.82736874,76.291
0.7832455,76.745
0.7970025,74.81178
0.805703,75.68033
0.6916429,74.989944
0.8469052,69.880104
0.77084327,73.29182
0.8337547,71.37145
0.7451771,72.58406
0.8078671,72.45878
0.79230803,71.47882
0.73362815,71.52115
0.8011412,71.83816
0.8260918,69.12781
0.7684964,72.906555
0.7694785,70.14547
0.68600243,70.878746
0.7920708,70.1018
0.6828152,73.429535
0.7146859,71.38766
0.70014995,71.55677
0.66911167,71.82578
0.6269855,68.82776
0.6036727,70.6817
0.5273276,67.893745
0.51456034,67.85245
0.57492757,68.16647
0.50832397,68.284996
0.4401357,69.55659
0.46425968,69.17767
0.47525468,70.129265
0.4608438,69.56361
0.49994272,72.57401
0.581226,72.19185
0.4929695,68.152
0.68161196,73.3762
0.6340527,75.30177
0.6945498,75.40398
0.7619473,74.63821
0.88340473,75.862175
0.9735963,74.844284
0.9951042,78.65828
1.0548093,76.57289
1.1707555,78.53657
1.1463509,82.33004
1.2847922,80.70037
1.331687,77.51027
1.4671597,82.18881
1.5569429,78.60474
1.614127,82.01653
1.6322914,82.82722
1.6652881,85.68702
1.7336595,84.77913
1.8056997,87.61998
1.7789335,84.49371
1.8106648,84.07558
1.8379459,85.24367
1.7906538,88.26698
1.8175882,88.28699
1.8523058,86.559235
1.9324709,88.52607
2.023883,88.76554
2.0021605,90.90082
1.9727855,84.99201
1.9432466,90.0259
2.0456877,89.10491
1.899516,93.22225
1.9222914,86.5871
2.01752,88.29846
1.8761334,94.6607
1.8310465,91.637924
1.8842342,90.08921
1.8508757,88.499794
1.858765,91.06144
1.8399197,86.17991
1.8071576,85.56023
1.6824839,88.16262
1.7120429,90.71809
1.6853315,89.125984
1.6278343,89.06681
1.6906154,86.70271
1.5620152,87.854256
1.6759226,85.97642
1.6016381,82.53327
1.6099437,85.31194
1.6129007,88.708534
1.5846772,85.16262
1.5741936,83.3686
1.6418734,85.18205
1.4929334,81.524704
1.5406784,85.6384
1.5120409,78.33465
1.4728274,85.979904
1.4649471,83.90846
1.4488466,80.17746
1.4394449,83.48345
1.4679298,81.40392
1.4343883,85.90289
1.3100866,77.86391
1.2995524,77.54051
1.3799075,78.62221
1.2662052,78.73449
1.2488261,79.89738
1.2983031,83.404076
1.180062,77.15727
1.1476634,75.51191
1.1713915,77.47715
1.0643677,74.336205
1.0679177,75.62291
1.071964,70.90125
0.97301096,76.23869
0.9813011,74.6211
1.023597,77.20239
1.0097167,72.92467
0.9882102,76.87972
0.9181848,72.64132
0.8610764,72.27075
0.87368965,71.3689
0.9474111,70.350494
0.94137853,73.32939
0.90454704,68.95018
0.8730724,70.66587
0.9514881,68.57436
0.84353083,74.86941
0.830544,72.38584
0.82557976,68.43395
0.863082,68.842155
0.9121774,69.54678
0.8526482,69.477974
0.7860093,67.95195
0.7663645,67.43037
0.6554764,66.89485
0.7096606,67.57599
0.64289826,66.29423
0.602776,68.74914
0.5845691,68.81623
0.557607,66.66587
0.5583069,67.961655
0.45495498,70.33137
0.37926567,67.98872
0.3919571,70.19392
0.44246215,68.789215
0.42754236,70.81286
0.5230781,74.71983
0.5304283,72.15557
0.55773675,70.71466
0.699589,74.43022
0.64830667,75.97734
0.72424304,76.42245
0.6801533,72.53695
0.8977798,74.54251
0.97600484,78.0086
1.0341365,74.78693
1.1875231,78.18094
1.1662346,76.44137
1.2938154,81.66252
1.3557004,77.37637
1.3926669,81.94143
1.4766486,81.12347
1.549243,83.79684
1.5431032,83.2496
1.5788224,80.785324
1.7121235,85.2045
1.6889977,83.889206
1.698432,86.677055
1.7415105,86.34036
1.7687311,87.407585
1.7558357,87.331154
1.8441951,89.23991
1.8307755,85.46457
1.8568407,88.456696
1.8256955,89.429115
1.8232082,89.23016
1.911978,88.730095
1.8361807,89.01295
1.8619994,85.86846
1.712141,89.33043
1.7964789,89.54362
1.767803,89.09175
1.7043481,93.88827
1.7692266,89.40636
1.6031715,91.8176
1.7236297,90.24383
1.6052194,89.53722
1.6537035,90.62894
1.5480436,91.74402
1.5211164,88.155945
1.5231366,89.96434
1.4410659,86.98056
1.4531139,87.766464
1.4499788,82.99301
1.3746641,85.14223
1.3831582,87.77402
1.3939531,88.10076
1.4106532,85.9343
1.2973017,82.614784
1.2820023,85.84395
1.2675682,84.03848
1.1552551,83.81259
1.2646405,85.255325
1.3031887,84.00359
1.2405199,81.25578
1.2545273,82.14603
1.2067869,81.13044
1.1252662,78.88377
1.1858281,82.572044
1.2161983,77.90519
1.1574315,79.85739
1.161145,81.541336
1.1671112,82.31024
1.0710317,79.72644
1.1111465,82.026344
1.0639254,76.79605
0.9947621,78.42999
0.8543221,78.985
0.9975929,76.77123
0.8224436,80.46452
0.8485153,77.55762
0.8235872,77.05957
0.64910895,76.08868
0.69287,74.52384
0.62070954,73.65163
0.69873446,74.82748
0.6919636,71.4107
0.55633956,74.26575
0.5656226,76.33428
0.59845626,74.36217
0.574967,71.46784
0.5862918,71.54719
0.50890005,74.87977
0.6485731,73.02267
0.629466,71.42286
0.62978417,70.63933
0.6413377,72.54176
0.58104813,72.25029
0.53344077,70.25598
0.5134983,69.05776
0.51215047,71.23607
0.4018017,67.87463
0.42574447,68.76268
0.389315,67.36372
0.26540715,68.25124
0.34724897,68.14146
0.3965756,69.07914
0.27369267,71.510445
0.1867945,67.868355
0.15384118,70.5109
0.15587327,69.510994
0.12344711,69.9976
0.12915915,73.292534
0.11031796,71.112335
0.019959843,71.80011
0.1463529,67.28319
0.18809818,72.35791
0.19751316,72.60647
0.13779637,72.05242
0.27032486,72.62746
0.2734787,76.41574
0.2910164,80.43126
0.32754686,76.49822
0.45431805,77.85918
0.5667294,75.62532
0.66234326,78.327545
0.7004905,78.23069
0.7791467,79.390236
0.84344417,83.61607
0.8221337,80.545685
0.9275971,81.87637
1.05404,81.74921
1.1273915,80.83045
1.2194993,81.37689
1.1909993,82.13016
1.34496,83.65531
1.2861273,82.163055
1.2722619,84.42855
1.3372526,90.904274
1.337054,86.23604
1.3785744,92.48235
1.3895416,87.20021
1.3853482,88.4778
1.4319193,85.276596
1.4133137,92.668884
1.3806167,85.83766
1.4448633,86.36386
1.4677941,88.919525
1.4372004,89.91681
1.513507,89.62668
1.4091703,91.232086
1.3943694,87.72621
1.4140978,90.97521
1.3571365,90.88113
1.4068701,91.356606
1.2372274,89.44686
1.2464162,88.23197
1.154998,86.79297
1.2617137,89.35704
1.2502158,89.160225
1.1772196,89.42032
1.1870432,85.93879
1.0998373,85.88407
1.056518,88.706604
1.1134437,89.51694
1.0725021,86.47216
1.0787667,87.140656
0.9240271,86.63273
1.0263032,84.13766
1.0748404,80.90561
0.96577257,83.76314
0.97781473,86.00287
0.99653727,81.29647
0.8640473,81.733604
0.91999316,86.10386
0.93785644,84.05409
0.88425076,83.308365
0.9196669,84.65602
0.8351368,82.816
0.9516157,79.16323
0.88053674,79.95029
0.85548365,79.64707
0.8027681,81.96703
0.7329658,78.94754
0.75798726,78.71283
0.7097653,76.45517
0.6872173,79.18761
0.5817555,77.9835
0.6436229,77.937996
0.5974012,77.62385
0.5226472,79.24119
0.5065933,78.49441
0.49651384,78.35566
0.5003418,75.666275
0.47469988,70.694275
0.38322482,73.862236
0.42127383,74.09992
0.37805986,74.36229
0.40020877,73.27063
0.3444449,73.599594
0.44585457,75.14659
0.3814482,72.02364
0.35556942,70.91647
0.32879522,69.85549
0.3146087,70.33927
0.29062775,72.1741
0.31815228,71.269165
0.32983652,66.81891
0.317895,71.72527
0.28978094,65.92329
0.32680187,73.31961
0.19828625,69.44753
0.27774376,68.50113
0.21333846,71.28041
0.21715851,70.73676
0.13816276,66.892555
0.11815368,69.89393
0.037416272,71.146614
0.0752166,70.85752
0.06958964,70.570175
-0.06287553,69.915016
0.06302725,69.28864
0.009796171,69.89122
-0.03773436,67.393
-0.009881992,75.30574
-0.071224175,70.59117
-0.008866055,67.405365
0.065354235,73.20913
0.13416357,74.7337
-0.031677816,73.593506
0.13927108,75.098015
0.23767939,75.376816
0.25590336,77.19924
0.28291273,74.77853
0.49623403,76.15072
0.403506,78.39886
0.52564985,77.20507
0.6397016,81.326416
0.6508999,80.04057
0.8506742,79.56549
0.8345755,80.95876
0.9502314,80.559074
0.9440624,81.03621
1.116817,86.58791
1.1822596,88.33512
1.15076,86.01651
1.2274859,87.86083
1.319094,82.6302
1.315506,82.72865
1.3258519,89.94456
1.4322237,90.28885
1.3969467,85.48462
1.3092489,90.65951
1.396404,85.88607
1.4221015,86.53073
1.4829818,87.176796
1.4200262,86.11182
1.473341,90.04896
1.4785464,88.957466
1.423957,91.24939
1.4101399,88.16239
1.4278896,86.45905
1.3358846,94.15599
1.4049524,90.46937
1.4358335,90.45417
1.4055951,91.53076
1.3709897,93.12424
1.3191339,89.35443
1.4088975,88.56765
1.3743837,90.45217
1.2942705,87.75597
1.2563808,87.16026
1.196617,88.18521
1.2183484,88.105865
1.1808531,88.57694
1.2844223,88.58442
1.1251638,86.875404
1.0492563,88.739456
1.1242735,86.70759
1.1071885,84.77267
1.0181552,84.07262
1.0319178,90.54644
1.0376527,84.36104
1.174355,84.016266
1.0586629,82.86622
1.0258976,86.41962
1.0196605,85.10217
1.0584913,78.777626
1.0064085,81.331345
1.054522,83.06323
1.0336736,81.51911
1.0322608,80.16589
0.98954076,78.56353
0.9669723,78.51946
0.8504412,78.23062
0.8298165,78.92126
0.8332975,78.00062
0.82734364,78.82209
0.7528063,77.13144
0.78606427,76.804665
0.6754677,81.44833
0.64641404,76.39414
0.68998283,79.287674
0.7190947,76.97156
0.6359145,77.25825
0.61397535,74.73057
0.5829522,77.37826
0.5609133,71.28201
0.6019747,78.324524
0.56451464,72.218376
0.5340228,72.14576
0.5177983,75.417015
0.5526017,73.988815
0.5893677,70.97447
0.6442892,70.5396
0.6042946,70.599
0.6162927,72.429726
0.50843793,73.71722
0.6411108,72.388664
0.5365467,70.90132
0.5411254,66.4376
0.62402505,72.25392
0.56186646,70.969986
0.5298944,68.842476
0.4901608,69.45915
0.4737495,69.511345
0.49923232,69.27872
0.37697822,68.40794
0.3187774,70.20413
0.41115686,66.51708
0.27935225,68.7393
0.24774802,70.794685
0.31712615,74.73157
0.23337667,69.79544
0.31541887,68.165115
0.32376644,74.870186
0.29019234,73.63561
0.43233538,72.06953
0.2877627,70.53192
0.44078568,75.6704
0.51633376,73.46913
0.47988603,75.602165
0.569798,74.503105
0.617565,72.40205
0.8076538,75.94167
0.780994,76.41863
0.8006212,80.346115
0.9545652,76.158905
1.0497465,74.807396
1.1300725,81.38911
1.2498461,77.7603
1.2427276,79.28382
1.4153109,84.01084
1.369631,80.23609
1.4479291,79.256485
1.5255811,88.39565
1.5315427,85.62739
1.7280816,84.738014
1.642422,86.82726
1.6457176,87.04121
1.6607854,88.89812
1.8242334,91.36892
1.7271775,86.64717
1.7977192,91.53266
1.8129389,87.222046
1.7942094,86.57081
1.8307294,90.946266
1.8267335,90.50608
1.7633002,88.46004
1.832734,93.00915
1.8531591,89.26334
1.8160938,91.06533
1.853348,93.78262
1.7247419,91.00436
1.8228021,89.4429
1.7934662,90.457016
1.7062562,88.71028
1.6665779,89.54147
1.6982671,88.90898
1.666123,90.33358
1.7457492,90.02427
1.6773154,87.24723
1.5823855,90.25928
1.5051205,90.14751
1.552438,89.423355
1.5992161,85.538216
1.4974891,86.606285
1.483878,87.99671
1.5490772,85.895676
1.3936293,83.43574
1.4177669,83.765434
1.2942773,86.43266
1.4640373,86.12406
1.4184546,82.33505
1.5241636,85.83954
1.4148302,82.73864
1.4345663,85.04065
1.4894865,85.672226
1.3920432,83.69291
1.3021212,83.08014
1.3975803,81.321846
1.3561339,78.54624
1.3995891,82.89347
1.2986823,78.87937
1.3846607,80.65278
1.3157347,84.33197
1.1741732,78.531906
1.2090526,76.95105
1.221074,75.13969
1.2138069,75.76747
1.0662413,75.10291
1.081886,78.57618
1.0982832,72.67242
1.0981499,77.78194
1.0028934,74.50168
0.936189,75.517044
1.0485653,77.024025
0.9248902,74.303734
0.9146418,75.01394
0.9314712,77.38318
0.94016784,74.4227
0.8764827,72.19933
0.8591044,71.51566
0.83436847,73.111336
0.8976649,66.01246
0.9189818,72.28651
0.8995569,71.387405
0.95075065,70.059326
0.8692467,70.788055
0.85414964,69.80234
0.8083522,71.910065
0.7762738,71.46653
0.8062375,66.90915
0.7297962,64.653275
0.6973334,66.35294
0.8407136,67.23027
0.7038974,70.472084
0.7522644,71.47494
0.6385555,69.6481
0.55565363,67.15345
0.6058305,67.48739
0.61937326,71.6845
0.61709666,68.493965
0.5471403,71.177246
0.48065016,70.06586
0.45916095,68.834335
0.4854626,72.70705
0.56588537,71.472565
0.58693683,72.15045
0.5917476,72.18669
0.8110893,73.95533
0.80442923,74.857735
0.80982935,77.35463
0.86951536,73.700424
0.9126856,74.7041
1.0602889,74.905914
1.1459081,76.681755
1.1305689,78.1334
1.3247389,77.40511
1.3307443,76.3921
1.4366394,83.407745
1.5285825,82.75103
1.4899821,85.81155
1.5945828,81.812744
1.7111704,85.02419
1.7725592,84.49904
1.7363871,87.06976
1.8074858,87.21389
1.7776284,83.986984
1.9349644,87.067726
1.9336857,87.738144
1.8078601,87.06126
1.8560976,88.41668
1.9192402,89.71333
1.9386598,88.946815
1.932563,82.87022
1.9466388,87.65027
1.91212,93.571625
1.9631708,89.78146
1.9499404,90.47455
1.9566168,89.58426
1.8884372,90.34774
1.9263893,91.165215
1.8529987,93.798294
1.8554616,90.007675
1.8798797,90.559006
1.8841,92.15002
1.7818573,89.44824
1.8132095,89.712326
1.7441298,90.15187
1.7651383,84.57387
1.7175905,91.854225
1.7385819,87.921844
1.6996979,89.00783
1.5926745,88.35767
1.5529952,86.73921
1.4854568,88.065216
1.5101833,86.29453
1.4657024,85.100204
1.4924515,82.33827
1.5938516,84.28104
1.5164787,84.9557
1.4445372,84.02168
1.4523827,81.495636
1.4424242,84.06998
1.4054843,82.23783
1.3527272,81.72305
1.4382076,80.707054
1.3564253,82.059814
1.4224149,82.85794
1.3486019,84.21051
1.4272727,82.01872
1.3486221,79.80953
1.2548475,81.352394
1.2283494,81.82573
1.215921,78.668655
1.2881494,81.96755
1.1314743,75.2637
1.1383331,79.94443
1.1098139,74.746025
1.1417589,73.75075
1.0509218,80.43776
1.0398617,76.0869
0.94884807,79.59892
0.93551844,78.88959
0.915881,76.56089
0.9820725,72.43372
0.86901486,72.05792
0.83584195,72.13758
0.85131943,73.413155
0.7517408,70.467896
0.79973996,73.50154
0.7931398,73.70878
0.78707457,71.45016
0.75598496,71.7713
0.7002936,68.16218
0.8175633,67.52177
0.78555685,68.9729
0.68527275,67.61581
0.69280624,69.28104
0.7276895,72.06666
0.75974876,68.43965
0.60424256,67.91082
0.6285607,69.1503
0.57199603,68.34886
0.59452885,69.048996
0.5490902,71.6388
0.49851817,70.60487
0.48590505,71.53335
0.42015436,71.17763
0.38072982,63.36108
0.33217198,68.472084
0.32832262,69.42018
0.3081078,68.93715
0.35538235,69.2536
0.33695883,71.70581
0.37471583,68.14536
0.26018393,75.106346
0.3487468,72.98633
0.41489246,71.161064
0.417726,76.05526
0.50158614,77.77338
0.5351927,74.36744
0.7045538,74.57242
0.71880287,77.31665
0.7426151,79.36851
0.8296395,76.44751
0.85692984,78.4742
0.89326453,74.61018
1.0664688,78.36994
1.0526129,78.57086
1.1963258,83.68324
1.2672889,82.1486
1.3352882,83.860794
1.4628174,83.14359
1.4180799,85.001144
1.4224038,84.72413
1.516754,84.341736
1.511285,82.553474
1.6665992,83.240944
1.4551481,89.14694
1.552192,86.81161
1.5904665,88.22782
1.6294557,88.33879
1.543159,85.31254
1.6429644,90.12266
1.6238956,88.06295
1.6884595,88.752
1.6465038,89.117744
1.6395394,88.70218
1.6596836,88.81986
1.6177989,87.18084
1.6154382,90.15026
1.5578804,91.39625
1.5878317,91.22571
1.5204382,85.02187
1.4912665,85.25994
1.4355206,88.483734
1.4803188,86.04962
1.4453013,88.72883
1.3625089,86.61795
1.3197036,87.22819
1.3592147,87.10418
1.2996467,91.83457
1.2682762,85.05889
1.202727,83.86898
1.1936532,86.21478
1.186185,84.47605
1.23477,86.06366
1.1878638,86.469055
1.1860917,85.08807
1.1390371,84.60394
1.1822944,84.96085
1.0771363,82.65973
1.0256445,85.007324
1.0949795,85.88957
1.1233102,85.5709
1.0651251,82.592575
1.0926912,80.05955
1.0651425,80.401215
1.0766932,80.36203
0.9500134,79.06335
0.8999742,81.95939
0.9976905,81.68096
0.9063364,77.53486
0.8496959,78.89098
0.94545794,77.31891
0.8845523,80.224525
0.84784603,80.034904
0.7306356,81.00444
0.65745157,81.00219
0.68044615,75.22116
0.57557243,78.84478
0.56978893,80.74489
0.6152406,73.30726
0.51402205,73.81735
0.48923093,75.02422
0.46024737,73.775444
0.3718115,73.60915
0.42067152,75.89815
0.41596368,71.47703
0.3324403,73.0863
0.33643255,72.919556
0.43606368,76.7175
0.3842175,72.896996
0.40445364,68.8696
0.3700122,72.52532
0.39578146,70.0532
0.41299266,71.708626
0.4330404,69.0537
0.3593388,69.04777
0.35077628,68.80103
0.35260752,71.54457
0.22006427,69.5095
0.29460493,65.83779
0.21314968,70.25927
0.20929258,69.74205
0.17372736,72.0545
-0.0635175,71.57323
0.1703775,69.95983
0.08275995,69.28065
-0.042703707,66.6361
-0.034354765,68.84156
0.03878813,68.26666
0.028617924,70.20784
-0.03497908,67.39258
0.08047379,67.86388
0.021453567,72.2166
-0.090016834,72.38937
0.041697476,73.12479
0.05099656,73.48767
0.20055583,72.00992
0.24570519,72.25254
0.2389914,75.624695
0.4280936,75.58491
0.3790309,75.36514
0.536511,77.29875
0.53373563,74.60368
0.58613396,77.80137
0.7627263,77.7135
0.7112169,77.137856
0.80991256,81.450356
0.94508356,82.406
0.9702522,80.35022
0.9934147,83.498276
0.99854165,84.28819
1.0749207,85.59235
1.1939049,84.846176
1.174136,89.99341
1.2367742,88.26746
1.2400113,87.89025
1.3522856,87.96075
1.2525407,88.89411
1.4495317,88.72498
1.3800458,89.376076
1.2607957,84.38052
1.2780386,91.84105
1.4210705,86.85224
1.4397256,89.911194
1.2944422,88.861534
1.3582556,90.42909
1.3688904,87.34434
1.3474131,90.666245
1.3692409,90.070816
1.2209285,90.917435
1.3072007,86.966156
1.2300886,88.70757
1.2728566,89.52996
1.1618539,89.661575
1.2414513,87.1502
1.2232549,87.779465
1.0613195,89.41125
1.1444588,90.28696
1.0515102,84.5683
1.1091877,87.20226
0.98038805,87.50602
0.9862981,87.402275
1.0477761,88.21009
0.9766746,83.34471
1.0027971,86.729034
0.9089604,82.59604
0.98119897,88.45018
0.93661094,87.33311
0.94461673,83.36041
0.96027666,86.85285
0.8332961,86.209526
0.8675482,84.70865
0.9789889,79.23788
0.8783662,83.68428
0.8827302,80.86131
0.8968268,82.510544
0.83881974,81.7717
0.90435874,81.58161
0.8477611,80.23868
0.7911233,83.535355
0.7287039,77.91208
0.708929,79.27347
0.77178764,78.963295
0.7599156,79.62939
0.63727885,79.61044
0.6423183,75.41642
0.6551715,77.98873
0.5858888,78.2571
0.5347055,76.43006
0.46077234,75.16121
0.45686454,76.22803
0.47856206,75.68214
0.41267022,73.52044
0.41494724,76.748276
0.40662038,71.66262
0.42689595,71.77399
0.4314321,72.55298
0.47076145,74.05092
0.37333217,78.07124
0.35883144,69.95146
0.44730243,73.455666
0.43465602,71.4321
0.31922182,74.89077
0.36078188,68.879295
0.36801773,67.85389
0.3796425,70.4638
0.42272416,65.98119
0.25651112,67.87364
0.31484276,72.34673
0.3524477,68.332634
0.37749532,68.69039
0.23267764,69.47337
0.18809019,68.55317
0.19464178,71.64114
0.14757958,71.188644
0.14217572,70.9174
0.059825264,66.79574
0.09930078,68.64404
0.046893265,73.34149
0.09543925,71.01348
0.05989598,69.83892
0.018522564,70.90199
0.07616248,71.70622
0.21682931,70.61544
0.13357875,73.934616
0.1805189,73.37495
0.28362048,72.18127
0.27697062,74.936516
0.314822,71.731926
0.43362054,77.72278
0.48398557,77.43481
0.6276622,74.87693
0.66110384,79.86084
0.7935042,76.76368
0.87341315,79.93498
0.85379624,80.39602
1.0515169,79.7621
1.0085502,84.60869
1.0761656,82.09222
1.3139193,85.47107
1.236647,82.86422
1.2605402,87.0747
1.353098,88.579575
1.4196454,87.158714
1.4588523,84.24528
1.4777175,85.63219
1.4475995,86.74737
1.557482,86.70509
1.6201802,91.2747
1.597967,88.81264
1.6082612,88.90228
1.6150947,86.13167
1.6140698,85.659325
1.6693928,90.72532
1.5794034,90.995895
1.6584945,95.06874
1.6064836,89.33173
1.5740982,92.01701
1.6108319,89.3474
1.5434769,91.64291
1.5410873,91.06465
1.5176258,89.99697
1.5689868,89.04766
1.5454326,90.922676
1.4545296,89.71925
1.4672307,88.613785
1.3747784,86.748405
1.4246044,89.31824
1.3739524,86.71442
1.3773783,87.06243
1.2970061,85.0815
1.3903247,89.15
1.2338055,84.7845
1.2473427,87.52979
1.2495894,84.51778
1.2452769,86.80807
1.2910336,84.9695
1.233466,87.89274
1.1831231,86.61761
1.2670571,83.285645
1.3222611,85.09481
1.2348226,80.64048
1.2056445,83.16645
1.1449927,85.40929
1.1703069,79.86366
1.2481999,80.46594
1.124387,81.76318
1.2590172,78.84502
1.1760063,79.49831
1.2019945,81.83105
1.0165193,81.050735
1.1082028,78.589264
1.1505225,80.14161
1.1622958,77.67362
0.961637,77.40833
0.88863355,76.8774
0.923684,76.70617
0.81632626,73.42943
0.8134867,74.41488
0.9529735,74.08985
0.85964286,74.64216
0.82326764,74.82387
0.8502851,76.5126
0.8018535,73.87303
0.7880245,73.69754
0.77088904,72.50524
0.6931731,76.14362
0.65302664,76.59528
0.79947424,74.733
0.7300836,73.13901
0.7394542,72.14992
0.7914402,72.732414
0.81911683,72.03071
0.75485337,70.930954
0.78544855,70.119804
0.7146803,67.98188
0.7767629,68.82305
0.72837794,70.54038
0.7630684,71.18179
0.62640715,68.96216
0.66790324,73.21203
0.74103993,66.397255
0.58531356,70.19441
0.50048476,67.99492
0.4953763,65.37071
0.4183573,71.944084
0.5031578,68.06921
0.4375694,68.15848
0.41598424,71.95673
0.42386723,66.92038
0.50142264,70.48647
0.40457037,70.954346
0.40813705,68.8782
0.5611642,73.00155
0.6009242,71.61111
0.6535578,74.30223
0.5656659,74.916565
0.6356225,71.399445
0.7525216,76.09564
0.6590939,75.2255
0.85943437,70.99619
0.9057829,77.32793
0.9731238,77.4359
1.1679819,75.827934
1.1459204,76.19499
1.2587185,77.72679
1.3870105,78.54017
1.5611156,78.62194
1.4662817,84.00416
1.5689433,80.35599
1.6748446,85.97251
1.616098,84.67484
1.6916256,85.27177
1.7610357,86.09967
1.7164375,84.884964
1.8056749,89.24465
1.8333443,84.51319
1.8166558,90.17859
1.8468124,88.2336
1.8616229,90.02213
1.9209951,89.055435
1.9307964,88.38556
1.8587894,89.20766
2.0032601,90.0679
1.8505137,88.50876
2.0019681,87.233
2.0056841,91.19212
1.921059,87.007996
1.9161321,88.38717
1.9499149,90.2134
1.8162471,92.52136
1.8907433,89.448616
1.8794746,87.2722
1.8136963,92.31336
1.7910922,87.95434
1.8096197,89.04945
1.7569258,91.77034
1.7875454,87.7331
1.722759,88.084404
1.7705787,88.43999
1.7056383,86.91154
1.6666139,85.75959
1.6684152,89.607994
1.5836957,86.37956
1.6132879,84.97147
1.5805562,88.564224
1.6701444,86.39906
1.540667,84.23626
1.5935953,81.638176
1.4304861,83.7054
1.4949695,86.25143
1.5488917,88.59574
1.414374,84.209305
1.5118667,86.331985
1.4603307,78.28681
1.4806123,80.6586
1.4460535,79.80971
1.3827703,81.386
1.3487004,81.481926
1.421495,77.50984
1.4642885,83.29047
1.2984078,78.638985
1.2674044,78.42386
1.2333791,78.317856
1.2951577,81.49699
1.1894966,78.94818
1.0924479,79.52004
1.1861556,73.27532
1.1519681,80.34518
1.139374,77.135925
1.0492989,78.06225
1.0951395,73.09284
1.0104014,73.70002
1.0111516,77.985115
0.9390038,73.42979
0.8987633,73.378716
0.9841292,73.2911
0.90554744,73.7014
0.92033947,73.72802
1.0032164,69.353676
0.98138916,68.92453
0.93753344,72.175995
0.9179059,66.78724
0.8653034,70.11893
0.83155084,67.08479
0.9186458,71.87685
0.86075085,67.30922
0.9186324,69.51474
0.84385574,71.36559
0.8485786,71.71273
0.7450407,67.90817
0.68789035,69.623245
0.6539371,71.35106
0.74546367,69.46249
0.63237005,68.652115
0.5996223,72.76743
0.611078,69.580376
0.59276265,69.792496
0.5183973,68.85148
0.56972057,72.3736
0.56354505,69.580925
0.46420842,71.65684
0.5138764,73.64681
0.45357415,72.57903
0.5724024,69.27002
0.49944052,72.65235
0.71349174,74.72074
0.7388724,77.406975
0.7910324,78.40921
0.7277,75.86701
0.87613827,73.33263
0.8895468,76.792175
0.96330416,74.081955
1.0635278,75.42073
1.1467074,76.756744
1.1585793,80.03857
1.2622974,78.88515
1.4306059,80.752014
1.4390996,83.893364
1.4496684,81.57151
1.5389638,80.983765
1.565446,85.33698
1.557792,83.67124
1.6940196,85.42635
1.7222476,82.20337
1.694827,81.55266
1.7602565,86.66018
1.7611064,87.38768
1.7968993,85.67476
1.8760707,86.455246
1.8917497,87.207634
1.797677,90.53343
1.7990125,89.55652
1.8648309,91.734436
1.8756236,89.69906
1.9127636,89.10133
1.8775883,90.18883
1.8226525,92.78193
1.8162484,89.8645
1.8240786,88.40199
1.7418171,88.969604
1.6799489,86.49074
1.7340132,89.09895
1.7146778,90.85839
1.7186239,89.63674
1.7276905,85.33134
1.6351008,89.37049
1.5954626,88.44197
1.6466644,89.8731
1.6199397,90.09933
1.505513,91.59748
1.4908245,87.742065
1.4920533,85.453354
1.3551775,85.64295
1.4344485,89.689476
1.4093592,86.3015
1.3136721,85.93292
1.299514,84.93619
1.2527872,83.510475
1.3573766,87.32762
1.2493273,80.50314
1.3804678,85.15086
1.2821938,86.53526
1.2554296,84.85472
1.2385948,80.95638
1.2242116,81.38043
1.1335734,83.63767
1.2321575,82.13008
1.2466195,81.92528
1.1938136,81.27011
1.0855073,81.3628
1.1409113,79.07087
1.0828313,79.239334
1.0790776,76.97857
0.9614733,75.35913
1.0585384,79.02538
0.9021241,78.17248
0.92025477,81.15398
0.8061683,78.57064
0.7472285,78.52852
0.78361756,75.1899
0.65194416,77.44506
0.7287825,74.28196
0.74512213,73.02536
0.6761423,76.23012
0.64360714,74.87288
0.6770745,72.21747
0.6627229,69.49749
0.56420404,74.13228
0.641058,71.87741
0.6105524,72.40028
0.7009648,72.759476
0.5233661,71.279335
0.5822974,71.75484
0.53694236,72.41132
0.5313368,69.93571
0.46632254,69.836975
0.59924304,70.95547
0.43643248,65.491325
0.60366803,65.83777
0.48762414,72.488495
0.43409774,71.10774
0.45644423,69.8302
0.4015828,69.87479
0.29692245,67.554794
0.27736312,65.822945
0.286838,68.381325
0.20682983,71.53498
0.12797587,70.17505
0.120228134,73.70697
0.17162777,71.6054
0.023810867,66.91565
0.121799216,73.32729
0.12581569,70.29057
0.12935849,72.02008
0.2000657,71.58036
0.22360487,74.4779
0.3308321,76.36104
0.39756113,72.62044
0.4027726,75.404594
0.4930759,74.06719
0.56403697,74.66868
0.6495755,77.82893
0.65249497,82.4573
0.7823952,80.304924
0.7970764,82.61431
0.9541533,79.34784
0.9821495,77.498024
1.0032948,80.04129
1.1228728,82.14294
1.203636,79.56694
1.2229029,82.05574
1.2124693,81.51929
1.3247764,85.157036
1.2884506,83.05177
1.2989969,87.83859
1.3696257,88.176735
1.4901606,87.61095
1.4527196,87.10864
1.4120535,87.348915
1.3808454,90.79829
1.4712487,86.0472
1.4366244,91.35465
1.3797493,88.56905
1.4733126,93.742676
1.441396,88.47314
1.4829797,86.948555
1.4644145,91.036514
1.4817328,90.098335
1.3602561,86.62528
1.3668648,90.496086
1.3018638,87.12772
1.2905072,91.90691
1.3927517,86.49619
1.3366457,89.408905
1.2759684,89.87302
1.2573843,90.06591
1.2649996,87.775444
1.1417844,91.51644
1.1584704,85.15584
1.1686748,89.3509
1.0697666,88.90044
1.1114831,88.40054
0.97559863,88.74771
1.0547545,89.40367
1.1179845,86.76706
0.8812216,85.655205
0.9678088,86.586876
0.9687923,83.62422
0.99117327,83.82069
0.93867254,82.963875
0.8776173,84.41809
0.8842138,83.13711
0.9166727,83.68321
1.0361385,79.30377
0.8677206,80.204636
0.8902169,83.54154
0.87191826,79.72481
0.83714896,77.74769
0.84863764,77.445816
0.7593329,81.01991
0.7767699,80.13868
0.7225243,80.84354
0.7233179,80.17016
0.671205,76.506676
0.65075815,76.71817
0.59645665,81.56434
0.5512707,75.57177
0.5593665,80.14917
0.50624126,74.63586
0.46018544,77.31897
0.46356928,77.16354
0.35049453,77.04191
0.41942653,74.520226
0.5071506,77.42649
0.40416214,76.9799
0.27710444,74.28311
0.32357758,73.57105
0.2952179,73.966385
0.2712638,72.41657
0.37914208,71.71148
0.25795072,72.202835
0.30635965,72.20062
0.34509358,69.192924
0.26093656,70.06289
0.29199135,70.19518
0.31292722,67.83118
0.2883464,70.6222
0.23099217,71.537025
0.14157699,71.00193
0.28677145,70.186676
0.28812334,70.63314
0.19768365,67.18894
0.08188525,69.73249
0.059566274,66.10794
0.022838755,66.73667
0.058741603,68.95028
0.07746739,71.76073
0.032122444,71.60805
-0.17421739,69.240364
-0.050276868,74.56247
-0.04386876,69.202255
-0.09637613,70.27022
0.011471888,71.85417
0.014846296,73.004425
0.054612346,71.770805
-0.04925372,70.14577
0.1734963,71.660576
0.19303064,74.49666
0.24214087,73.71108
0.34771615,78.57953
0.36090782,76.26644
0.40639916,75.60086
0.5265555,79.561264
0.6331096,78.30249
0.7574879,80.17203
0.7830987,79.02993
0.8331613,79.71567
0.9524036,81.589485
0.9564306,82.21294
0.9451705,80.39549
1.1121197,81.19075
1.1169784,84.90061
1.1221507,83.07832
1.2383136,85.517204
1.2944275,86.83769
1.2504293,86.7246
1.3116398,86.771065
1.3691335,88.10078
1.4093064,86.969574
1.3613361,87.701195
1.3495772,87.756546
1.4372983,89.147896
1.4174359,91.03276
1.5189478,83.12128
1.4247127,87.84062
1.4511073,86.82275
1.4857234,90.1944
1.3693861,90.70672
1.3356837,92.65214
1.3960401,88.99512
1.3746345,93.60553
1.3557243,89.993515
1.3166852,89.03755
1.3087022,89.845245
1.3332933,88.110085
1.3862092,92.95549
1.1958969,85.7653
1.212979,83.11894
1.2326373,85.778244
1.2681835,86.3168
1.1602324,89.24674
1.1655711,87.78567
1.1437066,89.188835
1.112795,83.54581
1.1390301,84.57062
1.0271819,85.45461
1.0484462,87.8173
1.1455358,85.91545
0.9722304,85.72343
0.9152575,81.8455
1.0377315,84.22107
1.0003574,85.78133
1.0529679,84.94646
0.9767135,83.82087
0.9763284,81.20565
0.98570657,79.46402
0.93930393,80.801254
0.9077422,80.1629
0.95625305,80.67192
1.0414065,83.373985
0.92100567,79.47787
0.7877054,82.72092
0.88254064,77.68178
0.7918902,76.628685
0.89939785,78.410774
0.7536025,78.37295
0.7213388,80.21057
0.6972581,74.076256
0.65431017,78.17811
0.59591234,72.98889
0.7107992,77.85768
0.55247664,74.51908
0.568332,73.151764
0.57632643,72.51575
0.5249869,75.25865
0.53913015,72.69731
0.5819777,72.815025
0.54980195,69.85183
0.4985964,75.59096
0.5588994,74.01601
0.60783553,74.626335
0.58985853,70.5274
0.50058204,70.44553
0.65913904,69.95755
0.5992739,73.54169
0.6751221,68.64603
0.5032211,71.35417
0.500788,69.68159
0.46388477,70.32394
0.5958849,70.13775
0.39522803,66.938545
0.47309372,72.06133
0.38890263,68.2718
0.3485276,69.81603
0.3347767,68.440285
0.29263148,69.96687
0.23572426,70.84741
0.22011253,72.5186
0.28616682,71.98436
0.29682842,70.4827
0.28173018,71.89027
0.21593909,71.00873
0.24926841,69.558174
0.25967082,70.48776
0.21178268,67.98307
0.37720916,70.83032
0.4220498,72.63031
0.46647397,73.66413
0.5435382,72.22711
0.6804107,75.50429
0.644087,75.65505
0.7367076,78.59174
0.8157047,75.92459
0.8544717,76.27157
1.0134754,79.0664
0.9723015,78.42307
1.0538554,82.18078
1.2889364,78.172104
1.2630498,81.109886
1.3456601,86.3026
1.505212,80.463005
1.4284282,83.278206
1.5054796,84.34911
1.5759733,86.286224
1.6218894,82.030106
1.6183994,82.92703
1.7747948,86.85101
1.7288915,83.72523
1.7501293,84.5034
1.6535676,90.285065
1.768732,87.85702
1.7709577,85.96745
1.8314046,90.06648
1.7528096,90.8682
1.8759888,92.544914
1.7553626,91.37661
1.8535703,90.594406
1.7876507,91.67741
1.7657216,89.80981
1.7872549,89.00477
1.7467432,90.68735
1.789196,88.39085
1.6315156,89.9977
1.698344,89.046646
1.7344177,92.01808
1.712386,91.623
1.6014,89.5818
1.651469,91.96147
1.5726916,90.13117
1.5530524,89.197815
1.4951079,85.43398
1.4966841,86.24322
1.5503347,88.04032
1.4922966,87.04875
1.5268934,85.495316
1.4093944,86.0698
1.3973488,87.27113
1.4153408,84.76985
1.3982531,85.97576
1.3614789,88.29938
1.4514602,85.96986
1.4803926,83.236465
1.3592386,85.57764
1.4240574,83.2395
1.346489,81.55523
1.3675327,83.223595
1.3872986,81.76161
1.4524956,81.132545
1.3747483,77.84235
1.2982819,81.449234
1.2983087,80.0698
1.3113801,80.14944
1.1522192,76.882675
1.1965628,80.23924
1.1103452,78.025795
1.2144558,77.525406
1.1416684,77.86247
1.1021783,79.10492
1.0359687,76.35824
0.9123974,74.9336
1.0068123,79.03837
1.0549432,75.47326
0.8845429,75.880806
0.92231417,74.51461
0.9681526,73.74088
0.89298445,73.27309
0.9417837,74.94906
0.9300924,75.45216
0.96687007,74.47045
0.8515129,71.49318
0.8147594,71.09849
0.9063077,71.18329
0.90912163,72.182526
0.85877365,72.39921
0.86857015,66.90659
0.9066104,72.37206
0.85040426,71.56721
0.8882075,67.68758
0.8161661,72.48919
0.8008998,69.28812
0.7895085,66.62155
0.8136956,70.482185
0.7559726,66.90285
0.75535065,69.3932
0.64039844,69.18162
0.6196656,70.9117
0.557678,67.41429
0.5802921,69.18954
0.5173022,71.55306
0.6731578,67.15328
0.4986138,70.84191
0.4732746,72.11525
0.5382464,69.103935
0.5754656,70.85347
0.58078504,71.49999
0.5642913,71.70922
0.6549773,72.898155
0.75069517,69.74276
0.79292357,72.068695
0.7211341,72.604935
0.9401035,78.337555
0.9685002,76.056046
0.9898187,77.42369
1.0656813,75.03416
1.1943188,79.519714
1.2200514,79.21106
1.3572799,81.85048
1.4116267,76.91275
1.3981608,82.839294
1.5149856,80.846725
1.6062257,83.153786
1.6733422,83.1343
1.7199016,83.55503
1.7708387,83.7016
1.804156,83.80704
1.8645734,84.172226
1.8959076,87.199036
1.8854396,85.05191
1.8830016,83.42984
1.9524037,91.58025
1.9634221,85.08266
1.9332749,83.85125
1.9923849,93.72124
1.955884,88.27703
1.9538643,88.34075
1.9195169,89.42456
1.9992723,90.326225
1.8833581,86.78801
1.8265303,88.692406
1.9032434,90.43376
1.9191324,89.749176
1.8896276,92.35773
1.879208,90.028786
1.852215,92.44985
1.7701306,90.59531
1.774527,90.562355
1.6964214,87.170586
1.7593088,88.167175
1.6753342,89.042885
1.7178969,88.5571
1.6415554,90.10976
1.5701141,87.52089
1.6554927,86.79082
1.550307,90.05323
1.6124318,87.30207
1.4805819,84.35932
1.5787506,82.31764
1.5845189,84.125534
1.4482352,85.20258
1.6161286,85.99395
1.4555295,84.45598
1.417113,85.09396
1.5320679,83.999825
1.4340864,81.8046
1.4268032,85.03766
1.4216716,79.84149
1.4310908,82.71724
1.4061825,79.49029
1.3510242,83.056595
1.3770379,77.178635
1.2299713,81.99607
1.3257724,79.40476
1.202973,76.71565
1.1423911,81.17413
1.317417,80.35397
1.1485243,82.1014
1.066545,80.49333
1.0981367,72.2292
0.99295235,74.524536
0.95855314,73.72993
0.95491046,77.50857
0.90029144,77.156006
0.8784471,74.83977
0.9279677,72.50285
0.8846869,74.163605
0.83603024,73.81587
0.7549327,72.606514
0.76318645,70.77552
0.8525053,72.53789
0.86881244,73.45938
0.8675578,73.255264
0.82782996,69.50632
0.8707778,74.82394
0.76126736,69.16786
0.80156475,71.732735
0.7827828,70.605385
0.7023466,69.07933
0.8592508,67.27757
0.74166507,70.83899
0.6684782,70.725136
0.71098346,66.90304
0.6110428,67.70775
0.6116061,71.27914
0.5243576,67.76839
0.54935217,69.78914
0.5971756,70.85365
0.44823188,67.892525
0.3938213,67.876465
0.37515777,67.58049
0.39126724,68.89649
0.4759449,70.90521
0.35528773,70.16987
0.40097985,71.59172
0.33592305,67.85442
0.35866842,67.07111
0.38181713,69.11294
0.43620574,73.2683
0.47920173,75.32646
0.63185114,73.85303
0.5344205,77.08323
0.63959837,74.20018
0.7816895,74.6656
0.84451395,76.36159
0.8541089,79.653404
0.90847063,76.058846
1.014461,79.24735
1.0386314,78.43165
1.1173704,79.71777
1.2629995,79.63495
1.2870009,77.80198
1.2765182,78.56646
1.3776293,84.39303
1.3800222,82.25729
1.4236317,83.671936
1.609993,85.20043
1.5034446,83.92978
1.6348462,84.377335
1.6313618,86.353836
1.615397,81.79661
1.565309,88.956856
1.6194224,89.96202
1.6420599,90.08532
1.5394185,88.148895
1.6747174,87.34647
1.6913706,89.05268
1.7452133,84.23468
1.524812,92.3055
1.6938272,90.496254
1.5686876,90.97087
1.6786381,88.16693
1.6294105,86.6089
1.5320767,92.21676
1.6023586,93.50601
1.4746705,88.98321
1.4228028,87.828514
1.4302433,88.780914
1.5122144,88.79979
1.4012965,88.14504
1.354124,90.41467
1.3515216,86.234085
1.2883031,88.951485
1.3890175,87.23246
1.2288973,82.46769
1.2554923,84.63887
1.282035,85.39106
1.1834639,87.560524
1.2614261,84.22925
1.1874795,84.45989
1.0672649,86.1519
1.1666398,85.04124
1.0408354,86.910164
1.0164236,83.91544
1.13759,77.76838
1.0844067,86.33737
1.062708,86.95004
1.0706269,80.26961
1.0121621,83.94087
0.97618663,82.90398
1.0391084,79.22623
0.9129693,79.03505
0.96812993,80.73118
0.9446365,80.1591
0.8214117,80.52144
0.834555,79.81624
0.6825094,77.66345
0.82131535,75.59053
0.8020599,78.70697
0.727853,79.37095
0.70292825,75.122345
0.48417205,73.450874
0.67965573,75.77889
0.5506657,74.9797
0.4781839,74.84566
0.5226651,75.324425
0.45494294,70.99802
0.36296725,76.54175
0.49145868,74.79258
0.44816226,74.15309
0.42151234,74.66363
0.49220997,70.655106
0.439337,72.23993
0.37212166,70.01961
0.43906212,72.92884
0.32872036,71.42768
0.37856317,70.47954
0.40560198,66.870895
0.44985616,71.96992
0.40410194,71.437454
0.3392307,70.11247
0.34293604,70.9388
0.22648707,68.969666
0.2964723,67.27567
0.14805607,69.69924
0.19779807,69.511734
0.14916722,71.26521
0.19349635,71.91533
0.1507283,68.16467
0.055268772,71.42023
0.03539058,66.78975
0.05678742,68.16932
-0.02306893,68.20325
0.03287638,71.40981
0.12323533,74.69381
-0.036767572,75.28741
0.031982273,67.96162
0.0005702689,73.689865
0.09424513,74.12795
0.09889376,75.55462
0.14607245,70.89011
0.2523113,75.13843
0.28771898,74.62854
0.3381349,76.50192
0.35809535,74.77207
0.46147692,78.906425
0.54680765,76.426094
0.6484933,77.785904
0.69615763,82.46927
0.74343145,77.44566
0.8717015,85.86885
1.0771399,82.88874
1.0424596,86.53566
1.1589204,79.59381
1.0908965,81.39285
1.1552176,81.907524
1.2255042,85.89599
1.223076,85.17689
1.2558326,87.84172
1.2838175,89.195274
1.3108796,89.14584
1.3918911,86.227715
1.2936395,89.65575
1.3617054,88.83984
1.3613735,86.618416
1.271381,88.64149
1.4091322,90.2194
1.323024,87.62452
1.3805327,92.87072
1.4114211,92.64555
1.3887079,89.12022
1.3676691,87.45662
1.3183455,88.760895
1.3289725,89.476326
1.2814232,93.366196
1.2435637,86.195816
1.1601789,88.31607
1.2208128,89.64733
1.1797168,91.517105
1.174241,86.65382
1.2328918,88.89283
1.2069851,89.722
1.1310977,87.04614
1.0762811,88.15725
1.1033221,87.32522
1.053505,89.83736
0.9674687,86.02694
0.91574585,86.66215
0.9400684,85.89555
0.9320619,85.44459
0.89672804,82.72547
0.8660326,84.40482
0.9233166,82.02813
0.99767804,84.41387
0.89466304,80.37112
0.96931976,82.56391
0.8433068,84.60276
0.8123119,78.24649
0.8612531,82.23951
0.9036258,83.854836
0.8382617,81.35237
0.8184656,79.54052
0.78291637,82.37907
0.805494,81.82794
0.7224007,81.0923
0.67704165,83.22062
0.6447799,79.100494
0.68605494,77.45461
0.56071615,78.74934
0.5911062,78.92228
0.5094239,75.52981
0.5660625,76.54141
0.5451943,78.39437
0.4147833,74.367226
0.40073013,75.410995
0.42915383,75.5725
0.4577973,71.477554
0.41120964,72.944084
0.30761707,74.651596
0.3655757,72.808846
0.36515853,72.009125
0.30975345,73.50672
0.4200539,72.600174
0.35423326,71.37257
0.39413437,71.70832
0.35970625,72.73428
0.36495084,69.905075
0.45216727,73.694496
0.36968014,72.04723
0.25369114,68.291046
0.4077365,66.49806
0.26572338,71.83696
0.3312908,69.879196
0.28683865,67.80352
0.20633948,69.57546
0.30824882,70.29807
0.2638975,70.2831
0.2520438,67.97301
0.14385779,69.494675
0.08781807,66.44863
0.068805814,67.13101
0.096126795,69.01073
0.062289394,73.58962
0.059247304,69.27356
0.037567623,67.72809
-0.004005318,68.576805
0.1843016,71.13474
0.123619966,72.29345
0.1919773,72.80759
0.1945541,72.34031
0.18710431,72.42482
0.37692896,70.85267
0.41478857,77.21119
0.47007596,74.578705
0.5352482,75.64671
0.6687159,71.74944
0.65780896,77.38472
0.7105146,75.85209
0.86422956,79.24989
0.8970863,82.35978
1.003479,81.21276
1.05328,83.600784
1.104251,84.78188
1.1903385,83.392624
1.0962403,87.074844
1.3977402,84.27106
1.3798373,85.14583
1.3959842,84.59464
1.4365163,89.76206
1.4466168,85.22689
1.5046324,86.901474
1.444932,83.7504
1.4441875,85.503586
1.5341558,87.86278
1.5401354,84.55346
1.5749117,89.251076
1.5361209,92.49246
1.4975309,90.01518
1.6333243,91.32461
1.5461951,88.08212
1.5736744,89.96985
1.5736569,92.01575
1.5315019,91.67812
1.553356,91.699234
1.4681835,93.98118
1.4989127,95.32634
1.5002958,87.90814
1.4635901,90.47207
1.5204797,88.29495
1.4622307,90.68238
1.3827952,87.87331
1.4173704,87.373856
1.4462545,84.42545
1.4095924,90.62684
1.3208768,87.525444
1.3193022,83.993065
1.3146319,86.3387
1.2754284,85.41695
1.2979597,89.59261
1.3610878,87.45508
1.2540998,83.475624
1.2064747,85.96086
1.1524094,86.45173
1.2632023,87.51417
1.2879705,84.74638
1.207923,84.94597
1.1791209,85.22375
1.190289,83.61326
1.2084367,82.35293
1.1543453,83.85127
1.1480433,82.04052
1.1622064,83.50943
1.1984124,81.18486
1.1174239,77.49628
1.1358063,81.21687
1.1221681,75.82237
0.99058944,78.06602
0.99752647,80.27938
0.88057625,77.26838
0.9113533,73.84908
0.9047374,77.64094
0.88376844,75.94904
0.92729115,77.54565
0.81965697,75.25394
0.7681399,75.49074
0.64893746,75.79613
0.73250127,73.5554
0.8115026,76.015175
0.74864364,74.789505
0.8004267,73.80893
0.838768,70.341446
0.78514415,72.867905
0.6990001,71.74248
0.74131656,69.623146
0.8094611,70.83777
0.78097874,70.66564
0.765046,72.08387
0.7290171,69.19993
0.75694835,68.65971
0.7199555,68.83921
0.7670757,70.61646
0.74081594,72.60927
0.6526861,69.099266
0.7131037,67.83038
0.62840724,69.15249
0.6392473,69.97722
0.621289,67.88281
0.5327359,67.329865
0.5421022,68.43513
0.44825506,70.13278
0.4159801,67.083496
0.36755714,70.11364
0.39212888,70.38343
0.4608672,71.201324
0.41583052,69.29986
0.38231337,73.40374
0.44342628,71.75388
0.50670934,70.11415
0.5112317,71.479454
0.5413415,69.35519
0.566015,73.79601
0.737605,74.6623
0.6477195,74.68166
0.805806,74.108185
0.84693,74.45557
0.96089673,73.89489
1.0757618,80.62473
1.1050556,79.65193
1.2216601,80.24393
1.2189765,79.069984
1.2920151,80.527885
1.4681672,83.010826
1.4848671,83.9414
1.6339893,85.97461
1.5937145,83.74549
1.6806221,84.11999
1.7056129,82.64791
1.7291949,85.975845
1.7703432,88.16986
1.7557974,84.43796
1.8842622,85.50888
1.9236262,89.80488
1.8922303,90.53157
1.84996,89.28066
1.8603705,83.639565
1.8980898,88.85623
1.9491771,88.22623
1.9619406,89.92702
1.8909642,89.81589
1.8944191,91.75679
1.9585029,86.76462
1.9642063,85.771286
1.9333131,94.456154
1.8509815,93.60281
1.9574095,90.66084
1.868708,91.14677
1.8966514,90.59893
1.8975416,88.88386
1.7687588,85.96118
1.7573901,89.311386
1.742462,86.08042
1.7701448,88.42269
1.7100111,85.84968
1.6594112,89.61091
1.6779271,85.712715
1.6186604,83.908745
1.623222,87.37938
1.5435449,85.6769
1.4747859,84.20531
1.5517457,84.29284
1.6354105,84.60495
1.5239167,83.453125
1.6452535,85.218414
1.4741127,84.7763
1.4639394,84.82844
1.4878535,82.12175
1.4566034,84.677765
1.3331561,85.88229
1.4847913,82.66897
1.4791925,82.39516
1.414127,82.99808
1.4626913,81.71068
1.3953063,81.64413
1.3684909,77.51986
1.3802187,80.629906
1.322742,76.28717
1.3123868,79.948654
1.3432043,78.04413
1.2610873,78.57723
1.2830492,81.00017
1.1462988,78.47655
1.2256811,76.37969
1.0593823,75.71474
1.1303449,76.512924
1.013114,75.523346
0.9695356,80.18945
0.9283318,80.47884
0.97163427,73.36546
0.93762344,71.06376
0.9768858,71.086815
0.90889484,69.04904
1.0566435,72.285225
0.9419204,71.1295
0.9346414,71.586914
0.84569603,73.939575
0.9162407,67.468376
1.0211926,74.78534
0.94079196,72.57758
0.88111705,71.24185
0.810241,71.38799
0.86517626,72.90339
0.88293564,69.56123
0.7676208,73.17937
0.78088635,69.230156
0.79301405,69.85076
0.69360715,69.30699
0.77890766,71.8029
0.67902076,70.06213
0.60930616,70.09815
0.5874083,69.00196
0.6246543,68.7045
0.5536729,71.377304
0.57321876,72.88202
0.62534285,68.937546
0.5822432,72.34951
0.49716434,70.63406
0.5643122,73.569176
0.68136364,72.78321
0.6384911,73.973015
0.6112589,73.67589
0.55823207,71.15477
0.70362675,71.99672
0.7084497,77.3141
0.80693656,72.987724
0.9695388,72.28845
1.0548908,75.353294
1.0738716,76.34138
1.0577631,77.59898
1.1768303,76.38953
1.2382023,76.48939
1.3725866,82.87525
1.42898,84.07037
1.3822405,81.115585
1.6196903,82.38406
1.5042729,83.6312
1.6531327,83.917534
1.6555554,83.23533
1.6922466,84.35657
1.7600173,85.95066
1.8074814,83.64456
1.7156137,85.725586
1.7942898,87.07023
1.8009738,88.45173
1.8156307,87.13162
1.830366,87.77146
1.9382437,88.0934
1.9015402,91.281425
1.8713937,89.20045
1.9309628,88.687225
1.8935385,89.94672
1.7787147,90.057274
1.809897,92.62907
