ppg,abp
1.0059673,79.95605
1.1334441,81.76001
1.278564,85.41178
1.2365297,85.001045
1.3861859,90.189865
1.4328337,96.98664
1.4563881,96.88562
1.5367961,102.46563
1.601751,101.90559
1.6132381,105.103874
1.6957967,103.6591
1.7056617,108.17475
1.652948,109.49281
1.6839169,111.071686
1.6375543,109.98246
1.6661959,110.65548
1.7767333,112.31405
1.6927973,112.28226
1.6457995,121.26569
1.6441495,113.46535
1.7184371,111.620255
1.7830331,115.504906
1.687376,109.90853
1.636245,113.26359
1.6558462,114.11431
1.6017232,112.86572
1.5307863,109.88108
1.4954677,106.92268
1.5546054,108.5983
1.5167859,107.19759
1.3967798,105.25117
1.3261744,106.82299
1.3941962,99.905014
1.395206,101.40601
1.4074007,102.80518
1.4139739,98.22945
1.4075285,96.18489
1.344128,94.01814
1.2963066,91.03005
1.3826913,94.4921
1.3112912,90.49966
1.3580967,93.71625
1.3638359,90.36494
1.2769792,84.45249
1.2453197,82.84378
1.2047774,86.6698
1.1705339,82.26961
1.2163025,80.83212
1.2386498,79.35905
1.1758573,77.83621
1.2886213,75.148705
1.0499461,69.98143
0.9484992,75.94246
0.89093083,71.39471
1.0060372,71.331436
0.9747997,67.056915
0.8681354,71.09367
0.9304483,67.18385
0.90303206,67.97192
0.9132779,62.584267
0.819223,63.720943
0.8876088,61.91445
0.7767686,58.846542
0.9090985,58.754868
0.7335489,61.146244
0.8407038,58.316387
0.8744354,55.475994
0.91815716,50.09671
0.8688806,50.663773
0.78512156,50.623604
0.85688114,48.377766
0.7909569,45.55285
0.8425487,49.250908
0.7256037,47.55793
0.7219268,44.624832
0.7174053,43.780563
0.707598,46.45071
0.55532986,46.196495
0.58259356,48.74833
0.5016519,46.967403
0.5108026,47.267925
0.513923,50.21746
0.6174654,51.225605
0.56697786,49.998634
0.5879485,53.66898
0.58828753,51.45042
0.50946677,59.472984
0.69346845,62.748432
0.73158073,63.46369
0.7910568,63.822567
0.8798212,62.26959
0.9805454,71.83324
1.0513586,69.33744
1.1782157,75.13468
1.2693172,76.092224
1.3378667,79.3329
1.410063,80.85991
1.5262983,85.43923
1.6021447,85.318306
1.64864,89.33835
1.7806934,94.128586
1.7546536,101.134834
1.8768625,99.95632
1.9704092,100.91972
1.9301398,103.10329
1.9420375,106.00787
1.8361261,108.087715
1.9391091,109.782486
2.0250456,108.015434
1.9197502,111.08502
2.029392,108.8008
2.0176196,112.444786
1.9466454,112.75492
1.9644927,112.26422
1.9419792,115.29909
1.8891252,114.8062
1.8232987,114.12656
1.9108014,111.155624
1.9036884,112.89896
1.8851613,113.82658
1.8085592,114.71857
1.7875106,112.42408
1.8456028,111.74084
1.7585028,103.372734
1.6485864,105.51785
1.6952517,106.27643
1.7023687,107.73294
1.6818289,104.51067
1.6272576,101.956726
1.4340675,100.579475
1.5301045,94.61763
1.4419979,97.656364
1.6092446,93.46675
1.5713565,93.74202
1.5255606,91.33407
1.551827,91.6002
1.4398956,85.76382
1.4922553,86.57448
1.5008457,85.138985
1.4860387,86.92675
1.3981758,83.10684
1.3844236,81.403694
1.3693538,79.2211
1.4021342,78.62373
1.2579789,75.89713
1.1055923,75.78167
1.1987296,72.634445
1.0184125,76.26579
1.1265018,76.549034
1.0089874,71.00586
1.0752857,68.08705
1.0651813,69.753105
1.0718976,65.64975
0.9575947,61.35748
0.97492534,59.641354
0.84021574,63.234566
0.8182984,58.76188
0.9404315,60.83039
0.8203962,57.6217
0.8617856,55.90682
0.86280876,57.01526
0.8083306,53.091328
0.8595886,48.40401
0.8370202,48.464752
0.935632,53.75795
0.8654373,54.810326
0.87242746,46.293015
0.880533,47.076653
0.71373516,49.789764
0.62830305,48.172523
0.7679529,48.23673
0.60673,49.826572
0.552358,46.398716
0.48743266,47.687096
0.5982119,50.058372
0.44404906,47.04951
0.49429035,52.098717
0.44384187,49.137672
0.42889982,53.86421
0.42735943,52.982414
0.56895787,61.21257
0.63721424,55.452465
0.6046933,61.65164
0.62409407,61.92075
0.8808195,66.21717
0.87295485,69.824265
0.89406276,67.64268
1.0353094,72.644
1.1094673,76.60528
1.2044699,76.276505
1.2881987,80.84041
1.3799368,82.13782
1.3697566,89.41252
1.4876292,91.40599
1.6119714,91.97899
1.6054993,95.321236
1.653132,100.43793
1.8296455,101.481804
1.7768306,97.25143
1.795335,100.04362
1.7015083,103.861946
1.8857865,105.91476
1.7876264,108.80619
1.8933972,107.30623
1.8938434,106.59198
1.839777,113.138374
1.7768856,114.10005
1.8428042,115.82476
1.8479095,110.40111
1.7365291,112.25182
1.7136023,109.76003
1.6787032,114.36943
1.5979303,111.25758
1.5659611,111.1931
1.7648995,111.50136
1.6449443,109.72243
1.550143,110.67684
1.5626397,109.84621
1.5804389,106.54883
1.5319308,103.05495
1.5018648,106.30128
1.4938107,106.3971
1.43497,105.81467
1.4388115,102.98502
1.2731475,99.81172
1.3413149,101.48986
1.3722193,97.14051
1.2503456,93.943016
1.3013469,90.92141
1.3416002,92.49555
1.1960729,91.48473
1.2040642,89.38207
1.2352897,87.44094
1.3010778,87.954926
1.1637712,86.56118
1.134319,79.85486
1.1073793,84.49586
1.1577878,80.193474
1.0774571,77.84773
1.0287489,76.201965
1.0306871,74.86391
0.9535709,77.28281
0.85169894,74.81017
0.8822004,73.592606
0.7680717,70.67644
0.8229331,65.22073
0.68268925,70.57326
0.71297777,65.33164
0.6299332,67.85081
0.7562888,63.08163
0.6108174,64.08397
0.66063845,61.139805
0.73097485,60.90142
0.71995854,55.132828
0.54820985,56.454838
0.48870328,56.514294
0.6119775,55.386406
0.5329618,54.180637
0.5134131,52.536167
0.705837,46.860893
0.52159065,47.832664
0.51788396,49.272434
0.553261,48.317497
0.5068293,49.02975
0.49535346,45.253773
0.44784138,50.328754
0.3777229,43.800762
0.3405204,46.639668
0.2695141,46.524254
0.25962394,47.50838
0.20459644,46.731033
0.11474927,49.499912
0.21819863,58.38158
0.10348932,54.285576
0.08720347,53.68909
0.14830774,56.24014
0.26718736,60.159286
0.30756277,57.550644
0.33820885,58.678116
0.45921323,64.707085
0.5008832,66.67143
0.62842494,71.09996
0.63373923,73.31363
0.95961326,76.07914
0.87573445,79.47088
0.8961,80.364525
1.0471752,81.84889
1.0814053,87.03848
1.1315668,91.7556
1.1930935,93.0016
1.3635037,96.47781
1.3886837,93.70672
1.420158,97.5013
1.3773423,103.07098
1.4560767,105.28826
1.5346348,102.50716
1.4214926,106.72559
1.4909607,107.22022
1.4728256,108.232994
1.5434215,109.78131
1.5091163,112.685455
1.4371792,114.58269
1.4352105,118.21585
1.4158511,113.12546
1.4054555,114.88492
1.3828604,110.79786
1.4836143,117.7207
1.5031205,111.77856
1.4365453,114.06472
1.2875907,110.48806
1.3162384,111.37884
1.2726382,111.626564
1.2017684,110.04719
1.3042942,107.63851
1.1729891,107.88224
1.188934,109.58483
1.1414832,103.7284
1.0536973,102.58427
1.0514127,100.9313
1.1146706,104.36527
1.0498987,99.91014
1.060993,100.63776
0.88709575,91.669
0.85366964,95.669395
0.9254451,93.41647
0.95156354,92.22839
0.90188485,86.89229
0.9325068,88.77225
0.8624803,83.792755
0.9046539,85.94261
0.81809235,83.98929
0.82780594,83.66681
0.8204819,76.35034
0.78027046,81.87432
0.6555335,76.21253
0.62100095,77.191635
0.6151295,76.73672
0.60587835,69.15328
0.51698166,72.54511
0.510171,72.39723
0.53905517,73.079445
0.47254142,69.59314
0.4425503,67.72634
0.47793707,65.10106
0.40023947,63.89563
0.3610427,57.560837
0.21994779,63.596096
0.30721593,58.397305
0.29830205,58.156563
0.39933735,55.353867
0.21819957,53.0586
0.34601194,53.536343
0.31127682,48.893753
0.40576705,51.71533
0.3657498,50.684776
0.23034345,52.04618
0.16631432,49.755226
0.25324062,50.50929
0.1734243,49.344456
0.19418249,47.724598
0.17240007,46.123753
0.12083157,48.812527
-0.015435366,45.960876
0.02496781,47.64686
0.008554088,49.4891
-0.05133366,48.176636
-0.004852825,50.551537
-0.014290966,50.51335
-0.0034900564,50.7642
0.025044417,55.729984
-0.055681057,55.164177
0.11206848,59.234062
-0.004230334,63.36383
0.1589992,63.78516
0.23224184,67.40131
0.2964031,67.58952
0.3966238,68.25471
0.47542801,74.16007
0.57863957,78.58032
0.7388448,75.17302
0.795585,83.425766
0.87611455,84.39335
0.9307228,87.62608
0.9890515,83.88436
1.0520012,92.85109
1.1144416,94.71568
1.2809359,94.42454
1.2369623,97.98695
1.1959763,100.23369
1.3009025,97.84435
1.2748662,104.49072
1.3237575,107.40098
1.3639803,109.31569
1.4237447,112.74782
1.3392351,112.23656
1.2957001,109.5755
1.3833783,115.78591
1.3099878,116.21614
1.4438984,110.01382
1.2416929,114.02801
1.3571962,112.94939
1.2566286,112.15339
1.2873284,112.72467
1.2203037,114.73476
1.2881876,111.59715
1.0782086,114.79024
1.2130848,110.99262
1.1521379,108.63282
1.2123885,109.88628
1.2440406,107.87265
1.1146275,105.981445
0.9750794,104.974365
1.0866238,98.0903
1.0846236,99.39505
1.033684,95.144165
0.9805541,99.4854
0.93146676,95.45073
0.9486032,91.84695
0.97976124,96.83912
0.94934267,89.97933
0.9335133,90.492
0.87377375,90.21551
0.89523566,87.45153
0.76591027,90.14647
0.8229639,82.18054
0.9461219,84.39659
0.8946062,80.50385
0.8339377,84.89973
0.7582254,82.423515
0.66894174,78.08495
0.61167604,72.23608
0.6576593,77.71257
0.76540124,72.888306
0.48017114,72.00688
0.6156989,67.58104
0.51085085,70.56411
0.55303633,65.54361
0.51164836,65.0077
0.5326921,63.876804
0.45997632,60.67926
0.37755623,65.79437
0.48132792,60.485847
0.47576153,57.33199
0.44542572,56.64562
0.4243471,55.082203
0.513111,50.990387
0.39478952,52.09624
0.43159646,55.193123
0.4090605,51.676117
0.3000844,51.72147
0.49876273,50.411922
0.39013404,46.11784
0.27926266,49.159817
0.40687582,46.450176
0.38190332,47.478085
0.23816915,48.094864
0.2329457,49.287098
0.19686772,47.49369
0.28814209,48.151226
-0.048548277,49.13117
0.09135283,52.244804
0.20774315,51.31519
0.13808173,50.726913
0.1538431,47.517803
0.15957941,54.622417
0.20889613,60.29218
0.33146894,57.78373
0.34155777,62.702953
0.36128387,65.00141
0.45501557,63.706936
0.4914371,68.7909
0.63519955,65.82832
0.62405133,73.24771
0.82700855,74.58715
0.900376,83.77126
0.9857237,83.03248
1.0713744,77.54517
1.116024,86.786766
1.2543887,89.31865
1.2783558,92.87129
1.3282578,91.93696
1.377652,96.57646
1.4959549,98.40283
1.4417049,103.683685
1.666143,105.75515
1.5696691,102.24645
1.4974809,104.702324
1.6179792,106.95679
1.4796772,104.961044
1.676065,108.312965
1.7238611,113.42671
1.6191813,109.06119
1.646365,113.56534
1.5611936,113.66434
1.633968,115.06399
1.4326526,112.640495
1.6657236,115.536995
1.6941326,112.02089
1.5575522,110.697495
1.4519898,109.35327
1.4033465,109.79734
1.5274643,107.042755
1.4384809,107.89311
1.5094634,110.63566
1.3387531,108.87776
1.4390141,107.79273
1.2885349,106.3019
1.3541399,102.13856
1.2619026,104.24859
1.2717605,102.09319
1.287003,98.47912
1.4288099,95.328354
1.2989146,97.17695
1.2139939,93.851974
1.2831964,97.93044
1.3475193,90.75852
1.297641,87.86674
1.2973233,88.06433
1.2935615,88.37295
1.258765,82.301094
1.1351525,86.33576
1.308402,82.394516
1.1020734,84.86836
1.1149,73.989876
0.9173455,78.95343
1.0050788,75.442444
0.9947394,71.26388
1.022637,71.256065
0.86630374,71.90235
0.80730087,71.100655
0.89799637,68.64141
0.93592024,68.265465
0.8317838,65.69255
0.72619057,61.564148
0.81665707,58.409405
0.7770968,59.133053
0.7578463,58.265785
0.75517637,59.664753
0.7430074,56.168365
0.7933398,54.957867
0.76741517,51.816788
0.8586307,50.80911
0.77988356,49.343826
0.7072533,50.292805
0.8159129,52.186844
0.70053095,46.370384
0.7496657,47.00831
0.74817085,41.641033
0.61152744,45.297573
0.59044635,46.71034
0.6604638,41.54981
0.5912202,45.299797
0.5008364,47.454662
0.40809748,49.583347
0.43149078,46.11753
0.36886996,44.256683
0.50876665,49.322906
0.40744394,51.243614
0.46227375,51.872787
0.35618466,54.244377
0.52965754,54.49938
0.58897394,57.868343
0.6470199,58.528275
0.7998903,63.758034
0.80845714,69.90793
0.91306925,69.48379
0.98977447,68.75469
1.0556012,70.77761
1.2092695,73.83209
1.2916278,77.58701
1.2470003,81.75213
1.3599131,79.95759
1.4634943,87.79012
1.5782846,88.8913
1.6900325,96.67724
1.7157968,95.888756
1.715544,95.67457
1.6935089,98.90883
1.8015901,105.383835
1.8855611,107.785034
1.8865517,103.69239
1.9815372,109.73136
1.954565,106.90374
1.792127,109.604515
1.8044246,110.05753
1.9559907,112.22835
1.9169348,115.70263
1.8835554,112.70693
1.9574503,110.15221
1.9155886,115.009026
1.9232571,113.65046
1.8561882,113.95791
1.8155334,112.93151
1.8747431,114.73487
1.8597502,112.27688
1.8934332,114.86877
1.7237976,110.52742
1.7570738,108.64934
1.6510779,106.37939
1.6714189,105.398865
1.6978879,107.14425
1.5793086,105.12851
1.6305785,100.42445
1.6311519,103.95506
1.5673844,103.084045
1.509426,98.73666
1.5684671,99.38058
1.5648224,97.318275
1.5230271,93.28064
1.4867358,89.683334
1.4297765,91.28073
1.4564689,90.44906
1.5091857,87.56351
1.4616253,85.59294
1.3918796,84.0138
1.4191113,80.44835
1.5084242,81.63194
1.3813035,79.564545
1.1819999,79.71857
1.2866783,79.0343
1.2678837,79.02823
1.2407527,76.59654
1.2519902,73.81446
1.1351962,71.115166
1.144442,72.58404
0.94002944,69.62935
0.8865588,67.40196
0.88906586,65.57606
0.99544483,62.19744
0.9861197,64.16106
0.80626494,62.337204
0.98567206,60.052994
0.828411,55.430824
0.98099047,56.198013
0.95261604,58.68239
0.9740839,52.12279
0.92953885,50.64536
0.8302973,52.590004
0.8734934,51.798748
0.72901446,47.904194
0.8449969,47.001297
0.80033493,45.883526
0.6716459,52.395588
0.8250499,46.9146
0.726941,43.10912
0.7248254,46.412735
0.58544743,45.544926
0.625646,47.985023
0.5583984,48.10773
0.6440534,44.897488
0.48777565,47.503014
0.545441,48.025753
0.55341864,50.39483
0.5359908,53.69114
0.66389716,55.569557
0.6209007,59.55686
0.6133843,59.92221
0.7083372,61.323242
0.7309618,62.390457
0.8758386,67.72145
0.8928274,67.50124
1.0432391,69.55911
1.0811102,74.39754
1.1237642,76.43331
1.2950059,82.66736
1.2732561,81.13816
1.5576363,83.209755
1.5196747,88.68315
1.544205,93.08379
1.4835043,90.25782
1.6633835,93.32271
1.634453,99.96671
1.761601,99.25526
1.785455,103.103966
1.9121327,101.21386
1.9063214,101.971214
1.8763382,104.1341
1.9044914,108.963066
1.9023751,111.39741
1.8454814,112.38865
1.953317,112.935524
1.9331393,116.64542
1.7849218,110.48389
1.9155025,115.53634
1.8540293,116.98534
1.9361017,113.60792
1.8547143,113.1803
1.8335489,112.969894
1.6949922,112.0846
1.7663251,111.678925
1.5756159,114.17772
1.6381791,114.066
1.5866857,110.27328
1.55274,108.94686
1.5893621,106.691505
1.547775,102.16276
1.4750909,103.65805
1.4599367,103.85272
1.5585378,102.77869
1.3886067,100.15824
1.3681566,99.633316
1.358908,95.73719
1.5080022,92.46545
1.3738363,93.545525
1.4454874,91.73479
1.3060638,90.459595
1.3665348,92.514435
1.389159,89.14027
1.2977346,89.11873
1.2432289,83.44633
1.2752029,85.405754
1.2119968,82.08171
1.1209387,77.5112
1.3033793,78.081245
1.0184585,74.530205
1.0930289,71.39003
0.95735204,74.46549
1.0519003,72.924576
0.9132739,72.07363
1.0861787,68.46021
0.9249567,66.08478
0.7697585,66.27614
0.8564742,65.28125
0.7640645,68.012474
0.7146721,61.446533
0.75296324,60.627533
0.75036323,63.188854
0.75581276,55.097572
0.69006324,55.408966
0.64034826,56.495743
0.7221271,51.57583
0.6975748,52.23512
0.73232895,49.299477
0.7152803,51.81367
0.65268826,51.31945
0.5808858,45.728813
0.58022535,50.561485
0.46464062,50.787197
0.49951825,47.41081
0.41213533,53.487103
0.45008212,46.73534
0.38772178,49.71758
0.32843167,44.98558
0.3187339,49.865917
0.21678728,48.029526
0.39107448,45.239258
0.19511655,51.2433
0.2750848,47.150986
0.2755027,55.50441
0.23237109,53.365387
0.4153248,58.752216
0.29652438,61.23816
0.47642928,57.908726
0.48217988,64.417244
0.50119483,61.93959
0.66343313,71.02071
0.62730676,72.06475
0.82164454,74.378654
0.80801535,78.499695
0.9295093,74.90938
0.9543891,80.45429
1.1352869,86.78036
1.1751406,84.87428
1.3187302,90.19104
1.384617,94.73925
1.3483708,99.84131
1.4836911,96.04404
1.4539626,96.63503
1.3989335,98.81244
1.4457873,101.62445
1.4830787,103.21556
1.4812105,109.33721
1.467436,108.17983
1.6323097,111.682365
1.605967,110.45004
1.4562477,112.26535
1.6843783,107.90254
1.5301236,111.99198
1.5247525,116.77881
1.5407435,110.683334
1.5520483,113.35156
1.4647151,111.761345
1.4501197,112.86288
1.466931,110.79245
1.2890513,111.3764
1.4124072,107.96612
1.3039265,111.06553
1.2814729,109.34782
1.3583578,107.663445
1.2501123,105.930695
1.2295386,106.769936
1.1957866,104.96166
1.2916988,105.42243
1.090936,102.8653
1.0921831,101.811806
1.0617288,97.501366
1.0753212,98.87159
0.96635044,94.469795
1.0286041,94.539955
0.9496702,91.40275
1.0397093,91.66009
1.016131,89.1294
1.0400594,85.37615
0.9152146,83.93237
1.0021026,82.577225
0.9733474,82.66251
0.9287303,82.126854
0.9124118,80.992455
0.860107,74.46381
0.7116174,80.26585
0.79038614,74.40788
0.76550376,71.23925
0.684476,74.04386
0.65998197,71.14873
0.46044683,71.56521
0.6571047,63.231182
0.48574606,64.41576
0.35862064,61.716465
0.4110772,66.38774
0.41608194,62.56757
0.43911996,63.913734
0.40269542,60.568386
0.37483212,58.930206
0.396328,60.577183
0.2975431,54.20872
0.30634475,54.465755
0.3373477,53.224167
0.36353877,51.240395
0.36192495,48.15861
0.30060336,47.535023
0.41874433,46.455723
0.15897255,47.987247
0.27187657,47.20611
0.20597374,49.220787
0.18287407,44.567734
0.12570345,47.426495
0.0085843755,47.253345
0.023668814,46.808743
0.14573139,50.87257
0.10108211,45.951977
0.06170239,49.711987
-0.06671332,50.82211
0.021135645,53.907925
-0.0066858274,55.03795
-0.03343017,59.95256
0.015011628,59.370018
0.19221081,60.310707
0.14219679,59.79683
0.1532534,63.806377
0.31165826,66.11622
0.43402576,69.944534
0.55476826,74.115036
0.5317819,72.64112
0.5720202,75.32175
0.7586102,75.21816
0.78563833,82.48157
0.91629976,83.230095
0.9195091,88.631584
0.97098213,84.292114
1.0551411,93.934105
1.1083906,100.00575
1.1550295,97.5607
1.2236321,98.30309
1.2032009,97.88461
1.2504798,103.713524
1.3117521,105.50059
1.3813004,109.362434
1.3765417,110.72647
1.3162773,111.72398
1.2269874,110.67
1.3162359,115.157776
1.5047293,111.4954
1.3365008,112.65364
1.2559506,115.12625
1.2883586,111.859795
1.2180725,114.99897
1.3184946,111.352264
1.2252414,111.663445
1.3697356,110.91339
1.1500586,112.18935
1.187362,110.831726
1.2715544,109.5538
1.1971924,106.054726
1.0919858,107.151985
1.0640967,107.429306
0.95571375,104.17346
1.0458542,104.241714
1.0153544,102.88295
0.98494637,102.068954
1.0495498,101.706764
0.9110703,96.04421
0.9874186,93.9481
0.8861653,96.32027
0.83579785,94.82956
0.8361244,93.42617
0.9595484,94.484474
0.9056976,86.65549
0.8755746,87.496666
0.8674536,86.29345
0.77484804,85.152435
0.9040125,86.16031
0.68422604,81.01355
0.7804348,78.65054
0.76647747,80.51881
0.62064654,79.15352
0.64113665,74.402405
0.55141544,73.07614
0.58698964,69.60617
0.53797287,70.556694
0.5489998,69.48988
0.48117927,66.84752
0.3210117,63.206993
0.35702765,65.25048
0.48268145,62.057793
0.3069917,64.55394
0.47910568,58.963596
0.30628565,57.658207
0.36298233,54.650547
0.46189594,55.048004
0.35872737,52.78632
0.29180023,60.297985
0.24828438,56.392437
0.37514496,54.91283
0.34531134,52.637638
0.34209374,48.036602
0.26699543,51.67596
0.22659452,47.25265
0.28542447,48.82448
0.16658519,49.34804
0.2588466,48.447918
0.051845137,44.225708
0.18101609,45.361454
0.19131492,44.79841
0.11686621,45.820854
0.014889588,45.910397
0.0013077552,47.186356
0.091295086,53.498055
0.08129046,55.92085
-0.046003617,56.325085
0.08723495,57.16182
0.1835955,57.639236
0.16881067,55.87851
0.22362104,60.202873
0.27310732,60.401775
0.371426,64.66768
0.4050405,70.73755
0.6082162,68.67095
0.69476104,73.611534
0.7720274,76.04548
0.84863734,79.84893
0.8956507,85.094765
1.0046452,81.21404
1.1218603,85.96926
1.1849571,94.89495
1.1030822,92.92417
1.376882,97.30961
1.3377907,97.247444
1.3354225,102.68854
1.414932,99.70355
1.4098173,104.60037
1.4756004,105.0901
1.6021752,105.82928
1.6025058,105.98613
1.5203295,110.798
1.5265608,110.69233
1.604495,112.61172
1.6619556,113.05936
1.5697678,113.0259
1.6242763,112.83509
1.5777696,111.44798
1.6168889,116.024895
1.5240071,111.92329
1.4518028,111.685165
1.3928264,110.372185
1.3958106,111.83766
1.4362674,113.27634
1.375799,110.14924
1.3028044,106.29741
1.3073342,109.06188
1.2105353,101.57545
1.3834879,105.68693
1.3367412,102.26789
1.2462832,101.75247
1.2245692,98.83019
1.1818318,101.952576
1.1715194,96.35581
1.2275242,96.77515
1.1877875,93.38674
1.2173417,91.8233
1.10399,91.07559
1.1807864,88.97943
1.1714586,88.951065
0.988461,87.60784
1.1476089,90.65487
1.0393051,82.1021
1.1578585,81.72039
1.0120146,79.19811
1.0467312,77.88752
1.1338044,79.21908
0.97032565,77.462494
1.0082903,71.2281
0.85898376,71.854866
0.80503196,75.65943
0.888334,69.84902
0.76313394,69.964005
0.82882994,65.2604
0.73268574,68.64421
0.7402316,66.76205
0.71754783,62.886665
0.6647835,61.026505
0.63045573,57.338028
0.8061805,52.690422
0.7210342,60.088715
0.82835954,57.917522
0.67161727,57.15455
0.6450592,56.416084
0.72822785,53.21334
0.6899798,47.885715
0.60091054,52.86134
0.63173425,51.769096
0.71585095,49.591343
0.5696739,47.48022
0.5552265,48.908047
0.6506012,45.18767
0.46026415,46.92209
0.58351433,45.759483
0.52770585,46.731117
0.43895563,50.26865
0.4071276,47.817913
0.33523962,50.61833
0.3011986,52.86234
0.30384123,49.096386
0.39467102,50.394802
0.44821355,51.830387
0.47293678,57.734203
0.45523277,58.970306
0.551121,58.357307
0.6495298,62.958897
0.63590777,64.226105
0.7579363,62.99194
0.78171057,67.93521
0.93000114,70.11516
0.9237753,73.20044
1.0267464,71.1303
1.1163229,77.92783
1.3283811,82.21987
1.4015417,84.898506
1.4463902,86.77595
1.5003301,93.3255
1.5939887,89.78901
1.6074955,94.23507
1.6145703,95.719086
1.8525882,99.14099
1.6974447,100.312805
1.8473475,106.630806
1.8428257,108.08906
1.727918,107.059074
1.8911307,109.32919
1.8021233,105.77862
1.9140615,111.449455
1.9277393,108.464424
1.8976825,112.10506
1.938086,110.29712
1.8747778,114.32532
1.8457804,113.02092
1.7054907,111.02233
1.7469866,111.70346
1.7374481,111.91846
1.7934884,107.887115
1.7956805,108.36698
1.6557331,109.06811
1.6335657,108.529526
1.6811266,109.84465
1.6527953,109.88345
1.6226568,104.08532
1.6064026,104.481804
1.5979184,106.86518
1.5159987,105.46199
1.5170299,101.93617
1.439151,100.47382
1.460485,97.93652
1.4729797,95.89551
1.5023873,92.98549
1.4242654,93.09155
1.4208862,93.81384
1.3265325,91.60576
1.4367748,88.18782
1.4011297,88.036354
1.4925665,85.15902
1.4303908,83.940346
1.4040911,85.12377
1.4444733,80.575
1.3088195,79.213264
1.3226333,78.1527
1.2926974,77.973694
1.1983787,76.218155
1.2271571,72.04899
1.0619367,72.034584
1.1835334,71.36965
0.9951399,65.282745
1.0121994,66.44128
0.9716555,64.36762
0.92987204,64.87471
1.0817314,66.71815
0.9517048,59.993233
0.9355572,61.790066
1.014172,61.721035
0.98219025,58.813282
1.0481232,58.507435
0.8836722,54.85178
0.8545511,52.82045
0.9751353,52.113327
0.83398086,51.590996
0.8196219,50.864952
0.90966445,48.265743
0.81283975,46.803864
0.7634072,48.65123
0.8650906,47.180054
0.72855043,45.76421
0.64815617,44.18763
0.6595764,46.890854
0.595691,48.295406
0.6356876,46.8756
0.48700508,51.18649
0.50701463,50.504078
0.642039,53.363304
0.5526634,51.819557
0.62672,51.823593
0.5519227,54.791367
0.49025878,52.807636
0.630644,55.3711
0.7267358,59.382603
0.7766555,63.61392
0.8394082,65.18995
0.9143166,64.96298
0.9365616,74.89936
1.1245441,69.7489
1.2742021,73.51581
1.2052882,76.319855
1.2856109,80.75825
1.4058967,79.12351
1.555722,87.74648
1.4908401,87.41197
1.6219897,92.121315
1.7192227,96.20008
1.7784089,98.656654
1.8573843,94.59103
1.8129244,97.924515
1.8816326,99.92427
1.9795027,101.43248
1.8978518,107.83985
1.9609582,105.91358
1.8572099,110.00167
1.9949235,109.759254
1.8686104,112.0442
1.994426,110.76179
1.9397702,113.18795
2.0482583,109.15028
1.9358823,113.223976
1.8441706,116.660065
1.8078709,120.09978
1.8752178,114.84139
1.8422287,114.72877
1.8582696,110.093
1.8117783,110.23746
1.6844326,108.16353
1.7188003,111.66438
1.6791359,108.261
1.5909218,104.07532
1.6033397,109.09673
1.4997418,103.43165
1.5194669,105.75029
1.522774,103.299
1.4891112,101.7324
1.4931667,99.60655
1.4043504,96.69329
1.4436913,96.65788
1.4975656,99.24815
1.5383093,91.67927
1.4518551,94.70403
1.3554912,88.906525
1.3670691,89.44366
1.4798216,88.81591
1.2800971,87.00013
1.2980523,82.00797
1.344143,76.56223
1.2530016,79.54685
1.34426,78.46413
1.2124107,78.93763
1.1448493,77.87257
1.0785083,74.37849
1.1334789,73.46371
1.0498451,74.53139
1.0003129,70.28174
0.92986155,64.77009
1.0509521,70.03629
0.8851134,63.85873
0.82073504,62.62819
0.78693485,60.430454
0.7708184,60.817905
0.854725,57.841225
0.82073027,57.312836
0.8609933,56.776127
0.69208926,52.928123
0.7203702,54.002625
0.8391568,53.42493
0.8486741,52.946934
0.75074697,48.00228
0.8154957,50.16058
0.7280989,49.36656
0.7253806,44.65798
0.58511144,49.542404
0.64230984,48.624332
0.5119522,45.538322
0.59728074,45.982822
0.47994673,47.5659
0.4958098,48.328403
0.49972737,49.849552
0.4792312,48.098423
0.4540222,46.95202
0.3483034,50.75173
0.35476816,53.89168
0.38083705,51.832882
0.23391162,55.58068
0.381054,54.92674
0.40420142,56.765392
0.4945601,59.29394
0.5541386,61.47259
0.71108955,67.7249
0.54317594,64.57779
0.7513765,70.746124
0.85314304,74.65311
0.9758766,75.83287
1.064988,77.179276
1.174207,78.026436
1.1092523,85.59694
1.314854,84.78097
1.2513515,84.66301
1.3716451,90.784874
1.5420079,96.9222
1.5728517,96.10418
1.5087433,97.201324
1.579137,97.856674
1.5785987,99.906296
1.6831739,103.36023
1.6681939,106.521515
1.7477028,104.77939
1.638047,109.97137
1.6535977,111.14226
1.6922691,111.85281
1.7026094,112.11991
1.596563,112.973785
1.6576151,113.15945
1.652459,114.78531
1.6567912,113.350815
1.534949,112.51103
1.5507351,112.59463
1.6355081,110.684845
1.6719018,117.93898
1.4746377,117.22549
1.4494253,112.66335
1.5103636,109.07671
1.370639,107.10502
1.2983342,111.05663
1.3287644,103.74828
1.2379504,105.65931
1.2804879,102.19746
1.2243794,106.00649
1.2243019,99.44928
1.256529,100.57767
1.20478,96.19624
1.162651,98.71733
1.1594591,94.223785
1.1519673,95.97247
1.0939523,89.6645
1.1582464,92.22096
1.0807631,89.38236
1.1321355,85.60178
1.0796928,82.85358
1.0452902,83.09727
0.95642895,82.8275
0.9531626,80.4328
0.8486655,80.021324
0.8470656,78.57902
0.8792513,76.7897
0.75599444,75.81936
0.6937695,73.88962
0.70670164,71.2551
0.67832345,69.74757
0.6330537,65.67083
0.572295,67.475746
0.53940654,65.11289
0.63100284,63.84852
0.604106,67.23157
0.4468243,63.07965
0.51944906,59.00461
0.53198475,54.096237
0.47675565,59.49323
0.5829726,54.124546
0.3706909,54.473038
0.4712421,53.20035
0.3937766,53.855446
0.38458982,54.1147
0.505234,50.795364
0.4493059,46.33167
0.28219807,52.904297
0.21658188,50.8425
0.22002558,50.758205
0.29116824,48.92242
0.34555882,46.905018
0.24339919,44.213192
0.08802748,49.127777
0.060439084,48.277042
0.04187963,50.179474
0.065389454,50.91735
0.00120929,48.912518
0.08095985,49.471943
0.08824957,54.506863
-0.049782258,55.518726
0.11730565,58.47766
0.12283937,59.12657
0.16020465,61.010162
0.14069135,61.486496
0.2921549,64.84042
0.4311711,64.49781
0.39004183,71.402916
0.48866278,71.48422
0.59886813,74.216576
0.5983408,76.47639
0.76088715,78.14589
0.9691465,83.77588
0.90726167,85.92078
0.9544924,83.73789
1.0629568,90.02384
1.2443402,93.77456
1.151123,95.33122
1.2126733,94.76361
1.2680331,101.29141
1.32694,103.437996
1.2241598,103.523285
1.3644489,104.32347
1.4044163,108.30662
1.3544261,106.606
1.3047277,112.067474
1.3579918,108.6809
1.3834038,113.29013
1.3006866,112.18294
1.4253556,113.86207
1.2774761,115.86118
1.3423387,113.09122
1.4176602,114.98504
1.2434397,114.22989
1.2246357,114.80822
1.3065842,112.195404
1.157128,109.667595
1.1260927,110.15696
1.1492562,111.72695
1.1190196,109.99338
1.1027803,104.88927
1.0619285,104.99631
1.0333191,101.3574
0.98062414,102.69799
1.0226591,101.672356
0.9878326,100.45504
1.0536321,96.67952
1.0006604,97.31929
0.92541236,100.65221
1.001579,96.19775
0.8382087,97.61005
0.8955305,92.181816
0.873589,86.2376
0.9612827,88.44396
0.8452531,84.1066
0.881863,83.139015
0.7571574,82.87988
0.82625604,81.82153
0.6634771,80.95829
0.7733804,78.8452
0.6906187,78.12608
0.6236533,76.74031
0.6769744,72.0105
0.57058066,71.66374
0.51951766,71.76378
0.5504219,70.43383
0.45305866,72.36907
0.4288075,64.74826
0.35722598,67.00952
0.40537483,65.89185
0.30697757,61.021305
0.38255084,62.88258
0.32484144,58.894592
0.2988022,61.30252
0.3373389,58.408703
0.38755244,56.315372
0.37037602,53.027676
0.3821222,52.07067
0.3118307,51.676888
0.26418608,51.013737
0.44030052,48.703648
0.3508161,48.460373
0.3062154,45.55088
0.17711742,47.72414
0.14855276,44.25122
0.2037195,47.077213
0.17189588,47.9853
0.070167474,46.306034
0.09350755,48.060688
-0.0049966048,46.172977
-0.038107324,46.930973
0.0065605827,49.133385
-0.051735837,46.813896
0.041251395,50.180622
0.0065307287,47.91231
0.050248448,55.043728
0.0013995328,53.650337
0.046900682,58.457233
0.087488286,62.1111
0.21497793,56.86096
0.33185375,62.542133
0.3593602,64.332436
0.3778842,74.14345
0.6000025,79.98474
0.54918206,75.54667
0.7335884,72.70113
0.7200368,82.35365
0.8893035,79.30995
1.005234,86.75609
0.96884125,92.26094
1.1727068,91.23418
1.1689186,93.74811
1.2676955,94.83216
1.2795222,97.11551
1.3662244,100.15445
1.4567715,102.760666
1.4457699,102.31025
1.4614072,105.655014
1.4491299,108.43765
1.3900532,107.78148
1.467904,112.52538
1.3853899,114.80148
1.4890317,112.29875
1.4656824,108.60811
1.4446164,111.998405
1.444268,114.28226
1.4055978,115.23751
1.4387205,115.39643
1.4400468,118.71183
1.3406377,111.356544
1.4397161,112.60643
1.4065603,110.707565
1.2186424,108.40628
1.3426361,108.54283
1.3618655,109.472145
1.2905873,105.00762
1.0931706,104.639725
1.1242813,101.53678
1.2557573,105.17376
1.1853492,103.02584
1.1643051,102.19476
1.169169,99.29732
1.1640925,102.183716
1.048142,93.71003
1.1283035,95.371735
1.010986,91.70556
1.0830643,88.24714
1.0867854,87.31684
0.9232895,84.72616
1.0129865,89.151886
0.9729883,80.368675
0.98065364,84.68843
0.90159446,83.01168
0.7950092,78.00879
0.820813,83.213264
0.9153975,72.470314
0.9175345,77.722115
0.73255503,73.63381
0.8687335,73.78585
0.7922338,74.693886
0.6778562,67.082664
0.5751817,68.75367
0.68476605,70.56265
0.6406032,66.94508
0.5895015,65.89819
0.6136977,67.61063
0.61064607,62.116123
0.64090633,53.49699
0.57488674,63.53713
0.66186816,58.145992
0.61693716,58.57086
0.5877641,54.701786
0.6009661,53.969727
0.55999243,54.40133
0.61180216,45.8527
0.49046874,50.280834
0.49618757,48.071262
0.61382115,45.41353
0.5553813,50.567123
0.52236754,47.097748
0.4428572,49.282383
0.43012318,47.50209
0.42722338,47.454155
0.3298615,46.479023
0.32359296,44.952526
0.36098298,49.71953
0.17667094,46.589233
0.32829338,50.121273
0.29052004,50.233425
0.19821286,55.047825
0.39117223,53.95597
0.44014698,56.198177
0.39373925,57.11136
0.445027,60.540936
0.56090003,64.92648
0.54362476,62.432392
0.63245505,66.78715
0.75571144,70.67296
0.8683325,71.43921
1.0105518,76.621315
1.083063,74.03569
1.1164187,78.07267
1.1998211,84.96219
1.3175178,83.29521
1.3517723,92.22136
1.4687134,91.88854
1.529223,93.26425
1.6022797,95.84642
1.6867481,99.06827
1.6615868,97.440895
1.6986892,104.10876
1.7699208,103.732315
1.718743,105.34915
1.7823387,107.69452
1.7457838,106.06149
1.7606636,109.04064
1.9038284,111.12813
1.8277371,115.16294
1.771283,113.41819
1.8952043,111.908104
1.7263075,111.4368
1.7899204,112.391594
1.76985,110.67492
1.7650448,110.418594
1.7998551,114.02773
1.866213,110.401245
1.5952562,110.240746
1.5783507,111.44013
1.6231539,109.56532
1.5854095,109.39474
1.4100755,107.377075
1.5084245,106.282364
1.5440518,103.280396
1.4794068,103.61911
1.4108732,97.771225
1.5079867,98.42777
1.4187582,101.294586
1.4522191,101.26067
1.5309095,92.82991
1.4251703,97.7333
1.4442476,90.999626
1.4543881,88.92353
1.376633,87.683235
1.2834612,86.22532
1.3734848,88.87225
1.3977547,83.63158
1.2624265,80.42816
1.1495342,82.42097
1.2497215,78.51633
1.2407937,80.298996
1.2088633,77.9032
1.2278126,75.613464
1.1726027,76.364784
1.2045037,76.269356
1.0634489,71.233894
1.0108098,71.13045
0.8690902,71.47039
0.8909081,69.50732
0.9896807,62.249687
0.89308566,64.81556
1.0018045,63.497337
0.91377455,58.820007
0.79523206,59.630524
0.8929019,57.012222
0.86875564,58.541607
0.8894589,55.041862
0.84377265,54.25999
0.8985678,54.900173
0.7926995,54.013577
0.9033849,54.230255
0.95585793,51.040257
0.84391564,48.55896
0.8482225,52.214336
0.80824304,51.052673
0.75153387,46.11659
0.81200814,50.245586
0.69621766,49.259468
0.54346347,49.36474
0.60039026,50.46264
0.5630615,44.458008
0.591024,50.703926
0.545642,50.577717
0.5227637,53.31809
0.55046433,50.88818
0.5072625,51.86366
0.5105761,56.773613
0.6146392,57.94308
0.66911155,56.282677
0.73335296,58.344078
0.7697166,60.731323
0.7860266,63.882263
0.9164868,65.944626
1.0360855,69.621994
1.1286379,73.06789
1.1467865,78.39425
1.2606126,74.38919
1.3349379,80.48772
1.4458529,83.28499
1.4407945,80.69504
1.6025041,88.84746
1.6180972,91.83653
1.7883505,94.65386
1.7371845,95.164635
1.8586854,100.87138
1.8023708,102.27636
1.8826613,106.60729
1.9350543,103.03415
1.9376576,105.20462
2.0322685,110.87624
1.9213066,109.489624
1.9156241,108.73723
1.9075004,114.324234
2.0179498,111.711784
2.0876899,111.59203
2.0125575,111.39051
1.9583653,112.26385
1.8867575,111.69732
1.9169714,116.22993
1.8506486,116.31399
1.7975886,112.33323
1.873671,113.800766
1.7407724,111.2317
1.7904615,110.85043
1.7432506,110.03777
1.8450519,107.13039
1.6841679,107.69181
1.5304186,105.400475
1.6263777,101.25426
1.542376,105.570076
1.5217563,100.80401
1.639707,99.127785
1.584103,102.5548
1.6107373,100.40854
1.4446018,94.9318
1.431897,97.17585
1.436913,91.22325
1.4376839,94.51383
1.4459627,92.65889
1.5014852,87.22895
1.5596389,83.96921
1.3724328,85.30869
1.4070712,82.43346
1.5063007,82.81078
1.3225172,80.649826
1.4093359,78.94074
1.2632563,77.47277
1.2458583,77.064575
1.1668464,74.716415
1.1742212,74.36506
1.0512846,72.077995
1.1161044,70.23129
1.028135,69.442
0.86130154,68.87305
0.9308288,65.30034
0.9375181,63.169594
0.96187687,64.67998
0.9489042,62.190063
0.937534,61.164906
0.85841125,57.936554
0.92053086,56.571255
0.9001425,57.640438
0.86981875,53.042248
0.91053313,50.670334
0.86441106,52.220394
0.8538532,46.518883
0.9514006,50.363174
0.7911854,50.483616
0.7713576,48.79299
0.73971945,52.360455
0.6588423,44.571125
0.62835115,45.674664
0.6076982,45.0531
0.5038432,47.1163
0.48166254,48.11877
0.517156,46.945427
0.44410637,46.875774
0.45305577,48.818268
0.516323,44.89947
0.39546266,47.888268
0.43904263,53.185684
0.43030784,55.819195
0.5085549,55.05173
0.51406205,58.58222
0.50301504,61.023106
0.73583823,61.60319
0.7856486,66.31725
0.8424999,71.039635
0.7972676,68.705635
0.8574126,73.87205
0.9706321,78.882965
1.1704987,80.10871
1.1986623,82.975075
1.2485054,81.668076
1.4472909,89.09405
1.4283401,85.43935
1.4484035,89.70595
1.5133908,92.29178
1.5667595,95.57541
1.5638433,98.516365
1.6506103,97.94774
1.6851883,102.32579
1.7574787,105.75749
1.7128417,106.47459
1.6900835,110.679756
1.692489,111.44163
1.7393622,106.4077
1.8537853,111.94258
1.7133934,110.14508
1.762044,113.698456
1.714065,114.84493
1.7945758,113.220726
1.6241219,114.73883
1.712172,112.79106
1.6112272,109.602585
1.7367752,114.87269
1.5729082,109.828606
1.5913012,111.09188
1.416438,109.61555
1.4411407,107.28366
1.4952599,105.31126
1.51675,111.24682
1.5133094,104.247826
1.4263133,105.14327
1.3280617,103.97686
1.3394934,99.0633
1.2094802,100.273834
1.2483317,101.36807
1.306351,100.638695
1.31471,93.463264
1.2702528,92.491005
1.2326913,96.53509
1.2376211,94.42732
1.138383,90.502235
1.1747929,91.26642
1.348035,87.15484
1.2652996,85.51805
1.0732522,86.22122
1.1237451,81.978386
0.98377967,85.06631
1.0000044,78.071365
1.0481356,80.037155
0.8535606,77.137764
0.8395192,76.56745
0.86829114,71.16902
0.808261,70.02373
0.6519117,69.07952
0.7599354,70.274895
0.68480873,68.92456
0.6242372,69.5401
0.5909444,62.168182
0.601804,63.13931
0.46811152,60.141262
0.5901572,60.08234
0.5783997,59.72195
0.44812268,56.537926
0.51366776,58.338596
0.5594247,52.035965
0.5820755,54.472477
0.4499258,53.1278
0.49396378,54.26022
0.4501085,54.190063
0.40391657,46.500637
0.40542638,47.788647
0.41653025,45.88388
0.35093313,49.038673
0.38257787,46.352818
0.2348151,46.926933
0.2151033,49.595005
0.29532704,48.321754
0.17953295,45.263737
0.15107249,49.701374
0.14787935,43.140785
0.13468069,50.543037
0.12641142,49.61678
0.19966662,48.785652
0.11631007,56.93829
0.131142,53.53926
0.29581246,59.894768
0.3066745,61.37444
0.274936,64.19631
0.324103,64.49602
0.44651464,71.53683
0.6018174,70.39415
0.7562904,75.45538
0.66630876,76.39289
0.75670344,80.18166
0.8802681,81.54105
1.0060692,78.11166
0.9664505,86.2086
1.1575698,86.50442
1.1227367,90.73368
1.2484524,94.941536
1.216787,95.47405
1.2223306,96.19857
1.3434784,100.11138
1.3197609,104.22875
1.4019189,103.22204
1.3955863,107.718445
1.3419926,109.603546
1.4696746,109.04116
1.495876,111.8662
1.3758066,113.73426
1.4051989,112.17492
1.4322712,113.706375
1.463783,115.069664
1.3901198,113.74413
1.3855326,115.79805
1.3484255,111.11796
1.3413697,111.08552
1.3058462,114.867165
1.314039,114.37267
1.3453857,113.46138
1.1041075,111.45177
1.1411549,110.418304
1.2116414,109.687904
1.2324517,106.83334
0.9546472,101.26607
1.0374796,105.913956
1.1154792,107.435776
0.99159014,99.03101
0.98972124,98.56841
1.0303247,98.25335
0.97513753,94.123985
0.98420656,94.50476
1.0143545,94.338036
0.8691852,89.39047
0.77497077,90.748
0.88534194,84.10021
0.887987,86.38698
0.9283546,87.60546
0.9040813,88.08982
0.97520304,82.669754
0.7899979,85.880516
0.75744045,84.06902
0.77976704,75.49
0.6546402,77.07751
0.65344775,77.03639
0.65743667,71.81858
0.567491,70.20517
0.5633528,73.22247
0.49387312,70.16503
0.42538986,72.03217
0.31955048,67.90678
0.37461448,67.207886
0.35266212,65.51244
0.2829039,64.295135
0.3373026,61.797123
0.3184696,60.2383
0.3143362,59.748375
0.3194827,54.75161
0.2489836,56.12642
0.2859399,55.855965
0.24370828,55.289623
0.38271546,52.375004
0.29201034,50.310204
0.30744237,49.649475
0.162264,50.386444
0.12615019,52.023125
0.18414365,46.83864
0.15637009,46.958584
0.218584,47.96617
0.1714963,46.330593
0.025533691,43.431725
0.020843314,45.683258
0.009208429,47.172737
0.06886718,51.085716
-0.09587846,48.544403
-0.08593532,52.24902
-0.08913915,51.4666
0.01770653,52.961334
-0.0350867,51.006207
0.03320156,56.240177
0.056262385,58.309467
0.09206712,62.82777
0.2459142,63.394047
0.25641626,64.95317
0.41902882,65.17452
0.44640383,69.46846
0.4963632,72.46301
0.58976346,78.921
0.73952514,76.93004
0.83681303,78.04377
0.8126146,84.10529
0.97733253,87.08006
1.0023421,87.52806
1.0152129,96.317276
1.154032,90.21578
1.1611087,96.28989
1.1348118,98.599594
1.2533308,99.46365
1.2000493,102.34726
1.3317642,104.01912
1.2511382,107.258896
1.3757392,105.97747
1.4567447,106.2562
1.4513345,113.44567
1.4024768,112.355286
1.4489923,110.331825
1.4254278,110.57647
1.4403118,113.61802
1.3240272,114.72842
1.3756553,111.49635
1.3506999,118.306305
1.2605247,111.99964
1.3325435,117.69302
1.3266803,109.77601
1.2616774,111.28807
1.1365509,113.62657
1.3032831,113.82547
1.1694794,107.727295
1.2685188,107.94941
1.0595005,104.38681
1.1259782,104.60362
1.0230657,100.92873
1.0421147,99.768776
1.0159733,99.85662
0.95575017,100.10027
0.94144523,95.69405
0.8924544,98.714325
1.0706935,97.27154
0.9985693,92.794624
0.9978362,91.75356
1.0361589,88.61112
1.0607315,88.669975
0.86350805,83.62299
0.98693776,82.32416
0.95562816,86.5808
0.77692115,82.29296
0.85244733,81.154625
0.7518894,77.161415
0.7597792,78.141106
0.85379964,79.73167
0.7825361,73.167305
0.61631286,73.97812
0.7307957,71.81157
0.76735663,72.4097
0.51685995,70.75007
0.561539,66.21845
0.5551725,62.18339
0.44786867,62.902493
0.5491813,65.60615
0.6111459,62.836483
0.468201,61.393055
0.5142573,60.276917
0.5735244,58.525505
0.48660237,56.610126
0.43454522,54.689194
0.51789033,51.568844
0.4903123,53.276062
0.5347394,51.016228
0.5182285,49.614147
0.5126023,50.711933
0.35401094,50.367928
0.4527963,49.345436
0.40488866,46.077744
0.28055963,46.09244
0.26697806,48.604862
0.25390193,48.432514
0.29842907,45.94752
0.121992715,46.327164
0.074259445,45.97559
0.22354454,49.599937
0.21970265,51.917202
0.19696532,50.901833
0.23026907,55.33287
0.22437735,55.579586
0.2021857,56.27352
0.34385845,58.532776
0.33219078,62.313335
0.4537423,64.192764
0.46293712,64.36814
0.5565666,71.89324
0.69431525,70.715004
0.8173949,69.51948
0.798807,77.07504
1.0107069,77.97555
1.0614938,82.53945
1.1096247,81.80323
1.1745018,88.79746
1.2510077,89.506516
1.2710866,95.06869
1.4193164,98.19882
1.4624705,97.502365
1.6403583,101.859474
1.5430409,98.93862
1.6693801,102.22889
1.6499876,107.296
1.602592,104.01764
1.6689837,110.9097
1.6372117,112.16548
1.5435622,114.097244
1.7573344,109.23254
1.7439435,114.462036
1.6977966,110.85615
1.5860354,116.772285
1.6903275,110.04528
1.563539,111.69978
1.6829829,111.04619
1.6162561,114.92087
1.6549922,113.61886
1.6959633,111.649635
1.5462161,112.26956
1.5771188,107.158325
1.4733546,106.61727
1.5298618,107.646935
1.5419403,107.362564
1.3551557,102.50595
1.4384701,105.43925
1.3758748,101.20984
1.474806,98.59592
1.3495191,97.56083
1.2538859,97.8099
1.3902044,96.5144
1.3518643,97.32529
1.2969741,95.54702
1.2294592,95.50971
1.2202202,92.652916
1.4028888,87.568695
1.306412,84.42078
1.3336362,86.14239
1.3160298,85.76888
1.2519549,87.01738
1.2149036,80.9144
1.201976,81.34486
1.2013218,78.9744
1.2478786,78.3744
1.2396079,75.84431
1.1129348,73.96286
1.063347,76.65538
1.0316707,69.53536
0.92722625,69.19308
0.81863946,70.68957
0.9681996,68.833466
0.8435528,69.35572
0.9156978,65.28675
0.9194951,61.58361
0.8292534,60.686543
0.7759747,61.558033
0.80003226,55.694347
0.8471592,58.06241
0.8717459,53.941776
0.7932653,55.94113
0.8286785,54.955784
0.7674674,58.30579
0.83347845,50.7049
0.76770663,48.2453
0.7381794,51.095173
0.7524777,53.09206
0.7122088,45.797474
0.5841658,42.925766
0.61410606,48.60389
0.57483673,45.273613
0.62686,48.876213
0.5707121,42.982426
0.59455764,48.36864
0.48145053,48.060894
0.3927649,51.063488
0.46783715,53.051487
0.4638752,49.834034
0.42410484,55.370182
0.5221852,53.974102
0.5963328,55.11901
0.59375674,58.837925
0.6960112,60.005447
0.8003213,67.08849
0.8365157,63.32837
0.8909671,65.83287
0.8531319,69.42639
1.0126808,74.43999
1.1583986,75.28653
1.1527618,80.14695
1.2683495,77.410614
1.5061733,85.13655
1.4342172,89.521576
1.5784909,90.30091
1.6460567,90.78513
1.7466779,94.15199
1.799155,98.9145
1.7649047,101.20293
1.8628628,103.10993
1.7690948,105.36614
1.9825908,104.26932
1.7938205,107.456245
1.9675138,108.367744
1.9587117,110.514786
1.9186428,111.97281
1.9028708,112.23509
1.9553428,112.72918
1.8636156,111.78563
1.8290253,115.5377
2.009154,114.15687
1.9255571,114.160706
1.8245807,111.11993
1.7535197,111.61026
1.7146865,112.63834
1.8988225,110.73848
1.8270304,110.87214
1.7805572,109.73346
1.7617944,108.81062
1.6925191,108.864395
1.5705527,109.21392
1.6720233,105.77926
1.5337515,102.25574
1.5773582,102.35726
1.5724621,101.39693
1.5586666,98.90152
1.5077167,100.14272
1.5266767,100.34648
1.4829941,94.919624
1.5729698,97.99036
1.5140251,91.99059
1.5106223,93.893036
1.4161192,88.48487
1.5194176,87.16856
1.5221999,86.56068
1.3493646,84.96625
1.3619616,82.75818
1.271414,80.39562
1.2245195,81.033875
1.4108257,75.69317
1.2295891,73.77615
1.2376353,76.063
1.1983708,74.28778
1.1691362,73.07568
1.1730787,66.726875
1.1464436,71.71054
1.0146208,69.99345
0.8848459,66.93901
1.0220408,66.45656
0.9779359,67.70238
0.90093935,61.51122
0.91871244,63.039257
0.9395715,62.383137
0.9418852,57.078823
0.9262874,54.859577
1.0106157,53.56275
0.8666425,55.334534
0.86230546,50.739353
0.9582033,53.412144
0.7716206,48.391888
0.87123966,53.666004
0.934155,46.561897
0.79690224,49.635498
0.7429325,47.43322
0.82525915,47.661125
0.75977033,48.84129
0.73632896,48.339428
0.62519115,49.130405
0.5673812,50.829834
0.5278876,52.02029
0.5081497,50.38228
0.4917556,49.457203
0.51229584,53.35278
0.5179135,53.13279
0.5633489,54.21022
0.5807199,52.113953
0.4817822,55.71711
0.642965,60.32791
0.7976699,62.865013
0.7897929,59.847088
0.85181135,62.53051
0.85364395,65.398506
0.96536833,70.14357
1.086743,70.89025
1.096615,80.56579
1.2089764,79.8133
1.320334,79.448456
1.4240854,84.957664
1.4265563,85.28247
1.5426974,89.846535
1.5144236,90.133736
1.6536218,94.68728
1.5932543,96.97137
1.8052229,101.4433
1.7405977,101.46454
1.7509029,101.33475
1.8643814,108.78067
1.8060389,104.148445
1.8871905,105.40673
1.8761431,113.02993
1.8424244,113.532166
1.7682261,110.860115
1.8802686,111.04219
1.8758332,114.126114
1.8585602,115.31961
1.7298902,114.7401
1.8369108,115.72936
1.708097,113.65191
1.7386198,111.985855
1.7047596,110.98903
1.6134268,111.70999
1.6442173,111.39684
1.5970898,111.574265
1.601003,111.899765
1.5529011,108.21849
1.4538233,105.804825
1.3982725,104.620636
1.4584695,102.3782
1.3650657,101.31204
1.4308146,103.21215
1.317275,100.36987
1.3634168,96.12177
1.3647611,97.551094
1.3355345,97.47053
1.4067203,93.38283
1.2065891,96.72425
1.3176508,90.83197
1.3255497,85.78662
1.2119905,84.137665
1.2036943,85.71364
1.1512185,83.74856
1.2119014,85.826
1.2286726,86.502884
1.1243458,76.06848
1.12285,77.67856
1.0232669,79.48138
0.97367966,73.79323
1.0204613,77.6816
0.9175915,69.56885
0.9082051,70.3374
0.85505635,71.22795
0.85007066,67.17497
0.7669045,64.32478
0.71694756,60.327168
0.51034725,64.15048
0.6293106,60.251633
0.6227876,58.886147
0.65836847,59.585934
0.7037342,59.037125
0.6812353,58.90893
0.6070705,55.72374
0.6372396,54.21155
0.5533441,53.148643
0.5371026,53.613316
0.4718236,53.077084
0.68555224,49.29152
0.50276476,50.18299
0.48292637,48.86705
0.33197615,47.18234
0.55661756,44.96086
0.32231897,47.219944
0.3945086,45.010406
0.44019613,47.235023
0.23034918,45.432526
0.16059746,46.13266
0.15862468,50.776787
0.25247326,44.85469
0.21469513,53.0334
0.3050823,56.27577
0.23850839,51.533424
0.25718954,50.64413
0.16718747,59.450287
0.3039546,58.540985
0.34062222,58.593628
0.40896672,57.345116
0.50239116,69.303604
0.5161606,68.452896
0.71354663,71.317535
0.7968397,71.51507
0.8497304,75.26797
1.0168003,82.303825
0.98691547,79.5422
1.105147,82.72192
1.1352893,85.94265
1.1955487,90.75973
1.2280594,93.22268
1.3686082,95.58984
1.3404199,99.71086
1.2964813,102.55464
1.4225823,99.64864
1.4924982,106.22968
1.2904986,105.917206
1.4066057,108.36967
1.5893419,109.792984
1.5312742,106.03117
1.4441789,110.67492
1.4506462,106.89192
1.5311136,111.236336
1.5131665,113.790276
1.3529911,108.71058
1.4752499,115.36523
1.5021878,113.54259
1.3577143,113.71958
1.4270854,111.299446
1.454734,111.11524
1.4655579,116.21774
1.2608382,107.20642
1.3007914,112.38943
1.2283181,112.2087
1.233964,106.664375
1.1402246,107.24196
1.159126,104.5188
1.1425256,107.829025
1.1097543,103.56896
1.0995882,103.83324
1.1165638,99.33486
0.9812888,97.858505
1.0787567,96.76117
1.0270444,91.04013
1.1342639,98.43061
0.8969363,93.60063
0.93659,90.08195
0.97008264,89.277916
0.85536075,86.706116
0.9372994,89.27154
0.81885123,85.14554
0.8438573,81.04363
0.8219356,81.25193
0.8465974,80.08798
0.7630236,77.48855
0.6784326,76.99716
0.691319,75.918144
0.6488858,74.28677
0.63335085,69.7008
0.56016177,68.47463
0.4252126,68.4307
0.53554326,67.60582
0.3919364,65.17562
0.43604556,63.925114
0.44325396,64.53033
0.37365112,61.439213
0.39314207,59.710606
0.4566267,58.120384
0.39497682,56.41451
0.43697953,53.62847
0.40954843,57.75053
0.32000858,51.565136
0.29403564,49.22096
0.33532482,53.883366
0.2687812,54.138603
0.4028826,51.03115
0.21043317,48.09676
0.22057658,50.022984
0.2371455,46.78958
0.21105228,44.505962
0.19213209,48.79272
0.02316071,42.020855
0.08979464,46.934345
0.030866334,45.699825
-0.005280481,47.836338
0.0029290668,47.808685
-0.0039264937,49.914555
-0.048835684,51.91448
-0.07009677,50.758045
-0.02823924,56.791897
-0.01189323,52.331284
0.07659108,57.88273
0.13253258,57.711224
0.17603524,63.50501
0.21009941,65.585556
0.29041874,64.84335
0.26714087,71.19998
0.42612347,70.85513
0.44283128,75.22699
0.6792246,77.78895
0.7609171,78.787346
0.9109754,78.11142
0.9411902,86.94742
0.94420516,85.31012
0.9698667,91.8293
1.0868404,89.32334
1.1417576,96.80214
1.2350178,98.47959
1.207396,101.51666
1.2913247,101.1369
1.2126614,103.30307
1.2236117,104.28911
1.3737526,102.845024
1.3979807,109.68018
1.4954967,108.362144
1.2786154,111.68536
1.4069597,109.74701
1.3447373,113.70817
1.3659309,114.85837
1.2993001,112.67675
1.2505015,114.808235
1.3802518,115.918884
1.2416664,112.52134
1.2895975,111.37338
1.3439947,111.91453
1.1950388,112.610115
1.1852883,115.927986
1.2074002,114.6794
1.1181749,107.7499
1.150125,109.53612
1.1537291,105.745575
1.1432458,102.42741
1.1163998,105.639824
1.05655,101.3166
1.0091261,103.36377
1.0786119,101.30866
0.88400686,95.87076
0.92998147,97.814064
0.9035358,94.58146
0.9046237,94.27077
0.8830422,93.247635
0.9903767,90.47617
1.0444204,89.77115
0.9997154,87.75297
0.88581747,85.88942
0.90328234,85.421646
0.8761822,85.0915
0.7444349,83.59263
0.75611055,79.473526
0.69738704,80.96352
0.79262877,75.40449
0.77116406,77.07489
0.6953876,73.16715
0.57310694,72.31223
0.56244946,73.42821
0.49773425,67.87749
0.61202025,65.97175
0.4488551,66.14131
0.57594097,64.58822
0.47785333,62.877056
0.42378366,62.240875
0.43027276,61.21265
0.5540519,53.453014
0.40199414,59.04065
0.35245955,55.057686
0.35285577,55.6247
0.3237802,54.79667
0.4227179,51.335384
0.49638224,48.956566
0.42372617,48.946014
0.36297536,51.785526
0.40506792,49.309128
0.32303143,45.372673
0.3836525,47.643898
0.25831902,45.94042
0.29133347,47.264812
0.2572972,46.48695
0.18002865,44.73982
0.15733127,46.09629
0.041607082,43.707005
0.13729523,49.865536
0.028624447,50.408802
0.061059695,52.41741
0.15293269,49.56755
0.07668163,54.337467
0.10247464,54.884903
0.21645272,55.58736
0.29894146,61.411633
0.26881993,61.40706
0.3303529,63.21022
0.3649032,62.49934
0.5359716,68.79792
0.63766485,73.48045
0.7591968,75.84831
0.8401013,78.17886
0.89932644,76.13242
1.0592135,86.11043
1.1377776,89.17907
1.1364573,90.16776
1.2360274,89.67082
1.2970943,96.10544
1.3611854,96.83247
1.3950764,96.82198
1.5070755,105.06492
1.4658694,101.13619
1.4889095,102.826775
1.5545834,107.71105
1.5946747,106.78648
1.6947676,108.270805
1.5342782,107.59735
1.6166604,108.29702
1.546082,114.49141
1.6321474,114.06302
1.6231701,111.61013
1.5962403,113.88853
1.581791,109.00851
1.573374,113.52731
1.539333,115.165375
1.436378,112.65364
1.5029482,113.35281
1.5147085,111.20739
1.4859062,110.32531
1.4228021,111.3233
1.4172462,108.1747
1.3471003,105.361916
1.3940955,106.17339
1.3884766,105.83392
1.3530744,104.64393
1.2648468,103.18602
1.2907126,101.44329
1.4265149,99.09983
1.2649915,99.60735
1.2394258,96.696365
1.2691724,96.04074
1.3139857,92.875206
1.2534745,94.23251
1.2330079,86.05059
1.2064428,87.6367
1.2116687,89.05518
1.0905236,85.16544
1.177883,87.52949
1.020821,82.05805
1.108301,82.45137
0.98747605,79.33332
1.0504817,80.54903
0.9791388,75.67305
0.9367136,75.424805
0.9633312,75.14833
0.9041304,71.741234
0.76750773,71.14048
0.87691206,71.869576
0.7443253,68.24938
0.79302263,68.09471
0.70914984,66.48113
0.7041334,61.187214
0.86532575,63.64604
0.71644104,61.802513
0.79845375,64.77105
0.76469237,57.130634
0.7217665,56.341995
0.7957282,54.76574
0.8384975,53.17882
0.69632363,51.05531
0.76064295,51.777943
0.6766064,50.969315
0.7698907,48.6075
0.7957699,51.4828
0.5651346,50.51925
0.6257694,47.112312
0.7190939,46.382126
0.6041198,45.761368
0.5966254,46.653526
0.47177333,50.399826
0.44541928,47.77689
0.61841905,47.747932
0.35744986,49.284515
0.45439026,52.50249
0.4871685,50.011795
0.42725435,49.52365
0.47023952,53.531784
0.5169887,56.64385
0.44637883,58.190105
0.6450141,56.75446
0.64428055,64.17261
0.7113338,64.92169
0.8441801,66.29729
0.8968474,70.408165
0.90370977,70.41348
1.0942003,74.02741
1.091391,76.54513
1.2129616,78.64429
1.3019881,83.53633
1.4418013,84.55599
1.3636647,88.736084
1.5108199,91.192215
1.6211555,89.79968
1.6076688,94.027916
1.7533195,103.148865
1.6898152,103.33929
1.8387276,102.32796
1.8846484,102.96269
1.8706995,107.033585
1.8797948,108.49584
1.7899297,109.99267
2.022168,106.60685
1.9352256,107.93959
2.0116532,116.113365
1.982169,113.07405
1.9371612,112.64665
1.926444,112.970055
1.8013389,113.53531
1.89517,118.57905
1.8059247,113.28403
1.8073075,111.32211
1.8733015,111.96695
1.8890846,107.55083
1.7589902,112.75609
1.7535447,107.640076
1.6289574,106.75726
1.7031701,110.623535
1.5847391,107.199615
1.5566869,106.63554
1.588089,104.87508
1.6306356,105.08376
1.5053167,100.60004
1.5014352,102.46937
1.5738695,96.83618
1.5283396,98.939285
1.5458648,97.436874
1.4500763,92.69829
1.4986967,90.32418
1.481177,93.10761
1.5056158,89.89766
1.462167,91.333244
1.4343716,88.72438
1.4768848,81.96557
1.3745962,84.56878
1.3574346,83.34442
1.2988181,76.99362
1.3045695,77.19184
1.2549965,75.74664
1.2036188,76.98084
1.139702,75.24398
1.2146744,73.32189
1.2000614,76.020164
1.1384392,68.29575
1.02869,70.71185
0.9963979,67.66414
1.0482295,62.834583
0.9748393,63.29579
1.0086733,62.044678
0.93863803,60.698273
0.95270187,56.7044
1.0103736,56.505375
1.0020188,59.315075
0.8508601,54.61584
0.8970799,57.592026
0.9230291,52.801918
0.9651075,50.61549
0.96236694,51.29337
0.8513744,47.48533
0.88706625,49.56052
0.8248447,45.4775
0.8239928,47.371346
0.8146645,47.24963
0.7550013,49.46045
0.7108597,47.172855
0.6943903,43.04246
0.719004,44.38867
0.56219596,45.078182
0.6207134,46.88653
0.55554473,47.771584
0.46395016,51.752598
0.50973076,53.974884
0.5324776,55.42172
0.6206283,59.453415
0.70666164,55.205826
0.69502276,59.80704
0.70702577,59.114902
0.8395897,65.04729
0.85609734,68.286285
0.9563905,70.777214
1.1086887,70.193886
1.0600256,72.376945
1.1512362,79.39505
1.2375487,83.36173
1.3656533,82.886505
1.4722655,88.89267
1.487741,85.94843
1.6444056,88.697655
1.7050095,94.93641
1.7256148,91.60446
1.8031799,99.291756
1.8332742,99.14872
1.7907327,105.62239
1.81285,100.94608
1.8287883,103.89325
1.9271013,106.19892
1.913503,114.5941
1.9109551,107.49991
1.8201205,111.020645
1.810379,114.50932
1.9088311,111.218445
1.8872998,111.233665
1.8324497,112.92494
1.7913136,115.78149
1.7877258,113.33815
1.8686895,116.0388
1.7786312,112.54103
1.7024676,109.192924
1.6983067,114.19144
1.694207,111.66299
1.6691103,111.05965
1.6982266,108.671104
1.6982408,108.70588
1.556241,109.8292
1.5787597,103.82077
1.5352783,97.63979
1.5000439,103.26552
1.4177872,100.97942
1.4986917,98.459656
1.5104386,97.077644
1.3788059,95.67988
1.2931621,93.90011
1.3785169,88.34903
1.3874971,92.49577
1.513689,89.60096
1.371366,88.84148
1.4053848,92.12648
1.2568171,85.34819
1.2134582,86.996475
1.2765803,88.17966
1.2140465,79.92812
1.132782,77.982185
1.0558213,75.26059
1.1220418,80.273575
1.0797986,73.939
1.0777469,73.66728
1.0173023,70.77308
0.9261486,75.6051
0.88750595,72.81995
0.98251617,68.05174
0.9045646,66.81364
0.8106981,69.42137
0.87307364,61.71585
0.7079219,63.759052
0.7349015,62.55072
0.6765771,62.129017
0.7240034,56.72617
0.6644394,54.69862
0.808256,50.95117
0.6621602,50.639797
0.6558386,48.19169
0.7234712,56.45772
0.73237634,48.626183
0.6801364,49.359394
0.5661596,47.479065
0.6090945,46.14354
0.528367,48.65203
0.41968995,50.253223
0.5974345,43.573296
0.49396342,46.606743
0.40790784,47.155205
0.4628294,48.08094
0.31639907,46.357986
0.30440623,47.400623
0.27632198,51.18735
0.38459656,50.08142
0.37920526,53.78519
0.28665635,54.049007
0.41470522,50.331753
0.3159868,60.207016
0.47695795,57.241917
0.47075072,59.211212
0.5215639,62.329613
0.5921197,61.95611
0.7262946,68.99487
0.7159791,73.37704
0.93260455,74.59907
0.99725443,79.12159
0.9624878,83.51489
1.0899651,78.1225
1.124663,83.037186
1.1528395,88.10768
1.2905173,92.37673
1.2811159,94.78792
1.4288952,92.89726
1.4762026,100.68981
1.5601842,97.49407
1.4786528,100.57131
1.541746,106.103226
1.57324,101.83424
1.7079858,108.2692
1.5512298,108.375984
1.5607285,109.31056
1.5171024,109.14779
1.6137313,108.36898
1.626783,114.27008
1.6346772,113.78659
1.6219817,114.70365
1.5804965,111.65796
1.5270302,112.90808
1.4991263,116.48758
1.3682057,113.18805
1.4206457,115.241066
1.4934981,113.9717
1.4847131,103.45246
1.3847758,110.68725
1.2748238,108.80357
1.3568326,104.30989
1.290576,106.52661
1.2122813,106.162636
1.2633729,105.168144
1.0527406,102.42548
1.1471783,106.387886
1.1503423,95.4077
1.126958,95.40733
1.0548469,93.48715
1.0880806,92.69782
1.064057,93.50299
1.1097174,91.18568
1.1130742,91.091446
1.0092313,86.498405
0.996354,90.16605
0.88840795,85.15308
0.954704,81.79742
0.87916565,91.02369
0.87421983,83.79373
0.8161507,80.669365
0.76413226,81.94804
0.7488557,80.76011
0.7797992,77.63808
0.68693674,79.13053
0.65792733,72.18619
0.54107964,68.5676
0.5801726,64.83717
0.53519106,68.10286
0.4620002,63.42702
0.5209882,66.22385
0.43650198,61.67742
0.31682438,59.966576
0.42375335,63.45568
0.5023669,60.281555
0.44283733,56.757736
0.41544092,57.36226
0.4009837,54.136665
0.3765407,58.97022
0.41560867,51.425705
0.39602455,51.347816
0.3853194,51.156704
0.33508795,48.787586
0.37890804,48.482277
0.17823991,49.42579
0.1948076,50.156418
0.1410858,44.08141
0.2054913,52.34347
0.13665824,45.82619
0.065236114,51.172466
-0.022296436,47.15361
0.043796167,49.781174
0.0030393705,44.602787
-0.06870974,49.3561
0.041661985,54.7099
-0.1808735,48.66974
-0.040504485,53.097412
0.03530054,59.33036
0.049871538,59.268425
0.19156033,55.51308
0.22667032,65.03805
0.3141064,62.959984
0.26870292,70.02774
0.44051376,69.59803
0.5414633,71.04185
0.7446657,76.28661
0.69299316,76.661224
0.56380385,74.92291
0.8854283,86.92989
0.9627652,85.759254
1.036063,87.05674
1.0721769,90.95139
1.0761342,93.32358
1.2009157,99.9591
1.1869482,96.45374
1.2468133,99.76175
1.3149868,105.22938
1.3451976,103.60672
1.3608729,106.80708
1.335983,109.930046
1.2280182,106.76862
1.3165071,114.12576
1.3680748,110.05874
1.4145885,115.85559
1.4154872,111.37352
1.1887069,111.56891
1.3516457,111.215385
1.3048029,113.299385
1.3374878,110.75286
1.380869,111.06334
1.3380935,111.67625
1.213636,114.86402
1.3280784,111.54818
1.1995174,111.389366
1.1302087,110.825554
1.12481,104.06141
1.012779,111.63313
1.1152999,109.2248
1.0464357,105.73335
1.0224884,103.71604
0.9343824,100.283905
0.88797146,102.86345
0.8932619,99.67759
1.0237421,95.53589
0.86572826,95.852646
0.94247794,95.4657
0.8532389,91.43697
0.8932218,94.89241
0.95010847,90.7479
0.8480128,85.25916
0.80107576,84.97544
0.8760696,84.354485
0.86558497,83.25701
0.8473913,85.51647
0.75984406,79.525536
0.6150862,83.79685
0.7487243,79.09512
0.72523296,74.80413
0.6281608,67.9678
0.6938874,70.79047
0.5511433,70.9937
0.5154936,70.127396
0.451712,70.061424
0.43438464,68.24323
0.4882824,66.93487
0.36989084,62.177147
0.3369284,66.42533
0.3320842,60.07916
0.2911083,60.95313
0.32369483,59.52623
0.42279115,59.92455
0.3535584,53.126057
0.44245836,48.127014
0.36587065,54.036953
0.31844956,49.791397
0.19461736,49.218674
0.28278866,49.58677
0.38692486,51.470627
0.31219384,48.415977
0.26647177,47.46166
0.2468765,48.27113
0.16768345,53.96404
0.19574483,49.909172
0.16002205,44.948727
0.10448729,47.898952
0.1446515,52.696198
-0.0014753243,50.50841
-0.0036300912,48.993088
0.059585687,44.5328
-0.010634079,45.93059
0.050252005,54.369354
-0.04955866,52.16312
0.049242176,57.17451
0.166159,59.46993
0.17075115,59.29476
0.11033261,62.969986
0.25601488,59.28057
0.46252134,64.97959
0.3635752,68.72149
0.5663587,70.16325
0.72116166,74.42379
0.81988364,80.24227
0.7902896,77.9896
0.98471904,86.57801
1.0994685,84.916374
1.0647774,87.330315
1.1756374,93.82889
1.1971508,92.19122
1.3171296,99.34086
1.3980896,101.67473
1.4168161,102.841515
1.4400461,100.43895
1.56169,106.53039
1.3757832,105.81109
1.5015613,106.33117
1.539865,107.10113
1.4111961,112.6182
1.5529392,111.60876
1.5541936,114.97948
1.607527,113.4941
1.4858328,112.868866
1.5136235,115.18503
1.5370194,114.64376
1.494989,117.4275
1.4208015,114.956116
1.4525251,111.14804
1.4570446,114.67881
1.4298582,117.08402
1.3697613,110.33462
1.3655996,111.93082
1.2810218,108.355576
1.4173,104.1206
1.2698784,104.52528
1.2721276,103.87523
1.1568272,102.01352
1.2639533,101.93804
1.1939986,97.96645
1.1861933,94.53645
1.2270763,97.39611
1.069508,97.388954
1.1431086,93.97779
1.1048363,90.928474
1.1200695,89.807106
1.0927017,93.632065
1.20718,84.70477
1.1874555,87.78809
0.98204017,87.58378
1.0025882,84.7524
0.94764733,80.347885
0.9820469,83.49444
0.9567486,77.80367
0.9932685,76.50741
1.0148703,76.7991
0.94556445,76.91249
0.79387534,73.88596
0.88427377,71.307526
0.65239084,70.29533
0.77249247,70.50382
0.64198536,67.71819
0.7377839,68.34353
0.6022088,66.738655
0.5682704,64.06176
0.6828269,62.412884
0.61719346,59.932034
0.639027,61.561115
0.68558,58.10039
0.64205927,53.340286
0.7766747,56.919804
0.6760964,51.962795
0.63612443,50.857918
0.5601055,55.098488
0.732974,54.590374
0.6683415,50.9053
0.6345669,52.613586
0.6599579,49.187057
0.602856,50.257538
0.49648163,46.992764
0.46614268,45.188805
0.3854964,44.176582
0.4153439,48.3438
0.37075347,48.82212
0.23275359,47.97733
0.45773393,47.44183
0.33422634,49.135647
0.32216483,49.06701
0.21792695,53.00839
0.34336814,54.963642
0.44814363,56.774696
0.46314856,58.619617
0.5325224,56.255833
0.6001498,63.08959
0.57809675,68.70996
0.66074723,70.06672
0.8646835,71.48315
1.0633682,69.587975
0.9879201,71.96299
1.1386431,79.69138
1.2435374,82.59527
1.3783208,82.48403
1.4017932,89.983215
1.4706818,91.22339
1.3753144,90.3673
1.6276015,90.47806
1.5683926,98.177475
1.7105668,100.1873
1.7009866,100.32367
1.7655569,100.85173
1.7006699,105.36285
1.9628745,107.45713
1.8279862,103.56036
1.8995521,109.41685
1.7664136,108.51358
1.9094172,109.963196
1.8880959,112.69782
1.8307654,113.03813
1.9448788,109.184135
1.8741556,112.625496
1.7715487,111.56512
1.7789918,111.432594
1.756688,111.56343
1.7400303,113.13371
1.7176349,111.599976
1.7598877,111.01276
1.7431548,114.196884
1.6078652,110.60503
1.555113,109.11587
1.5566131,105.358
1.6446773,106.95894
1.5806128,109.069534
1.604447,101.96757
1.5280687,101.033226
1.5172979,100.94694
1.4963089,100.80249
1.4784119,98.94234
1.3689852,98.734024
1.5698335,94.35317
1.4999045,94.289154
1.3945589,93.666824
1.4405026,90.641365
1.4330144,87.50141
1.3832464,87.029015
1.4797988,87.13484
1.3656579,79.3427
1.3309783,84.49056
1.2471762,81.829575
1.2553153,84.237785
1.2086052,83.14088
1.240623,73.347755
1.1952876,74.53868
1.1168318,75.993965
1.0889107,70.41591
1.1244894,67.571945
1.0488871,69.871185
0.9345147,68.20494
1.0250032,67.24966
0.8592986,65.050865
0.8819282,62.42019
0.9459643,58.205936
0.95174134,59.975475
0.8947627,61.09351
0.8705414,57.331623
0.96471035,59.966415
0.8764517,53.52011
0.9229962,50.8459
0.8993857,52.09806
0.97127795,54.041904
0.86458546,48.923553
0.9214532,51.85127
0.8760274,44.96337
0.83471835,46.079365
0.89436275,43.488983
0.8285936,48.39379
0.7163079,47.917175
0.79453653,42.420403
0.6252664,48.405758
0.64707685,50.44409
0.5264449,47.614407
0.5462301,46.160984
0.5384017,50.979366
0.6387994,50.7123
0.55329937,53.520283
0.6232836,52.719597
0.60974944,59.646877
0.73574233,57.69072
0.64775705,55.71587
0.889159,59.198135
0.8846665,65.07256
0.9646962,62.447807
0.92899984,68.42055
1.073031,75.549385
1.1846442,77.97418
1.276537,78.256935
1.3739368,79.41502
1.5203704,81.754036
1.4685904,87.69529
1.52906,89.37744
1.7298088,90.10445
1.6776992,93.13638
1.6597488,96.50709
1.8032055,96.524925
1.9230181,101.25786
1.9598745,103.2911
1.8923162,103.21378
1.8949735,104.336136
2.096717,107.09003
2.0038335,112.833435
2.0287852,108.29109
1.9560027,112.71554
1.9409914,113.16783
1.8716722,114.48707
1.9428787,110.83252
1.9286076,113.00574
1.9224095,114.89433
1.9050907,114.87056
1.8140043,112.819275
1.8452654,110.306
1.8551757,112.116455
1.7789867,111.11324
1.6994123,107.13104
1.7572477,111.97673
1.652784,110.20905
1.5042444,107.960976
1.5494515,107.66756
1.6519971,105.09004
1.6042913,105.454094
1.590691,105.42087
1.4826591,98.419655
1.4931746,102.01365
1.3717469,96.75424
1.4954296,92.351135
1.4994112,90.911125
1.4678088,94.960686
1.4963363,87.91467
1.3812015,88.257614
1.393195,90.017044
1.3142092,88.09452
1.3454858,85.41712
1.4122173,84.282104
1.4433606,84.52049
1.3777499,84.277985
1.2760708,77.18193
1.2719831,82.03057
1.2102445,76.8137
1.108507,78.33003
0.98738897,75.41377
0.9653752,69.55893
0.96892935,67.44879
0.9651485,71.76956
0.8342125,67.62174
0.91552716,63.75513
0.8431469,59.152023
0.8078711,65.04116
0.8013764,59.121044
0.7665195,57.292904
0.7764038,56.17767
0.84774065,60.863438
0.8603665,56.45368
0.80728984,54.616653
0.89676535,52.75445
0.8002212,48.601555
0.73914796,50.02311
0.76927227,52.391518
0.76001465,52.307392
0.90934074,52.626198
0.6939942,46.317116
0.6685445,46.585247
0.57681686,46.715126
0.6033181,45.971478
0.5596879,49.152355
0.54935336,48.10275
0.48842728,47.07749
0.40868482,45.8305
0.34866682,51.025692
0.44769052,50.63942
0.32849184,50.18721
0.37690035,54.272205
0.25689942,55.10266
0.36823478,57.05061
0.5735805,58.297916
0.5480064,63.731834
0.603918,64.13371
0.6293369,68.875305
0.72997963,67.404274
0.8351035,64.798355
0.8912457,71.13578
0.9626772,72.03084
0.9880005,74.732895
1.094511,83.138245
1.2657171,82.36612
1.2116162,84.92349
1.4517344,88.08047
1.4733524,93.28337
1.4827981,94.93475
1.5131174,96.00269
1.5899171,98.391365
1.6407849,99.31955
1.6637461,107.25791
1.6716952,102.8295
1.6327916,110.71341
1.6399806,108.89605
1.6992383,109.70978
1.6803083,111.31849
1.727381,110.92735
1.7293475,111.55325
1.6526457,115.598335
1.6702957,114.172386
1.6367145,114.3857
1.6245282,114.56581
1.6554124,110.45692
1.6059955,112.15491
1.4545647,115.72989
1.5612584,109.77737
1.5385498,111.70935
1.4473852,108.1465
1.3897069,112.07635
1.3880303,108.00875
1.4287734,108.0733
1.275715,104.24002
1.3573815,103.959755
1.270175,103.21995
1.2815593,101.42207
1.2337863,96.06819
1.2348866,96.8751
1.1153829,91.54847
1.0934792,95.52261
1.1379617,95.71603
1.1851249,94.71927
1.1713624,92.313675
1.1211243,87.96604
1.1099136,86.62779
0.95092744,84.29627
0.9805417,82.749084
1.0703201,85.30779
0.97960204,79.37524
0.90325284,80.62243
0.9683197,78.700645
0.79283506,76.544876
0.85188895,74.245384
0.7847733,73.016716
0.74301887,75.70562
0.82863903,72.86169
0.71502846,68.77171
0.6424994,70.48431
0.5814393,66.57084
0.6901467,64.46597
0.48574588,64.48686
0.51725584,64.94897
0.6285131,60.959236
0.5174566,60.884354
0.5519356,60.395542
0.44552433,56.330753
0.46405518,58.16434
0.46046323,57.35548
0.541093,53.986324
0.50954276,53.46511
0.4110259,51.676888
0.37401646,48.63821
0.42295873,50.74116
0.5174739,50.358208
0.36813885,47.219383
0.38589412,46.531612
0.2139611,44.54261
0.2698069,46.759647
0.13572095,49.113205
0.115216166,45.636566
0.103736006,47.3995
-0.014919175,48.49785
0.05765274,47.73897
-0.012832908,51.083046
0.112409405,48.956505
0.12913574,53.93934
0.051378295,54.055237
-0.023737025,53.112625
0.2615128,53.988052
0.11599443,60.362766
0.32625136,60.183357
0.30810323,61.757668
0.35074428,66.29907
0.45922756,69.10303
0.5316891,72.36519
0.700749,73.46937
0.7692357,78.89127
0.8423532,80.678154
0.798964,87.409134
0.994453,88.60718
1.0421244,90.59897
1.2123021,94.13883
1.1380669,91.97006
1.1122267,100.47976
1.3631845,100.77781
1.2903131,104.649826
1.397817,107.13069
1.4102876,107.115364
1.3599287,108.59452
1.412915,110.12225
1.4691924,112.66938
1.387266,110.90032
1.2560556,110.498604
1.3443239,112.48127
1.3773524,115.18345
1.4294635,112.58589
1.3524872,115.13718
1.3160567,116.266014
1.295881,112.532646
1.2546811,110.95442
1.3372216,112.99722
1.1901104,111.78433
1.2000879,111.41306
1.1354166,108.2064
1.1737225,105.022095
1.1044732,106.68864
1.0321152,108.01514
1.0761088,103.00947
0.99101895,105.764534
0.97492474,98.85329
1.0275536,101.95348
1.0127413,101.52845
0.86115617,99.06351
0.98171234,94.389694
0.9028778,94.0741
0.91747236,95.85599
0.91465414,90.55488
0.91015905,89.76542
0.90661156,87.14046
0.896714,89.39818
0.88286847,88.872475
0.91702765,85.569595
0.7878767,87.43521
0.731306,80.84387
0.8047528,78.43757
0.74914056,79.90648
0.6707941,78.952774
0.64041895,80.43161
0.55591184,75.45443
0.6097453,73.658325
0.52247804,71.53297
0.5695434,71.1412
0.464747,68.405304
0.39240146,66.15113
0.31307337,64.59396
0.40377206,62.047684
0.36559463,61.69472
0.3034842,57.986214
0.34962904,53.695107
0.34242144,58.453403
0.42752004,56.682827
0.27341652,58.3444
0.32953995,58.162212
0.28372005,53.8082
0.338201,51.19407
0.1892907,51.969326
0.22586486,51.552967
0.22435462,46.651394
0.28083324,46.244934
0.1930519,49.32837
0.13735868,49.509525
0.23687439,48.473537
0.1370371,47.918114
0.16466042,46.97804
0.047687434,48.177597
-0.022403654,48.71215
0.051608324,47.651287
0.050148074,48.323338
0.006791809,52.403828
-0.022944847,51.887375
-0.021002034,50.347256
0.041611426,58.527836
0.07146762,52.427002
-0.026288481,58.55887
0.15166183,59.06749
0.17119113,60.54127
0.3417462,66.90003
0.41873664,67.59567
0.43421593,72.17963
0.4395857,69.78781
0.5685439,72.40839
0.6790076,77.856125
0.70876974,77.621635
0.8162425,84.01935
0.9321707,85.51347
0.9963427,88.49017
1.1388271,91.22636
1.1565199,94.62359
1.167244,97.172
1.1881676,100.73223
1.2880955,96.63632
1.3958985,105.11967
1.3174214,106.47206
1.3746903,103.94094
1.4545997,106.02462
1.3653425,109.41089
1.3590266,110.554924
1.5045232,114.16824
1.4340371,110.98645
1.4462115,113.295815
1.4815776,111.18742
1.3774095,114.47024
1.4658036,113.18197
1.4491626,113.56301
1.3617561,108.862
1.3469639,110.256096
1.29463,109.4439
1.3435882,106.57894
1.3538864,111.63078
1.2330248,107.414734
1.1559994,109.70042
1.2577581,106.1179
1.084258,101.54799
1.1442528,104.80735
1.1171272,105.53705
1.0661088,104.12815
1.090134,99.758575
1.147313,99.46487
1.0945439,99.81235
1.1371639,93.145195
1.1250153,97.89266
1.1922786,96.468376
1.002138,87.366646
0.9922116,88.51177
1.0891935,88.94537
0.92162275,82.13072
1.0114813,84.59778
1.002709,83.964554
0.9176389,81.72384
0.95295674,83.09111
1.0114985,78.6134
0.9090013,81.27742
0.75042224,74.872826
0.7641324,72.04744
0.780454,72.877716
0.8402398,72.15751
0.67450225,67.65084
0.66166514,68.34696
0.52376837,70.145905
0.59962165,66.77168
0.5468309,60.389484
0.6273288,60.629562
0.5089575,58.0697
0.5545704,56.35983
0.5778256,57.963287
0.7041036,55.117798
0.62133116,59.011017
0.5980176,53.307907
0.63993573,50.163948
0.60664934,53.23712
0.5358047,51.973194
0.42676228,50.202763
0.54192185,48.315567
0.5475022,46.990643
0.4691425,47.8801
0.3789021,45.607983
0.3116932,48.192852
0.42935273,46.740993
0.3105426,49.009323
0.20480244,47.347492
0.30349427,48.20784
0.36783823,51.24047
0.30484834,50.75634
0.27067542,50.527134
0.2881521,50.47648
0.33918628,48.75085
0.3238066,57.25811
0.30284944,56.10379
0.3582127,57.353893
0.43077233,63.33632
0.46121702,60.23363
0.5681208,67.707886
0.652061,68.43805
0.7303761,71.02993
0.8888254,75.26531
0.8966444,77.723816
1.0410774,78.4423
1.1650888,83.65851
1.2263098,84.1812
1.3012741,84.0823
1.3198771,88.02805
1.5158987,90.23906
1.5761142,95.20856
1.5682224,93.38164
1.6637466,99.50842
1.5897743,101.82402
1.7353988,103.11477
1.750998,104.47579
1.5674559,108.697495
1.7802277,104.84037
1.7381171,107.60583
1.7227551,112.919945
1.5864763,110.98298
1.7948242,115.35587
1.8140668,112.921776
1.7440141,115.2617
1.7859515,111.887054
1.7423792,112.45843
1.7787391,115.21745
1.7038671,111.73352
1.6165183,117.83848
1.6892217,112.75726
1.6274202,112.871124
1.5581815,110.66201
1.5753839,109.02142
1.5599511,107.58999
1.4930903,105.22955
1.5605458,104.20642
1.592905,103.83301
1.4968419,106.32618
1.4050232,104.57938
1.4372052,101.59757
1.410639,99.44992
1.5274392,96.08356
1.3653873,92.29442
1.364251,88.55953
1.3879337,93.9039
1.3599684,88.06928
1.3342274,91.31881
1.4531165,93.239334
1.3082587,83.26794
1.3473824,83.27582
1.3786689,81.61854
1.2495667,81.62473
1.2247545,80.87152
1.2366425,77.434944
1.2296338,78.92308
1.269082,75.45328
1.146495,77.372925
1.0888207,74.181145
0.98120445,70.09378
1.0468277,70.66144
1.0889885,72.46141
0.8858704,64.94665
0.90427494,61.737713
0.8998081,65.637146
0.915339,66.172386
0.860425,58.888763
0.90822285,61.04042
0.8195785,60.71701
0.8079555,55.147804
0.8161852,56.60575
0.84333235,52.711082
0.85950965,49.905064
0.82443243,53.26125
0.86141384,50.904022
0.7569286,49.132458
0.8157455,55.14734
0.90238005,46.09074
0.86193216,47.12101
0.67600524,46.013714
0.67995274,50.936077
0.5971639,46.47864
0.7032655,50.616066
0.5813494,45.112473
0.6070418,49.663624
0.61929333,49.16755
0.54042524,51.331497
0.47006497,48.686268
0.4449008,51.457066
0.5889214,56.34778
0.49668747,56.849453
0.6055492,59.51473
0.6359799,57.67967
0.77282685,61.173466
0.93198514,61.939953
0.8458036,64.59547
0.88009137,63.892494
1.036733,68.1252
1.2148411,74.470314
1.1258285,78.66499
1.2699606,81.890785
1.3641481,84.36868
1.5265347,90.62266
1.5556978,88.71337
1.539407,88.831055
1.7384678,92.0685
1.8501918,98.355804
1.7538896,97.0789
1.8623292,101.41825
1.8069217,101.04855
1.9201095,103.31464
1.9286637,104.19659
1.9161642,105.20067
1.9067812,105.49256
1.9683921,111.24747
1.9879514,111.93411
1.8813518,111.85128
1.9391906,112.20217
1.8404678,112.33022
1.9518312,115.70764
1.9985521,116.04313
2.1239078,114.06483
1.9338522,116.83717
1.8946388,111.26914
1.8216037,113.59191
1.7582006,111.35173
1.8321148,110.25412
1.7437264,107.22984
1.7204748,105.11967
1.7691061,104.48735
1.6865174,107.658424
1.6696551,103.25497
1.5172029,104.62704
1.642039,100.90703
1.5822378,101.14465
1.4493091,100.12652
1.4478037,99.29224
1.5034952,99.94597
1.4276602,95.59719
1.4620025,97.62742
1.4673004,92.3704
1.5519133,90.88888
1.5525357,89.51963
1.4255657,89.428925
1.30882,89.701065
1.5597837,85.65672
1.3864645,80.22977
1.3950055,81.90964
1.3070949,82.98439
1.3539728,79.249596
1.2510637,79.415184
1.1755606,76.371086
1.0681828,74.86185
1.0953184,71.12671
1.0934032,68.96184
1.0057272,71.26082
1.0481174,69.72393
1.0286378,67.292816
0.94560087,62.186855
0.90031433,64.80055
0.8706048,64.86555
0.8686798,57.86124
0.8328993,55.510544
0.8829544,56.336506
0.945984,55.841194
0.8764244,54.9845
0.8427616,57.045418
0.7786539,51.285038
0.7986128,47.37536
0.8600459,51.44824
0.7769572,51.705116
0.9133752,48.643467
0.68896097,50.605274
0.7439284,47.64938
0.7384875,49.834827
0.55501765,45.412086
0.68353283,46.489624
0.62870055,50.04011
0.61971956,45.873234
0.5087771,46.849674
0.57830465,50.446148
0.47221762,54.003708
0.4618118,46.16137
0.48311177,48.146713
0.3550685,52.560764
0.50432473,59.522526
0.57011414,56.13149
0.61866516,55.516758
0.56258607,60.894726
0.6760402,60.99672
0.7006538,65.26162
0.7699826,67.51486
0.9340491,68.07474
1.0240923,73.49614
1.0268918,74.49649
1.1950296,76.593285
1.2209826,83.300995
1.4591305,84.07385
1.426955,86.586716
1.3494488,94.234245
1.4384854,93.09026
1.5316851,94.56183
1.7023156,96.11187
1.6721972,97.68135
1.8037735,99.640686
1.7405168,107.54618
1.8487215,106.3627
1.8187658,107.30208
1.7019018,109.24331
1.8800871,108.13561
1.705185,109.00544
1.7687362,106.24771
1.7263031,114.94092
1.7845404,112.51699
1.7379638,114.34174
1.7442639,110.77723
1.7054243,110.57864
1.7120417,113.82871
1.6659323,114.54397
1.6868916,112.3985
1.6343268,114.03973
1.5410105,111.42108
1.5048015,113.43374
1.5536705,108.183784
1.5283226,108.653404
1.3142629,106.909
1.4303854,102.772675
1.3527801,103.73998
1.4096516,98.22277
1.4934642,102.53868
1.316048,102.20291
1.290482,98.942955
1.1976901,97.262184
1.2172898,93.91253
1.1733998,93.14728
1.2072537,90.575134
1.2207315,92.941154
1.1288644,90.153275
1.1068285,88.59872
1.0790325,89.60687
1.1217742,85.09449
1.0910649,83.17207
1.0407772,81.26395
1.1133558,81.08004
1.0421652,80.41129
0.9172416,76.14944
0.93918264,77.692184
0.863964,74.29258
0.7870882,71.20933
0.8373198,72.1686
0.70183593,71.787384
0.65184695,66.56616
0.6601069,65.8035
0.604373,62.705097
0.6211547,64.61454
0.5577997,65.05474
0.62476325,60.288708
0.5419318,59.27829
0.592437,57.6553
0.52186286,56.397514
0.5113922,57.580547
0.60224026,50.879932
0.52208495,52.559853
0.48910806,52.99624
0.5778535,49.66354
0.4767973,50.84917
0.49143836,50.325157
0.48622158,44.24078
0.5161501,49.844162
0.41955432,49.208073
0.32701287,46.480713
0.45268717,42.525524
0.34131104,49.276585
0.20275769,46.91432
0.114077516,45.589565
0.13737671,50.797924
0.042781524,47.508774
0.07562358,51.477352
0.12983148,48.73259
0.1417004,52.612694
0.1713215,56.37472
0.078848556,53.26843
0.20720634,57.479424
0.17917764,58.335514
0.4010058,63.961067
0.3318736,65.149025
0.40637898,66.95649
0.62026685,70.80855
0.58244973,76.373314
0.6636083,77.699356
0.89465135,79.26929
0.9256495,83.53483
0.9668669,87.90319
1.1314684,82.52221
1.0994954,86.59428
1.1949916,95.67111
1.2030307,92.218124
1.3752283,98.536125
1.3184426,102.6294
1.4279933,101.673744
1.4052978,100.70597
1.4076997,104.14587
1.3744551,112.704926
1.430449,105.28334
1.4476228,112.02813
1.4317545,110.86494
1.3822154,116.88747
1.6654699,112.336266
1.365621,113.78381
1.321,112.20555
1.41904,111.45049
1.3695357,113.964905
1.4476074,110.52938
1.4177327,109.30274
1.3381835,114.57886
1.3513345,111.755844
1.2170358,114.34676
1.3594193,112.45807
1.1650264,110.34582
1.1683084,113.47591
1.0370858,106.58186
1.2100903,104.93508
1.1542978,104.49755
1.1905226,103.61719
0.99076825,102.38438
0.97667354,98.76956
0.90820605,96.69173
0.9960895,98.586624
0.9420408,93.71909
1.0374595,91.95902
0.88041306,94.099785
0.95484143,89.31035
0.94756395,86.12115
0.8352118,85.70642
0.9178517,88.747665
0.859726,85.52945
0.8865958,80.467896
0.7068043,80.905
0.73559606,78.50416
0.7305641,76.93782
0.6410009,76.5545
0.60879135,74.74268
0.6256039,75.615875
0.5192306,78.46985
0.54942644,70.7744
0.45696792,67.163216
0.42912522,69.57855
0.4164244,69.20035
0.4169189,65.46905
0.3313995,63.725697
0.3577285,66.20857
0.47842923,56.996075
0.43587548,61.1181
0.18974072,56.837753
0.34987974,55.596653
0.3438076,52.562412
0.46964005,52.275097
0.2550993,52.015865
0.29440242,54.785904
0.23738043,46.9897
0.30191946,53.50942
0.24985796,52.644344
0.23803414,47.640358
0.18031791,49.80245
0.17060731,42.236847
0.045903556,48.53782
0.12236845,45.05537
0.012581686,45.93533
0.072571225,46.40544
-0.04239778,44.251816
0.03112721,53.964054
0.087349355,47.643982
-0.10711869,50.38118
-0.067119636,55.56804
-0.043826044,58.03931
0.11162124,56.092583
0.068184905,55.524055
0.10748748,61.883034
0.21795951,60.918068
0.28684086,66.54829
0.2626582,65.29908
0.40197128,64.24251
0.44213894,72.84182
0.49382937,73.049126
0.61885464,76.80257
0.71532243,80.07306
0.8161528,81.75893
0.90431994,87.02796
0.99141,88.01362
1.1951976,92.142105
1.1442338,94.6704
1.0810176,96.14213
1.1199311,95.29611
1.246208,102.13163
1.2628428,100.76678
1.2267289,104.69034
1.2974254,103.885956
1.3566295,101.944176
1.5286427,111.843575
1.435079,112.50979
1.3877674,110.46373
1.3755797,112.30399
1.4235345,114.938286
1.4116387,113.20793
1.4872625,109.30339
1.3229947,113.401276
1.3760713,112.0356
1.269055,112.485
1.3070326,115.328476
1.2613982,114.33813
1.2294991,110.22043
1.2982502,111.78474
1.1062561,109.26399
1.1865505,107.422485
1.1118937,105.86755
1.0924438,103.43089
1.1523778,106.44242
1.0463432,102.17552
1.0995518,104.166374
1.0027424,102.45133
1.0992497,99.14073
1.0945468,102.30324
1.0713446,95.03056
0.9092201,94.949
0.9608875,90.03178
0.95595187,94.942245
1.0027971,92.67478
1.0028657,90.078705
0.92464596,88.68117
0.90294677,88.781715
0.9217254,87.20317
0.9641904,80.473625
0.88815534,79.95311
0.8912169,81.13413
0.8156529,79.45339
0.76559645,80.09804
0.7463106,77.52174
0.68899465,77.720116
0.6486457,71.74009
0.6739413,68.82659
0.61736125,71.1784
0.6538793,69.92692
0.48719832,71.086464
0.45805252,65.67059
0.5620484,61.57018
0.48536608,59.50266
0.49961692,62.562447
0.6343453,51.70932
0.41367275,58.09093
0.41960466,53.896797
0.45344445,54.701157
0.4855482,56.828148
0.46349338,55.337624
0.39728612,53.0881
0.4235066,50.297245
0.4079389,49.68541
0.3775042,50.179974
0.32259902,47.893322
0.4822096,48.8751
0.1806413,47.229618
0.33604908,45.823444
0.34775826,45.458656
0.27166298,49.616615
0.22828421,49.19161
0.09220404,49.397602
0.19325197,48.847652
0.08711676,48.802917
0.13954604,50.841766
0.08702494,52.674454
0.22768983,55.419777
0.24803117,52.66079
0.18234272,59.13843
0.3356231,60.205383
0.3809425,62.774883
0.4361274,63.640457
0.5389176,67.51724
0.574207,69.74365
0.7181482,74.187164
0.79990983,68.586205
0.91236913,75.15156
0.8461776,77.728004
1.0959699,82.14478
1.192573,81.06292
1.1822275,86.22223
1.2900864,83.48776
1.3185102,90.414795
1.4416901,99.03141
1.559659,101.555786
1.4158261,96.42079
1.6530119,100.78399
1.6122938,103.59081
1.6279161,106.203514
1.6647747,107.222435
1.5728751,106.8466
1.7378894,111.86385
1.8144951,114.47431
1.6378676,112.89409
1.5693965,112.52739
1.6917517,114.18419
1.7017882,113.99788
1.6795459,115.99186
1.6537652,114.40232
1.6686008,109.41301
1.6615585,114.75028
1.6055797,113.762886
1.5502546,111.90064
1.5101625,109.04069
1.538505,107.961845
1.4759297,107.81513
1.4991709,110.52505
1.4629053,107.86599
1.4652225,104.33944
1.4100628,104.811844
1.2554216,103.1469
1.3834758,101.36301
1.3887364,97.516716
1.3454567,97.62659
1.2018299,98.479164
1.4190276,95.305595
1.2764001,90.83264
1.3054694,92.28227
1.2096113,94.41777
1.1497562,85.80233
1.3441797,86.747185
1.2933924,83.29283
1.2984798,80.59288
1.3467207,79.10254
1.2564445,79.28614
1.1257894,79.81182
1.0580807,78.36917
1.1060123,78.853355
1.1300806,75.26544
1.0365015,75.39561
1.0576885,75.10851
0.9130595,73.75974
0.9622492,71.78905
0.8630625,65.32076
0.9017047,65.999695
0.8809575,61.836308
0.8987046,66.9653
0.7944635,61.338318
0.83237296,64.94423
0.77396953,62.128914
0.8201334,57.934475
0.85376644,54.352737
0.831707,54.174744
0.7561365,49.89554
0.79138374,56.19516
0.89615786,51.881123
0.8703813,53.733715
0.7660805,50.96688
0.7207919,48.47237
0.762626,47.73162
0.70559794,46.873013
0.6334081,45.09113
0.67516816,49.19756
0.56600916,46.4712
0.60460037,47.580368
0.5322328,47.13206
0.44140238,47.501984
0.41314986,49.652657
0.5332172,50.883003
0.47728193,55.89272
0.50488466,52.908497
0.5389056,50.279903
0.519793,56.410183
0.48660251,59.34679
0.6441423,58.14034
0.7873076,62.640034
0.77989167,59.221577
0.8782209,64.66943
0.9636064,66.689995
0.9682391,72.22646
1.0648414,73.078606
1.22342,78.884766
1.3194455,78.13279
1.3797768,82.05021
1.4254861,86.30576
1.457687,86.92994
1.6353238,90.02283
1.6438495,93.46155
1.7868685,97.36153
1.8281243,98.30044
1.8037332,102.1431
1.7900807,101.357925
1.929289,102.6811
1.8317494,106.741234
1.9078673,111.03928
1.9429126,108.20501
1.9830084,113.784035
1.9841827,109.92968
2.0320828,108.13499
2.037527,114.68154
1.9654784,111.11589
1.850765,111.41682
1.9294174,115.91577
1.8981103,114.51381
1.7678095,115.297005
1.8363394,114.8583
1.7556534,112.55079
1.8385212,112.045784
1.7597896,111.88053
1.7741865,107.337105
1.7652267,112.249374
1.6681311,108.22905
1.582881,108.91808
1.6247435,103.67486
1.5938667,107.54717
1.5998261,101.08776
1.5772794,102.44794
1.601309,100.001335
1.6035572,93.66792
1.525642,94.22187
1.6089932,96.41339
1.4771807,92.64335
1.528825,92.543655
1.4682173,91.89934
1.4136026,89.43982
1.3832355,89.10485
1.4524349,84.05611
1.4136792,82.18219
1.4689155,82.3793
1.4083318,81.02875
1.3297281,78.23595
1.2822571,80.34215
1.1609942,78.39363
1.2175059,74.699974
1.2394754,72.69546
1.1244502,77.67649
1.0702469,71.68786
0.9519771,71.95233
1.1001678,67.12533
0.97523195,67.02255
0.95481545,62.77221
0.96640664,59.252632
0.92500615,64.008354
0.9732181,61.002728
0.89810723,60.769573
0.89684147,60.54777
0.93209714,53.90191
0.94387573,52.189705
0.94011486,53.892597
0.9405918,50.982403
0.966859,50.03664
0.91934305,50.671143
0.9649074,48.994556
0.78872114,48.686985
0.87810796,45.786713
0.8330722,49.327744
0.7762789,47.14609
0.7515481,40.62276
0.5934522,49.560234
0.55754936,52.198586
0.6010908,48.41844
0.5918357,48.577484
0.5192507,49.51459
0.4903576,48.23766
0.5364776,48.21458
0.6021594,56.034737
0.5024797,54.009296
0.58753407,53.028778
0.5715764,54.46573
0.5474204,58.748543
0.6821219,61.065968
0.6921132,62.577213
0.89535034,66.74333
0.95529777,68.391
1.05042,73.13702
1.0975933,71.03164
1.1703265,76.0958
1.2422612,81.98047
1.3505083,82.24549
1.3814975,82.49412
1.4816602,88.696724
1.6026927,92.522545
1.5989115,95.34298
1.649861,95.86986
1.6894181,99.82348
1.8469801,98.67799
1.7569095,99.764114
1.9034793,103.144806
1.8467067,107.55294
1.8804985,106.78142
1.8527936,111.7268
1.9172531,112.92712
1.8074166,112.54928
1.955484,112.5381
1.8647511,113.80464
1.8332537,112.9819
1.8500712,111.624084
1.7718691,116.3889
1.8452977,113.04757
1.7255826,113.66203
1.7470372,108.75799
1.7089275,111.584435
1.6226909,110.144585
1.648535,114.00931
1.6811774,110.23639
1.6259872,106.15554
1.5783738,107.91312
1.4394631,105.42189
1.5258546,106.36938
1.6272527,106.37321
1.4537584,101.92958
1.3514602,103.01184
1.4584978,101.779305
1.3254557,97.87019
1.3659604,100.5085
1.4027231,96.569046
1.3381308,93.24546
1.2622967,92.81981
1.1084062,87.775696
1.349515,89.88975
1.155689,88.924416
1.2934022,84.3931
1.1811801,86.369446
1.1219444,83.97591
1.1516484,82.493126
1.1999253,84.15196
1.137951,78.84331
1.0243169,74.73458
0.93160534,78.5267
0.95807433,74.877045
0.9603249,71.20404
0.8578333,72.25885
0.8568177,67.74572
0.79150325,72.29699
0.8194552,62.099964
0.8132125,67.44519
0.60858005,63.100616
0.664085,61.664333
0.71718687,58.016552
0.6699502,64.072784
0.74696195,60.269886
0.59483963,55.499622
0.7575878,57.43011
0.6488748,49.68303
0.6662879,51.53678
0.5891253,46.75779
0.49286264,49.51171
0.5861943,48.424286
0.6156903,47.827404
0.66736543,49.629635
0.5872658,47.501972
0.45134333,47.085777
0.40115342,45.248016
0.33595088,47.430824
0.39014575,46.262863
0.27886495,48.612526
0.29853144,49.815357
0.19241083,48.584457
0.26465675,52.20165
0.15957123,52.132034
0.18864866,56.99555
0.14645937,51.351135
0.22178014,56.988018
0.28286698,56.08105
0.3417297,58.682735
0.51840883,62.986618
0.4606896,66.424385
0.4966066,65.58919
0.5958244,67.91954
0.7449246,73.68717
0.7738143,73.46877
0.8985423,77.44561
1.0092046,83.1305
1.0156564,83.34053
1.1093303,87.83694
1.1959845,91.64221
1.2978308,92.58216
1.278902,89.34758
1.3350604,95.52742
1.3748294,98.95163
1.4877416,100.672195
1.4901525,101.48128
1.6239345,101.79927
1.3479143,103.694916
1.5271649,105.83632
1.5491406,115.55025
1.5750068,106.81616
1.542174,113.11957
1.4704723,112.9381
1.5906603,111.95495
1.5935463,114.67381
1.4832091,116.14751
1.4175589,111.76312
1.4770265,112.776085
1.4691988,108.77607
1.4230262,112.9466
1.4242488,113.68384
1.3143252,112.95343
1.4075683,109.492516
1.2204058,109.49907
1.2245427,107.29901
1.3088275,109.065895
1.0162578,106.2237
1.1740814,105.57848
1.1375589,104.41277
1.1135923,103.51222
1.1333396,97.819405
0.96356183,99.36358
1.0219485,96.17358
1.0300823,96.012726
1.139608,94.5275
1.0822128,89.93947
0.9890606,91.01945
0.8963795,84.193504
0.9645352,91.267715
0.8806659,83.82948
0.85727406,82.38024
0.84701115,85.343025
0.8984668,88.16635
0.8344221,78.94305
0.824328,79.15063
0.74797696,77.11624
0.6500028,81.06731
0.6040338,79.28901
0.5772256,74.76063
0.51506644,71.8113
0.4677028,68.677376
0.58608675,68.880226
0.50570846,67.30738
0.41862968,62.98983
0.43333554,64.00284
0.3736269,60.43173
0.34172806,59.990726
0.5001885,58.46932
0.30532843,60.94974
0.44835204,55.88265
0.3844805,57.116093
0.35002232,54.843414
0.28693917,51.6333
0.40223116,51.04636
0.3502182,50.15575
0.25736466,51.61494
0.33890876,43.88956
0.24158798,47.043823
0.31971967,49.20049
0.23731065,45.064407
0.23697396,46.995613
0.13858032,45.036087
0.037598215,42.29478
-0.0059393034,50.097507
-0.051684942,49.292824
-0.0219316,51.02162
-0.06532531,46.735577
0.0026609222,47.339844
-0.059913017,50.33104
-0.123713546,51.35101
-0.011187808,52.024754
-0.042398937,54.57248
0.12402042,56.397312
0.09673395,60.40008
0.078109995,60.580124
0.16774222,63.443275
0.2691088,67.58261
0.4882396,71.061935
0.4168022,70.944336
0.5349927,77.540955
0.79043853,78.875465
0.7672525,78.182106
0.8522995,83.420235
0.83957356,88.02147
1.0656163,87.77309
1.1720092,92.03545
1.1979761,96.15437
1.2319297,91.11292
1.2138222,93.36274
1.3269395,98.406235
1.3307284,104.5497
1.2657274,108.687996
1.3178399,105.90785
1.4408814,105.3548
1.3338633,112.32994
1.3694156,112.36165
1.3535199,109.79686
1.3455954,110.61894
1.4044712,118.26967
1.3802761,114.332306
1.2903686,115.2587
1.4413832,113.49096
1.4109182,113.460686
1.2816144,111.98019
1.3205652,113.649796
1.2491481,115.4096
1.2226938,112.14949
1.137266,112.36807
1.2059468,113.07458
1.2220266,106.0805
1.0914801,107.732765
0.99256325,103.31252
1.0194539,105.78867
1.0844694,104.19759
1.0611931,99.16047
0.9182717,97.89951
0.9708489,95.27704
0.9908838,99.11655
0.96502733,93.19709
1.0117408,94.4089
0.8977645,93.19495
1.0254241,90.48866
0.9029031,95.01543
1.0068011,87.38863
1.0576545,87.58054
0.8612296,80.578835
1.0411034,84.4207
0.9363134,82.30564
0.7766773,82.149635
0.8032987,84.832695
0.75192493,78.900894
0.7085715,75.93547
0.65781456,76.08536
0.5723699,74.12718
0.7463701,74.38939
0.49538064,67.92684
0.5149748,67.9331
0.3422444,67.32881
0.4757279,65.03829
0.45952228,63.26042
0.41034174,65.160614
0.3726337,61.19324
0.3539168,59.617195
0.3616378,58.28431
0.4398962,57.87319
0.4018468,57.658363
0.40899545,52.777287
0.39188612,55.709362
0.28427613,53.285282
0.39994633,49.96531
0.38348153,51.906803
0.36952722,45.53695
0.32398027,49.718845
0.3150341,48.933468
0.31042942,48.308254
0.33248356,45.5104
0.17074434,47.84676
0.24695517,49.85343
0.09102531,53.68888
0.2055402,47.122845
0.22040644,50.0899
0.007377682,49.148285
0.09468428,53.217106
0.04593404,53.034702
0.09799104,52.202194
0.14505042,54.352448
0.2152243,54.52418
0.27600035,60.768356
0.1947262,60.632267
0.27796838,64.58666
0.32253987,63.431446
0.5287138,67.16743
0.5665618,67.58811
0.5148148,70.018326
0.6941061,77.95296
0.79723775,75.7071
0.8655041,76.57522
0.9599121,82.77038
1.0245569,86.85203
1.1755447,88.99067
1.3392992,91.02626
1.3959558,90.20339
1.3025737,92.36014
1.3592947,99.934364
1.353872,101.24135
1.4313792,108.517426
1.5420771,100.6135
1.474018,107.12136
1.4836359,109.280876
1.5693573,107.2327
1.5261757,109.55213
1.5247779,113.45021
1.5096734,111.230545
1.45498,112.00572
1.4911621,117.289
1.5816357,110.686325
1.603181,118.616486
1.6269774,114.75722
1.6037233,116.49865
1.5633345,113.00835
1.454196,114.603645
1.5011429,111.58586
1.453126,109.27804
1.4069667,109.467354
1.4284967,111.4219
1.3737775,108.848335
1.3220906,110.650314
1.2794353,103.90849
1.2432555,98.403915
1.2098594,103.71346
1.2405604,98.57061
1.1444687,98.70139
1.1983153,98.176315
1.2111214,95.977135
1.1792842,94.09093
1.231418,95.98578
1.2329245,89.91724
1.2410336,88.205185
1.2331209,88.744064
1.152392,87.28608
1.0986762,81.82527
1.0494281,83.76946
1.2109231,82.66044
1.0962212,81.68359
1.0882338,74.67209
1.0919436,79.70784
1.007535,76.36676
0.99614286,74.558495
0.86461055,76.532265
0.86999476,71.500435
0.82752484,69.83909
0.872653,69.78404
0.7405418,69.01739
0.7503057,66.04151
0.7653148,66.12791
0.7857065,61.19333
0.7229764,61.272884
0.66739726,57.857857
0.7357525,56.68401
0.7150567,59.191025
0.6995043,55.91983
0.75839907,51.507114
0.73222977,56.590164
0.70624065,50.733982
0.55014515,52.965515
0.7323504,51.23178
0.54877806,50.135674
0.5280987,45.141987
0.6375467,49.29163
0.59678084,45.476376
0.6157379,45.287113
0.5601366,46.544987
0.5741136,43.449116
0.4293956,47.6476
0.5088775,45.120667
0.41625044,48.12801
0.34754205,48.496258
0.45424247,49.22089
0.43533483,51.876797
0.40878755,52.657234
0.4869163,52.20633
0.45165485,57.716576
0.5789547,59.354393
0.568854,59.638145
0.6571508,65.72071
0.7071979,67.47979
0.8301986,67.63981
0.90562534,71.40571
1.0088658,72.352005
1.1576393,70.98317
1.2224251,73.229416
1.3741214,79.15127
1.3225807,81.41905
1.4187883,85.96461
1.4849072,90.27428
1.6741853,89.91439
1.578115,88.539116
1.5988725,93.89743
1.754261,97.2229
1.8147205,101.255295
1.7555782,98.76729
1.8972278,107.79277
1.7679323,104.980774
1.8711438,106.6779
2.0030622,109.347755
1.9305496,110.73678
1.8350549,113.144066
1.9206554,109.93005
2.0046532,113.58844
1.851648,108.8005
1.8823392,114.38994
1.9041346,112.89322
1.7616454,115.34231
1.8835806,113.01058
1.7713089,112.13019
1.760552,112.64661
1.6948223,108.052895
1.601845,112.4938
1.6023067,107.76604
1.7093797,107.45184
1.66453,104.96887
1.7354094,104.153015
1.6226262,105.031876
1.5380886,104.95514
1.4930577,101.69661
1.4921758,98.50788
1.5008405,101.01851
1.5424047,96.29878
1.4179779,99.678505
1.5254955,93.97355
1.4094505,89.220535
1.4347924,91.75182
1.4441624,91.36742
1.4280585,90.53815
1.4605706,84.63235
1.5343975,85.732796
1.3659093,87.3147
1.3796741,83.72262
1.3368996,85.854645
1.3780137,82.96465
1.3020223,78.94294
1.2994006,73.50913
1.1920116,76.908966
1.1192925,73.75418
1.1811204,74.16882
1.0865935,69.382126
1.0301021,67.7648
1.0214412,66.50002
0.95473784,66.486435
0.9556638,65.13546
0.8833243,62.92182
1.0031706,60.930904
1.1024803,60.053818
0.99833465,59.620613
0.85652435,58.35003
0.8934966,59.721424
0.90227807,54.674076
0.9567452,53.86737
0.89307976,51.381737
0.80880475,50.547485
0.9253233,52.70861
0.91021955,48.975967
0.73390853,44.322433
0.90743977,52.756863
0.89604515,44.684277
0.6305166,47.905167
0.7344085,48.209545
0.6928964,47.326866
0.6318427,45.48312
0.6651213,48.50894
0.60968405,46.41281
0.5283847,50.46317
0.5211845,48.852543
0.57778895,50.813156
0.47711617,52.15021
0.5686972,53.90161
0.6267392,57.081444
0.59873724,54.832508
0.64955515,58.52943
0.5981525,63.162716
0.80093926,62.38541
0.8388685,65.68539
1.0466452,67.265724
0.9707141,73.54089
1.1553574,75.44067
1.2878394,83.96797
1.306097,80.542946
1.4740576,87.487656
1.5887026,86.433136
1.4998115,84.3855
1.7490702,87.70341
1.7309377,92.39425
1.7739054,94.64753
1.7279608,102.06555
1.8576015,100.73601
1.8358085,103.8067
1.8425429,109.9215
1.9281735,109.50606
1.9009594,108.28234
1.9432007,111.90826
1.9980528,109.3222
1.9533619,111.285965
1.9603155,112.57524
2.007455,110.21288
1.9774148,112.634926
1.8551276,113.287155
1.8896927,113.666916
1.7844181,113.88946
1.7867714,115.98064
1.8227094,109.62566
1.8183082,110.96822
1.7905924,109.841705
1.6996098,109.99713
1.7071956,107.27222
1.7154576,109.021515
1.4772029,107.4409
1.684381,106.62702
1.5537728,106.48072
1.5114748,105.89462
1.5160742,105.63774
1.4235369,101.158325
1.3632896,101.631226
1.461266,103.0821
1.4299272,97.23719
1.3714912,96.16143
1.4203919,92.71252
1.411794,88.848434
1.3897411,91.216515
1.3498191,87.09067
1.273815,87.21223
1.3671762,84.679726
1.3543068,82.44292
1.2833736,80.205795
1.2962914,80.846436
1.2848274,80.125946
1.1195985,79.74315
1.1681374,76.77046
1.0999265,72.765976
1.1087854,74.47485
1.0295689,71.803795
0.8565654,69.27766
0.87253636,69.78571
0.8815542,64.45351
0.871866,66.107994
0.7830865,65.50384
0.6372094,64.33101
0.72383845,61.979103
0.80435324,56.83839
0.7730914,60.131237
0.7002312,55.13153
0.81704855,52.543102
0.6914537,55.45553
0.70380354,53.123592
0.655786,53.438206
0.7895353,48.291267
0.7454201,52.475178
0.65001774,51.68652
0.71108276,48.428932
0.7299914,50.18349
0.5123538,48.2125
0.5967078,49.03238
0.47365162,47.92358
0.4988602,46.093433
0.40176874,47.212864
0.4471932,45.031853
0.28904346,48.965923
0.3166884,50.355328
0.25776082,51.173325
0.26244923,55.06366
0.32838723,53.025055
0.21746016,50.600815
0.3531508,53.12969
0.31891784,59.319164
0.4714266,60.722073
0.6258044,61.62302
0.5656447,68.321335
0.6950688,71.21306
0.73349375,72.30355
0.755523,74.06515
0.9209515,74.973
0.92203283,74.69999
1.2255595,79.28917
1.1322707,86.606575
1.1519727,85.53761
1.3028188,92.21572
1.3785288,90.862114
1.4108572,95.07221
1.5405904,96.75808
1.4991286,96.475365
1.5753999,100.94793
1.5243213,102.44307
1.6030953,105.09775
1.5458829,109.02193
1.6672398,107.47933
1.5755924,110.367836
1.6831346,111.4411
1.5999134,114.10734
1.6004343,112.13095
1.4637791,112.6537
1.5565985,114.33306
1.6724061,114.94754
1.6181352,112.51825
1.5412818,114.35334
1.4904685,115.217354
1.5454452,109.88073
1.4509548,107.67914
1.3864496,112.02122
1.3688636,106.96792
1.3063058,112.28278
1.4642483,110.550125
1.2398154,103.54881
1.2904091,103.2484
1.221267,103.591515
1.2292308,101.669395
1.162001,102.14117
1.1818471,104.04606
1.2014936,99.84118
1.1094353,97.40887
1.165503,94.43181
1.1113268,96.84708
0.9149965,92.86076
0.9472664,92.223595
0.97868,96.322945
0.9272512,84.01004
1.131121,89.54593
0.997386,85.00188
0.9654158,85.01646
0.88800675,81.25925
0.8727183,82.05428
0.9329213,80.474396
0.7955631,78.46599
0.76194584,75.88748
0.7321774,74.831116
0.6108856,71.25965
0.7192375,72.49719
0.5852199,70.480736
0.59040815,68.57148
0.52018154,71.25649
0.5297511,66.08894
0.5358035,66.725
0.4880983,62.54309
0.41675943,59.67696
0.43020305,57.0475
0.46489722,55.532562
0.43601012,56.75393
0.305167,56.451145
0.48551813,56.050457
0.43059012,49.763775
0.450871,50.6635
0.4250145,52.057007
0.36882874,51.398956
0.2772891,49.655514
0.3087382,48.581207
0.41281703,43.593445
0.30385065,46.510223
0.36770776,46.53488
0.126701,47.153328
0.15584435,47.887936
0.17122771,45.5577
0.044673245,45.364098
0.13073266,49.766335
-0.05945159,48.16975
0.0013053806,50.98747
-0.0011431428,53.469433
0.0056499727,49.363888
-0.016605072,56.687904
0.013235427,58.441574
0.17932516,61.877857
0.17539011,59.791504
0.12540801,62.790813
0.31213608,62.174644
0.2364362,66.25532
0.56944907,67.13635
0.49598625,72.154495
0.6195857,76.03867
0.7508288,77.00231
0.7645785,81.54837
0.85462785,82.542274
0.8493462,88.02334
1.0501302,87.01513
0.981417,92.305305
1.1384946,94.94296
1.3112793,97.761375
1.1820433,97.12621
1.2929405,99.7086
1.3404131,103.04787
1.2990571,103.62101
1.3438832,106.70718
1.3323469,106.28763
1.4093401,109.64327
1.3789376,109.36851
1.3816762,110.74349
1.4084578,113.65191
1.2990592,111.5407
1.3225925,113.94793
1.3889158,114.212845
1.4257652,115.23186
1.373356,112.82085
1.2503092,113.75863
1.2126461,112.70212
1.2349285,106.526855
1.1598849,112.84939
1.1367886,108.40249
1.2000978,106.86385
1.1675986,105.83362
1.1850582,106.98175
1.0592772,106.78058
1.0698726,104.568886
0.9066052,101.83803
1.0563216,102.608154
0.9752787,102.34468
0.88337374,99.90744
1.0391723,98.962036
0.88500166,93.531555
0.8926796,97.00171
0.9726299,88.44744
0.90247685,91.340126
0.9413563,89.337364
0.9150887,90.68932
0.8388638,85.92165
0.75189036,84.34211
0.8494765,78.0279
0.76515335,81.98991
0.72753894,82.84867
0.6498585,79.757866
0.6250412,80.94971
0.6685685,73.86128
0.61140496,75.00983
0.69604206,71.93498
0.6448581,72.055214
0.4454781,70.93028
0.54141724,66.9149
0.41928232,67.226746
0.49074003,67.22576
0.26377466,63.936226
0.48963368,64.15043
0.42146912,58.10352
0.31339598,62.835564
0.36291757,60.88271
0.4415687,56.85708
0.38959846,55.93664
0.3177409,57.511776
0.27834177,54.378063
0.38411096,49.654083
0.36865038,55.588367
0.37565038,50.589375
0.2882933,52.059757
0.29570797,46.100426
0.2287474,48.137363
0.19372015,48.312042
0.2050276,47.774586
0.17079549,48.415863
0.20730792,48.142384
0.10813557,47.005245
0.1242685,51.754074
0.027533814,53.069153
-0.028803082,50.12596
0.060044773,52.70654
-0.003924555,53.2305
-0.060293425,54.029636
0.062378157,50.59282
0.057241455,56.522484
0.026265949,58.462803
0.19160601,59.051525
0.2795454,64.31595
0.29710424,63.256237
0.45112064,63.717155
0.46380696,66.33139
0.68878835,69.997
0.748544,72.06151
0.69034064,82.34042
0.85879207,80.66693
0.8995185,85.676414
1.0289394,85.82562
1.0826945,92.07176
1.1596893,94.42331
1.225089,96.29047
1.203627,98.73668
1.3338547,97.4084
1.2489897,99.003105
1.3169513,103.34629
1.4220922,105.56235
1.517993,108.43323
1.5298753,109.05555
1.5432967,106.603424
1.5134407,109.11423
1.6071279,112.31219
1.5384442,111.6187
1.4574101,111.46492
1.471951,112.843445
1.4099855,112.44597
1.447635,108.3702
1.4613497,114.09776
1.4131969,116.84243
1.3758701,110.37619
1.3349422,115.114845
1.3317232,112.63233
1.450005,110.70943
1.3953733,106.85427
1.2207081,109.5609
1.2037362,109.60699
1.1838495,108.22392
1.2642449,104.701904
1.188261,103.75925
1.143641,102.310936
1.1827796,100.28099
1.1970916,100.725
1.1253204,94.06687
1.1740562,95.791565
1.1121769,92.02811
1.1113507,89.058205
1.1100345,89.986404
1.0857999,90.30568
1.1878192,89.70386
1.1249018,86.64592
1.0553255,83.40279
1.1311198,85.89846
1.1578774,83.895195
1.0251219,82.60881
0.933298,78.69676
1.0111924,77.27183
0.89949614,75.71763
0.77482194,73.36042
0.8105278,66.64361
0.6951772,68.00021
0.7030006,68.749405
0.75974584,69.21851
0.672209,66.21249
0.6795431,64.680336
0.7450402,62.448555
0.64759177,63.901978
0.64057875,62.77105
0.77251464,61.945614
0.6529799,55.173176
0.6855407,57.881615
0.68989575,53.605087
0.65343785,51.04906
0.59423405,50.02
0.6321166,52.932125
0.68980736,53.17883
0.60677576,52.812584
0.6118255,46.777855
0.6580569,47.31628
0.5385176,50.93825
0.44599336,43.62472
0.552869,45.94684
0.42947292,48.53681
0.42077988,48.723106
0.3873461,44.784077
0.46970358,46.402718
0.18188582,46.078434
0.2998631,47.53009
0.30399466,51.753246
0.33434692,51.664898
0.28873512,51.552357
0.36179,51.2834
0.42861605,55.288982
0.51956326,60.017197
0.5097618,57.509068
0.5216569,62.49389
0.60245484,66.67584
0.7506333,67.77262
0.8232625,69.64733
0.9189545,74.790016
1.0946301,74.81114
1.1808081,77.10259
1.2719761,81.996765
1.256845,88.02351
1.4615054,85.21957
1.4077362,85.77381
1.513049,96.7626
1.6162153,93.90364
1.5627989,96.33296
1.6444675,98.11101
1.7365313,103.91735
1.7721273,108.36865
1.7175347,106.031265
1.7951224,105.61343
1.8288621,109.07519
1.7448009,109.965065
1.6720445,109.648705
1.8501039,108.778206
1.7920731,110.750404
1.7772725,111.151794
1.7916435,116.397415
1.8118649,117.68586
1.8780018,111.79553
1.7646856,113.60241
1.6889747,109.31241
1.6722332,115.04255
1.7479631,114.797226
1.7978046,113.33529
1.5905074,109.08931
1.6328624,107.60625
1.5060737,114.19183
1.5479982,104.08172
1.5481302,102.17884
1.5824903,107.26771
1.5100498,106.311104
1.5106696,100.69478
1.5234547,100.468376
1.477525,97.56058
1.4201406,99.713715
1.5257375,94.90323
1.4591502,95.23519
1.4732014,88.59924
1.3117163,92.265205
1.3992528,93.2654
1.4899533,86.10016
1.453071,87.358025
1.4926877,88.850136
1.3938651,81.84224
1.3141476,80.704636
1.2911106,84.07326
1.2653255,79.456726
1.2595842,77.22781
1.2160853,74.02041
1.2105848,74.300316
1.1362377,72.74293
1.109276,69.356995
1.2037239,67.30482
1.0584676,66.700836
0.956517,62.236202
0.9196994,68.00985
1.0040538,62.030304
0.884538,60.994415
0.9382201,62.301636
0.9675088,61.799088
0.80917144,54.75234
0.8909389,56.148415
0.88301426,57.955097
0.892994,57.703693
0.9699466,54.009354
0.8707816,51.532246
0.8678209,49.11504
0.8425146,51.33111
0.84083956,47.826565
0.7634323,47.923317
0.74963444,45.925217
0.89168066,45.94484
0.70934516,47.90116
0.7285644,46.118668
0.61913824,43.90016
0.7192833,49.447716
0.60303235,47.440865
0.57998383,48.670364
0.6629216,45.922054
0.63789845,51.40259
0.5381811,50.38146
0.4906139,52.689163
0.59783435,50.900913
0.6484537,55.92474
0.627295,57.0358
0.6502847,58.30412
0.7211157,62.75571
0.8223281,62.035656
0.9760004,67.78173
1.0362446,70.591324
1.1509883,74.30781
1.1670415,73.66954
1.3906903,80.80436
1.4096787,80.77046
1.4430653,85.675354
1.5903468,86.54001
1.5769572,91.886406
1.7129956,96.23717
1.7984856,93.68378
1.8379469,97.59332
1.7910582,98.27781
1.7731667,98.99404
1.883178,102.33745
1.9389359,108.50935
1.9393532,109.12069
2.0368984,107.86028
1.9232941,110.166145
2.0141501,112.135475
1.8456737,112.23162
1.9471534,115.9674
1.9812567,114.41078
1.9451218,114.47424
1.9866922,114.781296
1.8799596,113.30355
1.7699829,114.58989
1.9539406,115.69722
1.6857691,113.26858
1.768992,115.22842
1.7996566,113.03299
1.7299398,109.44845
1.6763699,109.69192
1.6405318,107.90259
1.6885905,107.61703
1.5296953,98.90503
1.5687789,100.908676
1.6337042,105.55668
1.5142354,102.79252
1.5317638,97.050354
1.5442201,98.83672
1.4368614,96.5115
1.4876375,95.79521
1.4594206,93.82661
1.4117982,88.63553
1.4183526,92.85609
1.4026111,90.21863
1.430819,90.916794
1.390538,87.11042
1.2384881,83.66906
1.3098686,86.24792
1.2815382,80.58737
1.3507799,82.6312
1.2271415,79.437836
1.2601017,74.786194
1.228364,75.35751
1.0720618,70.49725
1.1204994,71.846535
1.0059252,74.331276
1.0188726,74.43322
0.85434556,66.38198
0.9588886,64.45534
0.8487762,64.5619
0.85400134,69.43489
0.96248394,66.9237
0.8423617,59.527775
0.88931715,60.50834
0.8073804,56.08425
0.7920216,50.707436
0.9554606,57.06915
0.9403142,51.42115
0.8387388,53.223606
0.78156793,50.431126
0.8122579,50.320087
0.82859856,48.348835
0.73718613,51.295246
0.7468676,47.475708
0.6989128,46.92733
0.7216267,47.34245
0.5754692,48.090637
0.51744616,45.99209
0.45044255,45.920937
0.4891346,45.67978
0.40952134,48.76559
0.37540212,47.65628
0.43776816,47.63675
0.40385348,50.282047
0.37185517,51.580505
0.46805286,47.812553
0.4048144,56.665302
0.51043856,55.487793
0.5084402,60.100266
0.5540706,60.92747
0.71310437,66.4663
0.73139197,64.93838
0.7178637,70.312004
0.84416044,69.13575
1.0081767,75.51346
0.9425002,76.678314
1.1456152,75.35499
1.1442295,86.20267
1.2805866,84.8461
1.331875,87.68947
1.459341,91.34809
1.4660501,87.59041
1.5176638,94.79217
1.4776896,103.79811
1.7071673,101.04364
1.6094961,99.51741
1.7116712,105.38073
1.6215714,107.10649
1.665361,108.888954
1.6566731,106.448364
1.7913808,108.827545
1.7731407,112.02874
1.6331903,112.131676
1.8421297,117.39383
1.6571375,112.081726
1.620221,111.14058
1.6608173,113.253624
1.610154,112.16774
1.6845651,110.03051
1.6718104,114.93497
1.5644511,116.13476
1.5822685,113.91612
1.4824897,114.72471
1.583418,109.19517
1.3239676,107.94237
1.4461533,110.74869
1.3955206,104.538055
1.3527848,104.708664
1.3417766,105.49483
1.3478742,104.01243
1.3898503,101.27234
1.3623227,100.201256
1.2074122,98.24979
1.2969705,95.3113
1.1978716,95.1766
1.0973951,91.76686
1.1070212,92.74924
1.1659822,91.49918
1.0635806,92.1712
1.1129452,90.02622
1.1750354,83.67398
1.0530854,85.19644
1.1706028,83.27831
1.0512745,83.87991
0.9250726,76.23513
0.8401404,80.72365
0.8853422,78.53223
0.74232036,73.61423
0.76096517,77.70374
0.7761261,72.4507
0.7965925,69.22733
0.62674767,73.28177
0.64254296,64.024734
0.5868443,70.13652
0.5322103,65.15751
0.55981076,61.35545
0.5179389,59.742916
0.59834015,64.54706
0.45096722,56.419548
0.39634013,55.07615
0.48441398,56.9112
0.44525433,53.553646
0.59829617,56.209885
0.45632368,56.798332
0.4291194,51.384026
0.46920183,50.01746
0.48523,50.697544
0.363038,50.723404
0.44361106,46.949696
0.25264516,46.78661
0.35157016,50.53312
0.23498031,47.860264
0.25465152,47.954906
0.24411002,43.75214
0.10491736,46.30233
0.12225451,52.65995
0.18021819,48.198452
0.13572511,48.638313
0.10913254,52.375088
0.097936444,49.10023
0.1731083,55.759815
0.08971166,57.190247
0.117107235,57.697998
0.082949445,60.901325
0.21170601,58.500507
0.22072071,63.51161
0.29112127,66.23042
0.42904052,69.09304
0.45473972,71.52102
0.7747441,70.381256
0.7713403,75.95203
0.8691291,82.77186
0.840496,87.016525
0.93483275,86.21247
1.007769,83.1535
1.1382622,87.32943
1.1665012,91.61005
1.1192802,96.0354
1.3055592,100.46842
1.277248,101.49062
1.3695266,100.896515
1.3825356,103.00513
1.4427882,105.57214
1.4705998,106.40315
1.4673504,108.05595
1.389629,109.42386
1.354313,114.55926
1.4172661,113.69534
1.2827734,113.62785
1.4568566,115.42747
1.3524344,113.96113
1.4761521,112.86883
1.3058702,113.68563
1.3733233,114.03455
1.3090787,113.32506
1.453496,113.1795
1.2646989,109.43653
1.1529157,112.6812
1.2671337,108.57715
1.2198328,108.25245
1.2520727,108.391846
1.1110655,109.371605
1.058613,104.63849
0.9918039,100.22583
1.0320518,101.58783
1.0228,102.56495
0.8992887,99.44753
0.880778,101.79258
0.9218435,99.07686
0.93459684,91.01594
0.8733158,93.73889
0.8636309,98.54031
0.89971775,87.89927
0.8773319,91.202896
0.85869944,86.8426
0.7868774,84.1699
0.8218146,81.87609
0.8654823,79.73881
0.656757,81.86944
0.76281357,80.320915
0.6408925,72.131424
0.7865364,74.80192
0.5657591,72.07188
0.7127084,77.87253
0.56856203,71.21282
0.56750625,72.82049
0.499454,72.19873
0.41567644,71.49556
0.4701449,68.20603
0.30139688,67.88527
0.3355397,63.788254
0.33801478,60.721107
0.2867037,59.699512
0.2934729,60.166775
0.268448,61.31654
0.36090323,56.766834
0.41035274,57.18531
0.3713435,56.07939
0.3214629,52.2924
0.30029798,53.586933
0.3360167,50.045467
0.2870872,51.852703
0.26061445,49.803505
0.29244405,47.35457
0.27417043,52.05694
0.16001529,46.655872
0.16685382,49.704998
0.01956215,51.39304
0.12752998,46.143063
0.06993291,45.017345
0.012995903,47.088387
0.048856467,49.48784
-0.092748865,53.360844
-0.07754639,52.328682
-0.07293543,52.17016
0.07557937,56.261765
-0.0014833779,53.102367
-0.021569896,60.662327
0.06286487,60.10163
0.2568298,60.994358
0.23698498,66.12139
0.33136877,64.58478
0.37305817,69.818924
0.48070276,70.70278
0.5333793,70.758896
0.6164825,80.62806
0.7050591,80.46364
0.8720405,85.446815
0.80868655,82.10454
0.9748107,88.67706
1.0945026,86.915306
1.0994809,90.03763
1.1817254,95.93311
1.234526,100.731514
1.1964931,100.751785
1.127232,103.27479
1.3891174,105.80285
1.381902,103.56023
1.4025506,106.25519
1.365509,107.10756
1.416254,104.72636
1.4328629,111.68654
1.5312169,111.56888
1.4185034,112.969604
1.5299057,115.46631
1.5011255,114.01931
1.3990618,115.768555
1.3594911,113.498726
1.4121541,112.82378
1.3453852,115.974464
1.3041358,111.34968
1.24242,110.171104
1.2128574,109.031334
1.1841899,111.39927
1.1890055,107.62038
1.2384611,108.26247
1.313231,105.563286
1.2457275,105.94548
1.1798283,107.53409
1.0929513,106.44488
1.0555924,101.22084
1.0628453,99.83684
1.0469667,99.27307
1.024177,94.29611
1.052458,95.524086
1.0829017,92.7984
1.0302461,93.95389
1.0507998,94.24591
1.0549834,85.004524
1.0128129,88.57823
1.0343341,86.602394
0.9536749,86.24348
0.9529181,85.01033
0.90882146,78.954666
0.8731199,81.29322
0.84728193,76.633156
0.83597285,77.88282
0.9087514,75.18057
0.84321034,73.51137
0.8449102,73.12002
0.6879073,72.13151
0.7161346,69.06041
0.6427488,67.20002
0.63580054,67.969215
0.5605108,65.76902
0.55411935,63.2649
0.63220334,61.821007
0.41834247,60.255203
0.62355584,55.443672
0.61256576,59.99655
0.5673967,58.646305
0.6167177,55.385963
0.6020049,53.284706
0.5999372,53.574688
0.5153868,51.80822
0.52202463,47.48781
0.538625,54.010365
0.5108307,44.5759
0.53474694,46.105824
0.4463728,46.664177
0.4478748,46.493454
0.27701175,48.971966
0.2437623,43.379623
0.3350893,45.33583
0.3288134,51.364616
0.20794715,50.655693
0.17949125,46.55675
0.2103089,49.683975
0.23052698,49.743465
0.2673793,52.42542
0.19633193,52.052914
0.28223875,55.140217
0.35129642,61.383034
0.33262324,59.92071
0.382595,63.87729
0.5223518,64.03971
0.5871791,66.720665
0.677398,71.64158
0.6950902,69.75196
0.82036453,74.48443
1.0234579,75.357605
1.0242758,77.587875
1.1726615,77.881714
1.026106,85.511986
1.2806075,85.85836
1.3684154,89.30924
1.3801126,92.604904
1.5217141,99.78575
1.619543,93.848076
1.5441461,102.24504
1.6426716,105.03285
1.7171915,104.43605
1.678988,107.52773
1.7786739,108.68832
1.6940885,107.27618
1.7573858,110.61279
1.6386074,108.9809
1.7154564,109.37817
1.8062418,113.69259
1.6668248,110.58688
1.720369,109.76783
1.8642178,113.20446
1.7489758,112.345055
1.7045027,114.1987
1.6488008,110.54413
1.6299294,115.51702
1.6971537,111.758514
1.6224852,117.303894
1.6347272,111.79164
1.4885043,113.761505
1.6061643,106.62546
1.5603303,108.13329
1.5086935,104.71012
1.4223481,105.50082
1.4220673,102.327415
1.381901,98.94445
1.3594965,105.07762
1.4131448,100.70746
1.3044233,93.69344
1.3197294,92.71262
1.3826191,95.31861
1.3631794,95.61772
1.3762076,90.58425
1.2817454,88.29485
1.2694854,88.30722
1.4155082,89.24149
1.2665541,83.701965
1.2258589,84.80613
1.2576689,80.48115
1.2777942,80.182755
1.1935388,80.64628
1.166666,75.27475
1.0308855,76.52983
1.1513847,71.15402
1.0231978,74.360405
1.0397414,73.76267
0.9852409,68.212654
0.933887,68.37939
0.8629291,65.18606
0.8354858,67.32981
0.885969,59.385624
0.8363011,64.36861
0.86995494,60.518944
0.7949257,62.22153
0.89091325,60.950302
0.8545301,56.606785
0.88254815,52.80995
0.7702277,54.86974
0.8800624,50.669506
0.8447346,50.41111
0.7549083,50.814415
0.78785574,51.135754
0.7979001,50.952953
0.8234333,49.31913
0.8278495,40.951733
0.6091742,46.781548
0.66352904,47.432964
0.7242035,47.683037
0.71512634,45.0059
0.5413316,44.0861
0.6629943,47.765457
0.5903693,49.722424
0.58879346,48.12361
0.46881443,50.941612
0.46281344,54.41224
0.47226602,53.68765
0.55041176,57.560314
0.4846957,54.35344
0.6022745,58.861702
0.7264524,61.45334
0.8213753,68.70136
0.76799154,69.67778
0.93199766,67.946205
1.0911174,70.5879
1.2028109,73.59398
1.1966488,78.84059
1.2814987,81.40551
1.4862231,84.81839
1.4865123,87.94321
1.6460689,85.3234
1.4733695,86.53977
1.737351,95.54696
1.7259582,94.767685
1.7557104,97.2554
1.7900277,98.29853
1.9004407,102.211685
1.9177585,105.06333
1.9577166,104.54048
1.9766343,104.87005
1.92986,110.06114
1.9344552,112.969696
2.0253074,109.93131
2.0548825,111.49953
1.934895,110.44591
1.9323152,113.85403
2.0058365,114.485085
1.9403418,111.75812
1.8823961,112.75023
1.8838655,113.96662
1.984747,109.14006
1.8338511,112.42631
1.9080769,109.96674
1.7425508,111.439095
1.7807739,109.00711
1.7422844,109.16007
1.7716056,106.87007
1.7319254,106.270546
1.595078,104.40522
1.6924223,106.32943
1.6023527,103.418
1.558488,97.88806
1.4949183,99.24617
1.485129,98.05417
1.611988,93.72121
1.3619823,95.15648
1.3777313,94.59765
1.4672291,91.857544
1.4057806,90.29316
1.4552075,89.11515
1.4372036,88.07397
1.364631,86.09131
1.318087,85.794655
1.4106481,81.446175
1.3915993,81.863144
1.2438174,74.90489
1.3341886,76.7457
1.121325,77.20794
1.1770545,75.72617
1.0821482,76.28103
1.3410858,70.85007
1.1471585,71.47065
0.94210875,70.690865
1.1400687,68.90845
0.96711606,64.42197
0.9872602,66.05166
0.9683257,61.44357
0.84216475,61.404575
0.9437128,57.71289
0.8452791,66.40563
0.933219,57.11922
0.8188534,54.651493
0.906276,57.42483
0.9226008,50.88836
0.8583375,53.34953
0.9525403,50.124287
0.9034638,53.057514
1.010055,47.854023
0.79870194,51.994736
0.94306636,48.740276
0.79210466,44.123554
0.7302306,45.725628
0.588707,46.420597
0.54164726,46.505627
0.66125304,44.449005
0.625666,43.107147
0.6223366,53.554497
0.4519343,46.375538
0.54667866,48.74535
0.5265854,47.4438
0.5081601,57.77416
0.46313956,49.05396
0.38871196,59.185772
0.50395894,60.075146
0.4968837,59.35593
0.70578676,63.043465
0.6833355,62.940052
0.8142748,68.08413
0.83710206,69.3454
0.89029807,73.935745
1.0963477,79.42937
1.2004452,74.719406
1.2499108,80.491005
1.2838972,82.070755
1.3847901,86.79535
1.5524405,86.72348
1.5230491,83.435
1.5177637,95.14414
1.5698936,96.678505
1.7687553,97.23075
1.7188381,96.2636
1.7879772,102.179375
1.6823052,105.02846
1.7681166,106.9711
1.8651588,106.30465
1.8986658,112.22802
1.7681929,107.40471
1.8235476,110.103546
1.8749697,113.24887
1.8783605,110.38688
1.8517375,112.2628
1.7699989,115.105095
1.8512583,115.01946
1.773357,116.97884
1.6894237,113.04781
1.7674114,112.15608
1.723956,111.30302
1.534984,111.93991
1.6292516,111.45426
1.5186301,106.20214
1.6309537,108.62335
1.3827937,107.60558
1.4471878,104.81755
1.3283654,107.84057
1.4278175,105.28857
1.36036,101.80775
1.3003187,102.829315
1.3614093,95.65963
1.2710801,96.60406
1.2325358,94.74148
1.3011581,97.26145
1.2155242,94.16512
1.2440459,96.3155
1.2620535,90.27798
1.1074368,90.1643
1.276387,87.61717
1.1704106,86.50033
1.1858866,83.48786
1.1455497,81.18297
1.1562264,82.06996
1.1132166,78.20474
0.9590179,78.95451
0.89284575,77.03811
0.9988765,79.47845
0.8501454,73.06755
0.8256674,75.78404
0.83649164,75.50881
0.78024685,68.92932
0.6816684,66.506035
0.63849735,65.99998
0.5433186,64.16328
0.53339374,62.80179
0.62888926,58.110825
0.55281454,61.19477
0.52785367,57.41945
0.5326943,57.855373
0.48356226,51.72243
0.50410455,55.728397
0.51720244,51.223145
0.6160345,55.261555
0.6492536,51.932167
0.5982634,49.219303
0.5211958,45.239746
0.48234564,49.58774
0.52162653,48.683754
0.50361276,44.246094
0.52862906,49.477505
0.38598895,46.949944
0.36396113,47.73417
0.30334333,49.97865
0.27838632,44.22184
0.2776575,47.649204
0.20663285,48.42492
0.18962763,53.609066
0.10941862,49.636982
0.18412133,53.82193
0.18684058,56.48824
0.21478124,57.39422
0.08025644,60.80434
0.18669581,64.86655
0.22847725,65.55141
0.48158088,62.817844
0.54847157,65.01128
0.46381396,65.22777
0.7089741,72.51573
0.7076118,72.47509
0.78978527,78.64955
0.87891245,79.70775
0.96039206,80.05963
0.9995502,86.51571
1.0639081,88.895256
1.2614906,92.96378
1.283158,96.453896
1.3031077,89.017365
1.4225471,96.52142
1.4340532,96.979706
1.4449301,101.76356
1.4024067,103.9768
1.4829599,102.65733
1.4204092,109.70115
1.4917529,110.773476
1.4502575,111.629036
1.3787335,117.4991
1.4503657,111.90969
1.4815037,113.67558
1.5305357,116.24495
1.5170119,110.301384
1.4041667,111.04172
1.4841721,116.19754
1.3767259,117.08141
1.4575522,113.46547
1.2309438,112.38894
1.2779088,108.74345
1.3228403,113.18586
1.2269088,107.71739
1.1989915,107.74759
1.1073985,109.18046
1.097205,107.001396
1.1335934,105.768524
1.0719658,101.92183
1.0664355,104.94048
1.0086716,104.954056
0.89527965,100.902374
0.9239854,98.12861
0.9396709,100.32698
0.9812251,92.92241
0.9761016,93.99391
1.0495658,94.937485
0.90356654,88.94367
0.90636194,85.7292
0.9374318,87.71525
0.83410335,83.63324
0.8779465,83.13179
0.86080104,82.91294
0.94171196,80.92788
0.7421327,78.935745
0.7772334,77.897964
0.5931486,78.19312
0.6526798,77.78164
0.7368627,70.26431
0.6098939,77.60706
0.4241389,71.96642
0.42047188,65.44698
0.5224015,69.39932
0.41725096,65.19583
0.37257233,61.24261
0.3166504,66.9794
0.34883177,61.192135
0.4319084,59.405754
0.28423715,55.616093
0.35751668,57.896767
0.44256923,54.55298
0.28551313,51.141582
0.32979965,51.492455
0.32918978,50.048355
0.36735907,54.089127
0.32752973,51.72411
0.40014213,48.816753
0.18103454,48.729637
0.25049445,46.07369
0.1277186,50.84459
0.17077652,48.48083
0.112312704,50.074543
0.0382862,43.24586
0.02252465,48.467857
-0.016657665,51.14996
0.017308803,47.347595
-0.16704285,48.411922
-0.034390524,53.660862
-0.029761273,54.97907
-0.060897797,50.562836
-0.0026671467,54.432514
0.006569349,52.85352
0.019411972,54.333214
0.1341963,61.860813
0.1327077,58.386925
0.23797199,64.0733
0.2920755,66.912506
0.45028695,71.085655
0.5740936,73.86159
0.54971635,73.47148
0.6377209,76.32968
0.62067646,78.31063
0.74326473,79.71833
0.9187557,85.39888
1.0883331,87.7393
0.9653018,96.10745
1.0681615,91.28324
1.189865,94.026474
1.2204119,98.637024
1.259778,100.8086
1.2719517,106.003296
1.3705544,109.62988
1.2649455,107.68438
1.3756583,106.30686
1.3784475,109.28107
1.397372,110.811066
1.3848436,112.12536
1.3340384,111.02257
1.4020785,112.87965
1.3631562,116.437164
1.3340455,113.44249
1.349577,114.49349
1.3378164,112.89875
1.3330775,110.17063
1.2211773,112.73682
1.2415725,111.57986
1.1765157,108.100525
1.3410219,109.553955
1.2043514,111.48844
1.1302489,107.67443
1.1961017,106.72826
1.1060519,104.96588
1.100063,103.27119
1.0114478,105.61911
0.917627,102.17058
0.9315709,100.631096
1.0117992,99.60098
1.000229,100.58303
1.1467619,95.21244
1.0585402,90.048645
1.0099845,93.74032
0.95849746,90.37848
0.9426714,90.492004
0.8683153,89.11951
0.79089475,86.08214
0.94350785,89.44522
0.93467253,84.36551
0.97044253,80.75619
0.7617732,83.24758
0.75608927,82.604614
0.8013504,77.25557
0.70682037,83.29153
0.67519,75.55878
0.61468756,74.7482
0.67748547,67.66812
0.6041541,69.427765
0.6122534,69.58292
0.5576817,67.962524
0.5033841,66.63374
0.46393785,65.07314
0.41939002,65.63453
0.48639944,62.42181
0.3825254,60.804043
0.4528628,62.05688
0.5487529,53.859344
0.45945263,49.721394
0.503044,53.669228
0.53393066,50.310326
0.39570308,54.98624
0.46102086,50.71037
0.55180186,51.377777
0.42230162,52.119846
0.36140135,48.752674
0.3990377,42.390656
0.3472171,47.004646
0.3263368,47.723675
0.2844325,48.65701
0.2675293,44.627003
0.19901861,47.835987
0.1426615,44.84703
0.17525785,49.333942
-0.01289965,48.072426
0.14500226,50.353333
0.03588074,49.99362
0.12200537,51.870148
0.14526437,56.79786
0.17672789,56.1722
0.31899145,55.60864
0.3237685,59.48882
0.30942932,64.668236
0.36198744,60.0089
0.5496171,69.240875
0.59329724,67.77688
0.80183727,71.77513
0.7204129,78.27241
0.8528488,78.80779
1.029362,80.64277
1.0955164,84.284134
1.1836855,86.17165
1.1330442,87.11375
1.288195,94.82181
1.4235218,94.83761
1.4434838,97.23636
1.4184339,99.407745
1.4339837,98.19029
1.5682245,103.858444
1.679174,106.328445
1.5431114,107.03112
1.6258514,104.3057
1.5967425,110.71929
1.6097227,111.807
1.5183082,111.843704
1.7096012,113.70348
1.6852022,115.4065
1.709398,113.81693
1.5833662,110.428246
1.6573651,115.46985
1.645928,111.886604
1.679672,110.94825
1.5747374,109.01416
1.5824525,109.838905
1.6564865,113.572334
1.4420793,110.92934
1.4838219,107.06699
1.422527,107.55804
1.3604729,112.03701
1.4543791,106.37865
1.3844115,107.5454
1.3771192,105.727745
1.4449807,104.13597
1.3367776,103.75549
1.2980356,96.65279
1.3010345,94.99703
1.2791841,94.96999
1.2463958,95.554855
1.286829,91.100174
1.2074265,92.44797
1.330606,89.56062
1.2077117,87.4532
1.2544173,89.37608
1.2245513,85.4611
1.1877853,84.33293
1.2004505,82.661316
1.2339885,79.22003
1.1359956,78.52126
1.0995911,78.117165
1.0902209,77.03323
1.1408775,73.19004
1.0153586,76.67355
0.92596215,69.055954
0.9688272,71.39394
1.009195,70.71076
0.8604005,65.257256
0.78815347,67.97223
0.86559224,66.129715
0.9113414,61.001995
0.8633392,60.814793
0.7081518,58.31622
0.84422374,60.292103
0.77300787,53.32365
0.74011785,56.058136
0.81701213,52.624256
0.73311657,53.163937
0.82562804,49.092422
0.8121018,53.12076
0.7208551,50.451046
0.7617837,49.59778
0.74289703,47.64564
0.75910264,46.805923
0.69337445,50.415447
0.6029547,46.67114
0.6167256,44.77801
0.54502463,47.009926
0.53305423,46.752163
0.5035259,44.544804
0.49402434,47.897312
0.41967437,51.846607
