ppg,abp
1.0706929,92.31243
1.2120192,101.657646
1.2076043,108.28598
1.3291858,110.37793
1.3243592,109.27402
1.458366,114.04048
1.5548844,118.37696
1.5455344,115.82867
1.6291108,118.36413
1.6500918,129.64116
1.6821913,125.14314
1.6801914,123.05079
1.6874291,127.24993
1.7119195,130.72255
1.7280924,132.65814
1.6813531,129.86055
1.7128762,128.932
1.6922793,133.80757
1.7259907,129.42113
1.6503377,130.63367
1.606662,132.17606
1.6846535,128.68828
1.4818203,133.50302
1.5870575,125.73041
1.5397915,125.58606
1.4261397,124.13503
1.4939681,122.08751
1.434135,124.51886
1.3776932,119.55679
1.3245345,125.317
1.3842295,117.20378
1.3165019,115.73776
1.2774448,109.83679
1.3140498,110.372734
1.3013511,111.548515
1.3152032,109.47333
1.2927437,103.995605
1.3371574,103.654236
1.2946647,95.53474
1.2307428,99.43611
1.1672199,103.5684
1.2222661,98.37799
1.1639938,98.723404
1.202108,90.47852
1.0527785,92.88221
1.0686264,90.648026
0.97504646,87.72675
0.92067647,86.88176
0.8183804,84.43459
0.8895628,81.19337
0.80172455,82.464966
0.8032359,82.45015
0.81669205,76.89764
0.8040714,75.338776
0.74818027,77.30936
0.78288215,74.00887
0.8581939,71.63163
0.8438099,71.32318
0.8363625,74.66078
0.7988131,71.464005
0.79857063,71.883
0.7516707,68.85515
0.6991278,64.84222
0.71799517,65.27115
0.6145115,64.45667
0.5498333,67.81918
0.5976339,66.07934
0.5659679,65.5216
0.4199064,68.131454
0.50487816,66.34672
0.39012083,73.40505
0.54400414,70.53538
0.4907009,76.86374
0.6160975,78.020775
0.6206893,80.68442
0.74144447,79.28608
0.7573967,84.87206
0.9048907,86.42683
1.0196553,86.59082
1.1718833,97.11155
1.3154036,96.72181
1.3662734,99.08516
1.4521325,106.500916
1.4849298,108.68858
1.5497047,117.173805
1.6921335,110.23894
1.7519746,113.9416
1.8250257,122.424
1.8723577,118.39478
1.8918046,120.94419
1.8386245,124.485535
1.9612786,130.29477
1.9310104,126.771866
1.9014796,134.57375
1.9273926,130.26608
1.881727,134.16269
1.9202493,130.74205
1.9557972,129.50085
1.8918235,133.08334
1.8471946,128.12485
1.8481255,127.21585
1.850501,131.9959
1.7395025,128.16005
1.7199509,125.25606
1.735019,125.88065
1.6400408,127.266075
1.7458977,122.35116
1.6228608,116.53816
1.5616254,121.05323
1.5408444,120.60748
1.5345855,119.964195
1.513615,118.7279
1.4330933,114.23829
1.5677589,117.266045
1.501062,110.80674
1.4893609,108.81037
1.5133141,106.91401
1.4154571,106.17578
1.4080299,105.29232
1.4356587,105.62692
1.381918,99.40594
1.3634233,97.08018
1.303659,97.55374
1.2516085,94.48715
1.2773638,91.17418
1.2132379,94.84052
1.0106506,93.024475
1.1404136,85.13776
1.1305612,86.47714
1.0563701,86.375694
0.9660448,87.7447
0.92488396,81.39079
0.9727159,81.8157
0.9052772,77.2604
0.9432175,77.52373
0.9242029,76.97527
0.9759267,74.17923
0.9012958,72.01247
0.89058644,72.89295
0.91252524,72.64764
0.95993376,68.79889
0.8514578,69.99573
0.7954195,65.629585
0.81101,65.55079
0.76088285,69.88399
0.6422595,59.499664
0.61578375,65.9358
0.64660764,67.49722
0.5841623,65.058136
0.434502,71.29238
0.55293477,69.97588
0.5765003,73.29984
0.51949674,76.95649
0.62200814,78.35635
0.72652996,76.96207
0.72921646,77.60605
0.7646617,81.974014
0.8597251,86.10094
0.9812916,84.563896
1.0999416,95.446434
1.19034,95.176865
1.3121252,97.53081
1.3822594,96.773
1.4886429,104.4579
1.6068999,107.7597
1.5930722,108.61098
1.7093091,114.15694
1.764233,115.92555
1.8452091,115.086044
1.8313996,122.7977
1.8977634,129.12967
1.9378058,129.49701
1.8225259,128.18282
1.961913,129.13168
1.8698852,126.17109
1.8620157,131.17761
1.7759879,130.56725
1.8538105,125.7462
1.8711386,130.91344
1.8325222,130.35376
1.8026482,127.76888
1.743905,130.57698
1.7966211,126.63479
1.7642548,130.08253
1.7026407,129.35066
1.563376,122.03109
1.7069298,124.51036
1.5775859,122.919235
1.5608227,121.91298
1.4412416,115.144035
1.4793419,120.07344
1.4749023,120.99774
1.4312403,119.25786
1.4588679,116.098076
1.462787,107.54949
1.3331215,109.007385
1.4138668,109.88475
1.37666,108.03803
1.3383813,107.926216
1.2445456,102.88757
1.3470484,98.93864
1.2635344,101.28506
1.1268731,97.22808
1.1481658,99.85584
1.123796,96.454094
1.080572,92.3052
1.0018018,91.81699
0.97302455,92.273476
1.0049182,89.15933
0.9392391,86.4907
0.7956761,84.996994
0.7832152,81.950615
0.7832769,81.87831
0.6967333,79.25816
0.7045048,75.11784
0.6856206,76.8919
0.7011282,75.615105
0.8061015,75.19325
0.6995457,67.79229
0.67898506,70.83398
0.7433771,68.189095
0.65938205,69.45449
0.66446847,64.47547
0.5751308,69.75734
0.48382735,63.871918
0.53531724,65.03991
0.39882332,72.60129
0.39815184,66.855125
0.3475799,69.769745
0.3555775,68.67186
0.30134434,72.168304
0.3120786,72.47864
0.25672865,70.40082
0.43561333,70.02055
0.33557007,73.31334
0.49583766,77.45283
0.5195683,82.48557
0.60098827,86.224045
0.70166457,86.66405
0.7020104,90.15717
0.92772245,87.486275
0.965,95.36015
1.1394893,98.987335
1.1743793,103.43247
1.25198,104.78145
1.290804,107.45775
1.3831718,115.99249
1.4945829,111.26095
1.4687258,120.34008
1.4791646,121.13686
1.5600892,121.716034
1.6576409,129.22496
1.714955,125.82107
1.6173368,125.59307
1.5832069,129.43567
1.6344337,132.0642
1.6509975,132.13986
1.6569273,130.16428
1.7089207,133.26971
1.6050164,127.78898
1.6423626,134.75937
1.5206481,133.0474
1.5117141,125.531235
1.4460299,128.05943
1.4039584,131.66875
1.3826227,127.09741
1.3421786,126.27241
1.2893304,128.2267
1.2550113,122.090004
1.2930996,116.912704
1.3072474,123.470116
1.166848,117.55938
1.1519077,116.79485
1.1698184,114.66343
1.2694851,112.23483
1.1188412,109.598076
1.1426178,109.42784
1.1512673,105.87286
1.0798348,109.53452
1.0823354,107.43767
1.0406759,104.16995
1.0261042,102.37291
0.8973061,95.495316
0.9078702,100.35274
0.8723558,94.96145
0.8213716,97.416466
0.7991347,96.49089
0.7181796,90.24596
0.60033965,83.8494
0.63199145,87.84166
0.5289552,82.85759
0.5047628,82.39595
0.49163413,81.54998
0.48626775,82.50983
0.4107738,79.6501
0.5185263,80.517746
0.41363606,73.489685
0.5277697,76.41697
0.4038519,74.15174
0.49939027,72.575874
0.42755708,72.37967
0.3329483,70.65505
0.33454973,64.069016
0.40337443,65.763565
0.32437277,68.85079
0.25618285,67.40909
0.115331896,68.630745
0.22566676,66.86566
0.20283562,65.58713
0.1574522,65.60444
0.028848149,64.64045
0.056460693,70.90959
0.059459757,67.804276
-0.014842215,72.901215
0.08999606,74.61172
0.1753773,79.67637
0.22378342,84.83661
0.21729381,81.22075
0.3148903,86.12142
0.48239136,87.82003
0.5763369,88.779305
0.5535028,96.72366
0.6472858,98.07752
0.8504803,101.70662
0.9216274,105.59789
1.0203533,108.74376
1.0925688,109.310425
1.221039,115.07606
1.2402629,115.063644
1.295403,115.28494
1.2638713,121.69381
1.2058581,125.92889
1.4244083,123.24416
1.4846219,122.899124
1.3855778,128.388
1.4153334,126.92404
1.417348,129.034
1.4701613,131.30531
1.4249085,124.67536
1.3921971,130.71057
1.3528873,130.8504
1.32869,135.77332
1.234806,130.62921
1.2490427,135.25671
1.2698381,132.29874
1.1844014,129.42664
1.1591675,128.02467
1.0687677,126.62761
1.103864,124.75557
0.9872541,119.47832
1.0336353,122.12895
0.98643553,119.88786
0.8960522,118.456314
1.0001878,120.28723
0.9307949,114.01216
1.005908,110.26356
0.9769345,109.67678
0.86136115,111.16417
0.8508042,108.13479
0.81669134,105.839485
0.77683645,100.80841
0.80088323,105.055824
0.8501603,99.13107
0.6659904,99.67124
0.7446229,96.88196
0.69515353,91.70349
0.6378243,94.52642
0.5971458,89.14749
0.46978953,90.96955
0.507281,87.21992
0.41076148,86.23446
0.2940045,86.57018
0.3772112,80.23541
0.31799316,88.62146
0.40076843,77.73589
0.3209442,79.6315
0.33141893,78.45982
0.34450817,78.329254
0.31396398,71.72115
0.31718597,70.12476
0.35067046,73.113594
0.2538529,70.665504
0.24979253,69.70508
0.2112789,70.79459
0.28270906,67.11917
0.15024106,66.87411
0.13176921,69.32161
0.06752843,66.6592
0.03741338,64.15808
-0.019785784,64.94816
0.0016779405,67.19771
-0.08452686,69.695435
-0.10578491,72.40641
-0.06394766,77.32171
-0.051237915,73.00231
-0.03519402,72.38187
0.06472187,74.21818
0.076759875,79.91693
0.30799782,83.06708
0.26106328,87.35172
0.39923194,94.57543
0.5154709,93.39423
0.7136201,95.29942
0.66982913,100.606255
0.8526913,97.78905
0.98646337,105.210106
1.014259,103.954834
1.054136,114.021416
1.1681893,110.51117
1.2974299,118.70935
1.2521421,120.8628
1.3810707,124.780945
1.3607563,121.38337
1.4269855,125.32002
1.3997889,129.42508
1.3802083,129.37904
1.478617,130.88062
1.4175104,132.35725
1.4107298,130.51068
1.4298108,129.42517
1.4213831,129.95227
1.3985366,131.46664
1.2818395,129.59746
1.2869421,130.1069
1.2567877,129.95863
1.219642,132.60442
1.1822531,125.42814
1.1572483,124.9761
1.1681018,125.27756
1.1436548,121.516815
1.0933313,115.29015
1.0495653,119.30935
1.1024795,118.459785
1.0252938,117.78101
1.0562896,113.372406
0.97944087,117.75799
1.0131255,113.91822
1.0449681,107.78177
0.86287415,107.181656
0.9363448,105.259415
0.97547054,102.624985
0.98250896,106.05194
0.91318196,99.183914
0.8758014,100.18586
0.90814006,97.018906
0.85323507,96.04149
0.7162965,97.17203
0.71431935,93.789055
0.6801253,92.158005
0.69658774,90.30162
0.62020636,88.93734
0.5438788,83.62128
0.5302543,82.7176
0.41739127,83.40704
0.5277111,79.129486
0.5054829,78.27858
0.52703553,78.05717
0.46794516,78.359764
0.48132664,76.22129
0.455485,76.475586
0.42435655,71.728874
0.44158146,70.40994
0.37583834,67.48589
0.47582287,69.35803
0.3145651,70.20925
0.46559265,65.4089
0.2621111,67.38542
0.36391947,68.810905
0.21755199,64.37626
0.24290937,67.94476
0.15225758,68.69078
0.23345064,62.986305
0.14882386,68.05902
0.19397666,68.11712
0.16588458,71.181435
0.20967686,73.311806
0.26920795,76.336685
0.2828877,80.8911
0.32790044,84.177704
0.41682816,84.48495
0.5751263,89.97806
0.6572079,91.89758
0.6937622,92.867874
0.91900563,99.63044
0.9499049,99.567215
1.0538518,103.16966
1.1970115,103.49134
1.2452676,109.65331
1.3661932,112.77432
1.5134192,116.65454
1.467268,116.8108
1.4847242,118.15351
1.5773426,123.10203
1.5660181,125.953766
1.6242061,125.29878
1.653838,125.72677
1.6496134,128.05916
1.6593933,133.77911
1.6660752,128.63818
1.7233727,129.122
1.6338186,136.07608
1.6370599,131.41147
1.6515428,128.73634
1.6123002,127.87068
1.5504345,131.85689
1.5767611,130.47948
1.468428,130.05646
1.4644642,125.55259
1.4084823,123.50931
1.4361229,126.11879
1.4337864,120.939064
1.3654168,121.40814
1.3363487,118.095184
1.276114,122.29378
1.2686893,118.88741
1.2356169,121.123665
1.1835088,114.732086
1.2536706,112.2174
1.2499226,111.311905
1.348601,104.32648
1.3099347,102.09555
1.2499183,106.154335
1.2957362,101.42396
1.2390943,101.05008
1.0588925,95.54851
1.1564028,96.40943
1.1000447,95.054276
1.0128319,96.31674
0.9191102,92.74465
0.9631088,87.48883
0.805081,87.73656
0.8579186,89.76772
0.8004422,84.38354
0.7473884,85.76754
0.8360274,80.65725
0.77060384,80.975624
0.77401364,78.63291
0.80443865,76.58534
0.76539177,72.185844
0.7870543,69.95439
0.80301505,72.826904
0.78867406,71.01509
0.7677575,68.4858
0.8180843,66.633575
0.7724205,70.88269
0.6855463,69.366486
0.6146726,68.29373
0.64296633,70.019066
0.58296144,63.667694
0.6070859,67.0517
0.53795916,63.628944
0.4971391,66.62934
0.44278106,67.815605
0.3945703,68.1932
0.429011,71.17651
0.478996,78.017075
0.41947922,75.622055
0.60220236,79.51416
0.70636266,79.911385
0.6127101,78.405136
0.7291351,83.621216
0.9012543,86.77399
0.97198564,90.960266
1.117155,95.586136
1.2100943,99.35538
1.2723795,101.35352
1.4713025,106.18007
1.5255504,105.32569
1.5620563,111.1908
1.7237396,113.983795
1.6973908,117.70969
1.7171885,116.5438
1.8220186,124.96475
1.863489,121.087296
1.8976377,123.84216
1.924237,128.41125
1.9295691,124.536736
1.93535,127.258965
1.8918496,130.60944
1.8845248,126.88826
1.9392011,129.72667
1.9052321,131.98222
1.9136426,129.82066
1.7820989,135.59209
1.8095641,132.6386
1.8859624,131.30067
1.7952594,129.69205
1.7505789,130.09404
1.7342685,127.24629
1.7657355,123.48044
1.7238555,125.13938
1.5373038,121.15455
1.5262619,122.21094
1.4851911,120.24406
1.5033882,116.3911
1.5224015,120.91048
1.5175818,117.341995
1.4292631,112.49684
1.4044924,112.044716
1.4420513,109.88659
1.5029125,106.104744
1.4946842,106.94734
1.5013243,103.43074
1.4000143,98.90113
1.4066743,99.2531
1.37833,97.54885
1.2715234,92.509575
1.2655126,98.383484
1.2305253,92.33282
1.1147931,90.94193
1.1803145,95.304245
1.0641732,86.05957
1.0316354,86.34756
0.9543259,81.116104
0.9361162,81.566864
0.85542876,80.100235
0.94123626,82.19201
1.0409932,75.96466
0.8835931,78.236305
1.0564271,80.953674
0.98641586,77.24614
0.8998992,65.14942
0.91351825,71.633736
0.8924695,72.98096
0.95221335,66.40499
0.8725774,67.302086
0.86724544,66.13519
0.7913597,68.65067
0.7271866,65.120155
0.70135015,70.69899
0.62582666,69.39568
0.5412198,63.434635
0.60881615,64.264244
0.48685837,69.43214
0.5327456,69.7755
0.53217095,71.68677
0.60234463,72.37784
0.68178046,73.30874
0.72113264,78.14081
0.76753914,81.677124
0.7929771,85.68636
0.90491027,88.908615
0.9982136,89.18123
1.0958599,92.98913
1.2036582,91.40522
1.3054372,100.15241
1.4019634,104.782776
1.5560373,106.35443
1.5519993,107.82118
1.6404632,108.7162
1.667578,111.610176
1.8530147,116.12141
1.8012922,120.20126
1.9007912,116.695496
1.9203031,120.58096
1.977311,127.75377
1.9240549,131.2554
1.899353,128.24908
1.8748101,131.32922
1.8180319,130.42395
1.9386547,131.60156
1.9526674,129.13208
1.9219176,133.08156
1.8124948,129.93414
1.8983482,131.86618
1.7922928,132.47601
1.7496848,131.41713
1.7218186,127.13659
1.7191654,128.53
1.6128947,125.3181
1.6387609,127.00257
1.6235225,125.7547
1.6201981,124.06921
1.54999,124.11291
1.4580548,120.205154
1.5011195,120.85923
1.4298378,117.25286
1.4115658,112.20082
1.3867993,112.633354
1.3491518,112.81065
1.3931245,111.23122
1.4500281,105.85291
1.4784,104.08686
1.3292366,104.83811
1.3708017,99.89074
1.2697266,99.5136
1.173274,98.52335
1.2299932,96.205925
1.1605214,96.73776
1.178972,94.83859
0.98208565,91.72825
1.1227591,87.00576
1.0254745,91.10283
0.91568065,84.327995
0.8701389,83.04979
0.8253685,80.648674
0.84152704,77.34459
0.8148136,81.38843
0.8361916,81.62108
0.79495335,72.83607
0.8648315,69.96146
0.8028184,73.05833
0.7774991,72.15395
0.8200497,65.1387
0.6849664,66.5747
0.74432665,71.11306
0.6971964,68.69186
0.59478796,69.76572
0.5371574,63.9307
0.6083353,66.223404
0.55835515,66.20005
0.47851783,69.21621
0.506279,65.869316
0.41959172,67.05595
0.43537077,70.57913
0.39331824,72.63943
0.37243477,71.43694
0.36403787,74.96278
0.4258926,78.76525
0.49856842,79.68426
0.6408856,80.49313
0.69838005,84.972626
0.7717503,88.67075
0.8940593,90.36009
0.98089296,94.51896
1.0710937,98.658035
1.0931778,100.597374
1.3020656,104.81382
1.3187625,105.569885
1.4641266,107.90484
1.5366174,115.28755
1.5139707,109.62692
1.633255,118.48695
1.615183,119.30065
1.6458887,123.88582
1.6951531,121.61978
1.7117294,127.045074
1.7100084,129.15125
1.6533108,130.02861
1.704219,128.13155
1.8019631,129.5511
1.5690141,133.1067
1.7119842,131.50165
1.6989836,127.13552
1.567892,130.45563
1.5769683,133.87486
1.5203664,130.14056
1.608628,126.57781
1.5372938,127.80742
1.4997324,127.43445
1.4150177,124.44138
1.4284391,127.90424
1.3343123,122.57438
1.3605605,121.1689
1.2648605,119.689644
1.2157186,114.16301
1.3022621,117.509285
1.2033505,113.517
1.1485211,107.46666
1.1328385,107.89365
1.1176962,109.499344
1.1773912,110.72557
1.1165593,107.79321
1.1975293,105.679985
1.120348,102.898766
1.0457414,101.82873
1.0563792,99.45026
0.9290882,95.79275
0.8214438,94.15958
0.80836815,94.09156
0.806242,90.54966
0.73923045,86.66985
0.73679423,90.22677
0.6515405,88.09598
0.6514914,81.35584
0.65272397,80.70123
0.55677384,82.598946
0.56830347,77.42473
0.45482162,78.452065
0.51773226,78.68684
0.4635563,74.060104
0.51839536,75.14403
0.5154449,70.998215
0.50479746,70.08116
0.45792475,70.61764
0.5571068,70.164665
0.37225595,64.808655
0.33369765,63.963493
0.4222488,62.992573
0.273208,70.157936
0.21467946,65.21337
0.30916837,64.80902
0.20802757,67.57364
0.102201544,63.773567
0.11059031,67.73828
0.171351,69.87735
0.116282634,69.1167
0.1577424,70.456055
0.1686066,74.274925
0.22212283,76.248375
0.24639046,78.62904
0.32165775,79.00195
0.42031553,81.78531
0.5363954,91.13383
0.59273696,88.21401
0.71322304,93.905525
0.7961304,97.17822
0.9128274,99.63377
0.945259,103.540955
1.1980438,106.212944
1.1276059,109.11481
1.2095191,115.45322
1.2453458,113.576866
1.3541727,116.93365
1.3557627,122.95814
1.350867,121.68244
1.442679,123.9986
1.4628007,125.38141
1.4334452,130.70699
1.4099797,131.56255
1.5320944,127.70748
1.4438347,134.4449
1.3611861,126.56866
1.4617815,127.89047
1.3413639,128.04167
1.4728737,128.8652
1.3270798,129.91107
1.3349068,127.71061
1.1642071,126.49317
1.1615849,129.31262
1.2378253,126.18344
1.1557859,127.39717
1.1949449,126.25132
1.0933021,122.93805
1.0481131,122.58062
1.0900372,118.86128
1.0366843,114.704994
0.9650487,112.587654
0.9099425,109.60596
0.8403456,114.12643
0.9118469,110.93904
0.86566854,101.950645
1.0154696,108.56918
0.854905,105.48268
0.83061236,101.49356
0.76556045,99.738625
0.7867205,99.50172
0.7304418,101.2047
0.7918763,96.812355
0.6764188,93.329765
0.6197694,98.431305
0.56512773,93.835724
0.55777895,92.04898
0.45948473,90.45716
0.46904933,89.19897
0.47711658,85.67233
0.40016747,82.988335
0.34943005,81.44737
0.30528706,76.272766
0.32677203,72.58822
0.35897678,77.80463
0.26491392,78.80963
0.36536807,72.207756
0.3330299,74.91276
0.30816376,73.973724
0.2709043,68.06211
0.25726676,71.07907
0.2755738,68.922806
0.2087944,66.07315
0.15206207,67.64807
0.1504623,66.886604
0.1071748,61.709206
-0.012815809,72.34901
0.028272334,64.626465
0.08204266,68.39473
-0.026466321,73.28381
-0.12775916,69.73625
-0.037398726,70.24929
-0.10055367,74.12938
0.15867013,75.11629
0.1748393,81.07659
0.11957316,78.8075
0.13462436,82.1182
0.28841636,86.094345
0.42008263,86.287445
0.45628542,91.07947
0.6363767,94.24654
0.735389,95.746544
0.84869075,100.43636
0.94624275,106.75301
0.9787943,103.48114
1.0591631,113.489296
1.1641048,112.79361
1.190418,117.500854
1.3039759,121.623055
1.3034139,119.46686
1.4126797,124.830864
1.3891616,122.64541
1.4170955,124.09383
1.3843774,128.1667
1.3897791,129.49965
1.4578061,132.98152
1.3601644,127.91928
1.3903574,133.0639
1.3400655,130.8187
1.3207331,131.3131
1.2580074,126.28468
1.2494451,130.14433
1.2109878,131.61057
1.2447699,128.19618
1.2301347,126.934525
1.146158,130.82457
1.1267244,125.02985
1.0783303,119.52269
1.0206927,118.44463
1.0683686,123.89468
1.037705,117.62646
0.9089429,118.96031
0.96510345,114.46613
0.9275745,114.52001
0.93932015,110.788895
0.9177892,109.75035
0.934668,109.38993
0.90946686,103.66772
0.8920117,105.52091
0.9344881,103.562546
0.8839603,97.814644
0.7969647,105.912
0.7664438,97.12782
0.77094215,93.802475
0.7266665,97.973724
0.6332791,89.894516
0.60421675,89.63686
0.652091,89.667725
0.50675786,86.19134
0.5820795,87.045876
0.5194332,85.33009
0.52599293,80.49676
0.4092844,83.99385
0.42150703,78.15469
0.4061316,77.67014
0.47491452,74.681854
0.40199316,73.00485
0.45879266,72.41052
0.45353362,75.50851
0.41407305,70.95692
0.4590189,66.44221
0.38629317,68.142494
0.39039847,65.902466
0.2985515,68.911125
0.24995685,66.05793
0.27215493,62.906788
0.21759713,67.29121
0.17078489,64.80598
0.112437956,68.31851
0.1713085,70.51551
0.042754207,68.805954
0.042103983,70.53329
0.15161005,72.99954
0.18153447,73.00457
0.20923486,76.924965
0.24651653,79.5888
0.36026323,79.6278
0.50442004,87.22618
0.6390943,83.34627
0.5628922,92.239525
0.72580284,96.67593
0.8317697,98.46794
1.0295857,97.36617
0.9505736,105.0126
1.174428,111.03013
1.2251344,108.78943
1.3826966,112.16818
1.4416453,116.79022
1.44722,115.64139
1.4081122,116.59016
1.4892275,123.41166
1.5233487,124.57273
1.5079962,123.89528
1.6323185,128.76118
1.5286975,128.36017
1.6829929,131.08302
1.6829168,131.4237
1.5756265,131.81026
1.5973399,131.72127
1.5658151,127.68947
1.58993,128.04318
1.5836955,135.26024
1.5131687,133.64378
1.4933205,128.93745
1.4145923,129.56073
1.4285656,123.51442
1.3844559,122.63918
1.3065548,117.83133
1.3169855,120.6619
1.275148,120.07263
1.2431872,121.57896
1.2015444,117.70292
1.239899,117.13827
1.1918803,113.91725
1.196542,112.70813
1.2564102,110.41468
1.2292477,110.108315
1.1494925,101.39531
1.1952294,106.0032
1.1691562,103.91651
1.2161741,106.423546
1.1753372,101.357506
1.0156349,102.80403
1.0830183,95.564445
1.0595875,93.91944
0.9852001,97.84429
0.9017482,91.66018
0.97840935,88.592415
0.8608921,88.76938
0.88260454,87.40672
0.82485616,88.07197
0.76217747,81.58456
0.699459,83.42476
0.71306056,84.046844
0.6993398,80.875916
0.6550807,80.827324
0.7379662,75.05966
0.779787,74.91494
0.6983114,70.285385
0.8020782,76.48636
0.63046384,71.662994
0.72891194,69.0751
0.7332516,67.54443
0.621955,62.034748
0.5875191,61.468845
0.6017937,63.713795
0.5370743,64.97233
0.3873213,67.96153
0.40114948,68.81174
0.40777272,67.67443
0.32882574,69.4317
0.36066628,69.53314
0.32986838,74.02754
0.39544967,71.567924
0.43628782,74.55893
0.52178276,77.98418
0.5728228,78.20599
0.6823579,79.18243
0.7714845,86.28651
0.9020386,93.63752
1.0022849,91.71975
1.1065412,96.32526
1.3162181,96.97875
1.299522,101.88024
1.4951591,100.83683
1.4895396,104.73176
1.5484495,111.68962
1.6065357,112.63924
1.7495906,112.09776
1.8064408,117.59906
1.8029842,123.13122
1.8598663,121.73563
1.7805566,119.8908
1.7878435,130.96785
1.9229198,128.62508
1.8703952,133.35352
1.9109044,131.33441
1.8441703,129.68767
1.9403664,132.44199
1.7885599,132.52275
1.7785726,135.96977
1.8810495,134.38579
1.6789209,132.46701
1.7808925,131.03961
1.728451,129.4264
1.668006,126.818756
1.6577064,129.44725
1.5961306,124.62107
1.6687016,123.58864
1.6508555,122.77363
1.5160683,119.55062
1.5357301,118.301285
1.4473599,117.64147
1.5371798,115.7202
1.5240599,117.53657
1.4553963,108.84811
1.4596676,111.945564
1.4447669,107.76507
1.3659847,106.328224
1.4885262,99.87347
1.3673577,101.93296
1.3422538,103.14547
1.337964,98.61194
1.351785,97.39473
1.241659,96.075775
1.1379384,95.53011
1.1382039,97.1936
1.1489955,91.42436
1.1812488,96.56441
0.9891266,94.10405
0.950934,90.147675
0.91091865,86.94578
0.88156986,83.632774
0.9884807,84.61558
0.9900734,84.276985
0.9266352,77.946655
0.896053,76.67336
0.99392456,76.27426
0.9220726,72.7582
0.9582909,75.03416
0.8800062,67.46739
0.890467,69.99347
0.81369275,65.45287
0.86735845,67.316376
0.8138143,65.08447
0.72666407,66.26378
0.6840522,62.324123
0.7489026,67.67272
0.7221109,65.70094
0.5893154,69.63467
0.5721896,67.87454
0.5681376,71.05491
0.5517863,69.383286
0.48187718,73.945656
0.5994142,78.85493
0.5316081,74.28858
0.6485815,80.273964
0.7748261,78.02898
0.86348206,83.30796
0.8962071,82.19651
1.0127007,91.01905
1.1116546,91.18865
1.2386025,97.44858
1.3451812,99.60473
1.4740107,101.523224
1.5138468,107.042915
1.6359049,110.79412
1.7155,110.34852
1.7658834,116.749146
1.7998465,116.38507
1.8634852,113.0845
1.9239161,122.29536
1.9550773,122.4103
2.0177119,124.91108
1.9086342,122.75125
1.9401536,129.51352
1.8909746,128.33379
1.9990544,129.57259
1.9358641,133.83185
1.9467787,126.810776
1.8940189,132.6491
1.8842611,132.53397
1.9258085,131.78915
1.8727497,133.20775
1.8043967,131.89978
1.8072351,129.17793
1.7712228,126.00222
1.6823338,125.442055
1.5987724,125.04604
1.5890275,118.196434
1.5379059,120.887924
1.6189017,123.19731
1.601899,117.830826
1.5919385,118.899315
1.4170492,117.311646
1.5372069,116.346176
1.5737177,111.03476
1.5125693,109.42837
1.3557457,108.98136
1.5099646,104.66952
1.4137638,103.15255
1.3761742,105.37676
1.3750131,99.71357
1.2730012,100.79562
1.2773159,98.814606
1.3020943,96.14917
1.2096887,95.06742
1.1348823,94.2998
1.0865055,94.316864
0.98352283,87.04466
0.98503095,85.208
0.88202393,85.48578
0.9661608,84.78033
0.8009336,82.86322
0.91518396,84.46973
0.9079614,76.54132
0.9147215,73.26334
0.8557645,76.681274
0.8877447,74.462204
0.83529013,72.16975
0.7817776,73.01159
0.88681746,66.11379
0.7958647,64.802574
0.71172494,63.255436
0.7191336,65.51816
0.68090487,69.46562
0.67504305,62.859013
0.7100679,66.30237
0.5830836,67.0719
0.5249584,70.36185
0.5848736,65.42981
0.49114233,66.26563
0.44201392,71.95942
0.40644506,68.519325
0.45315295,75.530815
0.4646805,75.50604
0.5160316,72.76245
0.62926054,80.78289
0.621845,82.90993
0.75295335,84.06374
0.8658404,86.0816
0.8951277,94.314995
0.99040204,87.985374
1.1216505,93.32625
1.2067745,98.80117
1.3704116,104.33032
1.3620458,106.33626
1.485671,107.76062
1.6611327,113.58756
1.6253352,111.139786
1.6801534,118.67914
1.7437801,119.61039
1.7024856,124.13158
1.6972528,125.759056
1.7669319,128.18114
1.7792596,126.53965
1.6997436,127.53384
1.7842574,130.72003
1.8070852,127.63975
1.7081747,136.66875
1.7500342,135.49748
1.7483586,128.13959
1.7089877,132.04257
1.6829914,133.79498
1.6088513,129.46696
1.5336872,127.77861
1.5247499,131.23587
1.4790323,130.45778
1.4615774,122.26036
1.4745077,124.856544
1.3334153,122.7885
1.3640271,117.39322
1.2819722,116.09619
1.2706531,115.99491
1.3056519,116.44544
1.2107519,117.66407
1.2785274,106.44616
1.1722718,111.42507
1.2450423,107.180504
1.1311601,108.877144
1.1517117,108.26596
1.2371733,106.60128
1.1996007,102.21311
1.0721691,99.93833
1.0670291,102.096466
1.0575796,96.51227
0.9859568,95.69043
0.8930892,92.75975
0.8204735,92.87794
0.8403394,87.18198
0.80399615,87.924835
0.7862571,87.06478
0.6001525,87.49376
0.58818007,82.93724
0.6695188,75.89035
0.5333532,78.49412
0.6430389,81.560905
0.57149625,76.8866
0.55232245,73.24872
0.5784358,71.07228
0.50322056,72.86247
0.5866284,69.088806
0.6076688,69.57043
0.5486152,66.698944
0.4695675,65.548355
0.37618673,66.05568
0.3351731,66.20175
0.29589593,66.11525
0.30502844,65.59095
0.26318908,69.027016
0.2529321,66.0247
0.100533605,71.07633
0.21028157,68.37872
0.17005125,68.50426
0.12678768,72.27777
0.1063454,75.125854
0.2464841,73.52805
0.22852208,74.360504
0.30536336,82.480385
0.40066916,85.93597
0.43235385,86.892715
0.5560088,86.866394
0.7069236,91.30572
0.8049015,92.00833
0.9063224,100.363815
0.91911894,101.66787
1.0499884,105.36931
1.1258104,107.73921
1.2353743,110.47264
1.2954156,113.859215
1.3416225,116.13827
1.4869784,121.44638
1.402022,117.8774
1.4240218,121.309326
1.4109299,124.43625
1.4071883,126.5592
1.4279274,130.77254
1.4512184,126.47227
1.5360907,131.82777
1.4720055,130.90913
1.465427,133.61829
1.4348468,132.70326
1.4325768,131.39932
1.4511577,129.06355
1.272274,131.62914
1.3786359,129.17506
1.1791195,128.92528
1.2520586,129.90936
1.3078532,130.29231
1.203721,121.72437
1.1538001,125.883705
1.1910625,125.52888
1.0424389,120.51659
1.0654118,116.55295
1.0489376,118.36003
0.9817262,115.36658
0.9693718,122.2007
0.9503105,113.06028
0.9642772,109.400185
0.9700224,105.3574
0.93507284,104.76541
0.9407718,107.341934
0.7994036,99.526
0.84627897,97.880035
0.7760998,102.42302
0.79375505,97.51825
0.74843264,96.05344
0.6828866,96.29242
0.660485,92.66287
0.63202864,87.776665
0.53788406,88.20347
0.4502335,89.0737
0.38779742,86.381714
0.42527497,87.95105
0.40786877,83.67206
0.33536336,78.97557
0.39600933,82.52746
0.3359875,81.00323
0.2789173,74.31388
0.4029243,75.691345
0.39431334,74.44801
0.250067,72.30554
0.30283198,67.05144
0.2845911,76.06623
0.35918587,67.16069
0.2530487,68.19754
0.15544498,68.8971
0.21752217,65.41498
0.080272816,69.09518
0.07694092,66.29202
0.011140182,65.1481
-0.018043956,63.89623
0.017315751,67.1874
0.02386712,70.02451
-0.10372013,69.82872
-0.011034994,73.71939
-0.04447497,77.93029
-0.0008220872,75.50112
0.10930909,81.20563
0.115427695,81.50439
0.26558793,84.520645
0.37133133,86.70444
0.42170537,90.58896
0.60331166,90.86175
0.59508437,94.223724
0.81239575,97.70779
0.766885,98.22291
1.0609115,102.62455
1.0081166,108.3104
1.0485634,110.17583
1.1528097,114.26656
1.1711236,118.5348
1.2781545,120.1872
1.3566337,121.68272
1.2811775,119.75365
1.3703214,126.02993
1.2921109,125.96437
1.4123756,130.50774
1.3883523,128.14668
1.4150908,128.17415
1.3558823,134.7044
1.3306812,127.529564
1.369214,135.70752
1.2559346,131.85274
1.2122903,130.42346
1.2598225,129.58856
1.2115997,131.83257
1.2191274,129.31296
1.2076811,128.07535
1.1482006,126.24532
1.1349857,123.936356
1.0727137,126.42141
1.0511146,120.84373
0.9988216,117.33215
1.0025281,119.34008
0.9716612,113.58762
0.96417445,118.59605
0.9309132,114.37365
0.9632606,106.74303
0.88685185,110.787384
0.9057902,107.28341
0.94997126,109.366196
0.833507,104.34283
0.7579972,102.66629
0.84054536,100.28796
0.7800595,98.81198
0.7971745,92.94117
0.70499015,94.73813
0.6391732,92.00316
0.61596555,91.62883
0.6213584,93.40137
0.5555549,92.87618
0.38507494,87.84666
0.46590143,84.20244
0.4409464,80.55714
0.4095496,80.955055
0.37001428,77.46452
0.44107792,78.1385
0.4400404,76.85809
0.28915742,75.819984
0.35101813,74.08153
0.37878314,67.921326
0.42249587,68.822655
0.37358296,67.64791
0.32695106,67.72293
0.36563474,68.0884
0.29642513,65.33789
0.2654765,73.942604
0.22982073,69.144684
0.21408963,63.806015
0.1337892,69.46682
0.13873717,70.670296
0.07333879,64.57895
0.0070283166,65.678055
0.041086107,69.93093
0.0015628394,73.57628
0.06651924,73.59941
0.13613658,70.80928
0.1044672,75.168495
0.23403479,78.06046
0.26238447,83.98644
0.39925763,81.51047
0.52852863,84.800606
0.50410604,90.898705
0.6570617,93.86819
0.797717,99.141975
0.932398,98.788414
1.0105373,105.920006
1.1074498,108.66309
1.2814859,109.35626
1.2125351,111.29084
1.3783973,119.27173
1.367137,119.085846
1.4507843,119.790245
1.5555882,120.45729
1.5207859,127.76126
1.528133,125.01845
1.5966334,126.79941
1.58522,127.56314
1.5052831,129.45049
1.552211,131.996
1.4587379,130.3536
1.4998763,131.54121
1.5223538,130.10774
1.4631623,132.62315
1.4781762,130.77725
1.4389095,127.468056
1.4333469,129.16875
1.3598852,128.96286
1.3049334,126.275314
1.3783224,121.08845
1.2612334,127.3971
1.2831422,120.6306
1.2915937,122.80487
1.2143203,118.83872
1.1520207,117.80124
1.1675289,115.83561
1.2088264,116.88073
1.1646944,113.336334
1.095394,111.37236
1.1660719,106.45054
1.1638515,111.00986
1.1018443,102.25751
1.1268673,107.07681
1.088715,98.08606
1.0417448,104.817474
0.9608811,99.84722
1.0266832,95.97303
0.97129667,92.2355
0.919897,93.68466
0.9175287,93.052895
0.8482874,90.37759
0.7969581,87.547585
0.63490856,85.047905
0.75425047,87.72282
0.68263775,82.48077
0.6764778,82.339165
0.66699874,81.024956
0.68250066,75.179276
0.6973323,76.18161
0.6777657,77.88161
0.6726243,73.99657
0.66174495,72.94202
0.50107837,69.61998
0.62514704,71.9628
0.58026236,72.95315
0.65092367,65.769684
0.5950649,68.74008
0.51236457,63.267544
0.4771933,67.650566
0.43450052,67.26862
0.39384577,63.84379
0.31314617,69.1647
0.2754347,65.47563
0.33125544,73.31981
0.3717152,70.4673
0.31075183,71.33907
0.37289086,71.96186
0.43347785,76.97908
0.4157814,78.63868
0.53082293,80.662224
0.5880165,81.25797
0.78311276,85.2082
0.8846128,87.0787
0.8809204,87.874565
1.0503345,94.67232
1.1877397,95.58955
1.281576,106.054115
1.3450884,108.889435
1.4874886,108.45622
1.4706259,106.4037
1.5667764,114.620415
1.6016598,115.80538
1.7245002,121.48483
1.7061764,123.65071
1.7571241,121.69835
1.8170626,124.54836
1.8393527,126.07276
1.7819786,127.56084
1.8749529,126.026924
1.8507868,131.50671
1.7808186,131.45506
1.7624692,130.89525
1.8074778,132.42664
1.828471,132.43967
1.8084623,134.05222
1.7607255,132.87276
1.7189019,132.438
1.7081493,127.02349
1.6158438,125.41191
1.6936929,128.99054
1.660514,129.39
1.575183,125.92986
1.5367241,123.17646
1.4851342,120.80879
1.504951,125.76824
1.4342675,119.34875
1.3534632,115.21443
1.3209698,118.5369
1.3952962,116.171326
1.4282762,107.08346
1.4262938,105.80675
1.3785858,106.43237
1.3904859,108.136284
1.3521396,102.09489
1.2950057,99.34817
1.3053164,101.88875
1.3069451,93.79667
1.1890837,95.74419
1.1451243,92.34227
1.0943571,93.08807
1.0107926,89.16807
1.0305501,89.27141
1.042451,88.85007
0.98366946,86.41456
0.9396233,83.10686
0.9302858,81.808495
0.8876155,86.10216
0.8143061,81.2017
0.92891526,76.934715
0.94009703,76.26076
0.8615222,75.33446
0.88600206,71.0376
0.87872326,71.43581
0.8962887,67.68046
0.9406039,66.747986
0.8964612,70.13139
0.8013477,69.6525
0.80704904,69.410225
0.7985563,66.19155
0.7188713,65.06621
0.6574525,66.33225
0.63601166,62.49444
0.5500415,70.483574
0.5290145,61.834984
0.49064884,71.522865
0.54777926,68.36047
0.5410825,72.29415
0.5394751,72.23726
0.61313784,74.40903
0.7013277,73.03605
0.8390713,78.30892
0.8863531,86.103035
0.8385238,84.02243
1.0512747,86.92613
1.2091217,92.714325
1.1944157,90.71322
1.38046,98.49384
1.4444904,103.09249
1.596407,106.501366
1.6466008,106.30919
1.6636059,114.50619
1.7567801,116.925224
1.8128262,113.236374
1.8576201,121.42607
1.947033,122.4324
1.8884723,125.35694
1.9889476,124.59522
1.9453392,124.6279
1.9758328,128.63231
1.9713823,130.93921
1.9643519,131.79953
1.956918,132.22885
2.0086021,129.23186
1.9645452,134.96194
1.8902206,134.3582
1.9492724,131.74487
1.8624846,128.33308
1.8333277,130.33998
1.7460886,127.7451
1.7245886,126.77469
1.6797258,127.869286
1.6779697,123.94001
1.6685206,126.7034
1.6259612,123.30802
1.6520882,122.54674
1.5206105,116.43733
1.544783,115.36669
1.4674268,112.16974
1.4693537,116.372086
1.5523446,118.235634
1.4644265,110.99848
1.4356931,108.6394
1.3610903,105.18527
1.3979081,108.313446
1.398865,102.725105
1.3175235,99.601974
1.3288159,95.95811
1.35424,95.24265
1.2222211,96.112495
1.1634936,89.9656
1.1060572,89.64268
1.0563939,94.615074
1.0832418,90.92937
1.0197222,86.49197
1.0226138,87.67979
1.0386578,81.954865
0.84690577,83.7947
0.9263514,79.40998
0.8495514,83.12564
0.9258935,74.24676
0.8752606,78.83929
0.88465106,73.45347
0.8222752,67.94311
0.85107386,71.68864
0.85983515,71.38413
0.8949806,72.18004
0.77391917,69.56795
0.75053215,64.9245
0.77572715,68.9853
0.652377,66.404915
0.6928865,62.544632
0.59606117,66.205185
0.5665029,64.105194
0.5325654,67.21278
0.4622747,70.1928
0.4909405,67.11102
0.43910176,71.900475
0.46545255,75.476585
0.54262835,73.49465
0.5780466,76.50195
0.6241538,82.07192
0.6481432,84.79629
0.7458987,82.30266
0.8973094,85.50304
1.0178134,92.795334
1.0402364,93.54334
1.1540935,96.89091
1.2951881,96.357605
1.3869727,102.54295
1.3961799,106.362
1.5502458,111.46958
1.5834605,111.86287
1.7377175,117.21567
1.7236493,117.76438
1.7686341,123.52907
1.7986863,122.81545
1.7473267,123.66043
1.8994737,124.92694
1.7517416,125.72918
1.8597345,130.12103
1.8491457,134.9345
1.7934784,132.93024
1.830786,132.52637
1.7704898,128.91275
1.732954,128.99364
1.7566651,133.67284
1.6618693,132.04428
1.6621692,128.80235
1.6093407,125.41228
1.5820271,127.887924
1.5761342,125.06491
1.492067,124.60034
1.4717647,121.410934
1.4226961,124.74109
1.4754012,119.85057
1.3986762,120.799576
1.3685671,118.811195
1.3677073,114.83304
1.2938988,114.00737
1.3414857,116.769295
1.3041284,108.531685
1.2054462,107.215416
1.1939666,102.53915
1.210836,105.33498
1.1533047,99.07232
1.1706319,101.08411
1.1013438,96.295395
1.1005789,100.46545
1.1210084,96.6687
1.0080785,87.59736
0.94569385,91.36187
0.92409736,90.7674
0.82630855,91.35548
0.8462636,90.398796
0.78847104,87.54057
0.7318597,85.56841
0.7068432,84.0722
0.7659915,82.87324
0.7010595,79.671684
0.7443899,77.45312
0.66385823,76.74099
0.5706379,77.43796
0.61766076,67.764725
0.54690677,66.48933
0.63219416,71.82674
0.62402993,67.279564
0.52851534,68.52071
0.50729775,67.450775
0.50451404,71.9039
0.40225,68.01238
0.3517752,68.564255
0.4128933,65.53305
0.31668314,64.65583
0.24466121,65.09026
0.16006528,70.69671
0.24655123,70.124306
0.16773766,70.403496
0.28200874,75.783
0.25741264,73.314255
0.22011776,73.916954
0.27562898,77.20537
0.44823772,82.99563
0.4483167,79.99374
0.51880765,85.90704
0.6390479,92.72697
0.716128,93.0026
0.85136765,94.743546
0.93788475,102.8568
1.0754354,102.38086
1.1097358,100.98837
1.169423,107.433945
1.264947,113.67069
1.3270173,114.129395
1.3916059,120.091385
1.4656096,116.561386
1.497162,121.23034
1.5499499,124.41622
1.4804492,122.621956
1.544559,127.17819
1.565086,129.60074
1.5041856,126.83625
1.5197881,127.22682
1.4428122,134.05818
1.5444907,131.93932
1.4765197,126.34301
1.4977145,130.08815
1.4438177,131.49887
1.3952235,125.464775
1.2989937,127.844734
1.2695329,128.29984
1.1793433,127.1973
1.22884,124.24608
1.3144143,125.00287
1.121977,122.9193
1.0293258,121.85682
1.1557318,121.40484
1.1902155,114.69132
1.0771942,118.961044
1.0575252,116.790405
1.0149407,114.93939
0.9354573,111.641594
0.93629456,109.83479
0.9707338,108.25832
0.9449571,106.97122
0.9411238,106.90012
0.95674765,105.08564
0.86425143,100.95101
0.89045566,101.25492
0.7867855,99.303505
0.8114622,98.05843
0.7209931,93.83076
0.64773196,95.978516
0.61954975,93.13447
0.5555108,86.98057
0.52884126,85.89606
0.51779634,89.53035
0.44793466,79.9314
0.40944803,82.43024
0.35710844,85.63161
0.41814792,81.53745
0.39966232,79.74949
0.32770863,72.97432
0.41199124,76.0352
0.3185843,76.278564
0.40842387,70.62628
0.38145834,70.10459
0.351683,71.34172
0.29202878,67.540474
0.30185562,63.752724
0.2856448,60.36594
0.22149758,67.07447
0.1204238,65.04052
0.11505587,59.93165
0.10904085,64.83069
0.11749253,66.40379
-0.016987639,67.06778
0.0113694295,71.96969
0.01909295,72.287254
-0.05491155,72.091064
0.08567163,71.38558
0.004980287,78.13684
0.14609535,82.2786
0.19750506,85.45283
0.27198264,83.53506
0.47547716,88.4335
0.45214498,88.56782
0.5556985,91.25101
0.73211,98.0067
0.80896354,96.607574
0.9282771,101.57068
0.9668678,108.507675
1.0565172,107.75107
1.1971426,109.48833
1.1392432,119.363144
1.223104,118.72884
1.3049556,116.11392
1.2953578,123.00164
1.3049288,124.018936
1.3756608,128.02242
1.4194652,128.89365
1.361734,128.95314
1.3620083,130.73572
1.3376166,131.661
1.3447343,132.39046
1.3920802,130.86737
1.3308505,128.42648
1.2703243,131.05255
1.2910099,130.07721
1.2959043,130.35994
1.1929388,132.23401
1.1248085,132.05032
1.2427297,129.18379
1.0510775,128.11186
1.0609212,124.60581
1.0542121,122.42187
1.0026823,123.448906
0.9854521,122.357765
0.9919797,120.63875
0.84424055,116.35902
0.8786001,115.13972
0.9236003,117.6936
0.89312375,105.7962
0.9055549,111.95416
0.8975659,107.13391
0.7801591,105.39079
0.90912706,103.78252
0.8078262,98.416794
0.76250577,100.50828
0.77474314,102.24918
0.7307731,96.876274
0.7348583,95.47544
0.6483936,92.04439
0.64008236,92.43014
0.5024056,84.6937
0.5061207,87.046844
0.41212568,88.03308
0.4315997,82.29347
0.39539298,80.74322
0.37341192,80.787056
0.36027825,81.2983
0.3911482,80.79143
0.2854071,76.78695
0.31552204,74.454216
0.3528399,74.59618
0.30141607,71.69815
0.3496716,72.59515
0.3350347,73.1375
0.2591939,68.26757
0.23335196,65.1005
0.15176962,66.910805
0.1766859,71.22768
0.18996356,67.00432
0.15342857,63.94084
0.11331938,66.50513
0.03205258,66.70668
0.033461258,65.660866
0.029521378,71.50191
-0.052993525,71.251656
0.012345865,74.015656
0.05598253,65.89751
0.042629823,75.73323
0.16337909,77.49448
0.16468434,77.46968
0.22907098,83.40034
0.3835542,82.93737
0.5489181,84.381714
0.5699677,92.845955
0.7021827,93.92353
0.7595619,93.6516
0.83126515,103.98341
0.99054265,103.95807
1.0875394,105.07313
1.1388799,106.19126
1.2535405,110.34874
1.2590201,111.90831
1.3001211,122.30782
1.4286121,125.40839
1.4631674,125.834435
1.4156691,121.12343
1.5383238,127.98729
1.4644924,133.64896
1.488935,127.59938
1.4845811,130.2252
1.5092971,135.31377
1.4916803,132.3979
1.4798523,133.33192
1.4083017,130.13614
1.3590069,128.04135
1.4585707,132.05342
1.3573849,129.07675
1.3488585,127.81201
1.3332602,126.42654
1.3573571,128.9918
1.2608591,126.85049
1.2056319,128.74484
1.1715318,125.45415
1.1675388,121.52023
1.1079909,119.7461
1.1314006,120.26465
1.1139792,116.42039
1.1771041,117.21335
1.0930414,112.98683
1.0048003,112.3645
1.197225,112.553345
1.1119573,103.6872
1.1475357,108.83845
0.98812157,107.25656
1.0059038,101.5796
1.01652,100.6697
0.97668123,97.967064
0.9282097,95.66707
0.7767658,98.20147
0.75399446,90.258835
0.85066354,92.13343
0.81554365,87.054344
0.6972311,87.09183
0.72779125,83.95092
0.59355605,85.00922
0.5813807,84.27383
0.55255806,84.042175
0.55451524,79.545425
0.61940485,82.44342
0.55015856,75.225075
0.68746656,76.46451
0.61139035,76.383804
0.63801277,70.97828
0.6072216,71.83912
0.6283302,63.52642
0.5202041,70.97373
0.59710366,65.602554
0.509294,70.49189
0.51972365,66.36711
0.36421606,68.50414
0.39392424,64.9087
0.35296488,73.9424
0.2848486,67.56464
0.2985832,73.390305
0.33577555,69.016815
0.23483552,69.569374
0.3188454,73.52254
0.25526083,76.63025
0.44063318,78.01464
0.4426746,79.48584
0.5582307,80.806404
0.599343,85.38357
0.6842338,87.20323
0.8061563,88.88307
0.8739962,91.92174
0.9187029,98.78626
1.1163417,95.559006
1.1667408,103.84332
1.2479,106.7519
1.4118133,113.24788
1.4505469,103.67314
1.5764865,110.35698
1.5561403,114.60761
1.6194568,117.75416
1.7307173,123.78938
1.7249792,120.642
1.6731368,124.96813
1.7671837,125.69936
1.8329339,128.03008
1.7542272,133.09126
1.8030225,132.0539
1.7367153,129.91078
1.7599826,128.47745
1.8010447,133.03867
1.7460153,130.13457
1.7714722,130.66318
1.708624,130.13664
1.7585704,132.51245
1.5625155,128.16907
1.5890478,126.91194
1.5184399,124.49277
1.4894035,123.47746
1.4595731,125.89336
1.4833792,122.22236
1.4618592,120.126854
1.4503713,115.827774
1.3662126,114.78881
1.3880988,116.69905
1.3498592,113.19848
1.4241956,111.43843
1.3370324,111.01442
1.356346,109.930756
1.3783149,108.29876
1.3113937,104.29338
1.3482795,102.94413
1.3620378,102.71996
1.2694874,94.58147
1.2642788,98.44022
1.0937257,97.992195
1.1218029,93.00472
1.1033701,89.919876
1.0043378,94.463646
1.0165037,87.5619
1.0146383,87.54691
0.85241914,86.60869
0.8549585,82.01499
0.8940743,78.71811
0.8918741,81.29515
0.8957297,75.69916
0.8648164,78.82737
0.8796805,75.293724
0.89963955,79.078636
0.84175086,72.955826
0.8299051,69.601616
0.84094256,71.85622
0.8426786,71.42157
0.7839779,64.86215
0.76730895,68.23306
0.76734453,67.471115
0.71742994,68.57417
0.6601527,63.829136
0.54964113,68.01275
0.58559877,67.676315
0.50921637,66.79544
0.56909144,74.46871
0.49876592,66.66877
0.46858332,70.29496
0.52460504,70.46506
0.6142039,75.26335
0.6339326,80.60695
0.67912686,82.35206
0.6886759,75.496704
0.9061926,88.02045
0.9060764,86.08763
1.0778891,88.64054
1.1297193,93.71693
1.2871882,95.868835
1.4114323,98.936516
1.4810426,101.19506
1.5768045,106.78699
1.6218289,111.93915
1.6799184,112.414795
1.7677127,114.679504
1.799791,119.022835
1.9659319,123.02174
1.8496842,122.65997
1.9636675,124.05351
1.9622498,127.71881
1.9630644,126.22448
2.0252256,124.36316
1.9758708,131.60155
1.9323207,129.99213
1.9651351,130.25725
1.9320003,127.33122
1.9449439,130.02994
1.9369757,130.72565
1.8382971,134.44882
1.8986672,134.52531
1.8029764,129.19034
1.7989604,129.87296
1.7708695,124.7691
1.7242669,126.42725
1.6688404,123.771614
1.619771,119.552155
1.5998445,124.26404
1.6539987,120.45252
1.5257304,119.91019
1.5137386,115.66898
1.4966342,109.464745
1.5230454,109.76448
1.4388807,113.441475
1.4345354,108.99382
1.4688358,109.228264
1.4076188,105.08224
1.3906558,104.55065
1.3618902,102.60792
1.3498251,98.741234
1.3822751,99.7713
1.3506851,101.033104
1.3474004,94.583374
1.297871,90.140884
1.2011673,93.93988
1.163771,87.34086
1.0793897,86.48948
1.055471,86.38465
1.0823781,86.72843
0.9849167,84.63236
0.99702823,81.01442
0.89028686,76.969475
0.891997,84.56578
0.92890877,77.10531
0.91841424,76.98697
0.8817384,74.68328
1.0091374,75.622086
0.9030373,68.34062
0.86230415,70.4625
0.86789423,67.82773
0.834998,65.17697
0.80787444,70.0338
0.68996775,64.3307
0.77161574,67.379906
0.72773546,70.14486
0.687405,70.31055
0.5955161,64.77089
0.5751737,69.91019
0.4831327,70.01587
0.5444108,67.16478
0.5205209,67.11647
0.50666606,73.21748
0.5981043,78.02869
0.64943075,84.224106
0.6772649,78.51021
0.7716185,82.982
0.7961099,82.94918
0.99215436,91.99376
1.0002671,92.10505
1.1121936,95.50899
1.2480462,97.963715
1.3924747,98.91057
1.4848163,106.1378
1.5204536,109.52919
1.6298268,113.15308
1.5879581,115.55904
1.6860119,113.66524
1.732897,118.037415
1.8549227,121.916565
1.8572025,121.66087
1.8574154,122.44511
1.875546,126.182724
1.9394718,128.67102
1.8656998,137.30104
1.8126967,133.49968
1.9095603,129.51631
1.8572311,129.91306
1.8734481,129.30113
1.8077896,133.46811
1.7467052,130.52673
1.7705088,130.58171
1.7194971,129.06268
1.6905493,134.60146
1.7146922,131.2291
1.557006,124.676025
1.5787402,122.99607
1.4932455,127.00808
1.3811121,120.45112
1.4605755,124.11192
1.4362742,121.08553
1.4382112,115.55348
1.381147,117.479065
1.308251,115.15831
1.3219733,108.781044
1.4007611,110.70878
1.2914358,108.1154
1.3797586,108.04742
1.3357373,105.06739
1.2508056,104.59369
1.2024435,100.55978
1.2441503,99.99985
1.1466794,95.489685
1.0438998,95.90377
1.0866675,94.13585
1.0290645,90.04614
1.0090103,91.79252
0.92466366,93.66939
0.83882916,86.50461
0.87653697,89.104004
0.84508526,85.29939
0.76654226,78.32741
0.73671335,86.8747
0.66025877,77.30154
0.68065333,77.79352
0.73316807,76.99633
0.6700987,74.45321
0.6249478,74.94035
0.8329261,74.49427
0.6037556,68.26992
0.7478155,68.70921
0.6107192,66.67665
0.5883278,65.851074
0.5239941,67.07069
0.5435138,68.71512
0.39895043,62.46296
0.33291492,65.923706
0.4368635,64.614815
0.28959054,68.60613
0.3233725,69.214035
0.22026883,71.34056
0.28868127,67.50264
0.33635125,72.83212
0.26099464,73.70922
0.2371302,72.130035
0.44867423,74.78668
0.48322785,79.77145
0.50242484,83.5405
0.6038258,89.2065
0.6620668,88.676605
0.8736921,93.311226
0.8902134,95.81325
0.95139384,96.63825
1.1177976,100.86948
1.1592762,105.194405
1.2318919,105.34925
1.3287861,112.564835
1.4122027,117.46129
1.3991265,120.547874
1.5614251,120.97696
1.563119,122.508224
1.5420854,119.53444
1.5357783,123.386925
1.5819747,124.19173
1.6299026,127.67122
1.6225034,131.68477
1.6305262,131.37692
1.5528008,132.22862
1.4308122,132.79663
1.5931803,130.05093
1.5070761,131.10881
1.5149525,131.74686
1.5264585,133.24855
1.5244082,129.56978
1.3518978,128.3668
1.3469113,124.573235
1.3612375,124.63596
1.2259964,125.67555
1.2006603,123.27152
1.1664393,118.69395
1.1604313,117.020325
1.1254493,116.30529
1.0863924,116.42532
1.0508724,117.60425
1.1119237,114.192444
1.1199291,109.59908
1.1116087,108.42162
1.0100983,109.44362
1.050124,107.36157
1.0011421,103.24122
0.9391544,97.750946
0.9640803,102.09571
0.86760145,98.87209
0.83554643,101.97186
0.74508536,95.432434
0.7352249,94.44542
0.71553165,92.27747
0.7223547,92.048676
0.59007055,90.20579
0.5158026,84.93321
0.5875291,82.68156
0.46746543,86.577034
0.3873179,81.17472
0.45033297,81.801056
0.41716233,78.02378
0.5233414,72.81503
0.4382129,78.78252
0.4066741,75.827255
0.36724365,73.79795
0.41349813,68.96716
0.4493166,71.603264
0.37979585,69.49533
0.3027867,66.273964
0.33005387,66.55975
0.2649718,66.4752
0.24253394,64.94543
0.16066869,66.940994
0.11284027,68.35955
0.06724349,65.68037
0.08878171,67.157585
0.0027332134,68.06835
-0.018343616,71.44182
-0.042527787,71.38625
0.030840848,75.05597
0.05335535,73.08633
0.06518184,76.76496
0.11430805,80.523155
0.30160642,83.40819
0.22360787,83.6592
0.42225483,87.36238
0.55803955,88.55628
0.45748505,89.08624
0.743567,96.01133
0.7997515,99.20917
0.9156082,102.129326
0.97802967,103.731285
1.1181129,110.61409
1.1564778,113.86613
1.2059872,114.93849
1.2108626,115.865974
1.3729153,118.887955
1.323163,122.435165
1.4469379,126.52673
1.4483447,123.275085
1.2974768,126.62304
1.3518375,129.55191
1.3352398,131.99522
1.3735727,127.939545
1.3742515,129.79764
1.3618728,126.358315
1.3790826,134.80098
1.375136,128.95082
1.324982,132.21948
1.227502,133.72368
1.184238,132.81378
1.1828959,124.33751
1.1647894,129.71242
1.1017171,127.942505
1.0157441,126.86324
1.0713443,117.993225
0.99461037,120.152214
0.96717125,115.93489
0.9610482,117.0786
0.9345551,118.34174
0.9138815,119.25993
0.8612119,114.94578
0.90063906,112.141075
0.9245042,108.25989
0.89203984,106.412766
0.9056089,106.93333
0.8119964,103.9587
0.7626449,103.82911
0.7769777,100.46365
0.7248101,102.446594
0.6884715,99.65974
0.67534167,93.64338
0.59707874,95.66474
0.5167084,92.75178
0.5002526,88.7331
0.4957916,93.47245
0.47106478,87.614685
0.43721795,85.96761
0.40006006,85.228325
0.35422274,82.96834
0.36579654,82.20021
0.33841467,75.38039
0.34152606,79.83637
0.29425293,75.8952
0.33618557,74.03475
0.34801763,70.30647
0.3398529,68.629814
0.25685292,67.39166
0.2989364,67.3893
0.20639378,67.7838
0.24504247,63.83012
0.16912134,70.60083
0.23248164,67.41547
0.11970823,63.790123
0.10699296,68.73653
0.12572104,65.77255
-0.03350309,65.90768
-9.098523e-05,71.72941
-0.07961271,68.4712
-0.006872557,71.6527
0.076968454,75.43831
0.010655923,78.10156
0.05370259,78.21039
0.1577173,76.06808
0.33350572,80.25703
0.37104917,88.9142
0.39897567,90.50531
0.6079727,93.08205
0.5798088,93.009895
0.85177445,95.52967
0.89833593,97.76244
1.0342441,102.99767
0.97367847,108.21797
1.1323687,113.74079
1.1887463,113.04071
1.2103809,115.99291
1.2479093,120.826996
1.3677396,119.93709
1.4044659,122.9141
1.4603864,125.41206
1.4001617,125.73091
1.4284494,129.53633
1.3812555,129.89812
1.510793,130.99231
1.4435631,128.91501
1.4643745,133.52425
1.4535884,135.69817
1.4673855,133.42262
1.3462644,129.64
1.3880306,127.21484
1.3281236,129.83878
1.3902166,130.58105
1.2292078,126.546585
1.2835683,126.162254
1.2149973,128.16545
1.1816016,120.41568
1.1424363,123.30103
1.1737113,118.48356
1.1050571,121.260155
1.0095031,119.35546
1.1154871,115.75574
1.0966045,114.77834
1.0680811,110.22551
0.98496205,112.53836
0.98285747,109.75428
0.9323677,106.96427
1.0200382,103.52872
0.9221052,103.82915
0.88189816,101.01441
0.9830966,102.00408
0.926205,102.261086
0.8388383,98.26446
0.8049077,94.182106
0.6611708,96.653305
0.7617733,90.60479
0.6486719,90.45854
0.65401477,87.075134
0.4965792,86.335144
0.61970913,80.499084
0.5226376,79.98153
0.480686,80.88661
0.51743066,79.99532
0.50281775,77.31332
0.57591295,78.01768
0.5124039,69.49879
0.5915596,74.05014
0.5452304,74.639435
0.5642364,72.0935
0.51360726,70.69816
0.5510273,70.494415
0.41990292,64.57474
0.44357222,63.958733
0.38439333,65.6554
0.42246574,65.97627
0.38585928,66.71762
0.28135976,63.80951
0.19097862,66.58168
0.24021134,70.26957
0.1340185,68.312325
0.27621552,66.800735
0.19814801,68.47888
0.24722502,76.32897
0.26493546,79.56705
0.31716356,76.66819
0.46499145,82.995964
0.51444393,85.180405
0.621536,83.27106
0.6809411,90.73968
0.8709381,94.27543
0.98474765,95.14326
1.0408764,98.059814
1.2076293,102.71842
1.243094,103.52319
1.3686581,111.142044
1.3413042,111.3824
1.49532,113.27653
1.5258858,116.65925
1.5929021,121.853806
1.630458,121.52614
1.6625468,122.93183
1.7081077,122.171234
1.6741921,127.88552
1.7355038,128.1986
1.7708722,127.190704
1.6568155,131.81757
1.6808045,128.85756
1.674404,130.21729
1.6461043,132.8722
1.6557262,132.69102
1.7000268,131.40459
1.6928078,129.9866
1.6057618,128.70827
1.5561656,126.809204
1.5732363,127.04435
1.4025338,128.90335
1.4281449,122.4831
1.34323,117.56703
1.3713036,120.26845
1.3610753,123.91091
1.439665,117.75561
1.2389362,117.00081
1.3290675,115.40949
1.3646733,111.88595
1.347406,114.85336
1.3853348,109.40761
1.3193252,110.70371
1.316786,106.580894
1.2044307,104.93788
1.2210102,100.59652
1.1603892,103.64516
1.2318406,99.127655
1.1855872,98.15608
1.1433824,100.06308
1.0476325,95.02883
0.99878496,93.073654
1.0060787,93.20021
0.92569196,90.71854
0.8723646,86.34626
0.8621176,84.32185
0.829202,84.9364
0.8007069,80.871605
0.77212447,80.52423
0.838187,75.800354
0.8840441,80.96221
0.8147341,73.97017
0.8273397,75.28293
0.84097934,73.90808
0.83022016,75.142334
0.76887894,70.61229
0.8663356,67.87637
0.73657876,67.7886
0.7694424,65.12872
0.7296258,69.68594
0.58160865,65.56104
0.60957265,70.297646
0.5859166,64.850075
0.55051446,72.76648
0.52526534,65.87295
0.5217339,66.689064
0.4766914,68.11252
0.49488384,69.50995
0.4953382,73.642845
0.48705146,72.83175
0.5832671,74.26898
0.68025184,77.23905
0.77532685,86.65288
0.8411547,82.09386
0.9754225,88.06758
1.0405587,88.53064
1.1676346,94.84505
1.2779843,97.31143
1.3311621,103.99543
1.4708382,102.283966
1.4887496,107.43226
1.6269288,111.92671
1.7090198,111.59252
1.7919463,115.75535
1.8343127,114.4222
1.8880405,121.419304
1.8717037,123.0648
1.8876022,122.90947
1.9102942,123.59574
1.947235,127.365234
1.8642126,126.51902
2.003661,130.52585
1.944724,132.48619
1.9171523,127.45881
1.812542,129.81425
1.9045229,135.4853
1.8761522,132.91907
1.8202273,127.736244
1.8009804,129.21303
1.7972655,125.28743
1.738765,131.11473
1.7544457,127.23821
1.661904,126.26556
1.6677085,127.30737
1.6810879,122.48397
1.5996342,122.062485
1.5920824,122.30375
1.5684625,116.17975
1.5388479,113.455864
1.5215046,118.77424
1.4876219,111.13385
1.5083327,105.60728
1.4781865,107.66135
1.5451144,106.01563
1.4969319,110.536446
1.3777033,105.388794
1.354672,101.89055
1.3790323,99.060265
1.3310995,100.53124
1.2991564,99.669464
1.2905846,96.65954
1.2285517,95.917145
1.1800424,95.644455
1.1829215,90.518616
1.0151186,87.37133
1.0408312,85.79596
0.9772935,87.94588
1.0380876,84.974976
0.8585007,81.880844
0.8463687,78.553474
0.94561416,76.23946
0.97684836,76.47079
0.9589254,72.561165
0.88775826,72.84008
0.98408633,74.72231
0.8561464,70.34116
0.9531047,68.91853
0.8274836,68.780075
0.8325582,69.84102
0.8415217,71.12222
0.70953655,63.787476
0.79367346,69.035416
0.668178,68.10332
0.64519185,63.6223
0.64947546,64.72427
0.53083676,69.9832
0.5886749,70.079124
0.6035273,66.059494
0.5074149,69.71233
0.6158722,74.68854
0.51555413,77.65403
0.66178155,78.695206
0.65825605,75.36531
0.83314234,81.238365
0.9201153,83.46384
1.0714389,90.30309
1.1455104,90.67445
1.1803575,96.135765
1.2429827,98.472664
1.4133791,98.5465
1.4781033,106.477875
1.6325048,110.2428
1.544969,112.72916
1.8001114,113.96873
1.7828457,116.00855
1.7695016,117.39531
1.8733525,124.15074
1.9259024,127.14941
1.8946463,123.80747
1.8262326,124.5116
1.8980484,126.065735
1.9583046,127.43623
1.9314754,131.35808
1.8948956,128.1899
1.9460167,130.34396
1.9036351,130.55246
1.8849099,132.09207
1.8049142,130.88182
1.7703295,131.85298
1.6845152,129.79938
1.7110748,129.60786
1.7252294,132.54306
1.6368457,127.13957
1.6271118,126.0914
1.6196924,129.6338
1.5535398,122.11247
1.527217,124.256836
1.4205472,122.033104
1.4427657,115.28975
1.5127927,116.07976
1.4253144,115.471436
1.4888308,114.41394
1.360214,108.636246
1.3869592,106.87482
1.3427286,109.03487
1.3644376,102.8794
1.3522247,102.74256
1.3087342,98.460556
1.291704,98.12302
1.2041702,97.76751
1.1504631,96.290215
1.0327286,95.22435
1.0863309,92.857185
1.0148932,93.53479
0.95514196,92.57385
0.90405655,86.30622
0.87009335,82.28094
0.82682425,85.3849
0.7862224,85.03204
0.7985956,79.11722
0.79425544,78.49327
0.7294324,79.77965
0.73893833,78.473404
0.7423121,75.4256
0.74562955,72.94106
0.7312952,70.34711
0.7526447,70.729095
0.632668,69.291306
0.61458963,69.66755
0.65463996,68.27647
0.58061093,63.536167
0.60112715,66.03543
0.5659763,69.24784
0.47677988,60.72492
0.37363267,63.512344
0.42563966,64.903145
0.3557328,69.63643
0.26068917,68.062164
0.25658506,70.881256
0.39111924,73.40376
0.4072631,75.282616
0.2780579,74.74101
0.384082,77.89336
0.562845,80.71123
0.59402746,87.74328
0.7168364,86.27872
0.78141576,91.20468
0.9141022,94.52729
0.987567,98.56476
1.067523,101.255295
1.2272176,102.5209
1.2771583,106.68658
1.3756787,114.40825
1.4234761,109.89033
1.4549024,113.290245
1.596077,114.49387
1.5815926,120.12223
1.5820328,120.93296
1.676782,121.64568
1.5794897,125.988365
1.7445742,124.40673
1.643019,131.85994
1.5940452,132.44707
1.7261987,134.95801
1.6114655,137.58716
1.6263258,127.94126
1.6264508,131.40607
1.621782,134.59947
1.5539542,134.13779
1.4796665,132.56793
1.4814835,127.32713
1.4153423,129.42459
1.4049994,130.0934
1.4255337,125.55434
1.3487155,123.18817
1.2880205,122.828026
1.277453,120.579094
1.2503457,120.89155
1.1415433,115.239815
1.1678956,120.67006
1.2588117,113.806015
1.1832739,111.007225
1.0931815,110.66933
1.073803,110.473145
1.0560259,104.477936
1.1026409,105.018166
1.1120915,104.46736
1.0395548,101.31911
0.98787874,98.92806
0.9230814,101.64445
0.9133327,99.877884
0.81552804,98.12136
0.7164435,95.59553
0.82096064,89.78566
0.65474194,90.752785
0.63615304,92.20649
0.6348317,84.48962
0.6301594,83.255806
0.54653233,84.41545
0.45778206,83.80659
0.47797385,81.89085
0.4485577,79.35197
0.4680844,74.61234
0.5178951,76.47407
0.34840056,72.36004
0.43501222,73.14346
0.42227268,70.72786
0.37391707,69.06604
0.43346995,74.1425
0.31830433,65.07269
0.28868446,65.392395
0.34194595,69.06904
0.32514897,70.33219
0.20881191,67.77099
0.11182411,65.86264
0.090346016,64.984436
0.12775682,69.514366
0.06079981,68.446846
0.03533211,68.47154
0.051639073,73.65084
0.050215088,72.55131
0.14961343,71.82821
0.0958922,77.364136
0.15267168,78.70445
0.20540328,79.80535
0.32897902,85.614655
0.40018198,88.8746
0.55822414,85.00615
0.65285367,96.513824
0.7074402,99.48275
0.8795493,100.069305
1.013614,101.67712
1.0490061,107.89913
0.9994581,109.699005
1.2648435,111.39987
1.2683574,114.256065
1.3691499,118.49487
1.3701189,123.62041
1.4091189,119.72404
1.3843085,125.51855
1.3795768,124.51071
1.4168477,128.83333
1.3734945,130.69409
1.4221237,127.48581
1.2822951,132.41519
1.3879625,132.15717
1.429255,134.80176
1.3545789,131.79306
1.4014966,132.14087
1.286148,131.9857
1.3095735,133.59993
1.1927859,125.20718
1.2366142,124.772354
1.167388,126.95501
1.1105314,126.71633
0.97201115,120.59442
1.0399787,122.772064
1.0302978,119.570145
1.0308001,116.661674
1.0403438,117.56559
1.0423522,117.89454
0.9923736,118.792274
0.90010446,117.6501
0.89907074,113.87098
0.93203384,109.974846
0.9080684,107.22255
0.9389778,106.07894
0.95438695,104.343254
0.918324,104.87278
0.8523521,104.2685
0.7726648,96.12817
0.7663428,96.42465
0.7341541,97.617836
0.60716915,93.3713
0.5418685,90.97226
0.4844972,92.88066
0.43575355,87.25549
0.37439695,88.208206
0.41230714,84.18355
0.33104616,88.316666
0.32063887,84.330666
0.3720536,78.932976
0.3413792,78.65433
0.34818846,77.72818
0.38712746,73.80811
0.36339393,72.54164
0.38804835,73.81174
0.31732515,70.55241
0.37080255,66.13592
0.29614905,69.69989
0.26087856,69.78793
0.2837908,66.13828
0.14279757,64.6581
0.2263942,69.31975
0.08143711,66.60826
-0.0023220745,66.328835
0.040954378,66.84485
-0.035005767,71.19964
0.049390066,69.47624
-0.06562937,71.208824
-0.025830602,71.38919
-0.07863382,73.60998
0.05872682,74.900795
0.044895522,79.06028
0.17953162,77.83416
0.21384408,83.63292
0.23685627,85.07336
0.4331839,87.69659
0.53686786,92.99526
0.6785274,95.1006
0.8133383,95.972176
0.9300006,99.41195
0.9789085,105.09669
1.039952,105.91707
1.0428907,106.90133
1.1817268,115.561935
1.2401295,113.52284
1.2703583,118.14799
1.3459953,119.2285
1.3984528,121.332634
1.3374245,126.24555
1.3538203,125.6189
1.3952776,128.05318
1.3801838,125.53125
1.3360033,134.70824
1.3599421,132.1146
1.340732,134.90591
1.4337981,134.757
1.4374005,134.43297
1.2929876,130.7543
1.3386158,130.87703
1.3236028,127.698814
1.188498,129.2809
1.2273664,125.08777
1.2971864,130.0202
1.1830014,127.45944
1.1113526,125.35714
1.0689402,121.05477
0.97985137,123.45329
1.0673265,115.3954
1.114351,117.11289
0.9798424,115.97832
0.91977817,117.65619
0.9660535,109.10324
1.0248592,113.50555
0.9580845,111.29099
0.92912275,109.6695
0.9503791,103.7844
0.93957764,104.43039
0.84368306,103.75892
0.86414814,100.625595
0.8160932,99.05313
0.769614,97.6339
0.70981365,93.30031
0.7503393,91.53382
0.63625765,93.116936
0.5344221,88.16926
0.5939277,88.584915
0.5800703,83.0789
0.48588294,83.80187
0.47521827,86.0459
0.45706904,81.31364
0.4621467,81.865616
0.522437,81.32856
0.4692548,77.89814
0.5123992,75.2553
0.43419677,72.5251
0.45773536,70.89304
0.50954175,69.390015
0.4201051,71.5815
0.48008192,68.576675
0.38209867,69.2872
0.36280507,70.54577
0.41208205,70.84058
0.27938965,67.83723
0.26355258,67.93009
0.24532877,66.20498
0.19500728,69.47098
0.17149809,66.191734
0.1444464,69.536095
0.090223275,68.34686
0.177773,69.37173
0.16227762,75.02835
0.27618015,74.15265
0.36589253,77.53941
0.30496272,82.35748
0.5336599,86.30278
0.55495566,91.54678
0.6728278,85.58242
0.7476262,91.068825
0.9048363,91.85299
1.0060325,96.46574
1.1515496,103.81313
1.1664535,105.67257
1.3570995,105.09566
1.3898708,112.56482
1.4312133,118.235565
1.4759264,114.889145
1.5176071,120.82404
1.5588772,125.86377
1.6072254,122.18544
1.6140422,125.88897
1.6120834,124.26271
1.6587688,132.16121
1.6204038,131.06097
1.6717685,129.48671
1.6438878,131.01482
1.6752886,133.9122
1.6746867,128.05997
1.656863,129.67537
1.6056218,131.66768
1.5850655,132.59624
1.5232838,130.7606
1.5360658,125.3433
1.5088862,129.87357
1.3737115,129.01015
1.427484,127.20172
1.4415826,123.41582
1.3401052,120.4687
1.3079722,123.50703
1.2959895,117.37849
1.2336527,117.05852
1.2932265,117.15332
1.2798702,116.1974
1.2793504,109.815834
1.2811056,112.758095
1.2188685,106.72047
1.253619,108.10091
1.2450082,106.03875
1.1833824,102.93624
1.1967013,97.87708
1.1500847,96.99055
1.0822252,99.92226
1.0813254,96.96598
1.0127738,95.46583
1.0113502,91.78783
0.9266643,89.82204
0.83955145,90.03866
0.87051535,86.43264
0.83740747,86.49512
0.7551486,80.948524
0.8168889,82.129814
0.80289817,78.52284
0.72842586,79.029434
0.735988,74.30407
0.75957435,78.25294
0.7342037,69.92549
0.7953532,74.70847
0.77042997,70.2
0.7075149,71.171
0.70430183,69.74435
0.7700514,66.56423
0.7563475,66.10876
0.6779233,68.9981
0.60585237,66.6486
0.5543225,65.586334
0.5564609,65.48416
0.49815196,66.31545
0.39345756,71.41219
0.4872758,72.03087
0.49158037,73.71301
0.46985063,75.10376
0.4105043,71.38648
0.46719834,75.178474
0.4668541,75.84948
0.6857949,81.75055
0.6820648,81.928604
0.8921724,84.10062
0.97660756,87.10511
0.95797473,89.34764
1.0748323,95.82426
1.2335821,98.592964
1.2404697,98.90461
1.3959012,105.82902
1.4817648,107.60666
1.6673375,107.66277
1.6650486,110.39589
1.7071569,113.48072
1.7438419,120.37813
1.8530469,124.12745
1.8263763,116.4915
1.8722138,122.146355
1.8659186,129.6927
1.8407618,127.51746
1.8710902,131.87253
1.8949842,130.5966
1.9027561,131.85097
1.897201,134.12941
1.8907176,131.71509
1.8564832,129.77228
1.915568,132.78622
1.87283,130.01523
1.7967852,135.54364
1.7822341,129.005
1.721424,129.54007
1.5791831,129.25969
1.6701902,128.59288
1.6499491,127.07811
1.5358566,125.54812
1.6009316,120.9947
1.5433942,121.404434
1.5507705,113.48334
1.5090686,117.63786
1.5616409,116.005844
1.5059762,114.58218
1.5298114,112.930984
1.5228173,111.207
1.4140149,106.581085
1.4147975,105.0536
1.4465543,105.51678
1.3854635,98.07163
1.3600903,97.05704
1.3904117,97.366905
1.2796673,96.060555
1.206264,95.979576
1.1653495,98.43346
1.2497954,90.78327
1.1008238,91.16373
1.0062932,84.560974
0.95056474,85.54771
0.968418,86.46126
0.96157086,82.18329
0.99279684,79.9183
0.97604847,74.78598
0.9312959,76.154884
0.9082419,78.90474
0.9412905,73.68743
0.8482919,73.39478
1.0070914,70.050804
0.94089156,69.802315
0.93622947,72.11627
0.83080053,67.30244
0.9060116,65.804924
0.7955418,69.70727
0.73412186,66.36582
0.7303657,65.5307
0.68436396,66.675186
0.5964991,69.010864
0.5655549,67.384315
0.53078365,66.26999
0.51032805,69.229515
0.5275375,66.63618
0.4907241,69.73898
0.5440588,74.47988
0.6590915,75.84767
0.704466,78.99962
0.69232833,81.58198
0.8623263,85.18299
0.82705027,86.36867
1.1186701,91.43791
1.1731794,93.22752
1.19679,96.500694
1.3408772,96.546455
1.361461,100.009094
1.5171093,103.61283
1.5900335,112.35152
1.6358653,114.12388
1.7162621,111.77474
1.7664428,116.52322
1.7866529,117.28118
1.8344618,119.71447
1.836583,125.99954
1.9571575,122.1605
1.8925219,128.33795
1.8873668,128.51033
1.979495,132.12256
1.9557741,131.14076
1.96674,134.79094
1.9588077,131.76634
1.9859257,134.00407
1.8724835,132.16618
1.7893323,131.47173
1.8346189,133.55194
1.7600735,130.14474
1.7114747,129.4124
1.720105,126.2848
1.7155359,126.742355
1.6038713,119.05759
1.66042,122.800385
1.5286276,123.02785
1.5316553,120.29399
1.5334241,118.453636
1.4776785,118.56815
1.3985821,119.15181
1.5008837,112.82933
1.419081,114.01057
1.4651425,110.1978
1.3626882,109.7076
1.352982,111.410736
1.4175236,107.16635
1.3691539,106.1943
1.3042204,100.610916
1.3024614,99.626015
1.2036978,95.6086
1.2041988,94.983116
1.1558812,95.140335
1.0832589,91.32572
1.0126272,91.74242
1.0037276,88.39695
0.9535653,88.04066
0.8961215,87.502174
0.8380347,85.562645
0.85717183,83.40566
0.8165025,83.77713
0.7776637,74.67568
0.8156557,77.243774
0.87804055,77.49918
0.787023,69.37352
0.86276376,76.68441
0.88104403,70.60476
0.7336859,68.487495
0.7562148,70.73967
0.82130337,66.21632
0.6907923,70.3867
0.65800554,66.73266
0.53883857,69.62824
0.54099786,69.072624
0.5405732,66.6136
0.577066,65.120155
0.42275542,71.37014
0.3277305,64.70411
0.319428,68.598366
0.37340033,72.8235
0.43588609,69.08018
0.43805128,71.57411
0.47234264,76.14613
0.5669652,79.588455
0.54990697,77.1317
0.6655925,86.891495
0.73460126,86.800476
0.844213,91.809784
0.91392034,91.53427
1.0446342,95.54008
1.1574119,100.320404
1.2360984,103.16397
1.3317518,107.50652
1.434279,110.692566
1.5389531,109.29057
1.6004869,115.26229
1.6250324,117.116
1.5759251,120.91936
1.6456538,121.54995
1.6719319,124.484276
1.67061,130.718
1.723275,125.030525
1.6419551,128.0496
1.7834781,124.720024
1.7546587,129.69334
1.7114704,128.9026
1.6712915,136.26947
1.706482,131.01071
1.6573147,130.61703
1.6457936,132.62524
1.5614877,127.98681
1.6058048,131.42737
1.5400826,130.34186
1.471702,131.11801
1.4645959,127.452774
1.3528376,120.4991
1.2836888,125.91508
1.3152497,129.06895
1.2688608,119.977295
1.2367462,118.35717
1.2762951,115.49797
1.2115598,111.09167
1.1992801,113.98745
1.1582791,110.10093
1.1957628,110.39438
1.1711655,108.71424
1.159028,110.53672
1.0754656,103.456116
1.125497,99.77632
1.1148092,101.60069
1.0318435,98.99396
0.9153858,101.850746
0.86740875,97.71622
0.8351897,93.74917
0.775168,94.69583
0.745844,93.1729
0.728411,86.64638
0.6696441,88.12409
0.6276594,90.47468
0.57664543,80.10971
0.5591254,80.068954
0.5788464,79.615776
0.4435913,79.58723
0.5226452,77.48952
0.52993035,75.61606
0.5462715,73.14465
0.46103168,72.899536
0.44822094,74.13533
0.5043916,73.62286
0.3735707,71.12106
0.48580375,70.54214
0.4016347,67.22951
0.41804537,72.614685
0.2564919,62.916428
0.23687762,66.81644
0.10345475,68.19091
0.13023561,67.067726
0.120132685,70.20728
0.015383142,68.2439
0.069144495,72.8591
-0.0007040904,71.668205
0.09033501,72.25766
0.18355477,73.976616
0.17997237,78.061714
0.31706676,78.462944
0.35549855,75.836
0.46752566,80.91074
0.4709186,87.06986
0.5706482,90.46302
0.7229856,97.30174
0.7407866,98.38175
0.9283498,101.06559
0.98574317,102.212364
1.1423234,113.681595
1.1892859,110.12018
1.2731954,115.197495
1.248187,115.85235
1.3730595,119.77767
1.4274106,117.53543
1.3912647,123.964745
1.3817074,125.27372
1.3967109,127.05344
1.4904717,130.81711
1.5561813,125.81727
1.3935462,129.37138
1.3827602,126.35922
1.45706,130.98843
1.3671098,134.3332
1.4232047,134.02017
1.3734604,130.91711
1.3225541,131.3986
1.3099264,129.35277
1.2716415,129.40753
1.2098185,130.82251
1.1028793,131.01242
1.1497087,127.36374
1.1744496,124.09461
1.0018624,126.787994
0.9995937,122.473274
1.0338466,118.82937
0.99425817,117.43333
0.99157494,115.02814
0.9271823,115.990685
0.994674,113.24452
0.93300724,111.25458
0.94791067,107.65258
0.91601723,111.84637
0.8909695,105.189804
0.88758004,106.45711
0.8401349,99.7247
0.7463758,101.57907
0.8069446,97.1622
0.75171846,98.16051
0.5770582,93.30544
0.5915884,90.70704
0.6165272,89.48265
0.4436681,86.30514
0.52044165,86.53514
0.4337463,88.3293
0.46516502,82.935074
0.38002652,81.44377
0.32880372,81.96412
0.36037707,75.04863
0.33745944,79.372665
0.29897904,75.998146
0.42870957,75.57832
0.2866491,72.85107
0.22601679,71.04614
0.3837494,72.52655
0.27421656,69.197174
0.26510984,69.691696
0.23386092,69.78056
0.18951729,64.05719
0.14048757,64.79516
0.08647103,64.29427
0.08781079,65.4649
0.024179764,66.951645
0.035210483,65.054344
-0.006124622,66.06241
-0.0874773,68.202156
-0.04882674,72.4717
-0.06339093,70.76625
-0.06390887,74.04718
0.050461717,75.22622
0.07191219,77.975685
0.13085665,79.20466
0.1953282,77.77993
0.28188503,84.80688
0.51483315,89.80354
0.54781425,92.51209
0.59174263,97.1237
0.756151,95.26604
0.8896023,102.74183
0.9435297,103.75445
1.0809633,106.34585
1.0290579,112.34544
1.0751555,115.85147
1.2293491,119.40589
1.276421,120.58041
1.1560148,121.407265
1.3040066,120.370316
1.3092852,128.57143
1.3081133,127.8692
1.3344375,126.59168
1.4089246,130.36865
1.3377728,127.3401
1.3337523,134.48671
1.2957891,130.76973
1.4071034,129.22598
1.3514439,134.63823
1.2002137,128.20164
1.2389766,130.62212
1.2746037,130.21228
1.2747715,125.90801
1.2214285,126.889435
1.1347636,122.17812
1.0323561,124.18909
1.1229911,119.37492
1.0431331,124.22345
1.0337217,119.06674
1.001462,116.04272
0.93239367,117.61477
0.99337274,111.317665
0.97598064,111.92634
0.9377983,113.572426
0.9676387,106.86729
0.8766944,107.722115
0.91212684,104.687004
0.90848655,100.04691
0.8103679,100.45672
0.8571357,99.80217
0.8597402,100.27047
0.7774621,101.19494
0.7479764,96.228615
0.7298074,94.80489
0.6427106,94.5769
0.60143036,92.07025
0.52005833,87.78132
0.5317194,86.240395
0.4840148,87.14386
0.49303207,85.217316
0.4752518,82.7935
0.47130623,79.13125
0.40667257,82.648636
0.33069754,75.34218
0.45809713,75.33594
0.44560966,77.30845
0.39911908,72.86012
0.4481467,71.07661
0.3529124,70.66264
0.44729736,67.39659
0.36702198,67.74227
0.31777683,68.92373
0.29300565,68.83424
0.27143973,70.02551
0.2397022,64.491615
0.20089123,69.40757
0.14139956,68.13408
0.13619058,69.8944
0.10401809,65.196785
0.06323538,67.72296
0.058399063,71.44457
0.13703339,74.24291
0.16687182,73.54643
0.19628158,75.8523
0.29944944,76.63751
0.2526745,80.52402
0.40462726,83.55438
0.47874883,86.46997
0.7337541,88.272644
0.7752419,97.93476
0.8493556,99.006325
0.9928372,101.36891
1.1076748,105.66575
1.200271,107.48583
1.2765986,114.399445
1.2996976,110.299286
1.3542029,109.69518
1.3892412,115.61185
1.4990379,115.80176
1.5073481,119.57264
1.525354,123.07029
1.5453676,125.971176
1.6452274,130.34831
1.633769,133.05066
1.6771005,130.89665
1.6203042,128.15263
1.5949287,130.3201
1.5818857,131.07248
1.5244164,130.77039
1.4954641,128.40878
1.550187,134.06793
1.4610862,126.84397
1.4820688,128.34825
1.4904042,128.8795
1.3804353,127.794266
1.4651434,125.14969
1.3031093,125.39049
1.360839,120.69709
1.3104297,121.349724
1.3219477,116.9202
1.2028673,116.2008
1.3379141,118.78734
1.2181557,114.24041
1.246663,112.58743
1.2725399,110.120636
1.1752392,107.94209
1.2282923,107.80688
1.1461737,111.21286
1.2243613,100.992874
1.1086671,100.27465
1.1166185,98.636215
1.0959796,93.9406
1.0796633,97.11041
1.0902988,95.16191
0.94103676,92.4745
0.96612227,93.72133
0.9590582,89.41036
0.83968323,88.321396
0.7722679,87.340256
0.6902906,84.362366
0.8241495,87.394516
0.7140992,80.77667
0.6703852,81.48706
0.64971393,78.107735
0.6643081,76.56392
0.74973154,77.05425
0.7575385,72.788124
0.7398152,71.95806
0.7133732,71.34285
0.6440912,68.2064
0.65099365,69.68702
0.6119338,71.17551
0.6558791,65.00314
0.5492105,65.02121
0.5250673,63.83241
0.50696576,70.43119
0.40162763,67.85657
0.44002095,63.94275
0.40368518,64.200066
0.44035155,70.14445
0.3455704,75.368095
0.33185485,71.33853
0.39527982,69.82599
0.4030355,71.47806
0.5081319,76.70845
0.4956089,76.746216
0.6339671,82.05742
0.71419483,86.65545
0.8817945,89.02006
0.9287317,92.48223
0.9971852,95.17342
1.1718194,99.45556
1.2983205,100.36644
1.3700581,104.357254
1.4448429,110.2633
1.5227413,112.11391
1.6277636,110.260544
1.6448218,114.095665
1.7204577,115.61015
1.8095635,120.51857
1.7535387,115.54619
1.8344243,126.53105
1.7773539,124.68775
1.8784477,124.2107
1.8331895,134.56589
1.9227076,128.84111
1.810997,127.18477
1.8873129,130.2792
1.9091532,135.44005
1.7940704,123.933754
1.7803409,133.71
1.7516575,126.75928
1.7431439,131.23676
1.7557329,126.63677
1.6753619,128.2348
1.6174867,125.77596
1.5449845,126.33005
1.6713084,125.48273
1.6454406,123.778305
1.5704784,119.304115
1.48831,119.96567
1.5378755,119.78798
1.5317498,115.34991
1.4672357,114.54271
1.4700965,109.76434
1.51272,111.300446
1.3772247,107.39281
1.4802605,106.65088
1.407514,105.36188
1.3522648,104.121826
1.3304564,100.974304
1.3067714,104.06655
1.2554684,96.254364
1.3448348,93.076775
1.244638,92.1084
1.2234225,90.9535
1.1550317,91.601456
1.088299,94.027374
1.0474101,88.97736
0.9901917,85.718925
0.963182,82.94185
0.89155346,85.5201
0.9830716,78.51926
0.84562075,75.66538
0.87264466,75.60999
1.0043403,74.78198
0.92165416,75.81585
0.9222386,74.83935
0.9385483,72.79883
0.8352943,65.12185
0.82766974,69.18745
0.8482979,68.295876
0.8004314,68.320076
0.802203,63.24117
0.78693175,65.38481
0.783192,65.145065
0.713755,68.33408
0.592592,66.63175
0.58224857,65.53452
0.5409796,63.71707
0.5062732,65.90972
0.49099043,71.75746
0.62766993,66.88887
0.5811944,69.36279
0.61299163,77.80435
0.7017238,79.84177
0.7760627,77.71859
0.88613874,82.94024
0.89910716,89.81776
1.0503064,89.534515
1.0977969,93.347565
1.2347896,99.13319
1.3488292,103.09182
1.4515656,102.08763
1.5412365,108.522514
1.6546141,110.3373
1.6672896,110.17233
1.7651579,115.03853
1.7780428,112.69936
1.983142,120.75237
1.8512249,120.5083
1.8878345,121.994125
1.9769809,128.134
1.9331131,125.00648
1.9979296,129.62752
1.968115,132.04526
1.9407917,129.66895
1.9175998,131.73036
1.903327,129.8811
1.9032774,129.57712
1.8909123,131.04224
1.8360664,138.53928
1.8376634,134.77763
1.7614882,128.57019
1.8067149,128.52632
1.778099,126.74998
1.6686699,123.41048
1.6297294,123.32763
1.6360621,122.45302
1.6517019,116.26113
1.6329731,119.68283
1.4822093,120.37439
1.5666077,121.485825
1.5025526,116.48794
1.4885778,111.413956
1.4991543,109.444046
1.4430075,109.80724
1.4975785,108.34037
1.4949279,106.22412
1.4757556,107.46903
1.3058014,104.04695
1.3452855,102.43379
1.234301,100.37781
1.2437755,96.28944
1.1266366,92.341354
1.202172,94.138306
1.141909,91.19053
1.0637013,92.459206
1.0005643,87.86744
1.0052941,90.16819
0.90922403,87.210396
0.8743734,87.82718
0.8438728,85.8619
0.8689501,82.18271
0.8397632,76.10593
0.84035355,76.07253
0.8747582,73.85397
0.88978267,74.20039
0.9056067,73.535324
0.8362253,70.4047
0.83515114,71.2952
0.8083423,67.29546
0.70016694,62.567654
0.7233746,67.67495
0.6836222,65.98124
0.6325748,66.59584
0.6057877,68.02576
0.5506859,65.82651
0.47285414,63.933308
0.47103798,66.05842
0.42048883,71.65079
0.31653228,70.5738
0.36637217,73.71513
0.44322768,71.60012
0.5152611,76.38325
0.406046,79.11039
0.5338535,75.696686
0.6642812,82.54568
0.7688774,85.083824
0.8060556,84.81061
0.8942251,87.856415
1.079588,98.41575
1.16298,97.23752
1.264428,102.96493
1.299651,104.92316
1.4544252,106.46284
1.3977424,107.047806
1.5993494,113.86604
1.6043922,115.19754
1.6604868,118.21533
1.6518166,120.94328
1.6434857,123.39706
1.7491803,125.8774
1.7833025,124.305016
1.7983553,129.59195
1.796382,130.9516
1.7839557,130.74915
1.7200257,132.42986
1.7815567,134.87476
1.6857898,133.73132
1.7577386,129.08995
1.6797009,130.26166
1.6510383,130.60846
1.6573553,129.00871
1.6266567,126.29687
1.577929,130.67961
1.4687963,125.47792
1.4983871,128.85283
1.3911852,120.82744
1.4251083,124.87742
1.2954929,123.46587
1.3243186,120.366135
1.2671227,117.53969
1.3192414,116.381935
1.3114132,114.70637
1.2551538,113.98082
1.238573,110.73184
1.2466666,109.31805
1.2477838,108.42506
1.1803201,105.959724
1.1325357,102.10371
1.153256,100.613655
1.0090153,100.54195
1.0897233,94.98469
0.97398657,96.9469
0.945715,95.95835
0.9450338,93.6211
0.83502066,93.16106
0.830702,90.82725
0.8043545,90.58942
0.7161396,87.21912
0.687433,89.58579
0.6376867,83.40744
0.62382716,83.36122
0.5523546,79.4356
0.5761259,78.25552
0.5246278,74.323296
0.5358221,74.69609
0.4819988,71.48908
0.57349646,74.661896
0.6245148,71.107635
0.51396704,70.83128
0.55274445,64.42396
0.52948976,63.84728
0.39098597,66.21518
0.35769713,63.188217
0.39722657,59.685516
0.30153218,68.09774
0.20186998,67.23069
0.18719749,65.12439
0.19728985,68.01797
0.11835255,73.02184
0.018567016,67.88434
0.12699829,73.71025
0.14777687,72.32994
0.19233866,73.993645
0.29660058,74.779816
0.30857483,80.49603
0.3945261,84.6964
0.518326,86.36498
0.568783,88.09423
0.7624354,90.15365
0.7163499,98.81283
0.8317688,96.67345
0.9963749,99.84432
1.1150938,100.69526
1.134352,111.5072
1.1726748,106.52767
1.357658,115.581665
1.3002335,117.53147
1.394109,117.61807
1.4721085,121.66464
1.4225466,124.405106
1.4342761,130.54651
1.4501653,131.07838
1.5205866,130.16014
1.5288975,130.22665
1.4803543,132.11627
1.552527,131.77847
1.4583805,132.46332
1.4954853,130.277
1.3977596,131.5379
1.4918431,133.18318
1.427912,130.96152
1.3198442,131.23433
1.3515924,127.97728
1.3112637,127.982635
1.2799548,123.99309
1.0656126,127.35179
1.1689223,119.97803
1.1273216,123.62815
1.0937119,117.721085
1.055996,117.028404
1.0345136,115.24213
1.0605719,117.7879
1.011887,111.22824
0.9835287,111.85336
1.0102196,109.55565
0.96440375,108.17741
0.9521184,108.76163
0.9913216,104.98778
0.8664205,103.220375
0.7896206,99.70952
0.8239512,97.89563
0.78994805,95.1337
0.7674116,95.84582
0.692622,98.39804
0.6711769,93.6367
0.69782877,91.61506
0.57552797,86.121086
0.53883773,90.573654
0.4511924,89.94729
0.36320573,82.52456
0.29695123,80.44737
0.3550511,84.317825
0.25163457,80.16009
0.37845555,81.57338
0.33453447,78.68738
0.29070398,69.91766
0.350072,76.59583
0.30583048,71.819305
0.3470848,70.304375
0.3417626,69.19995
0.25694335,67.97276
0.24702291,63.8297
0.23015225,69.980225
0.117558114,65.08911
0.14339954,65.4907
0.025818927,67.635704
0.06945911,70.688545
-0.012572642,67.01801
-0.08634504,68.52842
-0.06789407,72.436554
-0.071549654,71.87656
0.008285978,73.28838
-0.0049085845,67.36114
-0.01194038,75.514595
0.15989622,78.9389
0.18767288,81.45615
0.23035058,85.93538
0.27159432,83.836296
0.42205203,87.296326
0.53573036,95.02207
0.6667821,98.44831
0.78016174,96.70053
0.8869988,102.91264
0.8726479,104.87134
1.03496,107.0265
1.0923495,108.72465
1.279914,112.28974
1.2196472,115.17238
1.2340658,123.21471
1.3017294,123.088165
1.3241863,124.70447
1.2581611,123.31277
1.3768736,130.61327
1.3537061,132.25102
1.3690102,130.56847
1.3299477,131.14195
1.3134552,131.71973
1.3880635,133.43869
1.3819802,128.38808
1.3313133,129.13307
1.209322,129.34648
1.2811339,129.50177
1.1501868,130.49753
1.1660695,131.17209
1.1978122,129.83315
1.1536411,122.74697
1.1107523,129.40034
1.1160265,128.65321
1.0539713,125.76249
0.91574794,118.71055
0.96608317,117.485725
0.96256673,113.25299
0.9430424,115.83719
0.9112444,114.0506
0.8829501,110.81439
1.0227138,107.780426
0.8896155,108.66702
0.99537873,106.01269
0.82509774,105.574
0.8810952,106.56844
0.8345708,102.77248
0.75102,100.06218
0.73261386,98.24063
0.7100288,93.64916
0.6287024,94.21507
0.60809106,93.32674
0.47035334,93.00638
0.56150025,90.67339
0.5449484,86.76027
0.47763067,88.79479
0.5295282,79.31702
0.4401328,83.41696
0.44659606,78.14518
0.44299194,82.21811
0.2655819,79.29702
0.4038678,71.969604
0.325473,71.51447
0.3335348,68.37169
0.33710253,72.81385
0.35840508,70.88541
0.38520744,70.86947
0.3536021,61.659218
0.3051045,65.2202
0.3021619,68.30664
0.26522052,69.256035
0.20833914,65.40568
0.07195628,67.04962
0.07645341,68.620705
0.07767932,71.0749
0.08565247,64.816666
-0.015325259,69.147575
0.045400456,67.57672
-0.003639377,73.9082
0.14471504,71.44839
0.16193417,77.01177
0.15934345,79.69817
0.23951557,80.15331
0.40736827,87.13688
0.5510003,88.27308
0.5492039,90.86948
0.74007934,92.267296
0.790151,96.58749
0.9545884,98.12423
1.047637,102.68301
1.1162351,106.56942
1.1121659,115.61982
1.2952281,112.36519
1.3507347,113.70207
1.400343,115.012
1.4353343,121.9452
1.4242445,120.281715
1.5380038,125.61987
1.5510873,129.73204
1.4798396,129.81267
1.593495,127.145294
1.5459415,130.87761
1.5449889,134.06657
1.5260375,132.33011
1.5200582,131.29291
1.5685049,133.82408
1.5345685,132.66023
1.5104247,131.3252
1.4475538,131.90631
1.4487512,130.13432
1.341976,127.35235
1.3714668,127.69015
1.3070718,125.31597
1.1929309,127.16539
1.1850574,122.33653
1.1999669,120.74892
1.225346,121.62943
1.1605023,117.482056
1.1495152,116.51893
1.1977223,113.75773
1.1314511,110.97805
1.2061356,110.34404
1.1908966,107.854256
1.1312026,113.90696
1.150263,105.14606
1.1271728,102.94875
1.0672874,104.34252
1.0879928,102.49949
1.0614256,96.78334
0.9380187,97.70413
0.9448482,94.83491
0.9006224,94.38429
0.887183,91.37056
0.7876293,85.452126
0.7408732,89.770424
0.7389373,87.7845
0.75357205,82.11247
0.6266345,85.53594
0.6180797,83.79277
0.63032407,82.54454
0.63374853,74.46584
0.57122767,78.3785
0.7154935,72.86757
0.64617884,70.48164
0.6394033,70.71247
0.71829724,70.07435
0.6690509,68.24404
0.59799916,71.173996
0.60524046,65.16612
0.56620973,69.17425
0.59561837,65.46643
0.48550314,66.45592
0.3887323,65.60011
0.32985377,64.624886
0.4406465,65.08423
0.31354284,64.744514
0.35925427,65.57738
0.32789144,69.73197
0.31603727,74.88708
0.34829262,70.91458
0.47055766,75.97513
0.3959259,77.50091
0.5148192,83.33309
0.6567111,84.105865
0.65694237,84.320435
0.87390625,86.02861
0.96321815,87.38082
1.0453523,93.22651
1.1191468,103.198586
1.1828893,100.00015
1.3724023,100.14594
1.5504627,103.80616
1.5164958,114.33451
1.5002711,112.51962
1.6599643,117.248604
1.7278962,119.62028
1.691538,119.82055
1.7364136,122.35847
1.7574527,123.21638
1.7856572,122.84647
1.8140736,130.90976
1.7912158,131.5691
1.7769201,130.57399
1.8356699,131.44258
1.8124721,133.946
1.7891186,126.478905
1.7949812,132.88454
1.7038368,133.73886
1.756666,135.1841
1.6986237,132.19547
1.6962606,132.8155
1.670647,127.50761
1.6694202,126.82038
1.5919112,123.546425
1.6030396,122.545425
1.5140507,124.60449
1.4911275,121.802155
1.4778905,120.34816
1.4982615,113.84786
1.4781185,116.83943
1.4453897,117.11171
1.3765956,113.212875
1.4482188,108.187454
1.3741807,108.57662
1.3598459,110.217186
1.334576,105.90134
1.3604829,106.39465
1.3915588,106.178795
1.2655073,99.57634
1.3447455,95.81866
1.2704766,95.41569
1.1228098,99.33267
1.1243346,95.06619
1.0499314,91.95401
1.0805577,92.14545
0.968116,86.84394
0.9052826,85.37851
0.9327902,82.736855
0.97571564,87.67154
0.90056175,81.31881
0.9167673,78.92684
0.91378456,77.99925
0.8272833,75.650536
0.8540454,72.31166
0.89287114,75.3292
0.86473376,67.533745
0.95537966,70.67626
0.8131692,70.537796
0.8061084,64.565475
0.8304947,68.401665
0.7559411,65.69816
0.6174977,62.557545
0.7855244,66.651
0.61074424,68.46704
0.6410289,73.878624
0.52601844,66.35054
0.51566267,69.28286
0.46624246,71.42851
0.5020032,70.98433
0.5186857,74.01356
0.5696306,73.22338
0.60403776,75.93629
0.6178542,75.78963
0.73258024,80.39058
0.90534645,80.15952
0.99627864,83.2561
1.0607237,91.921394
1.1756616,89.96221
1.3428323,98.29787
1.3813199,98.94068
1.4829552,102.129166
1.477852,103.91843
1.5803603,108.648285
1.7007822,115.28086
1.7302911,112.871735
1.7754345,116.444145
1.8244634,121.59662
1.8359909,119.39356
1.8907096,121.269135
1.9599684,125.91467
2.036981,130.41762
2.0008755,128.77484
1.9960016,129.42155
1.8944066,130.7993
1.9627215,131.224
1.9420372,130.22636
1.9404528,133.93983
1.8903092,132.10886
1.9527348,129.9836
1.8527942,130.69528
1.8242707,128.97353
1.696956,125.43824
1.7416553,132.62927
1.7599784,126.61798
1.6984723,122.59627
1.5464939,120.75579
1.5902878,118.39156
1.6583701,118.49685
1.5527993,115.764915
1.5538462,116.294426
1.5941511,118.87084
1.5028588,111.67452
1.5316653,119.13092
1.5026175,111.31136
1.4980744,113.137985
1.4706635,103.2845
1.4095119,102.93009
1.3882746,101.32509
1.3394812,100.929474
1.2686874,100.9681
1.3531002,94.13105
1.2535485,97.969795
1.2568374,92.59637
1.2234943,96.72753
1.1085858,91.57125
1.0024955,91.91492
1.0090296,86.18814
0.95152116,86.764824
0.8639835,82.6384
0.9049267,83.39902
0.9066299,80.807846
0.87030685,82.11144
0.8577509,79.073395
0.83134633,76.388725
0.89201355,74.1925
0.95993847,72.48507
0.9255312,67.51121
0.8844627,67.13485
0.86525667,66.59801
0.80282426,71.65222
0.69577944,65.848274
0.7183587,65.529915
0.6475762,67.69657
0.6497554,64.08596
0.6503108,69.682205
0.63944215,60.896866
0.51933813,70.40596
0.41638172,72.81238
0.47665164,70.52414
0.47675404,69.601746
0.51702297,75.16632
0.5173928,73.216515
0.56813926,82.0676
0.59982616,80.90801
0.68949,80.07949
0.81237954,86.92018
0.797518,85.52025
0.97198623,89.12284
1.1187328,95.876205
1.2624161,95.62009
1.2719336,100.7277
1.433811,104.95833
1.5408971,105.178246
1.5263613,108.52418
1.5852141,116.71863
1.6581043,117.111885
1.7091883,118.1405
1.7978636,120.41325
1.7453631,120.076935
1.8675027,125.9682
1.7796191,126.88571
1.7673963,130.26915
1.8478599,124.519745
1.8758664,129.91489
1.82211,130.90195
1.8206825,132.35416
1.8696994,132.31543
1.816803,132.95947
1.7375106,131.01053
1.6869968,128.07501
1.719782,126.88839
1.6715013,129.2537
1.6149776,135.31464
1.5429573,128.50705
1.5146863,131.72774
1.4737213,126.00755
1.4311144,120.420296
1.3860923,120.970795
1.3952956,125.49984
1.3307332,119.713646
1.3456092,117.915985
1.2281451,112.829155
1.2777673,112.69442
1.3369739,108.43664
1.2342877,108.156204
1.2821832,107.78728
1.2001379,104.24462
1.2448689,106.16633
1.1680628,100.87484
1.1309115,101.24278
1.1072198,101.0733
1.0006951,101.885254
1.0526847,96.1877
1.0158432,91.22546
0.8914212,91.83933
0.8796116,94.68521
0.8434468,90.58757
0.7628606,87.07133
0.68176675,86.19886
0.7697159,83.75993
0.6596902,78.4031
0.63330984,80.12233
0.7199033,76.338974
0.66726565,75.04504
0.64614636,74.072334
0.5867177,68.396675
0.65620995,71.429504
0.7356111,66.623726
0.6299297,71.31028
0.58886564,63.592228
0.56741774,63.493748
0.48368993,62.50843
0.43982485,67.168365
0.39206892,66.21637
0.3336965,70.219215
0.29628307,67.530876
0.2534387,62.96708
0.22327285,65.893745
0.19742267,69.3539
0.2082417,70.996864
0.20419587,67.64892
0.22719619,75.73296
0.32188502,73.69484
0.31022358,76.034996
0.46959347,82.992134
0.46739766,83.20385
0.52169204,86.807205
0.6967719,90.21535
0.7352717,88.441246
0.7363123,95.78117
0.941021,102.854126
1.026322,101.08447
1.1968602,105.60331
1.1688662,113.73763
1.2656602,114.43382
1.3978796,112.71958
1.412215,117.62488
1.4304127,120.80678
1.4388033,126.44307
1.5129226,121.46812
1.5146064,132.64168
1.494054,127.86396
1.5020648,127.88715
1.498061,131.21758
1.4855115,129.825
1.5600195,130.52104
1.5397979,130.3482
1.5267899,130.522
1.4626894,127.74686
1.4242245,127.522224
1.3935109,128.88312
1.4131396,130.60977
1.2518386,127.36068
1.2701157,132.85645
1.2146595,128.17897
1.2743106,123.77248
1.15737,128.05765
1.0727956,121.80629
1.1234499,120.16636
1.0708326,120.50547
1.0398641,117.13094
1.0160939,115.79407
0.99792725,115.376656
1.044752,109.40624
1.0094178,110.05084
0.9759211,106.36392
0.919202,107.610565
0.93877786,101.78258
0.9319134,106.9886
0.9027014,100.23146
0.8603753,99.11182
0.7716192,97.90195
0.6611801,94.20531
0.79580855,95.26533
0.60957396,95.57258
0.53071666,90.490715
0.57402873,88.52517
0.44929206,89.25316
0.4495463,87.35328
0.47571084,84.53059
0.5029976,85.317726
0.42309308,81.713005
0.37367848,83.1625
0.3822083,76.66334
0.30034393,73.0892
0.35582253,77.41922
0.35126606,68.61834
0.37017474,69.38422
0.43623313,67.810814
0.2487794,69.13155
0.29068893,67.862404
0.1966451,70.09032
0.21665977,66.85477
0.1578743,65.00793
0.08443659,65.55831
0.14325209,64.14192
0.07077016,68.21973
0.05621475,70.76352
-0.031242885,68.6788
-0.029181303,69.303154
0.039187543,71.84024
-0.01955367,71.37156
0.043133005,74.01762
0.024532001,76.111496
0.14203554,80.501015
0.16020155,80.532585
0.18674143,79.25059
0.36392912,84.42453
0.44476286,95.4275
0.4986045,92.78776
0.68232834,97.490585
0.7366774,99.32216
1.0073411,102.52333
0.89781404,103.24521
0.98971,112.87267
1.1521033,110.151436
1.1699393,112.939705
1.2646801,118.306755
1.2867081,122.62867
1.2784822,121.58597
1.2696031,119.9479
1.3954251,121.86032
1.3048674,131.31712
1.3922908,129.22574
1.4095019,133.20808
1.360358,131.46841
1.3443775,129.4805
1.3018025,132.64644
1.3475178,132.39516
1.1724656,132.72736
1.3108077,131.32971
1.2552174,129.38614
1.2077456,132.33342
1.193408,128.52223
1.0870779,128.06207
1.0059038,123.94986
1.0970613,122.308624
1.1015673,121.445915
0.9386215,119.2198
0.9427629,115.084114
0.99964297,116.95555
0.9643562,120.22783
1.0633188,113.9668
0.96864015,110.261475
0.9472573,113.0814
0.86655,109.40245
0.9105422,107.054184
0.9378613,103.390305
0.8463301,104.46243
0.8244663,102.79798
0.8064743,101.70625
0.73662674,99.448784
0.7378388,97.228386
0.6932543,95.84222
0.7011503,93.85675
0.5812387,88.95221
0.5728391,95.188805
0.4929578,90.28635
0.4887427,87.469475
0.41641462,84.83869
0.4254266,83.22558
0.41208202,82.54835
0.32018477,83.40169
0.40713033,76.84395
0.34832856,77.41542
0.33429918,71.42389
0.3236065,75.54274
0.36590877,73.0131
0.34745604,70.64912
0.35344803,64.66211
0.33753455,67.303024
0.3233859,65.56541
0.38758373,64.9224
0.23172425,62.234966
0.15726022,65.41849
0.058405433,70.453316
0.052304763,68.069016
0.119969346,66.99893
0.06569871,68.86928
-0.046777908,73.66434
0.109988876,67.49133
0.021229625,69.50823
0.047416285,71.949394
0.16206358,71.79377
0.19295245,78.05974
0.21920784,79.04014
0.3028394,83.833244
0.39953446,87.11255
0.44960412,91.17898
0.57876426,92.83831
0.6995369,93.40855
0.77624047,96.27249
0.8433263,98.34675
0.9716605,103.9263
1.0302316,107.77302
1.1573205,106.52024
1.1482328,115.60194
1.3024756,115.76519
1.2682784,117.45026
1.364676,118.404076
1.4386586,126.25017
1.4779184,126.161285
1.4926248,128.73457
1.4909923,127.97607
1.4363555,133.21988
1.5310997,132.34888
1.4385468,134.2159
1.5276264,134.29219
1.4959985,130.33276
1.5121661,132.20525
1.4338303,134.53905
1.3729397,132.07018
1.3247554,127.93187
1.2994016,129.54112
1.2475135,130.17311
1.3273565,123.683014
1.3004255,123.4869
1.2470515,120.995995
1.1929514,123.870094
1.2591695,124.78582
1.1434156,114.79038
1.1397867,118.28604
1.1141613,114.59423
1.0906473,118.29307
1.124246,113.07381
1.0611762,112.79575
1.049883,112.288864
1.0999326,107.714005
1.0348723,101.37753
1.0444891,103.55564
1.0006853,102.595024
0.9865654,97.65877
0.9238561,94.28149
0.8868325,93.73718
0.8370233,98.318436
0.8656016,90.78519
0.7919014,98.28266
0.7816227,93.344795
0.7466657,90.39487
0.6469892,82.918175
0.6767367,88.01871
0.6154556,81.82777
0.5937641,77.00041
0.6463194,80.13182
0.612028,78.900734
0.57242644,74.35438
0.6110049,73.235085
0.53602767,72.71895
0.6014527,71.25681
0.52034134,72.18524
0.53231716,68.6571
0.58363897,72.12182
0.41731176,68.210014
0.58185273,62.989033
0.5033578,69.104706
0.3467936,64.271
0.49077773,68.91637
0.46339712,67.34693
0.304008,65.20115
0.24445115,66.93832
0.3421816,70.043205
0.2502227,70.951805
0.28387487,74.13472
0.35765138,74.76944
0.34181285,75.84841
0.39788562,78.39589
0.42733327,80.227905
0.54246,84.58302
0.6557888,87.18039
0.71744347,89.7793
0.8298258,97.60826
0.9908189,96.28853
1.0160302,101.446915
1.1613407,100.26314
1.380926,104.95785
1.368941,103.05863
1.4421793,111.24454
1.5163263,112.497604
1.5760003,115.01359
1.665121,119.713936
1.7025322,120.64105
1.6956949,120.134476
1.7283118,125.15554
1.8132546,135.53076
1.7022971,129.67664
1.7726115,130.48721
1.7828122,128.08907
1.7398902,128.44583
1.7609278,129.51117
1.7136413,132.4396
1.764266,128.81422
1.6567338,134.60484
1.7364423,128.00656
1.6584798,131.80638
1.6112882,129.59859
1.5546585,131.35876
1.6108075,124.0694
1.5053158,132.3654
1.4525833,124.20481
1.5219709,124.98659
1.412487,121.49172
1.4275789,116.43685
1.4510113,115.4058
1.4091551,115.51196
1.4675527,111.907585
1.3468657,112.28949
1.3658432,112.23554
1.3598629,111.40997
1.3809755,110.56587
1.39455,104.84357
1.3211935,102.235275
1.2863275,97.470055
1.1964426,94.29742
1.229814,97.83203
1.1558715,99.24767
1.1675453,94.895035
1.0774053,93.85328
1.0398111,88.77211
0.9436679,88.35978
0.8892484,90.36114
1.015764,86.91428
0.9125469,83.04866
0.9036606,83.932396
0.83192945,80.925064
0.90173167,81.452576
0.8903299,78.391396
0.8244859,74.8798
0.81391853,73.57264
0.8278612,69.43793
0.8552462,67.50076
0.85559833,68.992165
0.8356438,72.067474
0.86943775,68.98033
0.75328255,66.55191
0.7025243,68.20454
0.7105455,68.91778
0.5943113,64.79486
0.6560533,64.93298
0.59002984,74.131744
0.5368135,65.28373
0.50897557,66.97678
0.5519857,68.59699
0.55043507,68.53819
0.5165338,68.069374
0.58455586,74.68809
0.6440879,75.18354
0.6841754,80.05529
0.7376123,79.66084
0.85202456,87.27484
0.8878464,87.12615
1.040217,88.312096
1.1337471,91.783295
1.2335904,95.94658
1.2789679,102.901024
1.4078654,101.54621
1.5225788,102.299805
1.6652129,113.15473
1.7113507,107.88435
1.8027077,120.3748
1.868911,113.30754
1.8725728,119.16426
1.8991457,121.34664
1.8774184,126.46203
2.0264199,127.87155
1.8911108,132.3452
1.965786,125.60314
1.9992083,126.17094
1.9970223,133.40347
1.9019543,136.76628
1.9216628,134.58603
1.8880769,133.47794
1.814987,134.30447
1.8815036,127.97181
1.8151311,129.91124
1.8798499,129.68832
1.8064523,128.35934
1.7457325,128.66536
1.6875813,126.07832
1.678632,123.69243
1.6299337,120.545105
1.6146277,121.299995
1.6686918,116.97933
1.5170451,118.08101
1.5377827,117.331985
1.560807,113.29848
1.4996436,114.81333
1.5744828,113.71128
1.523271,108.397705
1.4488384,106.925255
1.4727657,107.77345
1.4125627,101.98985
1.3830088,100.03317
1.3806733,100.066216
1.4055294,99.12473
1.3415033,96.17194
1.2626143,97.0562
1.2497841,90.8387
1.1785603,93.31278
1.067806,89.27328
1.0673267,92.46773
1.0295743,89.13972
1.0307655,85.55536
0.94396925,83.410126
0.90681297,80.56248
0.9290998,73.83687
0.8929059,78.591
0.90115386,79.31859
0.90833503,72.889885
0.8920831,71.645935
0.94607127,72.36899
0.9572608,67.86553
0.91931957,67.91672
0.7839274,67.54656
0.8058535,67.98466
0.79187185,71.797104
0.678939,66.41167
0.6769491,67.14508
0.6604743,66.05241
0.6035919,67.139275
0.5816827,67.26515
0.48594502,69.89313
0.5008598,72.56183
0.5146729,69.55919
0.5099712,70.58086
0.5462867,78.713776
0.57731056,79.17709
0.59220046,78.28051
0.67986363,82.84353
0.7175402,86.347374
0.8293631,84.86074
0.8917687,90.581474
1.0860429,91.77826
1.1310555,94.9752
1.2917858,99.558044
1.3574078,104.95867
1.3974959,105.334274
1.5316298,109.34216
1.6314297,112.361755
1.6583292,116.22218
1.7206564,117.313644
1.7393379,119.12745
1.8012927,120.208565
1.8390033,124.74369
1.8240758,124.302734
1.8161116,127.155334
1.9272285,126.021545
1.8995125,134.55635
1.8461647,128.04666
1.8716761,132.58778
1.7847229,129.90323
1.7454665,128.69548
1.857087,132.93834
1.7933539,135.02042
1.750835,129.22392
1.7292125,131.66415
1.823354,133.58081
1.682051,133.6554
1.5593319,126.4734
1.4928747,125.68486
1.5750602,124.62329
1.5316225,124.50465
1.4878259,120.80657
1.399422,121.06664
1.4268471,117.71575
1.3590592,114.36827
1.4022166,115.4114
1.4007992,111.28049
1.3195186,108.5515
1.3773949,109.11149
1.3156366,105.45884
1.3113654,104.780106
1.2074927,106.1394
1.244422,100.77061
1.1688874,97.632515
1.1779263,100.07245
1.1754653,99.54252
1.0747548,94.25209
0.97150403,96.666534
0.98668516,93.13086
0.9269429,93.40979
0.95270616,86.09084
0.8321822,82.35547
0.7598236,86.0038
0.79001135,83.00827
0.72850364,81.825165
0.72154874,80.549225
0.6666379,81.473564
0.6945997,74.71671
0.6957796,78.5904
0.68296117,71.98117
0.6544624,72.89541
0.68024725,71.389015
0.60893923,67.50087
0.5735322,69.39816
0.6230051,65.214264
0.5803279,62.36034
0.45222694,68.741936
0.3819292,68.68875
0.36922923,63.00329
0.36094677,66.03658
0.37510788,64.62283
0.28412166,69.486305
0.2340723,71.686745
0.264234,68.40744
0.257854,66.98762
0.22370654,75.06668
0.26151383,77.40898
0.3160528,76.31441
0.5510718,79.68579
0.5606593,81.75002
0.5874167,86.43298
0.7589641,91.32248
0.78686506,93.42833
0.96051544,96.89034
1.0168538,95.83218
1.0796968,100.68013
1.2265188,107.88221
1.2828765,105.447136
1.3649598,109.291405
1.4178426,115.577126
1.4683906,112.59795
1.5358967,117.061554
1.64638,123.56023
1.6125734,120.30608
1.5848178,123.97186
1.5723073,128.79707
1.5818596,126.1975
1.5351349,131.89151
1.6133225,131.4053
1.5294579,130.75587
1.5422753,127.28911
1.5679632,131.8405
1.5040138,127.99073
1.4643644,127.25501
1.401273,131.5809
1.4707359,130.51613
1.343889,124.24182
1.315477,127.14612
1.223307,127.623474
1.2619977,125.76124
1.2115259,124.12763
1.2000597,121.500824
1.1103634,122.96948
1.1671226,119.18268
1.0320067,119.70851
1.0890206,115.4432
1.0815105,110.9481
1.0640306,112.23526
1.0537494,106.949745
1.0655465,109.31229
1.0706909,110.99001
0.98402697,104.98233
0.9218104,102.88053
0.95650375,103.48196
0.8822901,100.26256
0.90719783,103.4796
0.77891827,96.131516
0.7180286,95.24294
0.7107252,95.17684
0.5778396,87.63747
0.5850953,90.94497
0.5467344,86.51287
0.53176874,85.06838
0.44599268,85.79818
0.42526078,80.65139
0.49504185,79.977806
0.43075693,78.473625
0.46064374,76.95683
0.39379516,73.929344
0.41068685,75.28747
0.4169837,69.7722
0.47539362,66.80869
0.37620085,69.259415
0.35891858,70.10002
0.38774776,69.23938
0.28993902,67.90806
0.2795238,65.85548
0.26709086,67.2429
0.1510164,65.89022
0.14422747,66.195816
0.1617133,60.87625
0.087868154,66.37059
0.031255785,63.753723
-0.008063593,74.431145
-0.027778791,72.959755
-0.03213813,75.43932
0.10566705,73.42237
0.14222386,76.606606
0.11659036,76.168205
0.23442273,79.0941
0.31058586,83.91991
0.45244053,86.15098
0.51836205,91.50962
0.6043863,94.49225
0.68523324,95.815544
0.82425505,101.85375
0.88922197,100.42146
1.0017821,103.32551
1.0678344,110.480644
1.1243546,113.52292
1.1577568,117.05591
1.272569,114.40588
1.292577,118.29828
1.4007837,123.20235
1.3018639,125.305016
1.3914762,130.75737
1.3715259,125.536964
1.4721318,134.17189
1.404495,131.44157
1.3898565,133.71307
1.3625803,132.92313
1.3211278,130.04214
1.3466483,130.46614
1.2495497,131.53117
1.2243794,127.526634
1.2962091,126.61529
1.1414382,128.11555
1.16882,130.1554
1.1003673,125.82573
1.0921415,125.88653
1.0825585,124.286125
1.0845538,125.4626
1.0649147,122.517296
0.9454923,121.86751
0.9430851,120.89965
1.1220008,114.16951
0.9189683,109.877235
0.8785883,112.01459
0.87428266,113.83814
0.88314587,111.06091
0.86333287,106.82173
0.85397106,110.413765
0.84287536,106.026184
0.8172155,101.09665
0.7459888,103.48096
0.76776123,95.380226
0.7160431,98.10581
0.6877799,94.38509
0.5441796,93.73186
0.57814646,93.561066
0.43795475,92.56271
0.4732747,88.923515
0.4704733,86.39486
0.4540023,81.15387
0.3961293,79.7665
0.3910566,75.6671
0.33505732,80.30733
0.31802872,80.37042
0.45417655,71.03029
0.3713931,77.427315
0.28304696,76.693344
0.25573125,72.46104
0.30464733,74.30416
0.36512455,69.441986
0.2968612,65.59086
0.1723265,66.8787
0.22971608,70.697876
0.19964294,65.07455
0.052509397,67.223755
0.11555634,67.49638
0.027754713,69.19668
-0.04661394,62.621902
0.07225854,70.920685
-0.06530045,66.521805
-0.05696498,73.51746
-0.051653925,70.689766
-4.000368e-05,72.49087
0.11520725,77.1476
0.04015514,80.645096
0.14830105,78.986145
0.24944542,82.08
0.2994399,84.13817
0.42439207,87.164734
0.57039315,92.71157
0.61908257,94.47964
0.7436856,100.79099
0.8420992,99.445694
0.9526987,105.974014
1.0562538,108.99178
1.1505837,109.71419
1.2792035,112.69
1.1382622,117.185
1.2971952,117.04564
1.2860129,120.21676
1.3615352,120.2248
1.4420846,123.107635
1.4744514,124.5349
1.4889883,126.22459
1.4955693,125.52329
1.4359133,126.70545
1.501598,133.2328
1.5025524,131.29906
1.4265529,134.68074
1.4550766,134.13336
1.3843712,130.31168
1.419151,128.70216
1.3221561,130.4743
1.2716475,128.17549
1.2167348,129.60689
1.2248315,122.286385
1.2033834,126.34052
1.1272905,127.79814
1.1291554,121.639946
1.0919105,122.3772
1.0465049,116.43475
1.1213081,116.185295
1.1151552,113.80816
1.0963962,117.65904
1.0387667,116.89836
1.0332636,109.44153
0.97892475,111.851006
1.0324596,108.43618
1.0073439,104.44772
1.1052297,107.30425
1.0044261,100.5369
0.94118583,98.66415
0.89084256,96.064964
0.8971132,98.7887
0.7707722,92.792755
0.81606287,92.93912
0.6742661,90.73245
0.65440154,88.57602
0.5593205,87.512695
0.6320674,85.310814
0.5879341,88.2074
0.5309941,83.797745
0.5002017,81.239334
0.5924676,78.3519
0.52302724,74.71927
0.4954943,74.542625
0.6146903,74.37978
0.50336283,72.80267
0.5805354,71.91124
0.47491828,73.687454
0.49820182,68.11643
0.51741254,71.45877
0.4677545,66.911896
0.4492552,67.241714
0.37817496,66.15281
0.29170313,69.30119
0.38439822,64.33529
0.26047522,68.45937
0.25999802,71.23981
0.25221413,67.79182
0.2201929,62.416874
0.17426072,67.90546
0.26945615,71.13953
0.27099168,74.942245
0.3033519,79.19278
0.36421075,78.23238
0.5062571,79.98014
0.48948964,85.264
0.6378146,86.202126
0.70169514,89.63576
0.7489992,91.53857
0.8572122,99.61704
1.0056921,99.439476
1.1235074,104.92225
1.3425308,106.20582
1.3651048,111.02766
1.4466013,113.39347
1.4520657,116.24299
1.5404191,118.076584
1.6868173,115.988785
1.5725926,118.24792
1.676981,121.59798
1.751584,128.5914
1.7410539,128.99855
1.7893237,128.09059
1.7263451,133.356
1.7447466,133.15439
1.7196833,132.61723
1.7299454,133.37987
1.6538267,133.16641
1.7110564,128.76044
1.6677612,131.33733
1.6323298,131.88342
1.677388,129.74455
1.5587355,127.186264
1.5909178,123.720085
1.5628523,124.55219
1.5115837,127.203674
1.4024678,124.87018
1.4335217,118.319176
1.480094,122.120316
1.2957226,115.64377
1.3513134,116.52688
1.3980209,117.11976
1.3325818,112.721375
1.3648367,108.48574
1.3830402,103.88672
1.3224237,106.009735
1.3226688,105.45483
1.2887278,105.64887
1.2771714,101.60151
1.3300555,100.07621
1.204043,98.35313
1.1549386,96.18299
1.1751827,100.417786
1.0493141,94.977974
1.0144284,90.4574
0.97036684,86.01795
0.9437495,89.463554
0.9076578,90.79643
0.9148471,86.84757
0.84310526,89.837814
0.870847,80.81219
0.8633898,81.646324
0.7900553,75.228134
0.85289335,72.9535
0.8571985,75.014565
0.7407285,76.60182
0.8303724,76.35146
0.7920985,71.223946
0.86276567,67.77029
0.7686726,63.67458
0.7111561,66.47751
0.73983914,67.01841
0.66730344,65.24921
0.7042315,62.102142
0.5899319,66.18795
0.5826792,65.533485
0.6122034,67.81692
0.56007403,65.52623
0.50951433,67.48407
0.47144842,69.58442
0.49611872,71.86469
0.52738833,71.608
0.48839346,72.8972
0.6190289,74.312294
0.5994305,79.460526
0.75190574,80.98028
0.76935434,88.58302
1.0028659,87.11197
1.0556016,90.9052
1.0619605,95.850136
1.2370092,99.30526
1.3181456,99.01929
1.4111985,107.59933
1.5362501,111.31171
1.5711286,108.636894
1.717074,112.37869
1.7768177,115.91728
1.8138174,116.04215
1.8407203,120.16515
1.9048569,120.25613
1.9372438,124.43575
1.9421643,126.013535
1.8783189,128.78738
1.9087706,130.4201
1.9337989,130.09787
1.8783623,133.96545
1.9450568,129.261
1.9846282,130.79129
1.9607902,130.04556
1.9171178,134.94554
1.8911783,130.52496
1.9271107,129.87683
1.8352791,132.46674
1.8048738,124.860916
1.666637,124.84408
1.7528049,125.61788
1.6783588,123.184265
1.6260728,125.02611
1.5869248,118.0873
1.5525808,121.122406
1.6105646,115.74773
1.5372603,116.95076
1.5020864,116.65135
1.4788806,117.196
1.509188,107.60178
1.4748527,109.57473
1.4519321,109.79791
1.4011533,106.00697
1.4830389,104.99542
1.4096566,100.75692
1.3373383,99.907265
1.3365175,97.14088
1.3311362,98.6358
1.2634087,99.8072
1.2231045,94.14283
1.1685541,92.183754
1.0640095,85.33064
1.1171898,88.38855
0.9616955,88.11232
1.0227346,81.19579
1.0022852,83.656334
0.9453799,81.49979
0.95636594,75.14569
0.920209,79.08795
0.94362515,75.48403
0.9685181,75.17449
0.8881449,74.10928
0.94773406,70.189476
0.9838278,71.44498
0.9075618,68.29159
0.85351557,68.77129
0.94675434,66.091705
0.8174793,69.44195
0.78367454,68.07747
0.74054396,65.44474
0.7033666,67.87659
0.62439895,65.52116
0.6070203,67.50012
0.60705215,65.790886
0.5260446,71.03176
0.51354676,69.806854
0.52328825,70.07586
0.50813454,73.9821
0.5626176,71.45296
0.61317044,75.4233
0.71188456,79.56421
0.82849497,83.205505
0.9460221,86.00764
0.98321974,87.437775
1.1033783,93.1176
1.1982253,92.035095
1.1988034,97.45139
1.3385494,103.73284
1.5139987,105.76574
1.6022568,110.496994
1.6760619,115.79376
1.696797,112.042595
1.6725026,117.01748
1.7600905,116.93068
1.8030679,118.657684
1.8967031,124.392746
1.8740469,125.40646
1.977122,126.11177
1.9749702,129.8207
1.9860038,128.83026
1.8697637,127.097046
1.9231665,132.82349
1.8680314,130.05318
1.8856684,133.53233
1.8140813,132.52654
1.8763908,125.25422
1.7581221,130.12952
1.6737169,127.875465
1.8112147,131.29712
1.7037052,126.73354
1.5990708,128.79677
1.6005696,125.61821
1.5459772,122.66874
1.5375093,123.6257
1.5417266,122.8998
1.5080419,116.431625
1.4679316,113.914856
1.4376225,115.55344
1.4678859,113.04683
1.3219204,113.34519
1.3590866,112.30744
1.3340061,104.85301
1.4033816,106.09636
1.3063111,101.60674
1.256985,100.343414
1.3064138,97.86944
1.2065239,99.16834
1.1894296,94.660095
1.2627647,95.06748
1.1438798,92.877884
1.0492347,92.36663
1.0020846,91.42278
0.9977365,89.49717
0.941336,85.07891
0.8750052,86.079666
0.8416627,83.42508
0.7446579,83.724
0.7143325,79.37037
0.76539123,80.55766
0.7354274,75.25735
0.78203124,73.74075
0.7598582,74.08006
0.71167326,68.84761
0.74401957,69.42707
0.70557183,72.87327
0.7950705,70.63777
0.6958693,67.230286
0.5780373,72.79975
0.68642896,66.35818
0.53486466,66.719666
0.47232717,69.577934
0.5601844,67.05512
0.43554667,65.90715
0.41018847,68.85106
0.37905875,69.51351
0.31662643,67.52935
0.29266042,70.109276
0.3070044,72.57768
0.41851786,74.48749
0.3968774,74.272736
0.5007082,79.31786
0.50968707,80.331245
0.5618484,84.9984
0.6232078,88.83285
0.81241864,87.87546
0.95950043,92.01291
0.948623,96.45191
1.1090511,100.90609
1.1209122,101.06222
1.2440683,105.619934
1.3588902,112.369705
1.3411282,113.51625
1.475354,113.88745
1.4893031,121.50568
1.5925006,120.779274
1.5903144,126.05804
1.661983,126.71547
1.6249586,132.60904
1.5874252,131.01431
1.5859087,127.88786
1.5660537,131.90457
1.6706092,128.76695
1.7433841,133.55304
1.63471,135.68063
1.6681263,129.85081
1.6195724,133.31549
1.5182284,132.68073
1.5631887,132.13263
1.4510217,127.012695
1.4136221,127.677216
1.3850163,128.3826
1.3473952,125.50645
1.3445864,122.72462
1.2496997,125.70796
1.28403,120.40041
1.2531695,120.18518
1.2035894,123.77686
1.2507739,119.24995
1.2031282,115.22175
1.1770253,114.293015
1.1180546,112.274635
1.1155055,106.466034
1.1066961,108.88427
1.065388,109.007645
1.0254873,104.42991
0.909078,104.62346
1.0123596,102.38177
0.9879557,100.96133
0.84824485,95.27749
0.8777686,96.94941
0.77514464,98.27737
0.73347676,92.492
0.75590366,90.20254
0.6070784,90.978226
0.5628436,89.46348
0.64633286,88.37827
0.5289475,83.522545
0.5643449,83.28516
0.42132,84.81555
0.41187087,76.726875
0.42988592,73.72682
0.4430712,77.16599
0.39792532,74.79702
0.46910378,71.394745
0.46238866,69.51281
0.38957748,69.61928
0.3721552,71.08267
0.35010362,70.02861
0.2945801,67.62755
0.17833564,65.48119
0.25590736,60.452293
0.1933383,67.26318
0.1506565,67.94809
0.07697251,66.48761
0.11913206,72.929756
0.1616288,66.7465
0.003320943,73.1204
0.09909151,72.936455
0.067870766,72.47494
0.08366093,71.16034
0.11357892,80.32041
0.18676567,79.63842
0.31601802,86.31247
0.30286106,85.05964
0.43585795,91.19764
0.6032433,87.543884
0.69489646,90.854744
0.7055402,96.21323
0.8458488,95.30274
0.97916794,104.24548
1.0623507,104.87544
1.1531122,111.43784
1.1948493,108.13837
1.2598432,118.1179
1.2986851,118.28126
1.3914733,122.64767
1.3343438,122.380356
1.3774492,120.92526
1.3467085,129.64134
1.3476108,129.83435
1.4186367,131.58582
1.3715525,130.64478
1.3944844,135.35529
1.4567327,137.41241
1.4386551,134.96971
1.4475816,128.45572
1.397574,132.06602
1.4026021,129.4395
1.2848518,127.16991
1.191705,129.14528
1.150921,131.06203
1.2182068,126.18801
1.122382,124.5315
1.0899172,123.733864
1.0271099,127.767746
1.002235,122.544556
1.0113697,118.02251
0.9260989,122.03213
0.96471393,116.54809
1.0039376,112.54652
0.8314771,111.60357
0.84507406,109.08102
0.9292694,108.92168
0.94494027,107.32837
0.84647703,106.19623
0.7588547,102.76099
0.8818494,103.707924
0.7516956,104.279526
0.73383677,97.47234
0.7213518,100.12679
0.63249886,95.86741
0.5753421,93.31461
0.5276701,93.65435
0.5991428,91.3521
0.524663,89.93994
0.4598353,85.08029
0.30591556,82.601585
0.39995298,78.26953
0.3777454,82.37827
0.28561625,77.595055
0.34474608,76.68097
0.3753446,76.13812
0.35237667,71.92507
0.2959389,76.64096
0.3222998,71.223946
0.34572643,71.84121
0.30301395,71.46041
0.3352128,64.23209
0.27079028,66.72575
0.25284702,68.86837
0.21675287,64.15383
0.091445565,66.992775
0.095938876,64.20261
0.036357626,67.46408
0.058000192,65.77658
0.0017001561,68.02712
-0.047293283,71.860985
-0.10270193,71.84556
-0.10929708,70.08243
-0.0028277657,74.81987
-0.008091826,76.5701
0.10793201,80.67333
0.077501245,80.64607
0.30211145,83.23619
0.3552333,87.78942
0.4317863,90.79028
0.6065906,99.782814
0.6814683,98.69575
0.724647,98.34037
0.8498758,101.27869
0.85539466,102.91044
1.0742569,104.28062
1.0922966,111.04131
1.086562,108.707565
1.179134,120.997665
1.3170643,117.11252
1.3888271,124.37463
1.3503525,123.263374
1.3302783,126.80744
1.328197,124.21091
1.4631346,129.9505
1.4266777,130.07565
1.3932579,135.21178
1.3786464,128.35379
1.4238838,128.62398
1.4091631,129.43239
1.3238875,126.98118
1.2909378,129.3954
1.2670875,128.57782
1.2650107,129.96078
1.2235414,129.19817
1.2909967,124.540886
1.1645515,129.55927
1.09886,126.751236
1.069946,126.09161
1.085369,125.16134
0.98859984,118.5175
1.0441562,117.75681
0.9709419,118.28884
1.0659639,118.65702
1.0093927,114.642136
1.0876817,112.14031
0.97639567,108.843414
0.84003735,105.58738
1.0286065,109.5859
0.9714609,104.30178
0.9582332,103.56664
0.86053073,105.66342
0.8717655,99.16523
0.8459507,98.45206
0.7872161,95.48058
0.67848897,91.82358
0.830141,93.89304
0.70089674,86.8251
0.63990515,92.99871
0.63976187,83.09948
0.57653284,85.48466
0.49107134,83.144066
0.5542344,85.21271
0.52262753,79.21556
0.44936782,75.47134
0.5086012,74.44245
0.46373022,70.95514
0.48483923,76.349045
0.5026904,77.10874
0.5342511,74.28642
0.4396714,70.3163
0.47122225,69.88711
0.52390736,67.34076
0.40185162,66.08682
0.38543504,67.95124
0.42710704,63.351547
0.3262591,67.55566
0.19283873,66.289
0.18367232,68.28753
0.21522896,68.55153
0.17883232,65.40009
0.15401506,71.14176
0.2414682,74.33758
0.13559881,74.24351
0.191014,72.222885
0.15657693,78.52774
0.35666087,79.89488
0.34892422,77.041176
0.51983124,83.60408
0.61447996,88.92989
0.7811283,89.8497
0.81582195,94.35864
0.8810563,94.93249
1.022924,100.14456
1.0713662,105.52719
1.2127665,106.94397
1.2758013,109.45526
1.357772,112.06226
1.3880103,114.49255
1.4969411,115.66611
1.5669876,119.12018
1.4972715,122.60466
1.5698016,119.65869
1.6305073,129.0703
1.5375503,126.498566
1.7271454,126.27946
1.6258701,134.76027
1.6167219,131.36888
1.6445745,133.9708
1.6508622,130.1904
1.5984609,134.41095
1.656502,133.26576
1.6091852,130.42216
1.5295157,126.57343
1.5145651,132.14621
1.4402388,128.24913
1.4196343,130.29018
1.4590806,125.45537
1.374854,124.69526
1.4606289,124.20664
1.3587611,126.3869
1.2739859,118.28108
1.264396,117.48909
1.3453505,115.47598
1.2843838,113.538124
1.3218808,113.110725
1.2547425,114.08449
1.2384758,108.86782
1.3026006,112.35261
1.2041957,109.29601
1.2470106,104.25216
1.1954615,101.0724
1.2167281,102.773315
1.2259712,102.78781
1.0926626,100.02511
1.0450835,94.30115
1.0545436,93.81696
0.93366057,89.06364
1.0076973,87.634636
0.9590197,91.179756
0.81522614,88.566505
0.75825673,89.26526
0.75167954,80.94032
0.7340972,85.07923
0.8074196,83.236015
0.834067,83.326836
0.7992968,78.86704
0.75546145,69.27246
0.7822982,74.99592
0.7294058,67.94921
0.8118382,65.85419
0.77413523,70.36574
0.77398264,70.52222
0.6864148,63.799953
0.68192905,61.99905
0.6860607,65.5615
0.67811483,67.48989
0.54698014,66.1845
0.56653756,65.621956
0.46374136,64.05443
0.5562224,66.77407
0.42410064,70.858635
0.46091193,70.2011
0.44488773,72.03312
0.5719437,77.148865
0.50504726,79.6264
0.52548647,81.62819
0.64402395,85.875
0.72459716,80.303154
0.7834042,82.314316
0.84341824,89.284004
0.97436917,90.448425
1.1442554,94.26719
1.1369154,92.58495
1.3062564,101.305565
1.4584838,102.76025
1.5011827,105.94971
1.6814226,109.549866
1.5818305,109.11383
1.6776106,114.18426
1.670341,121.682335
1.9010668,121.459404
1.8068007,126.27695
1.7876434,122.1668
1.8671066,127.26506
1.8462085,125.69066
1.8881756,134.363
1.9187052,127.81123
1.9494019,133.49112
1.8991554,130.63707
1.8957051,134.50201
1.8524262,128.62508
1.7906395,130.26534
1.7507968,132.44481
1.7867687,130.06473
1.7748271,129.77153
1.7185189,127.35122
1.6243435,126.65853
1.6780902,125.20975
1.707753,122.60146
1.601273,127.53065
1.5538156,125.03123
1.5530049,122.90848
1.4877867,119.5324
1.4689589,118.49336
1.526726,112.81081
1.5393431,110.13719
1.4796135,113.86872
1.389257,110.26426
1.4783348,110.39387
1.5373493,106.691826
1.4161824,102.24556
1.3936598,99.523254
1.3324031,101.85554
1.3552493,100.74819
1.2639196,98.43144
1.2931836,93.08981
1.1730448,94.208084
1.1694204,92.58236
1.1065826,88.63569
1.1337777,91.57277
1.0457162,86.3549
1.0562638,88.47786
0.9748962,84.09548
0.94389164,81.0973
0.9371599,80.023094
0.8978866,73.208534
0.95129216,76.38394
0.8963135,69.39754
0.92956847,72.10811
0.95792574,72.85216
0.9814791,69.70633
0.90548104,73.00055
0.9153152,68.51123
0.8823973,69.18827
0.79893225,66.74427
0.8677639,67.46185
0.7069126,65.69207
0.6910693,67.89127
0.7070969,69.43212
0.6670582,67.54888
0.57390875,71.26794
0.5956625,68.492424
0.5347047,73.455505
0.5300393,73.85257
0.5212893,73.34116
0.6450628,77.58841
0.70472413,79.82902
0.7133762,82.81305
0.83219033,78.51963
1.0286874,83.67353
1.0626667,88.54513
1.0770298,92.85692
1.2649696,96.804726
1.2850124,97.58811
1.296207,103.62096
1.5135784,99.94032
1.6663169,104.778984
1.7333431,109.791595
1.7531967,118.70923
1.7675457,118.72333
1.857317,118.2545
1.860182,125.43434
1.8771158,121.4088
1.9660952,123.89255
1.9102547,127.89821
1.9899558,128.93852
1.9168876,130.77663
2.0295248,129.8882
1.8599641,132.93126
1.8770226,131.98924
1.8945348,134.64386
1.792657,133.55705
1.7407124,129.77696
1.7365196,127.99876
1.776533,132.4595
1.7416408,126.463455
1.7302831,130.36919
1.6691269,126.045456
1.6534576,126.74709
1.5851086,122.390656
1.6030579,123.353836
1.568259,123.321465
1.5022883,117.94601
1.5178936,115.19152
1.4678127,113.668465
1.3939071,108.30824
1.485805,110.04663
1.3930143,113.10446
1.4569238,104.55185
1.4148809,105.51552
1.3761712,105.34692
1.2723185,103.562874
1.3906115,99.62381
1.2711009,102.887344
1.2730701,99.88372
1.1944069,94.1563
1.1384141,94.33172
1.1080011,91.56614
1.0502634,92.331696
0.98900074,92.89406
0.95355076,88.869156
0.9351127,89.68965
0.90491915,83.94386
0.8585203,78.69374
0.86385065,79.01812
0.8043273,80.68753
0.9109127,77.15343
0.8726817,75.96303
0.8363368,73.11747
0.71257156,71.39376
0.815178,73.98143
0.76061994,74.392456
0.71308213,67.862434
0.7136239,66.552475
0.65818256,69.25617
0.6785294,70.31939
0.6823339,68.91269
0.6002864,70.72987
0.6369472,69.03756
0.4031382,68.6196
0.4092169,70.282845
0.35915455,69.29915
0.4344783,69.714386
0.36533207,72.19177
0.39275494,73.75671
0.4378911,72.911804
0.38871512,77.85156
0.4826631,79.39025
0.62490773,82.72441
0.6408244,84.39561
0.68249315,88.167465
0.8166665,90.95313
0.94536185,90.744095
1.0669373,94.844795
1.15553,96.24471
1.2254981,106.12892
1.3798038,105.933754
1.4109555,109.797806
1.4940051,111.97506
1.5187342,112.49939
1.6576756,117.11389
1.6138449,120.02698
1.6646541,118.21541
1.7291067,125.558914
1.7115359,127.016655
1.7194643,126.97844
1.6253904,132.49818
1.7392448,131.06631
1.7048924,133.04414
1.7142373,132.3889
1.6820043,132.69266
1.6284026,126.74428
1.6662624,130.34315
1.6061201,130.88779
1.5077606,127.92687
1.5848091,129.06842
1.4266589,130.76988
1.4887935,127.5014
1.4746815,123.13043
1.3228313,125.89515
1.3293111,118.793724
1.2917777,123.06262
1.2638878,118.8311
1.3253043,122.76662
1.1753753,113.26373
1.1908736,114.81193
1.2534186,110.55766
1.1584582,110.504585
1.116421,114.65889
1.1520009,106.951935
1.1560577,103.33991
1.0800256,105.8501
1.0927577,101.83254
0.97439754,100.10317
0.9373853,98.42929
0.93150836,96.72135
0.9282052,98.47496
0.88483554,90.42125
0.74819654,92.47552
0.780583,91.197014
0.7080642,89.19384
0.61858857,84.48207
0.5605634,82.93374
0.5972145,82.820915
0.6186637,79.4902
0.5456122,80.81114
0.4906241,81.129166
0.44156846,76.87217
0.5841452,74.407936
0.5575497,68.64366
0.51833034,72.85989
0.5591789,69.00661
0.48866934,68.886284
0.43354595,66.88872
0.45187068,67.22178
0.35550666,67.51395
0.30649942,67.47171
0.33765802,68.70315
0.29330274,65.7465
0.15298073,65.914406
0.110973,69.76474
0.1087263,69.66284
0.070030265,71.603905
0.10718498,72.040726
0.08817874,77.03184
0.1524479,74.87152
0.14731611,72.675415
0.15335205,79.11737
0.16207187,80.697945
0.32899877,81.60983
0.333966,84.17032
0.4756344,87.81005
0.57359207,86.289734
0.68569076,88.46935
0.7522133,97.74597
0.8761037,99.59824
1.0499285,102.639275
1.134164,106.23646
1.2265347,106.50997
1.2257468,114.72613
1.2929659,115.09425
1.377968,118.49868
1.3001001,123.022095
1.428136,122.25383
1.4708655,127.10601
1.3894107,127.626945
1.4967437,130.32347
1.5288172,131.74495
1.4703809,131.65286
1.4549456,130.95435
1.3679239,132.75536
1.446723,129.35304
1.3339483,132.59981
1.3692855,133.27788
1.3441733,128.69368
1.1467135,133.18869
1.2727597,129.16165
1.3321381,129.13039
1.0882287,124.23568
1.1395539,120.53264
1.0207281,127.06901
1.0330691,122.39781
0.9574974,123.405876
1.0221746,119.03319
1.0272286,115.72286
0.9915119,120.03919
0.9171008,114.09705
0.9172995,112.77521
0.942849,110.349014
0.87821937,105.681725
0.8440044,108.50591
0.87286353,106.48655
0.81895286,105.85358
0.8499634,100.1636
0.85506266,96.66553
0.8728942,99.941
0.73075485,99.9285
0.6972704,91.43639
0.5939851,90.19985
0.54754215,90.4267
0.57952076,86.493034
0.46717045,87.298
0.4430988,87.33066
0.4600424,86.39041
0.36834598,84.19581
0.42585692,80.85166
0.3719468,82.451904
0.35867298,73.36284
0.30608228,73.70379
0.35407025,74.65877
0.3103198,71.30068
0.34446222,71.36639
0.3102321,71.52551
0.34191933,67.97936
0.27668214,66.998116
0.3384808,66.8423
0.20236045,68.86203
0.15060201,67.88539
0.14511508,68.09103
0.13205203,66.62092
0.08846384,66.975174
0.010599646,69.8281
-0.01239566,65.94837
-0.032103196,71.78586
-0.10063502,70.76793
-0.0004245247,72.087326
-0.0755333,72.65093
-0.026632318,78.732346
0.07961327,80.19365
0.13468596,77.606285
0.26745686,84.201096
0.346309,84.62022
0.43402132,88.65886
0.4840731,88.85201
0.6405506,95.871864
0.74128723,99.171844
0.85292804,102.50596
0.9174352,104.09242
1.0437924,107.48812
1.0812967,106.76077
1.1808527,116.2477
1.252735,112.621475
1.2410017,120.22022
1.2681273,121.12394
1.3520397,125.11761
1.2956414,126.03907
1.4174427,125.054756
1.3790671,130.05127
1.377896,129.77065
1.4060453,130.21115
1.3978176,131.87746
1.3667649,134.37575
1.3900598,130.95943
1.3031017,132.51157
1.3401593,131.76051
1.2347677,129.69197
1.2738235,128.54144
1.2044969,126.59921
1.1274568,128.99318
1.1615031,125.18662
1.1151935,122.249855
1.0176196,123.58036
0.9637973,124.42899
1.0240655,123.237236
1.0798755,112.22078
1.0056062,117.42179
0.9482825,116.61994
1.0133353,114.75298
0.99600923,111.69024
1.0025942,113.86004
0.96656007,111.30213
0.96256,106.42341
0.9392721,103.92803
0.8652779,103.94723
0.7881311,102.55054
0.8049456,99.83689
0.838955,98.320076
0.73282796,99.83799
0.69889855,98.17595
0.60873705,94.63968
0.59036946,93.23079
0.57104653,91.32165
0.55388117,87.124504
0.47860807,86.87344
0.44815695,84.676155
0.48742294,85.17894
0.45095915,81.265015
0.44846058,80.87262
0.49248576,76.92596
0.40365475,77.20097
0.42464256,74.67288
0.45092985,70.830666
0.3858556,72.90269
0.42617273,72.398186
0.4032774,65.058716
0.502872,63.91304
0.35833618,67.757805
0.3706766,67.57273
0.31779093,64.20943
0.18972121,66.87826
0.13114779,66.12565
0.17094676,62.00129
0.18235254,67.7997
0.11622941,66.035484
0.094957404,70.8
0.08084931,69.73777
0.052651204,73.42324
0.102030486,77.26975
0.12294219,75.74482
0.21092242,78.804756
0.315353,84.589424
0.46316126,85.75823
0.5098082,87.161804
0.6463885,93.77931
0.75000185,92.98067
0.87460095,96.10401
0.9133687,97.72819
1.1051822,104.30378
1.0905399,103.73032
1.2167935,112.3329
1.3102494,110.852066
1.4092914,116.06081
1.4914914,117.766014
1.5106356,121.35076
1.5761198,123.36864
1.5074191,124.702255
1.6179028,125.45686
1.6263828,128.46912
1.4875245,132.0721
1.5875423,129.50403
1.623493,128.38264
1.5699341,133.00902
1.5355784,132.3589
1.6612949,134.90346
1.5553975,132.80447
1.534076,133.9787
1.4447402,134.45212
1.4460938,128.92766
1.4024857,128.32217
1.4566123,129.96437
1.399385,126.2789
1.3214558,123.74293
1.3420748,122.54866
1.2808102,120.134315
1.280043,115.247894
1.2616436,119.75308
1.2555221,114.832085
1.239048,111.3943
1.2355013,115.06507
1.2643005,107.9251
1.2296165,112.127
1.177522,109.30813
1.1755853,107.05067
1.2170777,101.53721
1.1467726,98.305046
1.0986041,99.152725
1.0550506,93.21202
1.0573372,91.96044
0.9670075,97.65722
1.016879,98.61864
0.87107503,92.48769
0.93756485,90.54511
0.8199903,87.324554
0.74927175,89.04727
0.77409995,81.61517
0.70029134,83.89359
0.7262748,85.97921
0.6888926,80.35709
0.7503005,77.60698
0.7140888,80.18833
0.65766895,79.46442
0.68527097,77.00262
0.742122,71.88766
0.7637998,72.73233
0.69650435,73.11215
0.6372618,67.39476
0.70628685,65.62503
0.6614574,67.970764
0.6526988,64.14909
0.56893057,63.478626
0.4922446,64.937126
0.4971175,64.49079
0.45222887,64.67156
0.38326043,68.0373
0.39731297,69.34355
0.37285632,66.75456
0.42105836,72.3863
0.43309984,73.693375
0.40506607,72.93703
0.45609728,77.60422
0.57290787,80.62639
0.6618349,83.503624
0.7879665,87.52669
0.8794166,90.303566
1.0278269,91.56004
1.0525964,92.51909
1.1577377,96.66336
1.2424376,101.443115
1.414627,107.124466
1.4724885,101.90314
1.4711231,110.5118
1.6316596,112.85032
