ppg,abp
1.0768596,84.53734
1.0938723,88.928246
1.300166,90.9782
1.2856598,93.4366
1.2957907,93.83569
1.4853966,97.861664
1.4636824,94.1677
1.4203545,97.94066
1.4817622,101.2385
1.5143486,103.100365
1.6417263,104.868324
1.5831001,105.90415
1.6578261,105.42251
1.6149157,107.97152
1.6560426,110.15139
1.6519154,108.53942
1.7126536,108.87032
1.6812513,112.218315
1.7907672,110.97978
1.7651094,111.50249
1.7952341,110.11954
1.6597024,116.286125
1.7064317,107.83872
1.7716136,112.25896
1.6642246,111.856064
1.683609,118.023445
1.6127374,111.74638
1.6896393,112.820145
1.6748822,110.32174
1.7326941,111.0049
1.6405786,109.02828
1.603405,110.91394
1.5659015,108.38838
1.5217422,111.5054
1.5017285,106.50506
1.5395663,110.71694
1.5129293,110.74297
1.4629729,110.8861
1.3850532,101.36363
1.4316345,103.9188
1.389104,102.327415
1.4561695,105.58279
1.4383326,101.49014
1.3860128,100.68675
1.4429319,102.232506
1.38057,97.50318
1.3700477,96.56483
1.3461283,98.05161
1.3737208,95.888695
1.3129629,94.454216
1.2861663,97.35214
1.3107799,90.91103
1.3606886,88.94547
1.3301519,93.31149
1.3895125,90.18137
1.2221965,87.673805
1.2755415,87.894264
1.210693,85.48739
1.2681152,84.908424
1.180242,84.19663
1.1617239,81.49429
1.1860479,85.03643
1.0955474,81.93881
1.1331537,83.99891
1.0667136,84.01228
0.9963653,79.398575
0.9439772,77.615585
0.9441491,78.645966
0.9216379,75.62253
0.8909546,72.95864
0.81616324,73.84657
0.92571914,72.08521
0.79119784,75.61497
0.8849275,69.3409
0.9252523,68.63195
0.85855204,63.25931
0.9860702,65.80961
0.9303886,66.072205
0.8310465,64.43929
0.9629369,66.20648
0.8504072,63.712532
0.8838313,60.920357
0.850205,62.029446
0.8559616,60.885326
0.82697684,59.709805
0.7663304,56.848583
0.8536451,60.365814
0.80303407,63.270397
0.7071544,62.06051
0.70427406,61.75961
0.71799374,60.44976
0.65492356,61.86361
0.60003936,58.051712
0.6087931,57.652454
0.53316915,62.50959
0.527857,63.564007
0.57858837,65.31538
0.59897506,63.591663
0.50935006,64.996826
0.52069134,67.102295
0.54232913,62.439095
0.5160214,68.36323
0.6455582,62.051987
0.6325856,71.706696
0.6261624,69.763695
0.63572353,75.74714
0.84225476,74.854454
0.895441,75.27191
0.9702916,79.37732
1.0068316,78.954956
1.0995332,80.646805
1.1342766,83.05137
1.282727,81.30604
1.2995082,88.946106
1.4089699,89.9636
1.467689,89.30281
1.5251209,89.74264
1.5394318,90.66717
1.5781516,93.27913
1.6949847,100.22747
1.739639,97.43731
1.8083849,100.73014
1.82604,100.43553
1.8465353,103.35817
1.8214247,106.38555
1.9484247,105.57932
1.9531599,108.81527
1.938023,107.78331
1.9944111,109.84502
1.918779,108.68217
2.0635622,112.21452
1.9900774,110.51455
1.9439143,111.755
1.9571241,116.38881
1.9708458,114.77602
1.9442157,113.063614
1.9136765,112.23812
1.9606045,116.46052
1.9674081,112.59612
1.9292238,110.61259
1.9333901,113.59985
1.9334927,113.94532
1.8209139,108.25464
1.8739436,112.887794
1.8204747,110.91857
1.8844949,109.25061
1.8148081,114.78482
1.7366594,107.00496
1.6302444,109.87853
1.6618296,111.66396
1.6681652,107.55819
1.649471,106.45517
1.6473696,105.56949
1.5973839,108.38792
1.4849222,105.59983
1.4683452,102.21775
1.5659103,98.933334
1.3881077,103.34069
1.5021757,99.05817
1.542172,103.43239
1.5477003,95.409424
1.4825575,95.19508
1.3928368,98.93593
1.4742221,92.309586
1.4977735,96.354195
1.4657605,97.395386
1.3889415,90.96984
1.4139732,89.22096
1.3426076,89.516624
1.3094616,86.52145
1.2557539,88.52666
1.3651693,87.34018
1.2076259,85.10211
1.217435,83.58206
1.2187178,84.21477
1.1638217,84.63697
1.0909407,83.90817
1.1201444,81.64842
0.9885231,79.942955
1.0153205,74.538376
1.033052,78.998795
0.9482819,75.632904
0.9413126,74.1806
0.9874314,74.12075
0.9323044,72.878105
0.8988526,74.86936
0.8235261,70.53105
0.81142503,71.679184
0.7960651,68.2261
0.8698736,72.356
0.845693,67.4656
0.9097122,65.876465
0.799599,63.764153
0.8073911,67.459656
0.7979855,68.30035
0.7022559,61.603325
0.8730041,62.103474
0.6979036,60.46185
0.7605365,58.981842
0.64906955,60.80529
0.7435161,62.593178
0.5627089,61.308216
0.6491109,59.874176
0.6356492,59.82957
0.56523556,60.738728
0.54133093,61.669624
0.41399536,62.51932
0.49047002,62.106064
0.46809968,68.53646
0.47028702,59.04841
0.42640588,64.467834
0.41670614,63.089584
0.37621048,66.59929
0.3569867,63.01281
0.40536305,66.73443
0.4079318,67.93426
0.41388193,67.789955
0.6008042,71.33835
0.5246006,67.45408
0.5447358,70.93866
0.6820957,75.50456
0.59408134,81.94129
0.7460176,76.932175
0.8951018,80.88675
0.9056071,79.455666
0.94861794,84.77627
1.074279,84.76396
1.1112598,86.72726
1.1480616,87.88283
1.3182852,89.362885
1.3228213,94.55244
1.3999141,95.49961
1.4486798,98.26972
1.4296066,97.64906
1.500138,100.0643
1.539786,96.51317
1.5996165,103.98092
1.6280469,99.709435
1.6829977,100.24587
1.6360892,105.22822
1.6602454,107.9241
1.7136261,107.816246
1.671406,108.79221
1.7122757,110.285255
1.7124422,114.66843
1.6767646,110.28054
1.6479365,112.20331
1.616365,114.98695
1.6999226,108.073555
1.6805557,114.96796
1.6799415,114.8662
1.6157484,114.95303
1.5647773,108.24345
1.5937258,113.25765
1.544216,107.90924
1.4546542,116.76836
1.48935,111.11139
1.5219026,110.31775
1.4380623,108.772156
1.5759004,109.47819
1.3567995,108.73355
1.4303939,108.55145
1.3107524,101.779335
1.274965,105.37192
1.3227434,105.08146
1.2363485,105.42038
1.3410474,104.96391
1.1868068,105.325096
1.2610717,99.23331
1.1594058,100.59892
1.1986566,99.25901
1.0959704,99.81965
1.1053705,99.80268
1.1429979,100.71302
1.0976824,95.1668
1.0268699,96.50986
1.0657909,95.41381
1.091338,91.854126
0.9713921,93.20517
1.0007114,93.84429
1.0359385,90.96685
1.0087652,91.27612
1.0019096,90.38307
0.9733311,89.44836
0.9049738,88.03144
0.8332732,87.84974
0.8446195,85.030426
0.8412788,86.42331
0.8248289,80.02334
0.82308984,81.48927
0.7038907,78.66065
0.68313766,78.34881
0.6854979,78.22352
0.5820065,74.22672
0.6500669,77.24532
0.5645923,78.96219
0.58382565,75.55853
0.48761523,77.469986
0.49988025,71.48944
0.411774,69.78201
0.43189013,68.84749
0.44075122,72.63184
0.44587138,68.769325
0.43881366,67.3025
0.36618534,65.94507
0.4397939,67.983215
0.38953853,64.913345
0.4201006,62.705357
0.41450593,62.457306
0.41187906,65.81915
0.3624861,65.90737
0.3838176,61.05257
0.36184368,61.59041
0.3030323,63.254005
0.32011083,60.387676
0.24481168,59.30892
0.24896441,61.97626
0.21339813,61.343052
0.1931859,62.95742
0.19996604,60.406624
0.08889935,63.378365
0.14068998,60.970554
-0.036338415,60.41657
0.019913143,60.609257
-0.0008596033,67.12581
0.029861916,63.55267
-0.013962764,69.98308
0.03147353,64.259186
0.05111847,64.35847
0.05782596,67.085266
0.07740525,69.81773
0.15768375,69.197014
0.1164732,73.40954
0.23890021,68.98193
0.31837913,76.75425
0.36882305,79.27986
0.3994462,77.22095
0.5309787,80.3637
0.54518974,81.88193
0.5413289,83.48754
0.71218514,86.69803
0.81660104,86.08832
0.8957279,89.03187
0.8276124,87.98308
1.004647,91.069046
1.0875947,93.99909
1.0500447,96.057655
1.1155145,98.12162
1.1379913,98.6337
1.2070905,102.82562
1.2776467,97.16621
1.3525066,107.19623
1.3295789,104.14863
1.3358519,108.93571
1.3206522,106.48867
1.3723427,105.286896
1.319695,112.84897
1.4029403,110.10464
1.3482138,108.67696
1.3685738,112.3334
1.3054669,117.680336
1.3690768,111.14481
1.3365022,113.292496
1.416935,118.15594
1.2997115,113.68065
1.2887166,116.23027
1.2844583,116.62174
1.3504677,117.28195
1.2727859,112.58347
1.2365335,110.19592
1.2080494,111.122406
1.2126176,109.73722
1.2622833,110.450386
1.151867,110.85689
1.1554384,109.12988
1.0648086,107.90989
1.1197195,109.30151
1.0186001,107.603035
0.9994161,108.6986
1.024078,109.245186
1.0288407,103.809494
0.97207594,106.0007
0.9792556,105.426956
0.94991344,99.5428
0.9475499,101.12654
0.9400748,97.54397
0.9112475,99.31813
0.94189084,98.45167
0.9473063,95.353485
0.853147,95.498314
0.84938395,92.35872
0.88261104,94.248955
0.80878955,95.455536
0.8497028,91.02591
0.805582,91.22768
0.8472252,89.90851
0.7999267,87.614555
0.7628576,87.38145
0.77864593,89.78546
0.6655187,87.68095
0.66386324,83.74259
0.6535798,85.06767
0.670651,81.90908
0.595493,79.230705
0.56302994,81.61642
0.50461435,79.72505
0.5488543,77.2305
0.43726766,77.23192
0.44499165,80.04508
0.5024164,77.29404
0.39869496,69.52181
0.41246578,72.18401
0.39901802,75.32756
0.3856554,73.262184
0.4306862,73.966736
0.32491043,69.67687
0.38354003,70.690796
0.33277822,71.09776
0.32773587,67.56798
0.32218412,63.566277
0.37368137,65.6233
0.3032607,67.56422
0.37005776,63.321796
0.24180685,64.17633
0.33730456,63.11492
0.35310644,62.966732
0.2744567,61.03439
0.34911236,60.763542
0.2428573,64.010925
0.16399753,60.2577
0.17721383,59.87383
0.20553513,58.97571
0.15033317,59.75806
0.12022181,59.05546
0.07601828,57.85421
0.07522446,62.858635
0.13082394,61.709515
4.4873865e-05,62.52286
0.048079852,62.423435
0.037768085,65.26532
0.030094953,65.63092
0.05646877,68.86994
0.15330319,67.441315
0.24563992,70.76191
0.18638292,70.08465
0.18768057,73.80833
0.2931428,69.626
0.2859031,75.488174
0.46693128,79.35961
0.46626222,74.81925
0.53436136,79.729805
0.63150483,80.78391
0.72962457,81.46785
0.8213741,84.13076
0.835664,88.010376
0.9825868,91.13388
1.0604085,88.704666
1.0701356,89.08945
1.078696,91.38252
1.162786,91.26028
1.1487465,98.30047
1.265298,96.11486
1.3060671,98.437584
1.3877417,98.27342
1.383053,103.07873
1.4364109,105.04675
1.4666831,104.43466
1.5016645,105.89499
1.5518503,105.91621
1.4954678,107.94009
1.5661625,113.27896
1.5365273,108.04025
1.627257,110.95523
1.5158589,114.226875
1.6655146,115.05295
1.6361552,112.47899
1.5996073,110.56983
1.5120442,112.34473
1.5221454,112.04485
1.5841749,113.23306
1.5429122,113.96277
1.4705241,110.68492
1.4541582,112.438065
1.4973152,112.10658
1.4972908,115.038086
1.5773797,113.27235
1.4582466,106.59397
1.4756473,112.09304
1.3798732,111.4262
1.295521,106.951035
1.2896999,111.18239
1.3640243,104.004524
1.2910434,104.5105
1.2448398,101.61298
1.2851756,105.94212
1.2256628,102.34651
1.285932,106.644135
1.3371353,102.47475
1.1983039,97.75873
1.1633669,101.26998
1.2026793,100.429245
1.2338252,94.51967
1.2246203,95.030464
1.2393904,98.42608
1.2399704,92.56649
1.1307042,92.934875
1.1237798,90.07974
1.2203275,93.78053
1.1365007,91.63674
1.1789258,88.79605
1.0933602,88.329895
1.0910854,83.94061
1.1047094,87.26215
1.0199184,89.70042
1.0085573,82.98551
1.0449992,79.45329
0.9389673,80.24618
0.851601,82.77671
0.88206124,72.61879
0.8730177,80.8457
0.84469384,81.6045
0.7841951,76.2139
0.85743415,75.44318
0.7344884,73.765495
0.6905771,74.09405
0.79638195,74.38834
0.68344957,70.837326
0.74030936,70.48533
0.7741748,70.5911
0.7244992,66.22075
0.750907,69.439186
0.750364,65.50526
0.7404985,66.70476
0.74909997,64.75648
0.77454346,63.342297
0.6122869,65.70016
0.7588694,63.743866
0.77114403,63.914333
0.766848,58.1274
0.694494,62.954464
0.6284319,62.698635
0.6468975,59.38293
0.6575812,61.19406
0.6391991,55.823883
0.5846985,62.338104
0.5454115,56.87824
0.5490549,56.26472
0.4153576,62.742287
0.50733525,61.281124
0.4296961,60.641136
0.45933452,63.683754
0.41746283,61.09029
0.4704209,64.96388
0.4222316,62.723373
0.4663575,62.91234
0.4256668,66.77554
0.5221382,68.84512
0.5067019,68.156494
0.58064437,70.99033
0.6398591,70.89817
0.7038681,73.958916
0.7540022,74.42201
0.75117403,75.47951
0.89214975,76.186646
1.0140628,78.27221
1.0234727,80.81888
1.0928142,84.34637
1.1751808,82.03825
1.2401798,81.36855
1.4193224,86.029144
1.4672734,91.91495
1.4296751,91.9805
1.5472431,92.31636
1.567759,96.14354
1.6470228,98.771484
1.7220099,98.99804
1.7421752,94.98816
1.7983516,101.329346
1.8437438,100.39566
1.8795776,105.75692
1.8708832,106.51439
1.9636801,107.57198
1.8460568,109.96183
1.9379723,109.88255
1.9643266,110.28746
1.9638778,106.84775
1.8823798,118.8701
1.8734173,109.297874
1.8724912,110.6158
1.9187944,111.66738
1.9012952,117.127945
1.9530525,113.88914
1.9265332,114.11856
1.9063833,113.09209
1.8740246,114.610344
1.8991965,111.67488
1.8458389,113.65224
1.8373945,114.15921
1.8107672,110.179054
1.7994757,109.801384
1.7728844,110.23841
1.7923003,114.64474
1.6795032,109.83027
1.6014564,113.1237
1.6345755,106.60237
1.5812209,105.41646
1.5783238,106.97532
1.6169447,107.24594
1.5789882,102.66908
1.612508,105.65641
1.5371834,102.960884
1.4771619,101.18227
1.5939975,96.75886
1.5321997,101.75881
1.5427474,100.05002
1.480584,95.57426
1.4629637,96.12628
1.5537928,92.075325
1.4270016,91.388756
1.4972712,92.76917
1.5201784,92.68687
1.3911338,96.04062
1.4578595,85.37737
1.3723351,89.70444
1.3591137,87.13144
1.3557957,86.791374
1.3617624,88.479675
1.2975205,84.705124
1.2732738,79.422
1.1732482,81.28686
1.1513386,81.26905
1.1426611,81.7363
1.131287,82.19004
1.1070926,80.76127
1.0768692,82.83551
1.0307631,77.55436
1.0314789,72.925095
0.9786512,74.640656
0.88731796,71.584526
0.9914509,76.20945
0.9170722,71.31032
0.90485847,71.69157
0.8972059,71.22513
0.9048482,68.55447
0.852821,68.63818
0.86912304,68.04772
0.90851074,68.46934
0.81314063,64.35694
0.9446893,61.736248
0.91177225,66.7763
0.88881886,62.739952
0.9651552,64.44489
0.8540745,66.14224
0.8879434,59.934822
0.69601613,62.01841
0.80642325,57.604965
0.72053087,65.97446
0.76425266,60.64772
0.6450322,61.06612
0.6252658,56.28429
0.64287925,62.425198
0.5792682,63.164543
0.5980288,62.09486
0.52419925,62.49558
0.51722455,61.846043
0.47180563,62.995766
0.5259219,63.86622
0.5892583,67.370766
0.5479163,69.02894
0.4924058,69.18951
0.59979945,68.04087
0.56199235,71.51473
0.56040615,69.84783
0.6786786,75.380974
0.74554414,77.41945
0.74103665,78.698395
0.87047905,78.942764
0.9573138,76.59895
1.0248663,77.430885
1.0633751,81.073395
1.1213907,80.12736
1.1749805,85.72564
1.3710191,86.97918
1.3129641,88.81114
1.4497163,89.926414
1.4612335,94.4856
1.5236138,92.62926
1.5723869,97.704315
1.7096409,96.79863
1.5965507,100.859924
1.6863847,101.39918
1.704294,101.15783
1.6939704,102.04785
1.8699007,107.261765
1.840337,106.22771
1.7884297,109.607414
1.8457991,110.06111
1.8114314,113.540474
1.8476353,107.69522
1.8644599,110.77685
1.7958821,112.27097
1.8188252,109.39003
1.8211216,113.36651
1.7781382,116.94069
1.8966378,111.46816
1.7909725,114.43668
1.8423816,112.78069
1.7530775,110.9496
1.6998821,115.39354
1.7586803,111.75884
1.6674625,113.296684
1.6828166,115.73378
1.6748807,110.70646
1.6085645,108.919556
1.5669917,107.73219
1.46943,110.740204
1.4887304,109.57894
1.5049314,111.55241
1.4643815,106.42801
1.3941743,108.85468
1.5124464,105.61722
1.3300879,104.752
1.3656002,100.13054
1.3708483,102.50226
1.2837342,103.91328
1.3024334,101.132614
1.2791256,99.582054
1.275312,100.2894
1.3706447,98.208244
1.3346295,98.84856
1.3089219,95.41521
1.2256023,92.03746
1.2514868,93.26726
1.221278,89.95796
1.2721399,93.22445
1.1569098,89.711716
1.1566409,91.04501
1.086745,88.43424
1.1400568,85.5484
1.0491797,85.685555
0.9672083,82.157265
0.946681,83.803535
0.9425821,85.799255
0.8907453,83.3476
0.958066,79.304665
0.93790007,82.76292
0.78335434,77.577934
0.7759508,79.164
0.74137443,75.41346
0.73733217,80.27727
0.6822793,74.284035
0.74497825,74.5832
0.67063177,71.63194
0.6242159,74.68235
0.6686302,70.28454
0.65476936,71.77784
0.59946966,69.605415
0.5484041,66.34254
0.60324776,65.21696
0.5693958,67.19402
0.64716095,71.45727
0.47881633,65.67994
0.47352183,67.19918
0.4960541,63.21004
0.54690397,64.192505
0.5561811,58.482754
0.4449151,62.851307
0.4684408,60.798374
0.42119384,59.933586
0.43459338,62.133587
0.3731424,61.809635
0.34507224,66.25693
0.3404963,60.561153
0.20766865,60.76211
0.18365748,56.73976
0.18179345,62.426647
0.177828,64.99506
0.13777581,58.316807
0.12098733,63.422966
0.09158984,63.890682
0.19116944,64.60282
0.18885767,65.30652
0.17917524,66.329735
0.22389966,70.63866
0.1548443,69.29205
0.19296047,71.02161
0.30189797,71.6998
0.3617189,72.59877
0.35404247,76.460625
0.4687045,77.74243
0.5155292,77.57113
0.5536058,78.63225
0.7178768,80.222015
0.74420583,82.824234
0.73879284,82.059746
0.82841426,84.27205
0.8846764,85.47798
0.9895134,89.77655
1.1058699,90.87852
0.9908143,94.593704
1.1987218,94.4313
1.1820503,98.21558
1.2405475,97.7097
1.2879636,102.705795
1.2780633,100.17925
1.3296498,100.67129
1.374421,101.73855
1.410333,107.72486
1.3740952,108.92082
1.464758,110.249794
1.3860974,111.792366
1.4104149,108.75705
1.4826349,110.52786
1.4193027,109.89978
1.478261,111.91779
1.4549055,113.143845
1.4103999,111.4071
1.413878,115.14135
1.4104816,112.92888
1.4364197,117.37466
1.4117444,114.30413
1.4066273,117.84693
1.3650922,116.03881
1.360974,113.827415
1.2458354,115.9921
1.2324843,116.28
1.2517647,111.47922
1.2912775,109.203766
1.1571068,107.76706
1.224493,107.72166
1.1565528,110.79761
1.1420832,107.80059
1.1444205,109.142456
1.1129876,108.57668
1.0155935,107.430214
1.0120277,102.87598
0.9461342,101.0771
0.9430069,101.98622
0.88431656,105.22274
1.0674733,99.729866
0.98574674,99.7961
0.958145,95.01339
0.9538712,98.56651
0.8743795,97.468185
1.0015715,95.76209
0.9420074,91.8592
0.88185054,91.61006
0.8720222,92.41756
0.78663343,88.66834
0.81827706,95.782295
0.7622243,87.863754
0.84867555,88.472046
0.78457797,91.70477
0.81398594,87.613014
0.73317665,86.12714
0.6781904,85.664116
0.6180458,82.44719
0.5781182,82.596535
0.61550415,82.0792
0.58171827,78.969666
0.56310725,81.12298
0.49560797,81.358284
0.43309063,73.47488
0.41156238,72.23472
0.42708772,71.084915
0.39011064,74.57525
0.44551972,75.023705
0.31120437,73.01992
0.2896608,72.59771
0.33319455,69.78087
0.3594874,73.97375
0.42780262,69.16135
0.41812098,67.461586
0.34529337,66.47269
0.26393482,61.84903
0.29692325,66.008354
0.30245617,65.176346
0.28421345,62.960945
0.34549257,64.88729
0.29618406,61.858894
0.3482313,60.840984
0.23926732,60.8458
0.19539948,61.357967
0.23463434,60.33592
0.22313504,62.163815
0.14186002,55.33067
0.100618646,61.216743
0.031600323,60.6608
0.05847908,60.933334
-0.056394286,59.849087
-0.021517858,59.648808
-0.013328655,62.814068
0.027885567,63.620914
-0.088369675,66.4707
-0.038675476,65.20456
-0.019990493,66.73126
0.07486471,65.99132
0.0921509,66.68929
0.018712621,64.98903
0.064795226,69.994995
0.1313844,71.84896
0.18873252,72.15521
0.2977297,76.56677
0.32320797,78.24314
0.3556305,78.747475
0.37902117,79.36429
0.49124488,82.144806
0.65770537,82.66459
0.6898236,87.66806
0.82382137,86.43083
0.784478,90.24455
0.9881171,85.4051
0.94528115,91.88694
1.0014969,97.46991
1.0774267,97.34232
1.0968056,98.154106
1.2526954,99.746666
1.2339127,101.3091
1.3190413,105.75147
1.3880646,106.0872
1.321596,105.535706
1.4394214,105.199715
1.4250544,109.02621
1.3949236,106.34384
1.3971136,107.42431
1.4350241,112.45648
1.4445431,111.55013
1.4140314,110.19692
1.4773732,114.66444
1.3744355,115.613464
1.4936066,109.460434
1.3566085,114.267075
1.3667134,112.168816
1.3787502,117.16131
1.4158084,110.60794
1.4409053,115.59006
1.4072917,110.71922
1.400175,114.8262
1.3363985,110.14505
1.317339,111.20453
1.3098534,112.85604
1.22844,111.13112
1.1383946,112.92143
1.2359312,105.495605
1.2270542,105.02403
1.2198083,107.87733
1.1489794,102.73483
1.1547209,107.96638
1.1260186,106.14785
1.0753183,100.8164
1.0835379,100.73802
1.0495243,100.778206
1.072711,102.15236
0.98105943,99.6305
1.091532,100.38188
0.97915053,97.743164
0.9528519,99.569016
1.0350307,94.03556
1.0249281,92.323425
1.0514752,96.86085
0.9999869,90.26424
0.9505937,93.90045
1.0139557,88.811386
1.0896524,92.90956
1.0443968,90.789665
0.95348614,87.89145
0.95507866,89.347755
0.87276715,86.35139
0.89701253,86.38352
0.8337221,82.95128
0.8316045,84.68494
0.75765586,79.6829
0.7449218,80.93853
0.6811814,80.420944
0.72516555,82.32899
0.61495566,77.3092
0.66361034,74.97781
0.6657508,76.24628
0.5841513,75.35786
0.64066905,75.03564
0.5293103,72.236115
0.6516938,70.65794
0.5897406,70.84674
0.54566807,73.74428
0.59451747,70.32628
0.5788082,71.96255
0.5215683,67.52944
0.6177067,67.54904
0.5261715,63.359615
0.6029313,62.518147
0.56759614,64.2059
0.57584924,58.42748
0.5539047,62.955933
0.557183,64.339615
0.54601157,61.785362
0.50419,58.94455
0.5172928,60.334656
0.5070366,60.917557
0.4950125,59.83864
0.49056402,61.586823
0.39549372,59.353806
0.38569131,63.265694
0.3159262,58.420795
0.33384603,63.059795
0.28419036,58.648495
0.3031431,60.76889
0.29321265,61.850193
0.34408906,65.39274
0.3221943,65.919395
0.338268,66.05866
0.30787873,67.99433
0.31219292,67.84556
0.35347414,65.68707
0.40700066,70.651924
0.4212155,71.17378
0.5621665,72.62196
0.6442239,75.92101
0.720515,80.25942
0.83252454,78.40779
0.79955333,81.89906
0.8793511,81.001564
0.96893907,86.13513
1.020955,84.697136
1.1184571,86.337746
1.2661589,86.49919
1.3326756,87.96173
1.3500466,90.46138
1.4672492,94.8786
1.4878454,90.39298
1.4767885,99.870575
1.4897171,99.85422
1.6087028,100.61458
1.6513274,103.63234
1.7138652,107.77
1.6447395,108.23378
1.7633642,108.17594
1.7635664,107.31478
1.7573596,109.85094
1.7448847,110.793495
1.7770965,111.51184
1.7737826,111.32094
1.8119766,112.08921
1.826365,110.19941
1.862264,117.58579
1.7953233,113.961655
1.8301606,114.62971
1.8516198,115.58839
1.7205572,112.58994
1.8180951,111.59728
1.7448144,111.01147
1.7601408,111.90074
1.7481673,112.17504
1.7239006,112.54834
1.7702621,113.985504
1.7150722,111.898674
1.6625755,115.13908
1.6383549,110.43211
1.6507266,108.537544
1.5500476,109.21169
1.5729982,107.945724
1.5449293,104.510506
1.5573815,105.09614
1.4738302,105.26142
1.5073311,103.19131
1.4786015,99.62586
1.4426868,102.30557
1.4735907,96.50157
1.5029349,95.72643
1.42799,98.29581
1.3888087,95.79739
1.445529,95.59483
1.459141,95.920944
1.4630238,97.43418
1.3850979,92.04725
1.4555348,90.220184
1.3932769,90.06234
1.4439324,90.93475
1.3397714,89.58887
1.3184756,88.20962
1.3548653,90.301285
1.3132799,84.91974
1.2560687,88.76675
1.175255,85.942604
1.1952596,85.027504
1.1128782,81.71095
1.1218325,83.43153
1.186073,80.20996
1.0692362,82.90706
1.0824866,81.823814
1.0150641,76.55093
1.0452898,75.98435
0.93770283,73.01794
0.9397107,72.93976
0.9436667,71.07361
0.96124905,71.753365
0.95459133,71.212715
0.90522313,70.65853
0.86421436,66.00563
0.83386767,70.04698
0.934505,70.10542
0.9431624,63.23742
0.9035622,65.97038
0.86279386,59.539547
0.9137704,65.0361
0.8556249,61.214172
0.8129399,64.34855
0.93047297,63.216705
0.8077976,62.240955
0.81084716,62.147415
0.8872793,62.78605
0.85008615,59.25642
0.7249275,58.263454
0.7172981,56.606255
0.7477943,60.978523
0.6771782,60.05213
0.6628522,60.31445
0.648393,62.610096
0.55977523,62.73898
0.51634955,62.974525
0.5339357,61.579052
0.47713053,64.27462
0.5859774,64.84594
0.55057913,66.36333
0.5840576,68.13045
0.6385298,67.759636
0.56782705,69.721855
0.6786705,69.84948
0.81285435,71.22087
0.7675871,73.12119
0.8442934,76.59409
0.91413736,74.96471
0.9952341,77.419365
1.0242885,80.07837
1.0541602,83.50558
1.1304063,83.25249
1.2713516,85.39478
1.2780025,85.3092
1.4002662,89.871
1.5175065,93.04625
1.5175025,90.29408
1.5072856,91.46626
1.681048,98.55583
1.7132326,93.97124
1.7715069,97.82193
1.8518574,101.822205
1.8602995,99.56558
1.8405819,101.3733
1.908825,102.97212
1.866028,103.397484
1.9261864,106.53392
1.9429542,109.12028
1.8737302,108.22619
1.8968909,110.53111
1.8927099,108.61603
1.9103695,112.34505
2.0145946,112.95143
1.856222,109.914856
1.9090656,114.1481
1.9857718,113.23947
1.9357983,121.68973
1.9418147,108.34466
1.9228606,109.66919
1.8729551,109.04845
1.799852,113.39551
1.8420938,113.33874
1.7485859,115.206924
1.7912332,111.08988
1.7824957,108.772385
1.6688114,109.79822
1.6941833,110.128334
1.7427359,109.528725
1.6269538,107.12434
1.628517,104.269455
1.564774,109.94235
1.6071917,105.22094
1.5482696,109.950035
1.439098,99.26679
1.4782556,101.72443
1.4727618,104.728
1.3853817,99.09028
1.4665195,100.782036
1.42208,97.764244
1.4729908,100.34758
1.4151819,100.284225
1.4128163,98.66537
1.3514737,96.2039
1.3973936,90.94935
1.3488317,96.73088
1.3751822,88.37117
1.3461107,91.57148
1.3831373,90.98005
1.3263661,88.899536
1.2172471,87.06426
1.2187798,86.535614
1.2421014,89.82398
1.1329073,88.78017
1.2031873,87.50756
1.0747986,79.554344
1.0423907,81.51276
1.0174668,75.198105
0.9621128,81.36093
0.9629703,81.07284
0.96831685,81.12884
0.95854014,74.70848
0.823024,75.91436
0.87966496,71.75985
0.824705,73.5872
0.8605303,68.72239
0.8274114,72.04157
0.8304448,70.37938
0.84722924,72.812546
0.78614473,73.999016
0.8495512,72.06123
0.83519274,69.83832
0.7213153,65.56092
0.83273935,64.21463
0.77245826,67.585495
0.8204971,64.68915
0.751314,58.668274
0.7209422,66.67957
0.70178246,60.890896
0.6581094,56.333763
0.607823,55.241497
0.5928597,60.67165
0.5775046,58.99812
0.5680048,61.891476
0.48138916,63.296524
0.45862928,59.899082
0.44530892,56.039764
0.394833,60.707058
0.40870813,59.67054
0.36672562,62.046143
0.36557993,62.57535
0.2656566,62.909702
0.31509054,65.32588
0.32560351,65.66918
0.2304771,67.18455
0.3892248,62.343307
0.35192803,70.08343
0.3538462,69.4302
0.36380386,71.13992
0.46969095,70.58796
0.47105065,76.32624
0.5657747,75.45379
0.5839749,76.95643
0.7480892,79.51327
0.7836752,77.37802
0.8020894,77.09613
1.0067902,85.03081
0.996022,85.543655
1.098076,88.716095
1.1384556,91.94379
1.1820412,91.491585
1.2247092,92.15236
1.1683643,94.83207
1.299306,95.645
1.335071,99.04012
1.4290731,99.63993
1.4857187,99.23178
1.4129046,99.803925
1.500722,105.11585
1.4878515,101.72555
1.5857781,103.04999
1.5273503,107.72992
1.5273633,108.03638
1.540642,106.506836
1.6141729,108.91959
1.5918292,111.7388
1.6281668,111.061455
1.6423976,111.65496
1.5811874,112.816666
1.6610074,115.36219
1.5946176,114.363884
1.5592506,112.9127
1.5712601,108.53097
1.4278195,113.16231
1.5678692,111.768936
1.4273219,112.314285
1.5469123,111.27512
1.425733,113.29748
1.3642374,109.88633
1.400589,110.07305
1.3761709,109.87077
1.3598831,111.00688
1.2498246,109.95821
1.2942178,108.77355
1.2277129,103.06438
1.2183032,104.85884
1.201265,105.40617
1.1068126,107.38748
1.1433035,102.28066
1.1358509,100.45992
1.1073612,102.624214
1.0593462,101.751175
1.0564226,103.95811
1.150753,99.621704
1.0935692,99.7485
1.0107676,96.35399
0.9767322,97.17163
1.0081189,96.10574
1.0376137,97.12718
0.9649963,97.411575
0.97731984,92.8737
0.90553045,90.36362
0.980215,86.929634
0.973438,88.58738
0.8020594,86.141495
0.8347785,88.02402
0.8393227,84.34709
0.82524186,86.946526
0.7466912,81.785034
0.73228025,82.201035
0.6916859,79.57541
0.6293862,80.822754
0.5790551,78.330185
0.64470243,71.942505
0.52394855,77.29733
0.51002604,74.9658
0.44882217,76.41296
0.49819297,73.78286
0.5158132,71.731995
0.43546736,73.06137
0.41513884,71.92656
0.38924903,66.64346
0.32048544,69.20461
0.40244725,72.10888
0.45485014,64.964874
0.3790054,68.92444
0.4262831,65.15287
0.3856982,65.656105
0.37625238,65.658676
0.4132041,64.81224
0.27811518,64.04232
0.37657732,61.70523
0.35021105,58.567566
0.38052908,55.564907
0.3136141,60.881344
0.21500845,59.23553
0.24924274,58.286865
0.2157118,62.18961
0.13776068,60.588253
0.10937055,61.525215
0.0861705,60.158226
0.07680014,61.327217
0.03999722,59.358074
-0.009036525,61.883015
-0.045350432,60.792103
-0.017602805,63.790726
-0.031431008,62.501488
-0.03791025,62.71416
-0.050358936,64.84301
-0.033372805,70.32818
0.0708932,66.09376
0.08848726,69.669304
0.21624093,72.15295
0.1905698,73.738205
0.27265236,75.57515
0.32428223,77.034386
0.39099896,73.52064
0.45420867,81.34994
0.5005885,82.32542
0.53973377,83.408905
0.6026233,86.83995
0.6200689,85.53605
0.7784847,87.64212
0.85753286,90.761215
0.95276,91.13996
0.85468984,95.155304
1.0180286,97.71838
1.0970385,98.573006
1.1454605,97.243805
1.0485346,96.69237
1.157689,101.31497
1.2188897,102.98513
1.2560792,102.518425
1.3577706,103.29513
1.3136823,106.029755
1.3008347,104.3121
1.3387655,109.927315
1.3337337,110.96534
1.3502462,111.05315
1.3603563,107.232994
1.3463646,111.30782
1.4155824,114.43333
1.3367785,115.60536
1.3508006,114.23826
1.3571647,114.95704
1.3421686,116.45937
1.286298,112.450676
1.3417081,114.146164
1.293374,110.22419
1.3291501,111.94962
1.2313969,113.38923
1.2289625,112.04893
1.2284055,110.019844
1.1818289,111.84365
1.1764863,109.41374
1.1914781,103.78063
1.0613981,110.546265
1.0247879,107.44021
1.1004468,103.479034
0.9768794,108.13408
1.0691195,106.335846
0.9878845,105.35659
0.984145,102.84444
0.98209083,104.8204
0.89984655,96.06563
0.9139048,99.358345
0.99224013,100.92288
0.97920096,99.35168
0.8670211,98.07973
0.9730935,98.71652
0.9916332,94.756874
0.8982128,94.419556
0.91707456,93.608284
0.8206555,91.62936
0.8460902,92.354126
0.8545617,92.47827
0.88831824,86.76671
0.86705565,90.71105
0.85227907,88.10337
0.81991124,87.0636
0.75503886,86.70469
0.7242214,79.943405
0.6637154,82.66226
0.60578597,80.74837
0.6307411,82.53964
0.7057128,81.24013
0.5897338,81.08872
0.49479768,77.76032
0.51558304,78.83728
0.49605578,74.68703
0.4655087,82.029434
0.47475156,70.20199
0.45068341,76.78214
0.34911743,70.95496
0.45381463,71.95092
0.43204728,71.46771
0.42944002,69.66265
0.48881167,72.7147
0.45655307,66.04431
0.38119897,69.18834
0.3996721,64.831726
0.5023159,63.74266
0.32999808,65.197266
0.40000996,63.350765
0.39973658,64.93064
0.49001944,64.99088
0.4310824,64.89413
0.3417919,60.43522
0.32385844,59.576866
0.34582567,60.37424
0.3482802,59.62443
0.19866686,55.986366
0.22537287,62.764896
0.26234606,59.12313
0.22585079,60.180378
0.12040635,61.591923
0.14698793,59.059402
0.101490386,61.886856
0.13363174,62.081245
0.1655142,64.91035
0.10557069,65.42366
0.16861486,68.16419
0.083966106,64.43227
0.15516016,67.80316
0.18629715,69.2797
0.33593807,72.74308
0.32318518,70.788055
0.30904055,72.184906
0.44635567,73.19195
0.5542814,72.204025
0.530152,76.9406
0.6343692,80.38897
0.7229432,79.74465
0.8532155,83.7051
0.8950819,80.951195
0.9728406,84.84069
1.0822197,88.52747
1.0830721,86.61513
1.2106576,92.778
1.1723324,94.39529
1.2659332,95.47811
1.3198013,98.581764
1.4508549,101.43875
1.3749906,101.35979
1.3944004,101.72823
1.5070882,100.29323
1.4970325,105.923065
1.6312189,106.76822
1.6502669,106.03231
1.5489416,105.87623
1.6328708,107.715164
1.6368564,105.36922
1.7037667,109.5962
1.6287435,113.713806
1.6195601,107.9566
1.7190078,113.35859
1.6934059,112.140594
1.6836332,116.10085
1.6756403,111.59589
1.6299243,113.24802
1.6076844,114.89024
1.5924842,113.54232
1.5915881,111.964134
1.4992266,114.9058
1.5951555,116.10666
1.5647627,111.14077
1.443057,110.004555
1.521033,112.81476
1.4975187,109.91466
1.499859,118.30263
1.3947352,110.64257
1.4036726,112.54696
1.3597112,103.077255
1.3089736,110.78447
1.3963757,103.97654
1.2857945,106.35093
1.3328885,102.56166
1.2772951,104.90958
1.2810022,100.15869
1.2586048,95.18334
1.3006778,100.655754
1.3152404,100.30433
1.2796755,95.57795
1.3167593,95.4317
1.164428,92.53354
1.2945778,98.747856
1.3014792,97.64166
1.278085,91.87046
1.242497,93.72608
1.2484453,88.01772
1.1189251,87.97574
1.2428895,91.16006
1.1822429,89.20502
1.1304935,88.98604
1.1195467,85.690125
1.1455998,83.75061
1.0782537,77.182106
1.0173879,82.02098
1.0635046,82.42704
0.9641677,80.257484
0.8882811,79.8982
0.94204265,78.66737
0.83866465,77.51942
0.8492997,75.52026
0.7644026,75.52475
0.8316527,72.742836
0.84831715,73.56312
0.7857385,73.23817
0.85315853,68.41721
0.8376118,70.045166
0.8932597,69.23086
0.8512641,68.36189
0.8563189,66.49288
0.9124394,68.9211
0.742366,66.094795
0.84495443,64.21712
0.81419736,66.89207
0.7916985,63.148064
0.8034018,62.752777
0.70750815,62.619877
0.70066196,59.27048
0.74537194,63.927967
0.71718174,58.38004
0.7604445,62.069542
0.6813647,62.005768
0.57067114,59.550575
0.6574149,60.102024
0.6948321,64.72011
0.6049095,62.59927
0.42808443,60.369087
0.47391027,60.563595
0.510772,61.162636
0.49728426,63.64813
0.425592,58.53518
0.5026147,66.30655
0.5376347,65.343796
0.55719674,69.38523
0.599685,70.80551
0.51977366,67.13058
0.66853124,67.87509
0.7336414,75.3914
0.73675865,72.8726
0.7790462,74.77517
0.9209503,76.06121
1.0350652,75.68196
1.019852,82.64375
1.152714,82.72516
1.1805971,82.242905
1.256173,84.425095
1.3154001,86.581505
1.2911973,89.02958
1.5354908,92.414116
1.503462,92.21506
1.5587659,98.90984
1.5879275,91.9131
1.756876,94.39574
1.8179115,98.878746
1.7888026,100.84746
1.7381752,104.37235
1.8263264,105.13754
1.8789073,105.88882
1.9836674,101.01634
1.935905,107.52045
1.9197832,110.058105
1.9223104,107.762985
1.9444084,110.84229
2.018449,109.64586
1.9589359,111.768936
1.9359674,111.91605
2.0158513,114.49159
2.0066195,116.82986
1.928011,113.437004
2.006691,111.90698
1.9111246,112.47115
2.0052857,114.99205
1.9453982,114.10977
1.8935499,116.095116
1.8133714,114.781624
1.8488587,114.678505
1.7765566,109.24908
1.7751724,108.55108
1.7054484,108.57504
1.7574803,106.82075
1.6936466,110.06831
1.6161305,107.30272
1.6635715,104.539055
1.6863874,108.13618
1.5982027,103.60612
1.5701183,107.686905
1.6157539,104.11205
1.6062686,104.4225
1.6672914,99.373695
1.4536576,98.43986
1.5014483,99.088524
1.5188074,96.40018
1.5411679,96.80018
1.5411566,97.16007
1.4459175,96.7964
1.4469229,92.59497
1.4445105,93.60666
1.39485,91.44648
1.4714258,91.02571
1.4131268,94.53131
1.434864,86.17089
1.4540836,87.71112
1.3684123,88.97986
1.3740861,85.46731
1.290089,85.74053
1.2974377,84.08265
1.2371566,82.34256
1.174438,83.42832
1.2118695,77.91018
1.1078143,83.050995
1.1193831,80.27649
1.0001366,79.11731
1.086077,76.50626
0.9857725,78.362076
1.0122844,73.80657
1.0212866,77.232025
0.89375246,71.5744
0.9697693,76.318
0.935308,71.98793
0.8812725,72.55629
0.901673,69.51918
0.8453648,66.24729
0.78772044,63.590927
0.87794805,64.788895
0.89797723,62.949
0.92636806,68.084694
0.9191452,62.45091
0.89694136,62.408348
0.82304895,69.113174
0.8944237,60.602303
0.84272,57.49437
0.76818824,62.261963
0.82609826,59.101776
0.7635786,65.00999
0.6488396,61.006905
0.6546267,57.600704
0.6695637,58.599968
0.6040216,61.821404
0.6111025,57.91025
0.55590785,62.7734
0.56456274,60.10151
0.50526315,62.849266
0.43764347,62.698982
0.46049145,62.59838
0.42761737,61.939106
0.45772424,68.9475
0.45840225,65.58723
0.5025945,67.537155
0.62463766,65.83935
0.5388041,66.68184
0.5485049,73.89961
0.5668906,71.44453
0.69793177,74.75542
0.73655856,76.90986
0.74583024,78.28353
0.9339075,76.32667
0.93800193,83.17663
1.1111243,84.18903
1.0909202,89.12696
1.2952406,83.314606
1.1906453,89.27443
1.3470272,92.95469
1.3144716,92.312805
1.5244832,90.53047
1.4693085,96.18882
1.5000019,93.58811
1.6331414,94.51191
1.6098393,95.8728
1.6341476,99.38789
1.6596875,105.24268
1.7456933,104.53045
1.6701237,103.341064
1.8169756,106.54262
1.8416638,109.24495
1.7123071,107.93514
1.7546898,110.88734
1.8000097,113.87385
1.740831,110.58492
1.8039881,114.59779
1.7727209,116.64375
1.6984516,113.02864
1.8247418,112.49022
1.681751,113.64024
1.7683941,112.53186
1.7346644,120.38389
1.6929331,119.66439
1.6763935,114.95992
1.6220529,115.64051
1.7034637,113.48304
1.5598224,109.617805
1.498906,109.8455
1.4978864,108.55979
1.5664926,107.13659
1.4299974,107.88526
1.3820632,114.59333
1.4675051,105.29734
1.4012916,104.375
1.2776766,102.12077
1.3010561,104.62361
1.3451713,103.0014
1.2316355,104.57963
1.2355484,104.52789
1.2909192,103.58897
1.2355669,98.26837
1.2131776,102.595505
1.2413756,95.92312
1.2081976,98.21055
1.1461254,95.91498
1.2509402,95.35611
1.1969819,94.47316
1.1895487,93.34579
1.2096499,89.960175
1.0486127,91.53987
1.117732,92.4178
1.135131,90.642654
1.0168544,88.148605
1.0334438,90.527855
0.955489,84.69273
0.9489493,85.17411
0.9303183,85.46441
0.8344075,83.46532
0.76606923,83.68247
0.8122447,81.04974
0.7807665,78.48598
0.7713387,79.82226
0.68790543,78.41963
0.72832966,77.78616
0.706014,76.137985
0.64520705,75.9805
0.5952981,69.02553
0.5361018,73.616516
0.57522607,67.54467
0.5448164,71.45235
0.5181561,73.58887
0.53172415,71.96639
0.48870218,70.6002
0.53568506,69.98453
0.47869998,69.26655
0.45908675,65.062836
0.47977,64.524315
0.48228085,62.61996
0.43940786,65.60785
0.35129204,65.45971
0.46307576,64.89696
0.47483915,62.374268
0.3916749,68.52147
0.35140017,58.507534
0.31514674,61.977272
0.27834606,62.85519
0.20157902,64.604
0.26752594,61.67368
0.29214352,57.64707
0.133168,61.997086
0.15154289,61.030846
0.020475663,63.697254
0.07642821,62.131573
-0.031309657,66.121796
0.046252925,61.945957
0.014753682,65.44473
0.07262753,61.483597
0.11815903,65.644745
0.16599822,67.29434
0.117536716,72.92846
0.19445176,66.598
0.20417489,72.1048
0.28632817,73.49132
0.28938383,71.74503
0.40521544,77.74403
0.35296592,75.70048
0.5236573,77.88528
0.52786744,78.68284
0.7157952,82.11206
0.7557084,85.07923
0.79485834,88.01173
0.8866709,85.373764
0.8154923,88.67154
1.051895,89.416374
1.0014623,98.86847
1.0606756,93.90265
1.0768561,96.435104
1.1656883,96.22653
1.1776052,100.77069
1.252407,104.89545
1.3034413,101.18288
1.2944242,107.73555
1.4043247,104.39757
1.3313222,105.55591
1.4303786,111.0612
1.3685555,106.840004
1.3691247,112.921486
1.4525366,111.09938
1.4343952,113.94123
1.3723487,116.80336
1.4811506,112.91655
1.3597435,114.580986
1.38136,114.22174
1.3263413,113.31171
1.445137,116.17145
1.2727149,113.20629
1.2683613,111.64759
1.325759,113.447395
1.3154854,111.260574
1.2194972,114.34598
1.2310073,111.19736
1.3063862,108.46165
1.2114316,114.147026
1.095421,112.38379
1.1321241,109.25723
1.0948833,110.50923
1.0759604,107.137634
1.1038911,104.94443
1.0861676,104.48905
1.0068538,106.75508
1.0352958,106.63301
0.9564222,105.77392
0.93161255,102.455315
0.9275214,99.48295
0.9412997,99.407234
0.8976348,96.87093
0.8816818,98.01811
0.94675606,98.38501
0.91921157,96.69725
0.85375255,94.271706
0.8926297,93.6378
0.8466262,94.14074
0.8608953,93.19321
0.7936166,92.60237
0.82077104,93.19011
0.77701837,91.425095
0.6725569,89.33451
0.76965404,85.51024
0.71274525,86.387184
0.6418455,87.67752
0.6591568,81.99662
0.5544628,84.01073
0.5978263,82.3717
0.58629197,81.34392
0.58024704,80.05559
0.4952947,81.730095
0.4743193,80.81501
0.44889534,75.61257
0.36943337,78.12372
0.43413177,72.45149
0.4730928,73.92819
0.41082934,73.17091
0.417829,72.29003
0.32948974,68.650116
0.28642946,73.63061
0.42573822,70.49356
0.2740489,68.53333
0.38445818,62.79186
0.36150104,67.73404
0.34519705,65.38299
0.341015,67.53409
0.24936637,64.98629
0.31333184,63.280556
0.26949745,61.38539
0.34173042,55.11329
0.30679366,63.42738
0.22878003,59.26892
0.18327445,58.973488
0.18803371,59.425125
0.1755445,58.163883
0.16837655,58.161015
0.06958022,60.217087
0.09863847,60.49281
0.03270467,59.57585
0.063300565,60.88501
0.020574896,61.201336
-0.0037550053,58.847507
-0.0821279,65.8272
0.07852988,61.857334
-0.014922514,67.52028
-0.03686669,64.62517
-0.006481335,63.411884
0.07592335,68.6999
0.08717014,72.697655
0.15096882,69.07155
0.18428667,70.60079
0.2944892,74.78097
0.2669182,75.9094
0.3145424,74.346634
0.4705014,76.53178
0.52868944,79.05326
0.56019384,81.88417
0.6916357,86.18835
0.7240713,86.32443
0.81847835,89.972755
0.88682085,93.97525
0.9756424,89.24876
1.0673848,93.32773
1.1635419,99.38221
1.1906415,95.25294
1.1975931,98.14335
1.2546312,98.87337
1.2601484,99.32353
1.335992,98.077484
1.4166324,104.19689
1.4972637,104.18153
1.442126,108.96131
1.4698056,103.478775
1.4747494,107.14028
1.4275918,108.82633
1.452696,108.61111
1.4694582,108.50079
1.5110123,109.62331
1.4786454,113.82096
1.4680648,114.30715
1.4451555,111.51022
1.469552,116.46642
1.4996339,114.22677
1.4368827,114.07065
1.4254208,116.710236
1.4421505,115.15255
1.4154139,117.63282
1.4608437,116.70702
1.3879318,113.56056
1.3433774,110.10302
1.3678077,108.86582
1.3226849,111.45041
1.2447152,112.43179
1.2349176,109.38438
1.2435247,110.636986
1.2236761,103.80888
1.1805153,106.36152
1.1509317,106.359024
1.2079426,104.816895
1.1930209,102.9727
1.1819655,103.67069
1.1158069,104.65345
1.1067009,105.370056
1.1525792,97.74925
1.1917034,97.42713
1.0901434,99.09885
1.1041104,99.124664
1.12185,94.29184
1.0353596,94.01347
1.1055355,94.69054
1.1013429,92.51867
1.1035295,92.39118
0.9816123,92.41686
1.0781721,92.28799
1.0347855,90.28037
1.07966,87.2584
0.9878973,88.93947
0.9881437,87.253494
0.98846585,79.73274
0.94981295,83.41773
0.8828355,82.64875
0.8670812,79.460075
0.78286874,78.144135
0.8346703,81.199844
0.7525407,80.842606
0.81380135,80.75569
0.6985309,74.30395
0.6940366,78.4616
0.66827,77.18358
0.65100235,74.22499
0.6718983,75.82181
0.6739312,71.59029
0.6876821,70.37837
0.6545587,67.06622
0.7257421,68.69294
0.57550526,65.770744
0.68359977,67.9862
0.66950727,68.70377
0.7288829,62.346706
0.6240764,65.51573
0.62334484,66.01528
0.6206553,60.477016
0.6184435,61.687325
0.6109094,61.728127
0.5843116,62.471493
0.61606705,64.18496
0.5731751,60.907204
0.57488024,59.235493
0.47592923,58.2791
0.47703367,64.26256
0.43116203,58.04934
0.4117893,59.618374
0.29254812,60.49114
0.3844147,63.926422
0.314124,63.735287
0.44492236,63.063614
0.3329975,65.399704
0.43002692,62.457035
0.33993548,65.147575
0.3478452,65.220116
0.31208503,68.59841
0.5256061,68.41459
0.4779828,68.315895
0.54065347,70.69891
0.6545208,74.81938
0.6576951,76.31268
0.703806,73.67264
0.7166395,78.38664
0.8926462,79.793274
0.8783464,82.24902
0.98246396,83.16402
1.0339152,83.542114
1.1266589,85.54477
1.2408935,87.914085
1.3962454,89.57826
1.4011765,94.00003
1.4804541,99.41437
1.4575279,97.06166
1.651617,95.22053
1.6582453,98.60255
1.7263386,96.919365
1.7949941,103.40268
1.7266062,102.007996
1.7913142,105.66574
1.7913315,102.85062
1.8697783,109.20497
1.818679,109.2154
1.8860204,111.32813
1.7796582,108.097206
1.8747734,113.79214
1.8668478,111.28397
1.9094908,112.04572
1.9259604,113.47664
1.8657337,111.407326
1.8489364,112.304474
1.8959953,116.860275
1.8570662,114.92538
1.8032454,113.816765
1.8655653,111.91761
1.8422794,114.68343
1.7929306,112.877686
1.8795947,110.181946
1.7864105,104.31128
1.7625164,110.13672
1.7193011,110.27227
1.7515519,107.14516
1.6948986,106.04019
1.7050941,109.23702
1.6114821,107.69078
1.6203595,106.05268
1.5792485,105.46055
1.587171,108.7417
1.560512,104.715965
1.5420784,104.67142
1.4645836,101.075066
1.5833976,98.8385
1.483655,102.264015
1.4932147,99.38952
1.4470749,97.8771
1.3570765,97.09119
1.4638457,97.88365
1.4624897,91.013306
1.4276292,93.21898
1.4333162,93.65384
1.4874241,92.047646
1.4889205,91.15713
1.4434087,86.79091
1.3748316,89.75774
1.4593604,86.07014
1.2887229,81.335266
1.3552248,85.0476
1.274499,86.17115
1.231042,83.31513
1.2157305,80.07638
1.1854254,80.43057
1.176004,78.631004
1.1891338,78.17451
1.1060166,80.22734
1.138859,80.118095
1.1004205,80.22831
0.9914684,78.14859
0.97049606,76.07782
1.0057293,74.801384
0.9976416,73.51672
0.8742133,71.7787
0.8816766,70.82595
0.89717144,66.12391
0.9054905,65.85759
0.9433399,69.36732
0.92348474,66.35936
0.93483615,67.08725
0.9723497,67.43046
0.86524224,65.32581
0.8951525,59.119102
0.91334265,65.599464
0.90181625,64.81661
0.8876852,62.95931
0.85578346,62.653763
0.7185324,62.83148
0.88464874,59.49483
0.8223099,63.757683
0.7440179,58.45398
0.7381611,59.762142
0.5767095,63.529934
0.7063781,61.34064
0.66008145,58.1546
0.6731921,62.63722
0.5991786,63.440086
0.62398773,62.6491
0.5365195,65.410835
0.56577814,67.89093
0.44988054,61.67503
0.5171498,66.283485
0.47544608,66.75546
0.6400978,69.19611
0.7014654,70.06927
0.65329784,71.35748
0.69304127,73.98308
0.75431937,68.53932
0.8554049,73.79273
0.9294699,77.02389
0.9770507,78.984055
1.0499612,77.09552
1.0873322,78.643364
1.1567286,84.14803
1.237433,85.678154
1.2859213,84.979034
1.3447282,89.32648
1.5155199,85.20581
1.4391338,91.9588
1.6417882,91.659935
1.6080457,94.52078
1.6779429,102.50504
1.7254776,99.641136
1.7694918,101.269035
1.7670685,102.076126
1.8089839,104.0719
1.802965,103.13878
1.9374481,104.27263
1.9155265,108.07592
1.8791493,110.00442
1.922257,109.69911
1.9085493,112.29695
1.9111606,110.810074
1.9030073,111.124275
1.8060434,112.16113
1.9127407,114.078575
1.8797015,115.212814
1.8649035,114.49855
1.8521183,115.79984
1.8974565,115.94191
1.7477192,110.860725
1.7407504,111.75106
1.78239,112.562904
1.7166374,113.753525
1.7608333,112.58165
1.7071396,109.31615
1.7774359,108.813835
1.6708864,112.29283
1.5541904,110.49042
1.5771058,112.573845
1.6570696,108.58281
1.5874234,106.88073
1.5332888,104.068306
1.5726886,104.98689
1.4578108,104.31858
1.457793,104.62716
1.4422939,99.25183
1.3904021,101.02417
1.4180719,102.52563
1.3265404,97.62193
1.444992,99.81268
1.3952749,97.66309
1.3421263,96.06067
1.3538363,99.24691
1.333386,95.16327
1.2881014,92.98913
1.3075441,93.94651
1.292226,90.89011
1.2937433,93.02926
1.2554598,89.22058
1.2751989,90.991425
1.1356314,88.71065
1.1896656,87.48443
1.1696643,86.96371
1.0803518,82.51208
1.0962232,82.61364
0.95096207,81.245995
1.0214258,82.66523
0.954033,86.216446
0.9261562,77.58953
0.8826447,79.541916
0.80800724,77.48697
0.8702087,78.61314
0.77397996,77.43752
0.7528363,74.732956
0.74857384,73.61709
0.7903414,69.20095
0.71523076,70.44215
0.6783606,70.13226
0.74353224,73.349205
0.6867994,69.099
0.6455939,70.893684
0.61924356,69.868324
0.6226586,65.482086
0.6792586,62.52388
0.6866734,68.26412
0.7029925,62.195686
0.66537416,63.2921
0.6276195,61.43238
0.6871358,61.071655
0.628251,59.785065
0.5382269,62.505524
0.54773563,62.293926
0.45047173,63.366486
0.471241,63.793087
0.41053548,60.96874
0.36318967,64.25847
0.35959598,61.888966
0.35142744,61.72202
0.29025924,60.479366
0.24637614,62.53681
0.28350753,58.799038
0.20380868,59.3239
0.21532139,60.194485
0.26014414,63.99413
0.22422001,70.31497
0.19979551,67.49473
0.2978978,67.18054
0.23754261,69.22089
0.30984908,72.07532
0.35813817,71.39695
0.43999097,71.7869
0.48949835,74.941154
0.5371344,80.17432
0.614536,79.129265
0.64737034,78.05632
0.8032499,81.547676
0.83921593,81.22153
0.92480296,85.27528
1.0315226,86.81546
1.0710912,84.85708
1.0936058,88.26013
1.2256715,92.39484
1.1717039,92.51767
1.2956709,97.25443
1.323995,101.47821
1.3513448,100.0875
1.3214828,97.99527
1.3870019,103.05062
1.4744992,104.717865
1.4332541,108.58669
1.4637306,106.50831
1.5329762,107.594406
1.5838678,107.737656
1.5281863,106.389595
1.5041564,112.00101
1.5082986,113.04276
1.5543907,111.24398
1.4613235,114.09229
1.5120281,113.90504
1.5632099,110.299
1.4921349,112.91166
1.4737563,114.78148
1.5201861,112.183426
1.4661661,113.687614
1.438893,112.61296
1.3784281,112.9113
1.3470086,110.248634
1.3794351,111.490486
1.3734207,110.59106
1.3221077,108.805176
1.1942883,111.294334
1.2406391,109.17622
1.1869123,107.916306
1.2214081,109.60516
1.1308097,109.684204
1.1358386,102.42031
1.139141,104.0462
1.0498464,104.06724
1.0676776,104.928535
1.0000104,103.728676
1.065867,103.05767
1.0343984,100.1465
1.0525461,100.10311
1.0493389,99.3356
0.91497844,99.85967
0.9517716,98.656975
0.95340675,98.32141
0.9631376,92.48742
0.9706393,92.21062
0.9322828,89.07278
0.86681986,93.96345
0.83446276,91.656555
0.85370344,87.298836
0.8487732,85.45636
0.8576179,85.40814
0.76227236,89.24008
0.75105983,82.21867
0.7418116,86.06204
0.6439196,84.206825
0.6836641,80.98951
0.6904314,78.839905
0.5350729,82.45106
0.64437383,76.85075
0.4965676,78.48842
0.5448536,78.35673
0.49525636,75.07048
0.39392117,73.688194
0.41288918,68.75141
0.45254368,72.61987
0.31743726,69.67535
0.31090587,68.34667
0.3504667,69.01439
0.31911793,70.79399
0.32623568,69.494934
0.38005498,70.949135
0.33439252,63.909004
0.32680964,66.85821
0.33021644,66.70561
0.354204,66.50675
0.3182702,64.80063
0.21212097,61.955124
0.33117822,61.933712
0.27706018,61.509174
0.23640871,64.53178
0.24203931,62.98026
0.25948444,63.54549
0.18169583,60.775043
0.12627338,54.694138
0.12782565,62.36326
0.084606834,61.95712
0.063490994,63.58106
0.095037006,62.628803
-0.042320985,65.386024
0.038116515,61.90136
0.009097564,67.419846
-0.082454085,58.457912
-0.12908779,64.5587
-0.016119651,63.040436
-0.034420747,67.3535
0.0030656864,67.507225
0.008544697,70.18198
0.06773184,68.90535
0.13736616,71.17593
0.11337111,75.929375
0.22832498,77.53357
0.24208362,75.049095
0.28500658,74.92537
0.4453606,83.36285
0.43603173,80.74281
0.58609414,85.10844
0.62126434,84.8526
0.7347783,82.472855
0.73811203,88.631355
0.9201974,91.044
0.9181842,90.12576
1.0265901,88.47425
1.0355625,96.731674
1.0319173,97.998276
1.1145576,97.20999
1.1691003,99.50506
1.2930993,104.52584
1.2569555,99.86458
1.3671945,107.0284
1.2653651,101.257904
1.3334297,107.86987
1.388786,108.497475
1.3464029,109.10392
1.3312894,111.91246
1.3797053,107.52149
1.4248921,116.10961
1.443871,115.28176
1.3738796,111.870514
1.3737494,113.59695
1.4783726,113.409195
1.3937467,111.83678
1.3649828,115.64237
1.3204007,111.93265
1.3751328,113.89111
1.2903812,113.98409
1.2797369,104.867584
1.3014444,111.35163
1.2661284,111.52703
1.2784861,108.06655
1.243433,111.53452
1.2034951,109.996155
1.1674403,112.185196
1.1846766,108.17962
1.1192249,109.54561
1.0679859,106.27924
1.0640162,108.8606
1.0527107,105.355316
1.0719385,106.08834
1.0243849,105.37705
1.062425,102.16933
1.0908227,102.49266
1.0474092,102.67568
1.0133725,98.43209
0.8913319,95.04944
0.98988205,98.11411
1.010208,94.42149
0.9489434,94.8029
1.0558921,92.53929
0.9743632,90.64892
0.9633671,89.99702
0.95568424,91.61442
0.90243,92.47258
0.9190315,84.83064
0.9883864,87.68461
0.85581285,91.15407
0.7954735,85.34289
0.8120276,82.85495
0.78934014,86.008385
0.7325465,84.42212
0.6751135,78.04104
0.66676694,82.36975
0.59585285,82.19159
0.640635,80.15334
0.5984946,76.29452
0.5824675,77.90005
0.54638845,77.20096
0.6003473,72.7237
0.46171176,75.26209
0.5086486,71.33056
0.5462835,71.20921
0.5016225,69.0804
0.5041603,70.520226
0.4709892,72.62128
0.5125998,62.185265
0.4833812,67.192795
0.5148913,68.26039
0.49253082,65.28386
0.48572466,69.13796
0.39142242,71.49726
0.47778162,63.98106
0.47194606,61.76212
0.4859711,62.492634
0.42647582,59.85438
0.49498808,58.83728
0.47302443,58.625088
0.32282612,61.683212
0.3011544,64.16445
0.30153194,61.196045
0.3081881,60.120255
0.27198714,61.50034
0.24132134,61.01439
0.21866435,62.706917
0.21176936,61.905163
0.2058102,62.688
0.14187792,62.01928
0.20651576,63.881573
0.12423277,65.11985
0.1811184,64.97412
0.22130027,66.664246
0.28187898,64.477776
0.32713702,65.6697
0.30637977,71.81769
0.39554095,71.07777
0.4972452,68.26811
0.50376683,74.53891
0.4948334,76.68844
0.63944274,80.766716
0.7034576,79.76329
0.7992656,77.56501
0.895327,82.083496
0.91722023,85.40422
1.0906454,87.22366
1.0995746,84.528854
1.1387678,90.619316
1.2622446,93.31655
1.3140987,95.41653
1.3305577,95.62065
1.4428201,97.0548
1.412075,96.11244
1.4484011,100.38478
1.5098886,102.78584
1.6197805,101.57049
1.6701493,103.99444
1.6529813,107.15297
1.639434,105.58451
1.7281882,110.04403
1.6985806,106.72455
1.751878,114.78414
1.6550584,111.99079
1.683062,111.17133
1.7605741,110.24752
1.703561,107.937004
1.8233474,117.12477
1.7739463,113.04785
1.7239808,113.7464
1.6874441,116.79955
1.6743153,111.54686
1.6563473,117.37729
1.682232,112.8516
1.6543281,118.6477
1.6399161,110.872475
1.6097559,111.3833
1.618037,110.18774
1.6054322,113.218
1.5855055,108.56798
1.5366751,108.50635
1.5542253,104.53724
1.561262,101.55881
1.5030731,105.90387
1.423619,104.043564
1.5506955,105.56155
1.3464386,101.93836
1.3851146,105.287605
1.3773746,100.71445
1.4235781,103.689415
1.3940243,96.62609
1.4601597,101.42785
1.369257,96.06702
1.3899689,94.8785
1.289157,100.537704
1.4031368,91.37673
1.3167933,91.61668
1.3593254,93.516624
1.238961,94.86005
1.3088608,91.13158
1.3094414,91.482254
1.319813,90.844536
1.2892957,87.82395
1.215597,88.17305
1.199522,88.62021
1.1587771,84.38355
1.0905201,85.522156
1.0298089,83.046455
1.0087916,81.747536
0.9785408,75.63701
1.0506883,79.61279
0.87814903,80.847145
1.0413728,75.12395
0.8486926,79.94432
0.97194934,71.57527
0.8772284,71.8596
0.9570315,68.20247
0.90858984,71.12866
0.92396265,68.79002
0.87036055,70.12064
0.89145124,69.161766
0.87555945,67.127686
0.79082626,68.54439
0.9412984,69.35819
0.8312855,61.335777
0.8475609,68.53895
0.87030935,64.912865
0.9081568,65.24342
0.8277935,66.063835
0.893876,63.275486
0.8796208,63.16682
0.7606478,62.50444
0.7981105,57.394283
0.7979505,62.702427
0.81694645,65.52187
0.7108683,63.561974
0.68797576,59.89416
0.6154682,59.800575
0.61036867,60.882183
0.6428356,63.299316
0.62105185,55.35578
0.5138358,64.3059
0.6191949,61.497242
0.54587805,63.16019
0.4327204,66.784645
0.48075268,63.03563
0.6146317,67.55987
0.56087625,64.96731
0.5786226,70.84136
0.6556657,69.14585
0.65918696,70.291336
0.6992564,73.17205
0.73278403,76.57525
0.8401167,73.73125
0.8860381,75.27242
0.9971512,76.39295
1.0227331,78.320984
1.1534073,78.63483
1.1619331,83.795135
1.3262453,86.21925
1.4646981,82.752525
1.5018326,86.94151
1.428706,88.898796
1.6390877,92.74091
1.6415784,99.73869
1.7544465,99.14251
1.8306984,101.36726
1.7471321,100.31177
1.8603516,102.0247
1.8094554,102.049095
1.8570535,100.68207
1.8805516,105.82829
1.907385,106.134514
1.9135342,106.41124
1.9809852,110.00691
1.9360069,113.60403
1.9298937,113.09437
1.9976587,111.731636
1.9542066,110.06548
1.9947876,114.49978
2.0079987,113.80638
1.9086642,112.31642
1.9038719,112.76221
1.8837187,112.71367
1.9547907,112.97013
1.9737561,118.31274
1.8841177,110.5152
1.8360357,115.56382
1.9435425,112.40736
1.8488358,115.76966
1.8166372,111.6902
1.762075,111.50415
1.7039088,113.579285
1.7028743,109.70548
1.7932209,107.15271
1.6999438,108.11875
1.6288288,107.98894
1.6556989,108.800255
1.6280087,101.93427
1.6082864,101.20336
1.560496,102.731964
1.5344288,104.54745
1.5275851,104.40236
1.5413547,100.99988
1.4843389,101.465775
1.543996,99.85879
1.5134482,94.792564
1.4285169,95.707085
1.3825614,93.21361
1.4582462,97.87069
1.4406291,96.090454
1.3785217,87.020805
1.3780229,93.704445
1.4420867,88.86253
1.3399073,90.05282
1.3597993,89.51921
1.3765703,88.6467
1.2400224,90.382324
1.3078079,85.03608
1.1850466,87.529274
1.2430216,82.91597
1.0881754,86.00805
1.0743376,85.40991
1.1002564,78.98653
1.0654821,82.349075
1.027083,77.1369
0.98640925,76.533356
0.9511745,73.8237
0.9428232,71.46277
0.95926017,79.698524
0.8535989,73.87102
0.86405426,76.19505
0.86457765,71.6955
0.8160889,67.48655
0.8098576,71.32529
0.84757096,69.23329
0.84685767,70.588196
0.77601606,67.37662
0.892071,67.2331
0.94145733,65.8166
0.773471,64.42942
0.7969353,63.365128
0.7939751,66.382866
0.7662461,60.916397
0.64300966,62.505035
0.6739996,63.496082
0.74838805,55.741463
0.70898867,60.28314
0.5917324,61.732906
0.5757292,61.892914
0.5832209,60.52068
0.5685785,56.263855
0.581488,62.712337
0.50653344,58.701427
0.37162322,57.8777
0.49292046,62.10889
0.45029187,64.689285
0.3335015,64.52531
0.40714607,66.29639
0.42099333,64.46197
0.44121006,67.088905
0.44884586,69.362305
0.40608096,67.1701
0.51755106,69.54796
0.5766244,69.12958
0.58072186,69.35068
0.63829964,76.10298
0.7262793,75.04275
0.7573137,75.78731
0.7932271,81.155464
0.93002725,82.51396
1.04816,79.01918
1.0286683,86.65033
1.184045,85.5475
1.1553961,89.73964
1.1770699,87.142166
1.2543551,90.184235
1.4543855,90.92198
1.4815863,97.0793
1.4756032,97.00441
1.4767722,98.6435
1.6151544,99.9935
1.5321302,99.66945
1.6492902,106.25176
1.6449167,104.3665
1.6139665,102.020256
1.7043089,109.385445
1.6252692,107.77007
1.6712523,110.45806
1.7217077,108.632675
1.6902746,110.43454
1.7198802,112.785965
1.6937256,108.233246
1.714589,116.37723
1.6856619,112.85472
1.6168456,109.68345
1.6493887,117.68507
1.7059946,112.14016
1.5988086,115.191605
1.5982887,108.86212
1.560677,109.905266
1.4780384,115.13968
1.5137843,114.6667
1.5184102,111.99241
1.5257229,112.844345
1.3701351,112.58599
1.3615813,113.23445
1.4132122,108.87841
1.3282789,108.88379
1.3448709,105.930275
1.3074428,107.69401
1.2359228,111.208336
1.180753,105.6961
1.1837529,106.57843
1.1768622,103.858
1.2283618,102.56005
1.1639189,98.23974
1.2369642,97.886284
1.2127981,99.29064
1.1987739,97.93874
1.1467065,91.700584
1.0201648,97.40182
1.0868999,91.249
1.0910187,91.950645
1.0330237,92.33876
1.031855,89.96468
1.0310142,91.266884
1.0725758,90.24654
0.9225264,88.42851
0.92462337,89.84039
0.9682209,87.890305
0.8937318,83.78293
0.8180676,87.70185
0.7317077,82.77688
0.7992946,88.7663
0.66332114,77.2835
0.747034,81.01306
0.66396445,80.1467
0.6946918,77.693794
0.6059792,77.147064
0.6192392,78.74763
0.560069,78.44717
0.51528513,74.94843
0.423276,73.73349
0.53861165,71.83006
0.46118155,70.44655
0.43267837,74.06254
0.45824477,69.85512
0.40152842,72.63637
0.42601004,68.64675
0.48830456,68.04093
0.38140678,66.40665
0.4259676,67.41546
0.4258808,63.725483
0.49459556,63.908924
0.42958063,60.398006
0.40508837,62.344063
0.41927323,62.594418
0.3315961,63.091408
0.4099393,62.65404
0.32923758,60.5141
0.28094134,59.404434
0.24805036,62.532387
0.23679242,59.788055
0.19787334,58.09137
0.101095766,61.507164
0.08488102,65.09955
0.020727506,65.83332
0.048860755,59.45605
0.07080804,63.119366
-0.021937862,63.538116
-0.011304796,63.313137
0.031269513,65.31456
-0.007560103,64.648926
0.09582847,67.9616
0.06792892,70.026566
0.09574715,67.97544
0.097996846,70.727585
0.17864338,72.8347
0.1975703,77.59517
0.43989563,75.53247
0.33582726,74.93178
0.47475496,79.61934
0.49189085,76.69258
0.52012056,83.42698
0.6112772,83.59888
0.6819408,86.11389
0.8389421,89.64355
0.7984931,91.86721
0.883225,93.139496
0.9648084,89.0188
1.0865597,92.24356
1.1124555,96.48346
1.1480495,99.126175
1.1373913,101.97251
1.2935838,100.40564
1.2261391,97.30092
1.3430495,104.33984
1.2969755,109.70534
1.3473419,107.67212
1.416963,107.46153
1.3856361,107.21947
1.3581865,108.80326
1.4194411,113.72121
1.4091882,108.94221
1.4413964,111.43398
1.3796074,114.251366
1.3903648,113.54961
1.3375305,116.00315
1.3893892,112.65759
1.3177432,112.36009
1.2740455,113.30874
1.3715081,112.09436
1.3014461,110.78289
1.324622,115.80251
1.3139359,114.3486
1.2253911,109.19393
1.2507201,111.315674
1.1610061,114.17851
1.1466786,112.00722
1.1120719,106.22971
1.0851223,113.56594
1.0785728,107.53021
1.0389313,103.68625
1.1053545,106.475174
1.0724132,102.746185
1.0143224,106.667816
1.1009377,106.08608
0.991168,101.59738
0.9681282,102.64886
0.87395775,98.97065
0.9009028,103.42368
1.0037183,96.21838
0.9007914,97.22141
0.8820937,99.64722
0.8968896,96.55182
0.9028074,99.06396
0.8963702,92.62594
0.87600857,93.36084
0.82390875,95.4244
0.8381966,96.415855
0.81600827,86.27404
0.85176337,89.18313
0.77743167,91.62934
0.7653212,87.94762
0.75195616,86.58744
0.65713364,86.06687
0.62447804,80.794945
0.62270457,83.57414
0.6249434,78.822235
0.51221216,78.30278
0.5284573,78.95235
0.5122828,79.3064
0.5596802,76.286644
0.45487544,72.39519
0.44842204,74.815674
0.3475448,75.42039
0.3776621,76.21933
0.32327965,74.88289
0.3758318,71.707634
0.42583853,67.42355
0.39412886,66.595345
0.36381218,66.82608
0.38762617,67.88537
0.33197457,66.55629
0.31911775,65.98054
0.31520143,66.894356
0.4258077,70.090675
0.3550516,64.71895
0.38728458,59.565884
0.32650608,60.548054
0.3782709,63.213047
0.3730496,65.028
0.24812797,59.329865
0.25208184,59.016922
0.20757979,61.431015
0.21834424,61.017265
0.15998548,65.10432
0.11625344,58.55349
0.09570092,59.51483
0.09104343,59.711094
-0.0074866903,59.718876
0.047637872,59.011463
0.029025057,65.251144
0.028572055,66.92345
0.046603996,67.49342
0.07076321,63.962574
0.061899085,64.256836
0.12959117,67.11962
0.047996923,69.929115
0.18151157,62.999187
0.23340705,69.22499
0.19616948,72.108315
0.3423909,70.58796
0.395114,76.99821
0.4523951,77.0813
0.5838876,76.80754
0.57196283,81.07145
0.69596523,84.77883
0.849828,80.854385
0.87195253,87.50141
0.8772626,85.76949
1.0176066,89.5356
1.048375,93.43425
1.1257061,90.97501
1.1569777,96.48851
1.1731093,96.53542
1.2757779,97.23252
1.3091409,101.36847
1.3298154,100.039604
1.4458326,104.74856
1.4043756,100.92164
1.4479079,103.56887
1.5806471,110.53419
1.5502008,108.80225
1.4674613,111.99148
1.5014505,109.820526
1.5439857,113.39333
1.5800751,113.849014
1.5921128,111.68161
1.6145024,117.1324
1.5749197,113.69432
1.5848858,112.74246
1.5503312,113.52496
1.5556319,115.4931
1.4637188,114.106384
1.5583702,113.48086
1.4941801,115.55056
1.4841278,113.37061
1.4908817,115.77746
1.3524152,111.698
1.4864584,114.161644
1.3751849,108.00658
1.3633347,107.852646
1.3577287,109.843185
1.4099513,104.652466
1.3299128,108.88868
1.3251641,109.54564
1.2733966,104.61596
1.2960519,102.44281
1.2728536,106.74654
1.2119583,103.29512
1.2458607,101.14272
1.3122306,98.47782
1.2535869,98.91133
1.2000794,97.90389
1.1930351,96.05856
1.1759446,98.624504
1.1813691,92.89758
1.1803792,100.06786
1.202868,91.953316
1.1501648,93.43656
1.1950301,93.66429
1.1735128,89.326096
1.108101,91.2048
1.1286858,95.19939
1.1391621,88.80486
1.0647708,85.255135
1.0817255,81.99754
1.044877,83.45064
1.0327228,85.08085
1.0034561,86.120575
0.946969,81.947235
0.98682386,81.6779
0.88444877,82.93493
0.9365236,77.91753
0.89649385,77.22068
0.80544305,74.42944
0.84603447,78.37971
0.6792227,75.86027
0.76924545,73.47588
0.7019305,70.43925
0.7152105,74.367775
0.72562534,69.90806
0.78650635,72.180756
0.79182214,68.176094
0.80622643,68.30025
0.7945095,68.2517
0.6705925,65.834946
0.81487715,66.71939
0.7114715,65.054245
0.808861,67.26093
0.767165,65.579666
0.7294129,63.565422
0.69807315,63.575195
0.7836861,59.06036
0.7579465,63.28069
0.67448515,60.314198
0.552624,61.617085
0.61119926,61.46821
0.5894561,62.586605
0.5654254,59.677742
0.50980973,59.423393
0.5678889,61.10247
0.40451685,62.28374
0.5809998,59.500267
0.45554948,61.14693
0.4092961,62.5266
0.46815437,61.327053
0.41038957,64.7049
0.44790334,65.62568
0.42490834,60.964676
0.42182866,66.170425
0.5458373,71.02664
0.56641346,71.29723
0.67321897,69.279366
0.71204334,73.299095
0.70447755,76.35524
0.886955,73.06793
0.9500091,76.42922
0.902357,78.83805
1.0640813,86.78297
1.1132071,80.84994
1.2030901,87.5613
1.2879766,86.50013
1.2624513,90.05931
1.4193952,94.4742
1.4060224,89.49167
1.6200904,91.18861
1.5624166,98.36212
1.6743484,98.24809
1.7391926,102.829
1.7563226,98.81464
1.7565293,101.10659
1.825244,106.55268
1.815264,102.09833
1.8493831,104.22996
1.8028944,107.13385
2.0212028,105.63487
1.8673271,107.70978
1.9135482,112.263954
1.9513061,112.78021
1.9189492,112.93889
1.9337792,111.032295
1.9414123,110.264915
1.9269978,114.91483
1.9590752,111.72887
1.9654316,114.83268
1.8923513,115.958916
1.9195789,110.83784
1.8637716,114.32902
1.838584,111.05083
1.8402852,109.33885
1.8205407,112.448746
1.7373565,106.81675
1.768494,110.64831
1.6481189,110.715614
1.7161583,111.28574
1.7439029,110.80379
1.6337057,110.888535
1.5796974,107.727715
1.5486499,107.72489
1.5657574,108.16511
1.603467,107.57485
1.5231574,105.98366
1.547135,98.18528
1.6024235,102.35663
1.5421394,103.38001
1.5344589,98.83009
1.5027603,101.27169
1.4940684,95.59284
1.5517478,96.40341
1.4654936,95.86507
1.4885403,96.91239
1.4977452,89.03307
1.5375566,93.06091
1.4134617,89.78787
1.4109658,88.99154
1.396108,90.37575
1.3921958,86.51311
1.4326837,87.319916
1.3119018,88.890076
1.310115,89.658875
1.2539517,83.32381
1.2906613,85.19199
1.2580049,87.01715
1.1663232,80.37953
1.1153406,83.55968
1.0440361,80.4902
1.0806111,78.36367
1.061567,80.97481
1.0071671,82.23623
1.0222318,75.39766
0.9953732,73.070595
0.8951345,76.81182
0.9950881,74.106346
0.9638305,72.46836
0.852146,68.16646
0.98420864,66.96037
0.94379085,68.942085
0.9503804,68.02743
0.9316537,70.866905
0.8980771,66.51456
0.9325283,67.28569
0.9169114,62.117836
0.81194186,68.51447
0.9158031,65.11772
0.82316935,61.480183
0.92520094,57.99293
0.8049318,63.919765
0.9114831,64.906006
0.82828003,60.397697
0.8016651,62.84746
0.69423425,62.467724
0.7433141,62.53122
0.6835331,59.065456
0.59823626,58.609898
0.6303706,56.75629
0.59618306,60.16799
0.5784343,63.3554
0.4995391,61.110092
0.5319096,62.535534
0.4843138,61.91048
0.46127242,67.30523
0.5460855,66.29526
0.4929061,67.73812
0.59541845,67.23429
0.63556665,65.6518
0.6513604,70.11443
0.65310055,72.02831
0.72073597,73.38086
0.725458,75.25923
0.87216866,77.99587
0.880479,78.27571
0.9854064,83.96721
1.0245508,81.99552
1.1638304,85.689835
1.2395285,90.13109
1.2519177,88.245445
1.3889623,87.37269
1.3996161,91.19943
1.5649405,93.51555
1.6169525,93.86934
1.5900828,99.06468
1.6573067,96.51515
1.6918077,100.102
1.6646066,99.35373
1.7174063,103.46595
1.7986773,105.24342
1.7908108,107.441574
1.7750269,105.93498
1.7582814,107.03819
1.7630173,110.68326
1.8213751,109.604065
1.8389636,110.91553
1.8304121,112.107346
1.7994612,112.770676
1.7608248,115.00485
1.898763,113.496254
1.7977061,112.27063
1.7816182,110.34436
1.77466,113.48554
1.7760795,114.55744
1.7764254,113.4822
1.7639648,110.06348
1.7366128,115.53086
1.7512542,111.63009
1.644261,111.76134
1.7531582,111.187874
1.5938478,112.76206
1.584551,113.943825
1.6394904,107.20453
1.4896586,110.85705
1.506352,107.401
1.5376819,107.53218
1.4427813,111.92144
1.4824708,109.56519
1.4212013,104.86817
1.3233105,102.94031
1.3607887,107.18507
1.3696529,103.63017
1.2441278,105.08373
1.3277663,98.06154
1.272464,97.152306
1.2932793,98.03515
1.2971289,94.7335
1.2847042,100.301636
1.2595657,94.67037
1.2275134,90.82341
1.248191,91.25621
1.1487143,92.13507
1.2431568,89.40006
1.1444596,88.40075
1.1145737,89.191055
1.0380709,88.15083
1.100005,85.03185
1.078358,88.706924
1.1520754,82.315025
0.94388115,82.13033
0.9623973,88.88665
0.8407975,82.08934
0.8555964,75.79234
0.83599764,79.186295
0.8604532,83.45316
0.7410972,77.13382
0.7184114,74.30568
0.7497543,73.08528
0.62758785,71.90861
0.6168261,73.46912
0.7365159,70.041046
0.5818443,69.76323
0.63267165,72.63102
0.6158905,70.60702
0.5688787,64.031425
0.70636547,63.0714
0.62049806,63.874283
0.569288,65.751945
0.519505,64.54896
0.51911414,63.912434
0.539833,61.064693
0.54972726,64.69742
0.550888,62.309032
0.49938953,61.838303
0.48555169,58.264767
0.46594167,57.433434
0.43112552,61.769825
0.43301666,60.044434
0.36882007,61.073288
0.38791594,57.78254
0.2519502,61.16919
0.36074868,58.381107
0.28455162,62.103806
0.2175461,61.200626
0.17671624,59.250458
0.14155501,61.6503
0.12488623,60.612354
0.0431334,68.08538
0.13477156,61.558083
0.10696786,69.31821
0.15163083,65.8042
0.16938221,69.16007
0.17914072,72.37573
0.20249091,71.49006
0.31422,74.34314
0.4084726,73.68299
0.48147252,71.49585
0.5052387,78.96958
0.6262989,78.211296
0.625964,80.65523
0.7207701,82.90154
0.832615,88.34775
0.8543535,83.398834
0.8903598,90.976204
0.997331,90.91945
1.0358982,91.1632
1.0271232,90.774315
1.1254185,94.15622
1.2180372,94.16196
1.3738242,97.892746
1.3030714,99.95698
1.3052583,102.37553
1.3517468,103.72834
1.3304359,104.26844
1.3844641,108.662445
1.5246974,106.14395
1.3624027,110.10746
1.4764699,109.32404
1.4673228,109.70497
1.4312162,109.41933
1.3743591,109.36799
1.497402,113.298996
1.4606329,111.08789
1.4229069,115.57097
1.4483256,112.83241
1.3423322,113.49526
1.4290186,116.623215
1.4845022,118.02194
1.4803245,114.40324
1.3521453,112.34242
1.3340067,115.88851
1.3504771,113.46567
1.3003243,112.069046
1.3243041,110.73756
1.2186528,110.68338
1.2005471,110.6844
1.169661,105.25196
1.1568477,108.53432
1.153771,106.27489
1.1389958,107.31868
1.0739286,104.30989
1.0351769,110.78435
1.0051348,102.87227
1.0280222,103.83999
1.036961,103.09298
0.96271586,98.79457
0.9158697,102.265945
0.91526854,96.33106
0.90775645,97.95781
0.9247673,95.77132
0.99218804,94.80376
0.88986623,95.56053
0.92261744,98.19868
0.94002175,97.89681
0.9521866,90.73458
0.9002665,88.87037
0.80961686,90.81794
0.751004,91.24814
0.8213168,85.65477
0.75047314,89.333824
0.7445915,83.77727
0.6909282,86.28944
0.76087713,83.12825
0.6253938,83.27084
0.6233217,81.524734
0.60179,77.86793
0.58910227,85.1195
0.42048222,81.29697
0.5101752,82.39471
0.5264223,79.50848
0.4477029,81.09983
0.4046874,78.74357
0.29397127,76.78307
0.40418422,76.80049
0.3524651,72.99431
0.34506428,67.25005
0.33204865,69.54734
0.35625768,69.31086
0.295092,65.95675
0.33585876,65.75987
0.27383637,65.06669
0.3247005,62.999336
0.3517485,64.13861
0.2829865,64.12069
0.35462114,65.78532
0.2476918,65.01671
0.31694236,62.7738
0.20954406,61.91908
0.28594622,61.901577
0.20651992,59.81884
0.19748017,59.478302
0.20853996,61.615128
0.1676894,64.19296
0.117004305,60.398476
-0.010259239,58.504307
0.062147006,60.1527
0.030287836,58.718857
0.034035083,59.53258
0.005064605,64.73172
-0.07564178,65.738235
-0.08773642,66.69665
-0.057627797,64.464325
0.038986214,64.79093
-0.023326967,64.32747
-0.0035504338,73.32127
0.015905611,73.225426
0.09993001,64.60019
0.17067878,69.91904
0.10719919,71.010765
0.28207338,75.56761
0.26062626,82.826355
0.3777809,79.517426
0.49982035,73.53739
0.4942122,80.779144
0.6373473,80.411896
0.6901835,82.5847
0.75802404,91.521736
0.8638676,90.89356
0.9078884,87.31203
1.0142083,94.14075
0.9626782,92.587975
1.1433442,97.63546
1.1172273,99.46644
1.2595131,99.453674
1.2284893,99.18113
1.2769028,103.69293
1.2984415,103.10022
1.3144578,106.51021
1.3361443,110.91783
1.3377995,105.87776
1.3609797,114.484116
1.433018,114.82087
1.3606094,111.61188
1.4356178,112.54778
1.4007498,111.73047
1.4806644,113.987915
1.4378922,114.713844
1.454789,114.26165
1.4789689,115.84613
1.4245143,113.60088
1.3938698,114.36176
1.3486747,112.97177
1.4310058,113.85369
1.3450631,114.4985
1.36595,111.29315
1.3373853,114.534744
1.2863619,112.7831
1.313814,113.320465
1.195654,107.31818
1.176821,110.83714
1.1218847,106.64766
1.1936374,110.86613
1.1667427,108.64133
1.1599883,106.0654
1.1803445,103.696144
1.1977243,107.091774
1.102705,105.867905
1.1279154,98.26987
1.084334,102.60027
1.1585996,103.6596
1.0256133,99.72384
1.048447,98.15706
1.0618261,100.94244
0.9916301,96.16032
0.94600904,97.03354
1.0616117,95.388214
1.0696193,90.71555
1.0972039,90.75336
0.9496024,90.41038
1.0272694,93.64363
0.92750823,88.17227
0.99078137,90.06148
0.9801248,86.85689
0.8863414,87.87402
0.88331884,84.445526
0.9045547,82.633545
0.86481225,83.4867
0.8141102,84.57804
0.80859494,82.89917
0.75037676,80.058495
0.68192714,80.70078
0.7195652,79.285675
0.67052704,78.097046
0.6139812,76.85813
0.5875394,74.83485
0.552123,76.74371
0.5538796,73.815346
0.6095059,74.6059
0.4637244,74.1322
0.5267156,66.84315
0.5442807,70.05082
0.55150855,68.213165
0.6241314,67.10019
0.59381026,69.53201
0.5917422,62.93816
0.5829064,63.978622
0.5447491,63.452827
0.6040961,60.62343
0.57030636,66.557045
0.5582429,63.91348
0.5664821,59.61129
0.5354398,63.373928
0.45828617,58.8383
0.5242093,57.911293
0.43360773,61.69122
0.5140043,63.73844
0.39501894,64.81107
0.4355086,60.822224
0.43509725,61.184143
0.37584397,61.093758
0.27263874,60.53353
0.25938007,63.523724
0.30058,61.966015
0.32030067,60.31904
0.29280633,63.35625
0.311287,66.19775
0.28667685,65.96935
0.29340285,71.18183
0.34960258,72.44895
0.34235537,67.79922
0.43191212,67.18917
0.51890963,72.96589
0.58432955,70.56582
0.615149,76.493065
0.69235444,79.84631
0.7291451,80.220665
0.835404,80.47299
0.9484656,81.98472
1.0160763,80.990326
1.1429008,84.05493
1.1657168,86.43665
1.2376506,93.325615
1.3140553,90.669426
1.4459746,91.81109
1.4518222,97.34289
1.4364499,93.94902
1.5550904,99.65364
1.4961907,98.633804
1.6788331,102.27815
1.7164692,104.1698
1.6972355,98.35598
1.7069075,105.09866
1.7298952,107.90904
1.837882,109.276245
1.7425156,107.33769
1.8525057,111.16684
1.8035824,109.341255
1.8071238,113.81599
1.812736,110.783646
1.8581029,111.73614
1.918279,116.48991
1.8321233,113.36379
1.7706923,113.16342
1.833288,116.37014
1.7767617,114.81344
1.7761638,109.105446
1.7449564,113.54777
1.7893963,112.61332
1.7656003,111.89896
1.7003968,110.340225
1.6740129,112.47405
1.7754064,111.143005
1.6889706,114.31219
1.5448972,109.765236
1.6864116,114.12781
1.6365814,105.358185
1.5963635,104.24029
1.5928591,106.30179
1.5004617,106.41453
1.4803017,104.67952
1.5675287,104.46428
1.4685395,100.68154
1.4715737,102.862465
1.5271441,99.71825
1.4429398,100.62659
1.446771,99.20216
1.4352229,99.63594
1.3440418,94.59627
1.4291141,97.16294
1.3871433,97.87423
1.4417406,95.75999
1.4191815,92.1394
1.3749102,92.36166
1.4267862,87.59483
1.3642,87.090614
1.3887604,86.84533
1.2734901,83.34513
1.2308522,83.22198
1.2227743,84.22249
1.2740535,86.29107
1.2259709,83.47968
1.1296189,80.62723
1.1165906,86.168846
1.1136657,78.544044
1.0118698,80.43581
1.0724108,80.72742
0.9834119,77.483505
0.98009384,80.595924
0.97943413,76.022865
0.94637054,74.18575
0.8848058,75.16323
0.90025216,73.29652
0.8656941,73.001305
0.95375425,73.52594
0.9547064,70.14524
0.94998294,68.470505
0.86748403,65.39079
0.908257,68.195496
0.91980934,69.92231
0.8614781,64.832344
0.96137923,65.791664
0.94043136,64.97927
0.86121875,70.23624
0.86178935,64.672554
0.87639123,58.815662
0.88436717,57.634968
0.8425599,61.20843
0.7794542,59.116913
0.73991776,59.75793
0.73132944,60.599384
0.67410326,59.378876
0.63988394,59.946854
0.6762252,60.073494
0.61523825,58.224052
0.66452634,62.475
0.5321205,63.84144
0.5699614,60.1634
0.6504251,67.699326
0.52258056,66.927605
0.5158431,61.50011
0.5779811,62.677715
0.56060153,67.9727
0.5888875,65.87706
0.5650576,67.06534
0.6660556,70.33279
0.75186765,73.44755
0.7279515,73.08356
0.87256414,78.080956
0.8916847,77.41994
1.0041298,77.12073
1.144221,81.13187
1.0771972,84.94322
1.2311172,86.176765
1.3508071,84.7415
1.3455405,89.47255
1.453896,90.277435
1.4879243,94.364746
1.5790539,95.876495
1.6437078,97.29444
1.6856923,93.646545
1.7138844,99.47045
1.8060603,100.28037
1.8625361,103.84076
1.8627468,103.515015
1.8153515,100.47688
1.855697,103.68579
1.8556755,106.64627
1.9007257,108.85978
1.8528329,108.57214
1.9053512,110.12053
1.8734684,114.564255
1.9748218,115.25647
1.9483114,113.22758
1.9654276,111.18168
1.9066502,112.54675
1.8577163,111.14438
1.8544282,112.51753
1.7794425,114.638954
1.8325982,116.61679
1.8488901,111.18423
1.8458835,111.552704
1.8564782,109.66893
1.7115153,112.19121
1.8973304,109.443565
1.7015119,114.6056
1.8113819,113.03435
1.7125115,112.81808
1.7223635,108.452156
1.6431103,106.50007
1.59348,104.082535
1.6679399,105.586266
1.5902673,106.74183
1.6148719,102.15565
1.4768269,100.06859
1.5040679,103.53712
1.4753277,102.13058
1.4000484,100.93194
1.4919907,102.32603
1.420231,98.46741
1.5107079,93.469666
1.4597371,99.63604
1.4954528,98.05097
1.4674387,88.72666
1.3886886,93.366356
1.3450092,94.13172
1.4330418,92.04396
1.3686544,94.42228
1.2470316,89.28459
1.2997572,85.349625
1.2607974,90.31252
1.1717998,89.406166
1.2236048,84.160545
1.1995924,84.969284
1.1495963,86.71772
1.0904865,83.04888
1.0521522,82.005486
1.073842,82.22798
0.9874513,78.308685
0.9337557,76.93417
0.81255627,75.84767
0.95949125,77.7164
0.8806311,75.346535
0.80112714,72.85947
0.82198334,72.05884
0.7888974,72.22679
0.7975208,73.099174
0.8749195,69.12216
0.8144,64.0159
0.7647316,69.82498
0.7730906,66.96624
0.7713102,69.816216
0.8114071,65.80577
0.79777193,65.55678
0.6491944,65.30212
0.75377923,65.0187
0.746087,62.227783
0.6844555,61.01946
0.7440201,63.57584
0.64966094,62.102615
0.65469384,63.168457
0.5445338,62.379745
0.61945045,60.996967
0.582703,57.974194
0.550018,58.219284
0.4684016,58.799103
0.48551297,57.27553
0.40932727,60.898388
0.4020667,57.87439
0.35490426,60.704605
0.34886837,61.414154
0.3383392,63.63701
0.29390466,62.76023
0.30462268,63.261566
0.28977787,64.62356
0.28690177,63.811665
0.41122004,70.67128
0.4377392,70.34592
0.39250308,66.38812
0.4553546,71.96503
0.5626842,72.6923
0.6494795,73.18249
0.54618,72.56804
0.7300696,76.2176
0.8132723,75.88027
0.7992539,77.45723
0.9110774,85.763596
1.0266147,80.76543
1.1356498,83.42655
1.1914032,88.34782
1.1692171,86.98825
1.325231,85.15028
1.3444943,94.95647
1.32538,99.9898
1.4699905,95.53012
1.4319704,100.51147
1.4502885,99.58405
1.487661,102.85853
1.6082958,102.65302
1.5593492,104.258644
1.5722867,105.51711
1.6362205,108.488014
1.6278275,108.662605
1.5677296,111.39264
1.5386105,112.23968
1.5516682,112.26562
1.5769131,112.91894
1.63406,110.302155
1.5977372,115.468735
1.4971731,109.27986
1.4811424,114.212685
1.5448526,114.04911
1.5744525,119.54185
1.5866069,110.15306
1.3855951,113.09883
1.4881208,112.83201
1.4393092,111.89315
1.4038401,109.878586
1.3451138,112.29598
1.4291222,113.722984
1.3487736,108.17796
1.2499139,107.76214
1.2320923,111.9617
1.2152742,108.66956
1.2751914,109.91447
1.2779255,104.96976
1.2052449,102.9316
1.1069537,107.62829
1.1106433,100.45502
1.1725245,101.90172
1.0933006,102.5084
0.9886955,103.57276
1.0156064,99.2664
1.0864719,100.479195
0.9888385,97.92906
1.0213113,98.45093
0.92273134,90.04562
1.0267308,94.69199
1.0216198,89.877914
0.97662,92.301384
0.91827565,93.07039
0.9280842,90.283615
0.8978434,89.82352
0.926177,87.43418
0.84032196,89.84287
0.85675305,78.5547
0.796819,87.24461
0.74105567,84.695694
0.72649336,83.82116
0.71173185,84.5145
0.6427951,81.709885
0.6706005,79.96355
0.5747012,82.12624
0.48287517,80.87759
0.53737015,80.50024
0.5602738,80.07019
0.54199904,78.05512
0.3982127,72.863495
0.35976264,71.56851
0.41360968,73.382454
0.41846624,72.87918
0.40176156,67.93317
0.4001234,71.86089
0.4032213,68.146194
0.38072765,67.96222
0.36284387,69.20222
0.32521167,66.916794
0.3415845,69.908394
0.29534772,66.72886
0.35363647,65.08999
0.44631377,61.43003
0.34945127,58.872635
0.3510601,65.75698
0.2683371,62.12632
0.3253806,60.64571
0.20537034,62.913002
0.20986947,62.059975
0.17575148,60.876766
0.13150166,61.4007
0.096485846,59.07873
0.15653884,60.018703
0.10202795,58.11943
-0.011377513,58.60605
0.0011498533,62.672276
-0.033442803,61.69181
-0.020244792,64.34978
-0.10146162,62.801426
-0.013663001,62.911484
-0.002268152,64.67158
0.008821452,71.13889
0.053439543,71.33647
-0.0029966787,69.32155
0.1411868,70.22623
0.17424242,73.661575
0.18601486,73.96453
0.351985,76.62733
0.367242,73.96758
0.38980722,78.74384
0.41523322,79.77398
0.50157255,81.22976
0.5795718,84.0366
0.6332264,83.659164
0.7494701,89.753136
0.9117394,86.62131
0.8918628,92.09088
1.0137458,91.20928
1.0066882,93.44312
1.0902984,97.920586
1.0991765,100.9407
1.2778122,104.61092
1.1918936,99.86343
1.20779,101.12855
1.2891586,99.5246
1.3043345,106.07172
1.3163959,104.34506
1.2830114,105.88907
1.4150909,111.18859
1.3735785,109.97683
1.3273716,112.48814
1.3091242,111.10814
1.325215,113.13274
1.3853889,113.21475
1.232503,116.91608
1.3645614,117.7369
1.3682133,111.51516
1.2831237,114.504074
1.3742449,108.46766
1.2365361,109.327614
1.3146775,115.57767
1.2887665,113.32109
1.3086945,109.38085
1.2110947,110.277695
1.1985534,106.84976
1.1737151,111.57478
1.2206274,113.1098
1.2058554,106.968155
1.1107523,110.15416
1.1041763,104.95453
1.0250664,109.36911
1.074863,105.99908
0.9363692,102.86809
0.9927135,99.28942
0.97642714,102.547264
1.0931606,102.15111
1.0188972,97.741486
0.95906854,101.285904
0.9326025,96.947784
0.92275363,99.83619
0.8771013,97.607864
0.9655407,97.53259
0.9050358,93.69535
0.8852881,98.40511
0.8831558,92.70063
0.8710126,94.33305
0.8642622,92.87905
0.82319665,87.534386
0.87003547,92.44318
0.8240382,88.837265
0.8057606,89.11069
0.79633707,88.07009
0.7734241,88.76578
0.7529784,88.369835
0.6968652,83.39265
0.6904441,83.14391
0.53580654,77.90985
0.64614826,82.816826
0.5687291,80.00566
0.56510043,79.730606
0.5245912,77.73906
0.45392805,75.52883
0.50945044,75.80701
0.40624133,74.93977
0.37941977,75.614944
0.48322934,68.71502
0.3692432,69.96826
0.37974307,70.19497
0.3992069,65.874115
0.4086593,69.11541
0.38522822,69.13621
0.40433177,66.32045
0.45747763,66.951675
0.47447443,66.7984
0.41288278,66.72091
0.40691426,63.788197
0.4634855,64.64626
0.37936813,61.016552
0.36042824,61.951317
0.37309107,60.135464
0.3095662,62.15591
0.40233254,57.70959
0.30676314,59.3158
0.17531303,60.74082
0.2185131,62.48235
0.18337946,59.662888
0.2158391,60.06696
0.16467127,61.01314
0.15727124,64.06002
0.17011411,58.55648
0.12859003,62.03507
0.19951688,61.87099
0.092980206,62.540848
0.15882109,60.98702
0.14408733,64.58839
0.12134831,65.5896
0.14911528,71.78909
0.33473244,65.57031
0.28236967,71.43435
0.35528767,70.30496
0.38876745,74.357925
0.5048194,73.32964
0.5505667,79.119484
0.65646654,82.5774
0.77123845,77.00272
0.77150315,83.198715
0.8862113,82.77486
1.0001981,88.91994
0.94848585,85.871544
1.0578963,90.576195
1.1796908,91.54529
1.2331542,96.74744
1.2501605,94.650246
1.2947649,95.45564
1.3572043,99.38296
1.4342312,97.59734
1.5022191,99.61494
1.4929385,103.49599
1.5176432,104.11086
1.5652933,104.098694
1.5351622,104.48065
1.634374,110.13674
1.6659441,109.588486
1.7210964,113.912445
1.5672486,104.877594
1.5938631,113.856766
1.6956394,115.0846
1.578721,106.846146
1.6140487,111.10384
1.5883454,114.6734
1.5847524,113.35805
1.692674,113.54792
1.5931097,115.059906
1.6134844,119.535355
1.5737083,113.37526
1.5663602,111.98939
1.6417207,110.669716
1.6053591,110.67097
1.5033773,114.33098
1.54451,116.38982
1.4378898,111.314865
1.5008632,108.7104
1.5012667,110.99018
1.4565295,106.84671
1.3117657,106.414696
1.4229593,104.52635
1.4052372,105.27365
1.218608,104.05053
1.3252693,100.043495
1.450435,99.88101
1.3206748,103.96536
1.3122432,98.532875
1.3308157,98.744385
1.3672014,94.51692
1.3155296,94.01559
1.3434864,96.5229
1.3105497,95.65261
1.309508,88.35182
1.4074017,94.62369
1.2751131,88.84786
1.2537392,92.61342
1.2739687,91.64864
1.190034,92.180176
1.2227894,86.750145
1.1984409,88.64709
1.1959981,87.24967
1.1765987,81.96562
1.058364,86.44494
1.0177798,83.02185
1.0200665,86.56386
1.0247866,78.83009
0.99471724,79.246086
0.9555045,78.117355
0.986902,76.607216
1.0169654,78.86337
0.8559201,73.921326
0.7796058,75.33214
0.8559098,78.57579
0.86433387,72.66249
0.7708382,69.15926
0.75588775,73.05681
0.8422187,70.81563
0.81014663,70.996605
0.81959337,68.8084
0.83423007,65.8029
0.88855594,68.86705
0.7876284,65.26567
0.808801,62.712322
0.8393816,64.80647
0.7806916,66.55319
0.81528777,69.569374
0.8033834,64.39678
0.71076375,59.659416
0.7147754,61.39832
0.7620603,60.70055
0.7015155,58.53507
0.6651273,62.738052
0.6885351,57.568695
0.61294717,60.19169
0.6508058,61.187965
0.44516933,61.907246
0.4813562,60.53674
0.48020208,58.714542
0.5313514,61.86215
0.44483855,65.75066
0.4755842,64.632935
0.56755763,65.67998
0.47281307,65.498245
0.5029158,67.74705
0.52770513,72.32852
0.5762247,70.92911
0.66438186,67.9793
0.6953109,74.14603
0.6613558,74.82392
0.8085424,70.0233
0.9327551,80.39824
0.915056,80.547935
1.0104078,80.30858
1.1582422,79.46763
1.1934477,86.9312
1.2214015,83.82906
1.3253793,83.246506
1.3947961,88.55646
1.5196146,91.49025
1.4666821,93.65176
1.6515353,93.87839
1.7333611,97.0912
1.7313447,96.73923
1.8207095,99.66052
1.7199672,97.02849
1.8504372,98.968185
1.8055868,101.85798
1.9125974,102.37715
1.8231275,106.60563
1.9453934,105.376076
1.9121325,108.21966
2.0312095,110.25716
1.8514073,110.38687
1.9749703,113.59184
1.8670455,112.05474
1.9487126,113.19476
1.9740592,112.25591
1.9736689,113.63445
1.9780867,115.51615
1.9503374,115.29911
1.9584502,114.56707
1.9547487,112.405846
1.9072057,115.15033
1.9323498,114.48359
1.8765169,110.63511
1.8457518,108.61959
1.7770821,111.947945
1.8061962,109.08117
1.8081354,110.006
1.7376952,108.233826
1.7212336,111.88143
1.6459546,108.6859
1.6258974,108.88741
1.7019787,107.66283
1.4909868,102.37927
1.5931385,105.79531
1.6186188,103.55083
1.5263275,103.24345
1.5345759,99.747116
1.5662546,98.471596
1.475832,99.00372
1.4584028,98.66176
1.5028203,98.75224
1.4911853,95.56232
1.5212708,93.28259
1.4054003,92.30864
1.4936478,93.106026
1.4741496,90.96049
1.4542116,91.62729
1.4163282,92.340256
1.3919312,88.16934
1.3667719,89.66727
1.3630162,88.96708
1.3331821,85.68589
1.2935067,86.45402
1.2723476,81.088356
1.2728441,83.79665
1.194445,80.5163
1.0743619,79.17842
1.1134744,81.29279
1.1219552,79.10816
1.0547322,76.76361
1.0533564,78.2236
1.0661755,78.53007
1.065162,72.980156
0.9324478,73.83076
0.98117816,73.77749
0.91483456,72.43734
0.9595416,69.55556
0.8955304,69.844955
0.94444484,74.2939
0.88713306,73.13054
0.799764,68.06698
0.81788605,68.2457
0.7807476,66.409485
0.8849718,65.813805
0.85350066,63.355667
0.83176386,67.33189
0.8370743,66.06846
0.8485227,64.863945
0.8199297,63.656857
0.7198379,63.632004
0.7657149,59.41682
0.6948691,61.418545
0.74957097,59.58831
0.6331221,59.176643
0.5763266,63.498096
0.64748126,61.20855
0.57473314,59.534042
0.5495767,61.781292
0.51085097,57.349926
0.48492622,66.30089
0.5011722,59.10004
0.4684588,63.479218
0.42036042,64.504
0.55502415,67.3589
0.45140257,65.30781
0.43978694,65.10739
0.4627771,69.809044
0.51833767,70.37884
0.5926745,70.5178
0.6574746,74.6191
0.7785078,73.3887
0.6865156,75.49192
0.8119179,76.75668
0.8732024,80.62725
0.96512,82.442055
1.061148,83.82912
1.1381,87.83348
1.2437197,88.57538
1.2511479,88.71453
1.247366,87.94824
1.4532909,91.14785
1.3477784,94.0716
1.4650149,95.894196
1.5378009,97.600746
1.6064353,94.87632
1.5983784,103.43723
1.6487064,101.871895
1.6908056,102.55731
1.7072293,105.56243
1.7332213,103.224594
1.7567215,107.80453
1.751459,105.0876
1.8202354,108.8757
1.7310859,110.64928
1.762745,106.5004
1.8128355,107.53278
1.7318679,113.57292
1.7810978,112.542564
1.7115202,113.29561
1.6607783,111.40483
1.7980479,113.40999
1.6789913,111.704544
1.7356879,118.98435
1.6496805,113.36844
1.6501198,113.3932
1.6687518,110.04847
1.6113533,113.85416
1.5816941,115.148605
1.5647786,112.09619
1.4976627,108.61853
1.5020194,113.43292
1.434944,107.13385
1.4382708,113.46754
1.4246051,106.16777
1.4194827,105.016495
1.3682497,106.05449
1.2948257,104.164925
1.3715453,104.17086
1.2368733,102.269
1.2840581,95.12077
1.3490065,103.07612
1.2641395,102.993614
1.2703905,96.2342
1.2479169,93.05295
1.2076976,94.92605
1.2030226,98.86047
1.2563007,98.59335
1.1615328,91.76872
1.1348096,97.44626
1.1161016,90.95507
1.1468894,89.204185
1.0976759,93.63398
1.0220468,88.942116
0.9866478,87.82872
1.0354196,87.79296
1.0322034,84.02876
0.966314,84.78138
0.9149233,81.7893
0.9336241,81.93027
0.8175762,83.75536
0.814775,80.08859
0.72226936,80.86749
0.70223624,81.25406
0.7268207,76.23042
0.58230567,74.50164
0.602051,76.43058
0.65591854,76.93904
0.5190231,73.33435
0.61924374,72.264534
0.57503456,75.90654
0.50896555,71.75662
0.5248182,69.21166
0.53601855,68.808075
0.57625854,67.47037
0.47266528,67.063255
0.4746554,66.83215
0.52201337,64.41039
0.5264223,65.78912
0.49455002,63.191357
0.48933724,62.425835
0.4604404,62.33702
0.44127363,60.78518
0.3298218,60.636852
0.37541622,59.757645
0.34052873,63.11437
0.4417341,58.67054
0.34938824,62.072163
0.22362706,61.328537
0.24023364,61.67422
0.21338612,59.93493
0.14888607,64.142715
0.17156595,61.179012
0.06921161,62.46852
0.13298109,64.26799
0.045045655,63.51965
0.03779659,63.644028
0.050779715,63.782387
0.07985106,65.18367
0.084403224,67.02228
0.06866208,71.01649
0.13566145,69.30017
0.20810197,71.06102
0.23404072,71.14798
0.33130443,72.32951
0.30371204,70.882256
0.3602044,78.87074
0.45338237,79.15474
0.4825431,78.16845
0.5805105,82.53198
0.69050616,82.81652
0.770407,85.82822
0.7679796,87.15862
0.84758466,86.53339
0.9063788,92.51231
0.9214442,92.52963
1.091316,93.981544
1.0904502,92.71174
1.179346,98.50361
1.2668649,103.7325
1.2451082,101.15726
1.2552671,103.29047
1.2355529,105.50689
1.3344449,104.45804
1.3983239,103.78033
1.3644309,106.67225
1.3653156,113.162224
1.3642637,110.685974
1.3857026,107.78185
1.4196151,110.27863
1.462114,112.322525
1.3261995,116.49785
1.308224,110.1766
1.3791476,112.787056
1.375759,117.88089
1.296214,115.12594
1.3444384,111.97037
1.4277142,111.93376
1.3557339,111.2033
1.3415712,114.62963
1.2664294,112.7211
1.2236493,113.19439
1.1967298,108.54879
1.208225,113.23977
1.1611953,113.53737
1.1657563,103.955444
1.1337019,111.67352
1.0517519,111.909744
1.0644946,105.13453
0.9922087,104.78321
1.0362453,101.696335
1.0890146,103.402794
0.91529,106.30854
0.87844855,105.2272
1.0061876,101.582466
0.99464476,101.07117
0.93151295,100.481316
0.9253394,95.39813
1.0268935,99.94869
0.84826535,98.80301
0.91994923,96.02727
0.9355101,95.63926
0.9136248,93.12859
0.9175478,91.46557
0.7734902,93.59792
0.77472746,93.14981
0.78756696,88.330284
0.8261339,88.4644
0.8060859,86.92437
0.8265206,87.62566
0.80407363,87.50374
0.6865743,87.93965
0.716507,83.167625
0.6491733,88.60416
0.52701795,81.88123
0.51169544,81.11771
0.41584143,81.61875
0.515158,80.44818
0.47737038,80.5502
0.35715887,79.165
0.4409786,72.622055
0.38629273,75.159645
0.44323853,74.36987
0.30588534,76.29222
0.35546675,70.58591
0.34827912,73.8577
0.3417649,69.92222
0.3518366,66.63745
0.40089428,69.76301
0.40001172,64.44093
0.3516413,62.943466
0.3004541,59.556984
0.31349573,64.7175
0.3331009,64.02477
0.30054876,59.67406
0.25204885,58.654537
0.27435768,61.47209
0.21579452,62.41882
0.24324773,61.27346
0.24571455,63.14144
0.22170259,59.51278
0.16997047,61.797638
0.1400161,57.343235
0.19330575,61.601357
0.1269234,60.696503
0.13022175,59.87708
0.048007824,60.332325
0.010803853,60.893196
0.042261764,62.89298
-0.10550516,61.31585
-0.0630589,66.29713
0.04418526,63.659084
0.003302457,64.40829
0.01640796,69.97242
0.10404407,67.48612
0.107116714,66.173
0.064648606,72.19616
0.22454992,71.29459
0.1634474,71.003975
0.2661417,74.38748
0.47483945,74.157104
0.5145737,79.22481
0.5565107,79.63002
0.6593715,82.08072
0.7109789,81.77844
0.71950096,81.47192
0.9247279,87.97777
0.91619724,87.659
0.9752549,89.928894
1.0337367,94.77945
1.120869,93.29436
1.1599451,97.429
1.2451752,100.604805
1.2079,96.19058
1.4236913,104.75382
1.3557187,101.80207
1.3319094,104.197296
1.4428383,103.80721
1.371318,107.37178
1.4917096,107.692764
1.4822974,107.53927
1.4987696,109.31836
1.4539202,113.81208
1.4495641,110.4382
1.4968959,113.841736
1.5029073,114.64889
1.5153219,110.35899
1.5157685,110.68732
1.4199128,112.76343
1.4635984,117.05189
1.465224,110.889786
1.4850304,115.19485
1.4583544,114.9682
1.4277089,112.292145
1.4333956,109.02112
1.4405079,110.470245
1.391752,114.560936
1.3109418,113.6001
1.3211272,109.11473
1.1967403,113.19311
1.3206007,110.55473
1.2540838,109.74375
1.3006399,109.035324
1.2449828,106.93917
1.1783247,101.41671
1.2024658,103.936615
1.1325265,101.403694
1.1635047,103.16004
1.2087836,98.04448
1.1219058,103.505554
1.1193559,103.07233
1.1181837,100.1309
1.1498458,101.085144
1.2008846,94.31227
1.1730405,94.945915
1.0845834,93.395645
1.0686593,92.26017
1.0774897,91.526
1.0849258,90.43951
1.085178,91.87609
1.0295027,87.60583
1.0352513,89.5146
1.0143051,85.16609
1.0345039,87.16141
1.0121179,80.63205
0.9483892,87.01333
0.9159027,88.268005
0.95889175,83.86233
0.82974845,85.47475
0.83627194,80.14974
0.7782167,73.09538
0.79764485,81.368454
0.7359752,77.3235
0.7583847,76.97664
0.7306029,77.08467
0.64353204,75.54366
0.69614136,72.26018
0.7080674,76.45998
0.63061035,67.25303
0.69082093,67.46174
0.61388165,71.61488
0.65434504,66.61929
0.6509684,69.49376
0.58443016,68.88228
0.620082,65.57562
0.7475763,67.34197
0.6840494,66.733536
0.73909044,64.94996
0.68006605,63.467503
0.66151494,64.75359
0.6272535,61.18634
0.6490218,62.002953
0.5496313,63.01885
0.565241,60.147346
0.6773849,60.84937
0.50483537,60.416115
0.47325298,59.733097
0.5031374,59.6161
0.4521245,62.78334
0.39250904,63.185867
0.42042133,59.362495
0.33545247,59.93436
0.37173867,61.6498
0.32630458,60.583157
0.34612828,67.90409
0.32493243,64.0154
0.27201447,64.624016
0.3898253,67.08605
0.42154348,71.44213
0.5591275,74.24066
0.5429424,71.00988
0.62916857,70.075
0.62359035,74.269325
0.6971074,76.5385
0.84066087,73.03905
0.8645838,77.104485
0.91590655,82.07998
1.0067626,85.62092
1.1471881,85.39795
1.1282268,83.2912
1.2793968,90.63592
1.3514591,88.5602
1.4319627,90.1106
1.5003177,95.39541
1.5459157,94.433586
1.6574624,91.62532
1.6576897,102.22015
1.6749077,100.997116
1.7180705,101.640175
1.7615004,103.33272
1.7932256,107.02215
1.8146094,105.63846
1.8142476,111.5181
1.9258713,112.89741
1.9090543,112.014435
1.893594,111.02021
1.8505622,108.3182
1.8733194,110.54832
1.8408371,113.43982
1.927758,108.117424
1.8897762,113.279625
1.8787981,112.74911
1.933213,115.03057
1.7520831,114.72967
1.8884859,112.57814
1.8202947,113.42135
1.8288449,111.29889
1.7771169,111.69889
1.6972017,112.54998
1.825887,112.31751
1.6397011,114.73448
1.6801881,107.17061
1.6848706,110.115746
1.6108431,109.31074
1.7235129,106.41216
1.6997166,109.19255
1.5705793,110.40682
1.6170396,105.9604
1.5323739,106.31597
1.4471257,101.47639
1.5866923,100.95444
1.512398,101.36688
1.5436405,99.81473
1.5271982,99.215546
1.505689,97.73138
1.5073522,99.73339
1.4607134,96.57705
1.4779751,100.94333
1.4751662,94.490074
1.4041711,92.37074
1.4827474,94.22524
1.4855293,93.206535
1.3817698,91.44994
1.4539875,89.013954
1.3112471,87.26725
1.4615093,92.18223
1.2768934,88.9898
1.3292061,87.368835
1.3310724,80.59912
1.163941,84.619644
1.1520945,83.402916
1.1378348,79.560165
1.1706983,81.38795
1.1780342,79.723816
1.1291654,76.52776
1.0498939,78.83239
1.122979,76.78754
0.974793,70.239845
0.9737301,76.66426
0.9633521,75.83756
0.9308088,70.93473
0.9013576,69.041664
0.83398044,73.30439
0.96879727,74.67795
0.98970926,69.61009
0.8968571,73.81596
0.9767292,69.952736
0.8593575,66.956474
0.9719075,64.865944
0.9292008,64.27378
0.9136387,59.56675
0.91671455,66.30609
0.86337304,62.725082
0.8861796,63.197807
0.846744,60.608006
0.84166175,54.956913
0.7504944,61.618256
0.7064857,57.94488
0.6874757,58.883713
0.65962934,62.45176
0.70143175,61.457775
0.7009104,63.690186
0.64716935,62.8244
0.5985115,63.943325
0.6168769,60.704266
0.60285366,65.91734
0.5749925,64.49047
0.5396542,67.60953
0.5017981,63.487614
0.5443653,62.989086
0.5748703,65.29232
0.5961156,69.06776
0.6166555,66.67411
0.6880219,69.3778
0.71374965,69.65125
0.8040014,72.254974
0.7289197,75.76178
0.95659316,76.26099
1.000149,80.635704
1.0011107,80.682335
1.0786738,78.31619
1.2559228,86.06585
1.2955698,80.62631
1.3562226,89.70524
1.4279301,86.51556
1.4222918,94.405106
1.5621253,90.199486
1.6126388,98.16432
1.5803596,94.902374
1.6252916,99.11283
1.712133,101.19353
1.7752649,104.616356
1.7933177,101.416435
1.8251523,102.3521
1.7635021,104.870026
1.8593581,104.290565
1.904765,107.36952
1.9572976,105.979485
1.9057512,110.32737
1.8530923,110.127464
1.9667448,111.78691
1.9135455,112.974014
1.8963603,110.030685
1.8968544,112.58572
1.8823932,116.20949
1.8781425,112.67078
1.9292351,118.153725
1.8555167,109.79229
1.7604252,115.51623
1.8639823,114.069336
1.7830358,114.04559
1.7282835,112.307816
1.7787856,113.13087
1.6563561,114.78001
1.6540587,110.2138
1.7104853,108.71407
1.5937997,110.09185
1.6049116,108.57806
1.5666597,104.47971
1.6100701,104.45469
1.6198177,107.71144
1.495156,104.67445
1.4568278,106.53501
1.4106461,103.91406
1.4496104,103.12647
1.3365202,101.27878
1.3158658,98.526695
1.3955743,102.5548
1.3162296,92.98624
1.31198,101.21336
1.3190905,99.94197
1.3136255,92.647545
1.2827926,93.46068
1.2636116,99.81998
1.3449804,96.24092
1.3930973,92.76593
1.2511448,95.61533
1.199421,87.34876
1.3297603,90.402115
1.1806288,87.08445
1.1738664,85.36093
1.0905749,89.61867
1.0676497,85.5209
1.1549729,82.21385
0.98333055,82.58084
0.9727208,80.774864
0.89569575,81.580765
0.90880525,77.555145
0.8585625,76.99322
0.82956123,80.19602
0.84769183,75.29778
0.84079003,75.6023
0.7959791,74.13486
0.73079085,77.161964
0.76399565,72.18636
0.75213665,71.53071
0.82604504,73.152885
0.69323593,70.95054
0.7138639,68.841705
0.62022984,64.04781
0.6472418,66.53537
0.6754194,67.27144
0.6527655,64.35897
0.6135541,68.73597
0.6266186,64.54131
0.5680706,59.67423
0.51796484,62.090633
0.6844914,63.20874
0.60805666,59.52122
0.5817825,63.0412
0.46009573,59.46837
0.546239,54.410507
0.4760597,61.551025
0.3513047,59.641933
0.32099554,57.742767
0.3690474,57.59152
0.35373306,58.882095
0.24307252,56.644775
0.23209,60.62641
0.3040987,65.370834
0.21955253,63.28739
0.17860842,65.06
0.33319843,64.5143
0.21324697,66.32533
0.29266226,66.60308
0.2472768,64.33211
0.274862,69.0198
0.3509477,72.833336
0.34411034,71.492
0.4815582,73.40364
0.5384783,74.47077
0.4612683,78.71949
0.583755,74.84233
0.68115443,81.410614
0.7424107,80.50506
0.8089674,83.92732
0.7942221,85.32366
0.95125663,86.402245
1.0558003,86.584206
1.1066073,91.256355
1.2240133,92.59833
1.2063082,96.05916
1.2827718,97.17786
1.3626088,93.891426
1.3688891,101.91956
1.4846867,103.886925
1.4016881,103.86329
1.3928009,104.73798
1.4640158,105.160675
1.46718,105.76493
1.493399,109.22408
1.550162,110.97619
1.495288,108.34352
1.5947655,109.5537
1.5175414,108.67691
1.5030138,111.18086
1.4817996,118.25117
1.432091,113.17975
1.5021013,111.75017
1.454866,113.462685
1.4860543,116.263695
1.4857762,112.63147
1.4144896,112.78062
1.4323959,111.14135
1.3979613,113.68845
1.3832768,113.526436
1.3319002,109.33284
1.3200486,109.78379
1.4245952,110.3844
1.2413272,117.358345
1.2208886,114.860504
1.1624235,107.701614
1.1879934,106.11692
1.2170777,107.72607
1.0810715,105.06812
1.0808203,102.976845
1.0504761,104.586876
1.0717046,100.87819
1.0024066,100.46385
0.96203405,102.9387
1.0775963,103.825615
1.0053235,101.23193
0.99863756,100.28698
0.9917733,99.374954
0.97007245,97.518875
0.99197555,95.60412
0.9839075,94.0713
0.97165245,92.9716
0.8954034,94.9272
0.90909404,92.45291
0.76713693,90.011215
0.8660314,93.35974
0.8663027,86.36626
0.7842953,87.16588
0.7454996,89.75579
0.8339887,84.88628
0.6915021,86.685905
0.66269654,83.69216
0.61462617,83.199844
0.6078284,81.3218
0.5737251,83.10084
0.5500836,81.22934
0.6507705,78.54708
0.6252692,77.30699
0.47514644,78.85902
0.47161415,72.57173
0.4213471,77.1808
0.42305338,71.82804
0.3629105,74.00409
0.34720507,70.42578
0.3757658,70.48222
0.36671707,72.492355
0.37636915,63.631207
0.3826538,69.60606
0.3372534,65.97338
0.34536296,64.14009
0.36739305,61.824875
0.29463762,62.172714
0.35744843,62.1253
0.23588906,65.28963
0.2833749,63.84531
0.24431685,65.68859
0.2505259,64.55159
0.25411728,60.41874
0.24697022,62.366432
0.16148806,56.641518
0.17689835,60.99378
0.071375884,60.166904
0.055493776,63.16472
0.014961673,57.43687
0.062735066,62.743988
-0.0172882,57.83262
-0.07560428,61.969986
-0.120185815,62.055016
-0.11594995,63.44367
-0.03852142,65.49214
-0.0077113737,63.590565
-4.002967e-05,65.19147
-0.00026397966,71.19077
0.0206966,73.44895
0.059903804,72.92047
0.06613148,72.50912
0.15824495,70.43003
0.255403,73.7193
0.26022756,78.44894
0.29318258,75.109604
0.455892,78.7779
0.50405693,80.40472
0.5503478,85.43546
0.629113,84.18002
0.7921835,86.66818
0.8483621,85.17266
0.8213125,88.42866
1.0216367,93.384735
1.0741562,91.31846
1.1294823,94.1435
1.0798614,97.39606
1.1749711,99.31933
1.1887485,101.07875
1.2064538,104.60904
1.2754127,102.36316
1.2820765,103.891136
1.2478455,105.90568
1.3397988,108.34181
1.4058825,111.30314
1.3596959,106.02877
1.394388,109.12833
1.2839844,104.92909
1.3690035,112.80619
1.3660002,117.39754
1.3729627,108.769844
1.3405508,111.00568
1.3613467,111.55327
1.3153889,115.74685
1.4087377,110.57242
1.3925176,111.80512
1.3047618,114.631874
1.4047545,111.64412
1.2828693,111.13554
1.4204674,111.59482
1.1130508,108.68134
1.2527007,117.10896
1.2162194,110.93515
1.1178811,108.36803
1.2447677,108.305176
1.1015261,110.565315
1.1257269,106.51442
1.0499973,105.93919
1.1374472,106.75326
1.0392373,105.213295
1.0979757,104.811295
0.9700473,100.26495
0.93994844,95.421364
1.0220914,100.666954
0.96665,99.09812
0.954299,101.92858
0.9190269,100.22639
1.005079,92.440735
0.936642,96.0478
0.8610648,98.00678
0.9091135,94.63182
0.98283654,94.81007
0.9375059,97.89937
0.9924758,92.09328
0.8797613,91.94381
0.9211103,93.873665
0.9011365,85.19317
0.7843964,91.576775
0.8034618,87.569626
0.8251041,84.83373
0.8726474,86.38342
0.84223026,82.87564
0.6908704,82.16488
0.76474327,82.18319
0.6704531,79.49754
0.5944553,79.35248
0.63361526,76.0053
0.6021891,78.75438
0.4975825,73.24013
0.48501,76.4751
0.5854901,75.365166
0.55198765,75.499115
0.48162937,72.67382
0.4601608,68.652695
0.4505715,70.09147
0.50889355,71.13428
0.45358875,66.4775
0.56251395,66.59834
0.4699813,67.12182
0.532057,62.814484
0.4514504,64.84968
0.5483936,62.88028
0.47365004,64.53661
0.46312788,65.4292
0.5110486,64.679756
0.52874523,62.265133
0.40594602,60.68301
0.46649426,59.95363
0.41841236,64.0922
0.34694278,60.86785
0.33504388,56.968765
0.309652,63.488293
0.3177571,59.28562
0.19443025,65.181404
0.19915667,59.49926
0.22060536,62.09932
0.1626057,64.89179
0.19141552,65.21281
0.23640385,65.70944
0.14154348,66.222404
0.16046579,67.567055
0.16591598,67.04259
0.24810839,66.778336
0.31024405,68.54839
0.45204216,67.295006
0.43818745,72.33692
0.4327663,74.30131
0.57505894,71.98441
0.6067457,74.84674
0.70799536,77.25652
0.6795098,77.11704
0.76773024,79.22737
0.9099676,81.58784
0.94344693,82.38848
1.0217175,87.78168
1.1616731,88.75256
1.2186058,89.6173
1.3562437,94.38694
1.3143193,94.576775
1.4167926,98.55368
1.4313571,98.41813
1.475099,98.10258
1.4846512,101.98803
1.5580662,101.252464
1.61258,105.396225
1.6877482,106.58548
1.7501278,102.707375
1.6783097,106.43571
1.7495261,106.2624
1.7723107,107.007416
1.7691218,111.76696
1.7187514,111.65026
1.7030348,111.63841
1.6719406,115.132324
1.6551118,109.31296
1.7642556,113.66758
1.7938558,115.49188
1.7306232,114.77749
1.7105507,114.4778
1.7206534,112.20966
1.7332795,110.92875
1.6472157,114.2225
1.6507163,116.560814
1.6400012,117.73412
1.6751758,110.18989
1.697062,109.320595
1.6186066,109.54805
1.5195435,108.50693
1.5838953,107.58484
1.5107226,106.636406
1.4864181,107.28098
1.5251752,109.35402
1.4381768,104.34376
1.5013633,103.7304
1.4001403,101.739716
1.4077547,100.65053
1.3946937,104.13686
1.3860395,99.47597
1.3871642,100.0527
1.3786354,94.967415
1.381969,98.28236
1.3991967,98.099075
1.3896546,93.70305
1.3601727,96.46483
1.3869901,92.78791
1.3130928,92.218834
1.3153465,92.709145
1.3755996,89.22317
1.3215631,88.285255
1.3655686,91.51403
1.3229786,84.74001
1.2372695,88.66241
1.1524928,84.710365
1.2155286,79.532646
1.183813,88.41942
1.1373885,83.16557
1.0914766,79.732994
1.058607,79.438736
1.0017023,79.33232
0.9591979,80.42514
1.0266656,75.668816
0.9305086,75.35627
0.97543347,75.34972
0.8512001,75.63837
0.9387466,73.682816
0.9018015,68.53779
0.878672,71.674164
0.9824663,67.880806
0.83654255,70.66222
0.85934365,71.35736
0.88515276,66.56077
0.80595857,66.88183
0.91097206,67.10403
0.89149636,67.85648
0.92956966,64.05246
0.79533315,68.29307
0.82865304,61.585896
0.9144611,60.533966
0.8098117,61.7757
0.83306676,56.125107
0.80162996,60.557693
0.7870531,63.365753
0.77917755,59.67585
0.66936994,62.923565
0.7171719,61.240997
0.6377835,60.632236
0.63930696,60.637558
0.590663,58.669216
0.59295666,59.93995
0.52453303,62.587955
0.50313485,61.557003
0.5321561,64.523575
0.55492866,64.78172
0.5777074,69.779594
0.54295534,67.14819
0.59605765,63.488007
0.6142364,67.07363
0.6378872,72.777214
0.6679791,74.11544
0.7551921,70.32212
0.74802184,75.47033
0.82275707,72.664444
0.91060686,75.98017
0.9398839,80.25703
1.0267694,81.11355
1.1659709,81.30662
1.1491886,86.3969
1.3356891,88.99954
1.3236859,89.64982
1.4555558,86.79022
1.4873581,87.53294
1.6405126,95.62603
1.6521155,97.228676
1.7602233,96.36038
1.7271465,96.41641
1.749604,98.930466
1.8528109,100.94073
1.8095701,104.707085
1.9557883,104.89818
1.8885965,104.68854
1.8758296,107.22197
1.9170616,111.99805
1.9832386,109.73192
2.010366,109.7626
1.9997455,114.225975
1.9011216,108.03061
1.9663917,110.84475
1.9459034,111.942314
1.994804,113.04996
2.0595381,115.61696
1.9684731,113.78239
1.9648056,110.514946
1.980857,112.45137
1.8827648,113.030846
1.8934616,115.568726
1.8299379,111.675705
1.8903977,114.068115
1.7941188,107.564766
1.7232503,111.40545
1.8071231,110.59695
1.7780117,108.48679
1.7203327,105.38018
1.6128734,110.88501
1.672905,104.39583
1.6896006,108.70393
1.5739993,103.74916
1.5574545,103.247696
1.5464045,104.93131
1.6068703,105.516495
1.5661683,101.809715
1.5268078,103.94202
1.4948007,103.283195
1.4468572,98.19366
1.4436369,101.04064
1.4380387,93.87035
1.5192345,94.15903
1.5391154,94.24341
1.414892,97.35407
1.4509505,92.41707
1.4339428,94.93655
1.3671224,93.502655
1.3906455,90.966866
1.3475829,85.6448
1.4363062,88.47307
1.3200239,84.934105
1.3421483,83.04434
1.2746419,81.88774
1.2279602,86.99289
1.1813409,85.72733
1.1539811,81.35053
1.1216699,82.026566
1.1283584,79.05419
1.1109978,79.907364
0.9963971,81.20486
0.99701524,75.82432
0.9610007,75.56817
0.93031144,71.8692
0.8844896,75.54547
0.8998146,72.621056
0.87447137,75.62486
0.79309994,71.18072
0.7802511,69.64957
0.8097658,67.95536
0.79523873,59.738537
0.9035002,67.453186
0.76845396,67.743034
0.795496,66.8954
0.88935477,63.679417
0.7767882,65.622734
0.82624966,60.95224
0.8339312,65.304886
0.72547865,63.347088
0.73671556,65.93629
0.8281219,58.185875
0.68419397,60.075714
0.6489087,61.282204
0.69246584,59.342022
0.61049455,58.404163
0.5535642,57.196884
0.512801,60.24031
0.5106823,62.26561
0.50084513,64.24617
0.48736474,64.19939
0.4561586,62.62394
0.38304043,66.022865
0.4334209,61.92362
0.29877356,59.758495
0.33566386,63.85566
0.4098497,65.950806
0.41435447,70.14386
0.40543357,68.57242
0.47179824,69.91011
0.50156826,75.56472
0.60327923,77.36311
0.6350082,73.72887
0.79997706,76.87058
0.78858054,77.0001
0.8025071,79.95161
0.9359979,82.48729
0.99897474,84.135635
1.0314852,83.20438
1.0899216,86.64523
1.1829566,89.01872
1.2135346,90.612175
1.3593353,88.55817
1.3771077,95.35969
1.5178511,98.83884
1.5187082,97.60334
1.4713082,93.726906
1.5486685,100.10721
1.5594085,101.238625
1.5380939,102.30353
1.6257566,108.47735
1.6929736,107.27269
1.6026245,106.745
1.6516235,105.11921
1.6237518,110.89479
1.6233684,113.47739
1.6215914,110.27263
1.6813636,111.79748
1.6474259,113.04122
1.7027508,114.671936
1.7582808,113.23901
1.7562555,112.46805
1.6443089,112.72345
1.6464766,111.5296
1.6463952,115.049446
1.6466075,112.972755
1.5896953,115.355995
1.5732982,111.853264
1.525885,117.21453
1.4923197,111.3971
1.5114416,112.833954
1.486677,108.64831
1.5061187,108.56525
1.3271214,110.42003
1.254014,107.67423
1.2668388,105.04824
1.2807866,109.91109
1.2492809,108.97318
1.2377814,104.67319
1.2782868,105.010414
1.3033837,103.76431
1.2071818,102.84221
1.1874142,101.261635
1.0780005,100.235985
1.1683303,95.60066
1.087927,99.28207
1.0824112,93.90006
1.1211209,95.05211
1.0513436,91.195724
0.99976367,95.90831
1.0930132,94.3659
1.0690769,89.48056
1.0633585,90.12985
1.0399272,89.980064
0.99444103,88.8688
1.0109669,88.00092
0.9781347,84.92956
0.8261663,89.32485
0.8600851,86.0901
0.73475164,83.40976
0.78827256,82.05186
0.7800278,79.65112
0.61617726,82.449776
0.6931122,79.50332
0.6822348,81.7768
0.646175,76.95971
0.5018757,76.7639
0.56891346,76.14933
0.45983252,74.17826
0.509521,72.26759
0.47729427,70.99
0.43737748,68.75243
0.43153146,69.45829
0.46023694,73.550545
0.37607267,67.00094
0.40807906,70.01995
0.48145175,68.01511
0.45796418,66.700836
0.49198085,69.228
0.45152387,65.150604
0.48696882,64.89764
0.39801127,66.3888
0.4082178,61.058807
0.31618708,60.12921
0.30043918,59.19513
0.27725422,59.775394
0.28015736,63.579517
0.24715851,60.840122
0.18964966,59.79018
0.13251135,54.644077
0.18688945,56.84526
0.08096896,62.297543
0.07791161,60.910408
0.12299672,57.780235
-0.013325645,61.53276
0.003804356,61.693527
0.04684493,62.19014
0.009653781,63.65178
-0.042140104,62.915104
0.03943843,66.86944
0.04731647,65.852356
0.05262652,68.97125
0.01772891,69.18794
0.122967914,65.702415
0.17956792,71.4267
0.16320743,71.43953
0.302579,74.85711
0.3863679,71.393684
0.4148037,82.1426
0.45995176,79.12664
0.46908975,82.77132
0.57708454,84.53798
0.78239554,84.11512
0.8402715,84.79901
0.9505623,89.56369
0.94664687,97.13376
1.0517979,89.8918
0.95194197,93.687386
1.0693465,93.89573
1.083153,97.50409
1.1145996,100.99764
1.2032114,99.84347
1.1940392,106.56018
1.3462054,101.45075
1.2746418,108.64697
1.3074595,108.42028
1.33587,107.77769
1.403968,107.513245
1.3853716,112.63765
1.3452965,109.00447
1.3069326,109.88456
1.3948551,113.136665
1.3214277,112.443146
1.4502872,113.79552
1.315375,114.85414
1.3763529,111.324844
1.2651331,115.987976
1.3394514,117.29439
1.2624573,113.92838
1.34441,114.269135
1.2853143,112.67639
1.2914612,110.21706
1.1377742,113.53034
1.2496051,109.14288
1.1608171,113.20269
1.1028434,106.90066
1.2234477,112.43112
1.1318951,111.18126
0.989637,108.232834
1.0053562,107.717354
1.0476668,110.52835
1.0312239,101.14562
1.0369409,104.14099
0.9984686,105.88336
0.9894507,100.94485
0.9681017,103.720116
0.9824151,97.51433
0.96086234,98.21844
0.87503994,98.89548
0.96617573,96.95013
0.97780645,100.541115
0.9043093,95.5758
0.8774232,92.27502
0.9060005,96.56026
0.79539675,93.39687
0.8552211,89.956825
0.88503945,87.834816
0.83597434,87.702805
0.79920715,90.596504
0.8183436,90.362526
0.77240175,87.31933
0.69627506,85.01764
0.7353888,81.99729
0.6870807,82.42674
0.6311015,86.41778
0.5867323,82.126465
0.5479003,83.03678
0.555145,76.74771
0.40228772,79.49821
0.50304604,77.71186
0.45554167,80.12112
0.34025523,77.35727
0.42579976,76.98265
0.3719945,72.63135
0.3568564,77.22218
0.40166825,71.798294
0.38674736,72.313896
0.43279508,65.81463
0.34717283,65.962166
0.45324722,67.19707
0.29802254,65.66234
0.4724159,69.40215
0.36703143,68.72812
0.3678531,67.77067
0.4307533,61.725903
0.36173368,63.621708
0.32907036,60.416203
0.30142102,64.28005
0.30057403,60.472836
0.31580883,60.976063
0.33211634,60.215755
0.2105755,66.89061
0.15396331,61.4674
0.15593547,60.530876
0.13970816,58.192074
0.21492326,58.811367
0.016198454,63.995884
0.06674627,58.501854
0.05785043,62.644497
0.015778348,62.455086
0.040437955,57.282047
0.01907969,62.21527
0.02212153,62.955055
0.072523296,66.01393
0.08838557,68.971306
0.13081172,65.44583
0.081870176,67.60311
0.1766953,68.82569
0.25263894,73.54073
0.2842309,76.29901
0.38954574,76.61693
0.4838233,79.50535
0.4765304,80.95129
0.6099417,77.54636
0.75967085,81.543205
0.7134823,83.26708
0.91822076,83.65168
0.9074732,86.42416
0.9958188,89.60179
1.0046571,88.40147
1.1414541,92.34256
1.1717763,92.51207
1.1763983,95.5234
1.2221605,99.36825
1.3582511,101.89118
1.3270136,101.480736
1.5546023,98.51717
1.4073616,103.873436
1.474188,102.3182
1.4943498,106.50156
1.5802956,107.64702
1.5364752,108.85687
1.6434809,107.49263
1.5310787,111.811485
1.5265118,112.066216
1.5105125,111.47656
1.6041434,112.16751
1.5763384,114.61905
1.5344982,111.217995
1.5481443,114.570946
1.55698,113.208115
1.5708576,112.02376
1.568475,110.504105
1.5318625,113.494415
1.5432686,110.47285
1.4865288,111.04889
1.4226112,114.08443
1.4283589,114.39655
1.4382802,108.18655
1.3956441,108.275604
1.380545,112.23791
1.3283226,104.74831
1.331427,107.96291
1.302595,109.405426
1.3254132,104.589165
1.2861159,101.59661
1.3019209,105.11272
1.3139793,103.67945
1.2409581,102.08139
1.247772,100.235054
1.1864262,104.42122
1.2014393,99.57126
1.2293018,94.85586
1.1336585,92.62964
1.2124362,92.56549
1.1553375,96.325966
1.2092595,95.622696
1.1772968,92.74654
1.2517209,89.80115
1.0886863,93.443214
1.2271746,89.27151
1.1623899,92.142105
1.1879044,87.243195
1.0918441,82.9951
1.0589488,85.73041
1.0428104,85.89326
1.0196079,82.840904
1.0401456,83.972275
0.9922509,81.12896
0.9332742,79.623375
0.80752194,83.338844
0.8584629,78.22009
0.834249,80.18358
0.76546365,74.74293
0.8189479,78.812195
0.7434078,74.801765
0.7934305,74.7605
0.6965788,75.61026
0.78832424,76.1979
0.7387547,65.00313
0.7236091,71.72682
0.7600453,70.27851
0.7296178,67.07954
0.7364225,65.03178
0.7381883,67.461784
0.76714575,67.214386
0.804823,65.83785
0.6981256,61.02518
0.8022548,60.521664
0.77264667,61.324383
0.65680623,60.813606
0.6844306,62.00613
0.6610199,61.939262
0.65574193,58.968185
0.59864455,65.92223
0.55200976,60.27773
0.6229932,58.55288
0.5405387,65.95206
0.4870524,57.129356
0.5370828,59.893696
0.42851457,59.25359
0.5072103,61.463993
0.43289652,64.30616
0.45548183,66.429596
0.42901218,60.89159
0.43643805,72.23022
0.42515355,64.995476
0.43760982,65.17148
0.37224576,65.279915
0.53804296,73.19363
0.55220085,66.65799
0.5897853,76.36163
0.65570766,69.564026
0.74478,73.4471
0.7960057,76.39018
0.84782803,77.29476
1.0483756,77.66767
1.0518054,82.739395
1.1264563,83.620544
1.191216,82.76334
1.1888769,89.48673
1.3288593,88.63703
1.3678827,85.59614
1.4876845,93.678314
1.446887,94.22284
1.59408,92.529
1.6196406,102.20215
1.6779165,97.75319
1.7708595,99.83145
1.7610649,104.254074
1.7843348,99.785034
1.8601431,105.63143
1.887407,106.216965
1.7975909,104.67747
1.9027714,111.98761
1.9174943,111.13576
1.9521141,115.24027
2.0125945,109.7208
1.9226846,110.79511
2.0012062,109.877625
1.9682094,109.59141
1.8333089,113.24308
1.932667,113.9021
1.9781252,110.8471
1.9421129,111.712105
1.9103341,115.84329
1.8670348,111.427475
1.8698637,117.015335
1.8432678,109.82707
1.8212539,112.18439
1.7998515,116.150986
1.8357363,110.10551
1.7391883,106.74211
1.809991,104.77195
1.7135962,108.02574
1.7153252,110.2158
1.6211758,103.08475
1.5738194,109.43336
1.5397784,105.91498
1.5522292,106.688095
1.492906,98.933586
1.5659316,104.57729
1.5151993,102.79181
1.6430343,102.293785
1.560654,99.97273
1.4842339,99.569984
1.5166345,97.40287
1.5081853,96.10239
1.5248638,96.44366
1.4324541,94.490944
1.5963389,97.97306
1.4773008,95.1845
1.4706053,90.91265
1.4400611,89.11809
1.3610209,92.722305
1.4118009,88.170525
1.3526524,85.18982
1.3653454,86.87454
1.3209081,83.98772
1.2705582,87.29263
1.1994946,84.22011
1.2066628,82.19133
1.2393981,81.024345
1.1306769,83.92835
1.1220895,80.682175
1.040743,79.945984
1.0518347,76.83359
1.0583842,78.69136
1.0103853,76.471466
1.0249603,70.73271
1.0264087,74.31421
0.8726326,70.49174
0.92723113,67.864105
0.8402926,71.633026
0.87722194,67.93052
0.92238295,69.13031
0.8494995,66.5924
0.91324973,69.91715
0.9636978,65.25003
0.9491462,70.416794
0.9226523,65.127975
0.9492922,62.84667
0.88519216,63.640575
0.87846017,63.481842
0.89200354,58.662308
0.80028737,59.21756
0.88609695,61.2376
0.7823771,60.830986
0.7204618,58.45975
0.8707695,60.731377
0.7240843,60.660515
0.7560982,57.929344
0.54739916,60.43435
0.5867577,64.07153
0.6008234,55.81892
0.58498573,60.696777
0.4838866,62.479397
0.58689326,62.92995
0.6103257,65.9553
0.5547997,65.04071
0.56343883,60.963436
0.5524714,65.60106
0.5998201,63.359398
0.6569291,70.046425
0.66477853,75.33901
0.6446107,69.64008
0.6903907,74.31477
0.80808336,73.96812
0.913997,76.668564
0.8572015,77.70122
1.011805,81.25464
1.1257387,83.801834
1.1777267,83.55876
1.2576088,83.53405
1.1983795,86.51143
1.3478222,92.88967
1.4224336,93.894714
1.4591664,95.319176
1.5802006,96.45546
1.6364408,97.900185
1.7171091,98.35702
1.6735877,98.604225
1.7115773,101.52941
1.7531078,104.42882
1.7828383,103.98415
1.809902,107.54401
1.75986,109.2225
1.8026267,104.80084
1.867287,108.54633
1.8315405,109.14786
1.8642099,108.77429
1.8295352,112.70964
1.8733858,110.182755
1.8660853,115.87903
1.8584578,110.66544
1.7953616,113.57032
1.7491127,115.57615
1.8516712,112.339165
1.7530147,116.661385
1.7840344,116.69453
1.791051,113.54258
1.7451792,113.212616
1.6780658,109.72567
1.7198478,114.48923
1.5752202,110.469574
1.6017376,111.49107
1.6363249,110.33928
1.5487415,107.74606
1.5476418,109.28435
1.5891134,104.3976
1.4640883,107.50868
1.408682,110.16804
1.4190804,106.16622
1.3639616,99.04912
1.3532716,102.980484
1.3810823,101.48772
1.3031148,101.21357
1.3062097,98.5553
1.29061,100.83689
1.3353009,105.998344
1.2972248,93.905334
1.2985017,94.826706
1.3349108,96.594025
1.254312,94.35894
1.2019829,92.826294
1.2323737,93.98397
1.1724885,93.420494
1.2413106,89.75397
1.1876057,85.67769
1.1692088,91.44568
1.0747957,90.03621
1.0499283,86.367874
1.0516816,87.02758
0.9953476,85.05342
1.0213134,83.76338
0.9755849,79.91894
0.92510146,80.84414
0.8760676,80.46147
0.8191698,76.66394
0.8012088,81.59407
0.771848,78.07698
0.7582419,73.98154
0.6179116,77.83503
0.68386686,74.51389
0.629628,75.24172
0.570438,74.43475
0.6099012,71.60161
0.6497226,70.22157
0.57727283,69.51594
0.57226485,68.00062
0.5616237,68.17499
0.63114077,68.92504
0.66200775,68.69716
0.57457966,63.705936
0.596452,67.40085
0.58480597,61.567074
0.530644,68.3312
0.616099,63.611225
0.4569524,60.65554
0.5071724,62.238945
0.40031222,60.837624
0.4657067,61.057976
0.44924885,61.475487
0.36188236,60.921345
0.30418012,56.212517
0.3379643,57.718575
0.2551461,60.339085
0.26894343,59.17938
0.15715523,59.722645
0.17160502,61.490948
0.14944272,61.795357
0.19089817,65.255356
0.15124625,60.3728
0.095187604,62.753372
0.12907954,68.18836
0.12199422,64.6506
0.2369291,68.71171
0.21303375,71.64501
0.21666089,68.60246
0.35424027,69.86027
0.36765045,72.57718
0.4123937,72.86145
0.41331354,82.761215
0.6260623,77.77354
0.6384447,86.890594
0.70899534,84.30041
0.8354291,86.58341
0.8240955,86.51845
0.9702552,89.21396
0.95534444,92.945465
1.1141177,95.295395
1.1127763,92.33772
1.1066616,97.45512
1.2003231,96.870224
1.2650237,95.89707
1.2065637,97.02715
1.256733,103.6139
1.3486049,106.59454
1.393316,105.6275
1.4050808,105.7525
1.460329,108.468636
1.4601398,107.07282
1.4194155,107.93981
1.4140183,110.37996
1.4290717,111.142876
1.4749669,113.60113
1.3741037,113.69368
1.4413519,113.627464
1.5171008,112.32863
1.4992167,110.261475
1.4476743,113.34168
1.4637134,113.86141
1.4423146,112.63332
1.3128481,114.35566
1.3200132,115.65632
1.38727,109.56846
1.3227484,110.470955
1.1756163,112.16086
1.2537055,110.5615
1.1579987,112.95201
1.2137212,106.51499
1.1534339,109.99154
1.1274607,107.430084
1.1741096,107.3725
1.0974118,106.362625
1.090366,108.555435
0.98787147,101.67206
1.0328418,108.24967
1.0100448,105.12003
0.9279996,98.92053
1.0800537,98.47793
0.9155941,98.89076
0.977312,99.1999
0.89623404,101.258095
0.8880435,91.72762
0.9800357,97.362526
0.9039579,94.246574
0.94430625,93.92019
0.8669951,93.72511
0.84084636,89.277275
0.83608603,90.176704
0.83629113,90.87407
0.78084,90.390434
0.8173476,89.70096
0.77690065,90.38011
0.70232606,85.2883
0.6785092,89.698494
0.686306,82.56625
0.6414847,84.83648
0.5985143,80.58512
0.55518615,84.869484
0.45320272,82.60164
0.505218,76.77347
0.3894611,77.84449
0.47052717,74.283165
0.37972313,80.95243
0.3851742,75.997284
0.41526914,73.71253
0.371275,76.188644
0.4505786,73.2867
0.24823262,70.98166
0.28185073,71.523994
0.24200271,70.773735
0.37425196,71.59894
0.29920727,65.16487
0.25200626,67.217
0.41331634,63.104546
0.22271395,63.04183
0.28960967,65.15551
0.3447111,65.04531
0.27346775,64.51307
0.22548364,62.612476
0.24627136,59.347412
0.23519298,60.4361
0.20119034,61.285015
0.17362313,57.25458
0.14614454,60.225395
0.0631863,58.928055
0.079331316,59.42448
0.14839901,57.208195
0.06763748,60.921432
0.039743032,61.90441
-0.056700017,61.65909
-0.10269389,66.68889
-0.09049732,63.32362
0.037436932,64.22198
0.012540641,62.81321
0.03563858,64.61039
-0.061276518,66.40725
0.089614384,70.052185
0.03528749,65.75717
0.0890771,70.90175
0.20243366,70.94296
0.15968676,70.470314
0.27014706,76.450134
0.34478316,71.757576
0.33173272,76.603264
0.47561413,81.183945
0.52040654,82.92301
0.61282367,83.5057
0.72678906,85.41646
0.82856613,86.42854
0.8037259,83.33902
0.89901537,89.27282
1.0313447,86.75519
0.9830858,90.85445
1.0786784,97.74716
1.082146,99.567406
1.209654,97.10978
1.1979382,99.688896
1.2984993,102.873924
1.3499643,102.87038
1.3916963,101.60081
1.3355622,112.68856
1.4091196,106.54651
1.4592578,108.44467
1.4358699,112.36182
1.4304317,111.411194
1.4246954,111.74011
1.3287086,112.72598
1.398806,111.88975
1.3994626,113.44541
1.520239,114.05176
1.4660631,112.95558
1.4499216,110.87585
1.4547534,115.74839
1.3239131,113.06473
1.3879966,115.65761
1.3412087,111.81939
1.4110789,113.55297
1.3008754,113.87914
1.2910211,109.806725
1.1927496,112.45476
1.3176963,111.872696
1.2477154,114.06573
1.2179139,110.96664
1.2365389,108.17184
1.1922097,108.78851
1.0689125,107.70535
1.2112623,108.21659
1.1179878,107.9188
1.1177278,104.31252
1.1110463,105.18924
1.0546632,97.39912
1.1094736,101.578064
1.083942,98.51307
1.0019921,101.827675
1.059118,97.68314
1.0861466,97.29972
1.0575236,93.841576
1.028634,98.579994
1.0566393,92.408356
0.9707465,94.81191
1.0093789,88.932785
0.94811904,92.400566
1.0149597,88.63945
1.0268682,90.15885
1.0020726,91.64927
0.94684666,86.48953
0.90439314,87.64558
0.8238941,84.371414
0.81261677,81.26035
0.76968884,81.22467
0.7695595,83.23057
0.7338751,82.98985
0.701251,76.063
0.70714194,77.01993
0.6698585,78.61287
0.7116421,78.70455
0.5982461,77.15349
0.54087764,76.1608
0.67624676,73.882225
0.51177746,74.17828
0.5426587,70.42738
0.5494728,73.52427
0.54281056,71.46907
0.70090836,71.95391
0.6113181,66.68686
0.55837774,66.48217
0.4927462,65.695786
0.6566371,62.70564
0.55523735,66.56347
0.61739284,61.839706
0.5476198,64.34571
0.48938662,59.591095
0.54221106,59.856297
0.558526,65.51634
0.48823673,59.66413
0.491942,57.082947
0.441973,56.691505
0.5320021,60.0577
0.3768175,58.024063
0.39396635,59.4716
0.3576426,56.72917
0.3110544,62.83393
0.35114142,62.457993
0.30399683,65.18583
0.33486772,58.458435
0.28635108,62.50189
0.25193426,64.14945
0.3281782,64.18132
0.29661173,64.835464
0.35025123,69.52606
0.3309794,66.59008
0.42718598,67.75398
0.43796268,65.923744
0.47739875,73.41626
0.61015475,67.73553
0.60955036,75.81456
0.6720317,75.1299
0.71690816,77.72308
0.8698385,78.831276
1.0157686,81.15873
0.96422386,86.16994
1.0652819,84.636955
1.1081091,88.02585
1.1445557,88.917076
1.3521051,89.20127
1.4132725,95.994965
1.4261203,97.16783
1.4511276,97.72524
1.5276148,98.41209
1.6539288,101.58095
1.6227833,103.08283
1.6745274,107.77719
1.6818548,107.21969
1.6381879,105.62771
1.6798121,109.83638
1.787365,110.149055
1.7205881,111.39548
1.7875437,109.4129
1.796009,110.46193
1.8833787,113.99212
1.8225521,110.82796
1.774824,106.89796
1.8592495,111.15889
1.7530016,116.02636
1.9049306,112.463974
1.7957867,111.88835
1.804651,112.66974
1.8161443,115.196014
1.7786564,114.67699
1.6967263,113.62228
1.8494235,111.97669
1.7064152,111.334076
1.6931691,112.191376
1.6611793,113.87136
1.663252,108.47136
1.6967545,108.02328
1.6620569,107.52076
1.573538,103.11162
1.4946703,109.46847
1.5420661,109.96143
1.5546993,100.47404
1.5134227,103.62822
1.4951187,105.53969
1.5152462,101.78936
1.4700749,102.692604
1.3882381,100.511314
1.5075909,103.05629
1.4494845,94.8348
1.4397255,99.27327
1.4573774,95.53671
1.3199402,96.18188
1.3240596,92.48704
1.4445182,97.60819
1.3462842,94.08531
1.4362959,90.95893
1.3026661,91.39356
1.4663384,90.617065
1.4114271,85.849556
1.3301573,85.125694
