ppg,abp
1.0753467,78.96357
1.0384266,79.90144
1.1914729,81.28984
1.2420708,85.263
1.3116109,81.60946
1.4287268,83.29738
1.4284247,84.05459
1.533578,84.65042
1.4730189,89.37205
1.5322231,84.625534
1.646441,84.65665
1.6140453,89.8816
1.6079489,87.07593
1.6944333,88.560196
1.7228085,84.43343
1.7177188,90.29702
1.780546,87.71304
1.7525927,88.8427
1.6821374,90.18791
1.7950019,91.67368
1.7128681,88.45261
1.7133464,88.164856
1.7262486,88.932014
1.7090588,87.11289
1.7315769,93.00556
1.5917004,87.823975
1.6906499,86.81104
1.6928761,89.78195
1.6442744,86.33275
1.6820807,88.966324
1.6710904,91.30016
1.5901486,88.44276
1.5878069,92.25497
1.5656385,89.81429
1.5530559,87.93007
1.5654556,90.084526
1.5190375,85.43034
1.5750165,87.97673
1.4197572,85.755554
1.5044428,87.09316
1.389562,88.51278
1.472795,89.308846
1.4073067,84.149475
1.4103639,83.071465
1.4304872,87.67054
1.3717066,87.16362
1.4113214,87.859665
1.3914106,84.51461
1.3530568,87.28111
1.346826,85.85988
1.3861023,81.29474
1.3376169,78.85772
1.2958115,83.6799
1.3385259,81.787476
1.3738061,88.40636
1.3474326,76.22304
1.3478212,84.21391
1.306227,86.020035
1.3153884,78.86
1.1265845,78.65246
1.2128521,81.71962
1.146312,75.81489
1.1006018,80.164734
1.2102075,76.01819
1.0176054,78.67322
1.0994294,77.85947
1.0714241,76.20165
1.0179158,79.23476
1.034809,73.6096
0.9941929,76.14439
1.0041773,76.49892
0.9292711,77.58812
0.88521993,73.71255
0.9537668,73.47259
0.9233509,75.0092
0.87176615,78.43028
0.8161855,75.530426
0.9811096,72.84875
0.859308,70.10883
0.8751673,70.75377
0.8821615,69.74087
0.92403066,71.34665
0.90954065,72.976524
0.92337376,72.52401
0.89826953,66.29424
0.8239298,66.38558
0.78179675,70.28245
0.796466,69.42241
0.7965341,69.54059
0.77238977,68.854225
0.6780266,71.04876
0.78225094,67.03932
0.755094,67.776764
0.6803134,69.26887
0.6458314,68.761604
0.5491169,69.63712
0.60711056,72.16297
0.5818976,67.22421
0.5447804,70.984795
0.52623373,69.209625
0.573757,72.720055
0.4712032,72.09211
0.54507023,69.195755
0.58389634,70.85551
0.49297452,71.33831
0.6148899,74.95335
0.6082056,75.432785
0.6263396,74.72406
0.77280486,72.17187
0.806577,70.11648
0.8485559,76.58784
0.95314324,71.15351
1.0282426,80.27175
1.0064399,75.81649
1.0575721,78.446915
1.1264056,80.560036
1.2978429,79.03082
1.3210385,80.42288
1.4262695,80.99312
1.484441,82.598564
1.6036481,74.55048
1.5837945,78.09184
1.601231,84.53551
1.6608697,84.24285
1.8043009,82.77789
1.7725904,85.807365
1.8699632,82.15523
1.9033121,85.950905
1.9491785,88.47036
1.909137,88.80027
1.8737955,91.74739
1.9528903,87.954315
1.9732213,90.389725
1.9670045,83.863106
2.0072565,90.556564
1.9523239,90.65332
1.9207202,86.748436
2.0125,89.998215
2.014625,93.85877
1.9885908,84.17961
1.9345912,92.19401
2.010595,89.651
1.8876206,94.038475
1.8957826,91.86644
1.8753663,92.323074
1.8129983,91.811935
1.828479,90.73714
1.8448356,88.741554
1.7951703,91.4793
1.7830617,91.94496
1.7662945,90.54423
1.6770189,93.57292
1.6863917,89.727615
1.6911491,88.92214
1.6826619,84.33844
1.6860477,87.73298
1.5861199,87.12577
1.5901088,86.528465
1.5117242,85.98338
1.533667,88.53333
1.497246,85.54884
1.5032133,85.89282
1.4945154,85.45487
1.505265,85.837975
1.4356095,87.50096
1.3856012,81.60582
1.4950993,82.736916
1.4121639,84.41395
1.500452,81.35369
1.4085454,83.89632
1.3550569,84.679276
1.3675929,85.65368
1.4033253,82.899185
1.4765193,81.17775
1.3680482,80.3378
1.2469218,78.77353
1.2796338,75.81993
1.2333074,76.95391
1.2656134,76.79181
1.269938,81.69673
1.1675253,80.174614
1.1777799,77.76367
1.0951908,78.132545
0.9681205,73.78593
0.99686986,80.1008
0.9624113,78.11843
1.0101875,78.56308
0.9863927,76.133255
0.88182366,73.34977
0.89584213,68.890526
0.865624,75.475525
0.8942744,70.75659
0.8042607,73.16901
0.85792166,73.41159
0.8617064,79.47531
0.79895115,73.93004
0.87776953,71.89257
0.7450921,71.71801
0.8353329,73.846886
0.8306912,69.14816
0.81515276,69.93169
0.7587216,68.09802
0.81293756,69.51505
0.77981293,70.034325
0.76492834,72.12603
0.6808971,72.62164
0.7111348,70.598656
0.6259876,69.77134
0.5861907,73.97707
0.5878972,69.524025
0.5466154,66.46496
0.55593276,70.18789
0.4822272,70.03704
0.4900429,68.702774
0.35843402,69.28378
0.39307716,64.63122
0.3932748,69.530945
0.3254748,74.33323
0.38034087,71.92985
0.394119,72.87748
0.42045388,71.52461
0.48000887,68.43237
0.50560474,68.82916
0.47008592,72.233
0.54162747,70.91938
0.53549206,70.23764
0.48817724,71.20114
0.56456864,77.886925
0.7129949,77.01053
0.8322627,76.387436
0.7688228,80.41887
0.8387654,76.59437
0.9453923,79.6152
1.0032455,77.71492
1.158953,81.09527
1.1214763,80.95994
1.1384512,81.85888
1.2389449,79.63934
1.324976,84.53319
1.3096724,81.96904
1.471627,85.75485
1.431088,83.95836
1.5188493,83.26766
1.5636227,85.80952
1.5515008,85.50411
1.5692539,87.54172
1.6614895,86.97914
1.5994877,87.8956
1.7286621,92.58932
1.633997,90.28734
1.616525,89.32544
1.5767952,93.39709
1.5860152,91.91509
1.7054343,88.63484
1.6854167,91.70186
1.6831065,89.51488
1.6337432,89.684586
1.5882794,93.38811
1.5609369,93.46377
1.5674688,88.9544
1.6234163,91.896545
1.6442025,91.04967
1.5050046,92.237785
1.608809,94.111374
1.4915873,90.145096
1.3236454,90.558044
1.427711,91.01746
1.4610504,89.32078
1.389252,89.99579
1.1995223,89.417915
1.2799597,89.49172
1.2225177,87.587524
1.2038608,87.13246
1.2465563,86.35403
1.230112,86.88395
1.2062747,90.282906
1.276041,84.66825
1.140883,82.39883
1.1568465,82.59563
1.1455697,90.68879
1.0295584,80.82391
1.1659921,81.86436
1.1624846,83.62842
1.0733684,81.22776
1.0669272,83.09712
1.0926336,81.26145
1.0780238,87.55508
0.97173846,84.87744
1.0306352,84.369095
0.95832646,79.368034
0.9505511,83.06516
0.94348145,84.18545
1.0274222,83.19161
0.9022272,78.449036
0.8160263,79.73583
0.8121444,84.4003
0.7697723,80.48424
0.8354026,78.19571
0.72447634,76.15833
0.6015529,77.109535
0.6108781,76.2907
0.6087839,74.35393
0.57942545,73.64163
0.5815422,73.50975
0.53393155,79.0237
0.5343893,74.832436
0.4490421,75.65089
0.5203442,72.943924
0.480295,77.92019
0.4214451,71.49778
0.52936494,69.76419
0.4065912,71.647675
0.4488735,71.57227
0.35302636,71.64537
0.42166182,72.79501
0.44622898,70.10185
0.43565732,73.42484
0.39909914,70.79066
0.38877904,67.87836
0.3677875,70.053444
0.31001347,71.61
0.4085858,69.58155
0.37818307,65.70237
0.31720144,73.386314
0.28131694,69.54054
0.25850296,68.445816
0.19143645,71.687645
0.18073344,74.16731
0.08419347,70.378426
0.20745887,66.33401
0.122679904,68.11309
0.018429171,68.72958
0.14134373,65.111206
0.0034584398,68.271454
-0.014230851,68.50171
0.0214137,70.95498
0.021953978,73.68617
0.027249547,73.099236
-0.07311636,70.166046
0.03393916,72.78512
0.059313346,70.38733
0.07544755,71.34517
0.13890196,72.57554
0.11146597,73.65429
0.1702623,70.491295
0.36226445,75.50624
0.38235995,76.96
0.43605858,77.99343
0.4724694,76.94927
0.5108592,79.165016
0.70236987,77.70007
0.7002944,83.47616
0.8349583,79.21133
0.83396035,80.81614
0.99046326,83.584236
0.9579005,79.03201
1.0583353,84.04491
1.1012449,83.711075
1.2411704,84.42091
1.1420846,84.54304
1.2933182,87.5914
1.3065658,88.535324
1.2858268,85.43001
1.2946918,84.42217
1.2705339,86.646675
1.3309754,88.938995
1.3175317,90.15305
1.402157,93.894516
1.3984829,91.0537
1.4060357,86.874435
1.3381332,95.38882
1.3717563,85.52793
1.3092752,88.53951
1.372515,91.4602
1.3236051,89.65013
1.3432047,94.50734
1.3908031,91.15309
1.3750926,93.81339
1.2301276,91.36713
1.3867098,88.389984
1.2700691,91.87903
1.3319556,90.933754
1.3031623,87.884865
1.1650535,92.68615
1.2315792,88.33337
1.1701472,84.65206
1.1220931,86.83215
1.0644922,89.04497
1.0550287,87.870544
0.99941456,88.56506
1.0522888,85.078575
1.0019625,88.25509
0.99170977,89.83398
0.8783581,88.514946
1.0285586,83.9921
0.88489074,82.67266
0.9807185,85.8552
0.95072013,83.16504
0.913882,89.32179
0.9544117,85.45333
0.90898937,85.069725
0.8880599,84.749214
0.86963326,83.860405
0.83605546,86.79113
0.92236555,85.22061
0.83384264,80.04037
0.8843748,83.04398
0.844296,82.86227
0.8168599,79.6605
0.7888776,79.20377
0.8069491,78.98257
0.7699887,80.10483
0.65375733,81.08868
0.6268467,75.190834
0.6561281,78.16802
0.6430976,77.466125
0.654006,72.48009
0.5620705,76.100914
0.51434237,76.008934
0.5377283,79.492676
0.54049295,72.87905
0.4842085,74.04486
0.41642442,76.90445
0.39218342,75.93234
0.39671433,75.11495
0.41896784,78.20711
0.40927237,75.84084
0.38064632,77.1973
0.3324684,75.60947
0.37287614,70.56001
0.4305226,73.75923
0.38669783,70.71134
0.43952855,71.79152
0.4343032,74.53445
0.37448764,68.53047
0.2776118,69.90622
0.42923,68.89087
0.4213835,69.478455
0.37698036,70.11834
0.3984796,73.543915
0.25750974,68.19304
0.32256362,69.80705
0.26263055,67.76456
0.34735605,66.83846
0.2172624,68.316536
0.22452094,71.727135
0.16363628,69.59302
0.14827234,69.7208
0.13054597,70.03598
0.09472299,68.903435
0.11158165,72.12749
0.1302043,75.384224
0.067118354,66.25906
0.04375434,68.17664
0.007367912,71.216415
0.17592114,68.03499
0.20809798,73.290886
0.058956172,68.38338
0.27331448,71.10475
0.22808574,78.474266
0.34606034,73.08958
0.3351564,72.97955
0.3783544,76.91445
0.4533534,76.957085
0.61778396,74.24997
0.73820615,76.69709
0.72195184,75.498985
0.7297616,79.04195
0.85662585,77.7119
0.9533883,82.975685
0.9751929,79.64632
1.0573556,83.122154
1.1532353,79.74159
1.1853513,83.91361
1.1784112,87.26086
1.2610008,83.99705
1.372271,83.13287
1.4171811,89.42588
1.3917344,84.787155
1.4892309,83.07425
1.6316508,83.81839
1.488813,85.12562
1.5477396,90.630135
1.6664101,90.63804
1.566946,85.55998
1.5647844,95.3684
1.6222947,92.91252
1.6880089,91.202934
1.5905819,84.745
1.6642951,90.00974
1.5896264,91.532
1.5160996,87.21595
1.5223739,90.499985
1.5435619,91.22487
1.5637683,90.03144
1.6418419,91.94044
1.5953708,90.66398
1.5881548,88.30882
1.568928,91.55263
1.5079962,89.40113
1.4781224,86.3075
1.48812,90.35313
1.4352167,90.95141
1.4561263,88.828896
1.4831911,88.22619
1.3745818,92.17171
1.3557693,87.63153
1.3498111,89.68612
1.3252832,85.76003
1.3252329,87.65917
1.3191588,83.89628
1.3009672,88.90099
1.2908359,89.56212
1.3045262,86.993996
1.252608,87.36036
1.3184069,87.54683
1.2884929,82.76443
1.3215342,85.759575
1.2106054,81.29085
1.2420651,82.59751
1.2597446,81.48181
1.3331372,88.04786
1.2883656,82.55554
1.2278697,79.415344
1.1354432,84.11847
1.2160197,80.598526
1.2799424,77.69658
1.1322241,82.714775
1.1562806,75.73477
1.1141758,79.693184
1.1953543,74.081116
1.0558339,81.41317
0.9962934,75.32501
0.9447422,75.72141
0.9689039,77.02932
0.9992806,80.44466
0.9152922,74.921135
0.9200039,77.85878
0.89790636,78.020935
0.8926022,79.499565
0.8524783,78.68202
0.84773695,77.49031
0.77554387,72.00119
0.8281979,68.17678
0.8175102,74.26562
0.80589646,70.25399
0.87111455,74.243225
0.7855918,73.8352
0.8907965,72.697655
0.788312,68.009384
0.78124285,71.114365
0.893312,67.68583
0.8019784,70.045425
0.71284497,70.45952
0.8577535,72.35893
0.72012764,72.746475
0.7282959,69.86845
0.6999899,70.02573
0.7501475,73.2386
0.6566084,74.03173
0.6809309,66.41176
0.601644,67.77777
0.6300971,68.29251
0.616658,68.025055
0.517146,66.46179
0.5542907,69.766884
0.5134216,69.774254
0.51730675,69.63335
0.50827307,68.475586
0.4526726,70.414474
0.51764727,71.12124
0.43718335,72.810616
0.5336945,68.40112
0.58725584,74.22845
0.6533084,71.07317
0.53510743,77.50039
0.57571757,71.26022
0.7149041,72.85181
0.7462583,75.048416
0.7939076,75.32586
0.9436254,74.68905
0.9436368,74.44561
1.0729303,80.23073
1.1015159,77.73364
1.1689798,80.05077
1.2321954,82.0865
1.3270389,80.07665
1.3771981,81.69218
1.4429369,79.79138
1.4880443,80.23488
1.629183,80.42332
1.6090114,79.91344
1.717016,83.42032
1.7946033,83.46075
1.8055379,87.68868
1.7901394,85.94423
1.8908428,84.310104
1.8441387,84.38769
1.8693959,88.68617
1.9073405,89.33241
1.9254297,87.34345
1.939212,92.57086
1.9230362,88.15103
1.9678628,89.23415
1.9558475,88.83346
2.0011528,91.001465
1.9453349,90.25785
1.979064,91.45892
1.9655508,93.12391
1.9551063,91.031784
1.9653045,89.10329
1.9682448,91.8063
1.8276612,95.816536
1.8754195,92.48377
1.819044,89.491974
1.7958297,91.07351
1.8781734,91.41625
1.8374088,92.91157
1.7694297,88.75182
1.7626525,89.91918
1.8017259,88.08799
1.6950495,92.27375
1.6818268,88.05152
1.612748,89.64561
1.6818742,86.31982
1.6137239,88.53655
1.6369369,86.19961
1.577059,85.73369
1.5871354,88.8889
1.5803814,87.58962
1.5432031,82.768684
1.5626483,83.69017
1.5041165,80.88251
1.5532043,86.771
1.4392627,86.158
1.4798249,84.40762
1.4930036,76.93697
1.5281367,88.39461
1.4403964,83.29557
1.4354448,80.28763
1.4117521,83.759
1.4085487,80.48522
1.3635517,78.03986
1.3367752,81.03597
1.361664,84.46285
1.2784215,79.85742
1.2957262,82.56081
1.350297,78.10146
1.2068132,79.31614
1.2049536,80.948814
1.1573116,74.12184
1.1434548,77.95337
1.05515,73.73637
1.0268037,78.522995
1.0098249,80.40587
1.0562348,72.36369
0.9939751,74.52439
0.93501407,78.74049
0.9575286,72.43938
0.9968522,74.24124
0.86788535,74.20453
0.9596858,74.98415
0.86711663,74.935555
0.8654478,78.45481
0.9400332,71.40445
0.9609644,70.96568
0.85744643,68.44333
0.8404196,69.870674
0.872847,69.91872
0.8933517,68.82318
0.7877752,68.820755
0.8449918,69.23823
0.82788926,72.71505
0.7748596,72.30793
0.796133,70.53121
0.8042999,71.11907
0.6073807,70.76574
0.7219941,66.01174
0.71505165,67.02328
0.6249566,69.44235
0.62939656,66.24336
0.59113324,69.80804
0.5348586,70.86752
0.52960265,71.075714
0.4453939,72.030174
0.43041745,70.68597
0.3814774,68.082405
0.511518,70.38365
0.46381634,71.062294
0.51656324,75.07758
0.5138045,74.62716
0.4839901,76.24284
0.6111733,71.48049
0.6127862,71.72379
0.6654397,72.28003
0.69557595,74.83354
0.70748544,79.689026
0.7644394,75.98464
0.8823031,76.88078
1.0247777,72.143425
0.9673179,82.78589
1.0689472,80.33582
1.0589356,82.508705
1.1712338,80.23635
1.2956244,78.375465
1.281826,79.79619
1.3792174,83.42859
1.3568445,84.06589
1.5020988,81.08564
1.482563,85.57863
1.6164706,83.53668
1.6803026,84.489944
1.627311,87.362144
1.6619368,89.067406
1.7569542,89.930565
1.7399461,84.82345
1.6982049,88.91035
1.7295291,89.45019
1.8473661,87.51969
1.7596271,82.0217
1.6849592,89.115906
1.8171635,91.43514
1.6802664,92.52809
1.8009259,86.54646
1.6411521,93.09625
1.7625043,88.123245
1.7247356,91.06815
1.6998104,91.118126
1.6936768,91.20616
1.6648647,91.324234
1.7375811,98.000046
1.690855,89.332886
1.629008,91.297585
1.5573008,90.02872
1.5493577,90.36432
1.5462439,94.67894
1.4577866,92.4159
1.3878185,89.424446
1.3992072,92.07834
1.423204,92.58761
1.4156704,89.20663
1.3787512,90.110664
1.2941339,88.319115
1.4015107,84.87557
1.2463775,88.570335
1.3684448,87.54341
1.309568,84.73308
1.1948162,84.24225
1.2284926,83.45361
1.2447295,86.13959
1.2989209,85.120346
1.2201942,83.43174
1.2518287,84.777794
1.2308784,84.68183
1.1768007,84.56987
1.1650764,80.41994
1.1004171,82.44693
1.1384728,81.9586
1.1214522,80.906006
1.0786477,77.11558
1.0605108,79.612465
0.98089564,77.644554
0.985209,81.88717
0.9442579,79.12569
0.9528198,77.05833
0.93800116,76.54098
0.8673709,78.322464
0.8129633,76.24369
0.8819413,77.779755
0.67794526,76.952995
0.7212334,76.780136
0.6084756,73.97593
0.6420418,74.37886
0.6461588,74.95199
0.6008037,75.38082
0.57311416,77.54343
0.54148436,73.4171
0.5105526,70.15457
0.5233539,80.35225
0.5753492,72.03924
0.6147797,73.885315
0.50133383,73.42018
0.5221729,71.563835
0.5750918,71.7565
0.39468044,75.28059
0.45833954,72.96485
0.51719695,71.537285
0.5481119,68.50546
0.44695202,67.000114
0.46715802,72.638054
0.4323927,74.89771
0.41358885,68.91665
0.3698673,67.85947
0.3392259,68.159615
0.26268202,72.17076
0.272145,63.89044
0.21620496,65.33513
0.1946575,71.48338
0.20999163,69.608444
0.22316311,69.979706
0.043088496,72.318825
0.14037624,70.02737
0.11069114,69.27411
0.09366597,68.19923
-0.053705048,72.503105
0.113312416,68.0008
0.07891339,72.279366
0.07416671,72.68254
0.10052801,74.57651
0.13824962,67.3063
0.14393169,73.08988
0.13770084,75.60157
0.23632716,73.533554
0.32176206,76.42111
0.44552535,79.07175
0.4677345,74.87583
0.5154731,77.4156
0.6047912,78.48343
0.64486116,75.86841
0.69769603,81.61374
0.85984945,77.683525
0.79478174,75.7542
0.8214464,84.93817
1.0096582,76.698364
1.0886093,81.2347
1.0917532,82.83035
1.0812275,83.3479
1.2968686,86.3521
1.2634611,88.42861
1.2315689,89.01845
1.2658827,84.72568
1.4022044,86.32987
1.3237305,90.06767
1.4117128,90.08195
1.3932577,85.66425
1.3935267,90.69357
1.442911,90.29646
1.369726,90.957634
1.4483137,84.93435
1.4654146,90.096115
1.4090362,89.25967
1.3777436,92.196144
1.3269347,91.57567
1.3507887,90.115654
1.3805734,90.85702
1.2985402,94.07746
1.2464396,94.83083
1.2718179,91.68655
1.3446566,91.42961
1.3148662,94.94889
1.1776594,89.99838
1.2858878,87.89318
1.2624174,93.330574
1.1814699,83.711464
1.2091496,88.08347
1.1421789,87.85527
1.1053538,90.05221
1.0804363,86.694336
1.0010602,89.183426
1.0228587,87.83008
1.0941747,89.16181
1.0937755,88.593864
1.0009519,85.35646
0.8802952,89.81479
0.9954118,88.879684
0.9036639,82.9421
0.8871665,84.658134
0.89265317,83.21555
0.89011747,85.64471
0.97967225,86.35017
0.92178637,83.95894
0.9783472,81.672386
0.8792582,80.83482
0.8966811,80.64494
0.8811718,82.582954
0.8573705,83.27849
0.76776457,79.63468
0.8100099,79.34884
0.67399806,80.0779
0.78226817,78.75731
0.763081,80.80149
0.74471647,76.771385
0.61722,79.685715
0.55798334,78.8137
0.6329042,78.044876
0.5919257,77.09486
0.5222801,77.00901
0.4659564,74.99751
0.39422226,78.50076
0.43007383,73.792206
0.32595843,76.290215
0.38533577,74.677925
0.4280192,73.73491
0.37944713,73.143036
0.3098265,73.69937
0.3701096,70.37201
0.33347458,79.113686
0.35772705,72.9791
0.3256465,68.972855
0.28730386,71.65431
0.34943983,72.31739
0.38527763,77.88306
0.21449411,71.47651
0.3541601,71.51771
0.3840131,66.89072
0.3019472,67.427246
0.26912454,68.03656
0.23447213,68.515305
0.22318633,71.33913
0.2519652,66.23388
0.24017696,65.696724
0.14668053,69.85882
0.15207557,66.81367
0.1301656,69.54242
0.14999622,72.238754
0.10126759,66.26197
0.12282085,65.73353
0.020299437,69.1816
0.00966472,66.67161
0.020036839,72.19627
-0.0025975304,67.4833
0.08258395,74.70379
0.0046515064,74.52869
0.006921658,73.92902
-0.02173437,72.45547
0.082684554,69.42639
0.115560494,68.99334
0.064217545,74.14911
0.1944629,70.505585
0.3561804,69.47497
0.24290472,74.74804
0.32555896,71.392944
0.43980685,71.25097
0.5117994,74.86616
0.59830374,77.7716
0.6641015,77.4683
0.8111256,81.350624
0.8171501,79.167915
0.89692485,80.3193
0.9195738,78.601616
1.0019221,84.25533
1.0933546,79.668335
1.1345224,81.51251
1.2294552,80.49578
1.2417784,84.70634
1.3304323,85.4018
1.2914873,88.316696
1.3431216,85.11671
1.419551,91.03456
1.516282,86.40173
1.4366466,88.11737
1.4634603,88.661285
1.4872339,93.816734
1.5349314,91.50746
1.5082134,86.61461
1.5256016,85.57076
1.4534363,88.31597
1.5562805,92.44118
1.525856,92.783356
1.5655261,88.99964
1.6030699,93.83956
1.4673457,93.87441
1.5043727,93.4193
1.496368,90.75922
1.5249804,92.424835
1.3766958,91.66859
1.425427,91.64902
1.4721837,90.86813
1.4076794,89.75199
1.351336,92.11029
1.3467747,90.890915
1.3582176,91.54641
1.3837861,93.14209
1.3371223,90.612236
1.2179234,88.789085
1.2755826,88.02996
1.1990911,86.437874
1.2531451,87.77563
1.1372242,86.501366
1.1725147,85.68811
1.1784458,86.470634
1.2463473,83.68116
1.147115,87.38831
1.1413988,86.24197
1.1517545,80.19866
1.1446278,80.76148
1.1466035,85.821045
1.116845,82.69845
1.0896714,83.29351
1.2226514,77.59843
1.1794078,78.60871
1.123373,80.46987
1.0914606,83.3308
1.1203504,81.648674
1.1198282,79.64209
1.051171,80.29123
1.0828162,81.03635
1.0042486,78.632286
0.93441945,75.35681
0.9300777,77.8474
0.90468335,75.833145
0.94674665,78.82684
0.80870855,80.004524
0.81292045,76.55369
0.82268095,80.62635
0.8835456,79.760765
0.73282516,73.82852
0.7612515,77.42689
0.789738,77.60418
0.73449767,72.5326
0.72699535,79.46928
0.7023583,70.93801
0.64951265,74.7717
0.6759855,77.46615
0.6906747,70.99491
0.6856477,71.58995
0.6940669,72.66746
0.67006373,70.903015
0.7185155,67.059685
0.63796866,73.002525
0.73206306,69.9663
0.67545444,69.74847
0.67808604,71.24173
0.725305,69.73417
0.6394299,65.793945
0.6953034,71.72368
0.6312489,67.52382
0.6649038,68.83224
0.63690895,72.82776
0.54507077,70.984
0.5291887,68.77343
0.49708778,67.25373
0.53073794,73.10027
0.40033123,69.49157
0.4332546,69.851555
0.39758566,68.0088
0.45958966,70.14669
0.37859723,69.58264
0.423367,71.30928
0.3680562,71.92854
0.5060523,68.89525
0.44555342,75.12417
0.4376765,68.56035
0.5311562,74.31711
0.51546204,73.54802
0.5710694,77.51034
0.62637675,74.03121
0.65513015,73.22987
0.8254309,76.25509
0.8221692,72.73152
0.90147126,77.058975
0.86610466,76.0278
1.0256687,74.176956
1.1165398,76.63137
1.261864,82.388336
1.3048235,78.819
1.31211,77.53308
1.4031997,80.50277
1.5066723,84.092224
1.4524039,80.80595
1.5714456,84.77477
1.6662143,86.46426
1.6589178,85.250336
1.6609248,81.42093
1.7837119,91.9811
1.771933,84.400085
1.723605,92.67692
1.8054738,88.64254
1.8877437,89.36875
1.8439548,84.14516
1.9356241,87.29598
1.947597,86.542786
1.9576561,89.35022
1.9313723,88.14652
1.91131,92.11714
1.9207923,85.12739
1.9025949,88.48744
1.8970234,86.20002
1.931877,92.97484
1.8801323,89.39266
1.8564055,88.40046
1.8950915,94.05133
1.7883227,89.56374
1.8279872,90.19534
1.8611608,88.24726
1.8567576,86.21825
1.780314,87.51918
1.7631503,88.192406
1.6786579,90.946625
1.6956971,88.38396
1.6670256,89.25502
1.6681093,90.41747
1.6245112,91.69613
1.6546525,90.469185
1.6008518,86.1647
1.628067,92.19145
1.6263222,88.002266
1.5551018,86.1713
1.5616648,84.768135
1.4682595,81.92206
1.5762552,85.98756
1.5751565,87.80985
1.5355816,85.25079
1.4981043,83.89714
1.5975529,80.00613
1.5035636,81.129196
1.535562,80.41885
1.5044914,83.472725
1.475025,81.0882
1.4117727,80.57035
1.3920885,81.18633
1.3720752,80.90943
1.2884603,80.419106
1.3251764,79.054
1.3170723,79.65966
1.3106941,82.94818
1.2310959,80.38936
1.268371,81.19994
1.1537907,76.3479
1.117171,77.864105
1.0960156,75.347084
1.0385008,77.99665
1.047875,76.06225
1.0445108,75.20296
1.0182582,72.726135
0.9662218,75.749794
1.0605403,74.54016
0.8912142,72.82953
0.941877,72.09722
0.89455664,74.73918
0.88544405,73.70292
1.0354495,75.94503
0.9252423,72.8544
1.0168945,74.81504
0.9742068,73.6864
0.9504679,70.691864
1.0464622,69.27787
0.9208371,70.64769
0.8670156,72.19146
0.915069,71.814476
0.89229107,70.3613
0.8958155,65.29782
0.8825414,69.73446
0.88827026,68.38869
0.79283583,66.86952
0.7271638,64.62023
0.71787006,67.52429
0.7396448,69.10088
0.71220994,71.10281
0.60777646,68.3572
0.554538,67.86113
0.5886938,70.30558
0.5124602,68.503136
0.5136669,66.54471
0.48621032,70.802216
0.52526534,70.771645
0.632169,72.503815
0.5276065,69.15241
0.49497563,72.152794
0.62207884,67.43604
0.6121583,67.92482
0.5107798,73.59026
0.7060403,73.04177
0.743834,72.374344
0.7694838,73.9541
0.8426662,74.00797
0.9271781,79.567726
0.9267198,72.94275
0.978062,74.83885
1.0816121,76.27002
1.1159698,82.78603
1.2035964,78.879616
1.3508096,81.61436
1.412931,74.880394
1.4364299,81.555374
1.4860553,82.50638
1.5388887,81.49776
1.6521106,81.33733
1.6616851,83.57594
1.7209401,82.40925
1.7204213,84.54297
1.827441,84.05052
1.8902262,88.35403
1.7789278,89.64423
1.7892554,87.731865
1.9011114,89.56499
1.8627713,85.13492
1.7743218,85.35556
1.8423901,88.62281
1.8650993,91.37024
1.9529115,90.076996
1.8859962,94.8608
1.9147264,91.60357
1.8612168,90.10754
1.8150185,90.661
1.8260847,87.51494
1.8896611,93.36054
1.8212255,88.77453
1.8290209,89.90374
1.7865245,94.53264
1.7910093,90.392876
1.7620028,90.01428
1.7256236,89.103355
1.6333096,83.09753
1.6743777,86.72596
1.5933326,85.92682
1.6339504,87.030945
1.6172622,90.873726
1.5843892,85.17128
1.5432664,85.95823
1.4308321,85.908226
1.4244764,83.484795
1.4034046,89.83771
1.5197777,92.91315
1.427702,88.05127
1.42094,86.21052
1.4416708,86.50022
1.365178,86.41803
1.2825593,82.23278
1.386647,83.11551
1.3077935,83.01918
1.2632182,84.191765
1.3107285,81.84932
1.2746153,84.37724
1.257001,86.105515
1.2935991,83.36984
1.2064024,83.32979
1.1891129,81.57427
1.287922,83.814255
1.1188031,76.48845
1.0978764,79.78165
1.1396564,78.576744
1.0521867,80.641884
1.0158169,80.071236
1.0048401,79.527084
0.9705931,80.207535
0.9620935,75.379616
0.72870266,78.31477
0.8910019,82.653534
0.83919567,75.96768
0.7805387,74.41291
0.8074277,74.299385
0.7409653,73.94791
0.66709703,74.94521
0.6851175,74.58464
0.70240295,77.10274
0.639654,74.62682
0.6550546,73.40195
0.6819556,71.01773
0.60671234,72.708
0.6424361,73.11325
0.66044796,69.495834
0.6588628,71.22036
0.5257764,70.60491
0.6470415,69.78852
0.58576125,70.37823
0.6226693,72.43618
0.5686118,69.67833
0.5264572,69.703575
0.513818,69.17933
0.43086663,67.6014
0.48116642,68.710495
0.43894497,67.090324
0.34738863,74.7698
0.3170472,71.995705
0.34561032,66.78295
0.3378246,68.7236
0.30986047,69.26726
0.26907334,67.17558
0.19061098,71.240425
0.28781933,68.937164
0.16057211,68.904305
0.21362104,70.43315
0.13625847,70.41503
0.08748379,72.93219
0.16329998,72.16172
0.21191177,74.57245
0.20447469,72.24662
0.22053465,71.89542
0.22149324,74.36532
0.30997398,71.36743
0.31198004,72.13967
0.4215894,75.991905
0.45125806,73.75856
0.5319347,76.94639
0.7193456,75.33059
0.77502894,78.37217
0.8235187,74.51454
0.8739399,81.72519
0.8263269,80.95177
0.96864766,82.44304
1.0750966,79.54206
1.015225,84.261765
1.1586052,84.68036
1.1862589,85.004395
1.2445859,86.55814
1.2783967,87.34804
1.2576897,86.14639
1.3003312,83.814156
1.3509312,83.975586
1.4238192,91.20111
1.5477566,84.31514
1.4896784,89.00927
1.5277395,90.634476
1.4772786,91.83168
1.5423422,83.287895
1.4555792,88.779816
1.359105,88.72502
1.4409641,88.125595
1.444706,93.12519
1.427567,89.91539
1.4672861,87.65711
1.4293244,92.981804
1.3138767,91.98298
1.4442217,87.24919
1.4409732,92.15417
1.3324156,94.68472
1.4385988,88.96857
1.2664276,91.20188
1.3363224,86.04252
1.29396,90.64823
1.2531039,91.2711
1.2296257,93.73556
1.2428848,90.58394
1.2047756,85.70401
1.0781165,91.42041
1.09568,84.82963
1.1221987,90.603134
1.0609274,85.28352
1.082921,87.49008
1.0893213,84.32018
1.0489492,86.70373
1.0195806,87.75584
0.9176069,88.18642
0.93196106,90.39103
0.92013985,87.422935
0.9482442,82.67573
0.933666,83.319954
0.94827956,82.21348
0.92795616,81.69751
0.8521986,81.23609
0.92780894,83.35056
0.9229283,85.70606
0.98979926,78.85827
0.85440785,77.19455
0.851114,82.9918
0.78961056,86.06232
0.74634945,76.77584
0.78167206,78.729164
0.70959455,81.75209
0.680077,83.03727
0.70905864,79.42695
0.6887858,77.85956
0.589733,75.99673
0.5038358,76.61796
0.47618705,79.04528
0.447219,73.08997
0.48110598,75.15585
0.39009744,74.052124
0.43315455,71.75995
0.39527473,70.3501
0.32700044,76.300995
0.39564234,80.098785
0.3465699,74.24579
0.44461542,78.38675
0.25266823,73.8509
0.3195527,69.65049
0.32197165,72.98534
0.38002428,72.0802
0.3384916,73.40977
0.37551054,72.68557
0.3895159,73.32418
0.36643,70.648346
0.3272397,74.98333
0.16023915,72.99965
0.32203406,64.830376
0.34874246,70.15019
0.28754768,69.145164
0.29232973,68.81954
0.29803228,70.144424
0.18772429,70.83944
0.083138615,68.34481
0.07326833,69.77768
0.07367563,71.193985
0.022317719,65.50288
0.047956128,71.09919
0.0011436578,65.68139
0.054343417,67.60422
-0.06332591,71.05139
0.016565109,68.41269
-0.08055617,67.37927
-0.0670863,69.14357
-0.0022842356,68.16276
-0.08735845,69.93371
0.04707827,72.3043
-0.02369976,74.886024
0.054064494,71.19768
0.1359517,76.73381
0.24416092,69.828766
0.27196124,75.21577
0.38288763,76.482925
0.323544,74.791435
0.5452425,81.023926
0.5767913,77.55265
0.5830241,81.82834
0.68796504,76.75912
0.7987949,76.75179
0.93666697,81.588
0.86417633,79.60492
0.9520953,81.19248
0.9669869,80.188576
1.0908568,84.90268
1.1869831,85.60874
1.1750219,77.50015
1.2351705,84.18664
1.2056987,88.67841
1.2801956,84.20643
1.3388363,84.68561
1.3466051,89.60826
1.3170803,87.44169
1.3524686,88.52827
1.3333333,86.3756
1.3172868,88.75261
1.3882122,90.81995
1.4913526,88.59417
1.4265405,87.18753
1.3754168,90.95707
1.415376,89.2219
1.3691205,91.624054
1.3956724,86.7805
1.3692427,92.91601
1.4270227,93.62538
1.4477084,94.277855
1.376699,94.00892
1.4649882,89.27685
1.3798794,87.70768
1.3451554,87.95884
1.2598735,86.52965
1.3290318,92.9935
1.2468661,90.24127
1.2211939,92.19462
1.2005914,92.099396
1.2356948,92.518166
1.1093814,85.9734
1.2245454,87.12459
1.1480559,85.20041
1.175935,83.28146
1.0391269,81.41028
1.1127985,84.45386
1.1100453,92.00451
1.08008,89.18075
1.0584947,89.37995
1.016667,83.66337
1.0204023,82.250786
1.0312421,86.07911
1.0585049,79.876
1.0319314,81.84788
1.0644735,80.74921
1.03476,83.861984
0.98239434,78.748695
0.96497196,81.10642
0.99290913,82.53558
0.91699773,81.104355
0.9743466,80.77428
0.9478346,82.07731
0.8529078,79.84921
0.95891047,78.65791
0.91027004,82.14083
0.8746802,76.588425
0.81515723,77.2676
0.84054106,81.085655
0.7663462,78.787834
0.6712424,77.33557
0.6292671,77.11543
0.66668105,75.80507
0.5963242,73.195816
0.57731915,71.81987
0.5779861,74.71729
0.6900307,75.820915
0.5891603,73.924576
0.5602114,73.78394
0.598425,70.76313
0.63388395,67.34048
0.56150085,75.25448
0.4938196,73.843414
0.6041428,67.77137
0.49837464,68.76527
0.592823,72.848976
0.49222195,71.1066
0.57672167,71.193634
0.5989097,74.426186
0.6372863,69.766235
0.5944436,67.762314
0.56979644,68.43415
0.5300113,71.615204
0.46859437,70.4615
0.47688222,70.12537
0.38236818,70.05443
0.48117626,70.9667
0.39266503,64.76849
0.41866514,72.16543
0.39154392,69.5894
0.39581254,69.69552
0.27868992,67.55357
0.36111686,70.944176
0.20077653,72.66139
0.22333209,68.33385
0.23403805,69.811966
0.28051084,73.76908
0.17929453,68.76931
0.33225903,66.36032
0.31537628,69.2539
0.47673744,68.09367
0.4403435,72.018295
0.3739063,66.86583
0.55639374,73.36177
0.62626135,76.82143
0.7003142,75.36275
0.7114099,72.81579
0.8068334,75.46937
0.9416969,76.689445
0.9894983,79.2997
1.0232463,77.21845
1.1486758,77.60676
1.1815635,79.97343
1.2923928,79.49179
1.2765,78.85023
1.3525846,80.41655
1.459703,80.18929
1.4275281,81.54266
1.5202937,94.27221
1.6421667,84.26974
1.6312814,87.64417
1.7130756,85.3392
1.6386634,89.87989
1.6475798,89.432945
1.7386923,88.483665
1.8087542,89.14062
1.840607,91.852905
1.8202289,88.90654
1.7700365,85.83369
1.8026869,88.19329
1.8038553,87.57922
1.7588472,91.05124
1.8232538,89.57624
1.8567861,92.67212
1.8987933,92.33958
1.8071306,92.785545
1.8459159,93.7363
1.7683802,91.53529
1.7092968,94.97264
1.7369014,94.76154
1.7254903,90.02193
1.6884118,90.94707
1.7234002,90.2667
1.7499526,90.387955
1.5852706,86.25379
1.5852802,90.47439
1.6282263,88.7006
1.6712035,90.18031
1.6776228,88.583664
1.5368934,85.89342
1.5324079,88.592384
1.6049632,88.307076
1.5099784,87.29141
1.4708035,86.273926
1.3904998,88.435074
1.4036398,85.106964
1.4752485,88.546715
1.432628,89.189095
1.471274,88.030334
1.3864717,86.32779
1.449367,90.077736
1.4318463,81.476814
1.5273724,85.13544
1.3990561,81.91886
1.366999,81.6213
1.4215906,83.40454
1.3570386,81.93442
1.3484008,78.83001
1.3104228,80.24654
1.309913,76.442314
1.2769585,84.71767
1.350618,81.59191
1.2737917,74.53698
1.2525665,75.34614
1.1891369,82.51928
1.1475201,78.56892
1.0960282,80.22991
1.0663916,76.33593
1.112622,74.62076
1.0533113,78.948685
1.0556095,75.3305
0.96455616,75.78405
0.91870147,72.76523
0.90991145,72.9301
0.9937573,74.338196
0.90228283,70.051575
0.955478,77.65214
1.036572,73.91472
0.8721978,73.41387
0.9175273,75.056175
0.89087915,72.60038
0.86180633,71.08991
0.88963354,72.5084
0.8680932,71.251236
0.91311365,68.40247
0.86040884,70.7197
0.8385917,68.94491
0.87033767,71.13125
0.933089,71.16154
0.8805775,68.699
0.7878699,71.40298
0.8034937,74.90361
0.711559,64.8834
0.8098864,68.564835
0.74574476,66.849
0.6272988,67.976524
0.64220864,65.52801
0.6649911,68.8542
0.551881,69.11104
0.60121566,69.14275
0.6422903,70.04794
0.58361554,69.796906
0.5455514,71.783615
0.58080846,73.4217
0.59592897,70.33821
0.5505198,70.64208
0.55746764,72.154755
0.61407226,70.604675
0.63389695,72.3069
0.67798567,70.266045
0.7500461,73.337975
0.791239,75.29489
0.9264997,80.000114
0.989534,80.08821
1.0653791,73.367004
1.0032701,80.04933
1.1846534,77.67222
1.1995096,77.86061
1.3504997,81.76019
1.348316,77.66708
1.4579024,80.00591
1.533707,81.53946
1.5953605,82.244095
1.7235839,83.73377
1.7017368,84.77938
1.7111734,83.70328
1.7094698,87.21717
1.7956179,87.038315
1.7907197,86.20346
1.883716,87.970184
1.8874065,88.24126
1.8351009,83.19083
1.8765427,86.88385
1.9395101,89.23406
1.9845356,89.89567
1.903266,90.584785
1.938992,88.45127
1.948965,91.60441
1.9944162,90.002045
1.9396473,87.531876
1.8927379,89.6082
1.9336759,93.55227
1.9343086,91.75249
1.9026595,94.567696
1.8005333,88.821205
1.8426579,89.39182
1.925917,92.971375
1.8262447,86.67268
1.7780973,87.43137
1.7698127,93.31315
1.7770687,91.21995
1.7038317,90.869255
1.6921746,90.272484
1.6949002,92.39829
1.6078012,90.84723
1.5579008,85.51963
1.5249952,87.14225
1.6010184,89.09561
1.5934421,90.36941
1.4764489,89.78191
1.5622814,86.65898
1.4811728,88.103615
1.4673657,88.042755
1.4321105,85.66713
1.4901421,83.99027
1.3371488,86.15584
1.443863,86.51201
1.3845521,84.814285
1.47782,81.109886
1.3468074,79.83796
1.4229455,82.82642
1.397788,80.89127
1.4074975,82.55603
1.2911618,82.52583
1.4084506,81.38515
1.3286794,77.924225
1.3224558,81.409454
1.2497246,79.21716
1.2087543,81.94068
1.1885242,82.22711
1.0789237,78.958084
1.1220056,77.045845
1.0916386,79.18607
1.0121094,76.02677
0.96430844,74.61657
0.95389026,77.75456
0.9136697,78.35988
0.92374396,78.63018
0.92131144,75.75947
0.92442256,74.21498
0.7502166,76.3126
0.7628853,73.85224
0.8798912,73.448425
0.8145872,70.79434
0.7403581,74.53118
0.73175377,72.69029
0.6454764,73.080536
0.69935447,73.75633
0.76009834,68.81523
0.79460347,68.03487
0.72100097,69.78257
0.74125713,72.789734
0.6063328,69.73001
0.66924435,69.042595
0.6559807,72.06898
0.69873583,67.484535
0.690064,73.1001
0.5847007,68.36376
0.5588489,70.56035
0.48363158,70.08661
0.5466607,69.98581
0.4702908,70.21736
0.42660606,68.942696
0.39710203,71.86781
0.3412735,68.951866
0.28857636,76.4447
0.43354708,65.551605
0.32254845,67.57865
0.2486255,67.38013
0.3215424,71.85097
0.2359779,72.60791
0.21514504,69.04181
0.25482264,69.75426
0.3131434,71.16451
0.33714205,74.42029
0.41727006,75.66438
0.38126582,73.205414
0.42843416,70.72931
0.41868517,69.30478
0.5998771,78.12619
0.61352384,79.412285
0.60195005,74.59512
0.8383811,76.85035
0.8798789,75.69364
0.8777397,77.34738
0.9356011,78.909706
1.0747705,78.77554
1.1082181,77.18278
1.1506827,84.53773
1.2255687,88.1745
1.2656024,83.466354
1.2518963,82.806335
1.3380073,84.118095
1.407,85.41101
1.4034088,83.703835
1.4835277,89.35331
1.4873736,90.87174
1.4810939,92.94144
1.4893302,88.1105
1.5269026,92.51655
1.5007455,90.955986
1.5668784,88.49961
1.5917103,85.936676
1.6419237,92.24048
1.6610236,88.59609
1.5611011,92.27397
1.5780386,92.217735
1.538387,90.801254
1.5658073,87.5102
1.483286,95.258125
1.5615894,89.83736
1.5284839,87.41384
1.484302,88.21029
1.5241389,93.11227
1.3789395,90.28792
1.4400967,91.81292
1.3916411,90.8899
1.3544226,89.0347
1.3210967,91.128235
1.296025,87.35406
1.3252206,90.43534
1.199157,92.800545
1.1650255,86.15367
1.2644078,86.205215
1.1808743,87.1299
1.1037161,87.35443
1.1075106,88.236885
1.1931424,84.45093
1.0935998,88.45661
1.0551021,84.44677
0.8989439,88.745445
1.0325166,85.53006
1.0519103,82.27051
1.0747342,82.844536
1.0202631,84.08749
0.97473997,80.12692
0.9797295,80.4818
0.9885968,78.19765
0.95077264,82.145065
0.94407785,82.2041
0.9571637,78.54223
0.85200155,81.32304
0.91440284,80.23081
0.79746675,83.53004
0.8570067,82.82716
0.8273255,75.775795
0.7915149,81.47161
0.72345024,82.07167
0.66523844,77.30726
0.6334199,80.63144
0.5952113,74.69917
0.594605,78.94016
0.6274131,75.981316
0.56722254,78.79028
0.56375515,72.367195
0.5166002,80.98069
0.46855605,72.01264
0.43078178,73.80433
0.37805453,78.31125
0.39398926,75.23864
0.45300326,74.19223
0.32048187,75.02339
0.37954158,71.10798
0.41435495,75.469734
0.34132785,72.92701
0.42292193,69.756325
0.3201026,70.17843
0.32181194,69.88604
0.4293884,74.83184
0.2784578,73.9968
0.32405496,71.72459
0.326327,68.18313
0.2689691,66.970474
0.25437883,69.1645
0.25141776,66.7963
0.24983218,70.442764
0.2453778,68.89541
0.078469016,70.13707
0.1212229,66.552475
0.049987018,64.26901
-0.02677301,73.65195
0.012037856,67.9021
0.02096686,71.01537
0.0059270444,65.31459
-0.060004804,68.132866
-0.012266287,70.68776
0.0022515676,70.21241
-0.054285582,71.263916
0.035687525,67.71853
-0.03690324,69.04262
0.012308935,72.30266
-0.03449901,71.31259
0.024820743,69.38994
0.06175711,75.35395
0.10519658,73.35363
0.18520243,73.08788
0.3133691,72.65316
0.32888874,79.67436
0.46946084,75.88766
0.46408832,78.41857
0.4645973,78.362526
0.56449604,82.37669
0.761721,76.11134
0.7619578,83.011765
0.8226764,80.27738
0.94763744,82.139
0.9473829,77.33704
1.0736475,83.46579
1.0200162,82.34817
1.1133877,84.6911
1.165303,84.00984
1.154716,83.8193
1.131102,87.271706
1.2512912,89.53035
1.3340592,83.817116
1.3016179,88.939186
1.2702018,89.71376
1.283219,88.784325
1.3346671,90.92963
1.3898596,86.477104
1.3928628,88.35596
1.3251735,89.47896
1.3834735,90.69073
1.3456501,92.99815
1.3635323,93.083305
1.4406282,90.6901
1.3526713,93.57462
1.3811532,87.61422
1.3172485,92.44643
1.3252734,88.45771
1.3296793,91.70009
1.3794954,89.59201
1.2691368,86.6943
1.2118423,90.37227
1.2097402,89.369644
1.1899072,89.82187
1.2022847,90.35357
1.2353393,86.727196
1.1748589,90.69008
1.1076145,91.312004
1.0322785,86.77547
1.0524113,91.34645
1.0758222,89.382225
1.0103054,86.27212
1.039771,86.379074
0.95457566,85.23795
0.9213588,86.04819
1.0281003,89.48616
0.9824406,86.507675
1.0110327,80.2454
0.9973194,81.99629
0.889289,85.073265
0.930437,85.04498
0.914813,83.8097
0.9293751,81.010284
0.8788141,79.19598
0.9560623,82.698235
0.9145941,81.84851
0.9071272,82.513466
0.84909356,80.988716
0.8788452,80.67347
0.90533125,81.125694
0.8194621,82.55538
0.8301744,79.21186
0.69386184,78.580345
0.6678172,80.66865
0.70339215,76.312004
0.5988579,76.946304
0.6286268,78.9379
0.5543153,74.54295
0.5943671,74.948715
0.61177886,78.325645
0.5668862,72.43711
0.51580995,74.514145
0.5318514,74.89973
0.47420648,76.399376
0.46412408,72.550285
0.5696706,80.644646
0.41759196,70.20725
0.537755,69.75818
0.45633864,73.45506
0.38793066,72.71941
0.46854606,72.437195
0.50998485,70.957115
0.4785339,70.73438
0.4986054,71.404175
0.5331356,68.50487
0.44181603,69.63318
0.4767224,72.33343
0.4485284,63.85794
0.4419773,64.24271
0.48581904,66.67894
0.26048246,69.84227
0.40208033,71.54408
0.30319053,69.8587
0.3016384,70.555786
0.20393899,70.470245
0.27254775,71.47784
0.25836748,69.55961
0.2358324,69.40081
0.22246762,63.376114
0.1690655,69.917015
0.13430409,71.13096
0.14765865,71.92123
0.1806248,73.52356
0.11099251,67.62747
0.14739873,75.761925
0.17355981,72.30053
0.31937876,74.85138
0.2699283,71.11439
0.2713769,71.62397
0.3431061,72.92339
0.4915869,74.04776
0.44111377,74.26241
0.5389447,76.1168
0.71067196,76.82708
0.74155927,79.10995
0.8108211,80.273766
0.9006368,77.75748
0.82789904,82.797585
0.97766113,84.59874
1.029872,78.414635
1.1179868,80.91595
1.1758919,84.42702
1.2612804,85.596275
1.3544457,84.366066
1.3744388,85.57492
1.4713985,84.885056
1.5578152,81.588264
1.5388498,86.257095
1.5173905,86.95435
1.6246428,90.55778
1.5908309,89.44264
1.6318737,89.846275
1.737425,87.55923
1.5928726,86.786835
1.7391654,88.586494
1.7261628,89.88584
1.8018466,92.179054
1.713952,90.415924
1.7141545,88.615105
1.735086,88.278564
1.6942815,91.43931
1.6885574,89.12925
1.6605829,90.1732
1.7535907,91.31105
1.616864,90.39877
1.6493279,93.07973
1.7145658,93.92022
1.6729691,89.51319
1.6523125,89.52581
1.6313999,87.94479
1.5927395,92.98679
1.6004746,87.88117
1.4944892,88.066574
1.4499496,91.06598
1.4571946,90.967285
1.454373,87.79567
1.5253333,86.34237
1.5068192,86.28292
1.3173969,89.944084
1.3887782,85.45961
1.4545245,87.878914
1.4224243,87.5329
1.298919,79.07768
1.4150687,82.887695
1.3417504,84.86881
1.3457682,86.23625
1.2810423,83.34946
1.3899913,86.68705
1.4144163,82.268196
1.2631342,80.2128
1.3292688,81.962845
1.2872843,83.45322
1.3176517,84.46612
1.3177336,77.226814
1.2687036,82.33082
1.1885979,77.6042
1.1948225,80.98679
1.2654454,80.09313
1.148142,76.3801
1.2397208,81.12932
1.1945864,78.02629
1.1217812,78.40085
1.1012577,81.550476
0.9937341,78.250465
1.0643386,79.99601
1.0323858,77.14835
0.91854125,76.25232
0.9238056,74.93106
0.91092646,72.97042
0.8718575,80.911285
0.90385264,75.01657
0.92545825,74.975945
0.95078045,77.35363
0.84813,73.55556
0.7651132,71.716324
0.886755,70.93017
0.8063384,71.60436
0.79772353,72.89085
0.85176945,67.11316
0.8760382,70.744865
0.8056786,70.43251
0.9014378,72.07609
0.82440466,69.7024
0.7713257,72.864204
0.84303904,67.81052
0.8444321,65.71503
0.8356448,68.04037
0.79578024,70.993744
0.73746276,65.311554
0.73251295,66.45716
0.7098087,65.05767
0.6932527,71.44708
0.7075818,67.924774
0.58992916,71.89414
0.54174274,70.09143
0.5807135,69.73612
0.54961896,71.64028
0.5593514,70.376625
0.48537108,70.4151
0.5493799,67.03738
0.5448634,76.13103
0.5392284,69.33217
0.58497995,69.084946
0.6678716,73.21237
0.5558433,72.075966
0.67672896,72.55244
0.62143326,74.33242
0.8495212,78.216545
0.83954793,75.090996
0.86498034,72.338844
0.949618,76.79582
1.005255,74.712425
1.1603419,75.22554
1.2033095,76.45022
1.2570522,81.80219
1.3119538,82.41427
1.285808,83.13256
1.4248519,76.26827
1.4720674,81.97732
1.6378115,80.9898
1.5653148,82.90137
1.6098008,83.18366
1.7500948,88.73528
1.7845231,87.37377
1.7869136,86.17665
1.9033117,88.35338
1.927348,90.2564
1.8392045,83.3823
1.9662896,90.94078
1.977979,88.0695
1.8651766,92.73088
1.9627914,85.85362
1.9684433,89.84389
1.9639442,88.902245
2.02084,87.001884
1.9918798,92.92703
2.0301678,89.85019
1.91167,93.05804
1.9370188,91.115005
1.950014,95.74904
1.9465339,91.18753
1.976308,94.185585
1.9228482,93.1791
1.90502,92.785515
1.93556,89.358086
1.8696404,90.54218
1.8264102,84.09123
1.7184936,90.741455
1.7593483,93.63174
1.7421978,89.62396
1.6900582,89.793
1.741394,91.95096
1.6472965,87.741264
1.7096988,86.130745
1.5668525,92.102
1.6344614,84.00758
1.5246202,89.25808
1.5451812,88.8262
1.5167304,81.615776
1.462944,87.65062
1.4310764,87.294586
1.5554421,84.85882
1.494232,87.354805
1.5357641,81.22489
1.3926938,82.20947
1.5146332,83.338326
1.4642686,81.05895
1.4516543,85.18932
1.507919,80.80249
1.3732,81.60318
1.3354279,82.16885
1.3774396,80.42853
1.3268794,80.27628
1.3301713,81.131035
1.3490591,77.90176
1.2796693,75.66061
1.3105778,79.01619
1.2118945,78.108185
1.102473,72.77947
1.1066788,78.09888
1.1619494,80.943474
1.0266241,75.351944
1.0530554,82.43917
1.0910738,75.07957
0.95961,70.99408
0.95293623,76.87702
0.9646354,71.4983
0.97838086,78.44724
0.88802266,76.25076
0.9543569,75.225845
0.82167965,73.240486
0.89233524,75.721565
0.9095128,71.59026
0.81084836,72.85339
0.9077918,70.87003
0.7783613,72.51108
0.9014501,71.22848
0.83566177,73.024864
0.81091785,74.684
0.7992196,71.91333
0.8633245,70.70595
0.68600345,70.05368
0.67767406,69.5114
0.6872685,72.21545
0.7352317,63.7825
0.7966802,71.78734
0.5576504,69.624855
0.50536555,70.17687
0.64732283,69.10627
0.49882787,70.975174
0.5453061,69.91822
0.5331414,64.1045
0.5066658,67.56105
0.45238426,69.79679
0.44638032,69.56083
0.45757627,69.11263
0.4479403,69.53498
0.3545384,74.00341
0.35668248,74.057625
0.43580526,69.53452
0.5183535,74.01034
0.43222013,70.31077
0.4933463,75.436775
0.53313446,72.29794
0.48071665,76.65617
0.6180439,69.81788
0.6137363,74.51877
0.7965607,79.98203
0.84550095,77.355316
0.884513,77.165276
0.945664,79.17469
1.0938274,81.93747
1.1477039,81.465355
1.0763185,80.79562
1.2100472,80.86635
1.3377974,82.19066
1.4183226,76.00818
1.330728,80.494896
1.3623784,81.92295
1.5015359,84.29161
1.5444098,85.12379
1.5654932,83.70325
1.5524129,86.30338
1.6288364,83.64885
1.5652835,84.603676
1.6921942,91.289116
1.7115954,92.084694
1.6446413,87.2598
1.7516556,91.62713
1.7617024,95.55167
1.7986945,82.03641
1.6892385,90.05928
1.693779,93.50414
1.64792,90.99935
1.6651976,91.87568
1.635671,89.93801
1.5911787,89.497765
1.5370426,90.21355
1.5668728,91.7073
1.5638272,87.32015
1.5647764,91.62641
1.560908,93.68758
1.6245726,90.61055
1.4520401,86.99587
1.51949,91.14829
1.5097494,89.836136
1.3427185,88.535416
1.3688318,91.56517
1.4257351,86.199905
1.3402671,85.65168
1.3083181,83.83476
1.245496,89.59158
1.285375,88.61194
1.2424545,88.07112
1.1973522,89.91038
1.1815227,86.503914
1.2297426,84.69665
1.1624134,86.921646
1.1508832,90.27794
1.0834424,83.43429
1.0921905,80.086464
1.182449,82.808495
1.1329246,84.48452
1.0726839,84.45276
1.15297,85.39792
1.0706081,82.625496
1.0409726,82.55984
1.0780787,82.86912
1.0228884,77.63219
0.9516961,80.132385
0.9961775,79.687965
0.93165565,78.29246
0.81426126,77.55788
0.81105304,79.364555
0.8359748,79.02209
0.7798483,76.79014
0.7726051,81.03222
0.7191476,74.44563
0.6827045,79.20434
0.56142956,75.89577
0.5577126,78.84196
0.63414913,75.68164
0.61511713,69.262375
0.5313622,73.65494
0.5642072,76.91267
0.5314253,75.04779
0.41850886,75.35904
0.49306932,82.39306
0.5131014,75.108086
0.4361465,77.421165
0.43809417,72.67012
0.4783285,70.994606
0.44350255,67.80298
0.4069681,71.769424
0.5122587,75.173004
0.3174196,73.631065
0.41380098,72.03722
0.4132316,65.5529
0.36092383,71.076164
0.39552212,75.318535
0.34219304,69.91255
0.33947235,71.702415
0.2862359,68.38871
0.241713,68.1889
0.23651975,71.77695
0.1614448,67.48195
0.17584631,66.961525
0.20666975,71.430595
0.03553748,65.354805
0.0767024,65.45344
0.0827743,69.30274
-0.0048491317,71.01052
0.032457743,69.2221
-0.076578334,73.79234
0.014570411,72.12299
0.027504152,69.21268
-0.021122277,68.63946
-0.019941343,70.22787
0.11231488,70.7227
0.051414084,73.59315
0.10516483,68.24497
0.23175348,75.79568
0.25749314,69.95742
0.33048758,73.40578
0.33397397,74.20434
0.39313444,78.11442
0.49555293,77.43854
0.49154174,79.874176
0.6273176,78.257195
0.7457272,76.97554
0.7089904,82.673935
0.87533116,80.55259
0.8961724,81.620056
0.93206006,83.84122
1.0442164,84.47848
1.0953394,83.94968
1.1337351,87.25527
1.1543934,86.937355
1.1976845,84.25292
1.2105561,88.71297
1.2541114,86.34621
1.3284737,85.25343
1.2439111,89.96201
1.3295676,94.45009
1.2490677,93.19007
1.4829367,90.93581
1.3117329,90.45421
1.3966051,91.68259
1.3667899,87.925606
1.4183371,91.74155
1.3671428,92.30682
1.380886,90.574005
1.451341,89.863945
1.3296565,89.444145
1.2821723,94.84353
1.3805788,87.69486
1.3406669,93.07381
1.3552216,88.98848
1.2283019,92.300476
1.2791042,90.23441
1.2092634,91.692276
1.1279703,91.46714
1.1465806,89.90956
1.2182821,91.225266
1.09346,88.57306
1.1347778,89.678955
1.0785798,87.26728
1.0585089,90.424194
1.0517921,88.99699
1.0882112,85.6578
1.0225152,86.34162
0.9509299,88.19462
0.9692942,89.483086
0.924057,84.93011
0.9904189,88.20963
1.0208026,83.96432
0.926905,87.19012
1.0240672,84.1991
0.962524,85.50539
0.83452106,86.31598
0.8764452,82.97057
0.8547918,84.21863
0.79558593,83.96244
0.92100227,74.103516
0.8764481,78.35323
0.76909614,80.889915
0.8709136,83.177086
0.72592187,79.48511
0.8293016,82.68427
0.7023264,79.04081
0.7429556,76.96941
0.6331437,80.38693
0.7026182,76.81972
0.6381087,75.50484
0.57218814,77.03876
0.5886273,78.10283
0.55494565,78.8318
0.49448785,75.3226
0.5332633,76.35261
0.43650895,78.44137
0.45805147,76.755
0.525247,75.10182
0.41864565,74.90895
0.4092522,77.2689
0.39451745,72.71471
0.39481443,74.436485
0.42998087,72.49135
0.43240637,72.93983
0.3732406,72.027336
0.3532829,69.850815
0.40324378,69.47982
0.36873007,69.42824
0.31843764,69.021355
0.403146,70.4019
0.34569117,66.296646
0.40031493,72.035324
0.32776368,67.5275
0.34145617,68.228775
0.28719637,66.14747
0.39625755,68.52168
0.2832497,75.83338
0.23078111,70.603714
0.21643579,64.17001
0.24357885,70.58649
0.1348658,67.5869
0.116716936,63.957607
0.10997267,71.8585
0.105983935,66.71125
0.093489595,73.12743
0.04758692,69.677124
0.033961315,68.65354
-0.0026180507,70.95957
0.014187365,73.2022
-0.017678658,75.537125
0.09490053,72.0399
0.1091096,74.421715
0.18817681,71.50759
0.16998589,73.9523
0.17159277,75.03331
0.30588335,73.77186
0.45507443,75.87171
0.45892817,75.991936
0.48196965,78.66451
0.61661196,76.67794
0.64045805,73.96639
0.75090706,76.757454
0.8397323,82.46787
0.87667364,80.46305
0.9989975,85.14838
1.0856371,80.38003
1.2122215,81.94533
1.1821197,79.49613
1.2748426,85.35887
1.2913344,80.15926
1.3423094,85.44514
1.3982369,81.31098
1.3971184,83.759995
1.4053041,86.94344
1.4794677,82.07147
1.4712943,83.53574
1.5787761,85.137764
1.4968789,92.01781
1.5899614,88.86045
1.642466,92.48159
1.5151073,86.064514
1.6459048,87.914375
1.593895,89.08661
1.598666,90.242256
1.639475,89.36877
1.6191461,89.7088
1.5467479,91.58296
1.508311,93.175804
1.5797514,90.586815
1.5598136,89.46547
1.5890796,90.01095
1.5422184,91.794235
1.5256876,89.15947
1.4949911,90.47225
1.4760797,90.12389
1.4567541,90.81494
1.4459593,89.47078
1.3671607,92.811295
1.3941084,89.006096
1.5197107,87.36993
1.4429109,86.77271
1.2796754,88.545
1.3496714,88.08806
1.186334,91.45769
1.2694144,84.57915
1.2598222,89.185524
1.295082,88.97211
1.2605718,89.249664
1.1938725,85.93323
1.2716426,81.19206
1.227149,83.25844
1.1976795,85.62017
1.2934526,81.86157
1.1951917,83.82868
1.2477772,84.04806
1.1510072,79.027275
1.1932896,82.33071
1.2477076,84.43535
1.2233773,78.26862
1.1276784,81.30267
1.1188463,86.92894
1.1148373,77.20589
1.0568044,79.30062
0.9993487,76.53281
1.0273787,81.18375
1.0633006,74.52834
0.9583271,78.36023
0.9930202,77.712555
0.93427795,76.34094
0.93862087,74.730736
0.9191454,78.180786
0.9044142,77.81323
0.802489,70.94069
0.8589739,73.370804
0.857805,74.62583
0.7816956,73.69486
0.80636775,73.527565
0.7474493,75.47428
0.830358,75.83098
0.7904913,73.52687
0.7797994,74.314964
0.7057193,74.52929
0.84802884,68.089874
0.7462702,68.78564
0.78026664,70.9848
0.75016266,71.425
0.7089127,74.63304
0.7525277,69.529594
0.82245076,69.58402
0.6940417,64.78728
0.7307993,72.08476
0.78874594,71.2087
0.6456002,65.42953
0.66517806,71.03244
0.64235955,65.18346
0.55600464,66.66506
0.65851706,64.83052
0.580149,70.72152
0.5368315,71.36048
0.45167655,69.51404
0.5206035,69.67146
0.43587872,68.03952
0.44310737,69.40882
0.4976879,72.48525
0.48730773,71.24912
0.54886,74.12961
0.4663629,67.36403
0.4707785,71.54703
0.5210047,67.44901
0.5100243,74.535866
0.5725839,76.509895
0.5894703,74.32783
0.66230184,68.92808
0.77900654,73.34738
0.8946113,77.148094
0.94989496,76.817245
1.0487609,76.829285
1.0845466,82.213776
1.1536585,79.093796
1.1487854,81.99889
1.3034617,78.10449
1.2497002,80.95982
1.3955705,83.7815
1.4485488,78.50421
1.4886948,83.281006
1.637949,85.98621
1.6577758,85.264366
1.7241579,81.418915
1.6899179,86.88446
1.798775,83.50547
1.8152151,87.43866
1.8115824,86.57982
1.8559628,91.5153
1.9096698,91.23507
1.8779324,91.15488
1.9042965,90.40144
2.0005255,93.733116
1.9162819,89.46656
1.984991,89.80529
1.9362881,92.34545
1.953598,89.8206
1.9916998,92.57568
2.0284638,91.54814
1.9211209,89.40916
2.0104976,93.9971
1.9242711,90.52431
1.9241719,88.99679
1.884476,93.364044
1.8402108,89.4341
1.7697048,89.53667
1.7967232,94.12398
1.8061541,87.8285
1.8012737,88.20796
1.7943065,91.8556
1.7511206,89.11008
1.5954237,87.90275
1.7681603,88.026245
1.5993956,90.02166
1.6379411,87.92821
1.6974212,92.59357
1.5629205,85.85654
1.5706726,84.184616
1.5796261,89.49186
1.5385674,83.94039
1.5382469,83.61572
1.4849461,85.955826
1.5620365,83.53083
1.5509763,89.03676
1.4490337,86.39667
1.5122243,84.074486
1.4837929,80.98221
1.5005423,79.75979
1.4757984,82.55288
1.4523697,82.117355
1.4868116,77.713104
1.3852327,83.671265
1.3871595,80.012794
1.423605,82.8699
1.3272365,81.53889
1.362736,82.261055
1.3544823,79.44883
1.2762411,74.8892
1.3047942,82.02498
1.2588081,77.235535
1.2048448,75.76273
1.1037178,79.26715
1.1171905,76.72163
1.0890286,78.8251
1.0056444,75.3691
1.038968,77.150116
1.0152678,74.025314
0.9840263,72.94568
1.0291324,73.89349
0.947946,78.76869
0.92544234,69.51011
0.96736467,70.71363
0.99006885,74.902214
0.91461957,71.71167
1.0048245,72.727585
0.7818961,68.24006
0.9685042,74.52947
0.9779944,71.32021
0.898159,74.88796
0.9618034,68.24217
0.85799026,69.14231
0.82668144,68.17534
0.9332418,71.0608
0.9171203,71.625725
0.8167019,69.843025
0.7721374,70.51157
0.7778687,70.08637
0.76690644,67.38063
0.66021645,65.272514
0.70331633,68.0035
0.6091921,68.942245
0.55338395,66.0189
0.6006278,67.12637
0.55863446,71.233215
0.4416281,72.569565
0.5637147,68.50651
0.54985034,73.54946
0.44823298,69.869415
0.39386493,68.98133
0.5207439,70.845436
0.55195475,73.14574
0.47734848,77.19878
0.64222467,69.79553
0.60786754,70.89913
0.59420943,71.710335
0.73386526,75.69737
0.75889546,74.998764
0.75643504,78.61105
0.81872356,73.58694
0.9550185,80.42251
0.98755944,82.22878
1.1238577,80.62958
1.1128436,72.863014
1.1730378,81.80381
1.2789108,78.39944
1.2932196,81.51071
1.4928553,79.28749
1.4740287,83.10149
1.4910966,83.711296
1.5428557,84.871254
1.5070386,84.29495
1.6080191,87.85571
1.6473045,84.012596
1.6705376,87.456955
1.6666005,86.10651
1.7782893,87.46499
1.743377,85.27595
1.7948676,86.37623
1.8360586,90.41973
1.7380484,86.338715
1.788973,91.76906
1.812406,92.58179
1.7804668,92.67859
1.7572578,91.07848
1.901636,88.982956
1.7538669,88.37304
1.7550869,92.06038
1.7875626,89.86734
1.7577438,88.12381
1.7330313,89.86098
1.6944492,91.26733
1.6360391,90.94662
1.6870927,92.06898
1.5970098,95.332634
1.6589552,90.98122
1.6211826,91.39669
1.5227907,87.449005
1.5011348,87.66472
1.468646,87.755806
1.4436102,91.478
1.4403719,89.257
1.4919229,84.93995
1.4551649,88.67923
1.3491578,84.028435
1.3863275,84.62481
1.3414562,87.31188
1.3229278,87.25318
1.2824595,86.369644
1.2214018,90.75708
1.2492064,82.06998
1.2270353,81.9064
1.2303593,85.55269
1.2548637,81.34917
1.1653013,82.39553
1.2882642,82.307076
1.1553102,83.64868
1.1867536,81.556595
1.1436244,82.77146
1.0330769,78.32763
1.0868195,79.86077
1.0888004,77.5768
1.0069813,81.146194
1.0354607,79.75316
1.008693,80.93824
0.95024955,82.549225
0.841675,79.37781
0.9508117,75.862816
0.8598786,78.329895
0.83579594,77.49724
0.7816,72.82789
0.76300526,75.57249
0.7356484,77.37656
0.65600914,73.93432
0.607419,79.96569
0.6273448,76.618546
0.5338627,74.85075
0.56667274,75.073586
0.589728,72.16411
0.6627854,70.81095
0.56380403,72.0882
0.51479816,72.21841
0.5117316,76.21729
0.57806385,71.64213
0.54823947,75.3019
0.5143317,70.31942
0.5922445,68.49996
0.49040008,69.17366
0.55682987,71.277084
0.53498024,69.34972
0.48548722,69.89995
0.4351033,72.58095
0.5012108,71.97162
0.45249075,66.8448
0.34688756,65.18626
0.31992054,72.03232
0.3893861,69.46236
0.23758855,69.04872
0.32898822,71.62331
0.25088468,69.94971
0.18277243,69.790726
0.23007768,69.19027
0.1466883,68.225204
0.086006954,69.57873
0.049142886,64.530136
0.04988019,70.783295
0.089166075,69.580154
0.105702356,72.2988
0.02155855,74.622826
0.0844091,75.056625
0.08104554,72.39951
0.19259621,74.235405
0.22201692,74.42439
0.30818322,73.72876
0.38015184,77.688835
0.37644315,71.00917
0.4645901,75.40523
0.5350277,73.001015
0.5644378,74.498886
0.70012665,76.99813
0.68566346,74.62344
0.7933372,77.19656
0.9235699,79.31128
0.9473472,80.40583
0.9347154,80.903534
1.053113,82.489044
1.1366882,81.13351
1.1439044,81.25151
1.2742884,88.923355
1.262419,86.14473
1.2982756,86.83635
1.3309373,85.704666
1.3585703,90.81297
1.3275836,89.1519
1.316388,88.36434
1.5160747,89.87942
1.4501414,91.18037
1.4675562,87.63459
1.3972421,88.38713
1.4500979,89.037346
1.4456649,89.069954
1.4370325,94.64523
1.4655325,89.71289
1.3285472,89.78455
1.3584478,91.4515
1.3806206,90.78449
1.2890458,86.79267
1.304161,89.81892
1.2509263,94.707726
1.3806341,94.02578
1.3254176,91.73391
1.2478344,90.15313
1.2296872,90.742744
1.2407459,86.05967
1.1537213,88.51253
1.178129,94.75276
1.1584322,89.864265
1.1217555,88.87957
1.089522,88.175865
1.062678,90.69211
1.0168257,87.71346
1.0010364,79.07833
0.9109138,84.5375
1.0434355,84.61944
0.9587802,83.4709
0.8962373,87.55077
0.9773034,86.916306
0.93242025,89.34838
1.0111635,82.01518
0.9524771,83.11683
0.816318,82.524666
0.8716573,82.55365
0.8919023,81.920135
0.8389982,81.33949
0.91969436,85.10522
0.8990939,81.99207
0.8497441,82.87449
0.883087,81.34568
0.78877443,86.262726
0.7355398,85.33476
0.7300895,84.94813
0.7089993,80.71597
0.69974554,79.03863
0.621998,78.76397
0.6086897,78.54946
0.64349407,77.85038
0.5966282,78.43805
0.5242897,76.39123
0.6382784,76.897804
0.5149535,74.972374
0.4156413,77.28351
0.37810934,81.22184
0.37849873,75.58668
0.37407014,77.054985
0.39760402,74.49091
0.3930793,70.54582
0.32997108,78.43765
0.27451804,72.89548
0.3240703,72.24252
0.32269898,69.741295
0.39107004,72.63165
0.44714624,74.813484
0.28724054,72.19597
0.3014086,69.20534
0.32239863,69.078186
0.24467187,72.085884
0.30368754,67.62535
0.35513967,72.32163
0.26669425,68.208176
0.33361828,69.23776
0.24746118,65.485344
0.19527547,69.37058
0.1894474,67.17106
0.12941185,69.94822
0.122849144,68.72197
0.060360186,69.64424
0.16347153,71.80077
0.05636792,71.064476
0.026136586,72.08901
-0.02456598,72.82875
-0.009477938,74.36578
0.02853363,68.7073
-0.023809887,72.329636
0.018211897,69.11455
-0.0706756,71.869064
0.012030968,72.4892
0.0026815445,71.01644
0.10046915,75.914276
0.10691489,73.93154
0.27938727,74.037476
0.2214057,71.710594
0.31600395,73.332794
0.3496627,76.56918
0.39318675,80.11501
0.4120528,74.231964
0.59238476,78.37739
0.66556895,76.53805
0.72700274,72.61199
0.7423702,79.11574
0.8425914,79.72985
0.9147929,81.42923
0.91547036,82.0713
1.0706607,86.039444
1.1112255,80.31027
1.1083862,82.57863
1.0946699,81.65581
1.2866783,86.19372
1.2443871,86.9915
1.2885929,87.161705
1.4172865,83.704575
1.3766589,84.891884
1.4318616,86.21153
1.4798381,89.76327
1.5110339,88.202835
1.4508083,89.08116
1.4915587,88.96471
1.4817957,87.532265
1.5160577,88.31781
1.4830627,93.7165
1.4831712,87.76397
1.4913563,90.453926
1.4292892,92.82846
1.5526301,89.76107
1.5659518,89.008545
1.4309847,89.57151
1.5147251,91.24102
1.4800615,90.45163
1.4552956,87.1382
1.2988808,89.724686
1.3191131,95.61965
1.2954462,91.1211
1.3697551,93.6087
1.294993,89.814224
1.3080701,92.38207
1.2468055,88.42727
1.2364264,90.51659
1.2587152,89.65571
1.1448861,88.78122
1.2634023,85.7613
1.1231992,89.435196
1.1707013,92.90637
1.0824213,84.23686
1.1517421,82.06068
1.191196,85.16909
1.1749471,80.944214
1.1360886,86.0978
1.1025339,84.53536
1.1273857,83.934235
1.1889958,80.66745
1.1567307,85.4408
1.0906755,79.33009
1.1198354,82.81493
1.051542,86.7084
1.083582,80.99794
1.0033028,80.587616
1.0927509,80.82923
1.0446435,78.09895
0.9431103,80.17121
1.0551629,76.77318
0.9100314,76.38833
0.863671,77.03286
0.93538725,77.550224
0.7988158,75.60774
0.8763363,81.122185
0.7822098,75.82127
0.7444268,73.44549
0.827736,76.01944
0.6958477,76.84008
0.7634213,74.25389
0.76991636,76.61637
0.75670713,73.96858
0.6704123,78.63282
0.67026633,71.53839
0.71399766,76.04615
0.6854914,73.04108
0.6200542,74.79999
0.62919605,75.60914
0.625337,74.20638
0.66497916,73.41379
0.66750103,68.16034
0.6305469,71.9477
0.65871656,70.330536
0.6384714,72.136475
0.61358243,72.5886
0.7789289,73.15051
0.6521007,69.67073
0.66765994,69.89975
0.63336927,71.718796
0.611075,71.341194
0.53864706,70.75434
0.50151426,63.89259
0.53744304,68.88288
0.51471096,66.25583
0.42432272,67.62156
0.45963684,70.90003
0.45179138,71.515045
0.39174774,71.39375
0.4298695,71.24686
0.35253924,64.943954
0.4491059,70.99084
0.4165382,69.48815
0.42664295,67.864296
0.3502501,73.338646
0.44709024,77.44866
0.403244,72.55625
0.5041442,74.83105
0.47152215,75.647705
0.59263825,77.48284
0.7316335,75.43797
0.7494193,76.35578
0.80345845,76.225685
0.7935456,76.44587
0.9670577,76.756676
0.9450198,74.97762
1.108204,78.65258
1.1248705,81.362274
1.2070012,80.696785
1.3152691,84.87789
1.2909408,82.504074
1.4135163,86.73394
1.5076594,85.95319
1.5526426,82.45465
1.5598471,82.99985
1.7143683,85.085365
1.600102,82.06934
1.7065399,85.58766
1.7536149,84.378784
1.778951,84.48162
1.8239058,85.97032
1.8483238,90.6932
1.7650679,91.08963
1.8614826,90.011406
1.9931554,90.21278
1.8266892,89.35163
1.9435065,92.555786
1.8654048,90.04586
1.8920215,91.52765
1.8889192,90.20069
1.9509043,89.929504
1.8421533,90.28928
1.8590713,90.957146
1.8705508,89.14847
1.8229275,91.45909
1.7775282,89.05816
1.8643687,91.12643
1.833461,91.86565
1.7404163,88.79788
1.7196101,90.399895
1.7489114,86.966354
1.7347412,88.7399
1.6683744,90.27752
1.7457955,86.818245
1.589809,93.52357
1.6499133,91.78097
1.6010301,86.224464
1.5792843,87.570175
1.5586085,84.87679
1.5842813,87.67041
1.5404733,88.24234
1.5769395,84.55803
1.4639767,84.16916
1.5531651,84.75236
1.4876132,85.806274
1.5374899,84.34044
1.4421734,83.031494
1.4395115,84.38259
1.5094763,83.57087
1.3838792,81.268906
1.4524571,84.751015
1.3788295,79.265076
1.4537513,81.09227
1.4118099,78.44905
1.4299376,77.6022
1.3596054,82.80361
1.446941,78.54674
1.3757495,80.90872
1.3397368,83.761604
1.2870555,76.61444
1.1976244,79.31742
1.2434646,76.99077
1.1826037,79.61944
1.1452906,81.06264
1.1096523,76.92758
1.0765103,80.64747
1.079925,75.23823
1.0237043,77.32125
1.0392159,77.54363
1.0081786,72.15349
0.96312726,72.824
1.0189426,73.69172
0.8947348,75.05471
0.95418745,69.961464
0.9547623,73.73749
0.948291,77.52098
0.90002245,70.2257
0.89602363,73.18975
0.8950382,72.02323
0.9292981,70.132866
0.8922592,67.695366
0.9169518,70.40329
0.8771998,72.67815
0.8329894,71.13428
0.85380155,73.58624
0.8936352,68.11749
0.82165504,72.522064
0.8942976,68.56968
0.77434725,63.090218
0.76693344,65.13484
0.73316056,67.779
0.7754756,65.28259
0.6208407,66.238754
0.6509177,70.671715
0.6028408,66.97029
0.5414235,67.72767
0.56633645,69.33177
0.60204524,68.751366
0.4520723,66.93277
0.47506323,69.415184
0.5243539,68.11676
0.5020976,71.45271
0.50759184,71.22158
0.6008556,74.93
0.7519742,72.27721
0.6639491,74.14265
0.74938506,72.520546
0.81011975,73.71157
0.7533704,74.85133
0.8963313,76.105354
0.90609187,77.45041
1.155769,77.81218
1.1912286,78.2374
1.1418653,78.20489
1.2694855,79.0283
1.2615403,82.189606
1.2923346,83.20814
1.4188756,83.08859
1.4962003,82.31971
1.4843853,87.41799
1.5727504,83.77363
1.5791057,83.65474
1.6843073,85.77812
1.7583072,82.8379
1.7735733,87.95794
1.8654461,87.70902
1.8258141,84.45463
1.8375065,85.40008
1.9053612,89.20795
1.9015949,90.62622
1.8782451,90.821335
1.8564801,89.80522
1.920385,89.94747
1.9449294,90.08113
1.9225821,88.48388
1.8854318,87.16067
1.855771,91.19859
1.8143511,87.81399
1.879071,92.26161
1.7679038,88.50806
1.8524438,87.02157
1.8352096,88.124306
1.8681782,91.9213
1.8531137,86.45469
1.7276824,90.83149
1.7531757,89.666016
1.639932,86.07092
1.5752356,89.45521
1.692625,87.657394
1.6865642,93.81027
1.5868073,94.023544
1.5511273,87.406586
1.4773308,87.17415
1.4938072,90.9346
1.4665049,85.48801
1.5109369,89.519424
1.4998025,86.22871
1.434111,84.952866
1.3944068,86.39651
1.4081118,86.93535
1.3574313,82.25563
1.4596716,81.961296
1.3009149,82.00681
1.3886437,83.27704
1.3131216,83.23821
1.2908071,86.86841
1.3664393,83.62822
1.2449092,81.09157
1.2736366,82.24746
1.2221731,83.11514
1.2553091,80.406075
1.264558,81.1099
1.1616002,81.337746
1.1407766,82.404236
1.1341664,77.538704
1.0546446,79.327446
1.0072917,77.60032
1.0019623,81.37311
0.94676846,80.93746
0.99332744,83.4647
0.9344723,74.21972
0.8710669,76.20375
0.8455342,73.94856
0.82431096,80.39142
0.7657584,76.05825
0.6930304,74.355064
0.72536016,74.59414
0.70619184,71.9058
0.75569856,74.59229
0.64529985,76.285095
0.74496496,74.86665
0.68998337,76.54953
0.6783595,77.73857
0.67685306,73.63862
0.6928566,68.550674
0.7370109,72.06428
0.58132863,69.899536
0.6485923,73.11193
0.56615585,70.632576
0.6909351,64.368935
0.651801,73.82486
0.67891747,65.35967
0.52520376,70.78506
0.464795,67.090225
0.5178278,71.92082
0.46089613,63.700798
0.4228131,67.84488
0.37841573,67.80642
0.3902672,70.04396
0.3341389,67.55415
0.37660426,70.37557
0.32899353,68.70623
0.24455254,66.32308
0.23934132,67.74175
0.23593064,68.14966
0.14467642,72.11661
0.11418271,69.40743
0.1975705,67.93536
0.22983603,69.977554
0.2467483,72.959564
0.19162346,72.74659
0.3027136,69.64146
0.30074748,70.94022
0.37644908,74.448746
0.4678129,75.284935
0.403686,76.492134
0.4139083,71.53261
0.5636296,76.0804
0.67941904,75.28293
0.7120357,76.76334
0.7630253,78.31289
0.844884,79.53919
0.8904002,81.26884
1.0266478,79.9769
1.1089841,82.11228
1.0735692,82.54068
1.2440633,82.14965
1.2341121,84.980705
1.2193857,80.080536
1.2166365,83.526344
1.3106649,87.24042
1.3612119,84.11889
1.4678464,84.46042
1.364999,84.45145
1.3805826,87.09276
1.42396,88.03871
1.4720483,88.98947
1.5058826,87.90309
1.4741776,89.94109
1.5640063,89.827484
1.4795678,92.34994
1.5433096,93.083244
1.5212779,90.88569
1.5127515,90.810974
1.4695977,93.214485
1.4619907,90.58791
1.4163992,88.990906
1.4617058,90.780975
1.4342107,89.67296
1.375922,93.5456
1.4280211,88.30023
1.3033922,94.51573
1.3405213,92.27214
1.2978846,94.81326
1.3277874,90.08001
1.310005,85.61299
1.3077856,88.26148
1.191498,89.41625
1.1768609,86.250534
1.150384,91.78886
1.1737748,89.70466
1.0572933,88.131836
1.0628456,90.825935
1.0436296,85.49652
1.0296878,84.85598
1.1143205,85.229866
1.0078729,84.084076
0.9888166,81.21712
0.97901654,88.28294
0.9672486,83.984344
0.9802667,83.81007
0.9448805,86.47076
0.96546566,83.4706
0.91832155,83.77112
0.8981146,82.130356
0.89309865,84.43319
0.933236,82.2963
0.92048866,81.85305
0.93184346,80.257935
0.7949102,79.937965
0.82843596,81.371956
0.7717587,81.24623
0.7534429,82.08185
0.7282138,78.899506
0.6584661,77.89776
0.63385904,74.79418
0.548866,76.49177
0.5568057,72.86583
0.49311146,77.18427
0.4822091,79.72379
0.52868146,76.423515
0.5244576,75.39962
0.47329125,79.27236
0.42606723,74.30367
0.40370435,74.50177
0.33523756,73.98931
0.27295068,69.45008
0.33604798,74.651596
0.3478481,76.00356
0.41094828,73.16076
0.33444,74.74614
0.32268557,75.8233
0.28596458,76.99708
0.27097237,73.16748
0.40919238,73.137985
0.37971017,68.8712
0.35507882,74.262825
0.40805376,67.48717
0.32422042,65.378006
0.28588974,69.59752
0.16208364,69.34869
0.26053163,71.620895
0.17142662,71.22768
0.1260037,70.49986
0.1424563,67.16984
0.15663216,64.139366
0.15035158,70.053566
0.047488235,64.45352
-0.03669327,73.72791
0.0010887544,71.207405
0.08396479,70.63097
-0.08180834,69.57329
-0.08650398,69.19559
0.0019897905,66.53309
-0.14225239,66.17451
-0.07468184,71.982475
-0.040935174,74.384125
0.074486345,67.955734
0.06617259,71.42763
0.07216164,74.03583
0.08082112,71.37774
0.1125857,78.06409
0.2332224,74.34977
0.26480603,75.50969
0.31955084,77.32924
0.42536893,70.66838
0.5035215,83.2488
0.6538729,80.42749
0.64014095,73.64974
0.65479475,81.44994
0.79349124,77.264046
0.9478667,81.96804
0.9276172,81.90313
1.04368,82.68946
0.98016536,84.454094
1.1145899,84.211006
1.114649,83.35764
1.1910987,84.09881
1.2590115,84.92787
1.3079416,87.67306
1.2778828,84.90724
1.3167892,86.98822
1.3370154,87.946945
1.373518,90.729706
1.494996,94.020355
1.3927106,87.85187
1.4023411,90.087234
1.3652538,94.124016
1.4001362,86.92167
1.4470807,90.2319
1.3616972,88.68561
1.3997908,92.414795
1.3793101,92.53002
1.4092975,90.75579
1.4291276,91.77329
1.4257698,91.34029
1.3331237,91.443405
1.3514826,89.31463
1.3010074,90.82596
1.3222986,88.278275
1.2723272,90.17209
1.199378,92.2033
1.2539937,87.834755
1.1874461,91.450645
1.1688254,94.289856
1.2117153,90.91449
1.2086325,89.135376
1.1315087,89.379486
1.1056209,86.390465
1.0564485,86.17399
1.050183,86.52839
1.060909,84.335396
1.0092759,88.2111
1.0568271,87.01298
0.9033203,85.25092
0.9897229,83.9032
1.0306069,83.978325
1.0799289,83.232506
1.0374006,84.32509
1.0604004,79.01229
0.9823161,81.279976
1.0354173,79.50902
1.0481695,87.68773
0.9245749,83.20577
1.0075763,80.16836
0.96303874,78.60606
0.9905984,78.02466
0.91290927,78.829124
0.8366214,79.055435
0.84650874,76.666916
0.84879214,77.461655
0.7821454,77.40915
0.7565666,79.01307
0.70044833,79.03431
0.7692089,74.928955
0.73585105,78.80163
0.70591646,76.73746
0.67536145,79.32426
0.6041821,70.608986
0.64521354,74.537224
0.55633456,75.74174
0.56301254,77.88684
0.50992614,77.93687
0.5201574,70.47879
0.5272588,76.4971
0.5391845,73.06644
0.48872957,74.75032
0.49828503,70.961
0.49054775,71.03164
0.53479695,70.203545
0.5945668,70.5041
0.58428067,69.998
0.5553072,70.41325
0.5537758,70.540276
0.4149668,67.301476
0.54689604,70.77025
0.49463996,69.35943
0.49272698,66.439545
0.49474257,73.60338
0.3905848,67.98403
0.4237936,66.60236
0.40974545,69.49916
0.33049166,65.39842
0.30002776,68.561714
0.3628589,68.53161
0.35834622,66.978455
0.30107614,71.23787
0.26614016,68.51973
0.2708833,70.64399
0.30998865,67.78298
0.26009265,71.041626
0.27443695,68.20152
0.24702947,70.25395
0.31922698,68.39055
0.22612576,73.193825
0.40613914,73.57901
0.41256532,72.53942
0.387734,67.72125
0.5329979,73.27362
0.52931464,77.225586
0.68609583,73.342804
0.66271245,73.663635
0.7747643,75.76126
0.7510946,76.0276
0.94222933,77.329445
0.99963343,74.67079
1.0761086,78.1214
1.2351449,79.499466
1.2286242,81.829704
1.327329,79.52826
1.3723166,87.07161
1.4035527,83.20735
1.4653654,80.65499
1.5518199,81.800575
1.6155001,85.21711
1.5704308,90.24804
1.667882,85.27924
1.654656,85.2877
1.763939,84.74084
1.7319589,83.79674
1.7031206,93.15957
1.6205959,86.775536
1.6997261,89.64919
1.7538759,88.29844
1.7462285,88.852554
1.713412,94.709404
1.7606919,92.75777
1.7761219,90.45837
1.8266562,89.84678
1.7597528,89.11622
1.7309204,94.629265
1.874251,93.76627
1.7591025,93.92219
1.7609051,87.38814
1.7684008,89.6016
1.7338078,88.37125
1.7957639,93.014946
1.7532845,90.11511
1.710295,90.260666
1.6320155,90.90259
1.689399,89.457466
1.5178968,92.2025
1.6022943,86.96805
1.4945817,89.66047
1.5422361,83.581924
1.490797,84.767586
1.5738819,87.4112
1.5117038,88.153824
1.4838674,86.04108
1.487062,85.294174
1.4282429,88.80331
1.4403925,87.84222
1.4298767,85.70776
1.3904277,82.479
1.4700102,83.7958
1.4054999,83.235565
1.4310049,83.751915
1.4034023,83.56734
1.440652,79.506775
1.4808915,84.35957
1.361988,84.654236
1.3643969,82.80148
1.3042183,82.36225
1.2487445,78.439095
1.3421949,79.27983
1.303372,79.052185
1.2475406,75.83898
1.2554669,77.663086
1.1808932,80.92163
1.1378186,80.78719
1.1248277,75.52446
1.1225023,77.76009
1.1164887,73.10484
1.0747184,74.16572
1.1071074,77.26457
0.9725948,78.90024
1.0065178,74.57717
0.92849386,73.706635
0.9284162,75.0178
0.9560911,73.456825
0.9935857,73.65152
0.9760779,72.328026
1.0035537,68.98089
0.9264531,72.5712
0.8715198,75.06701
0.9025112,72.15685
0.8797344,72.956696
0.88713217,69.0092
0.90387505,73.266106
0.90885335,71.461205
0.92451835,73.459694
0.90963894,74.70623
0.9120612,74.82033
0.90514237,72.22241
0.79621476,68.86526
0.8644046,73.1929
0.82933193,70.68255
0.72389483,71.16742
0.76826674,69.99192
0.76160955,66.683365
0.6635266,70.6855
0.69097483,73.29901
0.6554831,71.95496
0.60431796,72.80552
0.5861054,67.32077
0.56531405,69.601
0.53694457,71.915985
0.52270913,68.95458
0.5216219,67.78688
0.6562192,75.64958
0.5726479,71.821785
0.5072056,71.18347
0.62910223,73.7203
0.612985,64.08691
0.67461175,73.703606
0.70297986,68.675064
0.7708158,71.54705
0.85919976,79.164314
0.99337125,79.366844
1.0435804,77.87334
1.0132856,71.3126
1.0917118,75.1005
1.1568583,80.08347
1.3240465,83.73249
1.2893139,79.85506
1.4343928,76.33116
1.4843715,82.01618
1.5786552,81.04798
1.5597515,84.724144
1.6544743,82.008415
1.7387688,87.13469
1.7137098,85.02415
1.7558764,90.86879
1.7640697,86.41876
1.8783774,91.747856
1.8873646,86.87757
1.8995812,86.75519
1.9088454,89.99769
1.9294738,85.19104
1.9330959,88.87981
1.9117297,88.68383
1.9815217,87.28691
1.9322901,91.26534
1.932275,89.667465
1.9442438,89.07319
1.9334309,91.00338
1.9347486,90.31328
1.9542863,84.38818
1.8764614,90.49994
1.8953109,90.32463
1.8840476,93.28953
1.8618491,92.48121
1.8171779,93.72862
1.8293911,86.92138
1.7688861,87.313736
1.6749294,90.21337
1.6765836,89.56797
1.7530937,89.134544
1.6435417,92.31425
1.6635848,86.760185
1.6040671,89.92663
1.6112536,88.12904
1.5933443,88.41307
1.5158302,86.71715
1.5122396,83.37992
1.5102082,81.935486
1.5064931,86.01044
1.4563457,88.17659
1.5147358,88.22855
1.455571,85.45195
1.4189187,83.79143
1.4079666,81.56402
1.4730058,87.332054
1.4490229,78.136185
1.3640546,82.55529
1.4625417,86.843124
1.3807813,82.497314
1.4276793,84.15563
1.3997874,80.025085
1.2992119,82.59074
1.3842431,77.17691
1.4154673,77.18431
1.2431989,78.38164
1.2597163,80.15975
1.1475525,78.66731
1.2688354,78.88326
1.1560252,79.43395
1.1050079,78.05088
1.0538284,75.82978
1.054773,78.36803
0.95009893,76.021126
0.9557175,76.74572
0.874905,74.40234
0.866497,77.25933
0.8971955,77.105316
0.76732016,74.48523
0.8416249,74.26871
0.7786425,70.76816
0.7961883,72.39818
0.8160649,72.99299
0.7643176,70.525696
0.7976415,74.486015
0.7058637,71.24014
0.71552974,71.62824
0.81577575,74.09966
0.8629773,67.616196
0.74169195,69.79398
0.6051145,73.56891
0.69582886,70.00382
0.7423518,63.907455
0.63599265,69.983116
0.7365298,69.12513
0.6322551,65.56847
0.5425642,71.07876
0.6276476,68.6623
0.56340516,68.282
0.5309287,69.94603
0.5447978,68.88978
0.40972695,68.08682
0.3947072,68.21295
0.36557388,68.61463
0.4099238,69.184265
0.2578344,69.96817
0.28758872,72.43288
0.319076,68.45752
0.3306011,75.7934
0.259263,71.11636
0.3268589,69.458725
0.35013145,69.80262
0.42152187,74.30843
0.3933359,73.21329
0.48045844,73.86362
0.48520032,75.30961
0.5107029,74.84762
0.555049,73.51561
0.62113553,78.93744
0.86193156,79.73095
0.7449049,76.739174
0.8330292,77.594955
0.8889433,79.500305
0.9489227,76.350006
1.0066637,80.49883
1.0639154,78.39803
1.1763172,80.97375
1.3013825,85.22358
1.372554,82.5686
1.3227786,84.285164
1.3286116,85.43747
1.4846526,85.916084
1.42105,81.57971
1.558079,86.4057
1.5247357,87.646996
1.6649772,85.4652
1.5436523,90.69409
1.5504817,86.7714
1.4945562,85.85641
1.5319389,90.26905
1.5741892,93.28666
1.5758462,89.38091
1.5997852,94.620316
1.5147985,88.66129
1.5304673,85.717476
1.5569336,88.61645
1.5949461,85.83323
1.4753802,91.27806
1.5018533,87.923615
1.5525753,91.749084
1.5858129,89.36483
1.5211023,89.96286
1.4763558,91.33937
1.3539512,89.99903
1.3566246,91.459694
1.46553,89.022484
1.3951464,87.62036
1.3680407,89.01634
1.1706586,87.15611
1.2639692,87.844185
1.2037004,89.517456
1.2496631,88.1901
1.2773572,85.2788
1.1962001,87.94944
1.1515014,91.54273
1.1610378,84.36935
1.1254214,83.94803
1.0757641,88.87286
1.1036785,83.07694
1.0765115,86.54296
1.0972683,79.88337
1.1086681,84.782524
1.0465035,86.02021
0.9754673,87.05881
1.0124478,85.007996
0.9696116,81.82636
1.0362879,81.64878
1.0338649,80.878296
1.0225565,85.47408
0.8942685,84.13987
0.9841612,77.624695
0.94081074,84.23159
0.77458495,80.51103
0.8493714,78.08688
0.7840263,80.18318
0.7835108,80.42692
0.7634202,76.153885
0.7619587,78.32027
0.70393926,81.32599
0.5595798,73.666664
0.5194359,74.71513
0.5657765,75.59877
0.49990898,75.97868
0.5444067,73.91152
0.4385085,78.28167
0.474114,74.33374
0.39832327,74.32924
0.48037362,78.25452
0.48389375,73.24363
0.40244544,70.42149
0.33194467,68.8242
0.34469566,72.11009
0.3903163,73.63544
0.35754335,73.45511
0.3269821,70.28212
0.33834854,69.23349
0.31621993,72.4902
0.39258507,66.20773
0.36634222,68.69885
0.4005785,72.46579
0.33052844,70.40086
0.27905384,74.44916
0.31189963,67.10072
0.21326287,72.71884
0.2030882,69.3174
0.26269257,71.67605
0.14920247,67.82837
0.14080861,72.87454
0.122655116,70.54076
0.07787247,67.733955
0.063294575,68.805466
-0.002136614,71.36717
-0.04126678,72.61582
-0.050296966,70.032715
-0.05598708,71.87456
-0.0033048957,72.873566
-0.01208807,69.40076
0.039197907,72.44975
-0.080057934,68.09568
0.010278716,71.28565
0.009662939,75.74339
0.12232779,72.870674
0.145925,71.5082
0.25236714,70.38456
0.30937517,73.879654
0.23241563,74.456314
0.33363718,73.76663
0.4601069,77.10808
0.5425195,76.04676
0.54532707,81.47531
0.6561177,79.177574
0.77756596,81.20323
0.8598324,83.4382
0.8215936,81.79143
0.9215076,80.5604
1.015292,82.11141
1.0667979,79.01361
1.1860565,81.05858
1.1267895,83.0492
1.1353549,84.69492
1.209328,86.57086
1.2682108,84.921844
1.2529783,82.82819
1.3521321,90.92092
1.323151,89.63152
1.3432521,84.86073
1.3269129,89.44241
1.252993,92.04256
1.3054097,90.242004
1.4711837,87.263084
1.4363725,91.10073
1.3740098,94.13306
1.3945585,88.76779
1.2644877,89.72649
1.4116589,91.45281
1.3263632,84.524994
1.3634412,93.015335
1.3443878,93.14626
1.3362514,94.11612
1.2401406,93.71987
1.3257813,93.05888
1.2890664,90.790245
1.2321736,87.96005
1.1863791,91.642075
1.1896851,92.02237
1.1797826,90.101
1.23259,88.54853
1.1095903,90.03461
1.0364467,85.2224
1.0805861,89.071945
1.0637825,86.69764
1.0141157,84.94198
1.0334766,86.422424
0.9174446,86.57718
1.0422691,89.22526
0.91761273,77.56084
0.94477195,85.22088
0.89274883,84.10681
1.0137794,86.50871
0.97275585,83.95978
0.9679332,81.81244
0.9813727,86.96266
1.0067055,83.691025
0.9518736,84.46196
0.905554,82.92487
0.91921693,82.67944
0.84349406,80.93662
0.96171296,84.533195
0.85998285,77.912704
0.80152434,77.77152
0.8010181,79.44328
0.8250364,79.98967
0.73368716,79.10942
0.73082185,80.7756
0.7201882,77.88919
0.66597176,78.22157
0.6572372,78.721725
0.6543541,80.757805
0.571861,76.34327
0.5186821,77.96988
0.5427861,70.512505
0.47897202,79.69457
0.50581336,71.28061
0.43920982,75.32502
0.45510998,74.43713
0.4036511,74.503136
0.3947274,76.753235
0.4531523,75.49545
0.43778008,74.93325
0.41597536,73.96912
0.47397634,73.50078
0.36907133,73.81651
0.3596648,78.45668
0.4294839,71.99578
0.43667233,70.461044
0.44666582,70.842705
0.40921137,66.64344
0.344157,69.73283
0.42900822,70.71695
0.47495353,73.30355
0.37729883,70.65223
0.33319572,72.06506
0.40733826,66.13774
0.31488687,68.57631
0.2609724,69.42448
0.22159472,68.17393
0.21498078,67.41266
0.1681285,67.765945
0.21070951,71.369
0.112351894,69.45038
0.19263534,67.349525
0.11759678,67.60605
0.15788873,67.97248
0.114085585,69.267075
0.0963967,73.96942
0.25459015,71.41856
0.21886887,70.61875
0.25604203,72.043655
0.27562448,74.161804
0.27316907,73.47187
0.4309796,75.76551
0.5714218,75.32565
0.508019,77.69892
0.5849098,73.133316
0.74490315,76.20437
0.78914833,77.92145
0.76092046,77.20523
0.85311276,75.27371
0.9666936,82.27604
1.1095297,85.27913
1.0932109,79.286934
1.1619043,81.87775
1.1463528,83.244675
1.2752723,85.66298
1.3139391,86.407455
1.4304934,84.08509
1.4863396,87.25605
1.4553815,89.984
1.5392162,91.95465
1.5375822,85.919685
1.6254535,89.47588
1.5754493,84.23203
1.6027175,91.13877
1.6223896,89.59613
1.6579764,90.40157
1.6379018,91.33098
1.6668352,91.14426
1.7326041,93.78975
1.6688439,90.67241
1.6923419,89.81089
1.6957943,87.340645
1.6720768,90.96356
1.7189595,87.565285
1.651506,92.17492
1.6365699,92.21913
1.5969462,89.701546
1.6232015,90.626045
1.634145,92.34048
1.5649109,89.10726
1.6273105,91.60048
1.5759382,89.56261
1.532506,88.57028
1.5914112,89.96705
1.4359169,89.38464
1.3757085,87.71253
1.3848599,88.15966
1.4070913,90.807
1.4543467,86.75811
1.4454821,88.69987
1.3769307,89.305405
1.3906013,85.367676
1.3065051,87.94445
1.3044691,84.25376
1.3926839,87.24027
1.2486895,84.08341
1.2898912,83.388535
1.3300701,82.866455
1.3554224,85.07376
1.2984848,82.48947
1.2866067,81.13675
1.3206834,84.490265
1.3579282,84.020424
1.3121916,79.44775
1.2865167,78.58795
1.3352156,85.28199
1.2805876,77.04832
1.2685302,79.881355
1.1822966,80.38968
1.1772487,79.21879
1.1947097,75.91654
1.1376525,78.12867
1.1056484,74.70049
1.0406259,80.615105
1.0422596,74.538795
0.9787816,74.69434
0.94360536,80.46811
0.8941882,73.860535
0.9959299,74.87095
0.87645805,74.87114
0.7967583,72.46335
0.85057634,75.10361
0.7757982,74.81082
0.88000774,74.916626
0.856621,74.52903
0.8875928,76.48136
0.84131014,74.67249
0.87910146,66.942245
0.89670336,74.183495
0.8684221,74.98697
0.86933315,72.14998
0.7598769,67.295975
0.85898376,67.96075
0.8524135,68.86328
0.8812415,69.26004
0.90036166,67.045166
0.7758035,66.61027
0.7892313,68.811264
0.7791588,71.83118
0.72311276,66.03779
0.74426633,66.949036
0.7229415,66.05191
0.6777753,66.92135
0.6155011,71.16888
0.62661266,73.35293
0.63103676,69.71875
0.5660488,70.59786
0.49739754,69.56398
0.570015,71.02715
0.44320583,70.54017
0.5340038,72.70002
0.48169616,70.19794
0.5597246,72.77751
0.4932583,74.30369
0.52787566,72.260605
0.5742701,73.75227
0.6230448,71.25816
0.780021,71.64063
0.69599915,72.652
0.758984,73.56041
0.9185879,72.38518
0.88106245,74.7816
0.95707124,78.67138
1.0684701,79.183136
1.1324428,75.929825
1.2019202,80.74267
1.2470634,80.28138
1.3864108,80.86967
1.4414634,80.5915
1.4904944,83.166046
1.5069176,80.83479
1.6392289,83.26851
1.6334045,85.61367
1.7753689,84.08125
1.695352,87.39434
1.7067655,86.639305
1.8532321,87.7382
1.9518299,84.00064
1.9657625,85.01252
1.8841189,88.11065
1.8533437,86.17766
1.9717369,90.32356
1.9756445,87.15986
1.9722358,90.91446
1.8530409,92.934494
1.9551163,87.474396
1.9432921,92.75171
1.9989419,94.76078
1.9438325,89.44163
2.02764,90.31291
1.9201639,93.9733
1.8770682,88.3418
1.9322313,91.66664
1.8763845,90.51444
1.8549078,88.387764
1.8673784,90.99929
1.8752481,89.67816
1.8474928,92.64975
1.8450915,92.132164
1.7847385,87.55004
1.7557713,90.35489
1.6707246,92.97581
1.7250866,88.16645
1.5906574,89.76046
1.5822722,86.95472
1.5599027,84.65115
1.5241231,90.82981
1.6319556,90.47575
1.5858091,87.72665
1.4700725,85.521355
1.4788344,82.10664
1.4806943,87.94858
1.5682058,83.092636
1.5072852,87.62176
1.476474,82.133644
1.5243632,83.20503
1.4743491,81.660904
1.4636593,84.027565
1.3959086,85.51837
1.4373199,80.77475
1.5154947,85.39626
1.4250627,82.71513
1.4219298,82.965775
1.3507415,83.18519
1.2878674,80.751434
1.3305244,77.774895
1.3067544,79.78261
1.1762208,80.663185
1.1916034,77.805466
1.1796362,82.34946
1.1058013,77.381905
1.1305047,72.03093
1.1157848,73.62436
1.0610518,74.405785
0.9979143,76.04541
0.95694244,77.29648
0.9564508,77.76328
1.0510944,73.458374
0.8778574,79.02668
0.8844268,75.68206
0.8806508,74.172424
0.92587847,74.61602
0.90089816,69.605576
0.91012365,73.07613
0.8913073,73.91297
0.84598225,70.68771
0.88251823,70.992836
0.8231122,72.88249
0.911497,68.48844
0.86086506,70.178635
0.8862853,71.7247
0.76554817,67.843704
0.797862,66.32261
0.7378463,68.613464
0.8112897,75.85918
0.7569454,70.22192
0.7338531,67.04602
0.70608723,69.06595
0.65570575,65.85131
0.57520205,68.667015
0.68375146,73.8212
0.5151204,73.241165
0.5180931,70.89306
0.46489662,66.292885
0.49520695,67.09237
0.42004704,68.72245
0.46481907,68.11835
0.40842104,69.403206
0.4492116,69.30758
0.42645308,68.77348
0.48446447,71.98189
0.5469525,73.30293
0.4775456,74.39588
0.5416183,75.98409
0.5664864,71.87582
0.5250105,72.60871
0.71261513,70.591644
0.67899984,77.12712
0.71889776,78.613304
0.84741265,75.55524
0.9096558,75.592896
0.99070764,77.3461
1.07797,76.00359
1.1282471,77.912735
1.0871624,83.6411
1.2615209,76.08213
1.287543,79.533714
1.2942617,82.96759
1.4441391,82.2235
1.4765791,84.44486
1.5529633,81.584
1.615643,88.53365
1.5702956,86.0836
1.5851609,83.765335
1.6164427,85.94701
1.6990393,87.719444
1.7022126,91.13537
1.6652144,87.719185
1.6894219,89.34857
1.7034796,88.13041
1.703391,87.8956
1.7178094,87.642075
1.7681724,86.54091
1.8085895,94.09509
1.727629,87.69471
1.7650791,95.20231
1.7018816,85.69006
1.6381248,86.8203
1.6760936,90.0297
1.7167859,86.02148
1.5943996,90.45423
1.6579385,90.16147
1.537515,92.992714
1.5493345,89.08293
1.5261544,95.124374
1.5315737,88.125206
1.5083823,89.398605
1.4136739,92.732124
1.4080175,88.15364
1.3904475,84.9352
1.4568815,89.687065
1.3581679,87.23667
1.4087111,89.53491
1.2634252,87.46284
1.290855,88.79672
1.2998142,91.65127
1.2498056,85.88095
1.2309434,89.73225
1.1914312,85.92282
1.1571093,85.11833
1.101714,83.50469
1.1878386,81.62229
1.167743,83.66481
1.1022226,80.62651
1.0988631,85.08438
0.992606,85.549934
1.0541314,83.05878
0.99688727,82.29606
1.0788682,79.06109
1.075556,80.322754
0.97084236,82.033165
1.0033473,75.61138
1.009838,80.36782
0.9054162,79.05094
0.84207356,83.284996
0.939123,79.36419
0.812202,81.60039
0.85632503,76.743065
0.7524568,76.85433
0.62140924,79.15045
0.6924042,77.50054
0.57885796,77.113884
0.6344081,76.79072
0.5960596,75.09793
0.62485445,78.779335
0.50221324,75.01521
0.5367527,71.215614
0.44033587,74.380486
0.5133144,75.161804
0.46023917,76.73339
0.49970433,72.92652
0.5189629,70.88626
0.46832123,72.88089
0.4606467,73.468704
0.35224253,71.11542
0.577345,68.89686
0.39712515,72.888885
0.4641201,69.441216
0.42304265,73.70635
0.35742983,72.80457
0.4107625,68.78965
0.4368918,67.28055
0.39207602,67.21241
0.33401504,71.019424
0.28930992,70.06352
0.23578727,67.49842
0.19200398,70.13206
0.15117994,68.94527
0.16231275,70.29086
0.06427773,62.228485
0.0794323,67.64659
-0.029028704,71.06593
0.08681339,69.19365
0.08002351,68.190575
0.031995516,67.3311
0.024766134,73.11961
-0.0046707364,68.5426
0.04552039,72.885414
0.13319065,76.6261
0.12198517,71.5937
0.21668755,73.48251
0.13253938,72.62243
0.14716873,74.13225
0.20546092,78.04921
0.3424848,76.57095
0.34212717,79.14544
0.51912415,74.758705
0.5470332,78.23518
0.5780259,75.49305
0.66008997,77.11759
0.74681616,79.41953
0.8932625,82.15175
0.8742754,78.66508
1.0005462,81.56527
0.99966514,80.297676
1.120006,80.81407
1.0841571,87.3374
1.1396973,83.80646
1.0877589,84.860466
1.1745589,85.142105
1.1633524,86.00671
1.2458154,86.97245
1.2781473,88.28218
1.2339128,89.260864
1.3298155,89.66823
1.3669832,89.30406
1.2893949,89.185936
1.3133712,88.398
1.3686306,90.0923
1.3867007,92.3516
1.2767333,90.85175
1.374613,92.09307
1.3669801,92.577835
1.3844297,91.79063
1.344011,87.67313
1.3762891,92.41492
1.4050256,89.27236
1.2175475,93.06927
1.353068,94.69999
1.2932397,85.27821
1.2390271,88.385284
1.2187507,91.70902
1.2201184,90.2867
1.1284934,91.78854
1.1761909,89.10813
1.0891031,85.81402
1.1047087,92.58643
1.0186392,89.09151
1.023802,88.29209
1.0360842,87.842476
1.0029736,89.24262
0.96035844,86.8579
1.0307568,85.319046
0.91938215,90.92209
0.92149484,83.85177
0.9535841,83.99877
0.94324875,83.49764
0.88576335,82.986595
0.90971464,88.76552
0.9306657,85.38837
0.88319945,81.686356
0.90501237,82.36724
0.83336896,80.71081
0.8686244,85.15834
0.88310283,85.496635
0.7952475,84.512505
0.7826141,79.77059
0.8942987,81.79371
0.82448727,76.310715
0.75426126,80.93487
0.7196413,80.462006
0.71195966,77.590416
0.6534674,77.90856
0.68306196,75.89251
0.60413307,77.04879
0.55641705,77.72463
0.582359,74.89487
0.44453102,80.00831
0.5714575,77.63145
0.36601174,73.12552
0.43405455,69.79968
0.4943569,76.432335
0.42210588,75.75454
0.41006833,72.97937
0.4534119,71.080894
0.43041274,74.76364
0.36482793,74.481255
0.32167587,74.31014
0.30551195,75.81743
0.3392183,73.91296
0.34853256,73.89485
0.30126455,70.24602
0.31257364,71.32702
0.37946656,70.59167
0.34544882,71.9423
0.3872216,67.77839
0.29290566,72.082535
0.33593255,68.0045
0.3455986,72.57243
0.42666212,73.199486
0.27482235,69.543846
0.28952047,71.70335
0.20895064,70.17195
0.2691482,73.00571
0.19810876,67.827126
0.2024348,69.832535
0.1356249,71.058784
0.07789316,67.16674
0.10119828,68.2858
-0.015714984,66.464386
0.041961517,73.048676
0.018203808,65.34469
0.051091935,69.26587
-0.0013212014,73.111496
0.012738794,70.96591
0.025542744,71.20956
0.12026567,70.59162
0.09549301,68.32901
0.2293664,73.339554
0.20556623,76.81738
0.34603313,74.47453
0.37607577,73.44807
0.3769983,78.17274
0.5032731,77.09478
0.5967042,78.35303
0.6942472,76.53147
0.6906682,80.765915
0.80711573,81.39072
0.86512864,75.10056
0.9788085,86.79521
0.9954894,80.90389
1.0894619,84.00929
1.0950093,83.4232
1.1813271,88.35295
1.3068663,82.779816
1.2746121,83.051895
1.3266212,89.151085
1.408509,84.9236
1.5010537,88.392426
1.418856,85.23501
1.5194134,87.11289
1.4896083,88.14209
1.4385087,89.7152
1.5438607,91.09734
1.5878209,88.37666
1.4819704,87.34549
1.5316219,89.64234
1.5753623,88.75528
1.459442,92.161804
1.6208829,83.60215
1.5143503,87.21827
1.6680111,89.024704
1.5448549,90.87339
1.4847779,90.19799
1.5174794,88.58861
1.5573229,86.569855
1.5179517,87.461
1.5000466,93.53599
1.4398338,89.24292
1.4333661,90.4867
1.4291021,88.69869
1.4021369,93.78822
1.4620068,91.17887
1.3953604,92.416275
1.3137274,86.74069
1.3057618,86.9955
1.2740359,88.03266
1.3635077,87.685196
1.2815819,86.313
1.2827706,90.59367
1.201228,87.226234
1.2312676,83.491455
1.2366737,85.57304
1.2455046,83.9103
1.1639409,88.079666
1.2261311,83.5356
1.2389456,82.27211
1.1638162,83.38999
1.1208915,80.998276
1.1975667,78.59117
1.2083255,83.6054
1.1902457,85.17234
1.2069134,83.120255
1.1263169,78.84664
1.1875024,81.96312
1.156138,81.65619
1.1131439,78.64705
1.0812099,78.61148
1.0133424,83.405365
1.0063689,80.94899
1.0818224,76.50531
0.9990242,76.743
0.9900967,78.97567
0.94923145,74.07101
0.8120106,76.06261
0.87953454,73.24009
0.84709644,75.33853
0.7526154,74.706055
0.8223024,73.756
0.77275527,72.04256
0.7591257,72.721954
0.7711255,77.77749
0.81391686,77.55125
0.8558447,75.593376
0.65818167,74.09162
0.75350547,77.57972
0.7232821,73.729515
0.7209328,73.50062
0.7593412,68.47387
0.8316036,72.36356
0.752859,71.012726
0.8055147,71.90432
0.68948674,69.5348
0.7086593,67.59841
0.6932627,72.39986
0.7214707,70.997284
0.72735786,72.58055
0.694612,70.000496
0.6002448,69.24496
0.6042583,65.43554
0.6598696,71.08533
0.520918,66.179146
0.5156395,64.1589
0.500657,69.444664
0.5685524,72.47163
0.5073355,70.64128
0.47825703,66.851234
0.45789206,69.514915
0.45606175,69.087204
0.32816195,70.80193
0.5130006,69.05961
0.39620483,69.92311
0.46207404,70.749016
0.46145803,75.7934
0.55533564,72.50374
0.49548745,72.31066
0.55549145,73.80796
0.72620547,74.46716
0.78785646,71.16804
0.8857491,71.059784
0.87408906,75.46833
0.86420643,76.661606
1.0807985,76.662186
1.1236331,75.24523
1.1195176,82.776855
1.30121,85.85264
1.2776227,75.68249
1.3426217,84.13716
1.4088002,85.26459
1.5782199,81.58583
1.6046853,88.90331
1.6319929,84.72977
1.7174646,84.71284
1.632745,83.28091
1.8244222,89.61699
1.7813135,86.15902
1.753931,83.062485
1.8392063,89.68466
1.8779997,88.91199
1.8414066,88.60578
1.8149103,85.910286
1.8968636,88.921036
1.9504223,86.85394
1.9231744,92.78885
1.9450969,91.375244
2.0219598,92.58991
1.9569607,90.23589
1.9950234,87.793625
1.9078999,88.62824
1.905487,89.84089
1.8765391,88.64537
1.9675653,94.450195
1.8503928,92.71572
1.9025558,90.10622
1.7683759,89.405426
1.7671565,90.22141
1.7918283,94.72944
1.7989154,85.0024
1.7524453,93.461174
1.7597724,82.687775
1.7070329,91.925026
1.7312361,88.395515
1.6397897,84.86317
1.5505838,88.98962
1.6531988,89.50646
1.6261783,91.885704
1.649518,85.29923
1.6594821,87.831116
1.5719105,84.91673
1.4728366,91.0679
1.5799954,85.91843
1.5506006,80.15649
1.5487173,84.25035
1.4210384,84.43149
1.5493162,81.63658
1.458777,84.71252
1.5072644,80.60684
1.4939538,81.950134
1.4705462,75.579254
1.4412012,81.24114
1.4692264,82.91192
1.3933256,80.86558
1.4356416,80.638725
1.3119814,77.268486
1.3040365,84.9964
1.2189171,82.85205
1.1988622,82.14256
1.2444507,76.648605
1.1640657,80.22349
1.1648532,77.727005
1.1961565,78.185005
1.022654,77.57543
1.1358005,73.71073
0.99225676,76.01038
1.0231751,78.84634
0.99375266,73.24734
0.9994717,77.14745
1.0155652,74.39645
0.9820026,75.785965
0.9458133,75.74585
1.0206686,76.64779
0.8906985,74.22275
0.84818727,75.52939
0.92592597,75.653435
0.8865652,69.3379
0.8730347,76.73362
0.8601954,67.82658
0.88677377,76.28838
0.9133635,70.38074
0.92960477,66.541885
0.8814457,68.70477
0.74716496,71.187164
0.87393665,66.48748
0.87578386,68.11338
0.75425684,69.6147
0.8269658,71.862335
0.69554156,68.97227
0.73223025,69.258194
0.667722,69.67351
0.60581726,67.07129
0.64662725,69.29557
0.5451258,69.32894
0.51611066,68.033
0.55035836,66.80928
0.5018763,73.751976
0.59714645,71.129524
0.4428077,70.14359
0.5178792,68.05477
0.46351567,73.519554
0.50139433,69.90287
0.5196735,75.12456
0.6112316,73.93421
0.65003586,76.97393
0.63638645,75.14974
0.6540003,77.663185
0.78311205,79.472885
0.7328662,70.61401
0.8655255,80.69864
1.0199691,77.209366
1.0139005,79.846016
1.1178322,77.6883
1.2886232,78.85304
1.1865585,78.24291
1.2334881,77.97412
1.3084043,81.05265
1.4106915,82.30205
1.5337034,82.90134
1.4494145,82.92497
1.5418701,80.37076
1.6730556,84.91842
1.6943018,85.87274
1.7458098,83.81396
1.7287205,87.381386
1.863061,86.69778
1.7390265,89.66198
1.7780122,89.56744
1.7257695,88.02879
1.7762969,88.3226
1.6740123,87.38274
1.775541,88.70713
1.8190974,89.8227
1.9359,84.41376
1.8559753,91.210846
1.8451858,92.01362
1.7830759,92.60624
1.7675436,92.73341
1.7512118,91.66985
1.86848,91.06674
1.7892858,93.43907
1.699303,91.794655
1.7934573,93.52295
1.6864159,93.34191
1.7802637,90.0777
1.6739168,94.27379
1.6519935,89.99205
1.5963342,87.32033
1.6488339,88.16367
1.5434233,89.26293
1.5107006,91.06992
1.4373823,88.96399
1.4257635,90.97366
1.3586398,86.723274
1.3757477,86.10561
1.3729819,86.85052
1.38535,84.74637
1.3576627,86.97192
1.3083851,84.45005
1.326332,83.11221
1.2972264,85.15208
1.2526805,90.95017
1.2408164,82.327644
1.2438724,78.54088
1.2836217,85.224464
1.2006938,83.059105
1.2116586,79.09512
1.2575952,77.68963
1.2890538,88.665306
1.2068502,82.775604
1.1083618,78.894615
1.120267,79.81544
1.1523145,82.4242
1.0608838,80.99492
1.0529402,77.392334
0.9331313,76.833244
0.9226462,81.78786
0.90866387,76.90533
0.8557101,76.011185
0.8892091,78.026566
0.8595788,79.71925
0.8020465,74.714806
0.7471898,76.90759
0.7017964,81.300255
0.724441,78.86623
0.6498986,79.9526
0.6583831,76.54404
0.57925135,74.82658
0.633611,76.313675
0.5851774,72.67443
0.5752945,72.22879
0.5305889,70.75659
0.5278752,70.79078
0.6247626,73.78723
0.5380728,71.56578
0.54752713,68.89351
0.5173913,72.79596
0.6099749,73.25449
0.48729628,71.97
0.47288808,71.87001
0.44093192,65.54751
0.46564627,69.77852
0.3860865,67.73038
0.39323306,68.68243
0.43323466,72.53652
0.4014086,77.3905
0.3873317,71.745865
0.34180006,66.08843
0.30568206,71.34331
0.21057366,65.62591
0.21261795,69.450096
0.24886715,67.55906
0.1929096,70.366104
0.17552277,69.53996
0.039798547,70.29217
-0.016714176,69.32489
0.10041108,70.51131
0.1504004,68.2605
0.06902182,68.99115
0.16241111,69.093735
0.16166115,72.78057
0.27426016,69.82353
0.2545524,73.730446
0.29761034,76.00488
0.35747477,72.51031
0.39341086,76.891846
0.40258452,78.26079
0.5457599,77.57887
0.6550602,80.9055
0.71102536,78.48243
0.7187066,82.34223
0.77294904,83.117325
0.8330169,77.729805
0.99598116,81.06731
0.87658405,81.30374
1.05508,81.776054
1.112744,86.01543
1.104517,83.15223
1.2836578,85.449554
1.2137351,88.24886
1.2611669,87.4726
1.2918394,85.965576
1.3058922,83.483406
1.3385383,87.88235
1.330506,89.20042
1.3851421,86.56613
1.4108968,88.49229
1.3793116,89.38701
1.36721,90.15486
1.4267311,90.43694
1.4689485,92.04713
1.3004577,89.528366
1.3575869,93.03048
1.4968921,91.739426
1.5008304,93.93335
1.4135927,90.40635
1.3949379,93.29186
1.3735595,89.02414
1.3307761,88.78711
1.3360189,89.95855
1.2437855,90.953285
1.2260035,91.976006
1.2104859,89.7455
1.2650187,90.80176
1.1864169,89.17212
1.1919738,92.998695
1.1294122,90.836296
1.1623304,88.76177
1.0969936,90.07275
1.122341,88.402954
0.9929976,88.12474
1.0065649,87.85632
1.0074692,88.06639
0.93173206,86.451584
1.073113,86.20264
0.9643251,92.06944
0.99151665,82.90474
0.9091439,84.349335
0.89253324,87.43549
0.9043729,84.784584
0.8683981,87.15086
0.8912666,82.41672
0.8512237,80.38251
0.941499,82.40744
0.7991656,82.410065
0.8620933,83.09587
0.842472,83.31531
0.80800503,80.451126
0.76383597,84.91257
0.7138113,80.25807
0.82554233,82.85484
0.7232127,81.31747
0.7498541,79.49505
0.7197799,76.63377
0.61575466,78.3786
0.6119475,78.24984
0.593238,75.94218
0.5182007,81.937386
0.59953797,77.042595
0.54625875,76.01161
0.469468,70.23634
0.42435598,76.99117
0.376368,75.0346
0.42228526,74.50063
0.39573377,75.73331
0.30948406,75.58558
0.3087685,73.8653
0.3874673,71.868744
0.2979231,71.959724
0.25432742,71.317566
0.26535156,68.09835
0.3095394,69.24804
0.2740692,70.59747
0.3190267,71.61542
0.23367919,69.82963
0.32695597,71.8063
0.32404268,71.51021
0.36586708,68.04168
0.30564007,68.25408
0.184155,73.723915
0.26389295,67.27641
0.3172318,73.31157
0.098534346,68.64641
0.24428451,69.8368
0.1705442,68.61196
0.05352523,67.14292
0.031700395,69.979065
0.09222228,68.960815
0.0663593,67.86911
0.036770135,69.22047
-0.13101028,70.14659
0.0909991,66.83793
-0.08421634,72.96489
-0.041462224,77.82804
-0.050552588,66.80366
-0.061662797,70.90279
0.008121188,69.73233
0.10821481,75.18957
0.1445056,71.81268
0.057023913,77.48735
0.14632691,74.44367
0.26243898,74.45324
0.27473083,74.95897
0.30237707,76.260826
0.37014621,79.970894
0.47778153,75.34671
0.5879438,80.64196
0.69507414,79.52526
0.7029035,79.04035
0.8426081,75.780876
0.9139409,83.755875
0.9015455,77.89985
1.0213844,81.14688
1.0723699,86.44765
1.0932959,82.33286
1.2621669,80.26319
1.224344,85.802185
1.2814484,85.35155
1.3018328,85.461494
1.4210631,86.835625
1.4740088,85.60798
1.4171002,86.19961
1.4001338,85.91695
1.3924785,90.61743
1.4454062,87.51698
1.4322884,92.969154
1.4718844,84.26261
1.4293551,86.15402
1.4832238,89.53547
1.4771476,91.7014
1.5111685,91.05299
1.4563489,88.57246
1.4390728,90.01217
1.5026141,91.8319
1.4519017,90.56145
1.3915207,92.01535
1.4706105,88.52253
1.3689201,91.95165
1.3430228,90.32681
1.3051606,93.452614
1.2337183,92.247604
1.2616827,90.575325
1.3484491,93.48011
1.2887753,87.32256
1.2167308,87.983116
1.207992,90.973724
1.1925373,86.24724
1.1784453,87.69335
1.2327306,83.12119
1.1654078,85.94619
1.1956719,85.85516
1.0768304,88.23563
1.1525251,84.892105
1.0460668,92.201805
1.1323576,85.74292
1.1010306,87.233154
1.139725,83.517204
1.084806,87.4328
1.1207438,83.62313
1.0304449,79.20959
1.149576,80.463646
1.0659527,86.613235
1.0805488,82.064095
1.0712451,82.96262
1.0467603,78.92291
1.0138426,80.440025
1.0862606,80.99851
1.0252945,76.59369
0.9988821,81.73266
0.98919857,77.83602
0.98343575,81.51676
0.9428248,79.4806
0.93839,79.02851
0.8208465,74.8585
0.86428326,80.47658
0.7568463,77.51844
0.7717399,74.34508
0.7037361,76.60445
0.7281494,74.41232
0.7023748,74.09203
0.6548559,72.52468
0.6645847,72.856224
0.67873573,77.89363
0.64703053,69.94137
0.53841364,71.86431
0.649359,74.13898
0.6895798,71.318
0.5447679,69.85776
0.6508023,71.830765
0.63237387,74.97374
0.6626276,73.70838
0.5727088,70.43597
0.7578079,71.25487
0.5506386,71.79594
0.6552082,70.89429
0.6022133,70.83891
0.69461805,71.38147
0.52946764,67.280266
0.49614757,69.32535
0.531714,66.83877
0.5409032,65.53547
0.45330223,70.07662
0.5244497,72.22903
0.40869844,68.40668
0.4415652,68.21936
0.34691662,69.945206
0.39947224,71.44469
0.37756976,70.117714
0.33692738,65.17437
0.33305258,73.40891
0.30291343,70.873924
0.36693054,72.18624
0.34729424,69.7268
0.3218437,69.451584
0.35623005,75.13628
0.45523113,72.934456
0.51126385,71.40298
0.58384115,74.125694
0.47953886,76.267265
0.5881615,77.13737
0.7322285,75.8813
0.85673344,78.863464
0.9387184,74.6566
0.9175274,76.69194
1.0091352,77.40189
1.1262449,78.57244
1.1526942,81.073524
1.3042656,84.87434
1.3705693,80.111275
1.4048685,86.4558
1.47175,81.34182
1.4965084,83.505974
1.5408251,83.5674
1.5757731,86.16524
1.7313588,83.13495
1.6553384,88.35094
1.6901014,87.20828
1.7540442,86.177315
1.737091,90.108185
1.8051834,94.6076
1.8043895,87.572235
1.7903038,86.36567
1.8729327,87.37777
1.8949466,91.783424
1.9174107,89.032234
1.8266871,90.16686
1.9368713,90.52166
1.9082965,93.041405
1.8679111,95.06137
1.847329,95.007324
1.7960123,88.85906
1.8177314,90.285194
1.7755804,91.84512
1.8848131,93.30545
1.8525431,88.91883
1.8875211,87.99532
1.7079395,92.93081
1.779004,87.23726
1.7415303,89.897514
1.6858991,93.235916
1.7002943,88.6546
1.6249866,91.30384
1.5945338,87.960014
1.605964,85.06977
1.6409885,84.95574
1.590369,84.586205
1.5530083,88.59782
1.6858099,85.75964
1.5256654,86.85909
1.4975377,88.77716
1.5070583,90.43599
1.4833325,81.72116
1.4438605,88.448296
1.4906107,86.98595
1.4695135,81.4695
1.4762621,79.13577
1.5409325,83.72407
1.4357852,81.673096
1.4592874,86.91005
1.4320782,80.076225
1.3851095,84.57343
1.3607404,79.668365
1.3977317,78.18408
1.3759985,81.831825
1.4424949,80.340034
1.370598,82.18093
1.2264965,78.438286
1.2245573,77.16484
1.2421498,77.21388
1.1479802,79.31502
1.2142034,82.039185
1.125106,75.02545
1.1136155,78.79394
1.0328156,70.70144
1.0149449,78.3855
0.9110896,75.17607
1.0435549,72.88246
0.98370826,75.58837
0.9786459,76.67167
0.9856466,75.970184
0.91106504,72.419426
0.94282866,74.5312
0.9094153,76.510315
0.9580932,71.78332
0.89235395,69.228836
0.9717688,73.89364
0.9553891,70.86216
1.0220724,76.34128
0.9078635,74.540215
0.8678359,75.68423
0.9539,71.52865
0.868192,68.60018
0.94112414,69.11145
0.86963034,71.02203
0.89640594,69.08969
0.8243018,68.80771
0.76756525,65.44617
0.66432875,72.7896
0.6122448,68.50985
0.6664078,70.924446
0.6288525,69.4131
0.66057944,73.89719
0.6369804,67.88514
0.61533296,70.18817
0.60146075,67.328476
0.6218289,70.00478
0.59648675,68.432655
0.5341265,70.47868
0.60412717,67.38593
0.5038861,67.11885
0.63614637,71.388535
0.6146832,70.334076
0.62652826,71.42534
0.6109201,71.286575
0.7100426,72.42171
0.77061343,73.34919
0.75875,75.15573
0.92638063,74.900475
0.96234316,76.851364
0.9873342,77.904236
1.1448584,76.47227
1.1587808,78.823074
1.2573494,79.71058
1.3479759,79.053246
1.3476509,79.28474
1.4379232,79.336975
1.5767487,79.03875
1.4885491,84.346275
1.5899535,83.96077
1.685969,85.21791
1.7031363,83.45198
1.7759069,86.1553
1.7500178,86.024345
1.8788022,91.11985
1.8543309,88.36517
1.8393945,86.3661
1.92641,85.843346
1.8574389,88.39085
1.9472364,87.113106
1.9776906,91.86075
1.8877163,89.07943
1.8911042,90.36948
1.9131122,89.97318
1.8614608,90.42438
1.9337978,86.992744
1.9296021,89.13889
1.9040016,93.358734
1.9084396,91.79025
1.889934,91.5691
1.8689556,91.25932
1.8417463,90.885635
1.8350347,87.22354
1.7647803,90.5543
1.7576953,93.37704
1.8156685,90.00519
1.7161977,89.49959
1.6196786,91.31982
1.6214794,90.92341
1.63506,88.90191
1.5628779,90.548485
1.471881,92.305565
1.5149797,92.0322
1.4940014,88.5849
1.4855726,86.42352
1.44732,87.48082
1.4013226,85.24531
1.4903402,83.9734
1.4317864,89.417336
1.4178126,85.7827
1.4405943,83.764145
1.3830315,84.95283
1.435907,79.73254
1.3663976,82.71004
1.3548319,84.871475
1.3713858,82.509605
1.3605056,85.99434
1.3089637,85.07875
1.1987454,83.51297
1.2549897,79.80686
1.203871,77.934044
1.2393383,77.713036
1.1589029,78.52532
1.1161475,79.433624
1.1950443,80.78343
1.1427859,80.139824
1.0322816,81.096054
1.0649976,81.30563
0.98864484,80.98778
0.9732973,74.93466
0.91592574,77.61054
0.92509156,75.57866
0.86709857,73.20528
0.7916003,73.61737
0.7950054,75.79016
0.73624724,69.85958
0.7884823,72.57435
0.6790608,67.75869
0.7914247,77.23221
0.69036454,73.231895
0.70390666,76.89887
0.6480841,74.69449
0.6461339,70.25341
0.71430963,72.09063
0.5888472,72.558975
0.71301407,71.725845
0.6955732,71.39075
0.63849443,66.57779
0.6142262,64.54554
0.69152385,68.53951
0.57776564,71.04336
0.61270875,70.2215
0.5952049,66.63871
0.508809,65.55654
0.5532541,66.72376
0.42085534,65.13655
0.386453,74.48233
0.40259078,72.95558
0.40068668,67.3088
0.41084635,70.63575
0.39218867,68.57459
0.2953152,71.69416
0.26102954,66.92284
0.3139079,67.2134
0.27191404,67.99039
0.2657364,68.31344
0.28896308,69.793594
0.16572914,68.22978
0.19937645,66.76399
0.23563524,70.399734
0.31762463,74.60205
0.3047829,69.41767
0.39114052,71.25395
0.46110868,71.03022
0.4056545,74.82044
0.58435005,76.59003
0.5834118,73.64163
0.7229356,76.24648
0.7059496,78.95631
0.76966375,80.34277
0.8426468,82.5117
0.90481657,81.711716
0.9568946,76.04516
1.0449096,81.30791
1.127611,84.85622
1.2068871,82.15377
1.3594826,82.7239
1.2544584,85.317184
1.2732426,87.45306
1.2467958,80.81067
1.430025,86.83661
1.3959575,86.17858
1.4475068,85.93915
1.4961456,87.40587
1.4525384,84.209435
1.4564579,90.20569
1.5700914,87.66466
1.5729462,90.63518
1.521138,91.7641
1.4909217,89.80941
1.5584047,89.95181
1.499459,88.72743
1.5852928,90.78409
1.4901968,93.82496
1.5070401,91.91773
1.4713513,86.9243
1.4402177,92.10246
1.3581173,88.58766
1.4157073,89.00738
1.4155805,89.32098
1.4300468,87.336044
1.4376487,91.36495
1.2688547,88.84395
1.2976862,87.8226
1.3462375,87.52772
1.2794461,89.59189
1.1789132,88.22394
1.1622459,88.91239
1.2648962,87.09899
1.0966673,88.77679
1.1252215,88.77994
1.0963231,92.37278
1.1272659,86.764206
1.0596911,88.45082
1.1919351,84.23212
1.0902823,80.11783
0.9748103,90.47323
0.9996159,82.02958
1.0439364,86.50317
0.91818124,87.0402
0.9555051,87.26299
0.9836064,81.52061
0.9674767,83.893654
0.97840255,82.25205
0.84127635,82.567566
0.88564396,80.92645
0.88661563,75.3316
0.8640474,80.67932
0.8693472,81.704994
0.8171352,81.33975
0.8088895,79.11408
0.75773025,77.07072
0.75209826,78.827225
0.7327098,80.35901
0.621818,74.77417
0.6348164,77.980194
0.52733654,78.53498
0.54904884,76.087685
0.5397542,73.39934
0.52449167,76.00391
0.48279315,80.348816
0.5089754,77.36097
0.43755215,75.24894
0.46276402,74.8567
0.412636,77.12973
0.44935107,72.32276
0.3640148,75.421234
0.35531333,72.3544
0.40040535,70.158104
0.2851762,72.71753
0.33709762,75.01711
0.3101179,73.004715
0.24336456,74.394966
0.33061227,71.75004
0.32616183,70.246124
0.3217655,72.338066
0.3522653,68.459694
0.33271775,63.280556
0.23740822,72.72468
0.20919113,69.235825
0.21864596,67.31961
0.2883468,60.726154
0.106782414,72.142525
0.13786782,64.51168
0.10953627,67.535126
0.04770067,68.25493
0.06461716,70.9341
0.06388883,69.09384
0.022291496,70.40329
0.0030297,67.14342
-0.06121184,67.36459
0.035726633,68.44699
-0.06932998,72.37228
-0.047184158,70.35476
0.009648895,70.22624
-0.015209732,68.43054
-0.035137124,71.67694
0.15699896,70.18663
0.11055913,74.058914
0.12626076,74.28107
0.17247689,72.0616
0.23663871,74.36496
0.24599646,73.33339
0.31686676,77.78891
0.3524869,78.38775
0.5078673,78.05988
0.6288518,78.2015
0.67672974,84.53264
0.7258309,80.00389
0.78544563,80.680824
0.886241,77.80658
0.8707922,79.01119
0.9454576,86.02523
1.0348583,83.098335
1.1220253,81.97043
1.0033072,86.137405
1.1947608,88.72233
1.3156981,84.05174
1.2399541,86.119576
1.3168317,91.285774
1.3762423,88.43568
1.3028423,84.89462
1.3360306,89.84605
1.32374,86.99095
1.4078724,88.11831
1.3773061,85.82001
1.3614768,90.25822
1.403108,92.292465
1.4492154,91.16292
1.4098053,90.74276
1.355581,91.48892
1.3986784,90.64699
1.4455322,89.96874
1.3717775,94.571846
1.310325,87.089966
1.3769134,94.6628
1.2825224,89.08785
1.3057189,88.709915
1.3260607,95.20648
1.3008243,91.1583
1.3408508,89.13447
1.2262937,93.658226
1.2181125,88.71816
1.1277449,92.257484
1.0687063,88.41412
1.0509555,92.08584
1.105736,88.08867
1.1280555,88.76146
1.0753232,90.33787
1.0059937,84.84107
1.0619353,84.71109
1.0494785,83.53723
0.98866,84.66628
0.9746861,83.63882
1.0881495,82.28924
0.97290564,87.82826
0.959681,88.87045
0.9975132,84.85792
1.0849795,82.27638
1.0078722,83.94576
1.0656945,81.7303
1.0034635,80.76264
0.96090424,82.85981
0.9910995,82.00561
0.93276,79.204926
0.9186797,79.90662
0.88407356,77.54363
0.8817395,78.43597
0.92098606,78.78398
0.91617936,78.968025
0.8083773,76.94397
0.75601494,76.794556
0.7061633,80.40044
0.72044206,73.30329
0.61059177,79.04031
0.70490026,77.01284
0.54988086,73.38696
0.5961933,73.552376
0.57540745,75.436
0.54422015,79.90076
0.49275795,74.44758
0.5596968,70.37061
0.5142168,75.45413
0.47952738,73.01551
0.47322,75.28628
0.6215663,74.19456
0.5303154,74.83744
0.4860851,72.514694
0.46918744,69.87252
0.5870214,71.63031
0.4725591,73.25094
0.51963043,70.59852
0.5360775,72.37396
0.57325494,72.203316
0.523949,72.80961
0.47282913,67.21625
0.53870165,69.64263
0.46044984,66.69415
0.34692347,74.09014
0.4515473,67.00215
0.4274272,73.499756
0.32376236,66.30286
0.4121537,68.66511
0.31235287,67.43063
0.25354344,70.30325
0.30038854,69.78496
0.16775273,68.51826
0.23597553,70.268326
0.19149645,69.19794
0.20798972,62.715393
0.2973823,68.973145
0.33929855,68.14841
0.21562472,66.69422
0.33554858,71.42242
0.2852257,74.33522
0.36800355,73.8959
0.46183884,73.078285
0.4627236,71.54149
0.5656776,76.48791
0.51787335,76.961945
0.63090694,76.090576
0.79886496,76.427124
0.75985605,77.04206
0.84611046,78.33827
0.9572088,77.5827
0.99286216,80.62556
1.0356965,84.50719
1.1423057,81.732735
1.2973775,78.76489
1.2415588,82.91103
1.3906451,84.05175
1.3464473,81.589645
1.5445833,82.671745
1.5128894,81.44019
1.5313194,85.90139
1.6096997,84.16395
1.6016722,80.075226
1.6555009,90.87992
1.6613177,85.991394
1.7034602,86.840996
1.7161967,89.96907
1.7341455,90.15389
1.7720482,90.33449
1.7592665,90.20664
1.7000818,90.149445
1.8305253,92.5094
1.8002225,93.66992
1.8131562,95.06353
1.7764465,90.93554
1.7747241,87.589485
1.8234433,92.06088
1.6685358,89.08159
1.7703846,86.25738
1.7015923,89.14633
1.7451086,88.82663
1.6971965,85.38885
1.725808,90.944916
1.6462762,87.86139
1.5949625,90.53224
1.5737641,91.56406
1.6389658,89.78338
1.6247778,91.18658
1.5864283,81.030716
1.4665824,86.91772
1.5265782,88.30672
1.4332391,93.0805
1.4785,84.52341
1.4784379,89.0253
1.4561641,87.358986
1.4030023,89.41881
1.4132129,86.99017
1.4492037,85.469925
1.3806516,85.13689
1.3727238,83.19808
1.4454477,81.5278
1.4600766,80.60776
1.3079154,81.80415
1.4477075,83.73848
1.3610841,77.92024
1.4573381,85.043915
1.378756,83.9741
1.3600248,80.10419
1.2987902,81.635735
1.3314326,79.24847
1.285377,81.15611
1.2575529,84.019264
1.2505956,79.797356
1.2403345,75.24168
1.1709567,75.19183
1.0450296,79.13714
1.0748606,75.70998
1.1465708,74.36516
1.0652357,77.028465
0.9811085,75.12291
1.0320628,74.125565
0.9881198,78.36045
0.98813516,77.4322
0.8940578,74.19847
0.8516953,76.24829
0.96678776,70.160126
0.8427601,77.573265
0.9434434,75.40556
0.9429034,73.87285
0.9129874,67.49235
0.9153681,73.23528
0.92194605,72.48038
0.8619938,67.48018
0.9387312,66.9701
0.93434834,70.20766
0.89011717,64.63178
0.7991579,71.58863
0.8597739,67.27159
0.9084649,67.11946
0.7812426,70.91321
0.78061175,70.65383
0.8660833,66.311356
0.7827459,68.70205
0.7428608,66.21667
0.6871358,72.69288
0.69140315,66.94441
0.6361416,68.77147
0.57987607,68.58125
0.5585703,66.959984
0.5687157,67.360825
0.55384445,72.61597
0.53725517,71.21736
0.51922035,69.0033
0.533036,72.0407
0.60506713,76.77125
0.5380692,72.94043
0.5827665,73.80532
0.5598654,73.03616
0.7000831,68.123344
0.66955036,74.682686
0.76153755,71.989914
0.8171409,78.4557
0.80352837,73.35264
0.9340372,71.02057
1.0221012,81.81162
1.1256447,77.980415
1.1306484,78.850586
1.1435658,83.09506
1.2969347,81.02824
1.3921535,78.937065
1.3681772,80.71639
1.4955248,80.20927
1.647663,85.608505
1.6473117,80.552666
1.6677041,83.031555
1.6069376,82.25187
1.8247098,84.23317
1.8101362,85.503815
1.9427326,87.24703
1.8873594,84.13891
1.895128,84.405945
1.8423615,89.015434
1.8820232,88.73017
1.9407645,88.58027
1.9511744,93.69419
1.8530482,84.569695
1.9056591,87.26204
1.9410115,85.75312
1.9130923,90.612236
1.9270791,92.529076
2.0931494,96.60396
1.920011,88.89029
1.9044777,90.368416
1.9347465,92.31306
1.9425094,92.01969
1.7589014,91.735596
1.9276665,87.77767
1.8888533,85.4739
1.806002,90.04072
1.7928101,93.066185
1.8032409,85.277176
1.694346,86.92294
1.7807935,87.14178
1.6876534,91.55785
1.7938432,88.82593
1.6456277,95.41247
1.6434877,89.49423
1.4939973,87.57558
1.6617976,86.840515
1.5350094,84.80977
1.576621,87.278915
1.5169611,84.75071
1.4927922,87.667725
1.565113,85.3639
1.4655313,86.88665
1.4454448,83.54966
1.4346784,85.45632
1.3660867,82.443695
1.4682182,84.04309
1.4824035,87.25811
1.4783335,88.02068
1.4350069,80.85596
1.4342625,80.09965
1.3983791,80.99892
1.3972303,80.86827
1.3204572,80.08561
1.2813631,83.47366
1.266161,84.98831
1.2813196,78.79619
1.175918,80.65209
1.1532407,79.41194
1.1403874,77.87129
1.1189927,78.15597
1.0911323,80.298454
1.1050204,76.91644
1.1020719,76.092415
0.9513756,77.64619
0.96756953,77.34001
1.0021923,71.40027
0.89960706,75.12278
0.85043657,75.06083
0.89177734,73.47785
0.81917024,76.80759
0.8084724,72.25761
0.79709625,71.55592
0.80166656,68.80783
0.77590936,71.91413
0.7720453,73.50979
0.81274766,74.53102
0.89302737,71.74141
0.7400957,73.30497
0.7993163,73.28247
0.78028214,69.163536
0.7489095,69.23195
0.7830164,72.68683
0.7685404,66.20623
0.6863146,68.958725
0.71159005,74.83842
0.7153491,72.0745
0.62898153,69.447
0.579997,66.70798
0.5566985,66.875946
0.5610239,68.065834
0.52716094,67.69133
0.4710122,70.370026
0.40028045,73.94733
0.45384192,68.19301
0.32076347,69.71276
0.37670878,71.21771
0.37090057,69.68784
0.33244893,70.95293
0.28069276,73.43758
0.35140103,68.791626
0.38546574,69.84204
0.4466289,75.2707
0.2988923,71.86901
0.36046204,77.0711
0.49701464,71.613106
0.5387783,73.5965
0.69672406,74.823616
0.6383639,73.818275
0.67027086,72.06083
0.8412081,78.08915
0.8505779,79.031334
1.0062268,76.25907
1.0084655,81.583786
1.0516515,78.9871
1.1139358,83.93045
1.1597879,82.94873
1.2535726,79.252075
1.2776749,81.38502
1.3348948,84.83164
1.3734968,86.70629
1.4250542,85.263336
1.4880089,83.435585
1.5160867,88.1043
1.4741633,88.20948
1.6305001,86.517624
1.6321629,86.73809
1.6440976,87.48278
1.6640888,90.89356
1.6245693,85.40337
1.6681226,87.95897
1.6599772,92.11884
1.672856,88.824394
1.5769784,88.27376
1.6208543,90.48479
1.6613969,89.87777
1.6734352,91.09937
1.6053698,88.98953
1.6069437,93.107315
1.5737898,95.72083
1.5176408,88.48454
1.5550686,89.438
1.4721048,93.790695
1.4644505,90.070045
1.4977531,92.53692
1.4240679,89.19972
1.4045362,89.31443
1.3069541,91.52031
1.3512126,87.9122
1.3357071,88.312836
1.2887676,86.03649
1.2998439,88.104256
1.2645646,88.61553
1.2122339,86.07716
1.1545147,87.2664
1.1724283,87.462746
1.1605539,86.527916
1.151177,86.66455
1.080437,85.07913
1.1384286,82.37539
1.0702105,83.99179
1.068292,87.02266
1.0087409,87.2828
0.965775,81.12023
1.0945224,81.79142
0.9915304,78.01103
1.1073614,81.45369
0.95761245,79.82907
0.9826134,82.24912
0.9667517,82.3567
0.9771723,79.67147
0.9397041,81.92829
0.82188153,79.24732
0.8599438,84.09048
0.86771095,78.04548
0.8343595,77.96153
0.7219019,80.57012
0.670217,82.66935
0.71349627,75.30968
0.71093,77.85972
0.65987664,80.89013
0.61881304,80.30125
0.5079368,75.06113
0.5767264,74.53323
0.37007186,80.20276
0.48704726,73.84446
0.4262995,75.011795
0.36602503,75.27247
0.38182545,74.73979
0.43025634,75.069984
0.44441983,70.25841
0.3347969,73.48335
0.36663523,72.93917
0.44801447,76.64511
0.35614696,68.84594
0.32509062,67.79082
0.4518633,73.21562
0.36617634,70.88431
0.34880295,71.06846
0.34205118,69.215385
0.40810433,68.30713
0.32446977,69.277306
0.28613824,66.897675
0.23604786,71.01321
0.2591243,69.285576
0.23875016,66.66856
0.18125233,72.11091
0.14849786,69.50209
0.107541285,67.30957
0.11542839,70.25414
0.08268857,72.10634
0.010966939,66.66438
-0.003720282,70.73087
0.0689071,70.49872
0.012055204,74.32578
-0.03274838,68.59019
-0.029349223,69.83866
0.014637499,70.813255
-0.024128059,71.6267
0.018548848,74.75879
0.089218274,71.69121
0.07158717,75.35711
0.11400042,71.896255
0.24591312,70.170135
0.19553033,70.13457
0.3422143,74.77572
0.47099048,73.73708
0.47389498,76.06997
0.5251455,77.21483
0.56361634,78.05576
0.58744025,77.465836
0.7867328,79.17342
0.7961567,80.6549
0.89454335,82.814
0.8609331,85.03652
1.0097462,81.31498
0.97166854,83.03243
1.0646697,86.671974
1.0918621,81.90242
1.2049317,82.79524
1.2034737,87.90718
1.2472258,86.844444
1.3240863,88.27686
1.337656,88.32927
1.3347481,89.07033
1.3657432,87.20947
1.3282496,90.49751
1.3181124,87.50435
1.3913581,96.80015
1.2643751,85.64521
1.3541584,87.32961
1.323035,88.25888
1.3481734,91.16372
1.4317818,92.18879
1.3380884,89.63613
1.398611,90.03612
1.3370677,91.85567
1.3763808,85.7207
1.3160701,86.82479
1.2744853,90.09062
1.2964861,93.468796
1.2579757,92.25886
1.2193626,90.94359
1.2118039,89.04085
1.175332,93.27319
1.1870097,93.25043
1.0969518,90.58822
1.0761356,88.29992
1.1118146,86.049255
1.0463405,90.26503
1.0914552,84.17005
0.96378493,85.585014
0.99066114,87.55846
1.0235435,91.68093
0.9343451,87.96026
0.93985724,90.52188
0.9808259,83.928345
0.8602621,84.871284
1.003355,84.73077
0.8659722,82.13515
0.9523584,86.468636
0.89428115,83.76489
0.9679978,78.97533
0.8912302,82.62862
0.8730971,88.015884
0.94970936,80.601326
0.8423972,84.08943
0.83706665,82.695
0.8949481,82.143166
0.8473615,81.09786
0.7761941,78.1385
0.6750305,82.061386
0.7290058,80.7286
0.6750059,77.62659
0.7084261,77.06462
0.66913795,74.82047
0.5924493,81.441505
0.55234045,76.28539
0.585801,75.27584
0.5000319,74.41045
0.44831997,75.29339
0.4742191,74.300766
0.44699663,77.93971
0.39730376,75.024864
0.4154793,77.20795
0.46971425,76.51027
0.3191015,72.3758
0.384346,75.78192
0.43817598,70.63066
0.36475587,72.66571
0.4393558,74.226616
0.48829898,72.467545
0.5367208,71.851074
0.4324441,70.6829
0.44254336,69.71276
0.40311956,73.38549
0.39944848,70.10664
0.43593028,69.98467
0.41706944,72.019485
0.3275409,69.90112
0.31193286,71.05808
0.39158222,71.99691
0.24138036,68.035545
0.2209268,67.332184
0.22071786,68.267006
0.24181291,67.11532
0.20091203,67.28304
0.2214015,69.06637
0.24444605,70.430916
0.10373011,70.0123
0.116519175,73.65524
0.13673447,71.33122
0.03090248,69.20433
0.1798415,66.450294
0.15544802,72.02991
0.15375696,75.17679
0.26791456,72.27603
0.22627,71.89684
0.30628917,73.58409
0.28156427,74.237305
0.3337161,70.334854
0.42645863,75.37302
0.43489027,71.254845
0.57676977,74.241
0.653357,78.345474
0.70630646,79.55135
0.7697561,76.04495
0.8246083,78.57344
0.9128125,79.181526
1.039822,77.87482
1.0574304,76.76842
1.1283928,78.74307
1.2560021,82.82962
1.2369443,79.96985
1.3572007,84.44253
1.3526123,83.41332
1.344353,86.58026
1.4188722,87.08451
1.5131087,91.86318
1.5716873,88.2468
1.5241172,86.38912
1.5984178,89.43411
1.5886033,87.35036
1.6653332,88.444885
1.6230847,92.225006
1.6084515,85.312836
1.6302596,86.70558
1.6404283,88.35455
1.6879976,84.76641
1.677285,87.433
1.6339499,92.45314
1.6702653,94.14753
1.7025557,89.54033
1.6543709,91.88361
1.5947864,91.61374
1.5960575,90.212776
1.6237129,92.433754
1.5609826,94.60798
1.6286554,86.349144
1.5225998,87.73715
1.4916204,89.97244
1.4430251,91.18884
1.4945381,91.42161
1.4860799,90.142914
1.4242309,86.463806
1.436187,88.040215
1.4307702,89.33252
1.3610106,85.57233
1.347089,87.01482
1.2719864,86.323906
1.3161377,85.09116
1.4319122,87.83697
1.2971705,85.22225
1.3504034,88.08877
1.2984459,86.946106
1.2818106,86.713356
1.3582788,84.87388
1.3445749,79.86898
1.3225629,84.96013
1.2852889,84.57954
1.3933653,82.81602
1.2346858,84.34692
1.1987876,83.2838
1.2159759,79.95295
1.2758777,83.57572
1.2620682,75.433044
1.1821741,79.387665
1.2214289,81.15679
1.1373674,81.04676
1.1545881,79.08353
1.0774444,74.160995
1.017791,77.47261
1.0636712,76.1685
1.0248244,80.387634
0.98557454,78.19176
0.89926654,72.93188
0.9064363,75.33931
0.95567983,74.524864
0.88869745,76.90499
0.8168939,75.51829
0.8820022,77.76871
0.80229676,75.824554
0.8156843,71.817406
0.85173684,70.06136
0.7894661,74.67561
0.81004816,73.59895
0.80372465,69.8996
0.79925966,73.38992
0.83028466,71.54532
0.80344087,70.989136
0.81506616,71.09264
0.8135779,72.956856
0.8034817,70.39821
0.8251647,71.24171
0.9061731,68.607704
0.7527784,67.7334
0.67694795,73.37061
0.8219417,67.85508
0.76662767,69.56484
0.6267439,71.62405
0.6838379,66.05669
0.6653138,69.61173
0.6654912,68.60662
0.5176057,72.433365
0.56893826,67.47874
0.49746057,70.557465
0.508127,70.58431
0.4872199,67.22948
0.43677247,70.192764
0.4957984,69.71812
0.50970167,72.09112
0.43859893,72.57245
0.457139,68.19386
0.5603362,74.19305
0.57215375,67.85015
0.61813045,76.56135
0.6523346,76.20883
0.7004619,73.440506
0.77340853,77.038025
0.7973719,73.61612
0.94634867,78.62615
1.0050572,77.7392
1.0240116,78.780334
1.1041063,78.25042
1.0938522,76.074005
1.1696669,79.338104
1.3084092,81.28872
1.4317955,80.84948
1.5180341,81.844864
1.5048451,79.2687
1.6798412,82.04498
1.6288729,86.81322
1.6504796,80.41452
1.817685,86.413826
1.7613908,82.61493
1.8357263,87.496185
1.8618007,87.1106
1.9453999,86.359184
1.8598012,88.00398
1.9837176,88.0034
1.9614061,82.818085
1.9246038,87.12981
1.958292,91.42969
1.9129138,90.88319
1.875191,92.394554
1.9649191,90.95927
2.0031784,90.02832
2.001889,89.45867
2.0035274,90.55705
1.9137504,86.068825
1.9844154,89.72012
1.9225361,89.671
1.9723617,93.27595
1.8748282,89.7517
1.8960022,89.65102
1.9211434,92.99967
1.8215005,86.29613
1.8588401,85.60428
1.7599205,88.60832
1.832186,95.45177
1.7399218,91.49995
1.6745707,88.80875
1.661594,89.55253
1.7096617,86.28713
1.649363,90.81287
1.6454439,87.74364
1.5618831,88.98013
1.6002368,85.92397
1.4862876,90.29723
1.5751313,88.08923
1.4997821,90.8372
1.5277787,83.100426
1.4697508,84.82508
1.4673964,82.158966
1.5388665,84.42943
1.5320101,85.958336
1.5521002,85.1168
1.375106,83.4385
1.4398787,83.21554
1.4810284,81.2546
1.3850484,86.47272
1.4481599,81.27172
1.3720039,79.75713
1.3561823,83.545006
1.2734901,79.578224
1.2719339,81.560265
1.2811021,81.158066
1.2782739,77.8257
1.260147,79.27368
1.194163,77.338844
1.1309369,78.77839
1.165171,77.45053
1.0704981,78.0304
1.0718144,78.63201
1.0661696,77.154976
1.0025613,79.82403
0.9320471,75.84349
0.96406,73.89269
0.9751091,71.106155
0.9582496,72.753395
0.97174585,75.275826
0.9029012,74.30996
0.8943519,74.12239
0.83889806,73.18454
0.85397613,73.94055
0.8351551,69.65161
0.912695,72.244
0.9013346,72.02851
0.82621,71.93324
0.7995213,70.870476
0.82653034,71.1207
0.891908,71.93755
0.8179731,72.15529
0.7758228,70.447
0.79613996,67.93958
0.7514277,72.9703
0.69595665,68.98628
0.6691046,70.290016
0.605912,69.371765
0.6232094,68.42783
0.5328038,66.49751
0.47597665,67.125244
0.4552527,73.61439
0.41557163,69.524086
0.48288634,69.27894
0.53958386,70.10312
0.39066106,73.70187
0.4410946,68.13977
0.4632575,66.70248
