ppg,abp
1.0678737,104.61815
1.0828071,109.03097
1.2079903,108.91735
1.3210204,110.49385
1.3310143,119.04156
1.3985294,120.329895
1.4566511,121.57528
1.538178,127.82897
1.5880504,128.8658
1.6063285,136.97244
1.6274328,138.54001
1.7274194,132.63641
1.7235287,136.67737
1.6739763,145.57527
1.7828618,140.28575
1.5830897,146.70378
1.6776088,143.80663
1.6917799,145.13374
1.7144691,144.27077
1.7109519,144.66446
1.7104146,146.34465
1.6604313,145.29561
1.6679615,145.28325
1.5925946,147.1491
1.5420913,142.57932
1.6721886,144.32535
1.5796741,142.86032
1.5515397,141.22958
1.5591505,138.05482
1.4265605,137.47145
1.4222327,133.94746
1.5192354,136.2368
1.4388057,136.54842
1.4367776,134.6648
1.3863039,131.7026
1.3705572,128.75027
1.3148383,129.40327
1.4048371,124.72289
1.330358,119.203026
1.36017,116.33054
1.4009043,115.954414
1.3487937,119.35231
1.397597,119.28505
1.2102617,112.73804
1.3267263,113.04714
1.2549347,109.72975
1.2959309,107.586266
1.2334181,106.43917
1.1745594,105.095345
1.1406903,99.31303
1.1382277,98.45581
1.1494422,97.76773
1.0480632,96.61356
1.0124341,94.83914
1.0377438,90.94988
0.9512893,92.703835
0.86324126,88.59676
0.9308496,87.67376
0.9447192,82.7169
0.8316219,85.007385
0.84558755,82.764915
0.9052303,78.591324
0.8932793,75.49809
0.8271074,74.66813
0.8168618,66.7122
0.88544756,68.90685
0.8061154,69.308495
0.80685264,67.35376
0.8421021,67.62063
0.83115107,69.53811
0.8036962,65.57987
0.7860397,67.53568
0.79001564,64.32967
0.7441935,65.59831
0.6740515,63.820885
0.7114283,63.45869
0.6762938,64.25599
0.5731696,59.374332
0.6479925,64.96311
0.47035122,64.618484
0.47124213,65.79466
0.5291476,63.10362
0.44705707,66.97952
0.45628002,70.7432
0.5656735,71.229485
0.6105064,74.933
0.59219646,74.02572
0.6278731,80.511375
0.7002075,81.322136
0.8808534,85.39949
0.890663,87.03135
0.9534766,90.94534
1.0388744,95.05556
1.13662,96.34569
1.1656243,97.654045
1.3179299,103.797516
1.3880525,108.30804
1.5299287,112.52619
1.5336337,113.811775
1.6955575,118.13112
1.6721485,120.86283
1.718132,127.452995
1.744001,127.21928
1.840294,129.51105
1.8228453,132.34326
1.8922299,132.5459
1.9724555,136.32167
1.9480603,137.06042
1.9631507,138.50911
1.9934231,143.79333
1.9832022,141.84184
1.9524118,145.87878
2.0347931,144.93008
1.9521246,145.8767
1.9698355,149.034
1.9447399,146.8768
1.9375731,144.85716
1.8822742,145.38538
1.8198428,144.6765
1.8036801,146.59831
1.8035821,142.87097
1.792851,143.5689
1.7553265,140.58337
1.6214765,142.50392
1.6889758,137.66508
1.6728022,137.55516
1.6476451,134.68896
1.6811947,132.02986
1.5706592,126.62272
1.5085088,127.16984
1.5572308,132.2915
1.4843707,126.2183
1.6150062,124.83805
1.5007881,123.365395
1.5426394,119.63015
1.5099483,117.8596
1.457745,119.70043
1.5053462,114.215065
1.4899211,110.5336
1.4043026,110.17707
1.3828012,112.00091
1.3562158,104.14587
1.3417431,104.67893
1.2873541,103.02633
1.3299108,100.33685
1.3251741,100.59648
1.2653024,95.717896
1.1348583,98.07271
1.1019125,95.34466
1.1470258,92.1012
1.0204251,91.656075
1.0436999,87.14203
1.0348207,88.275475
0.946261,80.72562
0.91281265,76.8944
0.9267853,81.246216
0.9013563,76.27433
0.8819833,80.75042
0.88923144,72.57429
0.8270339,73.72062
0.8198442,71.7653
0.84728616,69.72488
0.8815176,70.3435
0.88497,67.471855
0.8851967,67.02675
0.89181423,67.43775
0.8919162,60.27871
0.75988233,59.293148
0.851949,63.20389
0.72985214,62.89863
0.68332726,65.32013
0.7184761,63.644855
0.5235677,62.52751
0.54709285,63.765102
0.5363017,63.498333
0.53615856,65.98926
0.4514281,65.89197
0.4504871,69.904655
0.4857393,67.47524
0.5080037,72.79948
0.5874285,74.68076
0.5159463,73.79472
0.67192435,79.26788
0.718431,84.33606
0.6846513,86.99491
0.8919132,85.54697
0.85681313,89.847755
1.0025704,93.56655
1.0478481,98.292885
1.1921179,99.34025
1.3285114,103.168236
1.3434117,114.604454
1.3662107,111.98679
1.4393561,112.41275
1.6157868,122.72768
1.5967964,125.401794
1.7563475,128.25041
1.7089534,125.98088
1.8207014,133.99681
1.7726676,135.29472
1.7164091,135.47794
1.8449534,140.3184
1.8614496,144.19487
1.8251851,139.88899
1.8247436,143.69171
1.8298061,145.28938
1.7772069,141.41507
1.8706894,147.56224
1.8103658,149.25015
1.7820982,143.67815
1.7171005,148.99094
1.7600288,145.9083
1.6655973,144.3505
1.6862042,146.68867
1.6931379,142.45201
1.7154006,145.56546
1.6738106,142.88205
1.6236256,141.16609
1.5361662,141.95972
1.4932562,139.29941
1.4932103,136.78055
1.4495126,134.03088
1.3898062,136.42198
1.3741287,131.96172
1.3333541,126.48019
1.4031342,126.22715
1.3017042,126.013306
1.273113,124.40016
1.2575662,120.50215
1.2929921,119.235466
1.2997645,120.786934
1.3184872,112.815445
1.2756258,114.865234
1.26232,112.01106
1.2237828,107.165596
1.1913478,108.27003
1.101551,108.06965
1.1509569,101.43031
1.0629312,101.94037
1.053246,100.00587
0.9144698,100.457275
1.0481762,98.25452
0.9324863,94.69631
0.85394216,90.75633
0.8226888,91.38567
0.8214399,92.47406
0.73249435,87.90793
0.60699373,85.99077
0.6198157,86.38347
0.6224714,78.15602
0.60943145,76.792145
0.6337978,75.47253
0.66447294,75.277016
0.64055276,77.09827
0.5863474,74.55527
0.64071566,69.744896
0.59622365,67.48516
0.56769526,70.341965
0.5910695,63.4413
0.50387186,65.225395
0.5629747,63.622852
0.5589133,66.419716
0.42044184,65.01599
0.43054026,60.185635
0.42011508,60.85524
0.28693247,62.19261
0.28567395,59.379395
0.25809667,60.17427
0.25647584,60.76383
0.16760641,63.337708
0.15168048,68.2777
0.21154214,63.653145
0.06522969,72.86531
0.14931229,70.798256
0.1724381,71.55895
0.2571849,69.091354
0.21714377,75.88032
0.28940687,78.02156
0.38549492,80.86769
0.40245676,84.22512
0.45607033,85.20509
0.6005218,93.237206
0.7413851,92.12563
0.7500005,98.31441
0.847165,101.10264
0.93608636,102.09275
0.90965086,107.36251
1.0902184,111.476
1.0539913,115.67904
1.2237645,117.57301
1.2422739,120.46762
1.34752,125.57372
1.380069,131.33171
1.3918924,130.89545
1.4141809,134.59074
1.3976347,138.44417
1.5110909,133.33801
1.4404719,143.91197
1.3851701,141.53357
1.4981707,147.54997
1.4800266,144.48393
1.4575157,145.01512
1.503181,144.4399
1.4630841,145.82516
1.4268727,148.39804
1.3896263,147.78201
1.3783969,146.1031
1.3295816,147.1102
1.390522,145.62102
1.3125091,147.92232
1.3256593,147.02013
1.3553239,142.62651
1.282538,138.97498
1.1826155,140.53795
1.1577392,138.88792
1.1956208,137.19621
1.1389282,136.47133
1.0640186,135.9908
1.0437307,127.135345
1.0015076,131.09964
1.0064319,129.16617
1.0441997,128.30824
1.0249329,122.89342
0.9495618,123.815704
1.0235496,122.849594
0.89598864,122.66987
0.8731885,120.17338
0.8576187,116.953476
0.9088271,114.673584
0.87271535,110.98969
0.92598534,109.510086
0.8258375,105.82144
0.91835266,103.51254
0.78067356,107.40083
0.7139659,102.02623
0.5938689,95.36279
0.6325955,97.4397
0.6616355,97.5686
0.5667414,89.59205
0.485547,93.74318
0.46077633,87.72785
0.5216581,86.61783
0.39040485,84.292206
0.34959427,81.11158
0.3965737,83.52226
0.354743,77.2595
0.40424556,76.67037
0.33786234,75.30905
0.34706336,75.19516
0.3498493,73.82682
0.36423904,68.34405
0.32444865,67.159065
0.2718783,71.196335
0.3106117,65.96139
0.32373503,65.40708
0.2933663,64.50778
0.28743833,61.64158
0.24091166,66.56623
0.19950831,63.518547
0.1571284,60.40572
0.066691056,63.516598
0.045564428,60.774643
0.030236505,62.09083
0.011775634,67.84878
-0.021301031,62.967865
-0.0055931685,66.91747
-0.035713535,68.033875
-0.017605742,66.58713
-0.041745096,73.280975
-0.010892537,70.92248
0.053507444,68.02818
-0.00057511416,77.70241
0.12017487,75.87415
0.24626334,82.14359
0.2773921,85.09849
0.39507672,87.48448
0.4366354,92.71452
0.5241986,94.63251
0.5071408,96.04999
0.7534804,104.29049
0.78187716,104.35441
0.8600034,109.40168
0.9533919,109.125496
1.029255,117.60895
1.1280583,120.52697
1.0485148,121.4194
1.1387098,121.52704
1.2821225,127.57284
1.234511,134.39711
1.2628174,136.52116
1.3507904,137.05008
1.3516895,136.37354
1.3026742,139.24048
1.3750856,142.90201
1.3516978,142.31792
1.4302428,144.63568
1.3386601,144.18382
1.4019256,141.67719
1.3772087,147.98866
1.4404097,142.03946
1.2851863,146.87172
1.3451737,147.98015
1.2986623,150.22455
1.3187943,145.4694
1.2706797,140.40263
1.2604471,145.60466
1.214791,143.85448
1.1076729,140.4993
1.1611621,136.38924
1.1660287,137.16423
1.0610319,137.3873
1.1074591,134.71843
1.0339628,138.07243
0.979761,133.23418
1.0189097,131.60431
1.0529457,127.30218
1.0389373,123.09486
0.93007565,122.626526
0.9629811,119.69681
0.9223671,120.8848
0.8990141,120.95175
0.9008521,118.14645
0.8545269,110.62461
1.0022929,108.814224
0.93935776,111.574814
0.7901869,110.09358
0.85878694,106.97195
0.8128399,104.9951
0.81878483,103.95748
0.7833438,97.93687
0.70713,101.164505
0.5749978,95.86684
0.6855483,94.21362
0.50231165,92.15528
0.51845974,91.73031
0.5315128,87.47258
0.445653,86.57593
0.46613067,85.556175
0.46426818,83.96607
0.5008049,78.13927
0.45566848,84.78051
0.46386695,75.76568
0.42214477,74.98773
0.47367063,74.99441
0.518853,70.704735
0.43455264,69.278946
0.4506613,71.287735
0.44426304,69.25268
0.44152203,68.1738
0.3762177,61.493977
0.32501453,62.94044
0.3810301,67.56204
0.392763,60.190163
0.3478819,62.515095
0.28068095,62.349373
0.27563378,56.133232
0.24140494,60.89807
0.22267479,64.30438
0.15908365,62.554432
0.12531209,68.781364
0.16465162,67.08174
0.0861271,64.87218
0.046257995,68.7057
0.09370278,70.83701
0.15844764,71.88553
0.16506626,73.38227
0.2637885,78.62484
0.2525653,79.70026
0.3380982,83.61223
0.44294545,86.46453
0.5216344,91.54837
0.6073858,96.450806
0.63085854,94.6003
0.83912367,99.143074
0.86807275,100.77366
0.9261011,104.35797
1.0588402,105.39518
1.1312814,112.35673
1.2184309,116.537224
1.3367635,117.75943
1.361184,120.24067
1.3654232,126.10467
1.3979323,126.466606
1.4946115,131.73943
1.5538564,134.45644
1.6011719,134.1057
1.5842799,137.00655
1.6223373,139.31937
1.6494334,144.38423
1.6178467,141.1352
1.6104108,142.20567
1.6453927,147.02377
1.7327775,145.541
1.597704,146.41765
1.6144704,147.3348
1.6164424,146.07643
1.643179,148.84299
1.5724579,147.3316
1.5065904,148.38618
1.5346268,144.41402
1.5268902,139.05382
1.4830505,142.4635
1.3945045,145.85043
1.3398576,136.28546
1.470315,137.54184
1.4266316,134.43843
1.309918,135.68814
1.4058944,131.96991
1.3057101,135.07431
1.2740976,126.35265
1.3238547,127.338104
1.2927818,122.893135
1.2505583,123.22821
1.2541167,121.543205
1.3282743,121.457016
1.2358034,115.42567
1.2178184,110.51573
1.2465553,114.48028
1.2803069,113.6092
1.2187089,107.63314
1.164112,110.8353
1.1650921,105.70063
1.0602764,107.55503
1.1158005,98.94545
1.0705478,100.56253
1.0211046,99.43531
0.9497392,102.295105
0.9826965,98.08335
0.9160834,91.92924
0.93128496,86.74673
0.87972355,90.47049
0.8752976,85.93889
0.7638393,85.32806
0.7645176,82.2285
0.76465344,80.15561
0.8018191,82.84554
0.8012348,77.85474
0.7934431,77.151825
0.7600585,73.67886
0.8151556,73.25482
0.783837,71.66046
0.7417314,68.91573
0.8190068,66.57466
0.7798452,65.395805
0.75013465,65.373215
0.7124421,62.962105
0.6621057,64.17837
0.71067524,62.47398
0.6562599,65.83758
0.7139033,62.65605
0.57190084,62.3053
0.57912046,63.039158
0.5561788,62.23834
0.50432074,62.496326
0.48889312,65.975746
0.511416,59.99047
0.4258534,67.41769
0.47300348,68.682434
0.45236748,70.45654
0.4118206,71.48657
0.45148546,74.16832
0.5023574,78.18901
0.70015466,79.57088
0.7044066,85.55448
0.8012568,82.9799
0.91062933,87.89822
0.9674938,94.462265
1.0323445,93.43763
1.1469378,99.34259
1.2614555,102.82031
1.3096422,100.445274
1.4161949,110.797806
1.4790009,110.56554
1.5208058,114.43698
1.6401215,118.902405
1.6400241,119.746826
1.7447764,127.57201
1.7907401,129.96712
1.8355314,128.56064
1.9088001,135.17639
1.8781154,135.27184
1.8536763,137.99892
2.019662,142.1006
1.9581089,140.71956
1.9015009,140.68864
1.9726182,143.03304
1.8358023,142.56108
1.949967,142.29625
1.9652106,147.38435
1.8321133,148.70403
1.9192487,146.73451
1.8446567,143.73567
1.8388524,147.4801
1.8359644,144.5935
1.8554417,142.22011
1.6905996,146.30164
1.7773802,142.86006
1.8117577,142.89851
1.7592056,142.5262
1.7156172,138.59903
1.6893212,135.08698
1.6589943,135.82942
1.6777074,132.55594
1.558404,129.50827
1.563534,130.55931
1.5256364,129.25963
1.5435113,128.36871
1.4425704,123.88357
1.5208886,120.10432
1.5074738,122.29588
1.4851655,118.71699
1.4490993,112.48698
1.5046312,116.547134
1.3825978,114.966034
1.4310405,109.805305
1.3884647,108.46089
1.3311214,110.36776
1.3393215,103.32948
1.3226132,100.413666
1.2900834,99.450676
1.2313974,95.16485
1.2107093,97.9086
1.1998638,92.655525
1.0817999,94.72471
1.1034706,91.42756
1.0125378,87.10167
0.957104,82.04413
1.0263404,85.85763
0.95386493,84.582565
0.9700394,81.60408
0.95612186,80.935905
1.0296725,78.69082
0.8915406,75.022804
0.9093538,75.53207
0.9634898,73.70266
0.8703174,67.431244
0.9020164,69.726494
0.8328869,71.051125
0.9361362,69.56227
0.8892902,60.635536
0.7906412,61.921806
0.8159642,64.72743
0.81851816,62.70182
0.76434076,63.884945
0.7081917,56.65307
0.64638084,59.773464
0.67694074,61.140198
0.58725244,63.203243
0.61775666,63.640778
0.5131627,61.27935
0.5539157,64.7703
0.55581456,64.672455
0.51153105,69.96845
0.5872268,69.57626
0.57826465,73.37029
0.6778394,74.99675
0.5270666,74.940125
0.7396702,81.05825
0.78130126,79.482735
0.8918286,83.209564
0.9330774,89.04418
0.9920663,94.51511
1.1214336,94.314995
1.151225,98.96882
1.3094473,104.50312
1.370438,107.88376
1.3147143,111.57216
1.5810949,114.71011
1.5483125,115.23016
1.6367012,117.500656
1.6847756,126.41043
1.7131621,123.446915
1.74052,127.16271
1.8523525,133.15996
1.7798922,134.66826
1.9189564,137.09822
1.891144,138.8437
1.9111515,140.06358
1.8142809,143.47496
1.9599302,144.50867
1.8847165,145.45299
1.8479143,143.39485
1.8595597,147.47838
1.836582,150.3009
1.7740003,145.08049
1.8715286,149.37276
1.783455,145.81628
1.7975622,145.2428
1.751637,146.01614
1.7065016,148.64981
1.6951492,143.83191
1.6929113,144.35544
1.6928563,141.51389
1.610222,136.56914
1.525839,138.35132
1.5430491,138.31375
1.5115036,134.90355
1.5101808,133.00526
1.3973646,127.64382
1.5111004,129.8018
1.4385047,126.983894
1.4675486,120.98869
1.4361752,125.8028
1.4054986,126.07758
1.3568029,121.697556
1.4392459,118.241035
1.3530761,115.569984
1.3360122,113.510506
1.3584166,106.77866
1.2243603,108.889465
1.1831956,108.586105
1.2550759,107.16887
1.1911569,105.98532
1.1305703,101.93104
1.1071739,97.05898
1.0751089,97.0699
0.95346284,99.79707
0.9225606,94.2318
0.88646173,96.20129
0.842568,91.59756
0.94455177,89.43799
0.74065936,90.06404
0.77053607,87.2883
0.75510144,83.41748
0.6599463,81.040146
0.7027598,80.3949
0.75018567,81.13662
0.72136736,73.07573
0.7039558,74.45114
0.66584486,73.95497
0.7102055,68.4417
0.66046315,68.79052
0.72584206,65.61783
0.6257601,67.78546
0.6810923,61.65664
0.6234632,65.29622
0.53633654,61.9566
0.5657632,61.876347
0.5213424,64.99056
0.46521264,58.74408
0.41606972,60.318325
0.3430915,64.15912
0.28707308,62.783443
0.34740514,63.36933
0.29552034,61.645397
0.25131804,66.48301
0.24246219,66.00324
0.23631439,64.48247
0.31091583,69.961334
0.32543555,74.86019
0.42654717,74.20664
0.3737003,76.911674
0.38004938,80.66466
0.5293653,78.53643
0.5552263,84.92356
0.5783954,87.26888
0.70472294,93.27377
0.90513,94.892426
0.8866676,101.69695
0.97442985,97.696976
0.97834486,105.8471
1.122471,108.59513
1.2215546,115.51598
1.2213181,122.92815
1.3436692,121.62369
1.3641006,121.17206
1.4634782,128.04987
1.4742421,124.361855
1.4547744,131.69688
1.5042369,134.57953
1.5248439,134.27481
1.4816921,138.65804
1.5991088,142.70303
1.5765661,140.81839
1.6404572,143.79044
1.5922483,143.60434
1.4945539,149.96613
1.5415269,148.06432
1.4942503,149.88275
1.5867676,144.63382
1.5936363,146.30983
1.4546016,147.61234
1.4725584,141.81093
1.4241061,142.94681
1.4637966,142.31259
1.4259143,141.0349
1.3691738,141.1314
1.2836981,141.70638
1.2630711,138.07504
1.2478294,136.03014
1.2312784,133.75578
1.1750827,134.42941
1.1583307,128.93697
1.163083,132.52763
1.0917888,126.955185
1.005038,125.16284
1.0647182,129.14427
1.017137,122.08521
1.0615776,123.584656
1.071589,124.24412
0.93773067,117.52583
0.9828119,116.85095
1.038061,110.72277
0.9307718,109.7096
0.8379887,112.20372
0.9619939,105.20212
0.8851814,103.88952
0.8574684,107.32634
0.81420076,102.70326
0.80678004,102.09541
0.7266062,99.365204
0.70226467,95.59924
0.61290765,96.21777
0.6456403,91.1572
0.57345295,92.12372
0.5481787,86.599144
0.46262184,86.727165
0.41011417,84.88758
0.45429087,83.01777
0.42809805,81.72179
0.41436678,81.85297
0.33411476,80.53495
0.43329746,75.29849
0.40130326,72.79785
0.44198352,74.28217
0.41405734,68.47413
0.31055498,67.20963
0.292209,69.86124
0.3351601,65.62087
0.27401742,63.454037
0.39368615,58.790226
0.2814746,63.89507
0.32763144,59.761124
0.21906288,61.934616
0.22958758,61.086002
0.12683299,61.936493
0.17541812,62.577023
0.06054687,62.363052
0.03246372,64.49993
0.04604483,66.2253
-0.034579244,65.236176
0.019371578,65.37232
0.022740753,68.30901
-0.05096787,69.93368
0.018606044,69.66663
0.027735608,75.83922
0.084879935,76.38926
0.19733398,83.93251
0.16664942,86.49844
0.35969996,86.16596
0.38999733,89.622215
0.5064796,92.69662
0.509922,98.96305
0.64634913,101.39074
0.74752367,103.18208
0.8135285,109.27223
0.8979647,107.100815
1.008751,115.87836
0.9977986,116.475
1.149915,120.746376
1.1203297,124.561485
1.2040101,124.58861
1.2286388,129.19748
1.2876407,130.26923
1.3165956,132.87842
1.2843719,138.43216
1.3493581,141.36353
1.3523941,137.15436
1.3419977,140.07591
1.3611107,144.54837
1.3897902,148.06363
1.2772831,146.1685
1.3812578,147.69739
1.3223019,149.6046
1.282418,145.49364
1.2872638,145.99303
1.2966006,148.1604
1.2368698,145.48125
1.2055944,146.94272
1.2146571,148.31117
1.1559365,145.69029
1.178754,140.94275
1.1844676,140.9664
1.1150384,144.51248
1.0737506,135.21481
1.0570194,134.62607
1.0670377,130.99503
1.0796967,135.59868
0.9751395,130.6507
1.0081292,126.21335
0.9626084,125.89685
0.9236305,121.5493
0.95927703,123.75347
0.86789376,120.85944
0.9144887,117.44435
0.9133571,116.7545
0.87398136,117.35751
0.8429358,112.32019
0.8319452,108.7433
0.78342754,113.32108
0.81475097,112.07394
0.8350974,108.67143
0.69104856,106.36988
0.8081389,102.93806
0.709517,101.03301
0.73407066,98.80208
0.6400303,96.91513
0.61402243,93.58912
0.48416963,93.5864
0.48434845,91.50502
0.49983492,83.9622
0.4504204,82.971725
0.38733792,83.816124
0.45309332,83.116806
0.408755,75.675285
0.3893182,78.19007
0.3344636,77.884026
0.35885748,75.73519
0.342645,71.02705
0.3819136,70.425766
0.3598217,68.389534
0.4636269,65.858154
0.30736175,66.81597
0.33688495,65.689575
0.290453,64.203514
0.27511543,60.051495
0.20078892,61.814377
0.23045535,62.85347
0.21813269,61.787025
0.264071,57.284565
0.14134116,64.202065
0.12294936,65.19486
0.093629055,63.41124
0.057486366,62.83139
0.049786463,64.074036
0.107338496,64.28723
0.02684186,70.90675
0.13464896,67.59939
0.07584352,69.928375
0.113753,73.22498
0.06223059,75.77772
0.16026112,76.37503
0.13855726,78.2581
0.34563893,83.71734
0.38264614,85.01147
0.4580058,89.54749
0.57316595,91.8171
0.61780757,96.23051
0.7766274,98.86167
0.77917325,105.38178
0.91470087,108.17981
1.0110348,107.97805
1.0675156,111.95108
1.2340492,117.06839
1.2388864,116.955055
1.2667052,121.581505
1.3497525,126.9914
1.3673216,131.48396
1.4294274,132.82932
1.3602508,135.08118
1.518967,135.77452
1.5483116,144.0456
1.5386415,140.27365
1.5411308,139.93333
1.5616934,146.78917
1.5889506,143.93732
1.531664,144.4491
1.5265443,142.87228
1.5001744,146.7632
1.5654819,146.3256
1.4986936,149.14558
1.5144033,147.96089
1.4255735,143.90309
1.4579973,146.57957
1.4409196,144.65833
1.4172823,142.04918
1.4183911,141.67361
1.3453058,141.86066
1.3126693,143.01549
1.3620512,143.07018
1.2578974,139.9992
1.2093394,135.3213
1.2062954,134.84087
1.181497,133.19716
1.2508792,128.98448
1.1511693,129.76628
1.1733645,120.33519
1.1881858,129.91489
1.1918818,121.148186
1.19361,122.53598
1.1539026,115.33723
1.1643138,111.52683
1.1017265,115.62057
1.0321989,112.13526
1.1409482,110.71319
1.0795852,105.37783
1.117975,106.119804
1.1070596,100.25445
1.0533179,101.60041
1.0100926,103.269104
0.9471277,96.20915
0.9014736,93.669914
0.79460114,94.76559
0.8715297,91.05764
0.7749929,90.97968
0.70304435,89.099686
0.7145976,88.604324
0.7866537,85.12812
0.7592311,85.703125
0.63359433,79.48351
0.63859195,80.17959
0.648997,76.02429
0.6809284,76.126495
0.70222026,74.26257
0.68337786,70.10316
0.64203274,71.82114
0.6733964,70.10325
0.6884236,65.90833
0.6988354,67.96669
0.59064114,62.922382
0.624735,64.89056
0.5891106,61.528595
0.6041915,60.938133
0.562135,61.498173
0.5045851,62.95116
0.4403094,61.19739
0.4206929,60.368202
0.45078656,63.50364
0.33134136,62.032944
0.34460443,61.49609
0.3122499,64.39078
0.33367673,68.31149
0.3313182,69.90541
0.41412768,70.167854
0.3831631,72.05374
0.48212606,73.3437
0.48768532,76.28112
0.6509398,79.464645
0.7321414,81.94324
0.6433656,83.39444
0.7766314,88.14886
0.8596323,96.44723
1.0231841,94.78327
1.1135333,98.737724
1.1505473,103.7782
1.2866465,107.53087
1.3274964,112.07412
1.389199,112.93518
1.5524625,118.2081
1.6332039,120.92101
1.680051,122.36046
1.6383225,129.25969
1.7231704,131.40889
1.7458857,135.57281
1.8361093,130.92165
1.8800069,138.15225
1.8313726,136.15059
1.8969469,141.02693
1.8622533,143.88739
1.9183688,142.45595
1.846587,145.32248
1.8774769,145.88643
1.8920103,146.17613
1.7973477,150.23018
1.8252518,146.88234
1.764167,145.90274
1.8125058,149.73384
1.8397306,145.78291
1.7284095,145.45813
1.7644264,147.67244
1.8079417,142.26631
1.7272731,139.59692
1.7803191,141.3733
1.71489,137.85445
1.5744227,142.11736
1.6213211,132.94894
1.5429187,133.52734
1.5835375,132.83817
1.47355,129.51085
1.525391,130.29495
1.475036,129.44936
1.459334,125.40022
1.4431964,123.689804
1.476977,123.98315
1.5218711,117.101814
1.4289167,119.13935
1.4112192,120.597
1.4717518,111.712326
1.3795522,113.54661
1.4147953,110.79378
1.3949443,111.12079
1.3331662,106.437325
1.2669346,103.651726
1.2151972,100.952805
1.2045876,100.80273
1.2430876,95.62912
1.180823,94.63498
1.1067281,93.51352
1.0742956,90.654976
0.96623474,90.68398
1.024251,86.15845
1.0143884,82.82243
0.94252896,80.821106
0.9564345,78.04429
0.95659345,81.730286
0.92680174,76.37386
0.87096393,80.03168
0.9116311,80.55018
0.9729872,74.03106
0.9289867,66.92471
0.93645257,73.608635
0.78954756,67.45182
0.9285583,69.34288
0.91002125,67.460236
0.8374652,65.983246
0.84299755,63.551167
0.7530398,60.922028
0.7755739,60.928745
0.7714323,59.18517
0.6623702,63.403423
0.68895286,62.948055
0.6380718,63.935932
0.6420995,63.173595
0.5969936,58.68515
0.5754095,65.853905
0.53253424,67.23129
0.5189972,67.16726
0.5518914,67.93524
0.63233817,70.7673
0.55744225,70.06657
0.64997524,70.71433
0.63603485,77.7112
0.7473605,75.8585
0.8512152,81.592926
0.90577185,87.44294
0.9828971,85.51252
1.1306658,97.29863
1.1790521,97.057655
1.2142214,99.00694
1.3201994,102.27236
1.3441464,109.092926
1.4741224,112.69637
1.5684383,112.29508
1.6338625,119.444016
1.6511797,117.54173
1.7345059,122.230736
1.856686,127.51287
1.8761574,130.97821
1.9214703,132.4697
1.8400809,134.85129
1.906206,137.72195
1.9144241,140.54962
1.9617667,139.17928
2.025917,143.48499
1.934971,144.36642
1.8815718,144.97769
1.8957031,145.66731
1.8292245,148.95056
1.8541244,143.13956
1.9396632,145.48659
1.9543656,147.06664
1.8926678,146.14798
1.8503402,144.45451
1.7857572,147.52608
1.8799125,141.98512
1.7355751,144.58725
1.7477384,142.58643
1.7240902,139.43893
1.6455107,141.82745
1.6006675,140.0684
1.6185877,135.98784
1.6233771,136.30522
1.503701,128.596
1.531247,130.65863
1.5086282,126.751274
1.487724,126.26361
1.3060738,126.717285
1.4470669,120.50683
1.4764308,122.57348
1.4078144,116.0173
1.4083318,120.28297
1.4298477,117.03479
1.3999468,113.20177
1.3553507,109.26774
1.3743771,107.86636
1.3850951,109.72329
1.2789154,106.21005
1.2103231,110.09634
1.230154,103.07973
1.1327816,102.68876
1.1113207,93.92478
1.07622,94.966064
1.0324345,95.32395
1.0324848,89.6426
0.9591467,94.23682
0.8696563,85.58471
0.8879652,85.8602
0.8362656,88.47313
0.85839045,83.25097
0.8413887,81.95095
0.7762297,76.7731
0.8166937,73.793274
0.84434766,76.199745
0.80225426,73.13316
0.8445909,74.00329
0.8146939,72.099655
0.8128896,66.78693
0.87387127,67.28383
0.7894372,64.52937
0.69185627,63.396748
0.70275885,65.10005
0.64644873,66.20102
0.6507062,62.99494
0.67782795,63.70769
0.52311665,65.485954
0.5059299,64.38382
0.45543572,64.50634
0.42167154,57.241047
0.4290006,61.56464
0.32236326,61.900017
0.34102362,65.129265
0.31967846,63.682194
0.30913925,69.57537
0.35230446,68.99631
0.3809608,73.32084
0.4252669,73.89107
0.46284077,76.8354
0.62033594,79.3396
0.54746413,85.68032
0.6969973,87.44808
0.82552844,89.8838
0.8208044,92.94789
0.9171035,96.208046
1.0686595,100.54229
1.0736682,105.42767
1.1635405,110.74862
1.2407813,108.94896
1.3976538,112.52751
1.3567997,119.15733
1.4792773,122.0921
1.504786,129.26335
1.5527683,125.83483
1.579225,127.219215
1.6124021,130.1836
1.669065,130.16501
1.6511776,139.28394
1.6814824,140.1712
1.6887047,140.1173
1.6217263,142.06502
1.695788,143.41302
1.6759977,144.07414
1.6486402,146.45334
1.5980645,148.81065
1.6660355,143.69931
1.6587763,148.668
1.619773,150.76392
1.5439653,148.42966
1.5362697,145.9253
1.5877308,146.73018
1.4468844,140.54417
1.4451196,140.83109
1.3769763,140.41217
1.4246657,142.33865
1.347057,137.83931
1.3329114,137.86804
1.4226171,138.85124
1.2368513,130.88951
1.1869555,135.28468
1.2351003,132.49252
1.1537435,127.91907
1.272388,127.02269
1.1158103,123.62019
1.1781957,127.30065
1.044813,119.032455
1.1479847,120.523674
1.1108791,117.11025
1.1676071,112.21607
1.0628386,114.72579
1.0703957,109.653465
1.0075253,109.826935
1.0633357,104.749115
0.9226659,106.125374
0.96660155,102.54042
0.9780436,103.66183
0.85232127,98.92167
0.8476554,93.375244
0.6685104,94.98225
0.78620446,93.87256
0.6438609,97.676
0.6373691,87.46812
0.64013505,87.04043
0.5554244,87.601524
0.5095136,87.522865
0.48545802,84.11861
0.5373744,80.71792
0.5228527,78.38678
0.5246824,73.70921
0.3996699,73.260544
0.4829259,70.37887
0.48329338,74.151505
0.5721044,70.70677
0.41087896,67.044014
0.42350402,65.42953
0.378052,68.87216
0.45444402,62.030968
0.28685558,63.894115
0.37215832,62.036995
0.32867047,60.34848
0.16838358,60.257233
0.15696329,62.2098
0.21042493,61.93313
0.1417398,61.742165
0.10209129,62.606865
0.1546252,64.44559
0.12710334,67.66102
0.11037734,67.77022
0.11028613,66.88219
-0.046015967,67.8638
0.0388798,64.97338
0.1092776,69.62424
0.10160695,72.147446
0.21956982,81.09658
0.20462437,81.05343
0.29462808,81.93251
0.3024454,88.10356
0.45316648,91.4932
0.52805215,94.21313
0.6299178,98.52889
0.7388666,100.80678
0.77962315,107.3752
0.8805258,108.18014
0.90708303,107.543434
0.9269279,114.113106
1.0949055,116.24568
1.0696837,120.5691
1.1527021,123.363304
1.276319,127.32713
1.2479995,132.79657
1.3452924,129.64697
1.3494397,134.21875
1.4111726,140.72318
1.280963,143.21246
1.3071846,143.52916
1.389023,142.22913
1.3746006,145.62813
1.4634291,144.42725
1.3673351,148.01245
1.370799,147.07066
1.4241601,144.83879
1.3628064,145.65555
1.3575761,147.61859
1.336923,145.87419
1.2538748,142.88368
1.2476052,146.56816
1.2409387,143.78683
1.2318102,145.60324
1.1671361,141.8707
1.1452129,140.04884
1.0985065,142.87212
1.0214787,140.90195
1.0281458,139.25394
1.0630093,133.79568
0.96835434,129.06255
0.97818124,127.24646
0.94015574,131.5427
0.9815529,126.00293
0.909619,122.291504
0.9775846,123.997406
0.8312446,119.4898
0.8083779,115.520164
0.84837407,118.64903
0.82466376,115.76267
0.8160687,109.2613
0.8227321,110.81036
0.87685704,113.10112
0.76176536,111.83748
0.7475994,108.06448
0.76587284,106.757225
0.6752727,98.79139
0.6924016,101.34405
0.6035296,97.19864
0.6576969,99.233025
0.454901,91.47117
0.5099839,94.05692
0.4998081,91.60078
0.47273633,92.022385
0.4450288,84.79532
0.33768424,85.806595
0.40618113,79.54274
0.32985377,81.41443
0.30755553,76.42245
0.33098793,76.45074
0.33152542,73.93265
0.29091474,71.11641
0.2836496,71.31729
0.31266913,66.82919
0.28641367,71.59527
0.37027675,63.453842
0.39565378,65.97427
0.31257668,66.04314
0.30902728,64.632965
0.226569,63.36164
0.21664119,60.60725
0.14411221,63.475132
0.17185743,63.46364
0.10544219,62.51512
0.04802668,60.723663
0.0053859134,66.11682
0.0610821,64.32609
-0.031320274,67.097206
-0.09847529,64.97868
-0.018951181,66.47952
0.013988426,68.24712
-0.048456106,74.22281
0.020100962,70.78628
0.10670624,74.42882
0.096316114,80.93791
0.21601662,80.78819
0.39758265,83.65296
0.3410254,88.91419
0.41542897,90.50033
0.50627023,91.99886
0.5866318,95.938126
0.6755826,100.41
0.8140192,102.314964
0.82497406,107.81089
0.9619801,112.71741
1.0371106,115.65676
1.0782418,119.3245
1.2041838,123.478165
1.195071,125.760895
1.3618052,127.99615
1.3398288,128.7657
1.3109087,132.60524
1.3966852,138.31203
1.3234558,135.14551
1.4534148,140.905
1.435163,141.58318
1.4478871,142.96745
1.5001352,144.31146
1.4520891,148.15157
1.4751093,144.38768
1.4390953,144.24818
1.4539269,148.12819
1.415283,145.52634
1.4480712,143.74423
1.3817279,148.75488
1.4086548,146.54813
1.3489628,144.63019
1.3911854,145.7983
1.3097866,142.52966
1.2078565,145.80403
1.2794124,140.03131
1.2783408,137.9898
1.1590805,136.41219
1.1909287,136.89224
1.2078851,134.00081
1.1638473,130.75436
1.1329423,131.05847
1.1224623,127.80445
1.0380714,127.54499
1.159915,122.01901
1.1452084,123.55586
1.0371803,122.91515
1.0367576,116.63985
1.0216225,115.89718
1.0073215,112.29611
1.0473237,109.346275
1.0213919,111.83854
0.98382413,111.40399
0.95743275,107.60931
1.038967,106.03484
0.8841193,104.79827
0.9621246,103.90579
0.9203863,100.24213
0.8373788,103.63183
0.80991817,94.73312
0.6550182,92.60659
0.65109175,95.565796
0.7001667,88.87563
0.7348669,87.86205
0.61092275,85.58133
0.64864784,85.899086
0.5785547,84.073105
0.664641,80.06152
0.54832834,79.765465
0.5584315,77.6487
0.61021054,73.7227
0.5983759,74.16292
0.57097065,71.609726
0.5627106,68.939316
0.5905541,70.3376
0.5534064,67.54162
0.5605741,64.47902
0.5673134,63.5358
0.53111523,64.69112
0.5626407,62.67435
0.50950855,63.1805
0.4746496,60.885006
0.32838297,62.010952
0.3895476,62.139977
0.36178187,65.58557
0.33986658,64.54689
0.2882573,65.82695
0.24232085,59.33673
0.26111758,64.93469
0.31527233,68.516975
0.32366356,69.20705
0.32141703,70.74787
0.29650036,75.866714
0.40089318,75.07072
0.45836008,79.43798
0.53887105,81.49918
0.54432297,85.923164
0.67423534,86.46202
0.7150665,88.04165
0.8853159,95.47361
0.9468143,99.06144
1.0124019,106.10122
1.0834965,101.15965
1.2223778,106.45817
1.3077501,112.152306
1.4186279,112.64388
1.4544295,120.593285
1.4926783,122.65882
1.5612812,124.97296
1.6051991,128.3057
1.6855922,128.03706
1.761288,131.07076
1.7573676,134.96616
1.7539948,138.6445
1.791757,141.6213
1.7461599,141.44655
1.7953361,144.6778
1.749011,146.06476
1.7685815,145.56642
1.8252563,148.70238
1.8536764,147.67117
1.7812923,150.12306
1.776842,149.84889
1.7475336,146.3467
1.7344435,147.12466
1.7868372,147.78772
1.6673445,145.26204
1.6198566,140.13527
1.7229786,144.00742
1.6287773,144.53189
1.547395,141.07224
1.5160093,139.73553
1.5032583,133.89871
1.501056,134.2664
1.5106597,134.27908
1.5428026,128.45892
1.4337938,127.96072
1.4914194,127.97859
1.4914442,126.639694
1.4433289,126.90932
1.337132,119.8602
1.3806518,120.48459
1.3328156,117.96583
1.3884369,119.63126
1.4826034,117.34844
1.4323757,111.07492
1.3633693,107.84613
1.2403939,111.698296
1.3039043,107.581535
1.2977047,102.9016
1.1839441,102.195
1.1955092,100.99903
1.1220407,100.748405
1.1190639,98.21603
1.1161208,96.407036
1.0952821,94.39983
0.9709782,88.829475
1.0193119,87.772705
1.0398288,88.522385
0.96545166,85.777245
0.9306068,85.98523
0.9491937,85.68335
0.85098374,79.20274
0.8868397,81.75812
0.91807115,73.94723
0.82847565,71.65044
0.85331374,70.152664
0.86144924,73.12244
0.8636959,65.81834
0.8807515,67.26263
0.9058596,65.13143
0.83875,63.92714
0.91496414,63.229935
0.8224126,61.591354
0.82995087,62.31636
0.81650543,59.14637
0.65542185,59.518894
0.6913095,62.41102
0.62658364,63.404957
0.5467884,63.00372
0.630502,63.171947
0.578718,62.683884
0.5439635,65.371056
0.57536244,63.905552
0.64006853,64.776634
0.5482675,67.42247
0.5875838,69.26076
0.6289182,71.4589
0.57627386,75.574524
0.7121648,78.23645
0.76314306,80.42742
0.85774827,82.69146
0.88674736,90.872986
1.0457561,91.33259
1.0714178,96.04024
1.1728925,93.142044
1.2848575,98.67386
1.3591443,102.86085
1.4361517,107.1032
1.556302,111.444145
1.5727034,112.480675
1.6679426,116.96555
1.7604601,125.84099
1.7693778,126.98311
1.8064159,123.921
1.8557276,131.82335
1.9469033,130.83195
1.991849,134.19937
1.9652059,137.08714
1.9808695,138.57532
1.9493939,140.68571
2.0253491,144.22481
2.0439382,145.33054
1.9404302,147.90094
2.0181992,143.71172
2.0021863,147.10522
1.9681753,146.70471
1.9957052,142.39076
1.8703086,150.0509
1.8941264,143.32426
1.8462914,146.11955
1.9189762,145.4342
1.799905,145.88702
1.7760444,142.23956
1.72487,140.58858
1.7026498,142.03639
1.6686537,135.25919
1.5807582,132.23903
1.6498554,136.09581
1.651387,134.59183
1.5363824,134.3318
1.5546218,127.998405
1.6136972,126.78418
1.5611221,124.44648
1.4913176,124.61233
1.5000917,125.07746
1.5215603,120.66822
1.5248148,121.42752
1.4997236,117.58858
1.4574872,115.586914
1.3926423,110.3534
1.4254055,109.283905
1.393634,109.08277
1.3597921,106.99057
1.3024837,105.36478
1.3615545,100.469154
1.2597158,101.922325
1.2647967,101.602394
1.0935584,97.03877
1.1465403,92.87272
1.1629466,97.10279
1.0175031,90.64579
0.91663194,90.39715
0.92776626,85.49023
0.9888275,83.39408
0.8887576,85.12549
0.8440186,81.97729
0.82302,84.527016
0.8590272,79.333244
0.8456286,74.57679
0.7849721,75.5308
0.8730109,74.248245
0.78648835,72.939186
0.8043186,70.402985
0.75671977,66.03859
0.7888982,67.38145
0.821642,64.68141
0.83712137,61.621582
0.76025766,60.18629
0.7557439,63.08391
0.757247,62.32362
0.66299564,62.64464
0.6070511,61.34066
0.58033794,60.807865
0.52631783,63.097115
0.44030687,58.529037
0.49709293,64.45599
0.42729563,66.21996
0.4037529,69.25638
0.46988514,69.36702
0.40418354,67.538345
0.4502419,70.58762
0.4821097,74.77902
0.548276,77.51994
0.5491897,83.133354
0.67424816,80.98597
0.7345675,85.73185
0.8173237,87.883545
0.8246621,90.17147
0.9064037,99.72591
0.9966974,98.717545
1.1338553,97.265656
1.180399,105.16349
1.2753353,107.90482
1.4219363,110.74511
1.4048378,117.19587
1.533096,120.79912
1.5136373,122.68132
1.6220486,120.93401
1.6967262,127.76762
1.6815516,133.49405
1.6912733,136.85881
1.7428766,135.87192
1.6410488,138.84969
1.7800878,138.45824
1.6797262,147.58936
1.8512057,142.30746
1.8216405,143.11768
1.7924958,146.78316
1.7326006,143.80397
1.8202709,143.862
1.8124839,144.16075
1.7500367,148.69122
1.7454532,147.61569
1.7353681,144.79137
1.6059475,149.33078
1.6040236,144.93668
1.530859,146.61758
1.4804288,143.16995
1.5428424,143.89688
1.4766287,140.2104
1.4085144,140.35127
1.523299,135.32086
1.3348271,135.71672
1.3624294,133.24112
1.336989,131.67784
1.2410997,130.6341
1.2672323,124.41832
1.2263646,128.10747
1.2459874,124.41055
1.2027547,124.0352
1.2165543,122.31461
1.1213944,122.42219
1.196698,115.56431
1.1246475,115.87476
1.1066055,111.05102
1.1050847,111.868164
1.1102014,109.19476
1.0271133,104.80229
1.111948,104.8747
1.021187,101.15053
0.90340644,98.561714
0.8770608,101.35703
0.887422,96.36563
0.8254556,94.11718
0.7664488,93.065506
0.69662285,90.1497
0.70662314,88.79446
0.6612747,86.75307
0.62091523,80.7156
0.61097234,84.26313
0.6633587,86.859055
0.5590267,78.2095
0.5967285,76.382
0.58766353,75.43295
0.5830889,75.24541
0.54864746,70.89064
0.502201,70.71991
0.51191574,64.872055
0.4697988,63.277107
0.4758129,65.60624
0.49995977,65.72006
0.5660282,64.75235
0.4843963,65.33307
0.42961657,60.0185
0.45829767,63.951527
0.33191922,60.64335
0.32008654,60.078995
0.26843822,55.28937
0.22464718,62.580986
0.17072764,60.76525
0.14026874,62.82335
0.14771584,64.0203
0.11947207,65.0812
0.07645115,64.6748
0.05975974,67.864136
0.13171925,72.380486
0.12200763,73.36695
0.26303005,78.31942
0.21690686,79.30382
0.29202455,79.48084
0.3936685,85.90849
0.47360218,87.00385
0.5284191,89.22807
0.6066893,95.46429
0.7923482,98.71981
0.80370545,105.01698
0.86832035,104.88088
0.97105414,111.63221
0.9929585,119.41893
1.1178709,114.80113
1.1120403,118.711006
1.2375592,121.6618
1.2717965,122.53097
1.2735039,128.55315
1.3401715,127.45214
1.4224093,131.4615
1.4207555,136.73668
1.4371278,136.06468
1.3602031,138.02274
1.4881372,142.09937
1.5393202,143.848
1.4446585,143.0279
1.5085022,144.2125
1.4079411,147.13268
1.4294791,149.90906
1.3815187,143.47798
1.4250093,146.60066
1.3873466,146.47536
1.3163671,149.56105
1.334685,150.34744
1.3274741,143.87495
1.3030303,144.79152
1.2446218,142.36171
1.1930445,138.70737
1.164649,140.98245
1.1615499,138.66376
1.1069378,133.75447
1.1038592,131.63654
0.9931821,130.46371
1.0990983,131.43652
1.0002896,125.94799
0.97641855,128.41055
0.9925348,126.75813
1.0051923,127.30487
0.94571894,124.44959
0.97667986,120.327896
0.81179005,114.44868
0.9059672,117.61862
0.9392734,117.194824
0.8767803,112.25236
0.8605522,108.850655
0.83087105,106.4445
0.7828696,108.4578
0.75781363,105.42508
0.7250111,103.29893
0.65651745,99.98501
0.693147,96.34479
0.58693796,97.78947
0.5726679,93.26531
0.619677,92.951256
0.5690009,95.52908
0.49730402,89.94014
0.38726744,86.928215
0.32194182,83.76171
0.40951622,87.27092
0.39787236,75.63504
0.31491017,82.05756
0.29776397,80.76747
0.26241958,76.49646
0.3469903,71.35308
0.33458793,78.05599
0.31048948,67.422356
0.3939713,68.7303
0.4093747,68.95424
0.42469928,68.24977
0.27489573,66.20633
0.24855538,63.659943
0.33057892,61.788048
0.18432803,61.32342
0.20462836,61.714493
0.17104946,61.464302
0.15161331,60.844906
0.03346438,60.982616
-9.286983e-05,64.28623
-0.02252553,62.463528
-0.049633745,63.351154
-0.022449534,64.70878
-0.04660522,64.571815
-0.02793693,66.298416
-0.10439073,75.19814
0.008493317,73.726364
0.031672034,73.924126
0.047799554,79.39406
0.14475326,83.61658
0.19006984,82.24949
0.25843185,85.33191
0.3909084,87.286285
0.37871647,88.512634
0.54131585,98.316154
0.5936478,98.38558
0.72443956,102.34745
0.8068184,104.206276
0.8627495,110.91432
0.93643934,111.71798
0.9566166,114.73816
1.0545996,115.749855
1.0851212,123.45371
1.1208534,121.81908
1.223177,126.23096
1.3573235,133.62614
1.286968,129.7613
1.3397233,133.27464
1.3746629,137.05106
1.3757045,137.7585
1.366773,138.92422
1.4333621,145.43144
1.3748847,143.78934
1.3739663,145.4739
1.3735409,143.01207
1.4217632,148.62993
1.2863774,147.67564
1.3666501,145.26611
1.4113011,142.62546
1.3258771,148.20561
1.2796217,144.30515
1.1639726,143.1777
1.206459,146.38033
1.3085696,142.03386
1.2296467,139.3675
1.2252991,139.96494
1.1334475,137.65926
1.1126934,133.297
1.1791537,135.87903
1.0597851,137.65271
1.0073063,132.62955
1.0752974,130.82419
1.0579562,127.86135
0.9560001,126.5878
1.0520334,124.43968
1.0778462,126.32938
1.033788,122.09642
1.0019826,118.44242
1.017063,112.13633
0.9583479,116.56513
0.9100083,114.51896
0.89884794,109.781815
0.872075,111.92805
0.86291754,101.63389
0.8482288,105.12801
0.8791926,99.03575
0.8739016,98.04077
0.7145566,98.4013
0.6441421,95.56888
0.7069676,92.13613
0.6647361,97.06162
0.5949709,86.94824
0.5621466,87.401695
0.55338013,85.35933
0.5411857,83.84112
0.4726355,83.073395
0.5314015,82.983345
0.4627764,78.93015
0.4888943,78.52382
0.4985989,73.66929
0.48706293,73.81318
0.51633257,75.71027
0.5156864,69.759674
0.56533027,67.56164
0.57268405,67.62164
0.5041723,69.04814
0.42414764,64.77397
0.46574235,65.15442
0.4339514,69.012726
0.3436967,64.09191
0.3748433,63.08046
0.36557588,64.46005
0.39907554,60.892803
0.27624667,65.87152
0.21404801,60.822918
0.13824531,62.684994
0.20955153,66.855965
0.1968614,67.20532
0.16292495,62.883656
0.18992689,69.597946
0.1787488,71.75636
0.25993612,72.07134
0.20064628,72.35668
0.31751645,76.74127
0.31928337,78.516106
0.4730009,82.4624
0.46435893,85.83628
0.59270877,89.71298
0.74050915,89.397484
0.7245051,97.916695
0.85485953,95.00734
0.9539299,104.60474
1.1422206,103.18115
1.1632138,106.32498
1.2045187,111.22585
1.308537,114.88373
1.3739415,116.96074
1.482607,119.732025
1.490382,126.25841
1.5195513,127.79028
1.5371118,130.94952
1.5682048,138.49184
1.6379887,134.16666
1.684374,137.93637
1.7236583,144.1963
1.7531115,143.38797
1.6881671,140.60535
1.7694583,146.29674
1.7467705,146.85272
1.6890482,140.27583
1.6777688,145.49149
1.6617137,148.6496
1.7044178,146.77946
1.6623088,148.01538
1.6782743,146.41591
1.6415944,144.01292
1.5877159,145.42226
1.5092437,141.93622
1.6223781,141.80411
1.5517457,140.40843
1.4970744,141.15932
1.5066451,135.21332
1.4467318,136.389
1.4267797,136.37047
1.4046234,132.2289
1.4094398,134.47261
1.3020025,126.74877
1.3337108,131.09921
1.4148784,126.463036
1.2891906,124.96955
1.2976652,122.76103
1.3453181,120.53132
1.2812511,113.71964
1.261128,115.84155
1.312685,114.56445
1.3738172,113.390335
1.264099,110.4763
1.2410144,110.080864
1.2899424,103.86574
1.177766,103.55318
1.160439,101.957726
1.0855631,100.01033
1.0033888,99.609634
1.0976106,99.13393
0.9384386,96.92617
1.0388274,90.41839
1.0024052,92.89257
0.92713106,91.9652
0.93758076,83.94658
0.936189,83.71141
0.80335194,80.493996
0.8346617,82.71577
0.81920993,78.589584
0.7788591,80.544815
0.8480523,75.2833
0.8031508,74.70707
0.8459711,72.56323
0.79230285,71.3052
0.7945089,68.38336
0.8335786,69.704094
0.7705426,64.14406
0.79704887,63.402546
0.7755895,65.84854
0.7534073,67.167984
0.691027,61.136696
0.7133831,57.57741
0.7216661,60.22016
0.64851254,60.149334
0.5878847,64.66091
0.53670985,63.942085
0.6138027,62.61587
0.49410963,64.11405
0.48640385,64.7973
0.4362713,70.22903
0.47215304,65.7478
0.5586335,70.12624
0.61905885,68.41867
0.5169271,73.003654
0.5847669,78.876335
0.7136728,81.69659
0.7504129,81.4283
0.8139082,85.8566
0.9068706,89.463875
0.9752552,89.24095
1.1273011,93.46369
1.1482224,94.49281
1.2799132,104.94545
1.3301827,109.0478
1.4124845,110.44746
1.562878,113.8143
1.6032287,118.08564
1.6616076,119.949265
1.642188,124.348976
1.785158,128.37477
1.8500601,127.85347
1.8801957,132.48575
1.8974133,131.02574
1.8550662,136.56987
1.9324179,137.96555
1.9925841,141.29869
1.942941,142.38136
1.9741949,142.77904
1.931079,144.01083
1.9354634,147.21979
1.968808,147.00165
1.9953115,146.18095
1.8835008,147.86984
1.9579692,143.58171
1.8956813,146.39442
1.8167416,147.90965
1.7885745,143.89397
1.8585174,144.98018
1.8473697,141.18614
1.7542171,139.69467
1.7421045,142.7792
1.7297314,139.55527
1.7142503,143.00476
1.6564775,135.57077
1.6988503,133.4801
1.6216637,129.76483
1.53586,130.99408
1.5382043,127.002594
1.5142075,130.80586
1.5205984,127.08227
1.4251468,125.65969
1.4582283,125.616005
1.509207,123.95183
1.5029764,117.52483
1.4849063,118.24503
1.4297155,112.97801
1.4922745,109.14298
1.4582902,111.82284
1.417741,105.713715
1.305822,108.20138
1.3124369,106.63762
1.283561,102.7533
1.3053437,99.72002
1.1814101,95.4562
1.2299943,99.40527
1.0880346,93.064896
1.1260431,92.787506
1.0729798,87.76667
0.9856387,86.173294
0.98322463,87.71976
1.050805,86.01821
0.9290269,84.555954
0.98750204,81.20785
0.9770452,82.06524
0.9333627,78.82544
0.9545666,77.2755
0.8986223,72.94565
0.97780937,68.121414
0.85526395,67.12773
0.92786384,72.98097
0.9506647,62.892136
0.90041417,65.70531
0.8767748,63.790676
0.7974098,63.47578
0.8487985,62.29594
0.80856115,62.353672
0.72916216,63.144848
0.7749472,59.978756
0.6969781,62.591267
0.6338953,60.56487
0.6026898,61.42054
0.53938305,67.57118
0.48350066,65.23786
0.5576954,62.73951
0.4598349,66.679375
0.48208615,64.72882
0.5186419,70.288445
0.5610255,71.96034
0.58478355,74.154396
0.6688888,77.825966
0.6833129,82.53986
0.6601228,84.180405
0.82492256,88.35232
0.9150204,84.701065
0.9317052,92.978195
1.031343,94.13456
1.1886456,97.320526
1.220848,102.66401
1.2837589,106.25799
1.3977109,107.81774
1.4329989,112.16568
1.5557091,116.97779
1.5591117,119.20344
1.6752505,122.36688
1.7187229,128.83644
1.736998,130.00995
1.734363,133.80846
1.7446077,134.78903
1.8254747,135.58493
1.8855404,136.6739
1.8109652,141.68388
1.889394,138.34554
1.8650116,138.564
1.8252234,144.66417
1.7933633,142.49458
1.7841157,145.34729
1.833967,147.78223
1.7286878,146.35269
1.8370038,145.53029
1.6912674,145.38887
1.7412112,147.17467
1.7173107,142.65002
1.6514063,145.22926
1.7392702,143.12929
1.5864683,142.84328
1.5390977,143.79276
1.54014,137.35263
1.5496011,139.87213
1.4915468,135.58305
1.5409116,130.1643
1.3944684,132.41931
1.3947816,133.94153
1.4525213,128.73657
1.3227272,126.56138
1.385587,129.07315
1.3116132,118.332924
1.3077387,114.02496
1.3275421,116.15067
1.3275319,115.85801
1.2915645,118.75696
1.2725827,113.605415
1.2401607,114.14841
1.205166,117.17957
1.174565,106.41516
1.1992663,105.21006
1.1538352,104.916756
1.0445509,102.95972
1.0820212,101.89077
1.0003976,98.88974
0.99757355,97.3875
0.88934046,95.47873
0.8578651,93.63581
0.80316633,92.67094
0.77823734,90.03045
0.80220455,89.29318
0.73488015,88.342354
0.7538394,84.32927
0.69493353,81.530136
0.64497626,81.602844
0.68223274,74.92353
0.6872958,76.644875
0.6217221,77.46141
0.6743874,74.314316
0.72296387,70.89157
0.6687669,67.47375
0.6924479,69.444275
0.62920934,64.6442
0.565555,67.49468
0.56853366,61.025135
0.5734988,62.186947
0.52529263,61.073406
0.5467687,63.641525
0.3866039,58.24916
0.44008568,61.531673
0.31515062,60.726467
0.36564058,59.904648
0.19349994,65.68339
0.22477564,64.65441
0.20070061,65.81328
0.19341321,68.1624
0.15525116,69.25096
0.23434523,70.049355
0.23423368,72.99581
0.24443462,71.163155
0.2905283,78.09827
0.30458987,78.00182
0.3340344,83.6603
0.5299428,82.897224
0.62028277,86.73778
0.67493117,92.06375
0.71717966,94.99442
0.93975925,98.39356
0.91493446,100.83943
1.0819794,109.98905
1.0907959,105.00313
1.1847758,111.15018
1.2530793,117.40247
1.2454493,121.25454
1.3825603,122.251625
1.295843,126.94086
1.4234158,129.04091
1.4081165,127.16917
1.4854752,135.27469
1.4786901,137.51317
1.4871107,140.30293
1.5140254,137.7117
1.5529253,138.70444
1.5369714,143.10869
1.5394205,144.33961
1.5032675,149.77089
1.5945673,143.91315
1.429337,148.6279
1.470432,149.88387
1.4906499,149.15475
1.4681569,148.41809
1.3558781,142.52756
1.4102745,140.96478
1.3438176,141.78787
1.3147682,146.33765
1.238595,143.18456
1.2903637,143.22368
1.201702,141.11559
1.2402831,140.54639
1.1270783,138.28813
1.1366162,132.47337
1.1590954,131.61848
1.0125803,132.62914
1.0627946,127.229774
0.994267,129.52032
1.0600674,123.575874
0.9607905,122.309814
0.94655067,120.907715
0.9734034,122.69164
1.0153446,115.7473
0.94953585,115.27362
0.9593355,112.61349
0.9396018,111.10259
0.92087257,110.53127
0.81450856,110.82524
0.8865494,106.03909
0.77299696,106.74209
0.80975556,100.459175
0.68725556,99.05972
0.5972137,95.953415
0.64517874,94.68016
0.5855912,94.467354
0.6136568,91.36109
0.51184464,92.19418
0.50379956,90.90241
0.43213773,86.47913
0.44834876,85.266365
0.35258445,84.04609
0.29659143,80.42737
0.37606925,79.47695
0.40459618,78.042046
0.39141303,73.370895
0.4035776,73.880516
0.35492033,71.951164
0.2756248,73.44182
0.29954293,67.01421
0.25148338,64.64738
0.3279985,66.06691
0.27702683,63.478737
0.31168517,59.8241
0.26795518,63.156277
0.21015303,60.36573
0.11971213,64.382515
0.12569396,64.20148
0.043842748,60.499004
0.050708268,66.53149
0.07486474,66.80185
0.02316152,64.47454
-0.016651921,62.04557
-0.035493206,64.00885
-0.08498486,64.43627
-0.10519983,70.22623
-0.013986694,70.963486
0.056345172,69.40401
-0.010339704,73.1449
0.0726454,80.56278
0.07432601,78.3984
0.23862436,85.04553
0.26968652,88.96578
0.36808595,86.96857
0.41049686,92.93676
0.5381681,94.99407
0.60982555,100.78534
0.6392818,103.94604
0.7496099,104.44462
0.89842093,107.78464
0.9551637,116.50386
1.0152388,114.1743
1.1500033,121.33817
1.1517032,126.99518
1.2158988,128.00801
1.2862118,132.77313
1.3313515,132.44319
1.2700752,136.01677
1.3617363,135.65405
1.3122214,139.18225
1.3252599,138.7083
1.3698037,140.17067
1.3623388,143.69562
1.3749781,146.94409
1.3832165,146.37825
1.4236274,148.69266
1.38979,145.27222
1.3337919,149.34743
1.3354229,146.7401
1.378444,140.2892
1.2820865,143.8405
1.1868192,148.11497
1.267871,147.03893
1.1600056,141.62042
1.2575345,138.81837
1.0938789,138.46983
1.2233794,137.5081
1.1190956,138.10725
1.0410708,137.73274
1.041857,134.73874
1.0226871,133.47386
0.884689,129.66728
0.98460525,126.768234
0.9108495,126.064
0.9226855,122.65777
0.94644916,120.53888
0.9271288,122.42645
0.8848664,120.901695
0.9689999,117.820465
0.923525,114.80093
0.99259335,115.195694
0.8705045,111.364456
0.83078825,110.47005
0.8749151,105.77825
0.9257665,105.35089
0.8061085,105.2286
0.7646307,101.07887
0.75047874,96.3252
0.6758805,97.05934
0.70828164,97.90207
0.61490524,96.023705
0.4637563,92.42855
0.52318543,92.33102
0.54739165,89.05324
0.4941787,89.90077
0.46065843,84.7257
0.49181792,82.87098
0.32915083,80.944534
0.39484495,80.49253
0.41696137,77.06812
0.3783141,72.16538
0.39220655,72.77934
0.42189446,70.558464
0.3941069,67.26217
0.359711,68.182
0.4096431,68.68116
0.36462885,65.34851
0.3944058,62.75152
0.38960704,64.97494
0.3023975,63.161076
0.28350782,62.621464
0.19207948,61.570126
0.2221997,61.100677
0.22600943,60.313103
0.17430343,61.346992
0.14309499,63.063213
0.059677202,65.16293
0.20091748,65.13352
0.1464015,66.44988
0.07367056,63.42253
0.12973082,65.264626
0.15522173,72.79205
0.105136774,73.70276
0.18406805,74.9628
0.2593304,74.933945
0.28291234,79.923584
0.34899846,80.975784
0.5206227,85.33341
0.6281823,94.51664
0.6190646,89.50895
0.7158262,96.740486
0.7868721,100.43595
0.84909093,102.58409
0.9668162,109.00862
1.0828546,106.52751
1.1534173,115.11782
1.259138,120.532005
1.2701919,120.41987
1.3694637,123.79082
1.3712682,126.92537
1.438863,126.680405
1.4753836,132.67764
1.5481802,133.13094
1.6525058,141.17087
1.5644563,140.33928
1.591072,136.13899
1.393807,143.335
1.6184689,137.87492
1.5875653,146.52086
1.5542635,145.46373
1.5949858,145.42104
1.667234,145.77414
1.6216084,146.04807
1.5393981,144.15364
1.5719371,147.00522
1.5414168,145.52182
1.5153561,147.91486
1.5074221,142.09636
1.4392967,144.65974
1.4289777,142.10893
1.4051298,143.86237
1.3491244,138.25969
1.3562974,137.76105
1.3574015,141.94493
1.3780929,132.14128
1.3275924,134.10223
1.2958474,128.44473
1.2692622,127.36314
1.276071,129.21695
1.2208538,125.692314
1.2070842,124.7888
1.2219926,121.32573
1.115128,117.822266
1.2670419,118.16685
1.203732,114.19754
1.2368841,113.50188
1.2270697,115.008644
1.12341,106.10309
1.1282542,107.86734
1.1063752,108.75444
1.0796622,104.449745
1.1306151,104.03928
1.1109713,99.679245
0.96497536,98.86104
0.90691954,96.37584
0.94525427,94.36466
0.91588324,96.109375
0.8782721,87.48821
0.8880841,86.52742
0.8002948,90.56202
0.86400723,86.91329
0.81086975,82.93589
0.61895746,81.26109
0.72685575,77.700455
0.80252707,74.91885
0.7037544,73.51005
0.760667,72.71246
0.7257313,72.746376
0.743381,67.69591
0.69162124,70.09252
0.7310563,71.39124
0.7819032,68.51473
0.76308215,62.929813
0.7232111,63.452618
0.65331095,59.416023
0.6385629,64.12263
0.6546187,60.363075
0.517166,59.369797
0.56748307,62.685074
0.51788676,64.92495
0.4759816,59.762226
0.5316136,63.638874
0.41964746,59.498714
0.46520084,65.737114
0.49611607,68.18296
0.4330034,69.39457
0.46624753,73.01272
0.48647508,68.65465
0.60008216,73.97748
0.5685592,79.22512
0.6058844,80.7974
0.6894585,83.89038
0.8742106,87.75504
0.8370395,91.082855
0.94282806,93.57558
1.107772,94.27074
1.1614553,97.855804
1.2143701,103.09175
1.3239217,105.011406
1.4694184,109.05334
1.5084449,114.009026
1.5884805,115.83749
1.5798222,115.68685
1.6413748,119.81939
1.7380631,125.83139
1.7040896,132.33388
1.8639112,131.85263
1.8473498,132.91306
1.8533505,137.3185
1.8817989,141.0858
1.8938022,143.46465
2.0256052,142.64662
1.8868833,145.42995
1.9271833,142.57353
1.8812596,142.20575
1.8968976,145.13176
1.9249463,149.17142
1.9056777,146.56398
1.8261507,148.00525
1.8821055,142.85846
1.8489488,145.10825
1.8158696,143.98946
1.7632431,144.37286
1.7880604,144.85997
1.7163281,140.54147
1.7500291,142.0286
1.7118248,141.33867
1.5827563,141.03798
1.6031064,135.12201
1.6483536,131.41011
1.5479187,131.02528
1.5082146,129.29941
1.5072821,125.85731
1.4000715,129.36937
1.4522498,125.290344
1.5146369,122.39233
1.4683206,120.165085
1.5327015,119.55517
1.3804862,118.5684
1.4713597,113.54325
1.4500979,109.47747
1.4245356,109.24761
1.4009616,110.73926
1.381773,106.92422
1.4211856,105.96692
1.3790694,102.94664
1.4080939,102.991264
1.2107768,101.12069
1.28485,95.4918
1.1647853,94.43041
1.1616238,93.975075
1.0790406,92.547554
1.0865794,92.35826
0.98365945,85.41121
1.0039773,85.15359
1.0033743,89.048035
0.9613093,82.22794
0.9307629,77.57891
0.93272746,77.16788
0.9741964,77.551
0.9494801,76.42891
0.9235941,67.580154
0.9670029,72.79315
0.89588094,71.405
0.9786226,71.698166
0.87720007,68.422714
0.8719946,64.20587
0.94827765,64.42767
0.8719202,67.31443
0.83319485,61.20278
0.82661086,58.839718
0.7106993,64.431625
0.7170052,61.357418
0.6827684,63.60885
0.67259026,63.155373
0.5755305,63.03512
0.57668656,63.50712
0.5711208,64.86364
0.5830138,68.87065
0.44527975,68.00371
0.61360896,62.9974
0.5848578,68.68864
0.5543319,72.23932
0.6515286,75.592834
0.71343994,75.49821
0.7301636,81.740326
0.8150516,78.70076
0.94496214,91.86612
0.97406787,88.62468
1.0497204,92.50766
1.0920341,93.517044
1.1155573,100.962074
1.3307428,102.22961
1.3460387,101.90912
1.4584895,110.73663
1.5430433,116.72623
1.5894192,117.76441
1.6487808,121.05507
1.6810468,125.05449
1.7531008,127.513214
1.8025664,132.91304
1.8753262,130.72176
1.8702762,135.25116
1.8940333,137.83936
1.9191716,140.29005
1.9151518,137.48468
1.8327254,143.40361
1.9599571,145.62236
1.9245713,145.80768
1.8756212,149.19371
1.9317367,144.5576
1.8852289,146.69095
1.8515341,147.21637
1.8896595,145.47704
1.8320587,144.87572
1.8661517,146.0963
1.7745726,147.61008
1.7766591,146.14977
1.7486588,143.53159
1.6619011,140.90239
1.598926,137.13934
1.6872537,138.51675
1.4893193,137.81755
1.4930086,133.92487
1.4692315,136.28595
1.5158842,133.01836
1.4737512,134.09941
1.4678882,130.36784
1.3979343,128.94525
1.34622,122.77734
1.3703216,122.21877
1.4128549,115.03988
1.4129846,117.269516
1.3892481,118.14507
1.3901135,115.68516
1.3190899,112.809204
1.2810514,111.40708
1.2598293,111.67214
1.2745239,106.76104
1.2341412,103.72231
1.1751738,101.765945
1.1213815,101.81248
1.1044819,98.52128
1.1207265,96.32405
1.01778,97.233505
0.9364203,96.464386
0.9317312,97.1197
0.9627653,89.03395
0.9274503,84.91622
0.77629226,83.897736
0.78677815,85.895226
0.80394405,76.63119
0.7206456,79.67164
0.8350901,82.82847
0.69950515,77.85131
0.791572,73.138
0.75357705,72.90361
0.67887837,76.04528
0.680274,69.231445
0.7446449,68.39829
0.7048072,67.79551
0.76051074,67.370186
0.7217871,63.84658
0.6404726,62.882328
0.6787424,60.349632
0.5740818,64.44249
0.5930449,64.29102
0.46748918,60.02129
0.47764167,62.497192
0.43774238,62.346172
0.40384933,65.14132
0.29892442,68.436905
0.24629226,63.107933
0.29554784,65.28364
0.29010153,66.47385
0.33683372,71.26707
0.35985193,67.75104
0.32491502,73.14114
0.34804225,74.394844
0.40831396,80.11822
0.5144712,81.13433
0.55348676,80.892555
0.5311058,83.19682
0.64735115,88.700455
0.69764864,93.30743
0.798877,97.35134
0.93952495,98.09573
1.1039373,101.26491
1.1184728,104.97059
1.2636328,110.47507
1.2380822,117.29621
1.292824,115.13122
1.4260585,122.57393
1.4253764,123.75201
1.4624952,126.96253
1.5137172,127.62147
1.4751197,132.66959
1.561499,135.96933
1.498268,136.90993
1.5497066,134.021
1.5536146,143.44702
1.598509,143.77203
1.6023538,143.2762
1.4919928,145.31876
1.5768557,145.7897
1.5745144,142.92412
1.5484587,146.2705
1.5322498,147.94046
1.524356,151.65646
1.5221273,145.1746
1.4252195,144.37889
1.4202546,144.8982
1.3615888,142.6048
1.4086571,143.17351
1.3410139,142.52101
1.356345,141.43504
1.2554958,140.37352
1.2659947,135.43298
1.1814464,137.45784
1.2052484,135.17511
1.1045891,130.22899
1.1090258,130.59346
1.0873252,128.34784
1.0786625,125.05772
1.0618283,123.94811
1.1485614,124.28203
1.1094348,120.39421
0.98945576,119.560715
1.0155945,117.9747
1.0065191,114.62795
0.90707064,114.151566
0.87918603,108.55114
0.9688938,104.49642
0.8857973,107.732796
0.91634893,104.34978
0.8127743,104.53085
0.84317935,101.20945
0.8509959,100.90127
0.744576,98.645096
0.6825127,98.54612
0.65952337,95.17728
0.63400894,93.04256
0.5758827,89.66603
0.5912496,88.6808
0.5401904,87.23767
0.48060045,83.407005
0.47851464,85.66249
0.48443425,84.04723
0.47382542,78.07029
0.4349992,74.37853
0.43124363,73.25673
0.39310777,76.78446
0.35636017,68.23823
0.42149878,69.800995
0.3856649,67.96387
0.39759102,64.4134
0.32633707,65.079
0.38040978,64.98934
0.30154952,64.870415
0.32828635,61.553505
0.26184776,62.73886
0.18302645,63.745018
0.20241421,61.80662
0.08938921,60.54629
0.07735724,60.73373
0.12496092,63.222397
-0.040184192,63.386395
-0.054701656,67.01598
-0.017083604,68.03006
-0.08654892,66.04151
-0.09551127,68.260216
0.08260607,68.90798
-0.0024092228,74.93528
0.07551665,76.66507
0.059683897,78.02457
0.20755872,80.30336
0.23583394,83.7504
0.2813391,84.0824
0.37454298,89.25316
0.46534503,95.187546
0.526031,94.25915
0.6787981,101.894455
0.8249289,104.70069
0.8117909,107.73835
0.96420246,115.127014
0.9294863,113.25062
0.998032,117.75658
1.1448745,119.01758
1.1715533,124.41448
1.242638,128.62442
1.333124,130.5565
1.3144207,134.62762
1.3147413,129.8488
1.2560443,133.5454
1.3609155,141.17722
1.3938799,138.85257
1.3737952,145.27428
1.3415761,141.64664
1.3789679,144.95863
1.4054006,142.9827
1.3499459,150.93045
1.2628734,142.6199
1.317519,146.55515
1.2997189,149.09676
1.3150488,146.44135
1.3254759,147.74905
1.2951149,144.75484
1.2230952,142.48637
1.1997492,140.88692
1.139151,141.51733
1.108886,139.30711
1.1342622,136.5307
1.0636778,137.38518
1.0385205,132.28876
1.0517029,132.70381
1.0778327,128.76244
0.9420601,130.35051
0.98182654,129.96548
0.97542197,122.93741
0.913277,126.2168
0.9644208,125.3066
0.82520115,122.03013
0.8451558,121.3286
0.95488364,115.48152
0.807554,114.75325
0.9175898,112.17226
0.8361072,107.8481
0.8052239,108.3537
0.8379618,106.51284
0.7616751,103.27785
0.74525446,105.65355
0.7662811,97.25239
0.7192851,99.11718
0.61628103,97.8378
0.62922335,95.8037
0.59412426,93.281685
0.5587663,91.595024
0.3901835,91.34383
0.42178962,88.222
0.37348127,88.30521
0.42972773,85.20337
0.36496073,83.202126
0.3887812,81.88219
0.28682968,78.27827
0.33562958,77.82085
0.40294132,75.12976
0.38152862,72.23811
0.29361093,68.37962
0.38962427,70.96418
0.44239953,67.336525
0.38017118,65.12509
0.317232,60.91395
0.35573137,62.647892
0.4176532,62.863953
0.25026178,63.732296
0.2548377,56.658154
0.21812393,59.28
0.1718975,63.14291
0.07648865,61.841003
0.068393104,61.480015
0.07059585,62.873657
0.077035725,61.52512
0.026791003,64.269775
0.03615915,66.78872
0.060125213,64.93958
0.0030638017,68.60934
0.017505137,69.09159
0.10948529,70.98146
0.092880584,75.956375
0.1463837,79.9301
0.2571165,79.872185
0.3517138,84.49608
0.36850825,90.592064
0.4428912,92.511925
0.6279152,90.41558
0.6571478,100.84725
0.78194153,97.72138
0.88042444,104.12608
1.0102543,108.490326
1.0601653,109.28969
1.0672683,115.25333
1.1422713,116.524895
1.2936383,114.93002
1.2798127,125.17978
1.3893857,131.2315
1.3894962,128.5411
1.4235786,134.12544
1.4220117,136.71164
1.4441977,139.18025
1.4415736,140.01952
1.4725944,145.38824
1.5549076,139.9939
1.5842844,144.84938
1.5876527,152.6256
1.5239952,148.9933
1.4493846,145.7213
1.4230537,147.48842
1.4705578,145.67056
1.5542979,148.53877
1.5024989,146.86264
1.4525118,143.43832
1.4377867,146.44464
1.400322,146.94472
1.3742497,140.41304
1.3387806,142.02776
1.3575437,139.34117
1.3472481,142.31967
1.2566998,139.02048
1.2365596,136.64572
1.2327818,132.51198
1.1499645,135.25462
1.2486581,131.15208
1.2432418,133.05653
1.2110018,128.56241
1.1134729,122.316414
1.1355386,120.719444
1.1901911,121.715866
1.1340976,117.30894
1.218124,120.821266
1.1226295,116.83922
1.0963356,113.98482
1.020971,112.04789
1.0221107,109.65876
1.0002874,105.30776
1.0599983,106.879326
1.0086311,103.6261
1.0209142,105.523094
0.9809745,99.94967
0.8660962,99.10906
0.8161136,96.73215
0.7754586,97.471725
0.7998148,92.10112
0.7916107,89.42653
0.71236986,89.14686
0.6638603,82.31925
0.61177266,84.46643
0.69765764,78.99911
0.6863421,83.663055
0.6332039,78.67001
0.64133584,75.81488
0.59428054,76.06096
0.6201832,73.84692
0.5907288,66.751656
0.62530094,67.70515
0.711816,70.00442
0.61424327,64.71252
0.6945183,65.65841
0.6526509,63.468185
0.6363749,61.107803
0.6438954,61.37387
0.6160255,66.14552
0.4800093,61.639256
0.5196042,60.57141
0.5308062,60.657112
0.42911926,64.190575
0.38254046,63.034454
0.32646728,66.46623
0.34553728,62.768368
0.3466824,63.50753
0.28434867,63.388813
0.36696184,72.40831
0.34633115,73.3767
0.41176036,73.79602
0.42573833,76.05866
0.48072174,79.612434
0.5764122,84.10929
0.655652,83.14224
0.7043613,88.76942
0.7858399,90.86987
0.92956406,93.84697
0.9464798,98.43639
1.0384879,99.324974
1.2362113,105.16388
1.3005877,107.7152
1.3935288,108.50041
1.4420271,113.19929
1.5240121,119.06136
1.5951749,122.95746
1.6903852,123.89933
1.6630819,125.218605
1.686608,130.22322
1.8501136,131.11328
1.7726768,133.91591
1.8833522,136.91034
1.7977333,138.81494
1.8251363,141.9955
1.8052547,142.08568
1.7578951,145.89296
1.8204885,143.75708
1.8538469,146.29366
1.881184,147.6647
1.8538018,146.04579
1.8156265,146.17957
1.8242186,144.98354
1.7538803,149.04146
1.7721376,143.99544
1.7503656,139.91225
1.7944901,149.432
1.7161349,141.26431
1.7165661,140.22325
1.6332829,140.49892
1.662018,139.20705
1.6099173,137.45589
1.5854149,135.64447
1.6169425,134.60884
1.486541,132.27852
1.4956632,128.85359
1.4215152,126.59066
1.4974875,126.626884
1.4526117,125.56748
1.4218465,123.91332
1.4126403,120.593124
1.419155,117.453
1.415322,117.92072
1.4827085,117.18643
1.480724,112.27892
1.4496531,114.064125
1.4192979,106.33043
1.3226675,108.71119
1.2755795,103.140755
1.3678793,101.516815
1.2510189,102.24458
1.2084662,99.94497
1.1150953,95.614044
1.1219879,95.23858
1.162496,93.75674
1.0426241,91.470085
0.9793082,86.45102
0.974753,86.093605
0.8885612,88.7424
0.9817364,85.76253
0.8985127,80.706894
0.96708274,80.39599
0.9435454,75.45477
0.8733475,75.34058
0.93153995,77.67935
0.93827426,72.598404
0.9141239,74.19766
0.94238335,67.51961
0.9714636,71.45139
0.9390935,66.65571
0.9244447,65.64294
0.84601325,65.26563
0.9173785,65.48869
0.7741638,60.735115
0.8345799,59.166462
0.78258204,60.670307
0.7972092,62.54409
0.6940909,65.06024
0.67837816,60.716633
0.60632443,66.069405
0.5389487,63.795193
0.5411092,63.626125
0.53894275,70.28118
0.54136467,68.239265
0.5223511,72.7003
0.5739397,71.39886
0.4904566,72.814606
0.60132045,77.52898
0.708383,78.651115
0.8179391,82.88062
0.9063612,88.12837
0.9373453,91.61699
0.99825233,87.45975
1.0799363,95.562744
1.2768546,97.59144
1.2804503,101.24919
1.3957367,106.60242
1.4227194,107.748146
1.5952628,112.783035
1.567629,115.28685
1.627455,121.171234
1.704129,122.619385
1.7723963,123.012344
1.7931199,124.23799
1.8524257,128.53322
1.846921,134.64291
1.9043969,130.88489
1.8662374,137.52763
1.9337921,141.76991
1.9468185,141.36937
1.9409705,143.86003
1.9067155,146.37697
1.8897128,146.56712
1.8898084,145.64226
1.9084572,146.08565
1.8771669,150.87762
1.9107269,145.19568
1.8846604,148.74094
1.8546916,147.92046
1.9149208,145.37091
1.8413204,145.19835
1.8118902,144.10295
1.7938733,140.29367
1.6842597,142.06598
1.7338868,140.73276
1.6924282,139.8891
1.5680017,134.91617
1.5833924,130.25888
1.5345511,133.22284
1.5695045,133.11147
1.5382856,128.39938
1.4481649,128.06311
1.4543056,123.67594
1.4532515,123.822044
1.4161874,123.521996
1.4599581,115.652824
1.332048,117.87762
1.4189088,116.89577
1.3828353,114.94249
1.3907722,111.69191
1.3787898,107.10293
1.3328995,111.068634
1.3745646,106.33786
1.3089381,111.39
1.1845448,101.218704
1.1476017,97.56133
1.1603239,104.192314
1.1221415,100.44061
1.0626345,97.94097
1.0286835,96.630135
0.95644313,90.56802
0.96471566,89.11773
0.99646825,89.54809
0.9157441,88.1675
0.8566338,83.6933
0.84288794,81.76924
0.80630594,79.04827
0.82000405,84.176094
0.88444716,75.0087
0.81255364,72.3483
0.7592864,70.60483
0.8354519,73.37301
0.83359194,74.36404
0.76002854,72.88801
0.7181704,65.994896
0.7356753,68.25451
0.7458803,66.68099
0.7467552,59.294514
0.64433897,60.78701
0.72133213,60.97982
0.65382016,61.951824
0.55367094,59.30751
0.5344227,60.562233
0.5350368,63.177658
0.49359608,62.978256
0.4585681,64.38393
0.48521686,63.857834
0.37161955,67.110085
0.42522573,72.60162
0.3363234,63.117126
0.43335748,69.99845
0.4508125,74.60549
0.5096973,74.48048
0.52975637,80.81195
0.53593755,80.47774
0.6768828,83.73488
0.7761255,91.153946
0.8013149,86.93226
0.9053302,90.29723
0.96423125,101.67426
1.0970582,101.57069
1.03765,104.85405
1.2491847,103.90226
1.3547091,110.26088
1.3945706,114.57454
1.454377,116.39071
1.5305057,122.14976
1.5344405,126.62006
1.5405982,125.79326
1.6550663,132.93483
1.6301757,135.3592
1.6295968,136.54427
1.6186534,142.90608
1.8011373,139.92287
1.7140672,141.76794
1.7122158,140.54823
1.6961362,144.4676
1.6888068,144.25058
1.6818823,145.98634
1.6522347,144.59708
1.6737288,148.10153
1.6961969,145.60837
1.5845083,146.61497
1.5244318,146.456
1.5534244,147.81805
1.4912088,144.09044
1.4753127,143.79204
1.4801302,138.32661
1.4638838,136.14732
1.4784554,141.03522
1.427146,141.13036
1.2978524,136.14926
1.3169161,137.21613
1.2174726,133.30043
1.1731255,134.96286
1.2644757,130.9344
1.2219523,129.6526
1.1251523,127.06324
1.122278,126.148285
1.1182289,123.11318
1.1413516,115.65721
1.0607468,118.91369
1.107073,114.815445
1.06954,117.3143
1.0176425,110.98212
1.0784296,110.939445
1.0300502,110.32383
1.0004786,103.77539
0.9632369,105.91999
0.9771342,104.683044
0.9279721,100.382095
0.8331336,99.71761
0.76893324,97.113655
0.80409914,94.38078
0.6782748,90.03883
0.7538329,91.19683
0.6512193,87.71737
0.6420522,85.48055
0.55292267,84.82264
0.5484492,87.81365
0.53703076,80.88799
0.49909055,81.887184
0.48549935,79.10865
0.41794086,77.002426
0.49977842,73.43191
0.4514286,71.14503
0.44837728,70.69586
0.43017608,67.73744
0.3907555,66.77155
0.41558886,65.70358
0.46137542,63.49298
0.38619247,65.30899
0.36404648,62.567455
0.3494388,63.216976
0.23967703,61.164825
0.30523077,58.110485
0.3244675,62.11143
0.15307927,55.972984
0.22902524,63.110256
0.11533339,62.20594
0.11123775,65.87853
0.13202222,66.31578
-0.022748088,65.833435
0.07592151,71.48415
0.04531987,70.364204
0.12368807,68.54081
0.10084676,73.888916
0.122250356,77.10446
0.20487933,85.218506
0.3022723,84.85457
0.30899635,84.3841
0.48379904,84.5245
0.42510054,92.61072
0.5894561,93.50628
0.64781225,97.39445
0.72311234,103.217896
0.82664853,104.80543
0.8630874,108.92883
0.97335094,112.09073
1.0846872,112.380135
1.1158183,119.67068
1.1763259,120.62379
1.2587415,126.54568
1.2351106,127.92518
1.209284,128.39362
1.4056978,130.98918
1.340822,137.54172
1.3970306,139.36449
1.3359079,137.75854
1.3663943,141.35725
1.3719699,143.66623
1.4315985,141.96805
1.3580452,142.95683
1.457871,144.88274
1.4265434,148.22292
1.4098685,146.966
1.3498693,144.4589
1.3292814,146.07982
1.2814187,145.88101
1.3226858,146.6542
1.1942939,146.66978
1.2559875,145.11258
1.2184168,142.11154
1.1352943,140.50302
1.1451839,137.26372
1.0534072,139.1125
1.0649198,138.79305
1.0779237,135.60318
0.9427013,133.52296
1.0034734,131.20578
1.0587106,129.59674
1.033382,125.03013
0.9834556,122.93796
0.9443024,121.82727
0.92626435,121.863914
0.9635864,122.29135
0.8933487,121.121025
0.8396811,114.99129
0.83393294,116.02324
0.7942818,114.56535
0.9082779,108.00785
0.797903,102.76475
0.7323104,105.179665
0.7701456,103.27434
0.6559449,105.04376
0.7290673,100.40611
0.6121406,99.61778
0.56599903,98.80833
0.60007787,98.03909
0.5925529,96.437706
0.48918483,92.67068
0.45863304,87.9661
0.4556769,83.90749
0.3998069,86.1345
0.3474275,85.37282
0.41148973,82.559235
0.2911026,78.17189
0.34609267,79.52563
0.32530376,71.88128
0.3229965,78.63329
0.3373108,73.86066
0.45256647,71.92558
0.29040024,69.11283
0.27391705,70.874016
0.26800027,64.98351
0.31903034,65.69286
0.18197985,60.028366
0.28370562,62.21796
0.20780629,61.42117
0.16088673,59.137714
0.22391115,66.463
0.12749848,60.720276
0.056320604,61.33674
0.052550968,59.829266
0.03247693,62.098225
3.6298108e-05,64.70434
0.05232306,66.201004
0.004625923,65.751976
0.045139365,68.83322
-0.07314225,69.161804
-0.051850624,72.11741
-0.005801508,77.58846
0.052643973,71.982956
0.13263026,79.18355
0.22109264,83.18853
0.3342283,85.039696
0.3441413,92.02403
0.4834052,92.8148
0.5554796,94.48252
0.58861756,98.24216
0.69264996,102.7753
0.7545509,108.47366
0.951211,110.80357
0.97581303,115.111275
1.0300837,117.86615
1.1270697,120.74984
1.2242656,122.725395
1.1419061,127.66808
1.2805108,130.83098
1.3857567,131.59984
1.3082371,133.06848
1.3695408,133.58757
1.4635792,137.44908
1.4451922,139.59715
1.4737996,141.58545
1.393783,146.48705
1.5365499,148.7626
1.4912385,147.18658
1.4316357,153.26587
1.4223132,145.72672
1.4867487,146.80067
1.394652,147.0401
1.3667138,145.75972
1.398915,145.26396
1.334794,144.9028
1.4039884,148.32718
1.3400729,144.05307
1.2967968,141.42197
1.2899182,142.54234
1.2781683,139.31471
1.1616218,139.42152
1.1653776,137.41275
1.1512272,136.01547
1.1457798,135.03008
1.0656643,134.38019
1.023997,128.4733
1.1315206,125.485504
1.0120313,126.24038
1.0424457,125.99006
1.0327461,125.67385
1.0885696,116.45639
1.048416,116.69446
1.0731431,116.642136
1.1003414,119.90374
1.0193734,112.694
0.9913186,112.44986
0.9961623,109.16606
0.9607625,105.52165
0.9698476,104.329155
0.8982963,102.01178
0.78077716,105.35445
0.87468934,100.00033
0.72634643,96.76691
0.7464593,97.278534
0.7205623,93.46512
0.67956203,94.046844
0.67261785,89.95104
0.6361653,87.082794
0.6021744,84.656784
0.61911565,83.861374
0.577264,81.83505
0.5694008,79.19025
0.549454,78.20081
0.5889741,77.75629
0.54189,77.096725
0.6161674,70.87781
0.5783211,70.88648
0.6083748,71.559906
0.52086866,68.04873
0.62795484,66.064606
0.5204461,65.585144
0.4613044,62.044888
0.4921742,61.35574
0.459346,60.424007
0.46105337,62.709393
0.4172611,64.21512
0.3786858,65.05806
0.38770562,57.898003
0.2867848,63.3937
0.29123315,60.8862
0.26938444,63.010807
0.22562684,66.16905
0.16890427,64.44522
0.25593895,68.30344
0.1737276,70.432175
0.33262795,72.548294
0.32747334,73.26603
0.377732,76.89329
0.4366781,78.23952
0.41673657,80.316795
0.5769807,81.812744
0.6095346,87.26909
0.7425894,94.27548
0.825703,94.16602
0.8804204,94.528656
1.0420697,105.65205
1.0958983,106.41775
1.2531153,104.163765
1.2470608,105.548134
1.4199697,118.49796
1.5257673,120.68477
1.4084162,120.28234
1.5986449,126.089195
1.6387982,127.17622
1.6212318,131.4236
1.7078235,138.5664
1.6503711,133.7918
1.754388,138.98933
1.7275182,141.41737
1.7203077,139.65025
1.8178196,141.42099
1.7044909,150.19713
1.7336655,144.5617
1.7706827,147.49953
1.6828524,146.05849
1.7461152,145.43
1.7481552,145.40477
1.7082632,144.19824
1.7410026,145.93814
1.6943662,143.8294
1.7042887,140.40616
1.6544023,140.25691
1.5922487,142.69086
1.5642347,140.68767
1.5688913,142.46297
1.5289845,142.73303
1.4738214,139.53075
1.3949751,134.07712
1.4698893,135.53282
1.4128767,133.34988
1.4695967,131.25682
1.4126163,127.95353
1.3811867,129.56087
1.3980714,124.72504
1.4354745,119.23696
1.4020355,119.32767
1.3840407,115.765686
1.3741754,117.86765
1.4398398,116.86519
1.3198512,114.29917
1.342393,108.19795
1.3195349,110.44846
1.3216789,109.950165
1.2430819,107.09813
1.2322259,99.447784
1.2129171,105.60279
1.1371268,95.417076
1.1547073,97.67451
1.0184774,94.48837
0.9747568,90.63609
1.0453529,88.1009
0.9504704,88.77331
0.9637778,86.52003
0.8660325,86.17333
0.8897315,83.60426
0.83830833,83.42184
0.903085,79.99494
0.87290776,77.88904
0.8354629,77.62291
0.88865685,77.70842
0.9166195,73.57191
0.92023504,73.71051
0.82148296,68.61917
0.89801913,65.011086
0.858828,64.54274
0.8802213,67.5186
0.76057446,60.50973
0.8198241,64.3178
0.89240766,62.11133
0.7586958,61.858856
0.6864634,59.987904
0.72869843,61.657722
0.7005212,62.33476
0.61217535,64.826996
0.56250274,63.814068
0.5248428,65.10382
0.54719514,66.38336
0.50699276,67.753914
0.56657475,65.65665
0.56835216,69.83247
0.6038722,75.30241
0.58336204,74.1776
0.61432636,74.4958
0.6584579,80.32037
0.7543987,81.86991
0.85324657,87.17758
0.93115836,85.09129
1.0572144,96.11381
1.0662415,93.91424
1.2703923,100.143456
1.2565967,100.362755
1.3883554,105.12512
1.485329,109.62582
1.5862743,111.006424
1.6139411,112.87791
1.7244797,122.29101
1.7437336,122.63055
1.7692808,123.78265
1.8570337,130.88708
1.8454319,129.89911
1.9030244,131.60995
1.9249259,139.16982
2.0099907,140.23427
1.9597,138.83589
1.9539685,141.084
1.9541092,142.78967
2.0077977,146.22823
1.9860929,147.82825
1.9218972,147.60072
2.0051167,148.95244
1.9883113,145.59706
1.8579826,144.17406
1.8529633,151.12802
1.8298674,145.36453
1.9162838,143.62057
1.777451,143.46037
1.8010386,141.59346
1.766238,142.00206
1.765496,140.62434
1.702141,141.08102
1.6839416,140.9859
1.6494398,139.39073
1.6998806,138.57875
1.5848869,129.92975
1.6077929,129.23175
1.5559505,129.08344
1.5763205,124.86758
1.5036085,125.53131
1.5166615,125.0392
1.513391,122.93401
1.4951142,119.61763
1.4546969,121.425125
1.3698732,120.15143
1.4006958,115.669365
1.4922496,111.05765
1.396296,109.32966
1.3773012,106.37277
1.323015,104.716286
1.2649,107.27515
1.2775674,103.957825
1.2930174,101.932205
1.177718,95.97069
1.218942,94.492676
1.0344142,95.745834
1.0549618,90.19595
1.0607448,94.349884
0.9903102,85.71382
0.9955907,87.82643
1.0159038,81.525215
0.91416895,78.48747
0.9480267,81.57219
0.9275117,77.39571
0.91484004,75.60614
0.8731047,77.372444
0.9067744,75.60824
0.8533274,69.02122
0.86238015,69.59521
0.93506485,70.42959
0.84101987,65.439384
0.818397,63.465103
0.8125831,67.26147
0.79977196,65.86783
0.7673221,63.245136
0.7592183,63.619957
0.7306034,63.431057
0.755631,62.043247
0.5683336,60.49368
0.57948697,65.50674
0.5950029,63.304356
0.44658035,64.119705
0.51638347,61.01994
0.50620985,64.094154
0.47538826,69.62605
0.49801093,71.00446
0.5264676,67.95251
0.50723916,74.525
0.64999527,72.46338
0.51550055,79.42769
0.54245675,79.27151
0.656148,84.522285
0.74900216,84.50268
0.82890147,89.28916
0.9769829,90.98643
0.9873031,99.2033
1.0574753,96.974266
1.2064227,100.1561
1.2434916,103.21379
1.4564631,110.25836
1.4492877,112.503044
1.4776597,119.360405
1.4961336,114.85341
1.6652431,125.8335
1.6613473,121.9953
1.6601754,126.67311
1.7148106,130.29044
1.6992565,134.54607
1.7737744,132.57446
1.7207154,139.54643
1.7731647,140.35359
1.8001626,143.94806
1.8079623,141.34254
1.7706032,144.67291
1.7681597,144.68513
1.7621979,146.14336
1.8014971,144.33174
1.6877017,147.47913
1.7007265,148.28214
1.6874875,141.57169
1.6509976,147.81067
1.6629027,148.3675
1.6080737,144.50572
1.6170772,146.15158
1.5871134,143.74512
1.575696,135.55833
1.4392705,140.8852
1.4872037,135.82355
1.4109929,134.57906
1.4045548,131.39075
1.4341425,134.5429
1.2915714,130.3594
1.3426423,128.10666
1.2603437,129.51346
1.2389054,124.75356
1.2704241,120.21874
1.2743633,123.44371
1.2548236,117.26673
1.2444563,118.869255
1.2724165,118.68272
1.2472106,113.27374
1.1742728,110.38095
1.1393507,108.73138
1.1690897,108.44945
1.0266088,107.72327
1.1021209,106.70006
1.0541855,101.2521
1.0170422,100.73118
0.95556086,96.40074
0.84788597,93.10152
0.8350961,94.4101
0.7417299,91.31239
0.7073504,87.37278
0.69540685,88.91141
0.7450818,87.14131
0.61496985,88.69607
0.5945419,82.14214
0.5436358,80.16531
0.57416,78.62829
0.5460594,81.346275
0.5671919,77.00524
0.5575212,71.75511
0.6012458,67.5876
0.4991738,70.410255
0.56036454,72.56548
0.5846491,69.986336
0.4992647,67.57694
0.488902,62.44115
0.49862534,64.88785
0.49537128,64.04446
0.49654636,66.15219
0.36932534,60.065975
0.39435813,64.73731
0.31853938,65.1553
0.29433846,61.526817
0.16813092,66.52041
0.13596886,64.332756
0.22295976,64.52305
0.13158834,66.35551
0.111188725,68.70454
0.120201744,68.97776
0.18556064,71.11584
0.086812645,74.37652
0.18548413,72.66094
0.2422706,73.415306
0.29862812,78.52573
0.33660603,84.23796
0.45679173,86.37054
0.48533806,87.74503
0.6167663,90.67338
0.7284823,96.816216
0.7021206,101.003334
0.90826494,101.703964
0.9862999,113.359505
1.0404863,111.9448
1.1344249,116.03119
1.1292512,115.42254
1.2834927,119.38388
1.2425821,125.44737
1.2465515,126.72318
1.3439158,131.44154
1.3602705,128.6621
1.4829469,136.44896
1.3948102,138.24886
1.407421,139.3193
1.4292951,145.43266
1.4705424,139.83496
1.4963119,142.6967
1.4632883,141.6723
1.387184,147.84103
1.3941654,148.37906
1.3451238,143.20584
1.3910291,150.78285
1.3238404,147.33727
1.465881,148.35162
1.347202,144.76463
1.3164378,146.02905
1.3684078,148.85588
1.2766912,140.64108
1.2457129,145.42278
1.1611897,137.82246
1.1828347,140.9771
1.0948788,141.42947
1.0498115,133.69534
1.0468417,133.96182
1.075893,135.08954
0.9864606,131.17743
0.99722195,126.83008
0.9336719,125.34607
0.91888684,126.32714
0.9174057,118.50768
0.9165843,120.704315
0.9459502,118.586296
0.92013156,117.17985
0.9097344,113.804306
0.845829,113.52425
0.88293254,110.27873
0.87886304,109.44745
0.8560185,104.13085
0.77092177,104.5167
0.7995656,102.97203
0.66040534,108.27377
0.68280375,99.9818
0.6373844,98.48933
0.58863425,98.1367
0.64407605,91.72686
0.541183,94.056725
0.53761816,94.01626
0.47270402,86.71669
0.455609,90.81828
0.4146558,83.85221
0.3851288,81.704735
0.31922373,77.76447
0.33193204,80.2436
0.33648655,78.77822
0.3331651,72.69007
0.29478323,71.38779
0.3382681,72.45336
0.33902642,71.462395
0.35160902,71.12991
0.29678994,69.92201
0.33955532,67.36751
0.31031874,62.404266
0.36248788,67.358086
0.2760412,62.111034
0.23157035,61.692265
0.10770301,60.55151
0.15087572,64.07576
0.07256284,61.990437
0.103793815,63.276024
0.010781762,61.492596
-0.023867562,62.831448
-0.005351634,66.02839
0.008152418,64.151344
-0.03887269,64.6942
-0.007736141,68.27159
0.024782823,70.445946
-0.016222756,70.08026
-0.027978169,74.25409
0.09936196,79.18094
0.10534513,79.93143
0.1722747,76.45147
0.28022787,85.73581
0.32613343,92.547554
0.46831244,94.47975
0.5655604,96.6713
0.63945377,99.11661
0.74214023,97.81011
0.8076552,106.220856
0.96280193,107.206375
0.8667379,113.18765
1.0602071,119.39067
1.040587,120.48393
1.2014667,124.900566
1.130019,125.83007
1.245454,131.11176
1.2813349,133.10971
1.4301305,132.998
1.411484,134.17471
1.354224,137.16765
1.4585959,141.50749
1.3295679,145.64897
1.2884185,147.24698
1.402244,144.69269
1.3717502,147.06743
1.3961059,144.27019
1.3305905,146.42657
1.4395974,148.8965
1.3237215,149.74678
1.2894356,146.91571
1.4438486,144.35883
1.2803233,144.82848
1.2888459,140.3054
1.2392632,145.28523
1.2475994,139.83719
1.1857483,143.42242
1.2197675,139.40953
1.09293,137.38461
1.0677898,139.71246
1.0771118,134.669
1.1213131,131.1682
0.96166295,130.87335
1.0120796,125.85821
1.0593501,131.86948
0.9614459,124.81924
1.0377048,124.31723
0.95937085,119.00751
0.9667497,120.810265
0.9467648,113.51285
0.97863436,115.438644
1.0157719,114.62912
0.9712157,109.117134
0.8445947,108.108826
0.8432378,111.608604
0.8508615,106.75245
0.8670287,105.529045
0.74366885,101.26783
0.75822365,97.447174
0.7360736,96.04372
0.68116194,97.528336
0.63297296,94.512695
0.615278,89.89523
0.4922415,88.8328
0.5872101,83.938324
0.4325434,87.771126
0.52875984,85.85143
0.4785047,82.14359
0.43414387,80.85261
0.4465094,77.8472
0.4401402,76.05779
0.39210472,77.16904
0.39572453,72.88158
0.39541575,73.0466
0.4487141,71.81071
0.4570099,65.49721
0.42700297,64.77811
0.49217364,63.726215
0.44506687,64.69766
0.43129808,65.05776
0.35222387,65.10239
0.35786292,64.455894
0.34172735,63.907818
0.357414,66.246796
0.22410884,61.760914
0.24878542,62.180138
0.18900114,64.89683
0.25429788,60.537823
0.14926904,62.904617
0.12521695,64.93925
0.17683616,66.41491
0.15512434,65.69401
0.13238215,66.50294
0.25222874,73.17219
0.34156406,75.03759
0.23162253,78.17513
0.40276137,78.97959
0.42857257,84.16733
0.56668353,85.471985
0.6396586,88.11648
0.72953975,95.580055
0.7876217,97.186935
0.869869,101.585915
1.1202999,103.01528
1.051005,106.39383
1.1998823,112.86614
1.2344023,115.39466
1.3537964,117.998024
1.3458787,120.282646
1.4295214,121.32834
1.4945117,127.33144
1.4490253,125.6661
1.6435653,131.20691
1.5552423,134.82465
1.5837418,140.60307
1.6474484,134.73515
1.669513,139.90689
1.6813647,141.90082
1.7254905,142.13683
1.6485302,142.20851
1.728328,145.25238
1.6738247,145.87582
1.635318,143.40889
1.6386936,151.00565
1.6456482,144.32904
1.5801417,147.97836
1.6181527,145.23807
1.5267644,145.0062
1.577838,143.61235
1.6046692,144.05554
1.4677956,143.94286
1.4389044,142.7771
1.4090879,136.75296
1.4747373,135.13426
1.4486485,135.8307
1.4018276,135.52408
1.3431805,133.87616
1.3173301,130.09058
1.314271,127.49464
1.3536276,123.67766
1.28334,128.5733
1.3233681,125.26163
1.1789117,123.07036
1.3016336,121.89494
1.2353127,115.65058
1.2924031,114.86346
1.3337122,110.01915
1.2518116,112.74407
1.2345046,104.99105
1.2172015,108.913284
1.1681504,107.09899
1.1813256,104.07022
1.1163424,102.917564
1.1707594,103.55338
1.1321633,94.78021
0.95291233,98.33261
1.0652308,96.28354
0.97332674,94.34514
0.9217884,88.776306
0.89525616,89.45975
0.92181176,86.09001
0.8564013,86.24662
0.8166277,84.547676
0.8285501,80.8843
0.7554507,76.13336
0.7214117,75.38675
0.81460816,79.99609
0.8077566,76.16237
0.8135101,73.99533
0.8737523,72.253006
0.7598789,71.21725
0.8006315,68.58457
0.7752384,67.004425
0.7604886,63.03528
0.7821258,62.18747
0.66917473,62.177574
0.74722826,62.33993
0.6151645,61.929096
0.7500497,61.520405
0.6792291,62.38227
0.55397654,61.97673
0.5580173,61.728
0.53275025,60.61368
0.4474058,66.981804
0.46280658,64.2328
0.4658033,69.11308
0.50915277,67.15466
0.5124777,72.89031
0.4747993,71.06311
0.57220834,71.67695
0.6783336,73.60683
0.6465751,81.497795
0.7080693,83.968994
0.8362188,85.14681
0.91020155,87.929184
1.0867617,93.22599
1.1185093,95.96898
1.2000498,98.187485
1.1881998,105.49529
1.3640726,110.22975
1.4913049,111.0897
1.5065018,114.52918
1.5722656,117.877075
1.6224024,119.3794
1.7047971,126.159706
1.7950132,126.106766
1.9044298,128.68785
1.9010196,133.85439
1.888143,135.63808
1.8953925,136.93188
1.9316136,144.2714
1.9007614,137.44772
1.9271594,139.13126
1.9950565,143.4688
1.9311259,141.1211
1.9209152,147.86867
1.9262692,146.57059
1.9193642,148.94267
1.9570613,144.75876
1.9512192,146.23769
1.9054796,144.47641
1.8718703,146.17006
1.8276665,146.64261
1.8235557,148.33618
1.7273165,145.00627
1.7979422,144.4097
1.7876679,140.95288
1.7217722,141.1014
1.6297896,138.95604
1.7110939,138.88675
1.6750146,131.58228
1.609692,131.01538
1.5851783,132.062
1.56429,126.71933
1.5479981,128.81186
1.5178404,125.269615
1.5192249,123.60266
1.5027443,122.97048
1.5252917,119.76936
1.4936122,112.41876
1.4213748,119.00268
1.5183874,111.9067
1.3936014,109.502106
1.4818772,107.43186
1.337716,108.2226
1.3137691,105.34916
1.4943079,99.116425
1.2918923,99.5091
1.2726969,98.68539
1.2879014,96.32723
1.1690894,99.43547
1.1452566,95.29361
1.0487745,94.212776
1.0569284,89.48119
0.99258995,87.69364
0.94404465,85.097466
0.9398161,84.07769
1.0007881,84.45328
0.984285,84.85898
0.90291643,78.96233
1.0102075,77.53347
0.974271,76.203804
0.89339274,73.69592
0.9241874,68.20057
0.9049266,71.548676
0.8648594,70.18935
0.9326202,67.47918
0.8983823,64.97416
0.88256246,64.454124
0.8346063,61.56544
0.80793154,63.770203
0.73392427,63.97626
0.79392505,65.291145
0.67262733,61.596268
0.73325336,63.812115
0.6148235,61.886986
0.61846066,58.537914
0.57391053,64.06914
0.5275495,65.198204
0.51742554,64.806694
0.4942001,64.61369
0.536771,67.02738
0.5567624,73.99373
0.55508894,72.88348
0.61640614,75.723206
0.6180425,78.19124
0.682551,80.43908
0.725291,86.24598
0.848523,87.530846
0.9081462,88.268555
0.99165887,96.28181
1.0954642,99.56947
1.174393,104.86508
1.2508932,104.59832
1.4154696,106.88192
1.4426296,113.677795
1.4678284,114.702774
1.614289,115.18505
1.6954585,119.68724
1.5918677,124.41956
1.7398325,125.86685
1.7650065,128.60207
1.7899591,129.1807
1.8310785,136.43735
1.8009564,139.01842
1.8279971,140.64703
1.8753139,143.06111
1.8430147,144.06396
1.8418239,141.88095
1.92205,144.9347
1.9166505,145.21121
1.816272,147.08482
1.8076719,145.65091
1.8827579,145.04565
1.8041602,150.32349
1.7780552,146.70187
1.7757306,143.09166
1.7279795,148.32294
1.6831611,144.82742
1.6821725,144.54774
1.6002783,141.56314
1.5594671,145.50084
1.5611176,137.65717
1.4813699,133.01936
1.5094053,138.51756
1.4716854,133.64348
1.4600921,132.3115
1.4166831,127.29012
1.3763931,128.42462
1.3755634,126.89243
1.3773155,122.55178
1.3455752,125.46971
1.3223165,119.46369
1.3220214,120.14705
1.3037988,119.66026
1.3217964,117.940285
1.314522,109.7035
1.2573249,112.08221
1.166609,110.628784
1.2352675,110.204025
1.1916691,106.88469
1.1453767,103.28432
1.100138,103.198265
1.0587149,100.115944
0.95123667,94.25056
0.9425485,97.11109
0.9568108,94.985954
0.88539064,91.87557
0.86839837,90.072136
0.8679406,85.11372
0.8097717,82.644966
0.732186,83.975
0.6810063,82.215904
0.745493,79.56604
0.72497314,75.480194
0.70405006,75.82777
0.61893195,80.397736
0.6007373,74.683975
0.69325876,72.56739
0.6317279,70.93436
0.5653145,70.56651
0.631925,69.24797
0.64961076,65.26377
0.6023519,63.190002
0.6160149,62.500397
0.61676127,64.14604
0.45279774,63.670807
0.42955628,61.25942
0.3873594,62.604115
0.3917819,64.69208
0.34928498,57.817753
0.29389557,62.207523
0.25493145,62.655544
0.27688065,62.026115
0.21892682,66.119026
0.22979346,67.277405
0.18454501,66.66347
0.18673734,69.198654
0.24091992,68.49193
0.28229785,76.278534
0.24051602,77.439476
0.31643164,80.438614
0.4924713,80.60129
0.53914875,81.95891
0.6385117,87.94769
0.7776059,96.158195
0.77069676,95.10207
0.86296874,99.478516
0.9352591,105.04261
0.96581286,106.31114
1.0942794,111.465034
1.2598938,117.8416
1.2339258,112.89552
1.3671739,119.131256
1.3110589,125.549065
1.4010679,124.95001
1.4276903,130.56708
1.5190411,132.00732
1.4924389,138.55821
1.4735346,139.42255
1.4934258,142.70842
1.5038257,140.3775
1.5191822,144.22896
1.5722001,144.98589
1.4580444,144.33427
1.578825,141.87633
1.5413136,147.26613
1.5154752,148.17717
1.5497632,144.13882
1.5181897,147.19174
1.3779048,146.11
1.4343827,147.43253
1.3352733,143.6093
1.292149,145.0755
1.3009608,141.89584
1.2476716,141.18341
1.2854838,141.40552
1.2227305,137.58134
1.16409,139.15482
1.1291193,134.90851
1.1059166,136.29077
1.1312202,132.33656
1.0816512,131.84479
1.0883013,126.37489
0.9684778,128.73619
0.9995705,122.119736
1.0694786,122.359474
0.98963606,121.22205
0.93965036,117.73576
0.9538221,117.779755
1.0251367,112.50102
0.9661619,112.058395
0.9842347,113.71911
0.9338423,107.38608
0.8738365,104.94732
0.8511964,104.85222
0.81974244,104.21363
0.7217931,100.3791
0.6932285,99.82526
0.6993407,95.54738
0.6411367,95.5375
0.5904608,94.16255
0.5590836,94.139824
0.53017485,92.40583
0.5797207,87.462814
0.441739,89.93533
0.41103673,86.02815
0.4161767,80.952255
0.3320981,81.63313
0.3704413,79.084755
0.352228,76.49684
0.33250448,74.50072
0.40561,71.55132
0.36406657,72.56472
0.36212602,69.93408
0.32922867,67.55182
0.4192739,67.08499
0.3667993,63.913387
0.30673644,60.79869
0.25580028,62.569366
0.33266762,61.87112
0.23765114,63.624054
0.22510177,63.2049
0.193769,60.1401
0.031101309,63.950005
0.06731792,57.68193
0.051166173,62.267136
-0.010128237,59.805305
0.057540342,58.037178
-0.041983813,62.563293
-0.058854893,62.808506
-0.10421633,68.88818
-0.06904207,75.097755
0.04000549,72.53892
0.04033082,74.47914
0.10749814,76.04968
0.10632851,79.94796
0.23279743,82.25763
0.28440186,85.452354
0.47968003,90.28477
0.41731715,96.02923
0.5781283,96.41533
0.7488682,100.08011
0.7443004,106.962425
0.8072046,107.51567
0.89116836,113.3891
1.0116227,113.78697
0.99515325,116.73773
1.0902663,119.75235
1.1650015,120.201256
1.0986825,128.3437
1.2742835,129.2675
1.3333906,133.38933
1.3345841,132.52333
1.2604078,141.05193
1.2961453,141.84573
1.4005686,143.23085
1.3431758,142.40073
1.3158423,148.75471
1.3508714,144.43353
1.399462,144.02489
1.3603071,143.09494
1.3589071,149.29886
1.3039517,143.12183
1.3761078,143.66492
1.3375208,146.67235
1.2791904,143.96812
1.2045894,139.95668
1.1941255,146.77118
1.1979773,146.61853
1.246306,143.87523
1.1071666,141.93526
1.1672099,137.5234
1.0641924,138.22023
1.1223066,134.60928
1.0045753,130.33328
1.0952522,126.69697
0.9957066,130.64761
0.9457902,125.16541
0.9406733,123.76024
1.0427997,123.8708
0.9271849,123.43677
0.9177665,119.75344
0.84232616,118.631256
0.90427405,118.22616
0.9482998,116.33363
0.8945161,110.101776
0.83384854,112.99141
0.8146016,105.01027
0.83966076,108.860054
0.7870998,104.95885
0.8130326,106.52289
0.7426097,102.80105
0.7019308,97.12389
0.66172856,100.32454
0.5688213,94.65753
0.5764352,91.83342
0.5657759,92.123825
0.5262045,86.41939
0.46017748,92.415764
0.5178338,89.79499
0.38851127,84.068146
0.40680897,80.7535
0.43661955,79.8256
0.41049877,80.829605
0.36871338,72.92851
0.36492234,77.957375
0.4316792,71.511246
0.41154492,72.814766
0.44114876,69.10054
0.4246687,69.718666
0.3597854,67.8686
0.38251513,63.99513
0.31838912,64.25842
0.3794534,61.52456
0.31517792,57.72476
0.33477426,60.896088
0.21983169,63.174984
0.25418395,66.71255
0.16348776,58.620075
0.13344906,56.205223
0.18872148,66.529205
0.12613408,65.30482
0.04978671,65.84121
0.07046911,63.484024
0.10026216,69.14304
0.1316407,72.88566
0.08971752,74.04641
0.10897642,73.36877
0.13713703,76.483665
0.25964677,73.16754
0.28129062,85.237755
0.36434346,83.55762
0.42439917,85.61855
0.5372609,90.76217
0.6429934,90.71668
0.8022442,92.10694
0.79694486,102.57208
0.85087126,104.46803
0.9604152,108.000755
1.0912038,108.56664
1.1346625,115.71573
1.2578907,117.35599
1.2518113,118.89531
1.295678,125.76005
1.4845988,129.2861
1.4866089,129.27663
1.4730985,131.7061
1.5602243,137.1681
1.5470583,140.71191
1.5503414,142.6797
1.5993729,139.48096
1.5743538,143.78738
1.6069148,140.6515
1.5782853,145.83627
1.625665,148.21075
1.6073127,146.39319
1.5029802,144.20346
1.483816,146.18819
1.4824126,144.54042
1.4768139,146.96402
1.4847748,147.61902
1.463094,141.1826
1.5247508,145.40094
1.4096888,142.82088
1.3970339,143.2586
1.3333157,134.34737
1.3621957,142.92796
1.2937285,139.13533
1.287354,137.5249
1.3327916,135.45279
1.255025,132.9173
1.2616688,130.2702
1.2027787,125.32222
1.2429339,124.13783
1.1728742,122.135796
1.1975001,120.77848
1.267522,123.84768
1.2722301,120.132126
1.1880817,119.051476
1.1957134,113.60863
1.1701554,111.628136
1.2062392,108.73154
1.1841005,109.266556
1.1498826,110.37853
1.1465231,104.47841
1.0963308,105.30664
0.995243,101.500755
0.98467064,101.19397
1.0110372,102.945045
0.9209898,95.63664
0.8334873,95.5456
0.8754623,90.517876
0.8571097,90.57485
0.80758524,89.63005
0.80615747,88.95367
0.77551705,83.46683
0.7578488,80.243614
0.7122271,80.49235
0.82341,75.12311
0.6868357,74.86259
0.6302359,72.25884
0.7254312,70.31857
0.7736084,69.69015
0.71928364,67.53607
0.7789048,69.57468
0.7153786,62.160213
0.7026235,66.995026
0.6352413,65.02156
0.67270327,63.888477
0.647512,58.34573
0.5892083,61.511517
0.5999769,62.67971
0.47066668,56.313496
0.52443,64.28054
0.44246107,57.951916
0.4244038,64.00752
0.48250824,60.42279
0.45038018,61.988342
0.3620895,65.403175
0.47151607,66.885704
0.39245227,66.29596
0.38729253,73.71448
0.5193398,77.090355
0.56398576,76.50856
0.64969003,79.77535
0.5612374,83.14984
0.66458595,85.57462
0.78783303,86.83972
0.8463595,90.52447
0.9430976,99.17932
1.0222684,93.9692
1.1765647,99.81918
1.2897137,106.33655
1.4135062,106.67783
1.4035242,112.73805
1.5110525,114.89442
1.54455,119.10788
1.6167707,117.639534
1.6693214,127.562584
1.7705936,128.1185
1.8129817,130.49734
1.7923974,134.91742
1.8905625,140.11809
1.7945791,139.3425
1.8605857,137.23251
1.8788683,142.90347
1.9172059,143.1771
1.9274228,142.82278
1.9438403,144.11386
1.8952516,145.83368
1.9314127,145.92708
1.8565989,148.75978
1.8473462,146.95538
1.8169608,144.5205
1.8401052,147.84338
1.7877902,145.8394
1.7710469,143.41644
1.727207,146.1771
1.7650754,144.76176
1.6677399,140.51344
1.7010628,138.07794
1.6410645,139.71843
1.6211133,135.86601
1.6023473,133.21196
1.6048979,134.68019
1.5686885,133.82884
1.6024928,133.91353
1.429088,130.23663
1.5304128,128.7008
1.4718816,127.602104
1.4701717,119.71148
1.4734768,116.8258
1.4784484,121.394936
1.4643749,118.76116
1.4722655,109.7349
1.4967312,112.15248
1.4847767,113.58088
1.4276956,109.24809
1.3624699,106.16881
1.361243,107.30125
1.3466058,101.75996
1.2108089,100.61942
1.2471125,98.27021
1.1682237,99.82073
1.1693858,98.187164
1.0524129,96.390396
1.05832,91.253334
1.1346419,92.52663
1.0097357,87.18074
0.9885609,86.75187
1.0015626,81.96005
0.9331578,79.92544
1.024027,80.447754
0.85572207,77.724304
0.89546496,74.83365
0.9635832,69.93243
0.96036667,70.7348
0.8834067,70.51326
0.93950826,68.94215
0.9190961,69.39041
0.9096119,71.890305
0.9122888,68.41785
0.8971659,64.71813
0.8701242,64.60138
0.89298695,63.429047
0.7928049,63.338238
0.7706738,62.118057
0.6774693,64.82486
0.65988487,60.489185
0.6385914,61.375244
0.55367106,62.46808
0.6330729,63.01745
0.57105976,63.35785
0.50731707,65.49133
0.59070116,70.90435
0.55114585,66.08366
0.46309784,71.97578
0.61195534,69.97969
0.71678746,78.96015
0.75779814,80.08409
0.73475325,79.97474
0.91055846,83.82369
0.9623842,87.13572
0.9916278,91.13205
1.076021,94.9258
1.1837857,99.3219
1.2428987,99.07969
1.2656059,106.028755
1.4245371,109.92819
1.46574,109.501465
1.6017028,113.13718
1.6610154,123.872475
1.6209394,122.42244
1.7703395,124.611595
1.7750635,130.32724
1.8364091,129.39334
1.8453367,132.09767
1.8729168,136.31104
1.8777307,139.86389
1.8860267,141.23833
1.9270804,140.44601
1.9411194,140.94028
1.9357495,140.18887
1.8879726,146.80698
1.8852665,141.02414
1.853101,143.3105
1.8830417,146.0414
1.8807982,148.67915
1.8560414,146.76035
1.8860673,146.05177
1.8615309,148.43213
1.8369868,144.73453
1.7826252,144.22163
1.6834747,144.86594
1.624705,141.80865
1.6132407,140.78075
1.5914509,137.02388
1.5681971,134.98897
1.4932088,131.94527
1.5126123,137.50197
1.4075918,133.1405
1.4698637,136.11812
1.5340011,129.24101
1.4722711,122.52786
1.3986806,121.44163
1.4521793,122.40924
1.4020668,119.30659
1.4106826,116.62811
1.4185916,117.77725
1.367772,113.55436
1.3672805,110.617546
1.3665547,109.9643
1.342338,109.64722
1.2652271,103.53686
1.240924,105.5288
1.1324579,104.8766
1.1790096,100.49109
1.1239522,97.71029
1.0733407,98.297
1.0479752,94.34568
1.0282863,95.57265
0.98072386,91.743385
0.8667632,90.20683
0.8665887,86.64154
0.87579596,85.850136
0.77673215,82.760765
0.80754,86.38754
0.7929146,77.96798
0.8171684,79.49263
0.6778625,79.90702
0.71977806,78.127426
0.7548945,72.002365
0.8203886,74.00618
0.736023,68.13224
0.75580007,71.44526
0.75230074,67.245895
0.7247518,65.42904
0.68999034,62.360176
0.6421076,64.64046
0.6091776,57.61299
0.50644916,62.54075
0.61021173,64.31054
0.54128206,59.867226
0.45392436,62.23062
0.4627274,63.994762
0.38847607,63.97651
0.30572253,64.515625
0.27202395,68.3347
0.3326809,66.05476
0.28578138,66.90617
0.35301325,67.70707
0.32678702,72.95814
0.35706744,72.0055
0.4672347,71.96478
0.41711342,78.00183
0.55120075,80.153496
0.56281847,84.01336
0.67213905,88.398735
0.7081518,92.760544
0.85588574,94.87677
0.88960505,98.19417
0.9779131,101.64189
1.0380871,102.59579
1.2252643,105.54543
1.2748902,109.58448
1.3177642,116.34353
1.3357166,117.16373
1.4436126,120.465416
1.4206504,126.333916
1.4503778,129.4019
1.4684917,132.59816
1.5871848,131.72827
1.5878401,134.16112
1.6444972,139.30031
1.5686603,143.21754
1.6556766,141.42506
1.6046523,145.1257
1.6031475,142.88332
1.6303686,141.34312
1.637003,146.86746
1.6001152,141.26422
1.553657,145.73932
1.6038783,143.9543
1.529545,148.81104
1.4690683,144.70453
1.4516588,148.69826
1.5598384,144.69589
1.389306,141.42982
1.4176021,144.93643
1.3452392,139.5713
1.2732955,135.999
1.312508,140.75597
1.2462687,136.62311
1.2149594,135.27774
1.2107694,133.42326
1.1546756,131.48445
1.1102238,130.04301
1.1804192,125.833305
1.1967748,126.29134
1.1421405,123.25084
1.1654472,123.65116
1.0554403,118.14142
1.0782516,121.795105
0.9831822,116.94396
1.0357054,114.365555
1.0532999,112.427025
1.0378264,115.403946
0.9154818,109.02691
0.92409444,106.9477
0.8726242,103.61897
0.90384936,106.41733
0.8864192,99.100914
0.7792375,98.96981
0.7086022,97.804184
0.70353216,92.04022
0.6520335,95.288414
0.5685402,91.68536
0.4909754,86.57755
0.534649,85.88989
0.56512696,87.96692
0.4904967,84.73924
0.5471804,80.791405
0.4994288,79.28622
0.45459235,82.82672
0.48214495,79.02843
0.4425381,71.17569
0.4184889,71.11346
0.40643433,68.86848
0.33532235,71.77369
0.33196518,65.50131
0.4249416,70.966125
0.34668338,65.70576
0.33524,64.9154
0.3105049,61.976444
0.3427754,62.27663
0.31936815,62.674656
0.20631342,63.705654
0.16882361,61.709133
0.15703018,59.53823
0.07891385,59.956837
0.011807267,64.99917
0.0055127605,61.46128
0.00400389,64.728
-0.00024224339,63.05358
-0.06590565,72.02794
-0.058469225,68.867226
-0.018733466,68.31656
0.100428574,75.42432
0.13197936,68.42485
0.18652305,82.712456
0.16389544,81.06233
0.24828514,85.17893
0.3968306,89.057014
0.40041694,93.69132
0.43994346,90.01498
0.56422395,98.494225
0.7335289,102.92841
0.82875615,102.46145
0.9159375,108.2634
1.0107291,113.16449
0.98034513,114.41954
1.1609343,118.95198
1.1405361,118.93619
1.1439251,126.98918
1.2871063,129.09897
1.2759328,127.441734
1.3620274,132.15488
1.283415,138.69989
1.3272036,140.89792
1.4205008,137.27023
1.3731966,139.86256
1.3717289,146.18048
1.4166843,146.29172
1.325928,144.48001
1.3618578,146.3685
1.3798035,147.25044
1.2294611,148.88478
1.3581208,147.28732
1.4305073,144.1506
1.3040301,144.6895
1.2472856,145.16066
1.2419647,145.94086
1.2597493,142.8074
1.1870478,140.15533
1.1861274,140.55919
1.1274107,139.90541
1.0459225,136.7256
1.0960802,136.07285
1.0402008,138.5127
0.9746529,133.353
0.95580643,128.97485
0.9513723,129.52313
0.97966325,131.25792
0.9302641,124.93958
0.83589834,125.75771
0.893914,120.64431
0.85964155,120.75098
0.88494253,118.57825
0.89099956,120.48795
0.8705184,117.43928
0.8056056,112.1231
0.92173576,110.72018
0.8221316,108.71068
0.7756829,104.298256
0.7598312,105.67056
0.75878596,104.29669
0.73836845,104.245
0.7159335,99.63476
0.6293703,96.474014
0.6040174,90.57447
0.42844385,92.872375
0.53167796,91.546844
0.46436933,92.04929
0.4695309,89.877754
0.36084634,85.79676
0.34471545,87.45029
0.3316757,83.98787
0.30260134,81.3893
0.34749958,79.921265
0.37107307,77.99981
0.2874156,72.26791
0.32963586,68.78259
0.39294118,69.94971
0.34766248,73.20359
0.3054611,67.756256
0.29935864,69.99403
0.28782356,65.39641
0.26442817,64.63406
0.2651641,68.29004
0.25195697,63.36305
0.2293262,64.54126
0.1424062,62.74396
0.18840064,57.064285
0.14362322,59.175983
0.089824386,58.205875
0.06969945,61.522026
0.0024271419,60.448536
-0.03943612,65.411125
-0.015769983,65.85544
-0.059114914,69.83165
0.044020966,73.62398
0.09886892,67.94442
0.03648134,74.22152
0.08964722,76.50219
0.2286289,77.49259
0.23001468,80.12865
0.2896656,84.25079
0.43828794,83.22485
0.5306473,88.30632
0.63865626,96.20757
0.6921654,99.87073
0.81343865,97.59854
0.90890086,102.40565
0.9209596,114.46286
0.9642476,113.300064
1.1577603,117.040375
1.1516448,120.570946
1.2178016,125.67448
1.2875159,123.41712
1.3158433,130.72913
1.3264698,133.47594
1.3412769,136.71199
1.43901,136.94832
1.4782321,135.3672
1.5196204,143.91502
1.4788445,138.5625
1.587841,141.64201
1.4844402,143.7458
1.5092942,145.05461
1.440321,146.15674
1.5116954,148.01385
1.4723994,146.73093
1.4771342,144.44809
1.5238413,145.5205
1.4495842,145.54982
1.3275344,146.0504
1.4426666,147.1078
1.3912469,144.03888
1.3494985,140.63313
1.3154461,139.68501
1.271756,141.20815
1.1813519,136.72162
1.2508781,137.05415
1.2314101,135.63249
1.2223465,132.62343
1.1492205,131.36386
1.2025291,128.17326
1.1673068,130.82512
1.1584886,124.57853
1.1011654,123.837456
1.0919741,124.895424
1.1208974,118.89452
1.0504237,115.53504
1.0521194,116.807884
1.1045917,117.023415
1.0066116,111.80343
1.1304414,111.83953
0.9947723,108.35495
1.0946978,108.15331
1.0414345,107.78926
0.9416124,103.23084
0.8724471,101.80906
0.8889111,98.384895
0.91305095,95.87159
0.8050044,90.97407
0.8000903,93.59882
0.7793897,93.23608
0.70196724,88.184235
0.6536657,84.192055
0.6570992,85.553566
0.65833163,81.517845
0.59830004,83.177025
0.58066267,78.71294
0.6577455,82.46917
0.6160945,77.183716
0.6736183,69.85059
0.5852403,73.495674
0.6745614,72.57212
0.623389,70.93504
0.5854429,67.4447
0.63693583,65.66985
0.6805151,62.934002
0.6088348,61.820927
0.5980623,62.106453
0.6316068,61.20183
0.44667897,61.817963
0.4846973,64.649376
0.4284588,63.63965
0.46057183,60.711006
0.37889436,62.46529
0.26933283,57.997627
0.32137713,66.03984
0.3398869,64.609146
0.34304854,66.93422
0.2362264,70.24522
0.3852724,69.06495
0.3546766,72.7985
0.396882,73.54558
0.40580678,77.64815
0.53712106,77.90097
0.5927138,84.77677
0.682922,82.74367
0.7063711,89.47483
0.7999452,91.6441
0.920193,95.52248
0.94153666,97.30347
1.1206164,105.36122
1.1763414,106.532524
1.3001842,108.4095
1.3531176,113.33114
1.4309236,118.58621
1.5590641,119.69694
1.6131614,122.66578
1.5967389,124.82743
1.6542141,128.91641
1.7615852,129.99812
1.7402084,135.8571
1.7590241,132.67593
1.8124971,139.34387
1.76895,137.89935
1.8023723,138.62451
1.8915453,144.53331
1.9326959,145.26894
1.780139,146.20633
1.8810368,146.2415
1.8920406,143.11037
1.7872998,148.14616
1.7548594,150.01848
1.9016647,145.50014
1.7531673,144.79083
1.7350845,145.94081
1.7082564,144.89925
1.7423866,141.92911
1.7004375,141.60933
1.5487945,139.22397
1.5859622,140.70972
1.6281115,136.08417
1.5480797,134.97865
1.515495,134.61528
1.5500034,129.70074
1.4845742,131.43582
1.438219,130.78023
1.4450488,128.78168
1.5320747,125.628235
1.4947104,121.81971
1.3987297,122.59898
1.4049839,121.903175
1.3810443,120.97182
1.39243,110.17484
1.3892343,115.298615
1.3428631,110.03668
1.3945885,109.97913
1.311027,109.378456
1.345472,107.58831
1.2652711,103.53394
1.2741541,105.63804
1.2924174,100.63042
1.2419139,99.28372
1.2012715,94.36802
1.0988324,95.07001
1.0412365,93.674484
1.0731899,91.318825
1.0604613,89.99381
0.9209898,87.18035
0.96286404,83.96028
0.9227005,83.737366
0.88649744,77.94669
0.98669326,78.882126
0.94573945,77.450195
0.8710922,75.60697
0.8818113,73.61946
0.87568337,72.639084
0.8953949,72.44607
0.9619382,67.16325
0.8184431,67.60796
0.8331079,64.92293
0.93031204,64.36997
0.8544364,62.192924
0.8222372,60.47988
0.81185716,62.443005
0.8225983,63.373127
0.78375506,59.948338
0.67368925,60.565735
0.6575359,61.979893
0.6536271,60.109745
0.6224481,62.273552
0.5419904,65.077896
0.60550606,62.403618
0.5201627,65.869484
0.5371578,66.8948
0.57725406,67.17567
0.6325806,75.247955
0.62115157,73.38478
0.6583391,79.43894
0.7496078,82.67133
0.8146973,82.11515
0.90971506,88.339516
0.94140875,86.30357
0.99628943,89.88554
1.1807637,96.387024
1.2497505,95.7745
1.2392696,101.44342
1.3995795,108.68627
1.4065889,107.290245
1.5328864,114.50762
1.633212,112.80862
1.7475351,116.18104
1.7765248,125.31472
1.788433,127.11095
1.7595396,125.60981
1.8970362,133.88358
1.9632909,135.00734
1.9210322,136.9853
1.925156,138.73744
1.9500248,139.50049
2.0739741,139.93965
1.9957705,141.59789
2.0363312,145.21017
1.9446068,144.89949
1.9353064,151.49747
1.8676295,146.32687
1.8918827,144.18481
1.9598925,145.88051
2.0107255,147.64526
1.8748477,145.96947
1.8160576,146.65312
1.7664896,144.3817
1.7246063,147.57878
1.8313097,146.91298
1.8152071,139.31248
1.6951813,138.11345
1.6253054,139.692
1.6589581,136.92152
1.6036116,131.72446
1.5844862,134.67024
1.5955144,130.75696
1.5236918,128.71088
1.4616293,127.50432
1.4967793,124.42884
1.4727641,122.86189
1.4907026,121.66032
1.5055587,122.99769
1.3861583,116.37318
1.4421645,117.151
1.5038812,117.57377
1.4400191,112.94098
1.4065446,110.73638
1.421293,110.27143
1.3750346,107.31022
1.3365436,105.30442
1.2787493,103.1738
1.1983049,101.40228
1.066015,99.69747
1.2232958,96.139496
1.1166749,99.53267
1.0264977,95.80854
1.0216827,92.21815
0.9635385,86.89585
0.86825526,86.24284
0.8507031,87.085205
0.9163413,88.215904
0.79824203,83.47179
0.82167435,81.426476
0.746391,76.60338
0.89412963,75.48907
0.8591623,72.74641
0.8261611,72.87806
0.8202201,70.51581
0.7549068,68.16418
0.78863245,72.09653
0.8158572,65.33106
0.8151066,68.11857
0.84397477,61.70011
0.732535,64.11039
0.6578254,61.237305
0.6509112,61.319374
0.5644597,58.3906
0.5392121,62.93388
0.5107613,59.407013
0.48970002,62.83559
0.45413232,60.55971
0.43629774,64.52704
0.32042435,60.076103
0.39724046,66.356834
0.4071671,69.15766
0.40650153,66.11102
0.42112485,70.53835
0.44578356,74.185104
0.55145836,74.24356
0.5283408,78.89586
0.6781693,79.74222
0.67829514,86.73736
0.81580675,85.468575
0.7798573,92.197044
0.9819577,90.21326
1.0890789,99.00479
1.1047544,100.319176
1.1811979,106.044395
1.2081709,108.570206
1.3607836,112.37519
1.3855178,117.85144
1.4709272,120.14298
1.5069523,120.43706
1.593886,125.88469
1.5900207,132.389
1.6367289,130.73845
1.6517102,132.8681
1.7147629,136.762
1.6770198,137.40024
1.6626968,139.79713
1.6830304,141.4039
1.626453,146.02794
1.6917545,142.54698
1.7354015,148.07077
1.667486,146.7312
1.6624093,144.90714
1.6501809,147.96701
1.6656456,146.51477
1.6928928,149.32684
1.6000241,148.31879
1.5858351,142.09576
1.5915651,147.26909
1.5522221,141.94989
1.4782686,143.19557
1.380527,138.47026
1.424478,140.86105
1.3348622,139.38039
1.3781341,135.25046
1.3425422,133.60173
1.2073796,131.65463
1.2629999,130.14392
1.2959893,126.504776
1.2259728,128.07925
1.2805891,122.569954
1.2355789,122.30537
1.1578703,121.11235
1.1828654,116.39281
1.1713005,118.28105
1.1499928,114.11189
1.1311878,114.07238
1.0570658,112.51152
1.1220464,107.63393
1.0052084,108.1702
1.0661889,104.03986
1.0205505,99.30194
0.92561275,104.96372
0.9051168,100.31488
0.9366939,101.448944
0.8389448,92.828026
0.7189916,95.31984
0.6732927,92.79468
0.73992276,91.35065
0.6020175,85.69914
0.6882618,90.04061
0.59083045,84.781746
0.5752841,79.62494
0.5128907,79.39523
0.5923245,80.20115
0.42392805,74.982765
0.49720794,76.99085
0.49582484,76.756546
0.44871888,71.56561
0.54647326,71.48676
0.35018766,72.27341
0.45107794,68.80133
0.49829775,66.703705
0.408711,64.77727
0.44118673,64.36336
0.4265504,64.87812
0.32443562,62.321632
0.2568944,59.38141
0.31018108,62.475178
0.23362003,63.55038
0.17620984,63.34154
0.15124197,61.14661
0.072156936,65.63332
0.090877675,63.622585
0.123351686,62.664116
0.051388957,67.421425
0.042144224,70.46322
0.033956356,68.24161
0.076219164,72.54313
0.14502566,76.86459
0.1220547,78.12313
0.15018989,80.926254
0.28715658,81.394844
0.43329468,83.532776
0.3673163,88.009186
0.53481394,88.407166
0.5853919,97.06831
0.7700675,101.39829
0.8690924,101.899414
0.8213857,108.45116
0.95963925,108.81303
1.0477672,112.84593
1.1280953,115.317795
1.0945412,120.4626
1.2254586,124.96337
1.2510576,129.50252
1.2903053,128.34421
1.308841,136.53288
1.3802892,135.29266
1.4717517,135.77873
1.3754387,137.32462
1.4490088,140.75696
1.3741747,143.49188
1.3806945,147.7916
1.4467877,142.26242
1.4048095,147.89424
1.3591101,146.42157
1.4176383,147.02156
1.3711731,150.1529
1.3892792,149.15254
1.2732251,143.09267
1.335533,146.68999
1.2884582,145.33057
1.2237153,144.89256
1.2561224,145.59279
1.1658784,141.104
1.2095724,143.01256
1.102793,138.08176
1.0928533,139.21893
1.1574686,137.30345
1.0324328,134.09032
0.95589656,134.01248
0.95869184,130.0284
0.95470726,129.51118
0.96025175,130.27428
0.946035,124.704605
0.8964788,122.577644
0.8518482,121.189255
0.9284887,122.490265
0.8457979,116.18944
0.8660031,112.84781
0.8997642,114.959564
0.8844389,113.30026
0.8762998,110.276825
0.79877406,106.397675
0.8428353,103.97811
0.6754177,102.11019
0.7765799,103.87483
0.6569848,100.47849
0.60337937,99.98919
0.59566975,96.15667
0.5708463,93.2591
0.5391088,95.20222
0.48788813,89.56657
0.39820325,87.72067
0.37752542,87.267555
0.37162513,85.2033
0.4049905,82.346725
0.29672006,82.86689
0.35128078,74.89202
0.41533563,78.83412
0.34873536,76.58724
0.2675172,74.631996
0.2875948,70.15803
0.30474237,69.81125
0.33255967,72.82116
0.3773672,66.34564
0.26634926,63.727283
0.25557,65.212364
0.26798996,66.51513
0.30155036,64.85101
0.2535842,64.705025
0.20181058,60.412224
0.19327705,61.3911
0.08163827,62.09154
-0.029591657,66.33805
0.08313807,62.49222
0.018298056,61.270866
-0.029119944,64.55575
0.05316201,68.19983
-0.017081829,64.5811
-0.05249739,69.785995
-0.113700956,70.08293
0.005280329,73.34315
0.004296886,72.42546
0.092526965,78.059586
0.21698798,75.62404
0.20924748,81.643715
0.28599313,86.52595
0.3565462,85.141365
0.4627236,90.09624
0.53580236,99.82955
0.6310287,99.62907
0.7766479,105.15163
0.8794648,104.836365
0.85729045,112.212036
1.0558761,111.135155
1.0184737,114.86125
1.1490778,121.2219
1.1018263,124.62729
1.1644597,127.598076
1.3255198,130.2705
1.3431003,129.96017
1.3575375,132.34099
1.3686426,136.65659
1.4367712,140.29831
1.465695,143.04498
1.4469494,143.22543
1.4136044,144.1524
1.4167712,142.06123
1.4417759,144.2785
1.3619777,145.06575
1.4705253,147.73683
1.3913282,148.14348
1.3834358,148.363
1.395,149.09343
1.396416,148.07013
1.3165934,147.6937
1.3036739,144.1366
1.2746905,144.7501
1.1983759,141.46558
1.2724442,139.22742
1.2158271,138.87544
1.1501733,140.13614
1.1602668,134.782
1.1032147,135.88051
1.1165106,134.9119
1.1127822,131.67331
1.1381811,125.57193
1.098671,125.37053
1.0835834,123.828
1.066304,124.60714
0.95782197,121.47154
1.0407488,121.59854
0.9805674,116.85382
0.97382796,115.294044
1.012438,111.90719
1.0001996,111.89779
1.0005087,109.68294
0.9233024,112.161766
0.93817574,105.24489
0.861791,102.364944
0.9019844,99.204414
0.8027099,100.772064
0.8182663,96.80449
0.7116148,95.75014
0.70668614,92.88689
0.6338748,91.39159
0.6414032,86.40409
0.58740544,84.5457
0.63448673,90.32453
0.6367362,85.10343
0.54646933,81.55815
0.59875536,83.949425
0.5651844,79.12681
0.575852,79.00568
0.5589265,74.19619
0.5264906,74.2526
0.47444344,74.19135
0.5020696,71.94023
0.5659202,69.51263
0.59577334,64.89425
0.52609557,66.21973
0.5312265,65.14769
0.488834,63.16097
0.40570334,64.21577
0.49001816,63.687363
0.3909877,59.408375
0.4016135,65.071335
0.39598584,65.47139
0.300496,64.53497
0.29769522,62.856026
0.2408315,65.99732
0.30254608,64.34945
0.17793332,61.199036
0.29475275,67.92762
0.25220448,70.27328
0.20956594,73.54726
0.26473036,74.139206
0.2968366,69.11657
0.4278521,76.214554
0.39203122,81.16019
0.45681652,80.64707
0.5615706,84.28616
0.7679337,91.30034
0.78451926,94.53724
0.8385708,99.186806
1.0299245,99.05828
1.101033,101.856895
1.141155,106.6225
1.2264079,110.7376
1.311706,114.54344
1.3235254,115.221504
1.4432968,113.607346
1.4889553,126.080696
1.5284466,124.75159
1.6430489,131.11281
1.6547277,136.08261
1.6202989,131.99342
1.6708587,138.5414
1.6725823,138.42296
1.8113797,138.9221
1.6551973,145.35057
1.7761636,143.6369
1.702819,146.29167
1.7504501,147.10698
1.74753,146.66554
1.7887939,149.93202
1.7136911,146.50578
1.7384906,147.72472
1.6796211,147.17278
1.6537967,143.1487
1.6204529,145.58812
1.5983663,147.39299
1.6242461,143.1877
1.5693247,143.91039
1.5477359,141.24265
1.4872327,138.5676
1.5263611,136.37154
1.4974306,133.68869
1.4459645,137.24951
1.4327192,135.39662
1.5084435,128.49663
1.389216,126.96375
1.4098551,125.20416
1.3564032,127.30333
1.4053867,123.665665
1.3429462,122.96257
1.3469502,122.89935
1.3335212,116.017044
1.3521326,117.93241
1.3711697,114.22302
1.2992518,111.377625
1.3628683,106.58435
1.3462734,105.0988
1.2465214,108.41133
1.2185402,102.44291
1.2078382,100.699234
1.1446412,101.93544
1.1037762,96.46372
1.1143883,97.108536
1.0357383,92.98875
0.9980652,92.39474
1.0355059,89.12525
0.8422513,91.1798
0.9585815,81.869514
0.91350037,80.64793
0.9248767,82.294685
0.909905,78.718315
0.82978266,77.53547
0.86777526,77.111786
0.88612866,74.47152
0.85112214,72.98771
0.84445614,68.982834
0.8381026,68.511856
0.8402664,69.4222
0.8013219,70.775505
0.83203834,66.33
0.80671877,65.41244
0.7886309,63.29943
0.75466955,62.71063
0.8299283,60.34166
0.6744172,65.182686
0.68942493,63.24003
0.7325346,57.6956
0.70578295,63.574512
0.65698546,64.10158
0.5941799,63.009815
0.4244607,66.15691
0.45856953,63.867905
0.49997416,64.6139
0.56541103,65.73318
0.5544643,68.27045
0.56809884,69.12751
0.6090867,72.0966
0.72008055,75.43404
0.6809734,80.65426
0.7383742,80.93905
0.8080118,86.26862
0.936634,86.51802
1.1075418,96.596535
1.1414896,91.92227
1.2540207,99.38162
1.3943661,104.09368
1.3556579,108.610245
1.5368394,108.86098
1.4581945,116.43078
1.6435804,119.641884
1.6805897,118.73612
1.7255938,125.839516
1.8146425,127.3639
1.8682158,128.47887
1.8861419,132.8448
1.7891808,136.9592
1.9907006,136.09811
1.9727131,139.52243
1.9826697,146.02713
1.9137654,143.31598
1.972089,145.86589
1.9626082,147.64673
1.9549841,142.29955
1.9148793,146.58536
1.9624168,143.03877
1.9485275,146.33261
1.9109476,143.83804
1.8310426,146.51917
1.8893793,140.84595
1.8455557,145.18866
1.8060981,146.33043
1.8305577,145.02814
1.773077,140.0393
1.6792461,141.08316
1.7053386,137.0059
1.7262932,136.83725
1.6521356,134.61139
1.6237272,135.6232
1.596012,131.37517
1.5688758,131.92586
1.5399716,130.6109
1.5039518,126.72473
1.4603075,126.96835
1.5851548,122.87858
1.4932508,120.16162
1.489993,117.50014
1.5059048,117.049774
1.5631175,118.6017
1.4101099,111.442245
1.4236989,114.60663
1.397276,109.44853
1.3694229,105.91741
1.366898,103.52948
1.4262776,102.6712
1.2645396,103.65158
1.2825373,101.22534
1.2413867,98.12879
1.1711897,93.93841
1.1285414,93.53531
1.0184314,95.694176
1.0759141,94.190834
1.022021,90.16503
0.96900547,89.3588
0.96966565,85.03486
0.97824,80.38671
0.87808526,79.9449
0.88760614,81.87016
0.9070638,76.736404
0.8248393,71.58186
0.9007235,71.28377
0.866891,73.35493
0.9281401,70.884285
0.9060984,68.32827
0.82671297,64.380516
0.85324496,66.49683
0.8134875,63.37287
0.8078886,63.66202
0.84063196,61.460175
0.7197442,62.617786
0.7150742,60.256805
0.69291794,62.119747
0.633409,63.107807
0.5894668,62.683067
0.58734846,61.785736
0.54882205,62.155277
0.49249852,65.98002
0.4138227,66.380684
0.43224052,64.74303
0.4727054,71.906105
0.5755626,71.078735
0.48430157,76.47427
0.48966336,76.727715
0.5806323,78.04351
0.6260541,81.28824
0.77061266,85.317314
0.74156076,88.285416
0.8359951,87.713715
1.0226785,93.370255
1.0813234,99.56084
1.0772161,100.46624
1.1482813,104.13118
1.1926562,104.450096
1.3935483,114.51981
1.4508946,115.71038
1.5171037,116.838005
1.570896,122.830666
1.7043053,126.58468
1.6771711,123.46264
1.7234789,130.4485
1.7105979,134.89783
1.7305663,138.10365
1.8287108,140.2915
1.799886,140.38647
1.8229625,135.92108
1.832614,140.9371
1.8144681,144.7613
1.8104005,147.28957
1.843619,145.34215
1.7657291,143.64548
1.7438138,148.56175
1.7276261,146.60542
1.7887568,149.64716
1.6913807,143.43044
1.7346103,145.2278
1.5869104,144.91255
1.7084368,141.57346
1.6421151,146.76509
1.5916241,140.50769
1.5749176,142.43771
1.4918326,139.22537
1.4523561,137.55717
1.4831583,137.21777
1.3687801,133.91484
1.3463124,130.45876
1.3596811,131.96005
1.3202335,129.92305
1.3154657,127.94994
1.3212173,126.11144
1.3212105,121.13171
1.2640591,122.36707
1.2518706,121.60817
1.2007198,118.31397
1.3065169,114.994705
1.1814667,112.85765
1.1860285,113.77785
1.1724283,110.56546
1.1368551,109.34914
1.0981694,108.096115
0.9534876,102.36832
1.0175891,101.839874
0.8910156,98.66417
0.83360624,96.66097
0.88337314,98.171486
0.84894186,97.04485
0.7351887,87.90608
0.6850663,92.96438
0.7447182,87.59282
0.6920975,84.47532
0.6752704,88.46838
0.6087367,82.409615
0.5748509,80.86402
0.54131967,76.59016
0.58881783,74.26043
0.5402932,75.218475
0.5946358,74.7284
0.67928517,70.42624
0.6040337,72.444595
0.6097228,64.66197
0.62053245,68.89651
0.5250841,66.443504
0.5707372,65.98173
0.53696626,60.441525
0.4629276,62.70822
0.45408872,61.60046
0.4748046,58.3771
0.34912378,58.84593
0.32024986,60.026455
0.29572722,64.54748
0.3140519,61.32334
0.2212476,62.18639
0.24269278,65.86014
0.13409553,63.160408
0.19285703,64.693855
0.11366507,71.09692
0.23531844,67.154175
0.15467429,75.385086
0.16643278,73.38871
0.25874883,79.484505
0.3429026,81.63074
0.42618835,88.11293
0.41502467,90.29705
0.5356488,90.45573
0.693808,97.22158
0.7605853,100.30203
0.85630655,98.61155
0.873428,104.45104
1.038676,108.63564
1.0984225,110.40796
1.1083374,111.65856
1.145912,117.187485
1.2190855,119.96318
1.3311653,125.35511
1.2964202,125.3595
1.3474776,130.0511
1.4024888,132.1416
1.4433547,135.86607
1.4673325,135.09688
1.4732734,139.68532
1.5548737,145.24745
1.4757284,141.0788
1.4811413,146.27838
1.4674902,142.92824
1.4716585,141.92036
1.4444026,146.83992
1.4123936,148.42369
1.4123096,149.13284
1.3357962,148.7047
1.3717666,148.07852
1.3479291,145.88795
1.384331,147.4015
1.3313046,144.89407
1.2974013,143.34949
1.1897836,139.88321
1.2649224,138.5487
1.1895638,138.91351
1.1293215,139.45706
1.1107508,133.21016
1.0962431,134.67224
1.1017814,133.74648
1.0286067,127.68851
1.0474552,125.40323
0.94348854,127.45034
0.91357774,124.105576
0.9604945,119.17317
0.9262483,116.42341
0.99451244,115.842
0.9881183,117.431625
0.9317907,114.86021
0.83179533,115.54844
0.9292456,109.66439
0.8790692,109.381065
0.80080205,104.67654
0.8566148,106.934685
0.73477066,100.933395
0.7622785,104.17516
0.7532408,99.23397
0.60828084,95.59939
0.6063393,95.63948
0.5289717,92.279564
0.5240053,92.459496
0.49652433,96.16297
0.5141532,86.77966
0.38160706,87.12679
0.41551596,82.36531
0.42087755,82.77646
0.408555,78.69906
0.3058172,75.89608
0.38254023,76.61144
0.3683556,71.20037
0.3325196,73.57904
0.23614672,70.54942
0.31976256,69.336044
0.3450789,68.54338
0.34582296,65.31229
0.33700523,65.52847
0.26840025,66.20649
0.29667678,63.923363
0.24978563,63.49454
0.21260527,65.48877
0.106487416,61.084934
0.17288932,61.100563
0.089367576,58.378616
0.019483188,61.436634
0.046840105,64.31866
0.03171733,64.00981
-0.123336986,63.679516
-0.0050251703,63.86033
-0.029163266,67.63267
0.037157357,69.251526
0.007339018,74.86958
0.011983673,72.99183
0.026041524,76.35108
-0.016973983,78.028694
0.14390707,79.81908
0.2221091,82.21072
0.28060547,86.716194
0.36191204,90.87333
0.5426436,93.87745
0.5174782,93.91429
0.6616628,101.16401
0.7039218,103.82959
0.7854197,108.86831
0.8929355,114.31176
0.94233346,112.14428
1.1040512,116.93342
1.1153718,119.0188
1.177083,123.040535
1.234058,126.56789
1.2407435,127.20487
1.2746127,128.06366
1.3525484,135.02145
1.3418686,136.15573
1.3578645,142.87357
1.3346661,137.59242
1.2591856,141.48047
1.3699793,140.76729
1.4500201,144.47092
1.3825699,148.67476
1.3447667,144.22531
1.2763355,147.28564
1.3368992,148.25967
1.3707527,142.17023
1.3242913,142.67943
1.3042704,146.1813
1.2250983,143.89528
1.1941245,142.94476
1.2904927,143.01424
1.1762673,142.1985
1.2230612,140.14854
1.0873146,140.81288
1.1863623,137.99338
1.0377786,137.23697
1.0317265,132.15718
1.0236495,131.42924
1.0437132,133.98662
0.9936888,125.1592
0.9290563,126.33503
1.015585,123.18904
1.0293491,119.831085
0.9383617,118.510254
0.965779,116.41403
0.97125924,114.08433
0.9923055,117.1035
0.970284,112.34653
0.9224153,114.69212
0.8572606,112.22929
0.85590094,108.58358
0.85800445,107.64159
0.79955727,103.6406
0.8684475,99.946396
0.7122925,97.85976
0.7097498,98.26412
0.624289,95.95001
0.606333,91.94071
0.5636231,92.78625
0.5260818,93.65398
0.55317825,87.45631
0.5402431,78.77636
0.5283461,84.014694
0.50104946,83.3881
0.41332987,79.34178
0.42806885,79.12545
0.46252856,83.009926
0.47647053,74.03941
0.5447531,71.70883
0.48298386,76.19639
0.4907063,71.67143
0.4755014,69.320404
0.35359687,64.09681
0.48867828,64.48523
0.48190144,62.37844
0.3851814,60.56495
0.3003017,62.46096
0.47410852,67.14002
0.28447962,62.766365
0.24805957,63.69761
0.2298565,63.56117
0.19248198,66.56478
0.21279566,57.210934
0.1887518,60.973373
0.1678464,66.51046
0.10702199,69.962654
0.14728,68.187935
0.16235498,69.04253
0.091158256,70.181885
0.2256094,74.23107
0.2543121,75.19029
0.3145908,79.415375
0.28675917,82.10335
0.4160822,85.99263
0.47233552,86.9499
0.5865448,86.20853
0.7493758,90.57524
0.7860589,95.243484
0.8516051,101.569595
1.022226,103.42336
1.0941492,108.72432
1.1371044,115.40948
1.2430327,113.292435
1.3218107,121.25664
1.2550551,115.81434
1.4177859,125.63059
1.472988,124.83636
1.5259304,131.18678
1.5507547,129.16443
1.6157714,135.70549
1.5684475,135.58542
1.6727796,139.00494
1.6585044,144.69597
1.6916606,143.31439
1.652532,146.63197
1.6530541,141.65735
1.709186,149.37581
1.6533104,146.46245
1.7199578,146.08139
1.6057103,144.0541
1.6245655,142.20558
1.6034331,141.89626
1.5534246,150.45598
1.6092812,145.98051
1.4990722,145.56929
1.5571862,144.27557
1.5428605,142.59198
1.4548569,137.37204
1.3270292,139.33267
1.4780003,136.59598
1.428879,136.56865
1.4219495,136.61307
1.3199459,132.55391
1.3505437,128.29735
1.2819607,131.0126
1.2151854,125.154366
1.2681874,125.88518
1.3058357,125.5282
1.3039752,121.11535
1.3320216,118.70294
1.2088164,116.665886
1.2607012,113.847435
1.2536285,110.63142
1.2938805,112.88889
1.1906061,103.1361
1.1862798,106.72254
1.1507434,104.40432
1.1624297,102.01813
1.1271178,103.588974
0.989862,104.17064
1.08382,96.594696
1.0438119,96.52278
0.98537546,94.29172
0.939736,86.716324
0.9236093,89.56134
0.9080196,85.40724
0.8596453,83.06506
0.8261645,83.09749
0.8315888,83.15872
0.7260522,81.873184
0.76260984,82.856316
0.7980988,77.713905
0.82918245,72.02332
0.7970178,75.60825
0.80529904,71.41291
