ppg,abp
1.0068852,85.51021
1.1421554,94.69617
1.1714591,100.606026
1.3576666,99.074295
1.3880122,101.99386
1.39394,112.00122
1.5218066,110.962395
1.5084169,118.786415
1.6496578,120.52422
1.6324961,122.90225
1.6569357,125.77092
1.6538006,130.71028
1.7273967,138.69077
1.7188013,138.20195
1.6755028,141.74802
1.7191958,137.11943
1.6913255,138.57271
1.6991076,141.43823
1.679572,140.20406
1.7220732,147.53166
1.680141,143.41928
1.6625074,141.56502
1.7181469,142.1974
1.6460781,143.6407
1.6162087,138.13376
1.557192,136.97281
1.5640922,137.25264
1.5041994,137.3952
1.5141711,133.29012
1.4410794,129.02182
1.5273305,125.8763
1.4307822,123.927734
1.3796887,123.534424
1.3631562,121.21001
1.4188,115.066345
1.3726141,118.295456
1.3663207,113.201805
1.3834374,111.282974
1.3691663,106.81131
1.3453566,102.79552
1.4127884,103.36665
1.2021649,99.42487
1.342746,92.35307
1.2532804,97.93016
1.2407198,93.28185
1.2835587,89.336205
1.2789927,85.75131
1.1695329,82.20709
1.1211172,84.632034
1.1007924,83.59128
1.0704682,72.59131
1.0173875,74.26869
1.0187299,68.07684
0.95506996,68.55815
0.93703485,63.861935
0.8709195,63.260296
0.8690677,63.83228
0.80349994,56.53243
0.92278403,54.80516
0.89655614,50.411232
0.865816,52.158665
0.7907905,45.853714
0.83275694,48.725334
0.89907455,43.75909
0.8351579,44.150043
0.7999384,42.471985
0.84500104,40.0
0.8001756,40.0
0.7432609,40.0
0.7770753,40.0
0.6983852,40.0
0.6793562,40.0
0.7205275,40.0
0.60891354,40.0
0.64207876,40.0
0.5268069,40.0
0.5455053,40.0
0.46320355,40.0
0.5076173,40.0
0.45251694,40.0
0.47222182,42.361378
0.49392682,45.017784
0.6056866,47.260464
0.6610951,49.579075
0.63411504,49.788284
0.83802426,53.629986
0.8214733,64.94647
0.7928109,66.63904
1.0074265,69.24076
1.0760077,79.18992
1.2207422,74.24933
1.3045484,81.45137
1.413189,92.81323
1.4553671,94.013145
1.5065945,102.283806
1.5764849,101.76659
1.7169496,107.7406
1.732844,109.385765
1.7110933,119.43607
1.7784945,125.38654
1.8647417,120.16853
1.9863663,126.460594
1.9624608,132.2611
1.9996207,128.6064
1.9571033,133.40195
1.9674463,139.79054
2.0283477,134.67563
2.0432806,137.6989
1.9330114,140.65239
1.9545499,142.90028
1.9956733,147.35858
1.8634012,144.70435
1.9151036,138.50058
1.8327624,139.19875
1.8260556,140.99863
1.8439945,142.67703
1.7554927,134.70999
1.794997,133.43275
1.7267207,133.97202
1.692183,135.4215
1.6888452,134.5559
1.674915,129.10132
1.6143012,126.78737
1.6711671,125.75308
1.580155,118.13397
1.5707803,116.5739
1.5809675,116.0128
1.5829093,112.81155
1.4375863,110.31221
1.5382041,103.68314
1.5135818,105.957275
1.5086166,102.20448
1.530751,98.06409
1.4588575,95.74478
1.4110458,94.04739
1.3559239,95.35287
1.3375895,89.25115
1.2961531,81.9593
1.2547673,86.0057
1.356848,79.03242
1.1597784,82.90073
1.2034202,76.94798
1.200272,76.23178
1.0687119,69.87136
1.0406392,70.68562
1.030371,66.32719
0.9907682,60.33343
0.9833838,60.832626
0.9488385,60.521667
0.8829553,57.242573
0.92929566,50.555557
0.8854201,45.54977
0.9051853,46.267822
0.9230815,50.7951
0.9217242,45.058945
0.89147925,40.457104
0.868639,40.0
0.87270933,40.0
1.0031923,40.0
0.883353,40.0
0.74127823,40.0
0.7799453,40.0
0.78984517,40.0
0.79944223,40.0
0.6472088,40.0
0.59295475,40.0
0.64473534,40.0
0.54432565,40.0
0.49009004,40.0
0.5508995,40.0
0.5039481,40.0
0.5023627,45.158318
0.51417774,42.682518
0.4668559,42.64986
0.4655273,51.230717
0.49568534,49.02812
0.6945656,53.56662
0.7592678,58.53553
0.82269335,66.84117
0.8959163,71.25872
1.011749,69.31674
1.1359012,79.47049
1.0936016,77.88332
1.19908,90.5382
1.3719499,94.4095
1.4776943,100.18211
1.5419677,99.55566
1.5223128,103.61967
1.657478,112.294014
1.6289805,111.85541
1.7319772,116.746216
1.7229512,120.41757
1.7944772,124.220924
1.8742784,130.21819
1.772893,133.87346
1.9201934,132.51573
1.7910377,136.75323
1.8566886,137.21252
1.863776,138.35278
1.853606,143.26477
1.8914188,144.27124
1.7566807,144.0459
1.8184534,142.27689
1.7660562,144.93646
1.8219513,139.3629
1.7335217,138.85606
1.6965457,138.38548
1.6716636,135.68814
1.604627,139.18938
1.5863873,136.12366
1.559032,131.60275
1.5096505,134.02245
1.4681878,127.814026
1.4228865,122.9988
1.4386687,126.934525
1.4547714,124.590034
1.4026116,126.911224
1.4374709,115.69175
1.3853371,115.71762
1.2934725,111.47332
1.3314055,113.60343
1.3811368,104.011894
1.2724864,104.45589
1.3274904,104.87518
1.2998555,99.67338
1.268178,96.70091
1.2481138,92.82083
1.1944294,92.58727
1.1123663,92.76714
1.0749717,83.24063
1.1519139,86.87695
1.0798732,84.07964
0.972342,79.97762
0.9576896,75.87939
0.8551992,71.10061
0.8051647,74.79984
0.8793264,68.25949
0.8113807,62.85288
0.7117591,61.671448
0.6960952,56.653706
0.74313074,58.709534
0.6229738,55.686405
0.67277735,49.572136
0.710304,50.588226
0.67650837,50.541824
0.5675215,47.141857
0.6634163,42.788708
0.61732507,41.024982
0.668362,41.8436
0.59335357,40.0
0.5752243,40.0
0.5115574,40.0
0.5043873,40.0
0.5103309,40.0
0.42270017,40.0
0.38366115,40.0
0.43077928,40.0
0.33454618,40.0
0.348821,40.0
0.19486606,40.0
0.2007986,40.0
0.23595302,40.0
0.19293635,40.0
0.16029595,41.384174
0.20736869,40.0
0.24967422,46.65358
0.35093546,51.123882
0.33119106,56.474842
0.5609862,56.989662
0.54690385,64.4792
0.5464456,67.403435
0.681886,71.636734
0.743426,77.25057
0.7912066,81.74496
1.0028164,87.21551
0.87201315,87.948524
1.1249605,91.4394
1.1923516,100.88613
1.265073,106.68225
1.2456218,107.20006
1.3368634,115.23252
1.387439,118.39249
1.3281602,120.05722
1.3908854,127.90542
1.3831364,127.154854
1.4320028,134.45857
1.5939003,134.21576
1.5218401,134.58879
1.5442055,140.78293
1.5370916,142.84055
1.5399927,141.92752
1.4752142,145.37332
1.4781806,144.83218
1.4630018,142.7106
1.4596618,138.9846
1.402466,143.57101
1.4637638,137.88628
1.3832335,143.45952
1.3400583,141.11198
1.315233,139.07089
1.2700436,133.01183
1.2072368,135.24707
1.2587044,134.98677
1.186637,132.23276
1.2316864,126.734146
1.1190854,131.9616
1.0870553,120.7627
1.0593321,119.609184
1.0706912,115.10945
1.0034943,117.1644
1.0371428,110.03319
0.9878841,111.21228
1.0169921,107.80292
1.011369,108.048485
0.96972084,102.88715
1.0140313,103.51427
0.93793964,100.967514
0.9270746,97.112114
0.85250777,96.18025
0.89170605,93.368904
0.730778,84.2416
0.71053565,80.91643
0.70825344,84.97588
0.7737659,78.35148
0.6268204,79.8037
0.51424766,77.830185
0.5495577,72.38679
0.52330977,66.638466
0.46974236,66.92542
0.49147874,57.61297
0.4280102,59.43885
0.3746192,56.845963
0.41849905,53.6691
0.33274117,52.917336
0.32252643,51.517117
0.3701736,50.010323
0.3487764,50.64786
0.33599412,41.79875
0.29671046,42.213463
0.37059268,41.863205
0.32202542,40.0
0.31100187,40.0
0.25478068,40.0
0.25371557,40.0
0.22736245,40.0
0.15008174,40.0
0.15261105,40.0
0.13595092,40.0
0.12105991,40.0
0.08044606,40.0
0.01994563,40.0
-0.01775576,40.0
-0.028260246,40.0
-0.009558149,40.0
0.03338909,40.0
-0.068218715,44.25179
-0.030275255,44.978004
0.04176552,48.50942
0.051012795,53.956745
0.14602871,54.874973
0.21332413,55.59236
0.34246272,66.80225
0.4422615,67.861206
0.47338796,74.07627
0.61658376,78.842735
0.6583496,82.58004
0.7881302,89.666
0.78697205,94.6237
0.92069364,95.380905
0.94606704,101.02054
1.1283445,106.469505
1.0929163,110.79603
1.2103875,113.565186
1.2247999,119.6422
1.3359413,119.816696
1.2352345,124.16234
1.3526884,130.50648
1.3233546,130.94255
1.4352196,133.31482
1.3580923,139.91476
1.3823171,138.07422
1.3252965,139.9361
1.3698342,140.22655
1.4208089,142.46927
1.3343995,144.04573
1.3168662,138.88422
1.3337579,143.96185
1.2525566,141.751
1.2725413,141.65173
1.283562,142.73874
1.2287649,140.07518
1.180921,136.65897
1.1569402,138.41571
1.1643708,132.67308
1.043405,135.0315
1.1060846,131.0063
0.9435783,128.20102
1.0210783,124.438194
0.9300414,124.35514
1.0112913,119.72375
0.96988356,120.158104
0.92158604,116.51807
0.87717164,110.77277
0.9574694,105.8962
0.9401832,108.789825
0.9519574,103.51399
0.88984424,102.66467
0.88955444,94.98849
0.8877971,100.182724
0.75865066,95.188896
0.87077683,89.81933
0.7818545,86.22078
0.80643505,90.39739
0.79999393,87.425705
0.65902317,81.66216
0.692763,77.94775
0.6143359,78.5623
0.6251772,70.02948
0.5807001,69.14664
0.4636219,67.13809
0.3965473,70.249214
0.53896457,59.42831
0.42087245,62.890095
0.28234184,51.962627
0.41848877,51.985138
0.33805647,52.37381
0.29636288,47.13041
0.4168312,41.903004
0.43139502,44.597713
0.3572654,46.38092
0.36995515,40.0
0.39289388,40.0
0.39096013,40.0
0.35538313,40.0
0.33306313,40.0
0.25113374,40.0
0.21827175,40.0
0.21374035,40.0
0.20113808,40.0
0.19340426,40.0
0.14135358,40.0
0.103153795,40.0
0.07999999,40.0
0.057399623,40.0
0.08351283,40.0
0.107282884,40.0
0.051753186,40.0
0.074771605,46.927845
0.13705783,45.52865
0.14359732,49.41797
0.30768943,55.045338
0.29609826,54.205376
0.3577629,62.684536
0.53394866,66.79138
0.5920503,70.234505
0.6357066,75.10507
0.7911849,86.066635
0.9225663,84.012314
0.92019683,87.56319
1.1117177,89.38148
1.1466342,100.34351
1.258399,103.67731
1.2593865,110.20837
1.3061976,110.52277
1.3416268,115.58174
1.3893251,122.02351
1.4937215,125.90042
1.4862251,128.03694
1.5035535,130.78635
1.6120707,134.72704
1.5909989,134.77977
1.5832205,141.3426
1.5742408,134.51595
1.5410277,140.37811
1.5598955,142.93735
1.5575975,141.82121
1.5569103,145.20537
1.622245,139.58318
1.5321637,144.98125
1.4147393,139.8819
1.5190315,139.10234
1.3734913,141.48373
1.4560759,136.66008
1.3970283,136.46494
1.3921771,135.74106
1.3774247,132.34665
1.3656207,129.48775
1.295276,130.26053
1.2890614,126.84938
1.2721106,125.47307
1.2141888,122.83242
1.2001094,115.207054
1.2606183,119.64804
1.203316,111.11478
1.2963953,114.187744
1.1768245,106.3056
1.1499362,107.70328
1.1885761,101.48043
1.2424995,95.34227
1.1249784,95.58188
1.1367124,95.40442
1.0794415,93.26784
1.0698693,88.405846
1.0907806,93.188446
1.0515254,83.51885
1.0128837,83.074905
0.955616,78.00212
0.90753657,79.80262
0.8757157,72.511024
0.9045641,73.62272
0.87771165,66.98499
0.7678038,62.516636
0.6432971,61.265038
0.7375156,63.166744
0.7860214,59.922535
0.7094952,54.967033
0.733632,55.563766
0.7258276,49.956604
0.65819293,50.763474
0.64128035,42.043274
0.7046348,41.367744
0.6937843,40.0
0.7084723,41.230526
0.67138004,40.0
0.69639933,40.0
0.76260775,40.0
0.58373225,40.0
0.62357044,40.0
0.5931661,40.0
0.60220355,40.0
0.6189545,40.0
0.48989686,40.0
0.4376648,40.0
0.38818896,40.0
0.3723259,40.0
0.41967466,41.368828
0.47584578,40.0
0.36989653,42.75968
0.43320403,40.928703
0.46437883,48.169018
0.45165187,46.571873
0.5352099,50.479736
0.5910038,55.315254
0.7197615,58.6906
0.73969275,65.606964
0.8226885,74.43191
0.960853,72.080414
0.9715528,79.431786
1.1654323,84.59667
1.3064245,89.46768
1.3042127,92.47712
1.4382181,97.10552
1.4399695,101.53208
1.5417293,109.4837
1.6487044,111.28163
1.7406018,113.135506
1.738677,119.21849
1.7266693,124.669205
1.8128483,127.792015
1.8141207,133.2743
1.8978161,133.7052
1.889338,131.07074
1.8707917,139.58691
1.8174539,141.28273
1.8314123,142.55194
1.8500102,141.3492
1.8840319,140.22597
1.8308362,143.52019
1.864793,141.80711
1.8599035,141.65645
1.8192132,144.34026
1.8906015,143.59477
1.7432148,137.90388
1.7374283,140.18773
1.7170639,135.76624
1.5965552,132.3421
1.7174388,133.80962
1.5813528,128.79079
1.6803508,129.59277
1.6185408,125.5805
1.571879,127.13636
1.6231186,122.53785
1.5513664,116.64746
1.5213162,117.23722
1.517987,115.12817
1.5617915,111.3359
1.494728,110.15749
1.4455872,107.40679
1.4378351,102.10213
1.3707817,104.60654
1.4181046,97.236916
1.4277945,98.56912
1.4251229,96.28636
1.3532082,89.80123
1.3017489,87.47344
1.3038013,84.72447
1.2381712,83.19044
1.2625988,78.13403
1.1795269,82.55799
1.239595,73.75534
1.0515481,72.91149
1.0349231,69.72466
1.0459704,66.92562
0.99999225,70.3435
1.0288936,62.204376
1.0111055,58.73474
0.91975856,59.998455
0.97176504,51.436047
0.9626626,51.450665
0.87694377,48.231567
0.8441274,44.610085
0.9229501,44.738316
0.9481718,40.32395
0.91998625,40.0
0.9126901,40.0
0.929885,40.0
0.8801969,40.0
0.897932,40.0
0.8825536,40.0
0.77061486,40.0
0.7277847,40.0
0.7136677,40.0
0.61739343,40.0
0.566094,40.0
0.5678173,40.0
0.5752959,40.0
0.4859837,40.0
0.50265616,42.695503
0.50435174,40.0
0.4864384,45.51116
0.61455655,44.71264
0.6256047,46.73472
0.7109435,48.530674
0.7096245,55.87525
0.81970084,61.619698
0.87482035,61.079815
1.0169573,64.63493
0.99822825,71.108795
1.1519067,78.9021
1.2063698,80.55577
1.300504,88.02813
1.4175503,92.129135
1.5448203,100.1252
1.6189374,96.6992
1.6542119,105.51058
1.6784558,111.14835
1.7506689,115.81483
1.7945676,119.79189
1.8024237,121.97103
1.9128755,126.55083
1.8733976,125.947296
1.8241911,129.28271
1.9803445,135.9349
1.9637632,131.2889
1.8970677,139.78763
1.8863624,135.67133
1.894075,142.10294
1.980889,142.83337
1.8992621,140.42174
1.9786974,145.81004
1.9054652,146.17836
1.8109214,138.08757
1.9264745,140.55139
1.7944231,142.49734
1.7175548,140.25148
1.8320887,136.8241
1.7537501,132.08887
1.6943574,136.99718
1.6153016,131.34714
1.5644649,135.90324
1.5397723,128.79906
1.55216,125.09501
1.523788,122.46983
1.529979,118.88732
1.4977036,116.788124
1.507896,113.894844
1.4845277,111.364456
1.4911081,103.507034
1.4324169,106.03315
1.4144921,106.96142
1.4262456,102.88019
1.3617167,97.61049
1.449525,97.73594
1.3730732,93.20061
1.2845803,93.56628
1.2906266,87.21201
1.2318741,82.91475
1.2102137,88.1602
1.1090328,80.53018
1.125045,80.061844
1.0554429,78.2965
1.0657047,74.272575
0.9582015,71.8513
0.96986884,72.66381
0.956883,64.69918
0.8734926,63.391926
0.86751896,60.202774
0.89314795,59.338478
0.896318,58.30829
0.9069436,54.17065
0.793343,49.077034
0.88235694,50.483944
0.7379946,43.60236
0.8068342,41.94745
0.82999116,40.0
0.7177509,43.395744
0.7626197,41.862843
0.7333793,40.0
0.77008176,40.0
0.6785904,40.0
0.65502465,40.0
0.6128296,40.0
0.66285324,40.0
0.5538218,40.0
0.5392748,40.0
0.4963547,40.0
0.3535265,40.0
0.38083836,40.0
0.39752808,40.0
0.4024628,40.0
0.32370612,40.0
0.35540178,41.490124
0.39974436,48.103493
0.46099713,50.279453
0.527364,52.34766
0.63672423,55.263836
0.66603786,58.85931
0.6612173,66.19171
0.82762754,68.95071
0.89788437,72.33268
1.016988,79.398
1.0634044,81.91094
1.1295722,88.59109
1.2150619,90.22377
1.2622913,94.98098
1.4119797,103.96295
1.4730097,107.88969
1.5338675,109.62481
1.5146307,113.91303
1.5435543,120.2735
1.6088116,123.62411
1.5869899,126.86632
1.6993686,130.67575
1.6830978,131.34499
1.7071751,137.21161
1.7189263,138.67433
1.6723038,137.983
1.7187184,136.5757
1.6739792,143.598
1.6769341,143.9831
1.6455901,142.00386
1.7071342,141.79295
1.6703036,142.60994
1.5834479,144.31702
1.6097968,144.44878
1.4171063,140.78613
1.4672676,135.34604
1.4781872,139.35919
1.3348099,134.64273
1.3657376,133.9465
1.3222656,128.7184
1.3244406,132.7839
1.3409667,126.04079
1.2213475,126.87294
1.2453135,120.234566
1.2378416,120.38614
1.2690824,118.39138
1.1412401,113.58483
1.1174542,111.61485
1.1231623,113.320755
1.0687562,109.15099
1.1703657,100.93395
1.0859615,101.26884
1.0817121,100.783646
1.0699964,92.03259
0.9870816,96.14053
1.0926414,89.325
0.9534545,87.79729
0.99626863,84.72381
0.8913215,85.46151
0.88461024,76.94366
0.73881567,79.79958
0.7725907,76.04665
0.75524884,74.83677
0.6441783,69.03909
0.69941765,68.53257
0.64818954,63.852062
0.5502835,58.834255
0.48682818,58.630543
0.5320572,58.076214
0.5130031,53.634197
0.5297215,51.161175
0.5194469,49.988464
0.48121953,46.170044
0.572048,44.521988
0.5094274,44.377266
0.49605638,40.0
0.44812736,40.0
0.44187152,40.0
0.42006886,40.0
0.3926945,40.0
0.37442484,40.0
0.3407811,40.0
0.22973941,40.0
0.14153537,40.0
0.1902477,40.0
0.10844545,40.0
0.03553652,40.0
0.05746613,40.0
0.00957091,40.0
0.017700445,40.0
0.05104345,40.0
-0.035570934,40.0
0.14519939,40.829514
0.078098476,49.43803
0.06961296,48.198437
0.17192076,53.392967
0.22250295,54.832508
0.34235832,60.14393
0.44891858,70.17032
0.5192241,73.411766
0.7245341,73.56254
0.7269922,80.37091
0.8649919,81.802376
0.9128508,87.302605
0.99448025,97.521576
1.062686,101.66554
1.2439694,105.55175
1.1510545,108.73402
1.1591505,110.54844
1.29256,118.61711
1.2925894,125.152855
1.3076345,126.26685
1.3722918,131.01906
1.3079649,130.14471
1.4034067,133.53444
1.418446,137.73619
1.323179,139.51947
1.4517204,141.21892
1.29487,143.96625
1.424261,140.9543
1.400006,142.85144
1.3384992,140.15846
1.3630455,140.50076
1.2954265,143.13084
1.4307011,140.2203
1.23319,140.36905
1.228064,141.16
1.2520658,140.95549
1.2178627,135.62596
1.1079681,134.95595
1.0711595,129.70161
1.1311952,128.07782
0.9972673,126.00976
0.9973514,124.77995
0.95944387,121.80362
0.9780332,121.884605
0.95121866,116.90757
0.9181616,115.67256
0.95230085,113.25064
0.93963194,112.20035
0.9088025,108.84627
0.8793636,104.74381
0.9371185,105.15185
0.88574594,100.92683
0.8772206,97.2639
0.84409666,94.88852
0.757979,91.1526
0.7522894,89.05175
0.738055,85.24002
0.7148999,83.45283
0.64014906,77.53012
0.5947537,78.80638
0.61127263,75.66267
0.5372358,72.867935
0.524972,72.4861
0.49057084,68.01622
0.446075,67.145256
0.41851854,60.711346
0.39313254,55.941372
0.41568017,53.322773
0.32605806,56.52791
0.27165785,48.14446
0.332229,54.824673
0.33289182,43.27652
0.24665514,43.23665
0.33889568,41.977993
0.35372126,41.51281
0.27718723,40.0
0.35356623,40.0
0.29888818,40.0
0.3012318,40.0
0.2446388,40.0
0.20705414,40.0
0.26410362,40.0
0.15363275,40.0
0.05994121,40.0
0.103096835,40.0
0.0035333305,40.0
-0.022864463,40.0
0.06982252,40.0
-0.028427752,40.0
-0.013694102,40.0
-0.008224756,40.99806
-0.031808026,44.623497
0.07931751,47.507885
0.07383097,47.900158
0.10944531,56.970455
0.24809226,60.412186
0.23968902,58.874874
0.3569664,65.97713
0.39742607,68.45936
0.5340111,76.66982
0.6170883,83.0205
0.70009786,82.92487
0.7528771,85.866905
0.95816505,90.5184
0.95211583,100.01126
1.0722361,107.49245
1.1627984,110.08328
1.2365211,108.691475
1.2619299,120.15532
1.2370341,123.10554
1.2725247,127.341255
1.32548,125.14134
1.4027109,127.143265
1.570312,135.08937
1.3815325,138.03036
1.4318016,133.77113
1.4118189,137.12895
1.4494901,141.09587
1.3954312,141.44598
1.3768476,141.49902
1.4217423,142.28581
1.3812413,148.08989
1.397331,146.5424
1.4576602,142.89508
1.3338094,141.16954
1.3069724,142.87584
1.3370023,139.19716
1.3238839,134.34006
1.2752173,137.50252
1.2363578,132.67873
1.212717,130.2522
1.164718,129.52809
1.1650676,127.93407
1.1194911,121.69598
1.0484638,122.64493
1.0618784,119.07965
1.0974629,119.72935
1.1298454,113.78518
1.0846813,113.64572
1.1135924,109.69574
1.0416949,105.70196
1.0590565,104.1941
1.0102671,103.73192
0.9911538,99.495834
0.96570414,95.382385
0.9557078,91.95159
0.951405,93.21462
0.9099434,84.306
0.88038254,88.402145
0.854242,83.323906
0.7447701,79.49826
0.7770887,76.83399
0.7902119,73.93615
0.7234171,74.14862
0.66966134,71.30179
0.6102872,67.562195
0.5689964,66.139305
0.61565936,59.123146
0.567345,58.69339
0.45664737,54.16818
0.4966994,54.23837
0.40222517,54.465256
0.45785552,45.632244
0.563371,47.958176
0.5988875,44.787148
0.5140926,43.834568
0.4646787,40.979965
0.54528224,40.0
0.4565728,40.0
0.49776047,40.0
0.52399784,40.0
0.47797313,40.0
0.4381808,40.0
0.42204836,40.0
0.2956461,40.0
0.29817376,40.0
0.3398535,40.0
0.24279502,40.0
0.33188617,40.0
0.28888726,40.0
0.17736611,40.0
0.20641458,40.0
0.17459622,40.329742
0.3431216,43.94459
0.2684884,46.331055
0.3788609,47.58172
0.45026597,55.832626
0.6035903,59.946163
0.57567465,60.997116
0.6363351,69.69332
0.78675103,75.151024
0.9031673,78.72075
0.9128451,83.804955
1.0188911,89.77049
1.2173415,93.72811
1.2905328,93.25132
1.284469,98.40019
1.4028134,102.62131
1.5288699,107.023415
1.5449332,112.26466
1.5940391,117.63892
1.596699,122.259125
1.628538,123.18759
1.7069861,128.25201
1.706032,134.5747
1.7353973,132.65599
1.7064786,134.04146
1.6653293,138.13326
1.7564191,140.01369
1.8075026,145.01416
1.7049304,142.1982
1.765817,140.257
1.7414324,142.54312
1.657625,142.61891
1.665552,140.29932
1.6513939,144.74883
1.640407,141.73505
1.628643,141.39926
1.5694853,138.46046
1.5783447,136.1551
1.6477757,135.49731
1.5153077,129.77467
1.5264567,131.17499
1.5138825,128.77748
1.4798611,126.69047
1.4018439,124.78558
1.4869978,121.69783
1.4163902,118.08253
1.2824079,114.586876
1.37768,115.1155
1.3304863,110.89262
1.3203505,108.5354
1.392734,100.60939
1.3494644,97.98664
1.379788,96.92751
1.3021092,99.6425
1.3404428,98.20439
1.3264513,89.897896
1.2414271,87.012
1.2462151,81.931885
1.204548,84.3205
1.1245643,81.3257
1.1276561,80.14163
1.105742,75.94434
1.0394305,71.92829
0.97249186,72.77217
1.0023494,66.69357
0.83993775,69.167816
0.8542261,63.451546
0.88570166,57.885387
0.85631514,58.24516
0.87944376,57.09957
0.83619875,50.34205
0.87179947,50.35041
0.86946833,46.061016
0.7429363,44.58329
0.87506914,41.94707
0.8505619,43.573643
0.8483352,41.0846
0.8020248,40.0
0.8495279,40.0
0.7377863,41.235073
0.8301577,40.0
0.72852063,40.0
0.71110344,40.0
0.71239436,40.0
0.6280158,40.0
0.57620454,40.0
0.5606767,40.0
0.5111272,40.0
0.51893795,40.0
0.5253965,40.0
0.49791175,40.0
0.56884825,40.0
0.50378746,41.27903
0.5784509,47.180256
0.65148807,48.829723
0.6513117,55.881283
0.77671397,54.37571
0.8464726,61.02943
0.88043976,67.871796
0.98286545,66.35006
1.1652577,72.28003
1.2027504,80.46467
1.2828525,84.71378
1.3611758,92.77558
1.4373525,95.66903
1.5351057,101.43152
1.5749729,105.8071
1.632335,110.73294
1.692679,110.73328
1.8036968,116.36188
1.8659097,115.36498
1.7801006,126.18919
1.8378141,125.172966
1.891956,126.83908
1.9294953,129.80338
1.9862366,135.97266
1.9628426,145.61377
2.0627625,139.96451
1.9647775,140.406
1.9231855,137.95471
1.9479711,143.57196
1.9276078,138.6451
1.9389156,139.53838
1.8507717,145.87051
1.8761837,146.14828
1.8775694,140.86708
1.9005212,142.6079
1.869902,138.59459
1.756164,137.5715
1.7543821,139.81348
1.7358301,132.9487
1.6631165,134.41875
1.5895149,129.46054
1.5597926,127.30697
1.6694977,128.38245
1.5919062,121.76642
1.6488351,119.69129
1.5058565,117.89228
1.5313303,117.101845
1.5349275,109.50828
1.4456282,106.740295
1.414524,106.46695
1.5643663,104.00654
1.4525318,101.39011
1.4201477,102.38668
1.4502399,94.89248
1.4222473,90.41317
1.2918626,89.45854
1.2512945,88.06517
1.3883296,88.388115
1.2926775,83.00556
1.2307849,78.658165
1.2365977,82.68286
1.1814935,74.54223
1.0885322,71.98324
1.0922834,72.99599
1.006052,66.92935
0.9703945,64.124344
0.9418404,58.737457
0.9665327,62.591404
0.9342788,59.37009
0.922689,49.40609
0.92183775,50.60764
0.87134844,47.72051
0.8631014,43.542522
0.90742874,43.796368
0.9577819,40.362453
0.9020916,40.0
0.8259673,40.0
0.94702613,40.0
0.84921074,40.0
0.7661384,40.0
0.8511162,40.0
0.67056054,40.0
0.63371253,40.0
0.68192583,40.0
0.5679952,40.0
0.60476005,40.0
0.5499888,40.0
0.5418888,40.0
0.4036365,40.0
0.4933222,40.0
0.5027267,40.28484
0.47838226,40.0
0.54487324,43.156845
0.54257494,51.66291
0.5786528,51.380722
0.7175775,51.717903
0.8267113,58.94633
0.81339014,65.73625
0.8473033,66.865364
1.0577751,72.2534
1.0823652,80.3942
1.1781563,83.552666
1.2367997,91.44996
1.3820899,91.34021
1.3481569,94.82524
1.4893446,104.186356
1.5898739,109.66343
1.6615492,111.72827
1.5993298,113.42482
1.6237257,121.100136
1.7547423,121.29569
1.735196,128.19194
1.7574521,126.82002
1.8581636,129.8288
1.946517,134.83675
1.8105952,134.21393
1.8654928,136.91682
1.8409628,139.80913
1.8064837,142.73196
1.783828,141.47798
1.8536477,141.22385
1.7842218,141.07738
1.8184718,143.32274
1.7892457,143.6042
1.6821711,140.0393
1.5976129,141.26515
1.6982476,140.46477
1.615686,137.56369
1.5346154,135.14366
1.5627633,132.20491
1.4965781,131.42108
1.5282401,129.7084
1.4428208,125.987
1.4982556,125.99401
1.3681029,122.88354
1.3279967,120.51034
1.3557696,111.76827
1.3607334,113.53146
1.3325309,113.19303
1.335023,110.703674
1.235569,106.05365
1.2615007,102.85871
1.274733,101.6694
1.2051343,99.944016
1.2800179,91.632095
1.2235334,92.08795
1.0945469,89.83967
1.0834067,88.31307
1.0817834,85.75026
1.0808593,85.85028
1.0341192,78.54592
0.946858,73.61794
0.93985873,75.551315
0.8947767,74.5864
0.84539694,75.94754
0.8022559,69.18981
0.7037755,63.174576
0.7429666,62.492054
0.7318794,62.838997
0.717898,60.05149
0.7748856,56.458237
0.64536965,54.96154
0.6891876,49.437866
0.65762836,48.86946
0.54649246,43.981323
0.58327067,41.94004
0.6394739,41.581974
0.60113007,41.0699
0.6351638,40.0
0.5126781,40.0
0.5057281,40.0
0.5330588,40.0
0.48135394,40.0
0.40870413,40.0
0.37885314,40.0
0.35205883,40.0
0.30176398,40.0
0.2547088,40.0
0.2713285,40.0
0.2801978,40.0
0.17733096,40.0
0.15664694,40.960205
0.13511588,41.02774
0.15164101,42.26792
0.28144914,48.025394
0.23720846,47.992126
0.3664192,50.253986
0.380918,55.183285
0.4549915,62.141838
0.53257525,58.869537
0.59222776,70.346375
0.7438488,77.19502
0.8642602,77.696434
0.90596294,85.41436
0.92810506,86.5242
1.0756159,95.50248
1.0778195,100.63325
1.2228236,102.11636
1.2698194,110.11801
1.3624545,113.72604
1.3847833,111.65568
1.298141,118.03694
1.3552965,123.57241
1.4747492,125.04148
1.4768027,130.837
1.523869,135.39539
1.4804107,134.9222
1.5247837,140.98253
1.5186018,135.8101
1.481058,143.89778
1.4244753,147.27043
1.5057968,141.43126
1.4315709,142.78297
1.4084892,142.70297
1.4646764,144.25536
1.4505419,145.61911
1.348876,141.14946
1.2703614,139.32697
1.2642329,137.79253
1.3297983,140.8554
1.2306154,137.00429
1.1944603,132.30107
1.2208438,130.30286
1.1592504,124.07892
1.1588818,127.50278
1.0844698,130.85594
1.0882536,122.944046
0.9010305,116.07517
1.084045,111.581085
1.049689,113.170654
1.0582794,109.148735
0.904456,105.19384
0.91794956,109.758354
1.0134263,102.27422
1.01202,102.05683
0.9699673,96.65811
0.89269155,93.7056
0.8315433,97.38951
0.78425497,86.490456
0.77077925,90.8794
0.86314625,86.6438
0.69434214,83.5507
0.6545533,77.30559
0.6496978,76.82155
0.6398425,74.67362
0.59177625,73.67736
0.46194947,72.15678
0.53016925,64.72213
0.41632992,63.81342
0.4391571,60.12185
0.40422073,62.524464
0.46525985,55.88056
0.3938817,56.484867
0.37341228,52.723915
0.2999937,50.240658
0.40599105,45.193783
0.32746676,43.462307
0.37294218,40.784836
0.37746465,40.126465
0.32360122,40.0
0.29973552,40.0
0.29326513,40.0
0.25388682,40.0
0.2929227,40.0
0.16325143,40.0
0.22168852,40.0
0.048048593,40.0
0.092348754,40.0
0.008710535,40.0
-0.006707474,40.0
0.00085252395,40.0
-0.050642673,40.0
0.018700754,40.0
-0.07679537,41.231625
-0.04048564,40.72856
-0.04136802,46.0086
-0.021331547,49.72091
0.06628003,55.517113
0.1276984,59.700912
0.16642076,59.718506
0.30069727,63.76769
0.330044,69.6378
0.49973607,75.91132
0.6099208,78.15871
0.67134345,83.3549
0.5868309,86.2951
0.79312027,90.058975
0.94553554,92.366325
1.0343474,102.00256
1.0665301,107.43452
1.0525198,111.33029
1.1288146,120.073425
1.2480079,118.15047
1.2385107,121.63997
1.2119513,127.74489
1.3798947,126.593605
1.3638841,128.86646
1.3080347,134.09225
1.4495974,138.42253
1.3747681,135.74243
1.4290214,140.89651
1.3445228,142.73282
1.401332,143.89534
1.3288342,141.80684
1.3283101,139.05113
1.3019948,142.58562
1.2585684,141.47902
1.1886955,138.05954
1.1872473,140.49792
1.2443184,137.5896
1.1916823,133.3203
1.1609793,137.99274
1.2027773,135.6643
1.1122648,130.82315
1.056477,130.49385
1.0877826,130.35306
0.9886805,126.5171
1.0145353,123.00564
1.0069848,118.28146
1.0568058,116.4977
0.92749107,117.75334
0.93877167,111.61747
0.99945134,112.27278
0.91764337,107.5414
0.8331196,109.72984
0.92032546,102.055824
0.92068374,100.02547
0.8984864,94.57637
0.79117376,92.32795
0.80697656,89.22637
0.83294505,92.39629
0.7730001,88.84981
0.7178248,81.18626
0.74836904,79.26033
0.66511667,76.34291
0.6070351,74.73589
0.5298719,68.875496
0.5160397,70.87514
0.490004,65.39891
0.53196824,61.536823
0.47389588,64.27226
0.40392962,63.17598
0.46571252,55.929497
0.4331725,50.472256
0.34323773,52.52171
0.45163518,49.987762
0.4815335,47.33026
0.42957377,45.72117
0.39522383,42.51971
0.40680918,40.0
0.41140923,40.505615
0.37429628,41.572342
0.45040816,40.0
0.38926682,40.0
0.40159917,40.0
0.26156095,40.0
0.2896473,40.0
0.30190316,40.0
0.121437185,40.0
0.12826909,40.0
0.15974928,40.0
0.092483506,40.0
0.1348308,40.0
0.020013621,40.0
0.058372606,43.37859
0.09978618,40.20423
0.10144374,48.20523
0.21826996,44.910492
0.17531347,51.171368
0.2520648,50.63793
0.33430704,56.56417
0.4255732,62.307594
0.4571676,62.869816
0.639684,72.86224
0.7278407,76.95905
0.84303707,79.68925
0.8229262,87.088524
0.8656921,90.34026
1.0888337,95.64516
1.1114123,94.15651
1.2490895,101.023926
1.3096274,110.60336
1.281319,119.48151
1.2945998,118.46919
1.4510584,124.60115
1.4933503,123.11232
1.4953898,129.41817
1.515208,130.24194
1.545877,136.02094
1.6045191,139.39886
1.576756,137.32661
1.6047636,141.09074
1.6338574,138.39551
1.5972772,141.1505
1.6468378,147.01305
1.6420985,144.25313
1.5656531,144.33803
1.5461191,139.8061
1.5135627,139.06798
1.4763505,141.43839
1.4991614,139.98132
1.4828563,136.93312
1.3556162,132.98381
1.4068575,134.97015
1.3479533,131.08594
1.3602291,133.14276
1.2789773,127.87646
1.3392996,127.810425
1.2938101,120.48173
1.2290546,119.293625
1.2200556,118.07376
1.2433813,113.15741
1.2038536,114.28394
1.206144,111.209816
1.2404517,109.915344
1.1290191,103.19447
1.1455485,101.10783
1.2146467,97.946495
1.1878309,93.85584
1.1445111,99.05287
1.1463543,94.698296
1.0444937,88.75728
1.0386453,88.31274
1.0867631,87.23407
1.0599703,85.602554
0.98236203,78.39907
1.0169498,76.15859
0.9288861,76.955345
0.7803137,71.626
0.76432204,70.13917
0.83876723,64.95577
0.76855487,62.54457
0.69797385,58.160896
0.68696064,61.731308
0.751085,56.11656
0.7119798,53.168232
0.7501627,48.780495
0.667605,47.736347
0.75844765,46.45301
0.8381467,43.0705
0.73245966,40.0
0.72652483,41.21787
0.6520643,40.0
0.6468827,40.0
0.6200078,40.0
0.68869996,40.0
0.6334036,40.0
0.6399797,40.0
0.6086437,40.0
0.60649943,40.0
0.6306801,40.0
0.41965607,40.0
0.41428605,40.0
0.4018061,40.0
0.43740776,40.0
0.41606843,40.0
0.36946604,40.01803
0.37044173,43.060913
0.45206374,43.041378
0.433798,48.127163
0.53809345,54.03239
0.63632816,56.979286
0.7134248,59.012203
0.78502697,67.57625
0.8572776,70.1825
0.88251424,74.37001
1.1365539,77.8083
1.0755024,82.565285
1.2739239,82.758736
1.3569063,93.60309
1.4010795,96.69965
1.5619664,99.58438
1.524827,106.308495
1.6288972,112.051674
1.6014478,116.88364
1.6583304,120.38524
1.688947,122.29573
1.8111622,126.70945
1.75978,126.49809
1.9773943,130.62076
1.8904085,137.83385
1.7899642,138.13266
1.869228,142.92294
1.8352814,140.39459
1.964253,139.25821
1.8963964,140.38113
1.8463469,144.2986
1.8134787,142.80742
1.9034113,142.0657
1.8498174,139.83426
1.8615345,145.26106
1.8678086,138.7896
1.7374789,133.66518
1.7529128,139.79976
1.6800605,133.86517
1.6689548,134.51898
1.6709452,131.57333
1.5721886,130.43504
1.6717775,131.52156
1.5835242,126.7973
1.5889559,122.43502
1.5512784,122.589745
1.5140504,116.01206
1.4712294,115.43341
1.4479465,113.230194
1.4940168,114.2554
1.535948,110.12367
1.3994052,102.58971
1.4383489,98.70909
1.4558578,98.79952
1.4173949,98.79543
1.3589159,96.00281
1.4383982,89.05587
1.318986,89.44171
1.4078406,88.76398
1.1832706,82.87668
1.2229626,82.2244
1.1588947,76.18482
1.164548,79.41581
1.1408925,72.503685
1.1296932,67.47839
1.0527383,63.75636
0.97035104,67.96022
0.9563776,63.096664
1.0001671,61.924038
0.94086856,58.22332
0.8766553,53.0717
0.8138799,50.250614
0.9082874,45.469673
0.91555864,44.27849
0.85148335,45.951134
0.8891201,41.461704
0.90123945,41.007496
0.95076376,40.0
0.8552727,40.0
0.9220352,40.0
0.76799214,40.0
0.8190962,40.0
0.8529935,40.0
0.7418428,40.0
0.6807517,40.0
0.64637065,40.0
0.60436857,40.0
0.630925,40.0
0.54988956,40.0
0.5344128,40.0
0.5603917,40.0
0.5581715,40.0
0.60190743,40.0
0.6356459,44.676693
0.5496249,48.800606
0.59097284,51.475845
0.6741155,51.307938
0.7146575,55.829975
0.88251394,60.43722
0.9407416,68.24146
1.0909032,69.66015
1.1373979,73.46219
1.2167125,80.45405
1.3234353,83.43342
1.4533176,87.5826
1.4658694,99.42821
1.5680139,99.025314
1.7269976,102.32412
1.6794701,109.42939
1.6818118,111.87685
1.8156115,114.199486
1.8717072,123.05204
1.8565346,126.05818
1.8860773,130.50035
1.9474888,132.16953
1.8696809,136.52672
1.923607,136.49846
1.8595709,134.12476
1.97101,140.61168
1.9990512,145.55692
1.9189484,138.75584
1.8924756,139.95453
1.9021841,144.0046
1.8310529,143.83951
1.8946967,141.55609
1.8685386,145.05486
1.8346295,139.8777
1.8661199,139.4455
1.7708676,140.55737
1.7479668,132.24644
1.7027715,135.41304
1.6349578,135.29634
1.6692058,128.50688
1.6102779,128.62595
1.5371742,128.93451
1.5809015,123.161934
1.4842924,118.8384
1.5540658,114.58641
1.4843514,118.222084
1.4088739,116.83416
1.37428,111.60202
1.3952458,109.104965
1.3536466,106.30303
1.3539832,99.85115
1.3780502,98.95893
1.4197555,97.247765
1.2912604,97.047
1.3179537,93.42936
1.3305808,91.2711
1.2035108,86.02396
1.2403433,84.0106
1.1458716,82.24677
1.1668999,82.07812
1.0205944,73.96315
1.0549285,78.15375
0.9366516,71.32153
1.0093051,70.87152
0.94118285,70.26159
0.8517958,61.05752
0.83778006,61.845806
0.8538404,60.980053
0.72835207,54.799095
0.8112657,50.62023
0.7501488,49.632988
0.7134024,51.372643
0.7725605,45.229145
0.8252848,48.262047
0.71220374,40.0
0.748081,42.922695
0.72712225,40.0
0.7443882,40.0
0.6773358,40.0
0.61043245,40.0
0.57097805,40.0
0.69562846,40.0
0.56332356,40.0
0.5419834,40.0
0.42355192,40.0
0.38269565,40.0
0.45514125,40.0
0.3932591,40.0
0.3137943,40.0
0.29957157,40.0
0.32597172,42.838726
0.40590107,40.830933
0.3220726,46.84545
0.41162992,50.666214
0.3910693,47.016518
0.5320892,52.61057
0.6152776,59.47418
0.6325513,61.00876
0.76242375,70.04279
0.89785755,71.71041
0.8676187,73.736435
0.99957174,89.31927
1.0870452,90.90248
1.1709278,95.38958
1.2872143,99.08985
1.275461,100.11073
1.342538,106.57998
1.4915323,108.36492
1.5128727,117.734634
1.5764155,115.574394
1.6023698,127.58238
1.6023264,122.155556
1.5762202,132.15625
1.6714275,131.56638
1.5824089,135.53946
1.6625779,137.07576
1.6343092,141.19899
1.6346639,139.77274
1.672435,141.69469
1.5862249,146.8815
1.5727034,144.04787
1.6707182,139.64053
1.5818951,144.99533
1.5209187,137.35841
1.4879035,142.24838
1.5343068,140.26573
1.424429,139.59305
1.3978319,139.0736
1.4033567,135.50401
1.3938254,132.75838
1.2807052,137.7766
1.3552979,131.23454
1.2313124,127.64311
1.3210489,124.0567
1.2166694,123.42507
1.2231688,118.94463
1.0800952,117.59654
1.113175,112.40231
1.1465247,110.4665
1.1829774,105.41174
1.1067754,104.6365
1.1053077,100.592804
1.0407245,96.876144
1.0002948,98.34996
1.0706027,100.21946
1.0442647,94.0602
1.0649649,99.06425
0.93257725,83.24911
0.9733949,88.05505
0.8711516,84.410736
0.8008319,73.31371
0.87280536,75.39916
0.84230787,74.110016
0.74105525,72.28261
0.60909665,68.8094
0.5782287,69.76154
0.5806383,65.494194
0.5383491,62.855125
0.5003073,59.43548
0.5731069,56.44127
0.4765775,53.562088
0.5096987,51.990517
0.44914132,51.170986
0.48138523,43.234608
0.4951097,43.953213
0.41414967,40.31467
0.44871157,41.156578
0.43389204,40.0
0.33772615,40.0
0.37529734,40.0
0.40971392,40.0
0.37658125,40.0
0.27526706,40.0
0.34019056,40.0
0.22610496,40.0
0.1496148,40.0
0.10469892,40.0
0.024644796,40.0
0.056424618,40.0
0.009391864,40.0
-0.052826222,40.0
-0.049321253,40.0
0.07093482,41.05779
0.07927842,41.773403
0.05321205,51.939083
0.09163023,52.740646
0.18763097,60.74119
0.17842537,58.30946
0.31006813,61.04391
0.41134557,64.218575
0.42348102,72.266464
0.63246405,77.66714
0.7309738,76.64734
0.7227943,86.80862
0.881702,91.454895
0.9111423,93.7795
0.9520316,100.6942
1.0636752,105.33142
1.1178514,105.26009
1.2790574,114.45572
1.321375,116.562126
1.3015141,121.599945
1.3452854,124.689415
1.3549048,132.2463
1.3457602,130.22806
1.3936254,140.26413
1.3794764,138.26332
1.4532657,136.96536
1.4123808,139.17783
1.3530642,142.73804
1.4004406,138.97888
1.3511851,140.62778
1.3737024,141.02676
1.3155519,143.82889
1.2961217,138.58865
1.2686957,140.91472
1.3083428,141.86786
1.210176,136.93904
1.2276347,137.95262
1.1258715,136.168
1.1304262,133.24957
1.0849326,133.31554
1.0825127,130.23366
1.0684321,131.08511
0.9476734,126.39032
0.9843451,125.95219
1.0138551,121.24478
0.9912903,119.079475
0.9174689,112.65614
0.92998993,110.307175
0.9382104,109.29114
0.9253887,110.60618
0.903916,103.39958
0.89595735,98.41842
0.8886465,100.55478
0.82914233,98.23177
0.8360849,100.01719
0.7982484,89.433136
0.7999154,86.25042
0.7717432,89.03237
0.710432,86.63514
0.6429342,81.06106
0.6391654,78.42162
0.5401753,77.92845
0.5671842,69.28077
0.52622724,74.32865
0.3959805,67.783554
0.40171632,70.694855
0.44988903,62.695663
0.30083957,62.814354
0.3721989,63.409576
0.39429066,51.624195
0.34763855,51.077576
0.3481793,54.60335
0.39194927,45.327087
0.328342,45.7574
0.31115896,44.998386
0.2954576,40.0
0.3370805,40.0
0.3645242,40.0
0.31826106,40.0
0.25832638,40.0
0.31839466,40.0
0.22553581,40.0
0.18249327,40.0
0.14001311,40.0
0.094236605,40.0
0.018967217,40.0
0.09716763,40.0
0.023963341,40.0
0.053858098,40.0
-0.020993201,40.0
-0.0015520559,40.0
0.005095783,43.25138
-0.011956658,40.03473
0.060948994,45.93962
0.0909073,49.70359
0.04906557,48.99973
0.27048114,57.098804
0.27009973,63.55052
0.32077578,66.07078
0.42112598,70.001526
0.5117804,69.796875
0.64603066,78.71998
0.74292153,84.64046
0.762815,87.65288
0.89043134,94.62323
1.0174208,100.3596
1.0307037,103.281586
1.1558298,111.0735
1.2089448,111.230934
1.2138103,114.22453
1.2943803,119.30039
1.2368636,127.002884
1.34658,125.38861
1.3944438,132.27036
1.3992326,135.03488
1.401683,133.52274
1.5201203,136.3185
1.4347085,137.9553
1.4771315,139.9351
1.4832749,142.73712
1.3781667,141.88773
1.4189461,143.1123
1.5133151,143.1149
1.3934772,142.30753
1.3298395,142.29161
1.3706443,138.19089
1.3232092,143.82109
1.3583837,134.17123
1.3888915,137.59302
1.2609887,135.17473
1.1850302,131.85631
1.1990076,131.27368
1.1485398,129.7377
1.0897154,127.328255
1.1090877,125.32487
1.1183419,122.69917
1.0494804,118.34
1.0963389,116.08894
1.1330585,114.00551
1.0890418,108.45415
1.0579201,109.04703
1.1680665,103.4959
1.0035954,106.43888
1.0822706,102.37114
0.9972856,102.111435
1.0792046,99.17297
0.93987656,92.297485
0.9946223,88.57723
0.98994595,88.06643
0.8372451,86.6816
0.8199024,83.78667
0.8036946,78.73061
0.79116136,81.42211
0.7497489,75.77188
0.6720414,72.7707
0.6950568,70.20413
0.6128999,65.26926
0.61978024,65.03381
0.5472981,63.99621
0.59648424,58.772923
0.5692585,55.124966
0.5366542,52.065964
0.57193017,47.619247
0.619283,48.28516
0.53119636,45.567295
0.49714085,44.653343
0.6025001,40.177086
0.6045087,40.0
0.521573,40.86974
0.49138358,40.0
0.5599369,40.0
0.48871723,40.0
0.48465946,40.0
0.53065825,40.0
0.41122925,40.0
0.46569207,40.0
0.33800873,40.0
0.30575615,40.0
0.322189,40.0
0.23029509,40.0
0.2625924,40.0
0.23736493,40.0
0.17040288,40.0
0.30050492,40.06904
0.32546914,43.30841
0.30407095,46.43093
0.43046254,51.286823
0.39199013,53.713993
0.54084796,56.181793
0.6265899,60.834064
0.7486622,68.02397
0.7244079,70.74014
0.89227706,74.336914
0.9475198,82.16209
1.1754299,87.4281
1.2195101,91.56601
1.2142818,98.17865
1.3239061,97.366615
1.4023501,99.79714
1.6188877,110.6818
1.5909926,111.10893
1.619975,117.21268
1.6381111,118.51138
1.7716149,129.80946
1.613556,128.80473
1.7574617,131.09398
1.8064265,134.4458
1.7938633,142.05646
1.6210017,136.9756
1.7444113,139.06293
1.7513665,143.1824
1.7176695,142.44818
1.7966911,147.03712
1.7253951,148.09998
1.6352943,143.50107
1.7303487,140.57275
1.7709723,139.72273
1.7006925,140.1124
1.5930803,137.80956
1.6208206,139.24382
1.6290709,136.88547
1.5817052,134.28282
1.537723,132.23
1.530321,128.5518
1.5367569,131.04643
1.4743527,129.20074
1.3918772,121.2035
1.4923744,124.66757
1.3653728,118.240326
1.409868,113.77643
1.3439225,115.18914
1.3929114,107.99039
1.4226135,106.33951
1.3510581,101.82519
1.3844097,101.93216
1.3288974,98.423294
1.3472624,97.83929
1.3766001,93.78761
1.2722291,90.94526
1.2531226,92.36382
1.2012068,85.85915
1.2191492,83.30638
1.1886816,81.130615
1.1476562,80.36901
1.0753297,75.125404
1.0289911,76.658104
1.0574489,68.58474
0.94502395,68.76498
0.89644367,69.372696
0.88839847,64.33028
0.9060225,59.844414
0.90176797,57.489296
0.81323135,53.466053
0.8935231,49.702557
0.82895136,53.210857
0.83429813,44.221195
0.8792713,44.477436
0.9081064,42.00577
0.9546666,41.527664
0.84680426,40.0
0.8848627,40.0
0.87885845,40.0
0.7985618,40.0
0.880882,40.0
0.7540226,40.0
0.7297373,40.0
0.70262545,40.0
0.7242853,40.0
0.6611131,40.0
0.5455002,40.0
0.5750182,40.0
0.5326978,40.0
0.43586951,41.720467
0.55983627,40.0
0.53982306,40.0
0.5279056,45.104015
0.6337234,47.24108
0.5969072,48.140038
0.7292087,53.699448
0.76960367,56.421185
0.8107045,63.75425
0.9281398,62.261536
1.0693532,71.667984
1.0970204,72.92984
1.2440217,76.52449
1.2159599,84.84455
1.332608,83.59168
1.4613086,92.13248
1.5184531,94.81215
1.5962038,103.90877
1.6784405,106.848625
1.7492301,110.96618
1.8262503,116.693695
1.9113617,115.78031
1.8534483,124.59445
1.9484162,127.83429
1.9669145,130.4848
1.9434868,132.38959
1.9510767,135.38979
1.9437929,135.74721
1.9948026,140.16281
1.9690565,142.06633
1.9992194,141.9523
1.9479727,141.86511
1.9551198,141.9391
2.005407,141.90569
1.9458444,142.13644
1.8857805,142.09085
1.8566499,145.56024
1.826288,139.91634
1.8027596,136.8064
1.8069665,133.8864
1.7371552,134.8788
1.6998402,134.59352
1.6856459,132.01328
1.7168362,126.330315
1.6816233,124.76222
1.5840895,124.48568
1.5318433,122.23979
1.5716062,120.8553
1.5727345,120.351944
1.5442803,110.5418
1.4848505,110.55812
1.4612877,106.88262
1.5521544,106.9957
1.4766564,103.59563
1.5041268,100.82131
1.3541613,99.54697
1.456708,97.78052
1.432227,88.89661
1.3989868,88.96959
1.3256158,81.26713
1.2949184,84.26146
1.2844933,77.86379
1.244243,81.38658
1.213232,78.5726
1.1011662,75.92014
1.1716914,73.66488
1.0709577,72.291435
0.9974462,68.28596
0.9927353,63.50458
0.96581733,64.395065
0.901622,60.500114
0.83589274,57.375446
0.88233876,55.18883
0.97994393,50.204063
0.95260316,47.314644
0.84262633,44.23605
0.93485594,42.75623
0.89607817,41.910725
0.86161757,40.0
0.91716826,40.0
0.8976012,40.0
0.9425803,40.0
0.7688382,40.0
0.8037551,40.0
0.65663236,40.0
0.67882836,40.0
0.60258603,40.0
0.65495014,40.0
0.5756421,40.0
0.5776973,40.0
0.5770572,40.0
0.45264956,40.0
0.47000265,40.0
0.48884252,41.05517
0.5337446,42.40951
0.4834332,44.44314
0.5632878,47.416958
0.5737456,51.302994
0.58624333,54.411415
0.7165338,61.68518
0.7735703,62.908825
0.89751804,64.69125
0.9654451,70.57773
1.0907385,73.99323
1.1467292,79.86271
1.1172109,90.87671
1.3221323,88.3308
1.2822498,99.67012
1.4556675,103.195145
1.5547848,109.94477
1.5307811,106.43684
1.6925404,115.29025
1.6757014,116.14992
1.678148,123.5082
1.785693,123.702896
1.7763878,127.513725
1.850683,133.76259
1.7379093,134.47807
1.8474479,137.87054
1.8881114,137.59248
1.791121,140.74341
1.7950509,146.78415
1.8203565,143.1995
1.7040915,142.86682
1.7433507,139.62778
1.8026416,140.89137
1.5996166,146.4671
1.7644775,144.33823
1.6089296,137.2673
1.6059698,141.67291
1.584723,138.64293
1.5239049,136.99312
1.540112,133.08023
1.5203633,131.40346
1.5120184,128.64738
1.4020053,129.51273
1.4152999,125.43667
1.359687,118.61192
1.3011367,121.291885
1.3305593,117.29986
1.3390324,118.94916
1.2951702,115.81035
1.2303604,109.51935
1.2266659,109.18528
1.2623991,100.663124
1.2086208,103.703476
1.1687552,97.18775
1.1828579,94.642044
1.1773382,91.52338
1.238017,94.071495
1.2132264,90.62603
1.1223907,88.531624
1.0373672,80.43901
1.0013971,77.16677
0.90246713,77.413376
0.8394332,78.55923
0.8608333,73.34977
0.77464986,67.07476
0.6505411,65.53697
0.81826127,65.61796
0.7313211,61.11764
0.67497957,61.596264
0.69122815,58.918957
0.6494841,53.63957
0.4673669,55.389866
0.6275225,48.248356
0.6532575,47.29726
0.5512841,45.10055
0.5086212,42.643448
0.6072401,40.851112
0.59125924,40.0
0.5544427,40.0
0.6478483,40.0
0.47986346,40.0
0.4649098,40.0
0.46290225,40.0
0.4360437,40.0
0.3343319,40.0
0.3534077,40.0
0.30355233,40.0
0.34219018,40.0
0.24287808,40.0
0.17202735,40.0
0.18140015,40.0
0.15960877,40.0
0.18377818,40.84791
0.20861125,40.0
0.18165159,46.76928
0.22839418,48.226704
0.2901265,54.38627
0.4294183,57.381393
0.3983639,64.307365
0.52347016,61.40571
0.5396533,72.818634
0.7841214,77.6728
0.74174875,81.10518
0.81165934,86.508835
0.89606655,89.31547
1.0431786,99.61568
1.0940579,101.90456
1.1488415,101.29095
1.1584082,101.38968
1.363535,116.40708
1.3232069,116.441765
1.3859153,121.27146
1.3693904,124.92193
1.4838605,127.03352
1.3947021,130.91856
1.4435544,131.32597
1.4880382,135.46857
1.5161654,139.89587
1.4998358,144.26237
1.5478945,140.33467
1.5357985,141.56113
1.547693,143.31581
1.4633685,144.73714
1.363304,139.24887
1.4319569,139.3245
1.4717292,142.17938
1.362257,143.26288
1.3484949,142.07843
1.3030179,138.32901
1.2054695,139.86826
1.2153857,135.9589
1.1104752,133.51346
1.1446755,128.78014
1.1639205,129.11858
1.1013932,129.4974
1.0472068,122.81948
1.0521338,122.72243
1.0014511,120.13236
1.003381,116.41249
1.080906,108.485054
0.96653736,110.69851
0.93136925,115.2128
0.9708935,104.08948
0.9877829,104.013
0.9009993,101.90811
0.9108133,100.53147
0.9140236,97.59756
0.9272221,92.933205
0.9146328,94.457695
0.7960217,85.57611
0.717317,82.57648
0.7475325,76.64434
0.6757793,82.265144
0.7285587,79.30916
0.6162515,73.8829
0.6005434,69.41833
0.46630484,69.099396
0.45791414,65.872444
0.3966695,64.14184
0.42244184,62.638096
0.3647066,58.238464
0.32098216,58.66398
0.33963093,55.668636
0.31798542,51.988373
0.35058805,46.988056
0.35593468,47.897682
0.38552338,40.194122
0.360852,45.665382
0.2592948,40.0
0.28543717,40.0
0.2923905,40.0
0.29876333,40.0
0.2065815,40.0
0.20890057,40.0
0.19304022,40.0
0.12252093,40.0
0.1045991,40.0
0.037782654,40.0
0.04806901,40.0
0.012449007,40.0
-0.012980586,41.03638
-0.03059909,40.0
0.001989329,40.0
-0.12584743,40.0
-0.05828772,41.98795
-0.066303626,41.554577
0.06432522,48.28883
-0.031035637,49.673416
0.10974194,53.761215
0.16304395,60.220016
0.32727143,63.809273
0.38167217,67.14272
0.43785423,70.752335
0.59560454,73.072365
0.6174659,82.06079
0.73475164,86.47578
0.8437393,89.4436
0.8895716,97.10543
1.0235965,99.01738
1.0924704,105.707794
1.1147326,110.984474
1.2023721,113.415924
1.2485709,117.66866
1.2266091,120.16181
1.2806917,127.192345
1.3173944,125.792366
1.4148042,130.53806
1.4323423,136.58327
1.275155,133.90973
1.3609331,135.8792
1.3033092,136.55386
1.3846048,144.13704
1.4038602,143.53494
1.3232877,142.01675
1.2952507,146.81093
1.2670522,145.07053
1.2994305,145.0607
1.343461,144.19482
1.2488713,139.9031
1.276583,140.09892
1.1162956,137.7151
1.1954619,137.38727
1.1576954,127.315926
1.1854961,132.343
1.0199459,129.86758
1.092155,123.977
0.95168114,127.90028
1.0092876,122.04193
0.9664969,118.203995
0.9517683,120.511665
1.0057759,113.14875
1.0218244,109.638885
0.86620164,112.66258
0.976984,108.883896
0.87316394,108.17869
0.880419,105.50898
0.9016113,102.07299
0.88303745,100.785675
0.899171,93.659676
0.8209674,92.00055
0.90205944,90.1783
0.8560625,87.25899
0.7527461,82.53765
0.6599865,81.26308
0.6944095,81.22723
0.68828636,75.556984
0.60780084,71.91599
0.5334063,69.57291
0.5107544,69.85307
0.5033063,64.03192
0.4144127,59.439877
0.4086439,54.85158
0.52794677,60.412975
0.43146268,54.82567
0.38299432,49.405888
0.442749,55.402393
0.47636825,46.26137
0.43972003,49.995945
0.407398,44.016747
0.4281423,41.65834
0.42322394,40.0
0.39815095,40.0
0.4093198,40.0
0.4171137,40.0
0.34641832,40.0
0.36942586,40.0
0.27773985,40.0
0.16216798,40.0
0.2515082,40.0
0.20133103,40.0
0.10141217,40.0
0.14820908,40.0
0.13706832,40.0
0.123528205,40.0
0.10719443,42.796955
0.077284925,40.0
0.16585146,45.23016
0.16197038,44.6434
0.2684941,51.35495
0.20956317,51.176044
0.36324707,55.430687
0.40939456,59.71644
0.5577755,64.683716
0.6057626,71.57554
0.72695667,70.48673
0.8097605,80.34544
0.8998546,86.09551
0.95016044,89.4154
0.98678726,90.472565
1.139349,97.63189
1.25752,104.00921
1.3151344,104.325195
1.4129552,114.638466
1.4540635,115.05067
1.4806266,117.97358
1.4891677,125.28783
1.5281956,128.50261
1.5307204,130.61697
1.5521004,133.02222
1.6002597,135.01466
1.6330676,142.7857
1.5905757,136.0693
1.6175781,144.60364
1.645578,140.79588
1.5877327,143.14175
1.5864002,136.64229
1.5695565,142.7404
1.6228255,144.46005
1.5855161,142.27576
1.5402046,138.84407
1.5476109,144.9619
1.5230463,138.98828
1.444416,140.44267
1.5062867,133.57214
1.3586117,132.68536
1.3906189,130.1713
1.3721362,129.0059
1.3831269,123.5281
1.2429761,127.019104
1.3197998,122.67465
1.1927409,119.40728
1.2297044,119.14379
1.3052249,109.4392
1.1817639,106.51652
1.2177321,105.73492
1.1986687,107.665
1.2900262,104.79177
1.1975727,98.45499
1.1485554,96.8217
1.2341664,94.68746
1.2491525,92.21965
1.0858517,90.20433
1.0559865,86.81426
1.0659664,84.17592
1.0154073,82.484665
1.0099719,79.57251
1.010683,72.49693
0.9708439,72.62025
0.81613314,75.695786
0.895481,69.14561
0.80818784,72.5424
0.7724925,70.36117
0.8786121,61.77691
0.7334727,54.671227
0.754167,57.485447
0.7335234,51.27147
0.6926806,52.241005
0.74461687,52.485706
0.74217975,44.835617
0.7712485,44.69345
0.7114887,42.316628
0.7622871,40.0
0.8460766,40.0
0.78014266,40.0
0.71329814,40.0
0.62469685,40.0
0.699767,40.0
0.5926169,40.0
0.60606706,40.0
0.53436965,40.0
0.6421208,40.0
0.58293474,40.0
0.43165365,40.0
0.5015853,40.0
0.4967067,40.0
0.37984237,40.0
0.4059318,45.78421
0.45322874,40.0
0.47019792,47.167076
0.5319343,52.062626
0.5481259,47.720554
0.616058,57.060562
0.7116079,58.231976
0.79885036,61.77013
0.8666747,67.784424
0.94093865,71.43219
1.0915167,75.729744
1.1881909,80.905106
1.3018444,87.33213
1.4031168,92.10421
1.4988467,97.5174
1.4199817,99.57547
1.5478095,102.978264
1.6571451,108.905334
1.7193525,115.85909
1.7586861,119.77232
1.732156,123.54449
1.7829642,128.44614
1.836939,133.40569
1.8767029,133.89859
1.9229542,132.58919
1.9300255,134.67473
1.944255,137.85635
1.9323934,140.52086
1.9798723,145.12778
1.8921365,141.72247
1.8970157,146.89417
1.8501161,145.62299
1.9064965,144.18529
1.9145838,140.0665
1.8584732,142.02284
1.7769127,137.40997
1.7036461,147.93515
1.7530092,141.61569
1.7010796,135.77512
1.6556381,134.47095
1.678616,134.5972
1.6419134,126.6444
1.5729753,125.96087
1.5531019,129.62225
1.499468,124.415764
1.5775863,122.59261
1.5367215,112.60885
1.5332507,116.80098
1.54197,116.52585
1.4569467,117.35628
1.5453036,103.06157
1.4236859,108.31971
1.397493,104.29021
1.4607632,103.013405
1.3319056,95.73608
1.3744231,93.15702
1.3917305,92.170975
1.404345,85.43702
1.3589183,88.85715
1.2732584,80.0913
1.2383885,79.70687
1.2372831,81.54049
1.1819104,76.60328
1.1241026,69.46215
1.0926933,68.403114
1.0332302,70.42985
0.95369315,65.94109
1.0136479,63.632946
0.98119736,57.718987
0.9631352,52.31099
0.925956,54.694405
0.9974601,52.420856
0.9907879,48.009377
0.8768532,47.60285
0.8208891,43.501328
0.902071,43.687687
0.9400965,44.992847
0.9586435,40.0
0.8828824,40.0
0.92786884,40.0
0.90384024,40.0
0.87564546,40.0
0.8460162,40.0
0.79965675,40.0
0.7040845,40.0
0.6946142,40.0
0.7067191,40.0
0.5115598,40.0
0.59449404,40.0
0.5014704,40.0
0.59444773,40.0
0.4939578,40.0
0.60755646,40.0
0.55725294,48.088463
0.64051026,50.99245
0.6076013,52.708675
0.7173681,51.37839
0.73958665,58.683006
0.8564437,60.936073
0.9681611,66.30337
1.0323673,75.268166
1.1191821,74.91221
1.1120099,79.66317
1.267652,88.363625
1.3371339,90.030685
1.5309978,92.8708
1.5349389,98.45797
1.6972986,101.560905
1.6080475,107.15894
1.7169057,111.67047
1.8317149,115.12106
1.8031259,121.55009
1.925418,125.46694
1.879873,130.02692
1.9470949,130.76385
1.8744591,134.5458
1.8520972,135.05774
1.8518785,138.64056
1.912811,138.2047
1.9497225,138.62193
1.8863677,143.05444
2.0516093,142.261
1.9011334,142.66624
1.8652703,143.86574
1.9235115,144.35353
1.804948,145.45853
1.8201071,139.18806
1.7877711,143.74379
1.7176523,137.46696
1.6736442,139.414
1.7261101,134.81833
1.6446586,131.25047
1.5300885,130.23494
1.5391902,134.5627
1.5588984,126.56468
1.5510217,120.33461
1.5072957,121.836784
1.4802529,114.61291
1.497969,118.90297
1.5236021,115.834274
1.4795239,113.072426
1.4068141,108.02583
1.3773327,107.96231
1.4173815,107.95959
1.3390251,99.665344
1.3525227,96.24123
1.384946,96.55324
1.2631171,94.97453
1.2273647,88.05397
1.2383889,88.17954
1.2354931,82.63639
1.0768981,85.27544
1.1674964,83.86879
1.0180218,75.46617
1.060729,73.09286
1.0000092,71.06099
0.8866754,67.22455
0.8493315,64.21096
0.9095924,64.55493
0.8865594,62.428253
0.8099713,59.81218
0.7911151,52.00655
0.79537463,48.621178
0.7213203,55.19956
0.67730814,50.951084
0.78161,43.415035
0.7404987,42.85392
0.7161271,43.126198
0.7698241,40.0
0.73782593,40.0
0.7229344,40.0
0.66108626,40.0
0.67999697,40.0
0.67104954,40.0
0.6040982,40.0
0.55873007,40.0
0.4657866,40.0
0.44656366,40.0
0.43702814,40.0
0.40861547,40.0
0.3020907,40.0
0.327488,40.0
0.34396887,40.0
0.31954217,40.0
0.32367817,40.0
0.33679935,44.41225
0.49778503,49.106117
0.3461334,53.54429
0.5244848,55.522274
0.55714846,62.819855
0.6480274,55.672634
0.6779103,66.704315
0.8400139,72.523415
0.8779441,77.66778
0.981507,85.217
1.0828351,87.82621
1.1807272,96.37879
1.2843336,97.06451
1.3039925,101.94406
1.4235075,109.37494
1.4423819,113.033485
1.4675176,117.576584
1.5442469,116.03554
1.5432887,123.72522
1.5781271,123.00388
1.6651285,130.34254
1.5865752,131.2833
1.6346936,138.37598
1.6452163,135.82372
1.7164562,140.0527
1.6177471,141.93355
1.6171738,141.28017
1.5860485,144.94728
1.5846318,144.16925
1.5581135,139.9961
1.5889624,145.25565
1.5719349,144.36227
1.4666526,143.55148
1.5171134,143.67102
1.4792848,139.68846
1.3594749,138.35677
1.4913216,136.40071
1.3821162,138.10707
1.3743671,130.02188
1.3415505,127.52886
1.2035725,127.94042
1.2312846,123.75214
1.1855183,121.841515
1.0780919,121.63355
1.1384572,119.360054
1.162178,115.19693
1.0172698,108.83218
1.0879327,109.33
1.054225,103.543655
1.085637,105.270004
0.96599776,100.11873
1.0868018,98.92306
0.98396426,98.94008
0.92197716,96.69393
0.86360115,91.78816
0.95398384,83.44048
0.92140424,85.9491
0.8289879,84.226425
0.9673581,80.42965
0.7314894,82.12688
0.6854245,73.348694
0.6147262,69.695274
0.66982263,70.89274
0.6077922,64.37883
0.5242588,64.483765
0.50865465,66.2578
0.5479046,58.02369
0.42545447,57.34756
0.5097067,53.96346
0.3550838,51.091278
0.43428156,46.4998
0.44192484,47.623535
0.45424893,40.0
0.4717448,42.75075
0.47896996,41.788742
0.47006455,40.0
0.4430598,40.702583
0.4661743,40.0
0.28467977,40.0
0.34488747,40.0
0.31143895,40.0
0.2680604,40.0
0.14062706,40.0
0.18906417,40.0
0.11117498,40.0
0.15042947,40.0
0.03686496,40.0
0.014930759,40.0
-0.009096887,40.0
-0.025635973,40.0
-0.011774204,40.0
0.05155873,40.29564
0.093715735,46.80985
0.22763544,47.979336
0.12255619,54.252525
0.20294988,55.295815
0.24273102,60.925053
0.4126425,66.95615
0.5077614,68.812294
0.5801209,78.186035
0.68087876,80.367386
0.72446924,81.62595
0.8362114,87.96902
0.9393298,99.85664
1.0000954,98.38951
1.0977441,103.242226
1.1070849,109.371
1.2623271,116.3124
1.2420229,120.93746
1.2807901,121.851494
1.3251708,127.978546
1.3223802,129.80397
1.3495066,129.54074
1.3659629,132.2859
1.4028618,135.31863
1.3883361,137.16132
1.4005437,142.02774
1.4745108,139.7313
1.4610983,142.30339
1.3893796,143.86945
1.2981817,140.05934
1.3153695,142.96103
1.3308201,147.32582
1.3172971,141.00754
1.2491106,142.68764
1.2016106,138.85768
1.2564992,135.9514
1.1820312,135.7269
1.1215026,135.05734
1.0948039,135.7269
1.0286946,126.25224
1.0844355,130.80923
1.0661991,125.07196
0.99994534,123.97151
0.9949593,119.93613
0.9382205,123.13033
0.9003104,115.01492
0.879301,110.86031
0.9746644,108.94005
0.9475437,112.87941
0.8689653,106.71354
0.90268725,99.91284
0.8425084,101.17056
0.8882616,95.70694
0.7856606,99.68528
0.8155919,90.7502
0.79754364,86.08497
0.79693615,88.39485
0.7197057,89.80432
0.63607824,79.9062
0.56670123,79.68647
0.56350714,79.97899
0.55186176,71.595665
0.47015852,77.56613
0.4070938,68.52381
0.48543495,69.65323
0.40124506,62.27378
0.36715114,63.51445
0.35738337,58.272377
0.26484534,55.811867
0.39105773,48.87075
0.33853984,51.02131
0.30995017,46.45305
0.3645935,45.86362
0.33094874,43.793484
0.39959186,40.0
0.34231046,40.0
0.4487672,40.0
0.30537668,40.0
0.26238227,40.0
0.22453234,40.0
0.19748355,40.0
0.19056265,40.0
0.13659461,40.0
0.15513675,40.0
-0.002099819,40.0
0.1370493,40.0
-0.04972251,40.0
-0.040616956,40.0
-0.025959956,40.0
-0.037366923,40.0
-0.0033265706,40.0
0.0021109108,45.300606
0.029922595,45.633636
0.07181159,45.360977
0.11700235,48.86335
0.1999585,57.730022
0.28762418,59.21719
0.4037452,62.490376
0.4693856,69.50492
0.5528416,75.09415
0.63914025,71.64404
0.7215785,82.626656
0.827506,83.917046
0.9295723,93.503746
1.0198015,98.79207
1.0663145,102.85605
1.1041708,104.12208
1.2395467,109.66186
1.347252,110.51263
1.320184,117.57257
1.3850465,118.39044
1.3506905,125.304054
1.4189546,131.18054
1.4262066,131.51288
1.4935108,134.02106
1.4490377,131.75665
1.440879,135.96815
1.4860494,143.43837
1.5026742,139.31253
1.412019,141.80225
1.369739,141.27853
1.4328063,138.56355
1.4680693,141.27937
1.4968963,139.31976
1.3602427,144.6431
1.3674232,137.99338
1.3651615,138.36781
1.2640563,129.73428
1.2752564,138.70018
1.2566872,134.98592
1.2111553,131.74113
1.193315,131.2983
1.2493156,125.83917
1.1398916,124.872505
1.2585217,121.57289
1.1443399,120.54226
1.1293999,116.71236
1.0870415,111.13487
1.1642684,118.995705
1.054866,108.83166
1.018892,103.52315
1.0783175,108.330734
0.9932347,101.56738
1.0833032,93.11302
0.960535,95.169556
0.97217,91.63127
1.0503088,93.85867
0.872735,90.971115
0.979594,85.82717
0.88459426,81.34496
0.82886416,80.222374
0.79587936,76.79059
0.76783836,79.73774
0.81524867,74.45128
0.73332393,72.96664
0.68061435,68.87099
0.64526767,62.581905
0.6304154,63.74105
0.630194,60.936623
0.5989941,58.46814
0.5912307,54.0203
0.5549578,49.88165
0.5391932,50.544567
0.5756788,47.20079
0.6193645,44.199924
0.48598614,40.800034
0.57200044,40.0
0.54548,40.0
0.51561725,40.0
0.6391343,40.0
0.55119497,40.0
0.4946586,40.0
0.47330132,40.0
0.4786894,40.0
0.477578,40.0
0.40983197,40.0
0.32729042,40.0
0.366373,40.0
0.2863405,40.0
0.28990087,40.0
0.27572218,40.0
0.20598479,40.696278
0.3000544,43.971645
0.3513961,42.175568
0.38192624,49.824234
0.3346735,51.434364
0.43543473,54.223324
0.53136533,58.16537
0.6547341,57.71367
0.6640851,64.82943
0.7872571,74.77663
0.8718326,75.67663
0.909773,80.25778
1.1064408,82.494194
1.1465793,89.160576
1.2870795,93.676094
1.3837128,101.58692
1.4773815,102.025024
1.4437644,109.04776
1.5773432,109.48992
1.5210154,117.012375
1.6651584,120.996056
1.674258,127.67753
1.7599157,128.41684
1.8096344,132.4039
1.7928883,134.6903
1.8196106,134.98392
1.8288612,137.54723
1.7664424,141.813
1.8359386,139.38837
1.8264319,140.00809
1.8028013,142.49242
1.7279444,142.75537
1.7803881,143.26155
1.6996429,138.70512
1.6966871,139.78792
1.7427192,142.15932
1.6677605,140.03549
1.6132398,138.71227
1.6277075,135.56192
1.592885,137.21005
1.5411351,136.23653
1.5754436,132.45692
1.5370396,127.881
1.579598,127.24905
1.4880965,122.72009
1.5126574,122.655716
1.4203465,122.32262
1.4894975,114.45435
1.4531834,112.41578
1.4431039,112.12002
1.3745944,105.90391
1.4151853,106.36313
1.3895628,101.7649
1.3787521,101.509186
1.4576771,100.20447
1.2774508,90.25783
1.3538786,90.64465
1.3461732,89.70618
1.2873001,85.9698
1.252553,85.553444
1.0759435,80.79058
1.1105678,78.199165
1.1415254,76.49059
1.0421339,75.32037
0.9439617,69.09924
1.0013367,68.89797
0.99177676,66.26408
0.9712445,63.145954
0.91287833,62.273262
0.8640721,56.69034
0.9003326,53.9827
0.8623419,54.460716
0.7763381,46.010147
0.8183785,50.158936
0.85985667,45.34989
0.9317982,44.283566
0.90941143,43.814514
0.85456556,40.0
0.8550793,40.0
0.89273065,40.0
0.8884461,40.0
0.86183006,40.0
0.80696315,40.0
0.7564109,40.0
0.76044315,40.0
0.6697724,40.0
0.61269814,40.0
0.61604893,40.0
0.58459306,40.0
0.54716206,40.0
0.5038015,40.0
0.51072526,42.48022
0.49286342,41.63536
0.49763337,43.8467
0.57106245,44.824657
0.60750103,46.249973
0.6163841,49.7973
0.7629913,58.927544
0.82403076,62.222687
0.87547755,64.76131
0.95451856,69.29257
1.1297091,73.259384
1.2191699,76.65796
1.200546,82.80877
1.3808546,86.221466
1.3681755,92.44548
1.5635015,96.57813
1.574021,104.18857
1.600516,105.86062
1.752182,111.289
1.757279,112.537
1.749554,120.69581
1.870205,121.55067
1.9077493,129.09708
2.0122097,127.73955
1.9427649,137.57146
2.0778728,138.45595
1.9797678,140.67491
1.9545515,134.8751
1.9422759,144.13847
1.9204069,139.43993
2.0116901,144.12776
1.9945587,142.21603
1.9756643,144.53961
1.9609774,146.63931
1.8729627,141.52274
1.9163734,139.64676
1.8956275,137.81187
1.786405,142.47581
1.764361,137.87175
1.6762035,135.21823
1.7154399,130.83525
1.7507572,130.90892
1.6857694,130.89694
1.7187619,126.0268
1.5575986,124.41239
1.5526931,122.53922
1.5316552,120.28988
1.5176992,116.468
1.4371202,116.997894
1.5169854,113.6263
1.5008211,106.41299
1.483532,106.87493
1.4610128,104.95694
1.4417901,103.02458
1.5472368,95.77306
1.4686679,101.37151
1.3892376,93.636566
1.4207579,87.9847
1.2671808,86.050545
1.2771198,86.09084
1.1739076,82.56414
1.1890317,82.00195
1.1874844,75.67792
1.1252096,76.33415
1.1435829,68.528885
1.0281262,72.62528
0.9463694,63.05923
1.0043957,61.545612
0.9647957,61.018356
0.9715016,61.493855
0.9488446,55.968662
0.9588834,51.644955
0.9402169,48.896805
1.0150851,50.064163
0.9588233,46.155212
0.9510708,44.414852
0.87084204,46.126022
0.8324571,40.0
0.8823574,40.755924
0.829804,40.0
0.8548907,40.0
0.76222616,40.0
0.7916878,40.0
0.762985,40.0
0.6759565,40.0
0.64160335,40.0
0.5527025,40.0
0.5748778,40.0
0.47245944,40.0
0.49759156,40.0
0.48440036,40.0
0.5082183,40.0
0.52622867,40.0
0.4783408,40.983406
0.4829871,40.0
0.51246583,47.740253
0.523298,48.72136
0.5938346,54.6997
0.6353793,58.205505
0.79424447,62.137115
0.8182352,65.95352
1.009447,72.27111
1.0731945,71.6585
1.1192386,81.6594
1.227453,88.963806
1.3147706,92.02168
1.3472917,95.057205
1.5062187,98.12147
1.484775,109.487816
1.5557817,108.57475
1.6160306,115.88254
1.6807885,119.33813
1.6500431,117.792046
1.6963019,127.204
1.7633777,130.27866
1.7692275,131.5972
1.811878,133.99538
1.7420316,134.5487
1.7358804,138.30461
1.7880701,144.72308
1.8339114,144.20172
1.8116319,141.98016
1.7908053,143.31967
1.7630645,143.81297
1.7584037,140.97893
1.6525701,141.78322
1.6660995,138.76027
1.6238377,142.69962
1.5389394,143.31636
1.6013079,141.41219
1.4925722,140.46938
1.5392429,132.85378
1.5259342,134.5981
1.4649347,127.062126
1.420843,129.91301
1.3171439,127.61056
1.391705,124.8815
1.3056645,119.91058
1.3143474,116.368774
1.2474595,114.72442
1.2765163,113.392715
1.281828,112.11268
1.2376099,100.647835
1.2410637,110.27455
1.2879728,103.513084
1.1514167,97.22267
1.1665069,95.05203
1.1532317,94.99368
1.1431679,93.50464
1.0855907,89.83982
1.1099335,85.26031
1.0078375,85.71465
0.9865228,78.644745
0.9185161,80.39551
0.91117704,76.057396
0.89447385,71.57287
0.74786866,68.551834
0.7188899,68.24262
0.75535804,64.713554
0.6950272,62.470093
0.6493356,65.05688
0.60318595,58.911995
0.5593987,55.176643
0.58757704,53.359398
0.62957555,50.59778
0.55837893,44.37009
0.52444226,44.54683
0.57552165,43.832527
0.5410884,42.778713
0.55457586,40.0
0.5430916,41.69256
0.5199302,40.0
0.44859484,40.0
0.5598204,40.0
0.39236903,40.0
0.3778149,40.0
0.2926829,40.0
0.2796548,40.0
0.2489007,40.0
0.29679516,40.0
0.19830503,40.0
0.18690272,40.0
0.107592426,41.07971
0.17047451,42.3103
0.06260959,41.871677
0.15468726,40.797714
0.13773054,47.478294
0.20009005,50.652172
0.24127437,51.66508
0.37100148,55.114914
0.37910357,58.72739
0.43231338,62.470028
0.5952632,71.121506
0.7514182,76.52953
0.7523967,78.06507
0.8263286,83.02543
0.87973243,87.29878
0.95859575,95.24156
1.0683502,99.1029
1.1565671,102.485695
1.1928514,105.5802
1.274969,112.416954
1.2093396,117.20784
1.2649881,120.76332
1.4133203,123.14196
1.3799727,124.79521
1.3824193,130.17737
1.4365358,132.02376
1.5020517,134.76439
1.4213767,138.67877
1.38841,135.2946
1.4993981,143.05412
1.4955685,139.1431
1.4556992,142.54576
1.4717774,141.49901
1.5166416,141.35599
1.392992,145.21925
1.3732804,142.17099
1.3692392,139.87209
1.3159267,141.28993
1.2216591,139.48462
1.2606022,135.62862
1.226998,135.37776
1.1463552,134.76578
1.1355008,131.36143
1.0953423,131.87668
1.1349343,131.08084
1.0327246,124.93222
1.0805534,124.46509
1.0558777,115.24576
1.0096776,116.56632
0.93118936,119.09516
0.9936893,113.18616
0.95398945,109.71619
0.91944754,110.86685
0.9825523,106.11195
0.94297075,101.95505
0.8979651,99.426956
0.857674,95.7056
0.82574797,94.30589
0.77851653,91.30584
0.8315551,85.44853
0.7863518,86.22213
0.73236316,82.9266
0.63016236,81.14929
0.6685938,79.12313
0.58719474,74.108795
0.49654853,76.909546
0.51220006,72.380646
0.443253,67.23649
0.41630584,61.612576
0.46641803,63.973854
0.370088,58.24513
0.37791508,53.64668
0.39321554,52.233242
0.3713399,49.626484
0.31855017,49.4014
0.23296502,45.590187
0.38342208,42.740986
0.35074282,40.0
0.40766242,40.51388
0.293087,40.0
0.29126254,40.0
0.30936575,40.0
0.27676374,40.0
0.1196092,40.0
0.1408578,40.0
0.118877955,40.0
0.12218048,40.0
0.05564128,40.0
0.13333665,40.0
0.06551695,40.0
-0.01003633,40.0
0.011661398,40.0
-0.033096403,40.871166
0.018801931,40.0
-0.014551616,44.271507
-0.08355823,47.847176
0.07415677,44.543118
0.11977528,54.94678
0.15311433,53.726246
0.069273084,59.889767
0.26359603,62.715195
0.3175777,64.07564
0.44308996,73.07999
0.5820549,77.31686
0.5692945,83.16279
0.71941954,85.518326
0.84112746,88.123634
0.9459855,99.6885
0.9528692,97.961815
0.98954123,108.62913
1.1485562,106.36047
1.2040944,116.60325
1.157652,120.94848
1.3511821,127.8705
1.2506773,126.652824
1.4078572,128.95403
1.3238243,127.869865
1.3447564,137.06813
1.3335357,136.34702
1.3851117,138.59425
1.369203,140.75923
1.4162164,141.43799
1.3647728,140.02596
1.2775096,143.77965
1.3708986,142.9562
1.3381455,140.77063
1.3358294,143.4445
1.2605582,140.39635
1.3046788,142.863
1.2493967,143.02684
1.2364516,136.41327
1.1918334,135.28625
1.1417944,133.97438
1.1742134,130.08392
1.1007173,132.25714
1.0478159,126.232704
1.0338929,125.95475
1.1369123,122.49789
0.9746315,118.3923
0.9777867,118.139046
0.8994537,116.787766
0.9886482,112.79607
0.8848537,109.793365
0.86389846,109.70569
0.9821497,100.742615
0.88882965,100.17753
0.9848618,94.27801
0.9730608,98.59764
0.8711155,92.97591
1.002523,91.20063
0.8787953,87.16624
0.8111684,85.833694
0.8096236,86.7258
0.7122051,81.535324
0.7222446,79.383804
0.6733288,81.0766
0.6929617,77.28075
0.62549645,67.167725
0.5299474,69.382286
0.55711114,64.61113
0.48490325,65.18115
0.44488406,58.664104
0.48621,57.054874
0.3898343,56.017757
0.45922005,54.022507
0.454695,50.154343
0.39811286,44.111206
0.4117365,45.331585
0.4217709,43.4994
0.525944,41.515675
0.36193416,40.313248
0.4099011,40.096653
0.4547044,40.0
0.31885445,40.0
0.41341498,40.0
0.40632194,40.0
0.34854445,40.0
0.27664763,40.0
0.2841704,40.0
0.1756215,40.0
0.23020917,40.0
0.1794376,40.0
0.119908504,40.0
0.14843056,40.0
0.06863421,40.0
0.17728643,40.0
0.15498064,41.938263
0.18701875,47.90782
0.1519007,46.919243
0.24261506,57.01181
0.40488532,58.747555
0.48720354,58.988895
0.5519863,66.50427
0.68921095,68.41943
0.7336911,74.569885
0.8140596,77.36946
0.89311546,81.42899
0.9214304,89.21262
1.119091,95.55866
1.1441846,100.16947
1.2300683,99.60611
1.298065,109.711235
1.4306371,114.40719
1.5085217,117.60652
1.4327402,122.152054
1.4522432,123.47561
1.5408149,124.67709
1.6778158,131.55182
1.6141931,134.45369
1.6653285,131.52316
1.6511081,138.63957
1.6391183,142.85521
1.5480688,140.46318
1.6039526,138.18738
1.6256949,141.63593
1.6443359,140.92484
1.6383837,139.95482
1.6609341,141.53377
1.5896096,141.83469
1.6276499,147.81728
1.5863085,145.65045
1.5837274,140.95515
1.5707146,136.13281
1.4610586,134.59232
1.4270929,134.24666
1.4161081,129.59895
1.3250645,129.8081
1.3609532,125.06202
1.3388155,123.33708
1.2783616,125.967155
1.2426499,119.32333
1.309763,118.20855
1.2792671,113.28604
1.2260901,107.894585
1.235834,112.66154
1.2474221,109.37976
1.2004396,102.91381
1.177236,102.61351
1.2506955,99.91638
1.2124665,96.93273
1.1688733,91.407585
1.151852,93.051254
1.1137809,87.36959
1.1501724,88.35881
1.047274,82.9359
0.99747837,76.240875
1.0074046,76.02393
0.9141175,71.8501
0.80971956,71.105896
0.8817566,68.32724
0.78976476,65.2881
0.85018134,62.83928
0.73849505,57.680435
0.7541536,57.17476
0.7606555,57.846672
0.7662277,56.286762
0.75043225,51.148815
0.7629186,47.677803
0.7557266,50.087208
0.66829056,42.390926
0.7337041,45.61976
0.78116125,40.0
0.7687677,40.0
0.7241665,40.0
0.6633844,40.0
0.7220262,40.0
0.67630655,40.0
0.5964525,40.0
0.6002944,40.0
0.5776509,40.0
0.57087135,40.0
0.46887052,40.0
0.53541666,40.0
0.4452395,40.0
0.46249887,40.0
0.42291594,40.0
0.45323026,40.0
0.5220181,42.215225
0.4630441,41.01733
0.5783812,48.070415
0.55846673,49.608063
0.68230146,57.833202
0.74194896,57.463917
0.81593996,64.20115
0.8736627,65.17203
1.0163398,69.52747
1.1190618,74.20969
1.1479019,84.46119
1.3640168,85.26246
1.3771557,88.95064
1.4981526,98.12624
1.5063188,102.6326
1.5275296,107.58974
1.7045909,111.69965
1.6703384,116.54615
1.7347605,118.47395
1.8280752,120.76722
1.8631599,128.5173
1.826531,131.25047
1.9559082,135.1937
1.9383152,133.25954
1.8855889,136.75871
1.9563313,138.5127
1.9181836,141.25291
1.9092002,146.4099
1.865576,147.68135
1.925873,143.32704
1.828594,143.74841
1.8546599,140.34671
1.8514807,142.66277
1.7879976,141.09552
1.8227637,145.19514
1.8127578,139.61102
1.7988198,134.66988
1.7706846,133.25348
1.7607203,130.1069
1.6803769,133.06058
1.6280544,132.65013
1.6215572,125.438675
1.6341438,122.20402
1.5186789,123.066986
1.4690472,117.2974
1.5384233,114.677925
1.5800395,118.22648
1.4808701,115.57478
1.5497035,106.27471
1.4646367,108.9788
1.4796814,102.7562
1.4666909,101.1268
1.4700004,94.97871
1.4285512,95.74376
1.4922483,92.82018
1.3982441,92.561356
1.4272474,85.24793
1.3644409,88.90142
1.2848808,80.51885
1.2009921,83.51828
1.2353187,77.240036
1.1891425,77.59758
1.1288674,72.53302
1.154911,69.97217
1.1227655,65.60127
1.0615883,64.429565
0.9666501,62.514008
0.9235243,61.68323
0.9844995,55.994286
0.9355867,59.030876
0.9578309,52.581085
0.9447737,51.375645
0.99514645,45.57334
0.9711625,47.047874
0.98497945,40.0
0.9470783,44.74103
0.92059755,40.0
0.83465,40.900837
0.89680314,40.0
0.84973544,40.0
0.7403378,40.0
0.81399405,40.0
0.800549,40.0
0.74967444,40.0
0.6930547,40.0
0.67274106,40.0
0.5546261,40.0
0.6993553,40.0
0.5849723,40.0
0.57018006,40.0
0.5662794,40.0
0.6053993,42.5233
0.57459444,47.04888
0.5740346,46.609867
0.6420356,51.498146
0.69349784,52.97998
0.8225756,52.849182
0.8603063,63.42795
0.8752665,62.963093
0.99270266,70.2897
1.0819076,72.42653
1.1687264,80.05076
1.3343979,81.26152
1.4128517,90.78256
1.4181463,93.55122
1.5983467,99.05367
1.6101601,104.60998
1.6123048,107.61946
1.6884619,116.38646
1.746105,118.24287
1.8080916,125.33263
1.8610177,121.67607
1.9198526,126.03067
1.9100882,133.98853
1.8822782,133.30103
1.869444,137.43878
1.9029304,136.23598
1.9696869,140.4145
1.9573126,138.83192
1.9258587,140.34467
1.9704068,141.94467
1.8430856,141.16702
1.9386175,143.51004
1.8400571,140.72127
1.8459985,145.55417
1.8323315,143.94508
1.767753,139.27263
1.7679031,139.60095
1.7289182,136.86017
1.6905656,135.64058
1.5944245,135.29424
1.5506903,132.24928
1.5584579,129.06047
1.5387218,131.79768
1.4999896,121.510414
1.4726896,122.93648
1.452317,122.069046
1.448734,120.546425
1.4433537,111.74608
1.4576601,108.607185
1.4464312,108.55031
1.362099,105.929245
1.3549075,102.25643
1.39662,103.09211
1.340307,97.48427
1.2851985,95.22915
1.2871498,93.109634
1.2989378,90.136665
1.201101,86.09468
1.1196551,83.164185
1.1543314,84.58537
1.0891478,79.31984
1.0386972,80.26002
0.9770082,70.16279
0.94489187,73.65308
0.9840994,69.35898
0.85896796,69.43591
0.86001784,60.868835
0.8253136,61.601845
0.75701135,57.512695
0.7117371,55.55813
0.71769845,52.958504
0.7267496,53.358418
0.7850443,50.46658
0.7507899,45.538635
0.7218482,48.48217
0.772774,40.02143
0.70106804,40.0
0.7204243,40.549274
0.71473205,40.0
0.67156476,40.0
0.6153304,40.0
0.5883755,40.0
0.6048937,40.0
0.54946524,40.0
0.49912974,40.0
0.41196668,40.0
0.35449925,40.0
0.2849142,40.0
0.30832735,40.0
0.25741637,40.0
0.31597948,40.0
0.31089717,40.991188
0.28773984,40.0
0.37627223,43.727695
0.33136246,48.177788
0.45967773,51.428337
0.46242857,54.517365
0.5513941,55.977314
0.59044266,62.131687
0.71889615,72.99124
0.78875023,74.088554
0.8223041,76.022644
0.85787565,81.36753
1.0938838,86.32924
1.1654462,90.25057
1.2267134,94.320496
1.3027323,103.298645
1.3744673,108.275314
1.3996236,109.608574
1.4714813,116.37772
1.483533,121.063576
1.5349289,120.67628
1.5472994,125.31586
1.5617161,125.08297
1.56887,132.60657
1.6901704,136.57182
1.6563368,139.68073
1.6943254,137.27095
1.5679227,137.67104
1.5460829,140.52306
1.6005517,142.18153
1.5359546,147.84917
1.5705293,141.2459
1.5318153,142.39874
1.4518019,144.77415
1.4898893,142.53044
1.5316101,137.14372
1.3270929,138.32959
1.4418297,141.31891
1.3446724,136.64444
1.3701314,138.53455
1.3039777,131.29985
1.2677339,131.7462
1.2824973,129.73651
1.1700077,126.667816
1.0946531,122.33783
1.1667434,125.25155
1.104921,119.796265
1.0644535,113.05463
1.073022,109.276436
1.0955778,107.51192
1.0964046,106.07382
1.0906755,104.898125
0.9880142,102.89573
0.8974204,102.24119
1.0328664,94.12775
0.9840338,97.38652
0.9387564,91.41722
0.948451,86.032776
0.91242236,84.51699
0.84957266,82.32916
0.8096151,85.17754
0.83767265,72.5684
0.6865379,74.686844
0.6320808,72.207504
0.5795109,73.38703
0.58888125,69.854965
0.53935456,66.289665
0.532705,64.016396
0.4601657,54.87022
0.42421776,60.87245
0.48736745,54.60725
0.4441608,48.529934
0.46168348,58.246506
0.43510613,49.712173
0.41063097,45.401028
0.3897555,40.39068
0.5004779,40.09786
0.4741862,40.0
0.39136034,40.0
0.3818378,40.0
0.39819682,40.0
0.2638587,40.0
0.21227984,40.0
0.260801,40.0
0.16519813,40.0
0.16402483,40.0
0.052666117,40.0
0.14463674,40.0
0.024286715,40.0
0.10385158,40.0
-0.07541303,40.0
-0.05931737,40.0
-0.01345852,40.0
0.020851351,43.39486
0.101712875,45.93308
0.037369203,49.847008
0.112836964,57.38023
0.17922127,61.92674
0.28677613,59.679718
0.27662355,66.78847
0.54217374,64.863914
0.53090334,76.08127
0.6320999,80.09113
0.7200556,80.9483
0.77957684,89.66517
0.8220112,99.35524
0.97791004,98.93531
1.0278157,99.05228
1.1059505,110.4405
1.1865541,111.37545
1.2375672,118.71423
1.2922341,121.92952
1.339126,124.89082
1.3423752,128.70065
1.348873,128.19235
1.3778354,126.10709
1.3078123,137.00108
1.3045961,141.77118
1.3615029,140.37653
1.4442767,136.98653
1.3652992,144.07118
1.2727381,143.76482
1.3838215,143.59964
1.2977164,147.12323
1.3500509,144.3501
1.3273747,139.2509
1.2667505,139.27168
1.3286904,141.50896
1.1242158,135.9588
1.1155972,138.1438
1.1189437,133.53665
1.1391838,133.83534
1.0749036,131.1325
0.9854296,133.96878
1.1016834,126.413795
0.985146,126.42951
1.0025725,122.57435
0.93537146,119.62177
1.012341,118.20924
0.883003,111.73468
0.95220405,110.01305
0.96621746,106.541405
0.8266329,105.746414
0.8939807,100.81384
0.8413904,101.21985
0.83782274,95.688896
0.80292064,94.90391
0.82551664,92.41701
0.81667024,91.854675
0.75387937,89.33786
0.7298643,82.438225
0.7237124,80.60149
0.6722381,83.480194
0.6193741,74.291084
0.59436655,70.81884
0.45624086,73.00885
0.4911191,69.956
0.46853587,68.83781
0.464439,60.380882
0.3167316,64.14871
0.3617878,63.114067
0.36467075,54.267673
0.33611912,50.523766
0.33280292,49.616837
0.32992244,48.185276
0.33554465,46.083023
0.24631162,46.45934
0.30110827,41.884663
0.3079911,40.0
0.33119714,40.0
0.36441857,41.313896
0.31570023,40.0
0.33731675,40.0
0.21698496,40.0
0.18813722,40.0
0.21866281,40.0
0.11001764,40.0
0.05834519,40.0
0.039740548,40.0
0.014795666,40.0
-0.049389657,40.0
-0.031235175,40.0
-0.0006549468,40.0
0.04598025,40.0
-0.0022613213,40.0
0.05594689,47.97242
0.05708299,50.44317
0.17756195,48.75183
0.26291817,55.891582
0.34843507,56.909977
0.4371861,65.41329
0.4321867,66.63361
0.56685704,73.60399
0.60047793,77.29753
0.7863225,80.386635
0.8114362,87.134315
0.96344334,90.8879
0.941803,96.82993
1.043471,98.39576
1.240327,106.334915
1.196075,111.34785
1.3266076,116.10966
1.3502673,119.60771
1.4606379,125.20277
1.3404336,127.67925
1.4474905,127.47224
1.3778673,125.84073
1.3595098,136.44272
1.4927582,137.9108
1.439977,138.79219
1.5535398,143.50389
1.51127,145.02325
1.4632694,142.35092
1.4627328,143.66125
1.513002,141.82356
1.4836344,144.54256
1.4291567,146.1022
1.4217054,142.02132
1.3578439,142.94267
1.3801951,141.96518
1.3270466,135.16551
1.3170288,135.84622
1.2887707,135.21782
1.2858642,131.6934
1.1817768,128.6066
1.1959515,126.40607
1.1931355,127.90775
1.1748486,123.88827
1.1434811,119.593994
1.0954566,113.94665
1.146447,113.479195
1.1279421,117.84857
1.073201,108.97787
1.1537956,105.00162
1.1143893,106.89719
1.101992,103.78784
1.0966115,99.20431
1.0289683,94.239265
1.0036237,92.56867
0.94018817,88.44562
0.9483007,89.134346
0.972537,86.63806
0.9086404,80.97501
0.8768409,80.420815
0.90690005,78.99869
0.81718147,76.111565
0.73184407,69.34356
0.79583293,67.68
0.72110134,66.065895
0.5717656,65.611435
0.7017761,63.30126
0.61967874,61.31548
0.71281326,53.938915
0.69815886,57.08299
0.66724193,52.524826
0.5720691,53.269554
0.62057555,45.980843
0.5546682,47.415577
0.63933676,40.08471
0.62023765,42.32041
0.56268835,40.0
0.6151705,40.0
0.5595362,40.0
0.57970846,40.0
0.5523044,40.0
0.5279962,40.0
0.4799727,40.0
0.4660569,40.0
0.4617938,40.0
0.3657467,40.0
0.31827524,40.0
0.35009423,40.0
0.3095978,40.0
0.29311112,40.0
0.27957702,40.0
0.26784903,40.60131
0.3176709,43.42119
0.27648592,42.82193
0.3683269,48.443195
0.41587976,54.724434
0.5216984,55.936718
0.66232103,60.9536
0.7012286,66.82111
0.7823619,69.61971
0.87382466,75.16339
0.94037676,77.18844
1.0957309,80.54176
1.2032435,85.68983
1.2001653,93.71816
1.4366475,97.422455
1.3861531,105.96344
1.5098786,110.49422
1.5618125,111.669426
1.6271583,118.626945
1.6724602,120.48389
1.7604713,128.01805
1.6957853,130.06294
1.7558675,130.73355
1.7802628,132.70825
1.7228703,135.36589
1.8136815,140.98434
1.7872827,139.84218
1.7077001,140.77406
1.7982386,137.70126
1.73508,147.34068
1.8472004,145.32008
1.8293043,139.31023
1.7625102,148.90013
1.7438681,141.16446
1.6894389,139.56465
1.7124195,140.25029
1.6814538,137.73283
1.6412741,138.20114
1.6206487,136.70282
1.5997856,133.15437
1.5636706,134.19493
1.6246021,127.913574
1.572213,126.7992
1.6163749,122.6052
1.451035,125.76198
1.4806,117.51822
1.3968186,118.22526
1.409204,115.27735
1.3860961,113.76281
1.3858181,113.5261
1.4424291,104.37181
1.3536484,104.72985
1.4118347,99.18571
1.4372214,96.09733
1.3326143,96.70408
1.2983291,92.67509
1.2696754,90.33714
1.3048992,84.84762
1.2459295,84.29675
1.2177233,80.54564
1.1428707,75.646706
1.1126695,77.77517
1.1422367,76.22406
1.0326486,69.430756
0.9902025,70.247246
1.027349,64.70422
1.0061386,59.51662
0.94844383,57.381054
0.9701978,55.16514
0.9380923,55.248383
0.9803881,51.958427
0.86403495,48.3299
0.85250545,49.205532
0.8180693,46.528122
0.91646385,42.113438
0.889832,40.0
0.9248563,43.97215
0.9405692,40.0
0.85835594,40.0
0.8750276,40.0
0.76811004,40.0
0.79265183,40.0
0.7402736,40.0
0.67080736,40.0
0.7445752,40.0
0.6179012,40.0
0.5809201,40.0
0.57577765,40.0
0.5629514,40.0
0.49219525,40.0
0.49222338,40.0
0.5924978,41.517303
0.5136511,41.502827
0.60274154,47.81552
0.6155876,48.807682
0.68471617,53.430077
0.73114544,54.560753
0.7601013,58.239414
0.85192853,63.36781
0.95253587,65.09913
1.0934877,70.65114
1.1739876,80.69411
1.2679787,83.646255
1.3742625,84.5811
1.4280766,91.50132
1.4960192,95.66045
1.6739194,104.06357
1.6692932,108.47301
1.7251097,112.181885
1.7381611,116.22135
1.8100103,118.95265
1.842225,126.10297
1.9258231,127.411476
1.9040761,131.9875
1.9388618,132.18922
1.9365727,135.62541
1.8891796,135.6245
1.9910963,137.98274
1.9245821,143.11938
1.9341134,142.64085
1.9160233,145.49907
1.9277884,147.3827
2.0204687,144.15707
1.9034556,145.0351
1.9110361,142.93108
1.8090433,140.13359
1.7679805,143.8165
1.7613784,137.94778
1.830784,139.322
1.7011986,133.83739
1.6999208,134.69771
1.6809859,134.43271
1.6538881,131.87997
1.5789735,131.26198
1.6011171,129.9059
1.6180785,125.985435
1.5749819,122.01098
1.5709779,120.318504
1.5240897,114.64323
1.4990928,111.29402
1.4836779,108.92748
1.4235598,105.36741
1.5421314,107.313
1.513519,102.86668
1.4524124,97.37899
1.4434278,96.8025
1.387487,94.181915
1.3536831,88.43641
1.292651,85.44471
1.3411436,83.08254
1.2408513,84.62421
1.2875729,80.39295
1.2054887,78.572525
1.0618235,78.72945
1.0893182,70.802
1.0698278,75.14089
1.0548284,67.58368
0.9777118,63.15468
0.9690001,64.39788
0.93018746,60.078613
0.8924531,60.471664
0.83339953,53.80937
0.8641833,54.0239
0.83192086,50.736523
0.79602516,48.32061
0.8561924,42.8061
0.90768534,44.563793
0.88669235,42.353313
0.848079,40.0
0.8122888,40.0
0.8105298,40.0
0.81435126,40.0
0.7393488,40.0
0.74236876,40.0
0.64804435,40.0
0.6189124,40.0
0.65262425,40.0
0.6326332,40.0
0.52865225,40.0
0.5034456,40.0
0.48619848,40.0
0.37983,40.0
0.43292212,40.0
0.46700963,40.0
0.49906316,47.3874
0.46728733,48.94175
0.4425788,47.379116
0.57657975,56.466606
0.6784528,58.23263
0.73819846,66.29005
0.8594289,65.18127
0.8839272,73.38265
1.060644,71.77429
1.1022367,81.105286
1.1860776,81.42741
1.2470716,92.65529
1.3512491,94.50623
1.3889035,98.57024
1.528203,103.48097
1.6119404,107.68309
1.6398196,111.16756
1.7115473,116.131134
1.7112635,123.646614
1.6761276,124.95556
1.7419403,130.82645
1.8026742,132.93185
1.7699614,135.51907
1.7511154,136.95456
1.8033924,136.9979
1.7477976,143.47696
1.7412955,137.48596
1.6761786,139.79552
1.7774888,140.98663
1.7145224,140.86424
1.7193295,140.674
1.726413,145.7001
1.6890668,143.83072
1.6265823,141.30093
1.6196398,140.1078
1.6073825,140.13757
1.5136952,134.63304
1.4303226,135.10677
1.435281,128.49234
1.4001719,128.81158
1.3608148,127.80096
1.4772892,125.77389
1.4624033,126.2452
1.2638339,117.83778
1.2722826,120.38659
1.2906432,110.81398
1.2553623,113.61641
1.2447319,111.74878
1.2557629,105.659355
1.1712289,99.65007
1.2299973,104.43455
1.122221,99.177246
1.1821886,95.37517
1.1508226,94.96205
1.0212678,92.52967
1.1355295,91.48525
0.9834173,84.74657
0.9098415,84.60873
0.8859143,81.16734
0.9651273,76.6797
0.7516768,78.260735
0.7801924,76.25157
0.8180548,69.8845
0.7759931,63.29139
0.6548471,64.25327
0.7043651,61.38279
0.6718087,62.640263
0.5944636,60.391804
0.59770596,58.164364
0.6042944,55.69244
0.52621216,53.340748
0.51448345,46.720737
0.47503242,49.74537
0.5610192,41.209476
0.58249927,41.466076
0.4967593,42.56241
0.51119435,40.0
0.5087141,40.0
0.46646658,40.031727
0.48094866,40.0
0.362146,40.0
0.39070374,40.0
0.24154553,40.0
0.32448944,40.0
0.26815364,40.0
0.22947982,40.0
0.2222426,40.0
0.13051443,40.0
0.08845198,40.0
0.10588787,40.0
0.1518317,41.633713
0.11846594,43.226112
0.1369132,45.13016
0.17424443,45.190342
0.21477051,47.0729
0.3179669,55.74802
0.3378922,60.106297
0.4994282,64.0848
0.5512421,68.14242
0.5687389,73.14395
0.7812321,82.51471
0.8671908,78.09454
0.92376614,92.38089
0.9581156,93.76061
1.1213496,97.26985
1.1383383,103.506874
1.2321707,103.17505
1.2923641,113.67415
1.3458219,114.875046
1.2801077,124.82287
1.4515839,123.57833
1.4905934,129.13591
1.4431225,129.28542
1.3570447,135.53575
1.4421285,135.37097
1.4116025,137.66396
1.4783164,141.12013
1.4705044,140.48834
1.5024666,137.40707
1.4908493,141.6188
1.500542,145.61197
1.4354051,142.7887
1.3692385,143.60147
1.3781463,139.32263
1.336251,147.15964
1.357808,137.99043
1.3172431,140.74176
1.2388419,137.55241
1.1983577,136.83354
1.189443,132.80591
1.1002804,132.84546
0.976854,131.07008
1.1745008,128.48463
1.0987713,122.53749
1.0510135,125.84986
0.988995,119.11768
1.0466402,117.037766
0.98639375,110.36295
0.98098046,112.31173
0.890203,109.79873
0.9418464,106.21474
0.92029375,101.050476
0.94790065,104.292725
0.80742747,98.09102
0.8379795,93.46611
0.8573856,94.216705
0.81714076,91.053116
0.7809514,91.18602
0.8091739,88.9183
0.7058681,79.5998
0.6443772,83.34802
0.5936989,75.52806
0.5905958,79.99307
0.52214694,76.18554
0.47370395,69.29361
0.48606992,68.14271
0.39830992,60.221664
0.43710324,62.995296
0.36779118,60.343178
0.42391458,52.16118
0.46216142,58.74849
0.32567364,54.000137
0.3007335,49.868202
0.35325128,43.96987
0.34755677,45.48097
0.41958627,44.819145
0.35149407,42.77874
0.32406732,40.724316
0.34744734,40.0
0.29927036,40.0
0.37642115,40.0
0.19226323,40.0
0.1339461,40.0
0.18792522,40.0
0.052665293,40.0
0.06090637,40.0
-0.003168701,40.0
-0.0022397516,40.0
-0.07420729,40.0
-0.06470743,40.0
-0.065755956,40.0
-0.062256016,40.0
-0.013172176,40.292774
-0.022187572,41.072426
0.016214164,49.09371
0.13058539,49.377144
0.10848285,56.213985
0.12199364,58.19804
0.2286577,65.193634
0.3178541,65.27709
0.4879919,70.85262
0.44541493,82.56742
0.6409109,80.1457
0.74033785,90.968216
0.80535936,91.618774
0.9203632,94.72505
0.974223,96.973625
1.0062301,107.6372
1.1296012,106.51309
1.1448601,110.7317
1.2181153,116.531525
1.2758983,119.51494
1.2946911,119.23349
1.3048136,128.90236
1.2766919,136.31668
1.3632523,129.18726
1.3030542,140.05923
1.432707,137.05313
1.396634,141.19618
1.3350044,139.6644
1.372319,142.71185
1.2937759,142.24226
1.3718668,142.7703
1.239384,147.66203
1.4320372,142.51424
1.291034,141.75693
1.1888173,140.07655
1.3121895,140.00131
1.2884912,136.35555
1.2486544,134.89435
1.1314486,133.0076
1.0593426,131.80223
1.0869224,132.72887
1.1301924,127.582115
1.0726473,128.0991
1.0423719,125.09043
1.013437,118.54708
0.95925623,119.242966
1.0537257,116.57532
1.0237496,111.04093
0.9128459,108.45553
1.0830026,108.40041
0.99333686,110.07026
0.9256974,101.67676
0.95779353,100.89887
0.97941667,92.15459
0.9237875,97.12529
0.8959201,92.87079
0.86745656,88.14961
0.7935532,92.31592
0.78711516,80.55251
0.683696,80.09734
0.7537812,79.778076
0.67447084,75.942116
0.5826967,73.609
0.54685056,69.75423
0.59141636,66.5907
0.5246882,64.47427
0.46289167,63.07927
0.5273106,62.55571
0.45581052,56.59092
0.474177,57.89498
0.5099497,48.29851
0.46440336,49.244335
0.42985946,46.69708
0.47502264,48.035866
0.42654702,45.100933
0.53562474,43.370354
0.4381443,40.0
0.40692595,40.0
0.48747092,40.0
0.3977788,40.321484
0.31043935,40.0
0.38002917,40.0
0.28962517,40.0
0.33355772,40.0
0.30959028,40.0
0.21670029,40.0
0.2295987,40.0
0.2377805,40.0
0.103369154,40.0
0.17194812,40.0
0.14646696,40.0
0.14073686,42.461273
0.1516772,41.621944
0.2424585,47.803787
0.20781492,49.296047
0.32803842,53.791172
0.3421377,60.155663
0.5185651,62.238102
0.55366707,63.868885
0.5870006,69.06932
0.6688069,73.43699
0.82681376,77.970024
0.9249971,83.369415
0.9903467,87.63536
1.1046922,94.94864
1.1879139,95.59517
1.1968246,102.17417
1.4161772,104.08061
1.4223962,110.90313
1.4143485,113.680984
1.4886516,118.36787
1.4676915,122.23377
1.5619733,129.9166
1.5801383,130.21805
1.6978045,131.8193
1.6167905,136.9149
1.6362343,135.07817
1.7130882,138.17929
1.6832328,138.0668
1.6407189,141.72711
1.619762,141.14577
1.6576715,143.83922
1.5973287,142.9446
1.5726522,143.17715
1.6391385,140.64557
1.5925448,141.91635
1.5613818,140.8835
1.4740527,139.80609
1.6172435,136.22147
1.4530585,134.27106
1.4370157,138.19373
1.4972554,133.62454
1.4258351,131.44943
1.4475509,129.66376
1.4023601,128.23749
1.371171,122.45939
1.2945446,115.61473
1.1689755,118.559814
1.2964143,115.0768
1.2464567,109.63807
1.3444525,108.76801
1.2623864,102.71088
1.2220722,100.36496
1.2891079,101.19814
1.2729833,97.66907
1.2601588,95.43516
1.1991118,93.630165
1.2133865,92.49814
1.1568929,87.395195
1.1840757,85.13112
1.1639699,84.31699
1.1139693,81.38428
1.0696988,79.41588
0.97825766,76.65082
0.90849036,72.37952
1.0016803,67.72946
0.9258121,71.62641
0.8531437,61.84973
0.82382894,65.03443
0.752669,58.201202
0.7605844,54.50019
0.89886963,50.131134
0.76505446,52.03549
0.7420017,44.61604
0.7419502,47.326775
0.790487,47.35711
0.7830265,45.835304
0.76644343,40.098858
0.74165666,40.0
0.7797471,40.0
0.79707545,40.0
0.69302094,40.0
0.7045747,40.0
0.70594376,40.0
0.58166474,40.0
0.58144253,40.0
0.57494193,40.0
0.5870863,40.0
0.40098318,40.20685
0.5204342,40.0
0.48586714,40.0
0.5056326,40.0
0.4367023,40.0
0.44779643,40.0
0.55321336,45.768852
0.55472517,47.07353
0.62146485,48.852463
0.63023466,56.917587
0.7075261,60.59908
0.7874537,63.28581
0.8928852,71.65694
0.97875255,73.203354
1.1173205,80.3177
1.2608078,78.9668
1.27544,85.696556
1.3495469,90.248116
1.5013677,94.32482
1.5361195,101.47654
1.5157936,105.9308
1.672643,110.042625
1.7734555,112.40106
1.836561,117.28437
1.8831292,122.71533
1.8154234,125.59907
1.8680975,126.99985
1.9001852,131.15445
1.913608,132.78432
1.953851,132.03618
1.9754002,140.10265
1.9746846,138.10928
1.9157743,142.96585
1.9029974,144.19647
1.9307091,142.79071
1.8490989,144.02258
1.892049,142.9976
1.7997787,143.27907
1.8042885,143.04007
1.8542866,146.48674
1.812025,142.22127
1.7022226,136.80524
1.6656171,140.19722
1.733997,131.36583
1.7434291,130.06422
1.6127218,128.7676
1.6558052,126.341576
1.6578652,124.246735
1.6066153,125.032265
1.5571501,121.860954
1.5232736,119.44756
1.546521,116.04035
1.5623282,116.80914
1.6417176,110.70889
1.5071324,108.99842
1.5114799,106.662865
1.4406453,98.70528
1.5200005,100.85395
1.4864497,99.62029
1.4179641,95.3267
1.4680909,89.959656
1.3543309,92.309105
1.3521628,83.48502
1.2796791,81.87335
1.2833191,81.262436
1.2944598,78.11928
1.2175794,72.063866
1.1625204,80.1478
1.1705204,69.62378
1.0645348,68.72232
0.99021184,62.93523
0.95881164,63.35261
0.967815,61.59428
0.9165303,60.692886
1.0064083,57.632713
0.87506586,56.04558
0.99629366,49.17683
0.882226,47.777668
0.8940949,45.463207
0.89714545,42.287727
0.93284214,40.0
0.9182436,40.6692
0.9177845,40.0
0.8870556,40.0
0.8461381,40.0
0.8876426,40.0
0.7936362,40.0
0.74334824,40.0
0.75744045,40.0
0.6442763,40.0
0.5909681,40.0
0.6596495,40.0
0.6044568,40.0
0.53330404,40.0
0.5981055,40.0
0.5286028,40.0
0.60075015,42.98553
0.5781258,43.935078
0.54539835,47.173355
0.63226175,47.18594
0.6946038,55.928837
0.6779973,58.62003
0.88275677,60.315655
0.8808271,62.411255
1.0154368,69.477844
1.0919747,72.0503
1.1831626,75.88185
1.2714776,85.986
1.3592958,89.272194
1.3808682,93.033
1.4903388,97.910194
1.6565934,103.52134
1.5615778,106.1468
1.6399094,113.3307
1.8046588,116.67825
1.7058505,117.8463
1.8183054,126.05149
1.8138267,128.66306
1.9129555,128.51292
1.8486328,134.35892
1.9612538,133.30754
1.9894692,139.73753
1.8924756,142.11118
1.8128384,142.2364
1.8501911,143.14151
1.9307394,145.41444
1.8417168,142.89795
1.7959684,141.33925
1.85692,140.48582
1.8014742,144.85077
1.829143,143.39421
1.6576586,141.33586
1.7203113,139.156
1.6837863,136.92044
1.683889,137.6674
1.4932573,130.4332
1.5729278,131.27986
1.5972499,131.90251
1.512192,123.696396
1.4233906,123.40647
1.449544,124.851234
1.5322335,122.507484
1.458421,117.44607
1.469066,117.2603
1.3949887,109.19777
1.3200058,106.242
1.3058541,104.50745
1.3925432,103.09392
1.3429291,96.67668
1.30737,98.89565
1.3354692,99.19342
1.2126311,93.1441
1.2742246,88.53992
1.2320914,90.75302
1.1422726,87.28591
1.1289802,79.62708
1.100263,78.78986
1.0442746,77.39427
1.06192,75.163635
0.9547066,72.00094
0.94838345,71.22646
0.8899235,67.8763
0.89675677,62.681107
0.8973029,59.6483
0.69861263,63.53127
0.8386432,58.186596
0.7012439,53.39894
0.7644195,49.275295
0.72301483,47.939777
0.75888807,49.53419
0.6806649,40.41863
0.70598656,43.334126
0.6838345,40.63459
0.7172323,40.0
0.61993366,40.0
0.6184773,40.0
0.60940486,40.0
0.60554963,40.0
0.5204629,40.0
0.4677176,40.0
0.5500851,40.0
0.37712234,40.0
0.34426537,40.0
0.3386791,40.0
0.33823025,40.0
0.21932143,40.0
0.28398296,40.90314
0.28569347,40.0
0.25565937,42.40895
0.29707807,40.11165
0.35079908,45.531525
0.395747,53.304234
0.46441805,51.45651
0.50628483,59.654613
0.50513935,60.714397
0.6349443,66.718254
0.6816965,74.00552
0.84723485,83.39386
0.90570676,80.46412
1.0607653,86.66981
1.1503661,87.85795
1.1547785,98.66263
1.2727004,106.22381
1.2875952,106.61625
1.3995334,111.30255
1.4276856,118.46081
1.4853008,115.67578
1.5259925,121.33125
1.4514053,123.81626
1.5262865,127.40621
1.6282771,132.71669
1.5430377,132.77463
1.60382,136.08603
1.5543262,137.31464
1.6174382,138.2464
1.6005349,140.7893
1.5751753,140.94173
1.5528011,143.97133
1.5288694,144.31184
1.4467295,147.35638
1.4760333,139.4011
1.5202432,140.67009
1.423416,142.92177
1.3617195,140.65973
1.3911407,138.04308
1.3006871,133.27834
1.3486474,136.01125
1.2975376,133.82991
1.193711,133.4538
1.2260907,128.0211
1.1684625,125.4538
1.1709899,125.20568
1.0302348,123.502525
1.1470011,119.19033
0.98614913,115.08268
1.0723602,112.17101
1.0952554,112.59022
1.1323078,107.85388
1.0044224,106.330605
1.0082017,102.10379
0.97164696,100.08923
0.96745604,99.42068
0.98850745,98.5466
0.87900025,91.66992
0.8580126,88.08349
0.80914724,86.92966
0.8574787,82.15857
0.7868763,79.11094
0.67427176,78.39443
0.6707604,75.75966
0.6540922,76.92413
0.6135107,71.05306
0.5902933,70.5168
0.50959015,64.153435
0.39427283,64.01117
0.5054311,55.14958
0.5143423,54.76535
0.44475588,56.40806
0.3933436,54.762676
0.44235036,48.158154
0.3839008,53.120014
0.37976393,44.891224
0.37521526,45.08674
0.403008,40.0
0.37753,41.225235
0.3804073,40.0
0.34237513,40.0
0.28536752,40.0
0.3363291,40.0
0.30613172,40.0
0.24320172,40.0
0.10198815,40.0
0.057073917,40.0
0.14097096,40.0
0.088229954,40.0
0.013375196,40.0
-0.009546501,40.0
0.026294371,40.0
-0.00927019,40.0
0.05859324,41.606888
0.040560413,45.994343
0.006679429,46.155697
0.126953,51.825073
0.13297457,53.27593
0.18849538,55.460854
0.26264346,60.98653
0.3662529,67.04938
0.47098196,67.03212
0.5578628,72.89765
0.6577534,80.214035
0.6514629,86.4638
0.84682655,92.04908
0.90877956,91.69883
1.0367173,99.96761
1.0521574,100.39618
1.1197157,109.870865
1.2063578,110.848015
1.1732289,117.30237
1.3150467,121.09153
1.2636298,127.85304
1.3300526,125.42843
1.3904213,133.98616
1.3075699,134.55771
1.4120064,138.02725
1.3535215,135.89778
1.3279984,139.39752
1.319111,144.49431
1.3157521,142.21042
1.3833493,138.44371
1.3282638,141.24532
1.3505812,143.1134
1.366483,143.99763
1.3136212,141.039
1.219402,138.70465
1.3027188,140.17007
1.2241273,138.37961
1.1560265,137.0894
1.2106563,138.94539
1.0635201,134.30673
1.0218946,131.02692
1.0197905,128.42766
1.0641876,125.64976
0.99967027,124.575424
0.9700943,119.420746
0.95769566,118.16795
0.93195766,117.31486
0.84414625,117.69851
0.9099151,112.500984
0.94812393,112.14971
0.9614354,109.08482
0.92712146,102.34788
0.88845706,100.77437
0.8616567,96.669525
0.83774334,97.64752
0.8065159,98.36036
0.88601357,92.140915
0.750236,83.69951
0.6500343,85.487976
0.7215491,79.17359
0.5811316,76.31915
0.61985916,78.033806
0.5155921,70.26486
0.48789603,71.63139
0.5085085,71.8556
0.4499222,71.0587
0.42840424,63.74784
0.41413867,62.3195
0.3889091,61.21592
0.39217836,53.19953
0.30818528,53.006416
0.3656259,49.62374
0.35123184,50.148872
0.36242545,47.224674
0.31602597,42.899887
0.33851233,40.0
0.352683,40.0
0.32667696,40.0
0.32658994,40.0
0.31028566,40.0
0.32214096,40.0
0.20932642,40.0
0.22121236,40.0
0.22110534,40.0
0.17145762,40.0
0.14000255,40.0
0.15101387,40.0
0.063785516,40.0
0.049916476,40.0
-0.0031519858,40.0
-0.00070962706,40.0
0.07151076,40.0
0.044250313,40.0
0.034394056,43.777153
0.110377006,49.611214
0.13185796,50.903732
0.19468,56.455727
0.3369429,61.62132
0.37324974,58.650345
0.41498306,68.78186
0.5496585,73.91212
0.6289102,77.56541
0.7548271,81.7842
0.90685534,90.14094
0.97814596,91.94064
1.0032405,96.41512
1.0535202,101.087006
1.2220811,102.7518
1.2292813,109.918465
1.3020691,114.151115
1.3498119,118.91421
1.3815595,121.7694
1.3568147,123.34041
1.511475,125.8957
1.4909481,131.6085
1.5030521,135.09776
1.5447083,137.15387
1.5130284,135.76852
1.520771,143.14952
1.4512138,139.07083
1.5500462,143.32988
1.4325794,142.83325
1.4473248,144.36125
1.49976,142.94112
1.365898,143.70724
1.448756,141.99629
1.4372499,143.27438
1.3865981,137.08711
1.4527065,134.57898
1.3132148,138.83987
1.2497215,131.39467
1.2604309,132.86552
1.2649037,133.11533
1.1418667,130.91574
1.1768969,124.966415
1.1667578,124.703835
1.1672605,119.50615
1.162612,119.65211
1.207364,116.26442
1.1288234,112.65608
1.0892072,110.822105
1.0952032,108.657265
1.1715219,98.663734
1.1258292,100.21824
1.0318683,100.79082
1.0278406,101.89004
1.0357193,95.83428
1.0455049,93.245895
0.9810865,86.906525
0.9463976,87.78927
0.9964166,81.35671
0.98862046,81.07312
0.9019788,77.05585
0.8459756,79.761154
0.8855907,74.99718
0.67343223,68.91609
0.59808755,67.76706
0.74630743,64.28398
0.70438516,61.274563
0.682578,61.243004
0.6152464,55.153774
0.6022843,55.93209
0.5529024,52.442986
0.6213574,51.509575
0.6576044,48.613937
0.5626659,40.89361
0.70350415,45.420063
0.5892439,40.0
0.6537527,40.0
0.53696334,40.0
0.5863241,40.0
0.6416348,40.0
0.55027914,40.0
0.59085286,40.0
0.50685984,40.0
0.43332675,40.0
0.39224494,40.0
0.4242659,40.0
0.34541914,40.0
0.33531097,40.0
0.29457903,40.0
0.38367528,40.0
0.3357295,40.0
0.4063753,40.0
0.32301754,43.838184
0.37216732,48.193474
0.40294874,50.338703
0.44445142,53.841797
0.6411612,55.602085
0.67493093,66.264015
0.75158495,62.308502
0.8715929,71.12751
0.88493073,72.2299
1.0442407,78.111664
1.0770786,82.04794
1.2272156,94.22797
1.3152125,94.9311
1.330692,100.15139
1.4248915,102.55928
1.5612897,110.80334
1.5360715,111.99835
1.6059895,120.05988
1.6890987,119.89572
1.7767082,125.33911
1.8480237,125.57205
1.7119035,129.51115
1.8379482,134.77641
1.8552496,136.99542
1.8278167,140.65718
1.7914909,139.52727
1.799743,143.08368
1.8347917,142.392
1.8172184,140.83733
1.8404131,143.06534
1.8621309,141.56917
1.7980567,140.86215
1.7492392,142.01239
1.669739,141.06175
1.6629392,141.41579
1.6521994,143.34274
1.6538119,134.18065
1.7018042,135.35193
1.574276,134.87563
1.5468428,133.46288
1.5773664,126.697044
1.5757722,128.21016
1.5423977,123.38914
1.4621518,125.26325
1.4271126,115.64195
1.4902565,115.67289
1.3688947,111.55233
1.4855157,108.397964
1.4704784,104.82648
1.4937232,104.88687
1.4175351,104.34634
1.4053974,99.8327
1.4038372,98.01779
1.3516252,93.76328
1.4365993,90.938995
1.2723173,90.85986
1.2637786,86.768456
1.2946372,85.61642
1.1843956,82.56312
1.1959742,82.03652
1.0650266,76.336334
1.0549936,75.26081
1.0873169,70.2564
1.0198189,67.31843
1.0104855,66.95859
1.0233401,62.72201
0.95997804,59.56874
0.9524433,60.528297
0.9427403,57.564255
0.9027619,56.26755
0.9064431,55.758347
0.941821,49.789192
0.8841749,47.110016
0.8931506,44.326035
0.901439,40.838055
0.9585134,40.0
0.8716532,40.0
0.880441,40.0
0.85544515,40.0
0.84790057,40.0
0.7185726,40.0
0.7844934,40.0
0.719403,40.0
0.6519444,40.0
0.684449,40.0
0.560563,40.0
0.5958932,40.0
0.5457318,40.0
0.5763598,40.0
0.4998865,40.0
0.606684,42.59931
0.61387485,41.72707
0.591252,45.418995
0.6123759,47.061333
0.6532297,50.623016
0.74691975,54.352207
0.83290625,57.871796
0.899396,64.00498
1.0598589,70.20476
1.1328926,71.50286
1.2690288,76.70285
1.3298885,84.5388
1.4231923,90.52152
1.474899,93.027565
1.4860518,92.69459
1.5701045,102.88932
1.5682575,107.37084
1.7228976,109.802124
1.7544787,110.88885
1.8270453,124.36721
1.8731751,125.47037
1.8482729,122.821335
1.9107138,134.80862
1.9628944,127.856415
1.9445032,136.9913
1.9669768,134.54645
1.988541,140.26959
1.9207414,141.24559
1.9550961,143.78807
1.9066244,143.43982
2.0426629,142.74226
1.8815433,142.5946
1.9542499,143.41039
1.8855938,145.40999
1.804141,141.19882
1.8362894,139.98857
1.8640575,140.68472
1.7463009,142.767
1.788571,135.6718
1.6682502,133.09036
1.7427924,133.87901
1.6030684,126.86434
1.6366787,127.44099
1.6041788,128.93849
1.428937,121.39797
1.5832747,120.26491
1.507789,113.9714
1.4316462,119.87892
1.4497344,112.40595
1.5086174,111.546776
1.5852869,104.89894
1.4657484,101.6622
1.4034715,100.012344
1.4740708,99.35939
1.3959595,94.189224
1.4706153,95.85426
1.415132,92.175766
1.3812174,87.31135
1.3492025,86.3327
1.2538354,86.187035
1.2046947,77.07105
1.2116739,77.58845
1.1612579,78.52691
1.0338522,74.373215
1.0323502,73.64015
0.9783302,69.68199
0.9735122,68.02507
1.0164509,64.7597
0.9788067,61.976322
0.94747883,54.8169
0.87792593,57.542973
0.9380821,46.69467
0.8598931,47.92847
0.80869925,44.874046
0.78299975,46.546036
0.8658095,40.70206
0.92387784,42.69914
0.8520875,40.0
0.7709377,40.0
0.74700385,40.0
0.8593028,40.0
0.7385745,40.0
0.7401409,40.0
0.7064654,40.0
0.58603877,40.0
0.61719,40.0
0.5672526,40.0
0.48878694,40.0
0.549621,40.0
0.5077682,40.0
0.44615048,40.0
0.38223794,40.0
0.43141457,40.0
0.53013414,42.51765
0.4582804,48.899002
0.47882733,54.925636
0.5714676,55.872887
0.6729375,59.115585
0.70076865,62.823895
0.83550614,64.668045
0.87716717,72.0521
0.9897009,75.88779
1.0545634,76.745255
1.2199374,82.854546
1.2684401,88.897
1.3499238,93.197685
1.3909906,100.5139
1.4543796,99.68279
1.5413234,106.49314
1.5393717,108.38109
1.6585263,121.079895
1.7301494,119.75065
1.7036664,125.47647
1.7452972,128.26944
1.6760806,129.09154
1.7348864,131.68814
1.7691996,137.5353
1.7018188,137.38397
1.7448897,137.21498
1.7279505,143.5855
1.7172258,144.7836
1.6716682,141.53027
1.7025124,140.66806
1.6567918,144.6621
1.6351635,143.82297
1.5973643,144.35129
1.6888486,140.8853
1.5042,139.41014
1.5375555,137.80595
1.4916161,136.8864
1.4456336,134.97972
1.4745973,135.78758
1.4148941,127.59218
1.4030061,131.10298
1.3790852,125.8517
1.3434082,125.50851
1.2673581,125.31468
1.3244784,115.73911
1.2346357,115.574455
1.2814872,111.27963
1.1447899,111.74766
1.180482,104.8216
1.2368944,103.75826
1.2142737,107.41967
1.1927354,94.871414
1.1720238,97.584724
1.0661752,93.57349
1.0920596,95.24619
1.0628525,91.48972
1.0358689,86.188324
0.9024254,87.94604
0.8951194,81.5685
0.878818,80.87565
0.8247558,74.08952
0.73526233,73.30188
0.70359343,73.700485
0.79349035,68.178856
0.71721977,68.37663
0.6504109,63.81425
0.61983037,59.822742
0.62408507,62.10441
0.5068488,56.78424
0.5913304,47.69608
0.581521,48.959087
0.44782296,46.05151
0.5743365,47.44315
0.5206771,44.278088
0.5516793,44.435745
0.45686403,40.166523
0.44998705,40.0
0.42603916,40.0
0.40840787,40.0
0.44288397,40.0
0.3624315,40.0
0.39193738,40.0
0.2842194,40.0
0.2261818,40.0
0.2951069,40.0
0.2914056,40.0
0.20027705,40.0
0.08293146,40.0
0.12168128,40.0
0.09711689,40.07426
0.08186247,40.325787
0.06508659,43.429794
0.13277057,42.955475
0.22219577,48.521957
0.21391788,51.376514
0.2962921,55.54511
0.32706395,59.557995
0.43567047,64.22333
0.58508843,70.40869
0.61053085,71.5636
0.7067166,78.01689
0.7358767,83.683685
0.8797454,85.13256
0.95253104,93.45919
1.0788081,96.68792
1.0259998,102.4341
1.1915385,107.18216
1.223324,107.975914
1.2556237,117.217804
1.2635432,114.5158
1.3433285,120.230835
1.3521838,123.54255
1.438029,131.99226
1.4099051,128.53348
1.3065761,128.71498
1.42268,141.88
1.4417297,137.46312
1.4261814,137.48546
1.5436486,142.17184
1.4194832,139.59206
1.3886986,145.08624
1.4014715,142.58498
1.4729894,139.97542
1.3512511,143.28978
1.3431348,141.12378
1.2687149,142.04068
1.3198304,139.63966
1.2649207,136.75713
1.2090052,133.02676
1.1747878,133.01968
1.0960088,130.19962
1.1000648,132.19649
1.0051799,129.19627
1.002297,128.09984
1.0227168,122.191284
1.0091552,120.37728
0.92843807,116.850494
0.9441738,113.530754
0.96394646,112.76764
0.9655593,110.79314
0.89210135,109.66802
0.99307346,100.32847
0.8431202,101.57501
0.820201,96.21183
0.7874001,98.306496
0.8307498,93.98934
0.8098864,88.593056
0.75226396,90.69098
0.75187284,85.18678
0.7249169,79.78755
0.6742919,81.27892
0.63875216,78.08617
0.5462544,78.83627
0.54757744,73.68509
0.5084639,71.706894
0.4060768,63.983047
0.38774222,62.70252
0.42559695,63.04984
0.40598044,56.5889
0.42056873,54.05617
0.37422815,51.61762
0.31417602,52.958122
0.2629739,51.621098
0.32474294,51.065422
0.3112345,45.168606
0.3280082,43.346687
0.34593588,42.689285
0.27262235,40.0
0.33521616,40.778336
0.32395616,40.0
0.202158,40.0
0.28475806,40.0
0.2592843,40.0
0.20625922,40.0
0.19151309,40.0
0.12763318,40.0
0.03426334,40.0
0.02968389,40.0
-0.05065022,40.0
-0.039574973,40.0
-0.06428994,40.0
-0.041981246,40.0
-0.013150805,40.496937
-0.016426919,44.22211
0.010005633,47.459198
0.12535118,51.44867
0.1158961,52.23402
0.16275787,58.84883
0.304454,63.00852
0.28482983,66.9014
0.3713695,72.14611
0.55244875,77.39692
0.62397355,76.338356
0.7343974,85.15273
0.8405012,88.64548
0.9183827,98.657364
0.98447603,100.86833
1.1249309,108.73585
1.1860114,110.397095
1.2708436,112.022095
1.251981,118.127464
1.2686675,122.4333
1.3475335,126.79226
1.3624371,129.13153
1.356341,132.46349
1.38374,133.24841
1.378802,137.13129
1.459474,139.78996
1.4462224,137.8171
1.4748186,145.71059
1.461026,140.73792
1.3598896,144.3886
1.3758852,138.15193
1.3773737,141.76869
1.3599386,139.44072
1.3520207,141.12146
1.2371894,144.24135
1.2558066,139.69632
1.2130722,140.81383
1.2636191,139.13812
1.1968048,136.32506
1.2059743,130.70233
1.0918448,133.42297
1.0377275,126.339455
1.0627899,127.56787
1.0523566,122.05487
0.97763747,125.16757
1.0200285,119.517586
0.9419936,113.96089
0.9761245,113.37116
1.0150008,111.54835
0.97507447,108.90889
1.0247687,105.63178
0.9364888,99.86564
0.89906305,98.70363
1.0042375,98.42382
0.92551804,90.441925
0.8187337,91.17285
0.86290365,89.22749
0.88131076,84.67788
0.9236039,89.18747
0.83825433,81.376465
0.71047646,78.96162
0.6550506,77.775734
0.60999805,71.70655
0.64835197,67.32704
0.60705274,68.26286
0.5269732,64.89756
0.5226269,63.62897
0.5579646,57.59982
0.47174,60.69178
0.4629077,57.52572
0.5130791,51.10908
0.5239904,47.875805
0.44903755,51.086212
0.46263406,44.2523
0.48374888,41.933056
0.48994628,41.63339
0.45430243,43.008656
0.50194824,40.0
0.45693308,40.0
0.3714352,40.0
0.45548597,40.0
0.44604313,40.0
0.34238505,40.0
0.3345891,40.0
0.29047123,40.0
0.26738378,40.0
0.18795297,40.0
0.20863868,40.0
0.18754663,40.0
0.16301183,40.0
0.20203723,40.0
0.27387512,40.030895
0.17625578,45.03319
0.23155656,41.757908
0.23984568,50.82307
0.24011075,53.735413
0.3401617,54.8962
0.50443935,63.162724
0.4341682,71.48401
0.51580733,71.77072
0.8448274,75.87033
0.8751922,80.34885
0.9723084,82.783714
1.0815037,86.65239
1.0945611,90.404655
1.2250192,98.1445
1.2736343,102.20407
1.3151442,108.01722
1.4735107,112.7618
1.5550157,116.122635
1.4323782,122.414444
1.5827278,122.14042
1.5203078,126.91733
1.6482427,132.31102
1.6280154,128.85405
1.6709151,139.38713
1.6876633,137.62616
1.7419771,140.6243
1.7416829,139.00888
1.6700099,137.51855
1.7148165,140.78452
1.6950814,142.27353
1.6472751,141.60449
1.6900562,139.96262
1.6422256,141.43658
1.6842855,137.26424
1.5671228,141.97491
1.5372345,136.31218
1.5596529,138.2903
1.5033649,133.64369
1.4295577,133.13985
1.4136986,134.56424
1.4153606,124.71281
1.4010875,124.224106
1.3594142,126.86898
1.3722976,122.939735
1.3838025,123.164116
1.2924914,122.95432
1.4237938,115.9429
1.321074,112.89267
1.2652638,112.48491
1.2778798,108.56472
1.2634101,103.71706
1.246133,103.76567
1.2810614,101.84908
1.2311708,93.553505
1.2575532,92.667595
1.1633499,88.90215
1.1812716,85.357414
1.1763296,82.47306
1.140107,80.335815
1.0898443,80.3369
1.0595332,79.13053
0.98264474,76.89529
0.91625994,71.3857
0.9350228,67.070274
0.8923571,72.04705
0.8603826,63.666313
0.89595604,64.10438
0.89235514,54.617073
0.7883736,61.399326
0.77997005,54.713573
0.72923434,48.90527
0.7905925,52.856438
0.8246708,43.64146
0.8695938,49.983086
0.8369671,40.0
0.8355563,44.482456
0.79690886,40.0
0.81771326,40.0
0.7479972,40.0
0.7755462,40.0
0.68039423,40.0
0.7110779,40.0
0.67644453,40.0
0.5933338,40.0
0.57389563,40.0
0.52584034,40.0
0.4752738,40.0
0.55038995,40.0
0.5163975,40.0
0.36459696,40.0
0.44987202,40.922195
0.45090494,45.945255
0.5065052,40.047684
0.4975607,50.980064
0.61618596,52.33274
0.6429723,54.31634
0.6986228,57.23068
0.80764043,60.52729
0.91273075,66.479965
0.98013,69.56864
1.112835,76.27284
1.2013878,81.85813
1.2452972,84.80788
1.3360418,90.01967
1.4661119,92.80907
1.5646242,99.25214
1.5645989,102.290924
1.6775767,111.00206
1.7189941,113.68479
1.7137748,116.67373
1.848884,124.128654
1.8393401,127.76172
1.8838812,128.99435
1.8706707,132.89655
1.8989749,134.60704
1.9917872,139.26329
1.8520672,139.72798
1.954559,143.66908
1.8980631,138.86781
2.0397477,140.4219
1.9680668,143.21103
1.8847502,148.1272
1.9482509,143.2908
1.9189857,144.80112
1.8428726,146.07375
1.8328097,139.57065
1.806986,136.7358
1.7166898,140.16154
1.7877448,136.10194
1.7660438,134.78886
1.6978451,137.07211
1.7146391,132.88643
1.6815218,129.64618
1.6692463,123.95627
1.6063396,125.01074
1.6589864,126.76669
1.5729548,118.14422
1.5308486,116.29586
1.5173655,108.57997
1.6077279,109.8719
1.5803274,103.91312
1.488659,105.921844
1.4421196,103.44007
1.4432272,101.55559
1.5157143,96.279686
1.4277018,94.788536
1.4559519,92.04514
1.4060583,87.19557
1.3804857,82.79117
1.2809721,80.86339
1.1519442,81.55956
1.2206144,80.36219
1.1758672,79.03479
1.1836535,74.72528
1.2361546,68.52796
1.1530259,67.63945
1.0315522,70.54877
1.0462048,62.21255
0.98486626,59.504543
0.943208,58.08425
0.906473,57.35257
0.977673,53.34767
0.9052999,50.739174
0.9424161,49.192215
0.892713,49.12779
0.9046695,41.466705
0.9337552,44.271587
0.8336293,43.056087
0.88946277,40.0
0.9088821,40.0
0.9705757,40.0
0.797855,40.0
0.84659153,40.0
0.7961301,40.0
0.7808058,40.0
0.6321982,40.0
0.65457594,40.0
0.627592,40.0
0.58912593,40.0
0.584932,40.0
0.5447027,40.0
0.45079687,40.0
0.553818,45.458687
0.69033223,40.0
0.5520594,43.334393
0.5282594,52.861694
0.6324563,52.34255
0.71244955,55.557907
0.7415818,65.99599
0.8791708,65.78953
0.97611606,64.300476
1.0537517,77.37701
1.1400024,76.488464
1.2439375,84.219284
1.250166,86.867584
1.4078002,94.304924
1.4305497,96.434875
1.5930854,102.88714
1.6369814,112.380325
1.652947,110.94094
1.7972177,116.955765
1.8608154,114.762054
1.7878994,121.09428
1.7962785,125.580154
1.8732756,131.43846
1.8698957,134.07584
1.867558,136.32405
1.9146684,136.72437
1.8610998,138.19124
1.8552605,140.33014
1.8386191,140.62173
1.8176957,145.19241
1.8556569,142.98105
1.8215413,146.18883
1.834491,145.54768
1.782496,144.74783
1.7427686,143.33702
1.7378219,144.12941
1.6936136,140.3438
1.6320181,138.66847
1.6382735,136.78331
1.6120944,131.20312
1.5406764,133.32727
1.5970101,129.85344
1.5066096,123.903404
1.4680985,123.8307
1.4550613,128.1634
1.4280232,121.514084
1.4004602,112.68923
1.4452075,115.131966
1.3533776,111.48266
1.4038814,108.89186
1.3808682,106.65462
1.3067685,106.65451
1.3092625,100.52014
1.2701113,96.3647
1.3171651,94.28789
1.2875912,91.08548
1.168273,90.30009
1.1737216,89.564064
1.1333525,83.64761
1.1451454,84.57111
1.1308413,83.55941
0.97916853,82.15781
0.91732794,75.712296
0.9756327,72.87931
0.8476426,67.30416
0.81954044,68.75295
0.80672795,62.00874
0.7977345,65.0793
0.7695351,55.944
0.73762804,58.465294
0.70199203,52.959057
0.7497868,52.980473
0.71841335,53.190796
0.7113878,47.92671
0.7775229,43.485165
0.65415907,40.18162
0.7508159,40.0
0.6859813,40.0
0.69113535,41.57295
0.6191387,40.0
0.54054594,40.0
0.6910642,40.0
0.55997545,40.0
0.5173617,40.0
0.47630885,40.0
0.4589163,40.0
0.30179656,40.0
0.41845438,40.0
0.33205473,40.0
0.2722662,40.0
0.23255837,40.0
0.24279627,40.0
0.32131794,41.55473
0.39837953,42.615795
0.33235794,45.817944
0.3314216,51.2806
0.35115895,53.90492
0.46266633,60.49377
0.61630285,61.46873
0.6073627,63.937763
0.72497505,70.137436
0.7602072,74.64126
0.9112777,80.75571
0.9965997,86.12776
1.0243316,92.05837
1.0905935,97.26686
1.2425759,100.880775
1.280554,106.19589
1.3777596,114.77906
1.4142135,112.94019
1.4279467,117.03527
1.3840597,123.03327
1.5333426,125.477776
1.6004859,126.79275
1.6299776,132.31573
1.574881,135.3004
1.61151,142.18436
1.5692761,140.42642
1.4948798,138.79416
1.5706123,143.93118
1.562934,136.50868
1.4821991,145.54181
1.5320518,145.37291
1.5626273,145.9577
1.4405547,146.04665
1.4670707,139.51959
1.395726,143.39821
1.3958831,138.33128
1.3262103,134.603
1.3767827,137.05342
1.263014,137.50876
1.2064115,134.62271
1.1450031,132.68059
1.1447324,124.690636
1.1827013,126.1237
1.1154009,122.21297
1.1313689,123.74124
1.1190788,118.896484
1.058608,115.14126
1.0117983,113.08955
1.003191,112.36122
1.0676409,109.68461
0.9679275,101.791176
0.9801408,98.10911
0.99758023,98.89705
0.9020332,95.66702
0.9316533,91.64566
0.95543754,93.209724
0.8964543,87.87652
0.90138775,87.1248
0.80009556,88.20143
0.7399251,82.2241
0.7563987,80.21251
0.68955874,79.01178
0.5835903,75.67933
0.5841248,71.587006
0.51494515,69.18415
0.48790294,67.83031
0.4409007,61.869625
0.371263,61.949677
0.43324026,58.78214
0.3982101,55.731976
0.41064757,52.742184
0.45700327,50.946983
0.40894327,46.30456
0.4039399,48.571247
0.35371014,40.0
0.39573956,40.0
0.35982332,40.0
0.39139628,40.0
0.42061576,40.0
0.33957443,40.0
0.31080323,40.0
0.27243707,40.0
0.18853603,40.0
0.115078986,40.0
0.13696456,40.0
0.06702737,40.0
0.08698858,40.0
0.049344502,40.0
0.006949646,40.0
-0.018071426,40.0
-0.008334607,40.0
-0.049848687,41.297302
-0.013164558,44.82713
0.033940528,44.6826
0.0049432674,49.805614
0.0990443,50.68455
0.23378825,58.043583
0.29653832,58.099304
0.34869596,63.035496
0.32828912,64.42743
0.46780068,74.967964
0.6616526,77.96892
0.73226285,81.619965
0.84498394,85.811745
0.848068,95.19846
0.94013524,99.17155
1.0372941,105.491554
1.0803251,102.1489
1.1539515,111.249855
1.1787401,108.17308
1.1749955,118.854614
1.3220626,126.006615
1.3029938,129.15604
1.3051622,127.41285
1.3100159,133.94952
1.3226472,139.75006
1.4440843,139.73978
1.3675754,140.2259
1.4331015,142.8625
1.3906288,145.3982
1.3966229,143.62474
1.3919278,141.47096
1.373966,144.41394
1.3481395,141.21338
1.2667747,142.25842
1.2200235,139.82101
1.1731477,138.87015
1.236303,141.77274
1.235797,138.23576
1.1418011,134.24585
1.1864198,133.51363
1.0958202,134.86346
1.0929806,131.0116
1.038048,124.65873
1.00111,123.868164
1.0037707,126.171074
0.9774697,120.07065
0.8961822,117.99721
0.9082194,115.67042
0.8978301,111.618744
0.84999335,110.36391
0.91275007,105.18586
0.8769283,101.94834
0.9409608,100.61236
0.85500956,98.64566
0.9077287,94.561485
0.8182114,94.48994
0.8291141,95.300804
0.79056525,86.165535
0.7226435,80.38239
0.704694,79.05225
0.6705607,76.205
0.6277746,76.084435
0.53423524,71.83294
0.5141787,74.696236
0.49210516,70.642395
0.46978235,66.22314
0.49109307,66.40119
0.41081825,63.16529
0.37512794,58.86635
0.39394817,55.870674
0.31956244,56.043007
0.46740454,54.224262
0.39213693,48.149197
0.3179369,47.66722
0.2585502,45.11137
0.3410084,40.958286
0.36296496,40.0
0.35712096,40.0
0.30910757,40.0
0.26494455,40.0
0.2577278,40.0
0.18606132,40.0
0.26361823,40.0
0.16759922,40.0
0.14471129,40.0
0.09858889,40.0
0.07558373,40.0
0.038088586,40.0
0.023291323,40.0
0.0067928475,40.0
-0.014186982,40.0
0.10032962,41.514107
0.0011904945,44.970303
0.07620787,44.451813
0.118910275,51.10455
0.121718064,45.503036
0.23704918,57.701588
0.23334132,60.82412
0.36190665,61.45732
0.54261297,67.37068
0.50532997,72.346954
0.6949334,76.31429
0.8146454,84.114494
0.80599916,84.570984
0.8682437,90.0329
0.9946737,94.17491
1.1556371,102.57005
1.1590667,107.627
1.2187831,109.10117
1.2478932,120.17038
1.3424863,119.2088
1.342655,122.271454
1.4325897,126.925766
1.5004983,130.89418
1.5046339,130.47527
1.5413989,133.49962
1.4353887,133.0582
1.600883,139.637
1.5367633,142.44794
1.4435861,135.65648
1.55675,137.51854
1.4795364,145.27248
1.5426626,137.54816
1.4841673,144.01276
1.5299045,148.74042
1.4972929,143.2522
1.4434708,144.0772
1.3545717,140.0598
1.4139287,135.10368
1.3364367,135.8468
1.3830189,130.29503
1.2781923,130.06696
1.2548798,132.9348
1.2705053,127.27874
1.256941,124.23444
1.2557889,124.324936
1.2020434,120.02842
1.1698107,119.185455
1.1605618,115.94814
1.1289948,116.39144
1.2280083,110.497
1.1553979,107.67005
1.1156032,103.55544
1.1077069,97.554924
1.1684997,103.323364
1.0851455,98.834076
1.1016387,93.90583
1.0848838,90.74078
1.0362849,90.47087
1.0096762,88.83095
0.98925304,85.888054
0.94769555,80.862755
0.8854482,80.1218
0.89204377,78.16398
0.7810965,75.81697
0.6550662,69.9335
0.7921748,65.35536
0.7250747,64.92915
0.78067565,62.99209
0.64946944,60.85569
0.7007376,57.752747
0.6669083,51.177765
0.7413052,50.36591
0.6460107,52.043144
0.6560655,51.50484
0.64831156,46.136375
0.6494224,40.0
0.63408446,40.0
0.58761436,40.0
0.6792614,40.0
0.61023444,40.0
0.64711636,40.0
0.63590634,40.0
0.6154633,40.0
0.56664276,40.0
0.4725312,40.0
0.51410496,40.0
0.4097379,40.0
0.34663296,40.0
0.37400672,40.0
0.39604384,40.0
0.25205755,40.0
0.35244045,40.0
0.3536948,40.00373
0.42052823,46.965565
0.4094523,44.581516
0.42343578,49.10707
0.44107535,51.229347
0.69194794,56.7621
0.67047375,59.968754
0.7418287,62.995556
0.8706157,70.454704
1.0278349,79.33638
1.1204462,75.21284
1.082402,82.2605
1.3286843,90.99109
1.2985902,91.50091
1.4380698,97.85603
1.5696225,103.772995
1.5333073,106.00747
1.6115004,113.06436
1.6819793,115.33259
1.6411572,118.902985
1.6694014,130.39003
1.8145394,129.65224
1.790279,131.6897
1.7398242,133.33316
1.8068142,140.08209
1.8785213,138.28746
1.8334961,139.41602
1.8832746,137.50465
1.8101138,142.1363
1.928162,140.67372
1.7946047,142.03224
1.7926202,146.71046
1.745825,145.08632
1.737944,138.43188
1.8204684,140.0419
1.6999421,138.50085
1.755009,143.00208
1.7185217,136.01439
1.6890342,137.85329
1.6572413,134.89622
1.6537504,131.4549
1.545002,127.968956
1.4962261,128.99762
1.5123479,122.99281
1.4863541,119.397934
1.4446356,124.03577
1.4493346,119.529465
1.4703422,111.30911
1.4946911,112.58745
1.4365958,111.335266
1.4713049,108.97396
1.4390461,107.848404
1.4694809,99.05631
1.4869093,99.212776
1.3843415,98.98033
1.4474696,90.092064
1.3228948,89.13006
1.2850441,87.867195
1.2971492,87.969604
1.2637295,82.76295
1.1676669,76.7626
1.1077943,76.01321
1.1183541,77.22702
0.9348849,69.06653
1.0174632,73.17329
0.9900279,66.28054
0.951876,64.097885
1.0002896,61.371635
1.0201408,65.03549
0.9101349,56.66045
0.89715356,52.59185
0.9531539,53.261295
0.87365335,52.005253
0.91537696,51.351612
0.9282518,48.231823
0.92065483,40.434082
0.9325762,40.0
0.86143094,40.0
0.7821958,40.0
0.8786099,40.0
0.7982406,40.0
0.8048033,40.0
0.78093576,40.0
0.7300231,40.0
0.64672977,40.0
0.6793656,40.0
0.6205345,40.0
0.53365165,40.0
0.53155917,40.0
0.5915713,40.0
0.5274338,40.0
0.5374431,40.0
0.5913392,40.0
0.59963727,42.099964
0.6468156,49.05347
0.5854402,53.97872
0.7003076,50.08545
0.8568816,58.577534
0.84976685,62.683964
0.8941377,70.18181
1.100609,73.75301
1.1063857,69.975075
1.2004856,83.70976
1.3587953,85.93567
1.3934097,92.22361
1.515673,95.09011
1.589358,101.547226
1.6353145,104.284065
1.7315543,111.31318
1.7605839,114.254585
1.8190297,120.29914
1.8622024,125.94038
1.8455868,127.23081
1.9505202,129.8708
1.970382,130.71024
1.988821,133.97737
1.8643568,139.82288
1.9463313,138.82724
1.9818232,143.15964
2.001178,143.30676
1.9006156,140.54016
1.926714,145.58412
1.971284,142.7226
1.9839325,140.48906
1.8766669,145.17795
1.7656289,142.72806
1.8492463,137.96074
1.8792309,140.77231
1.7011632,135.58049
1.6722856,137.92357
1.6529131,132.58133
1.7559147,134.01389
1.5989815,128.84732
1.5615072,125.38986
1.56629,126.26246
1.5798138,123.21915
1.5246112,123.62009
1.4916157,121.27022
1.5653819,114.73979
1.4981009,113.499115
1.3866575,109.93692
1.5049723,106.94569
1.4640908,107.96445
1.4142108,100.85706
1.488552,94.62056
1.435791,97.43721
1.4154283,95.669586
1.3350068,89.395134
1.2267141,88.770164
1.2964503,86.57334
1.2430817,88.21744
1.2273649,85.672325
1.1518488,79.29012
1.0769686,75.64043
1.0503415,72.675476
1.0516875,68.43316
1.037484,65.17915
1.0505852,61.08355
0.911239,56.230747
0.83895016,58.92581
0.8617032,62.17323
0.85317314,54.251236
0.7259666,51.82101
0.9375559,49.879265
0.84700346,49.965874
0.82916725,46.766155
0.89087296,40.0
0.84141827,41.775723
0.8030057,40.0
0.77901,40.0
0.8077403,40.0
0.7955478,40.0
0.76076216,40.0
0.72918487,40.0
0.65367657,40.0
0.53438485,40.0
0.5917704,40.0
0.55888927,40.0
0.48179778,40.0
0.57025045,40.0
0.47443464,40.0
0.36742496,40.0
0.40853015,40.0
0.4976931,42.931347
0.32196134,45.086037
0.44634,48.52751
0.45154878,46.557728
0.6270957,51.475548
0.6177676,57.44243
0.70838946,58.91296
0.7303609,65.15454
0.8753481,69.38831
0.90525246,73.94941
1.0374653,76.45974
1.1091259,82.94329
1.2682815,86.11397
1.2517046,89.396965
1.4405181,97.53764
1.4624356,103.143745
1.5108116,113.091965
1.528672,109.418976
1.5854189,122.18554
1.5895531,127.147
1.6945835,125.11718
1.64747,127.36364
1.7709692,132.80086
1.7480644,134.00415
1.7909815,134.38527
1.6966308,135.89812
1.7542626,140.07896
1.6994417,140.92958
1.6375713,141.87897
1.63322,143.89886
1.7148409,138.86331
1.6927593,141.2443
1.7025948,145.11426
1.658864,146.7732
1.6036819,138.83557
1.5163931,144.43022
1.5704683,139.67812
1.4713501,136.67557
1.4170285,140.24649
1.4315535,132.3668
1.3849422,130.8476
1.3863332,126.75285
1.3399487,123.958115
1.3011122,123.876335
1.2671313,124.34221
1.2522653,121.72354
1.2052765,117.69695
1.177262,117.51333
1.2014067,117.71694
1.1872642,108.76559
1.0970938,106.77339
1.2055429,101.51164
1.1323723,98.62123
1.0419294,100.4808
1.0557115,95.64629
1.0964946,92.79337
1.0676335,89.7083
1.0338321,91.877335
0.9299315,81.522804
0.8886019,85.5187
0.8820484,77.84685
0.82630956,76.99487
0.72873783,76.56189
0.65637374,67.78787
0.67854404,73.20883
0.69413143,68.67313
0.5897114,59.887478
0.6391293,59.066906
0.5200395,56.56077
0.58078784,57.54785
0.5430245,52.042583
0.54188144,53.419533
0.5290848,47.58479
0.5115754,44.80454
0.52319837,47.909847
0.39834452,40.050335
