ppg,abp
0.9647985,79.08052
1.1179715,80.9613
1.2083107,83.11956
1.3384689,82.08465
1.3445731,87.695274
1.4365586,84.9837
1.4728034,87.43589
1.4980096,88.804794
1.5628735,92.21111
1.6986612,89.50561
1.6448492,88.79699
1.6747605,88.264885
1.6342968,89.49924
1.7504576,93.575966
1.8491571,98.74691
1.6925745,93.605965
1.7629797,93.82646
1.6895449,91.10485
1.6788834,92.1255
1.7359303,100.839645
1.6230634,95.60495
1.6795561,97.11676
1.6409239,94.82858
1.6711407,94.96042
1.6023476,92.053795
1.6728542,95.10925
1.6426206,93.38232
1.5821568,97.09263
1.5625745,92.219925
1.5785844,91.76346
1.5817357,94.6434
1.4811858,92.52283
1.4172825,89.4366
1.4500829,91.01874
1.4072062,94.63953
1.3885766,89.45359
1.3522475,88.33038
1.3433349,88.34539
1.3645554,84.14865
1.3346105,88.06699
1.3027595,87.59452
1.326454,87.54063
1.3174642,81.842995
1.3314168,88.14494
1.2515818,85.04604
1.2345365,82.99921
1.3550229,76.722755
1.2532971,81.45283
1.2963657,83.16583
1.2176754,77.38191
1.1763313,78.22944
1.1628027,77.17267
1.2241035,79.912384
1.0815649,79.00064
1.0332831,82.62427
1.0030949,75.954605
1.0018264,79.06846
1.0555875,77.013306
0.94833773,72.46988
0.80811185,76.38241
0.79770267,72.53255
0.9049851,72.12712
0.8702113,72.797966
0.9656187,71.89357
0.8974494,66.80853
0.8326505,72.18785
0.8234556,71.76196
0.8257154,72.91452
0.77561224,68.92673
0.75076395,68.40046
0.84244096,67.338875
0.9020897,70.202446
0.7775867,66.434845
0.74419767,68.232704
0.80736,68.60818
0.7997717,63.44345
0.69327986,63.548676
0.6305521,64.69534
0.7373266,70.198555
0.68848455,66.95902
0.66052705,68.48092
0.51378185,60.254406
0.5865235,65.90263
0.49596155,69.687836
0.57041365,69.051735
0.6102988,66.83674
0.47348756,62.595257
0.56871116,68.81623
0.513393,67.80092
0.58881944,69.77512
0.647356,70.03644
0.69502395,68.83735
0.7914092,75.79935
0.90530676,79.05697
0.9847293,75.0444
0.95653117,73.902374
1.1556084,76.314
1.1523513,81.09305
1.3985435,84.26809
1.437427,80.01995
1.5434238,81.82837
1.4722416,82.94789
1.4747059,87.167046
1.659647,89.32955
1.7144191,87.18389
1.7731019,85.05572
1.8563733,85.444115
1.9100926,90.598
1.9292542,92.32953
1.9819757,90.29668
1.9556558,89.62518
1.8642541,95.41012
2.0159035,90.19013
1.9339397,96.528915
2.0127678,90.82461
1.9632992,92.05775
1.9484183,91.97081
1.9609476,95.685486
1.925718,96.73525
1.8731431,96.41371
1.9033922,93.49558
1.9620463,98.95198
1.8971995,91.73915
1.8895814,93.18538
1.8917261,93.981125
1.7854428,97.21214
1.7166438,93.100136
1.6373423,93.065285
1.7650696,94.00858
1.6577302,90.101776
1.6843207,93.20595
1.6081746,92.580475
1.6250583,90.3839
1.5482886,89.32487
1.5763118,91.86795
1.5368242,87.25678
1.5462381,87.219666
1.5162541,88.535416
1.450609,90.86869
1.5417163,89.019615
1.5095344,92.271194
1.5140326,85.5767
1.4208559,86.05079
1.445165,83.353325
1.53044,82.4376
1.545878,80.16722
1.4619479,80.61764
1.347314,78.979485
1.3153234,82.945206
1.2899282,77.445114
1.2792909,78.01144
1.282953,84.03548
1.156916,76.91801
1.1208551,79.30431
1.1193148,77.83929
1.0897862,75.95059
1.0160229,77.56608
0.89117444,72.794426
1.0470947,78.02881
0.9213058,72.88518
0.93423563,71.8727
0.92476666,73.29126
0.9168503,73.6706
0.9820968,67.17393
0.9130043,69.2815
0.84671724,72.4969
0.93110865,68.36697
0.7743678,66.78842
0.9375938,68.51996
0.8841411,68.6673
0.83134663,64.69522
0.7933354,70.81773
0.8086823,62.978405
0.8325795,65.17974
0.7941723,68.54069
0.8197262,65.58342
0.76519287,67.72775
0.6625251,65.25745
0.57857054,68.07104
0.5861348,65.7181
0.43960705,70.38758
0.50746423,67.25278
0.4454948,63.82613
0.4989771,66.97366
0.4879978,69.89947
0.39945695,67.135376
0.46817136,70.88296
0.55586755,69.01942
0.5561739,67.91349
0.61785567,69.185196
0.6705434,71.255714
0.7332914,76.33747
0.8127089,74.03097
0.8700862,75.80863
0.9103008,79.63751
1.0586405,80.6967
1.1128939,79.91461
1.1591511,74.55296
1.3277582,85.82858
1.3042444,82.18524
1.4273913,84.654686
1.5061103,83.69299
1.5577234,87.67673
1.6501943,85.787735
1.6901478,89.00778
1.7002518,92.3517
1.6445428,88.408615
1.6525917,93.5866
1.7625133,95.62175
1.795479,91.69876
1.8936411,91.809586
1.7788999,94.60894
1.6936626,91.258995
1.8079592,97.27463
1.7641948,90.11686
1.7272309,97.37125
1.7492317,94.22279
1.7613732,94.696144
1.7604694,94.43586
1.7984811,94.8235
1.7565105,97.08263
1.732168,95.04622
1.6129119,95.327
1.7121527,96.4636
1.5485786,96.24938
1.4719174,93.28313
1.5265613,93.25707
1.4529394,88.423134
1.4677839,88.72801
1.374768,91.20426
1.4125049,89.22499
1.3027261,89.43355
1.2905406,90.61738
1.3872238,90.07631
1.2849587,90.169785
1.2166975,88.554794
1.2491544,86.9463
1.2084582,88.81536
1.2647188,86.75729
1.268263,83.05986
1.2075163,84.98048
1.2338338,82.58661
1.2294903,85.56816
1.1275069,80.96298
1.2240101,83.397995
1.1163175,84.452484
1.1474395,77.41104
1.0539694,80.23062
1.0344192,81.374794
0.9635681,76.74611
0.8663482,77.10916
0.9608865,82.04719
0.860285,76.149574
0.71414155,75.78446
0.8341117,76.100204
0.71377003,74.617455
0.72682214,79.48269
0.73935,78.57416
0.66000277,70.087555
0.67517185,72.19043
0.665613,72.26936
0.6230232,72.030464
0.67022896,67.870605
0.5364447,71.42867
0.51075876,70.38728
0.5290455,66.36353
0.61628634,62.051052
0.6058613,63.41839
0.5814346,70.76807
0.50786984,66.13347
0.56583536,66.89117
0.42983827,69.48693
0.42471465,63.847782
0.50621986,65.07443
0.2974781,66.44221
0.32283682,64.5874
0.26046616,64.73853
0.26496118,67.462105
0.29655802,64.61175
0.17854328,67.76531
0.17403942,66.76445
0.14900826,69.28032
0.124339156,70.33504
0.18680461,68.92046
0.17278807,67.91279
0.24556604,69.71651
0.23429288,71.72477
0.32444072,72.45722
0.31918162,72.76379
0.32567707,74.17465
0.36926347,79.9649
0.60477877,77.299286
0.5959395,78.16867
0.5119738,76.31091
0.7393021,78.85563
0.7331045,78.07428
0.8247525,79.06379
0.9648269,83.15673
0.94432026,81.84871
1.0842772,85.9444
1.1897849,83.022514
1.1744866,85.946335
1.2986832,87.575165
1.2789531,86.32121
1.3602265,93.485115
1.3406618,92.41585
1.3688542,87.53553
1.398284,96.08291
1.5071295,91.495476
1.4402217,93.185265
1.4620545,94.40826
1.5151633,96.37235
1.3823631,97.3361
1.3691752,92.68963
1.3580464,96.60152
1.4250469,96.67089
1.4469426,95.37024
1.4223324,93.19691
1.3648243,97.160065
1.3258479,94.06611
1.3499115,92.615364
1.2945936,96.30467
1.173826,95.96896
1.2361392,95.4364
1.2474977,91.800995
1.1816823,92.56371
1.1136351,91.25566
1.1534246,95.850876
1.0465983,94.66878
1.0419562,90.42166
1.0085039,90.30111
1.0026653,89.4977
0.9612277,91.23561
0.93283606,84.89066
0.9982054,88.971275
0.9611505,89.438095
0.870955,87.263084
0.90749586,90.88517
0.9306519,87.181465
0.96287054,80.22993
0.9128993,85.98447
0.83642703,86.50004
0.9557494,83.150635
0.87980443,81.58935
0.8928342,84.461174
0.87861,80.440735
0.781183,79.02707
0.736571,81.9977
0.7325407,78.81584
0.5640747,80.27301
0.60919136,79.42716
0.53349096,76.767426
0.52806085,76.31813
0.5466852,72.36687
0.43617803,78.78806
0.39221823,75.86572
0.4535828,74.6935
0.3668336,68.407005
0.3210234,73.63674
0.4678698,72.48321
0.34492645,70.11828
0.2997546,69.90012
0.4270411,69.35154
0.38166466,70.2134
0.2280632,68.24568
0.24194813,73.354996
0.28171942,69.78439
0.2993918,67.43114
0.25593334,63.07789
0.22889878,68.4489
0.18632635,63.64723
0.16658936,70.37148
0.3054082,65.25078
0.1565432,66.9868
0.06866059,65.870705
0.05538549,62.657448
0.03449289,64.5111
-0.044839937,65.17766
-0.007293386,69.56494
-0.020673372,66.1911
-0.021161325,72.216286
0.013044834,65.53105
-0.13859272,68.97543
-0.054268982,70.91668
-0.034105968,67.29962
0.02788546,71.60395
0.019994635,69.56832
0.113355406,75.6007
0.19747533,68.78022
0.2338725,73.34902
0.33714545,76.724
0.36327684,78.164406
0.49705717,73.79783
0.6068376,80.03295
0.64575684,80.96128
0.68932855,80.0977
0.82411027,83.37132
1.0637503,82.44384
1.036422,87.544014
1.0660993,81.23816
1.141282,86.2566
1.0894239,88.08123
1.2226536,85.95896
1.3593038,91.53264
1.3304849,91.06391
1.365938,90.94537
1.282765,91.497314
1.2781692,94.14734
1.4248116,92.60045
1.3445178,90.29987
1.4120841,93.52058
1.369685,93.50172
1.4616632,94.48435
1.3818501,97.28805
1.3536049,95.92451
1.3472528,97.83
1.4202797,95.98508
1.4302071,97.255066
1.4014406,96.4887
1.3035579,94.5723
1.212915,96.17748
1.2843771,94.04187
1.1641996,96.924416
1.1741188,95.08647
1.2109057,90.1093
1.1503683,90.42929
1.162477,93.524086
1.1081493,92.00131
1.0113281,92.49185
1.2405452,92.3491
1.1349173,84.425385
1.023329,91.722176
1.100493,91.061066
1.0177978,87.3253
1.04104,84.74127
0.9723603,90.22815
0.91110504,86.458305
0.8835196,85.952415
0.9843647,86.774414
0.94189334,88.45158
0.89595926,83.70467
0.83496475,79.3023
0.95900613,85.53194
0.8493582,80.41871
0.8516083,81.794426
0.86424255,82.9051
0.7314711,80.43348
0.7721081,73.400795
0.75531435,69.8439
0.5257649,78.85892
0.6420659,76.61244
0.5890404,71.03022
0.5163393,72.084175
0.5260393,74.58328
0.5531086,72.60284
0.6016502,76.06841
0.47017854,74.06773
0.448096,70.83058
0.44836906,70.880714
0.4814124,67.14599
0.4298096,68.79705
0.47460166,70.03389
0.5336874,70.7646
0.43295002,63.79749
0.5270242,69.9984
0.43450847,69.543686
0.5020484,65.17676
0.43876806,64.47504
0.47215715,68.68084
0.5044765,66.54795
0.50134206,68.97102
0.4430363,66.60821
0.34846085,61.88858
0.30957898,68.236145
0.268675,63.77581
0.20626014,65.83324
0.2722508,64.72096
0.23119098,63.489002
0.13703774,66.85027
0.16591129,65.16954
0.24200563,68.25912
0.076950945,66.35793
0.10652002,64.79042
0.21097872,67.6496
0.30651394,66.67492
0.35439947,72.06459
0.45024022,72.368935
0.5458139,74.50159
0.5339881,72.45541
0.6565353,75.05697
0.68488175,80.30202
0.7717286,74.22886
0.9737009,75.23624
1.003348,76.68728
1.1491463,78.47009
1.2245576,84.344765
1.2302935,78.055466
1.3135126,88.99749
1.4551274,83.336525
1.488011,88.70612
1.5539883,86.86623
1.494614,86.485886
1.6143702,87.00056
1.6048117,86.686844
1.6024383,92.11994
1.661461,88.17351
1.6190563,91.39717
1.7574023,95.06022
1.6546038,95.44503
1.6551405,99.15451
1.7145659,98.7299
1.8070903,95.75666
1.669127,94.71573
1.6989325,94.65104
1.6490937,95.9527
1.6362723,95.244484
1.6757572,97.20905
1.7218584,94.68956
1.5543374,92.40692
1.582543,91.89041
1.5234369,90.31427
1.4750162,94.25346
1.5333326,94.01448
1.4636011,93.365036
1.5390977,95.45503
1.4801581,85.7029
1.4517913,91.85395
1.412641,92.31837
1.30813,89.179726
1.3680882,87.29516
1.3191546,91.44156
1.35641,88.02571
1.3045955,88.46879
1.3664528,88.11106
1.3301874,82.95566
1.2236885,85.80512
1.242286,83.92041
1.4013646,84.05674
1.2932382,81.083244
1.2432613,81.242584
1.2774378,83.6992
1.2413146,79.86253
1.2366587,82.72115
1.1338608,81.45017
1.1580793,81.45347
1.2320412,80.21629
1.0675291,77.46636
0.9249923,76.87116
1.0788473,76.62971
0.9951779,73.093155
0.8835763,75.87253
0.85597503,77.08611
0.8694533,72.50442
0.8096379,75.36835
0.8581446,70.18593
0.7937568,72.09928
0.839798,72.09335
0.92780757,70.77915
0.8860825,72.3025
0.88622963,67.3864
0.90763146,70.16046
0.87719655,65.88517
0.93777025,69.235344
0.84085417,66.64701
0.74648786,66.83099
0.8463039,67.99356
0.84558654,69.81569
0.777435,67.99538
0.78604656,69.07282
0.7877036,65.47191
0.71046054,66.270836
0.6707622,64.34201
0.5742055,67.17693
0.6282187,63.597866
0.5687389,64.96442
0.5624496,68.13345
0.54479116,62.40586
0.46643052,68.061104
0.49366587,72.84404
0.48208162,70.45353
0.6185621,67.94956
0.51021504,70.06423
0.5597849,69.82382
0.68336076,74.76868
0.57064414,76.66193
0.7069009,74.78736
0.7659423,78.6944
0.8784442,76.76649
0.9709891,72.24148
1.0530381,70.86823
1.1663219,76.20797
1.1712099,79.31279
1.2974017,77.89605
1.329821,83.9802
1.4954723,80.91592
1.5564001,77.896355
1.5551525,84.36271
1.6771183,89.86379
1.738977,87.56555
1.8054821,84.03905
1.8870575,88.93331
1.818876,88.732605
1.7498244,91.838264
1.889591,94.624626
1.9349122,92.48604
1.9253035,93.8182
1.9489436,92.48986
1.9953729,91.07862
1.9992357,98.81085
1.9205996,97.3326
2.0108333,94.221405
1.9895755,95.62965
1.9041475,94.06335
1.920213,99.677
1.8676463,92.611465
1.9187196,94.789635
1.813087,93.798
1.9014282,94.44499
1.7836912,96.000946
1.772552,95.51797
1.7814307,92.31495
1.7853315,95.76795
1.7092484,93.9131
1.7309338,91.40209
1.5768199,96.397934
1.5435739,89.892235
1.5897938,90.034645
1.623987,94.77341
1.5860531,90.52708
1.5743521,84.49534
1.503016,92.49369
1.530904,89.37657
1.4571565,89.223976
1.5083283,83.7418
1.4503294,84.27074
1.4858129,84.250595
1.4912603,86.73057
1.4125648,85.91515
1.3703505,82.240685
1.4073489,80.24745
1.3961595,81.26042
1.3958241,82.61713
1.3326126,80.64812
1.3172315,75.534775
1.2450172,76.48182
1.1817447,78.96153
1.1691904,79.96239
1.1858697,78.26513
1.0500712,73.1641
1.0847287,76.749466
0.9854273,76.34006
0.9045543,69.48797
0.939528,74.929825
1.0015372,74.63188
0.9399917,65.63033
0.94135356,67.30819
0.9216504,71.42584
0.80941147,70.95713
0.8594527,68.47934
0.90588814,68.69025
0.96166223,69.71878
1.0159049,70.23849
0.96656287,64.88499
0.90431535,66.329575
0.8378915,70.30344
0.87995166,65.30106
0.8121261,67.128845
0.8230607,66.59143
0.7642613,62.94592
0.7500684,62.171383
0.67129123,66.98769
0.61529374,67.656624
0.6682514,65.37397
0.5462695,67.24765
0.53559226,64.01704
0.56939155,69.99971
0.44058785,66.30247
0.4641477,64.49631
0.37743223,69.13918
0.51286507,69.85638
0.53357875,65.03662
0.5241528,67.500755
0.6243959,75.73426
0.6661389,71.13613
0.71119493,71.56868
0.7514025,77.03694
0.7755891,74.75381
0.94199747,77.30269
1.0605904,81.03567
1.0656164,80.108986
1.2690396,75.51133
1.2835994,79.42862
1.3030307,79.32332
1.4025284,84.0784
1.4511578,84.58395
1.464877,80.625496
1.6422634,88.223305
1.5659575,82.33182
1.620707,92.611855
1.733814,88.14543
1.7943178,83.03196
1.7834283,91.80692
1.7163119,92.20439
1.8218069,93.64144
1.8254851,96.97356
1.7971112,93.42266
1.8338928,94.01337
1.7815158,94.97605
1.7848301,94.027245
1.7712151,94.250626
1.7608465,95.33693
1.7608061,96.98662
1.7675589,99.43578
1.6835059,97.54735
1.7096748,94.82834
1.6602474,94.21638
1.6731335,92.46619
1.6458517,95.87753
1.674502,93.579796
1.5657468,93.79681
1.5580962,90.40081
1.4683123,93.70879
1.469903,91.34066
1.3840578,92.55654
1.3278615,93.060905
1.3879579,93.45334
1.3009565,89.77739
1.2945676,95.66288
1.3067863,89.555756
1.1766255,90.11524
1.2831938,85.939735
1.3034897,85.99957
1.2654265,81.8676
1.167346,85.50661
1.2198262,83.99388
1.1754296,83.56273
1.2425371,83.84312
1.2288911,81.313835
1.1352047,84.79133
1.0896289,78.634735
1.0908526,79.42
1.0534023,80.115776
1.0235856,79.6775
1.0207423,76.347664
0.8810064,78.3546
0.79526466,73.48688
0.90223,72.996895
0.82289845,75.15925
0.7548477,75.073845
0.6342899,77.54953
0.6375464,71.18384
0.61169136,71.0412
0.7133664,73.484535
0.5432012,67.677956
0.62369347,73.08975
0.63770586,74.829544
0.64565337,72.05583
0.5855385,70.30438
0.6279733,69.92385
0.588236,65.85461
0.5155338,65.296135
0.56376195,65.091324
0.6177154,70.17556
0.567544,68.76838
0.4903455,61.943
0.5148911,66.69182
0.4438171,66.47342
0.4716116,66.824104
0.38102424,63.55682
0.38360658,69.03407
0.2958671,69.06851
0.28707534,61.992085
0.32120368,64.89872
0.18762955,67.653595
0.23293284,69.04401
0.244817,70.52231
0.15934311,68.3746
0.1638388,71.50949
0.22358023,71.955086
0.19737738,71.66919
0.13732678,70.33061
0.30335966,67.19901
0.33652478,71.7031
0.37002757,69.76687
0.4984111,72.43784
0.4876478,74.985725
0.6742863,77.60966
0.6793175,76.06735
0.7889779,75.93252
0.7705482,80.15555
0.8604363,78.26557
1.1064792,83.81164
1.2341822,87.84133
1.2292006,89.67104
1.3163898,85.747574
1.2970006,89.74846
1.3208077,86.15861
1.3792379,89.20574
1.3436406,88.243164
1.4153568,93.124756
1.4362518,92.48978
1.4865689,91.53757
1.459486,91.289536
1.4227474,91.16926
1.4620217,91.80391
1.497151,96.275536
1.452842,94.27076
1.508305,96.70758
1.446851,102.1391
1.4515436,94.842964
1.4192138,97.53504
1.3722463,95.85624
1.433791,89.545074
1.3319899,93.62966
1.3960787,97.856544
1.2707022,95.14944
1.2765505,90.16614
1.2221314,90.10796
1.1860405,92.23882
1.1058573,93.25581
1.154398,93.57337
1.0905025,89.26745
0.9607019,91.59384
1.0838791,93.719536
1.0471005,88.844604
0.9913267,83.909
0.90543234,91.67465
1.0419899,83.21364
0.99983466,88.16727
0.9821287,86.41067
0.8601293,88.280594
1.009871,87.073685
0.8854215,84.22711
0.93645823,82.97088
0.8981852,83.127785
0.8999566,82.39229
0.8395151,79.10794
0.939456,84.332436
0.82824564,78.08605
0.83712053,80.5724
0.75561184,77.73899
0.80469966,78.465
0.6792312,81.00148
0.73022705,83.42903
0.5578863,77.8379
0.5678554,83.23501
0.42860284,71.394356
0.42657956,77.43238
0.48752758,73.36382
0.3480964,73.91075
0.36208922,74.90406
0.3675208,72.0651
0.35159734,68.969505
0.30326298,76.77867
0.370935,70.075066
0.26383197,67.995255
0.32554674,67.47582
0.26751238,68.37687
0.20205833,67.113716
0.39214745,66.11963
0.32510895,64.73326
0.23625624,65.297585
0.34998184,59.95648
0.27197722,67.91709
0.24248175,67.12879
0.16172177,65.17388
0.118713886,65.80475
0.11626315,65.70681
0.036716618,65.355385
0.1508848,69.187675
-0.045957662,65.7728
-0.020341603,69.92416
0.030260421,66.643036
-0.10286493,65.88091
-0.08553317,69.875626
-0.14721115,67.72799
0.04823311,67.52783
0.031016137,64.30075
0.0031480738,66.77171
0.03962145,70.32025
0.16385715,70.37526
0.20695685,73.256966
0.19599722,70.76257
0.3242358,74.49103
0.38884684,80.05145
0.47318837,78.74051
0.5338193,78.05685
0.63553196,77.96889
0.72781277,75.90781
0.77834153,77.2236
0.87234926,87.02192
0.8774039,84.58777
1.0440309,83.67703
1.0945319,89.87691
1.0527972,85.61879
1.1775122,89.61724
1.227383,91.91472
1.2809691,91.7761
1.3327105,94.807785
1.3797988,95.537445
1.3094354,87.94281
1.3345897,95.41718
1.3887533,95.782814
1.4690183,93.02008
1.3632574,96.08991
1.3739468,94.41326
1.3187752,94.01152
1.4352332,93.61935
1.3197788,97.45712
1.3555502,97.23634
1.3624058,93.615974
1.2535757,96.48977
1.2657826,94.93892
1.3305086,93.49179
1.1464655,92.64451
1.2347822,97.33813
1.1576395,93.893295
1.1840209,92.36101
1.1133122,91.58649
1.1006334,89.341515
1.0943518,94.40938
1.0614121,89.83584
1.0204475,87.45283
0.9129779,87.75585
1.0412141,87.691444
0.93315375,88.88972
0.95425916,88.21486
1.0330174,90.847374
0.98213,86.3642
0.9970158,88.70268
0.8903411,82.21048
0.97822654,85.4032
1.1088313,78.788315
0.8728954,82.525856
0.88608307,79.74093
0.8792164,81.61928
0.7984581,80.817444
0.8742742,87.72684
0.8502491,77.19836
0.75117296,77.0909
0.718547,79.2728
0.69435555,76.5668
0.7257053,78.64983
0.59028167,73.07082
0.650054,77.08824
0.6240085,73.814575
0.53004366,76.679504
0.47380963,71.30382
0.46271098,72.20502
0.5115884,73.88514
0.4879886,74.43631
0.38324046,72.36722
0.43976393,68.617836
0.45561883,72.994125
0.5351738,67.93589
0.49766856,67.17006
0.45185795,70.10503
0.357717,72.22702
0.4666494,67.59065
0.41879728,68.46749
0.3608897,66.61193
0.40230507,66.72157
0.4416939,65.599915
0.31209925,68.4639
0.3087396,65.23458
0.32278085,66.737274
0.26298565,66.17437
0.22199409,68.175285
0.21993382,63.23296
0.22736098,67.23453
0.19933975,64.85636
0.18103984,66.67706
0.0939454,70.04461
0.14501543,66.41341
0.15452062,65.747154
0.1715227,65.80735
0.14838195,70.783775
0.25197175,70.26611
0.24300317,69.805534
0.31223947,67.98424
0.42363128,72.298035
0.46434453,76.34169
0.61736673,74.8078
0.6473795,75.31109
0.762102,78.836105
0.8937914,78.368385
0.9612953,83.69049
1.0743755,79.98779
1.1515654,83.955826
1.14097,82.07977
1.2611206,83.56386
1.3812027,84.57779
1.4229257,84.79198
1.5492826,89.94103
1.5399348,90.68876
1.5400447,86.05312
1.6600507,88.331955
1.5806893,88.304955
1.5452521,93.58764
1.6217649,91.778015
1.7375189,89.84028
1.6735905,89.54872
1.6072881,96.88305
1.7076899,95.091034
1.708988,97.16798
1.6837194,89.066246
1.7591467,94.85887
1.6351689,99.770195
1.7350196,95.781654
1.6145834,95.33256
1.6460783,94.54823
1.5537024,94.67034
1.6517265,95.00791
1.6561927,93.220894
1.5365151,93.176315
1.4876223,95.09681
1.461632,96.44808
1.4147351,90.53167
1.5220627,90.02262
1.4600726,91.654045
1.4593728,93.797585
1.3189447,91.00487
1.3207966,94.375206
1.3521922,89.83129
1.3011743,87.59963
1.3353646,88.94724
1.2667811,89.15167
1.2562822,86.530174
1.2122089,81.11438
1.3488232,83.04205
1.2399989,80.59762
1.2688766,85.4431
1.3078954,81.029945
1.234906,79.45495
1.2151148,79.34465
1.2601864,83.2262
1.1888492,81.18384
1.2634366,79.99647
1.1139531,80.16665
1.0573094,74.22789
1.0274304,77.47398
1.0515519,74.87776
0.9122015,78.249756
1.0745873,79.14703
0.90228367,81.11168
0.84501386,74.32999
0.83785343,78.45071
0.8615806,74.62923
0.9681854,70.173965
0.83319026,73.56947
0.82521844,73.63796
0.75837743,71.04996
0.81099623,71.82986
0.7886925,68.760376
0.8685727,65.241005
0.8777189,64.21278
0.7299519,65.28821
0.8057301,67.956894
0.8410145,68.67996
0.81007683,67.54795
0.7660118,68.06402
0.7613243,72.32472
0.7310347,66.088615
0.6988345,67.431526
0.72859025,65.40412
0.59961873,65.25655
0.67255634,65.197525
0.5674959,65.494644
0.54964036,68.46302
0.5436231,62.840355
0.5168977,63.11228
0.47765365,68.66704
0.4614966,68.548195
0.6811101,73.079544
0.49312332,72.73622
0.51459956,69.74647
0.5754356,70.06762
0.6392457,67.4854
0.73688895,70.37473
0.692992,72.82819
0.868063,72.58351
0.9252847,77.766014
1.1311678,77.93111
1.0574008,75.05982
1.2537771,80.62026
1.2796701,81.464806
1.3766985,81.548615
1.4206085,80.61352
1.4924003,84.45111
1.542865,83.90126
1.6499913,88.13935
1.7501264,87.21534
1.7586769,95.148705
1.7925516,89.811264
1.862742,90.506195
1.8287807,89.64386
1.814162,94.57185
1.941693,91.7154
1.8894862,92.49605
1.898031,95.85658
1.9575533,92.68278
1.9661524,94.515144
1.9720439,95.17171
1.8891194,95.50567
1.9763315,98.11732
1.8844228,95.56102
1.9632856,95.86903
1.9569768,97.071686
1.8251588,96.56068
1.9410664,95.37374
1.9107277,93.30362
1.8158647,91.86972
1.777315,95.605484
1.7108568,91.91709
1.8128308,95.73611
1.7010347,90.37199
1.6792598,91.14926
1.6912781,88.43383
1.6384184,91.10974
1.537453,97.82229
1.5645257,89.843925
1.5974807,93.00794
1.5142143,91.3801
1.5656855,90.21757
1.5588654,84.481384
1.4953184,89.53367
1.3787841,81.99414
1.4386281,81.5883
1.5550208,92.31655
1.5446333,85.90891
1.4580702,85.67945
1.3814778,79.76908
1.4578857,78.86073
1.5078325,81.04252
1.3802644,84.18468
1.286908,84.01467
1.3932978,78.55062
1.2779338,77.93169
1.2213871,82.542076
1.2093316,72.142624
1.1917348,80.68841
1.136864,74.87748
1.1203983,80.1092
0.9822964,73.00256
1.0454106,75.459946
0.9930386,75.61021
0.9891809,71.71949
0.96797216,71.31019
0.9836727,74.770996
0.9388391,77.10263
0.90248823,66.85124
0.96898556,68.93074
0.8540753,67.61511
0.95187926,68.05359
0.93856376,69.80817
0.84144217,65.97701
0.81170756,69.61504
0.83810455,65.05207
0.82469666,67.32201
0.78449017,63.565372
0.8671151,62.32072
0.7071995,67.222786
0.72641903,61.956787
0.6815298,65.75901
0.6964897,65.55199
0.68818384,65.22999
0.69517213,65.734634
0.47676516,70.88389
0.5756386,67.70042
0.4939032,67.316216
0.51701593,63.487293
0.552288,70.082634
0.5689534,66.83157
0.50037855,69.71989
0.51402056,67.47141
0.6013603,71.19337
0.71970034,71.12413
0.7073771,70.355156
0.7275289,77.15914
0.83991414,67.85918
0.94391733,80.26094
1.1268544,74.24755
1.0496278,81.8786
1.08555,76.68945
1.2545308,77.65071
1.2765795,85.826965
1.3253895,84.51578
1.4852875,85.62943
1.5250304,83.7568
1.5973002,83.319496
1.7045217,87.2668
1.7320218,90.18416
1.825106,83.41008
1.7518377,93.21109
1.8008403,94.638176
1.7817008,92.5193
1.847359,95.6359
1.8301237,95.92454
1.8450061,91.71866
1.7708167,96.66028
1.9169501,98.18255
1.8189174,94.04452
1.8494335,97.83261
1.803375,96.32368
1.8140819,96.02941
1.7497563,96.15595
1.8526299,90.20848
1.6305647,95.56078
1.7950357,95.202805
1.6490043,96.39115
1.7127291,92.64359
1.6299062,92.96644
1.6023875,94.04702
1.6580048,96.66733
1.6237389,97.52181
1.4731573,93.753075
1.5462894,92.70865
1.4670383,92.51021
1.3803691,95.501656
1.3641986,85.98815
1.3479391,87.05812
1.404206,92.04032
1.3866668,86.91696
1.3164228,87.51171
1.2906413,87.95841
1.2800864,87.01728
1.3382932,85.55558
1.2955333,85.911896
1.2566506,84.078735
1.2189311,85.289925
1.2118056,80.27856
1.1705832,80.63762
1.1708686,85.49461
1.1440128,76.120514
1.0850949,74.993195
0.92307633,83.49965
0.9737373,79.07546
0.9651301,75.05176
0.8784958,75.91278
0.8428784,80.598434
0.82086223,77.33928
0.94265926,78.06778
0.8068242,76.174904
0.6823191,76.9943
0.71843576,71.871185
0.70225316,71.28248
0.5654145,71.93179
0.5507235,69.04061
0.68077385,68.47427
0.7182672,73.483086
0.6619606,70.975494
0.6890648,68.935356
0.621778,67.4974
0.6475532,70.24287
0.6103104,69.661606
0.55486286,64.38015
0.5415739,68.25994
0.45391184,64.98041
0.5449505,66.81386
0.44118372,67.120056
0.50763875,61.50113
0.5578939,66.445244
0.27011114,62.10642
0.3149089,62.760483
0.33255354,66.23899
0.2924261,65.21615
0.3129463,66.648766
0.21289617,67.67288
0.2274741,68.929306
0.09117154,67.53068
0.21850578,69.260735
0.30439553,65.76594
0.10199868,65.537125
0.25214317,71.86278
0.29174387,70.023
0.34186137,75.922104
0.3569027,71.203636
0.4279021,72.26178
0.4581066,71.83007
0.6284114,73.09578
0.795448,77.166695
0.8016571,79.246994
0.769475,79.14004
0.97973883,80.73332
1.0380839,79.378716
1.1117522,84.39472
1.1794912,82.76222
1.2684689,86.19675
1.3078103,89.11332
1.330601,89.80835
1.3513354,88.65282
1.420119,90.185646
1.4632237,90.206795
1.4520783,90.257
1.5276768,95.35185
1.5048773,91.63986
1.5084574,92.79559
1.3902206,96.52418
1.5654333,95.230644
1.577151,97.39526
1.4742842,91.14894
1.4840505,95.97486
1.4213905,95.59636
1.4609133,92.74293
1.4608833,94.3785
1.4615812,93.03135
1.3753369,97.69855
1.3238899,95.120895
1.3853729,95.363815
1.2632519,92.03532
1.2556878,94.032936
1.2635767,89.29379
1.1713411,96.51961
1.2528516,92.58603
1.1561288,94.26102
1.1457735,87.47196
1.0367904,89.089874
1.0058782,89.916695
0.9775889,93.47631
1.0329092,90.73984
0.9585729,91.05828
1.0380163,87.39142
0.94829065,84.20133
0.89288324,89.2426
1.0027938,89.779205
0.9735999,83.724266
0.9408852,83.00265
0.938866,83.225235
0.88138837,83.31214
0.8573807,83.55904
0.76438344,77.43182
0.7538727,75.59487
0.7138829,82.27078
0.75444615,76.81717
0.7231502,79.62844
0.7113403,76.257545
0.60369986,82.71936
0.5774177,78.413956
0.5701633,78.08731
0.54050756,78.14849
0.47450027,75.96072
0.4678996,75.86309
0.41992974,72.87986
0.41447815,73.15171
0.40046218,69.670074
0.31225637,70.46304
0.31392866,72.00962
0.38777632,71.51182
0.32485792,68.40297
0.29240078,66.04226
0.3593648,70.55783
0.24826743,67.94728
0.34351793,65.64342
0.28940362,66.33963
0.30617177,68.03816
0.3183523,68.25291
0.16872206,65.53796
0.16620083,67.7142
0.25415277,63.63441
0.18314086,62.70128
0.23734644,63.095734
0.16811141,70.94142
0.10890593,65.8267
0.034040324,64.96448
0.05301516,63.85055
-0.023827597,63.273365
0.059127584,69.70037
0.034330882,68.00425
-0.060308006,69.05297
-0.07850465,68.62102
-4.84735e-05,68.514725
-0.028017418,67.70208
0.018423907,70.58841
0.05732386,63.14536
0.17415552,76.30024
0.16295585,69.977104
0.2699963,74.216095
0.31056857,71.26519
0.48158717,80.10376
0.54215753,78.5169
0.5704378,78.55702
0.678687,80.85947
0.83350366,84.14297
0.85055685,81.59614
0.9836297,85.41938
1.0776855,88.12403
1.0361983,85.44127
1.1379026,85.46587
1.2270848,89.72849
1.2318051,90.61279
1.2731175,92.90765
1.2858841,89.49232
1.3461092,91.20176
1.4152004,87.14012
1.3172163,92.54968
1.3228937,94.428345
1.3930094,89.97083
1.3975513,96.14955
1.3593024,95.56164
1.352981,90.34178
1.4077079,94.35658
1.4641055,96.14452
1.3737426,92.57067
1.31455,98.0628
1.3824788,93.12957
1.3495712,93.97713
1.2745734,94.05345
1.2608615,93.45143
1.2797277,89.155685
1.1642503,95.992645
1.0914671,93.42127
1.1054416,89.51842
1.0896401,96.94197
1.099193,94.545555
1.1421354,93.58545
1.0568904,91.88713
0.92621225,88.22418
1.0115198,88.964165
1.0707505,90.24926
1.0062206,89.26099
0.9143256,86.47964
0.9767714,88.71108
0.9569314,83.17254
0.88696146,86.23762
0.9786395,82.488815
0.9793923,80.29302
0.83636945,82.79689
0.93822867,85.05816
0.88231987,82.901726
0.9239623,77.9998
0.75514275,75.86456
0.764143,84.65956
0.770851,80.449715
0.8091232,77.62571
0.77283376,79.21097
0.7155923,78.48784
0.58580464,81.32049
0.6723358,79.257
0.50962603,78.37446
0.5869059,74.66837
0.49945793,80.43941
0.5079256,80.9961
0.53631306,73.67753
0.4637586,72.88616
0.42443272,73.13556
0.48608062,72.840836
0.46844766,75.677475
0.4622899,72.06672
0.50729334,69.06186
0.5583614,66.658714
0.4248445,68.77682
0.40550715,68.88733
0.45656493,68.43729
0.4619692,68.89109
0.47299367,66.75026
0.3770662,65.33208
0.42623794,63.331738
0.4111003,63.48912
0.35039836,61.962677
0.29295734,61.211014
0.2053219,60.692844
0.25720686,60.28109
0.13251121,63.22922
0.1511381,68.20806
0.18205358,68.7524
0.13092819,66.74488
0.15119228,68.881516
0.18667638,66.96713
0.15765744,63.393196
0.14755967,69.69549
0.1473438,69.57957
0.23804307,73.48622
0.32391274,72.81643
0.3210675,74.85702
0.4887,78.007996
0.5089908,75.78718
0.5125273,77.40964
0.72845954,78.19065
0.75840664,79.560745
0.85754806,76.60706
1.0844612,80.755974
0.99766463,81.758194
1.1280117,80.72027
1.3026048,83.43633
1.2787298,89.39514
1.3050435,87.82699
1.4110562,84.49216
1.4544337,88.29776
1.5171357,87.75651
1.4545437,90.24038
1.5275187,89.816635
1.5316455,91.39047
1.5394037,96.44111
1.65363,94.58384
1.6713899,96.50884
1.5991666,94.14091
1.6807358,94.937096
1.6210274,96.96827
1.6216033,96.856705
1.5744956,90.96077
1.5982759,96.0171
1.6224661,96.4226
1.6446037,92.25175
1.652989,94.95714
1.5698797,96.95615
1.5266116,95.72632
1.5024703,94.23679
1.5157963,96.09961
1.5722805,91.52818
1.5009391,92.46152
1.4992094,90.11488
1.319747,92.25235
1.3381475,96.100586
1.4025991,88.48993
1.3989129,85.58311
1.3945907,93.478065
1.4059576,94.02771
1.3233061,91.775894
1.2604101,89.45059
1.2492604,88.465034
1.2686167,83.55647
1.3288397,85.18818
1.3003813,86.23255
1.2494804,85.86663
1.2236786,85.492355
1.2116814,85.793755
1.2132943,82.32763
1.1620591,82.96408
1.128045,83.612404
1.1266805,78.535706
1.1263568,78.62538
1.1105082,78.64674
1.14347,81.65574
1.089675,81.367134
1.0175954,81.736534
0.92690367,78.523796
1.0201638,77.64012
0.9786362,75.21168
0.8472319,73.87942
0.9117403,79.701546
0.8718204,75.61193
0.84431344,73.54966
0.7393634,70.578156
0.81550395,71.21071
0.81047523,71.04427
0.7623165,69.4202
0.74834424,73.52505
0.88694084,72.78274
0.711745,74.95809
0.8227928,66.28214
0.85787046,72.51526
0.897253,66.91568
0.85543585,68.70714
0.7486571,65.37792
0.8057447,63.965397
0.72501016,64.904
0.65109074,64.74901
0.62065035,67.65162
0.6944844,67.301254
0.5810532,63.159855
0.4789421,64.022995
0.5200214,61.71193
0.59050095,65.48942
0.5406661,68.51265
0.49287507,65.03801
0.44215336,62.583652
0.5360041,69.56221
0.46608162,68.767494
0.5509074,72.69796
0.57283247,68.84024
0.6226675,78.55567
0.64442354,66.69557
0.7539188,74.39202
0.68410254,70.992775
0.8850712,76.742966
0.99133414,76.918434
1.078486,79.70205
1.0796196,79.83109
1.1801479,79.485695
1.3015238,81.09167
1.4113544,78.77544
1.4580584,86.782684
1.5414822,86.58519
1.563783,85.79981
1.6700792,84.957466
1.7483727,90.685555
1.746916,82.09739
1.8457143,91.533844
1.9136869,86.027504
1.7987295,92.6058
1.926667,93.591385
1.9593755,95.962494
1.7785294,93.52375
1.9486859,94.07167
1.9577135,95.77261
1.9797632,93.666664
1.8813864,94.747856
1.9423567,97.35437
1.8924872,93.26567
1.8828777,97.38374
1.9020281,93.975426
1.9326277,95.87323
1.9520322,99.84502
1.8430882,96.6316
1.84869,95.65612
1.7811246,90.984314
1.8056006,89.90876
1.7185917,92.96266
1.687837,95.969826
1.7340391,93.98599
1.6772085,93.337875
1.6419095,94.1802
1.6319584,90.484505
1.6035475,88.54057
1.5266459,87.646
1.6547095,85.77408
1.5600654,87.00457
1.5220704,85.09832
1.4469355,92.147194
1.5233649,87.05527
1.5209484,84.117256
1.335018,85.17259
1.4537733,88.07602
1.5311649,82.41621
1.4532802,85.733574
1.4663911,80.315926
1.4558104,80.17407
1.4521761,83.973495
1.3115162,78.98359
1.36442,77.6457
1.2750267,82.71177
1.2887366,79.4996
1.1258125,77.18779
1.1225278,77.49679
1.1073939,78.56141
1.0448445,76.675766
0.974013,71.85081
0.9607903,76.42325
0.880907,72.3143
0.9570812,78.68383
0.8623682,75.3411
0.8924235,76.6766
0.9886515,71.674034
1.0468328,67.72143
0.97046626,70.59841
0.9232493,65.15056
0.925236,67.5935
0.93010354,64.3287
0.88077605,65.45072
0.8048307,67.03149
0.82961494,67.55598
0.7982256,67.27113
0.83336884,64.218765
0.75127155,68.01546
0.75283664,63.366825
0.7759638,66.8513
0.74400353,61.325233
0.7033513,65.750565
0.46044144,63.45534
0.5608277,67.2934
0.6084343,63.339157
0.54938304,67.45451
0.51280993,66.717514
0.5030346,63.83614
0.5139695,68.21064
0.48972592,66.8485
0.48798028,69.55466
0.5401456,69.441025
0.59782606,70.78882
0.6539386,74.21947
0.63352174,68.100586
0.77081794,67.989494
0.7931792,77.40967
0.88083667,80.90827
0.952914,76.5813
1.0191451,75.31723
1.1419348,77.901344
1.1965827,81.968544
1.2508198,78.75053
1.463933,74.03165
1.4530073,81.39088
1.5294726,83.99733
1.538601,86.242195
1.6341761,86.01156
1.6453701,84.266205
1.7521856,88.31659
1.6918497,89.49969
1.7270994,93.700516
1.7324474,94.02343
1.7798665,92.553154
1.7602167,90.97952
1.8597634,89.08675
1.8720752,98.56628
1.8394008,96.48999
1.8761945,94.21708
1.9234561,92.18177
1.8070009,100.56273
1.801317,100.056786
1.7500962,92.92513
1.7525377,95.065544
1.7776244,92.22882
1.7816579,92.227135
1.714868,98.92982
1.6430932,92.23984
1.6337273,94.47049
1.6016017,95.69928
1.6235466,91.173615
1.5139164,92.996185
1.522611,95.31469
1.526761,90.06415
1.527606,93.671906
1.4365888,94.24097
1.3956066,91.31394
1.4049754,93.676544
1.4012004,89.95624
1.3446745,86.82827
1.3960854,83.49882
1.2930442,89.88472
1.3521801,86.40326
1.3791537,83.060165
1.2664258,84.83912
1.2889215,83.74206
1.2866973,84.96855
1.2445177,85.78106
1.2600684,79.51103
1.2515603,83.67707
1.1663467,85.09662
1.1521586,78.900475
1.183225,80.48614
1.0942408,80.420265
0.9881765,78.04252
1.0213217,74.39635
0.88832986,79.615524
0.88424844,76.284485
0.85953856,76.679504
0.833571,75.32354
0.8321761,68.27806
0.7436607,75.38335
0.60738295,69.2563
0.7198073,73.943886
0.7020768,72.84288
0.6872594,71.00291
0.6171208,72.60013
0.6353813,68.1326
0.6945097,71.38028
0.65493757,64.213745
0.60338193,67.13238
0.6243974,68.03466
0.64638776,68.64897
0.6386864,66.44911
0.5929363,64.35611
0.61940634,68.01106
0.510467,64.704865
0.57290024,61.67624
0.42850122,65.463264
0.42321002,67.32056
0.3946579,63.696827
0.2730254,66.68989
0.29194805,69.82568
0.22360776,61.227802
0.20153555,69.58115
0.1850882,70.11757
0.2496773,68.273155
0.14721172,68.53551
0.14515644,67.97771
0.21034689,67.78231
0.32397377,67.76392
0.21365555,69.65074
0.34305006,71.98077
0.4866366,72.97756
0.5193084,78.59407
0.57087207,73.092026
0.5504664,76.69285
0.57539445,76.09898
0.84267193,84.3486
0.82886887,83.39053
0.8647663,79.784424
1.064642,78.26158
1.1368155,80.15586
1.253031,87.329956
1.1276813,87.76499
1.3566091,88.98052
1.351465,85.94725
1.3363906,86.131195
1.422255,86.97957
1.4112692,86.63771
1.5547494,90.703674
1.5221778,90.87719
1.405995,88.85943
1.6607549,90.8382
1.480856,93.98737
1.5606867,97.43572
1.5527213,97.571884
1.5623373,88.83917
1.5288315,98.30198
1.6242534,93.928055
1.4433974,93.997116
1.4709762,94.03746
1.4609672,94.51216
1.3798476,95.845276
1.4683864,94.107956
1.3119931,92.924065
1.2862805,92.76146
1.2766553,91.54197
1.2443608,91.31474
1.1816459,96.16347
1.2256873,95.33809
1.1502151,90.38768
1.2465795,87.21422
1.102632,90.097626
1.177271,94.51073
1.1356969,92.39341
1.0380963,90.40333
1.147337,91.48936
1.1184146,92.762794
1.0417463,87.63499
0.9938907,85.667534
0.98983634,83.925316
0.90849954,85.593834
0.96390885,88.5453
0.8842317,83.83275
0.88872087,82.70465
0.887581,82.32649
0.8318238,85.151825
0.8028754,78.46665
0.8604822,80.66894
0.74547225,80.2188
0.7863269,78.793655
0.65381867,74.76944
0.67115897,79.60451
0.5794353,79.20012
0.55531865,76.404076
0.49687928,74.98606
0.5034295,74.408714
0.5012026,71.34575
0.44991305,71.90845
0.47024345,74.648224
0.3752698,67.74432
0.41934595,72.85215
0.39376673,70.9817
0.36099127,66.32684
0.3729899,65.49915
0.31058195,70.72512
0.37833405,72.58334
0.33586624,73.64389
0.37557286,70.0729
0.3621532,70.56957
0.3223154,70.086914
0.29613435,64.54506
0.30230337,68.12159
0.22952834,65.54159
0.20959768,70.36578
0.1992593,62.52806
0.18969516,65.25715
0.23340493,69.91073
0.10523071,68.83976
0.098135225,66.91424
0.008106283,64.42073
-0.0053608366,65.77842
-0.06531273,59.89211
-0.09394328,66.91678
-0.05218985,62.016666
-0.033241868,65.45421
-0.011406345,66.01157
-0.008578772,71.47362
-0.021003522,70.46531
0.12720354,71.18877
0.100686364,74.368576
0.2148894,67.62332
0.20877162,72.00677
0.28470156,76.61897
0.49365595,72.133766
0.49154866,80.500534
0.5442765,77.33451
0.5752699,77.8863
0.78333217,83.36858
0.7873153,84.426575
0.96111494,81.753624
0.9011353,84.5497
1.032706,82.58755
1.0422099,84.51671
1.2567974,86.798584
1.0977764,86.88531
1.250754,86.258125
1.3715463,92.03212
1.3530883,93.580795
1.3863618,94.94426
1.4067229,93.897415
1.2805697,96.04049
1.3938764,97.009705
1.4014444,94.75414
1.3424772,98.84393
1.36226,96.2899
1.4727907,95.67342
1.263259,95.19643
1.3802805,91.521095
1.2165525,96.11907
1.2982674,95.001434
1.3545895,94.855606
1.1773648,95.85148
1.2386241,91.74034
1.3259528,95.48905
1.2176356,95.66452
1.1478208,93.05309
1.1832641,93.081566
1.174903,93.51641
1.0582232,94.279366
1.0564089,90.31965
0.9684801,90.15682
1.1058154,90.02823
1.0630115,87.55826
0.9099771,94.4241
0.9770868,89.0377
1.0339348,88.88373
1.0096704,91.51782
0.9222056,84.473236
0.94854945,91.02878
0.90139794,86.394226
0.82767224,85.14943
0.86444443,85.25286
0.89491224,86.4317
0.805241,80.93022
0.9209712,84.13279
0.78511524,80.41826
0.77357036,81.11723
0.71321976,80.45411
0.8049548,81.05127
0.68561035,78.197845
0.76872694,74.81087
0.6259567,75.81631
0.59559864,74.81074
0.6771628,81.18294
0.5809357,72.81572
0.54010737,75.903854
0.5653569,73.97062
0.47778478,72.6065
0.4633927,74.61192
0.42859253,74.61934
0.483838,73.47515
0.3819914,67.34015
0.50106996,74.76728
0.38631472,65.67322
0.45554116,71.39723
0.44437292,67.75853
0.40112203,68.297066
0.2947905,69.26289
0.31757495,64.80889
0.36994252,70.250854
0.33388814,69.388176
0.31364837,64.10513
0.3479931,61.42914
0.29837897,65.821785
0.30509847,69.03517
0.21377636,67.644264
0.14804564,65.671486
0.21281886,67.105896
0.18514587,66.77556
0.117588535,67.6137
0.16909817,63.050556
0.11546705,67.03126
0.057174195,70.31749
0.08534873,68.84967
0.16558683,65.52424
0.1876798,69.99076
0.155087,72.24147
0.27776593,71.55893
0.37533125,74.035805
0.4463668,69.10721
0.50012475,73.590866
0.542525,79.94135
0.5458575,78.818954
0.753749,76.84033
0.7789273,81.02008
0.9200426,84.375496
1.0708432,81.40224
1.1077276,77.59016
1.1462576,82.78504
1.2047546,90.79412
1.3662459,86.46196
1.2598563,87.194496
1.3691152,89.78452
1.4727823,85.31778
1.4861256,89.07578
1.5347117,92.09515
1.4976329,94.57944
1.6387347,95.63738
1.5639865,93.17532
1.6313703,93.59278
1.6393958,92.576706
1.7245095,92.34769
1.6709974,91.859375
1.552286,95.854904
1.5636266,96.77054
1.6553313,94.56979
1.5559714,94.44105
1.6392684,95.748
1.6116713,97.22618
1.5388522,96.91643
1.5584049,95.45102
1.5062507,95.5322
1.4579891,95.33153
1.4050655,89.23513
1.4966667,92.72279
1.5138465,93.65698
1.4250745,94.57819
1.3351549,88.99912
1.3324504,97.74177
1.297677,91.182205
1.2337879,91.96012
1.2563465,91.72041
1.2847921,86.385895
1.2146231,90.001785
1.2881343,85.89101
1.2841839,88.04659
1.3042238,80.83286
1.2841773,86.56944
1.2313949,87.93473
1.2651798,82.90847
1.2839135,82.79609
1.2304801,84.75555
1.1620215,81.939026
1.1232309,81.45545
1.1758446,82.95555
1.1065278,82.247696
1.1114691,80.53575
1.0371916,79.288826
1.0367316,77.71707
0.88733095,74.48925
0.9763896,75.84212
0.97059387,75.41192
0.98141843,75.77061
0.72013164,75.165535
0.8771969,74.494736
0.757285,74.96483
0.7859275,70.93071
0.7033524,68.912605
0.7289875,73.81998
0.7719458,72.463974
0.7751651,70.64531
0.75540817,70.15267
0.91875595,69.78171
0.7432337,70.76071
0.7526269,76.21907
0.7976293,68.370705
0.79853964,67.34634
0.8436817,69.36633
0.7397875,65.23955
0.73498577,64.411476
0.7747373,69.50545
0.7712135,64.79566
0.6049711,63.647358
0.5989406,66.06225
0.61814445,62.62786
0.56847644,69.66883
0.5268088,66.954094
0.44025335,68.80137
0.44058156,69.16139
0.45672822,67.01232
0.42877448,68.05483
0.45899007,68.693375
0.44342056,66.00606
0.5189349,65.79531
0.5829647,69.40438
0.47907543,69.95755
0.61996096,73.37206
0.67512083,73.9177
0.7620421,74.34734
0.80000573,73.29288
0.8657602,77.64666
0.99808085,76.13076
1.0467561,76.0015
1.1080997,79.27523
1.2288467,77.967285
1.3956283,82.85107
1.4867085,81.62322
1.5557615,81.73099
1.553835,85.07229
1.6581295,82.933914
1.696639,87.44235
1.7284048,83.059685
1.7152842,90.02459
1.8994852,88.50938
1.8646139,88.69808
1.902086,90.72988
1.8619055,93.981674
1.9895374,89.51902
1.8866639,95.39006
1.8041565,96.53458
1.969332,93.84146
1.8992056,98.43215
1.9683582,97.94527
1.9251082,98.47623
1.8807423,94.83818
1.944304,95.129654
1.8870429,96.520645
1.8356211,98.00821
1.8882269,94.86622
1.9018891,101.24353
1.8438469,95.94963
1.762451,93.0167
1.7533007,95.4523
1.6912638,92.93956
1.6317633,96.9491
1.6748737,92.32438
1.6585665,90.01931
1.6247963,87.59138
1.5946932,93.186584
1.6078882,92.571236
1.5616623,86.71672
1.5485663,92.157616
1.5532558,88.02199
1.5405769,87.436485
1.5046824,84.87059
1.3455918,85.89627
1.4762503,87.95387
1.4237187,84.341736
1.479741,85.59587
1.4600724,80.0186
1.4857134,79.67701
1.2081578,82.106
1.344325,84.71825
1.3609289,81.80483
1.3369917,77.009926
1.2460247,79.21434
1.2690692,78.713455
1.2969563,76.24054
1.2608534,75.07419
1.1229208,80.71055
1.1674054,70.60525
1.1033995,76.01754
0.9778832,72.46421
0.9984419,72.56399
1.010195,74.70984
0.9771574,71.92515
0.86486596,75.43086
0.9412809,69.01553
0.92096895,72.88337
0.9594378,76.59615
0.9292322,66.57694
0.91307706,70.047485
0.8761229,70.64447
0.8481029,72.28229
1.0001308,65.81366
0.8248572,69.9621
0.9401415,67.16399
0.87912047,63.5194
0.76470083,68.958565
0.82076263,67.332855
0.7576176,67.02291
0.7454819,69.11839
0.72925806,62.859264
0.7444506,68.38806
0.56418717,63.711285
0.67201096,64.18709
0.5172472,66.863106
0.509824,63.737038
0.54782826,66.70017
0.51405317,68.387665
0.52178705,69.832985
0.51121247,58.23547
0.4288293,73.260574
0.6020376,74.836555
0.58842593,72.49792
0.63518643,68.48946
0.7227388,74.15373
0.8610684,73.74294
0.7993212,72.567924
0.93104565,74.47586
1.0058638,80.23816
1.1620237,76.626274
1.1843892,79.07765
1.3025646,84.23979
1.4367313,81.23199
1.4092897,85.33889
1.4680877,82.58287
1.6294298,87.35204
1.674407,81.76092
1.6981552,87.10699
1.7704189,91.16495
1.7790229,84.13189
1.755933,86.33264
1.7970983,93.03966
1.8643649,92.89765
1.8076922,91.438446
1.9563915,93.64586
1.8681304,96.27999
1.8495688,95.79964
1.8853586,97.507126
1.8971165,90.58984
1.9154097,90.530235
1.7922066,99.253395
1.7982048,99.61331
1.8837563,93.60464
1.7500784,95.61204
1.823854,95.46662
1.710208,95.12771
1.7465582,95.547676
1.699231,93.13063
1.5237421,97.13567
1.6098913,93.71367
1.7089831,94.78893
1.6181632,90.487274
1.5398232,88.98384
1.4106172,92.07004
1.414911,89.53212
1.3828453,88.50707
1.3718133,94.62713
1.4669865,87.20672
1.359264,89.19516
1.3330472,86.1151
1.3248223,85.5462
1.3511007,88.44466
1.3955992,82.24493
1.3492242,84.98851
1.3198981,85.43739
1.2693837,82.781654
1.3123924,86.68107
1.3602673,83.91466
1.2348706,79.997086
1.2252201,79.81941
1.1873629,77.79485
1.0958136,81.41159
1.0500122,77.17887
1.0550514,77.56003
1.0005038,86.66951
0.98234546,71.670135
0.9564205,78.605415
0.9840617,77.10456
0.86436236,78.500565
0.775501,73.31885
0.76030123,76.89172
0.7557418,74.79722
0.76225364,74.30887
0.69619083,72.00573
0.63692737,69.86752
0.63556445,70.58415
0.80613536,67.25183
0.7163161,69.942215
0.6865891,68.1854
0.6200882,67.536934
0.61811215,79.22687
0.74241555,68.99608
0.59946424,68.73184
0.5460694,64.13476
0.57983017,64.508
0.45500863,68.44517
0.5917416,68.80787
0.5094033,65.9334
0.40056288,66.608894
0.50220907,64.59782
0.4859173,60.870354
0.29675618,65.27471
0.28510728,68.66646
0.33412546,66.71859
0.26162428,66.60243
0.28278705,68.19937
0.2561123,66.305244
0.28013223,67.73302
0.2840345,65.80825
0.20712955,69.54604
0.33463272,71.00545
0.24702956,68.91876
0.44223472,74.43307
0.4437209,74.11327
0.5711519,70.885956
0.6112615,79.25338
0.69936734,75.936356
0.8053183,80.955894
0.8888955,76.37475
0.93254477,78.427864
0.9367797,80.12299
1.0567749,81.92458
1.197757,78.40471
1.1649394,80.622
1.2292676,84.8889
1.2734114,89.072495
1.3511907,81.74388
1.3643522,89.613205
1.3994603,85.688
1.4294595,91.215454
1.5601104,96.47456
1.5982895,95.58046
1.5493939,96.46903
1.5333657,93.27867
1.5211153,94.5376
1.4483895,93.65455
1.6562978,98.30444
1.5383254,96.708534
1.477625,97.80378
1.517621,92.109726
1.5148171,95.864006
1.3862995,94.152534
1.4746839,97.16916
1.4962507,96.47893
1.38015,99.09533
1.3836182,97.42025
1.3060833,91.365685
1.2459786,91.307785
1.2699238,93.355934
1.2077259,90.957565
1.2040025,95.16616
1.1093062,90.50009
1.1908355,94.24023
1.1232525,92.31219
1.0285629,89.93953
1.1533691,92.72987
0.97532487,90.97075
1.0626596,95.45957
1.0115517,83.81671
1.0275294,86.34171
1.029658,93.77411
0.99300945,86.74912
0.99607986,88.0509
0.9370209,83.291084
0.9558672,82.19786
0.987791,84.55573
0.98046225,79.19277
0.86160535,83.12614
0.82677615,84.90843
0.7876642,84.134094
0.81612736,85.1777
0.7845761,79.434296
0.69903255,78.44722
0.66020507,79.948265
0.6320229,75.32441
0.5861716,76.12345
0.54855233,75.974945
0.5445201,78.89966
0.48871407,77.568085
0.3727553,76.63952
0.43271002,73.815926
0.29945076,75.565186
0.36136475,73.54038
0.36465293,71.194626
0.37117052,67.6734
0.33184415,68.74463
0.33994406,68.13514
0.33009952,74.451996
0.3804604,62.670525
0.34717417,67.21793
0.2744376,70.561874
0.3014242,64.38012
0.3442321,69.12432
0.39455622,67.166084
0.15784575,63.584522
0.16649976,72.873375
0.22247511,62.658073
0.15440333,68.113846
0.21281782,69.23293
0.058357295,64.2365
0.08815103,65.70787
0.08659807,64.52653
-0.00051186146,63.50539
0.005074701,69.71806
-0.012309914,67.70274
-0.028622301,70.017685
-0.014837518,71.65744
-0.09753259,64.02214
-0.01392364,65.89562
0.0641987,72.05565
0.09543407,73.40755
0.16792855,73.51155
0.18441014,72.58789
0.2580558,73.97446
0.40148923,76.74733
0.46479335,77.68844
0.4719747,76.33744
0.70777875,77.770485
0.66805136,85.080666
0.83755827,82.32487
0.8220843,84.86178
0.97179645,85.97881
1.0056843,86.08507
1.1240413,87.03659
1.2306919,85.040504
1.1814439,89.41983
1.2975549,91.87549
1.2590492,87.44499
1.2905207,93.16142
1.3190908,93.86339
1.241447,90.57018
1.3609871,91.88724
1.3122938,96.27149
1.3832378,93.99838
1.4056972,93.22298
1.3216558,93.291695
1.2738781,94.56847
1.3240886,96.66199
1.3535041,96.19332
1.3207076,98.11818
1.3094231,90.91132
1.2390012,98.187065
1.2104318,98.154724
1.2784053,96.247314
1.2651662,93.296684
1.2296684,92.10429
1.2352521,98.05008
1.026891,92.79614
1.1170574,93.44949
0.9948982,93.19321
1.1569526,90.79858
1.1048999,96.267105
1.0283782,90.566826
1.0295118,88.9122
0.9494763,86.72973
1.0222651,87.72263
0.8805223,90.14376
0.92478174,89.23743
0.94323075,89.10564
0.971916,82.70985
0.91311646,80.70289
0.8955744,79.682014
0.77295977,82.04001
0.94767636,84.30903
0.8197072,87.01062
0.8876737,84.944046
0.85258526,88.471016
0.8050903,80.24548
0.85829043,79.74896
0.84610885,78.03191
0.69182,78.07132
0.6312653,79.2168
0.6229197,77.608444
0.6366366,77.09337
0.5169537,75.717445
0.51134354,74.33297
0.55029124,77.00829
0.5420498,67.47809
0.45839396,72.3185
0.4523784,69.21924
0.46777752,68.517006
0.40639427,72.93818
0.40066725,69.423805
0.45870954,69.636406
0.3429178,71.81374
0.37972826,69.087875
0.45689112,70.03442
0.43320185,67.73071
0.4413757,62.43871
0.37277743,66.68114
0.44060007,64.88793
0.37840924,68.71492
0.32891873,65.23113
0.28469902,65.51508
0.39787036,63.680748
0.13125646,66.118835
0.35602775,66.51921
0.23294811,65.565895
0.24038552,67.823074
0.2033804,62.040344
0.042180955,67.53037
0.18955673,66.02527
0.096073,66.796906
0.0978315,66.193726
0.08646833,69.711426
0.03018016,67.06102
0.09540222,69.47973
0.11402468,75.6798
0.32988456,71.88685
0.29147395,71.86841
0.44456118,72.58192
0.3836598,72.591736
0.38370985,73.0898
0.4943545,74.6465
0.6268085,74.19103
0.6172281,81.4587
0.8097306,77.51123
0.8475711,78.308205
1.0017886,80.751396
1.075255,82.34303
1.1100408,85.08191
1.2196841,87.48329
1.2996382,85.5235
1.2427561,87.36912
1.4792877,94.0718
1.5067284,89.49719
1.5846701,93.470764
1.461086,96.61937
1.5188112,90.00837
1.6032773,95.815865
1.5288415,93.59362
1.5572755,91.84459
1.5894777,96.614746
1.5930619,97.59482
1.5725087,92.48215
1.6476451,90.90965
1.6304023,94.723976
1.6404436,98.60086
1.5999092,96.91405
1.4967456,95.957016
1.5715572,96.785934
1.5428011,100.01069
1.5629836,92.646736
1.4878777,99.60168
1.4237999,97.84473
1.4665124,91.11366
1.3446463,98.17492
1.2890588,91.14179
1.4274861,95.06515
1.3278896,92.41912
1.3887705,89.21836
1.211243,88.811745
1.3876177,89.71795
1.2925932,89.31274
1.2596903,90.893974
1.22118,89.36128
1.0907387,86.65303
1.2579535,90.519844
1.3086178,87.47675
1.2280356,86.98958
1.1458595,86.990524
1.2816837,87.49482
1.2206002,82.95449
1.1706752,85.637474
1.2125605,82.61135
1.1374512,80.816536
1.1278245,80.76019
1.1419426,79.11954
1.1124122,80.34528
1.0919508,78.033295
0.9658111,78.93128
0.9737254,78.2733
0.9379145,77.2596
0.792446,77.6891
0.8030804,73.092636
0.78161776,77.18308
0.7481783,71.46125
0.76579505,72.05458
0.801388,73.45368
0.7735712,72.787704
0.79773337,71.7746
0.65867084,69.43333
0.80493915,65.31307
0.6912728,67.40217
0.7688854,73.246544
0.822257,63.726078
0.7572481,67.96737
0.698987,71.07677
0.78765064,67.118484
0.7024865,63.22602
0.6994442,67.42088
0.5591069,62.48655
0.63941073,66.366264
0.6418943,65.28655
0.7724342,64.07657
0.6111544,66.07318
0.45302525,62.071648
0.5033456,64.23124
0.50475097,69.47538
0.5346688,70.864265
0.47602552,66.988655
0.37301034,66.691956
0.4411983,64.542206
0.49218675,65.94131
0.46754327,70.76198
0.37360215,67.025505
0.520647,72.323044
0.49328318,66.3275
0.74241847,74.6549
0.65636975,70.128654
0.77432215,72.866714
0.8667587,72.17219
0.891422,74.17672
0.99320644,75.1602
1.0526496,78.52785
1.1893667,80.47186
1.4187056,78.21397
1.3346971,80.60871
1.4314568,85.587524
1.4743849,84.19322
1.5280304,87.358734
1.6429809,82.500336
1.6640023,84.01792
1.7681072,84.28996
1.7481931,89.57785
1.8305154,88.66865
1.8884547,87.58786
1.9648865,93.24786
1.8730278,90.94751
1.8737282,90.4856
1.9398991,94.236305
1.9778337,93.18379
1.8366616,93.235
1.9105629,90.280624
1.8841939,94.243774
1.9653028,92.27077
1.9467735,94.71123
1.9517659,99.857475
1.9102206,97.906296
1.8119276,97.20924
1.7824371,98.85712
1.8322866,97.43054
1.8402451,93.71619
1.7800468,92.55259
1.7633536,93.26109
1.7184608,95.99977
1.6450979,89.38657
1.634654,91.926
1.6852249,91.62171
1.6422389,89.24923
1.5680416,88.50769
1.58742,88.37705
1.5498606,87.34642
1.6003295,85.1509
1.6025782,89.81959
1.5437279,83.15102
1.5087196,84.25088
1.4284785,87.554886
1.4046543,83.30019
1.454259,86.247696
1.5291839,85.92643
1.443548,81.63569
1.4021009,85.742645
1.3675278,79.60835
1.3665153,80.15148
1.3756877,83.764084
1.3700154,80.7157
1.310678,82.66453
1.2773108,81.6954
1.2090119,75.020676
1.1945131,77.9972
1.1353976,75.220276
1.1623675,73.75958
1.0433062,74.90818
1.0680596,73.60965
0.9846257,72.99398
0.9290668,73.14764
1.0653069,72.46978
0.95340365,74.28107
0.9616384,70.44524
0.9700404,69.94315
0.8898054,69.3723
0.92175853,67.421936
0.813366,70.37398
0.9808703,71.56643
0.85383683,64.78323
0.9633467,72.251236
0.9889295,63.151276
0.8368516,69.84634
0.83178675,73.25488
0.9334453,64.2506
0.84420747,65.59918
0.8297965,66.9341
0.7044756,67.07127
0.68709624,64.98362
0.62314314,64.654015
0.6987429,60.08604
0.6960458,66.3476
0.63785,68.45049
0.44934577,69.28997
0.5250981,70.49818
0.48367634,70.81679
0.49254084,68.75818
0.5582964,69.30949
0.6483037,68.367744
0.6007474,71.36983
0.6392513,67.82913
0.66945565,74.50087
0.78085005,77.19925
0.83354545,75.3058
0.94410133,76.14821
1.0898702,75.8101
1.1146809,77.673164
1.1856073,80.90208
1.267231,78.05266
1.3311708,81.98656
1.4902434,85.867226
1.5240681,84.15417
1.5580866,83.44423
1.6935698,87.92749
1.6966037,87.85196
1.6993976,88.75004
1.7643479,88.0037
1.8044488,90.35075
1.8060749,92.31982
1.8415654,92.86011
1.8908248,92.48091
1.883355,91.613235
1.9325374,90.18131
1.8502605,93.84237
1.8060453,96.78568
1.9148209,98.43542
1.9089372,97.17182
1.869474,96.02222
1.888001,97.306175
1.7234439,99.27212
1.9189287,93.54206
1.9183602,96.85777
1.7760241,92.61131
1.8784425,95.29987
1.7299925,99.13903
1.7433177,96.323524
1.580904,98.53718
1.664456,89.88029
1.5839546,93.754745
1.630965,90.84265
1.5458889,91.915245
1.5046057,92.02763
1.44306,86.3796
1.3938226,87.47838
1.363152,87.33199
1.5059919,88.65494
1.3610743,91.162094
1.3886905,86.34771
1.3750746,83.16089
1.3995087,84.89136
1.369677,89.9047
1.3896047,79.34533
1.4235227,80.59748
1.3475772,88.54171
1.2368995,85.65991
1.2829968,78.95457
1.2715496,79.36401
1.2648535,76.96568
1.1153374,82.41102
1.1088495,81.16533
1.0569549,80.17443
1.0698082,79.28285
0.9780099,77.6455
1.0842327,74.9756
0.9468174,80.28323
0.81951356,72.42296
0.83711094,76.27041
0.8086143,71.090096
0.7544332,71.417404
0.73452044,76.112915
0.7143873,71.42551
0.7901908,76.42374
0.68635434,71.38162
0.63560563,69.88992
0.7259935,73.635994
0.72544396,70.059654
0.67830133,67.951775
0.608021,71.751816
0.7092349,69.27704
0.645279,66.63512
0.77193165,64.83271
0.64735097,64.21352
0.63230443,64.527824
0.50594056,62.47825
0.5347687,65.49753
0.5451763,65.28557
0.50680804,65.66
0.41359806,66.307884
0.39252126,64.90854
0.30465433,67.643166
0.31654784,64.79744
0.29238713,67.598206
0.34041068,63.721157
0.20451647,67.46981
0.23933075,70.84947
0.24773121,69.698746
0.32146546,67.356514
0.29206565,68.121445
0.3805901,70.84228
0.3931472,75.622505
0.40629476,72.97122
0.55578023,71.38507
0.5706758,75.98591
0.6264175,73.19231
0.7666449,74.98228
0.7813461,82.7045
0.95863986,82.535965
1.0046736,82.49864
1.0803281,80.62443
1.1291313,82.43886
1.150131,79.505684
1.2625177,83.17274
1.337707,85.59939
1.3915613,88.36294
1.3932446,90.30191
1.4390031,88.995964
1.4660927,85.518585
1.535304,93.11264
1.5677456,91.90755
1.5794845,95.84463
1.538572,92.38901
1.5462445,90.65813
1.6199244,93.56164
1.5358903,91.76378
1.6241499,95.84932
1.5510792,94.251205
1.5305032,98.80785
1.4934367,93.73842
1.5441728,93.69887
1.4316472,95.62025
1.4319218,96.17541
1.5419286,95.08154
1.3264973,96.18051
1.3205098,96.29403
1.317332,98.42061
1.2328694,98.07539
1.2426255,94.00348
1.1917827,91.88026
1.2112737,92.36238
1.1376156,93.07942
1.0352157,91.92066
1.2133603,92.26615
1.1771063,92.6208
1.0946563,88.23411
1.0878211,84.85507
1.001233,90.024025
1.0556893,88.73221
0.9549529,88.10538
1.0203271,88.01774
0.9536162,82.923965
0.9146592,87.498474
0.9370787,86.705185
0.94786483,82.48368
0.9350831,84.305016
0.9608903,78.21726
0.8464594,82.75647
0.89444935,85.61747
0.8199053,79.193085
0.82183814,78.73803
0.7914315,83.485954
0.691939,76.11034
0.7071434,81.35523
0.61174685,74.387405
0.647789,72.5641
0.5299418,74.510345
0.5359772,74.762436
0.4147007,76.92763
0.44952112,70.74969
0.4478434,72.60238
0.40155527,71.867966
0.36017236,71.67795
0.3932882,70.83706
0.35304192,68.80099
0.3517099,69.41723
0.45099118,66.2191
0.36303115,65.03331
0.36031204,67.258484
0.50167173,66.80487
0.34383237,65.63803
0.24327227,68.257324
0.2659359,68.32043
0.23853524,68.296844
0.32886463,69.377716
0.21093209,66.74915
0.13110858,67.13354
0.16384183,64.75943
0.16572107,68.637276
0.057190888,67.69966
0.04764223,61.9283
-0.03379594,65.15676
-0.032798026,61.43828
-0.051369615,66.77647
-0.100387946,65.10291
0.10277359,70.47831
-0.0157718,71.35398
0.112094246,69.69268
0.06338986,67.2343
0.13869856,68.97504
0.1735278,72.38414
0.25323403,75.77358
0.3127863,74.48841
0.3355373,74.339554
0.36081648,77.5847
0.5780177,77.41244
0.5698063,77.625916
0.7080133,76.672516
0.748513,79.8391
0.85707486,80.43709
0.90166205,84.25083
0.9414912,87.850494
1.2243304,87.75243
1.1106743,87.780495
1.2231286,87.33983
1.1437179,88.65637
1.232276,90.71704
1.4184619,92.78836
1.3174729,92.33717
1.3694783,95.95512
1.3548357,92.38401
1.322274,92.42916
1.3381003,95.84634
1.3424114,100.1203
1.3949412,100.46501
1.3511684,97.72741
1.3715377,97.52289
1.3451849,93.395744
1.3958232,100.44729
1.4252242,97.45246
1.34801,90.81989
1.185104,95.81178
1.288567,94.81075
1.1968982,95.9579
1.1525848,93.379074
1.2999811,87.58313
1.0629236,95.76328
1.1658875,93.899994
1.0684174,93.28385
1.1403811,96.83697
0.9929852,89.619606
1.1224374,84.54612
0.9387348,88.72043
1.0035264,89.45783
0.9695349,90.09834
0.9908627,85.08887
0.89705545,84.983376
1.0062019,90.878654
0.9134623,87.3083
0.9429924,78.463
0.8947571,84.2069
0.9355296,84.21225
0.9395451,87.71031
0.8231027,82.47289
0.78266895,83.25444
0.8620161,83.698586
0.8302061,83.87825
0.80591017,81.80005
0.7871214,79.02459
0.6522837,77.23024
0.6982501,79.11186
0.60456246,74.4321
0.550511,77.96773
0.5596688,77.3864
0.6058966,79.28611
0.46016288,76.45599
0.36380717,74.31862
0.42436388,75.05797
0.4371975,71.79979
0.4097695,70.5328
0.47889432,73.12365
0.44423038,73.84132
0.4251528,68.595184
0.3622792,70.26484
0.3903246,70.41782
0.39001125,71.38133
0.44661596,69.75744
0.44576332,61.608955
0.37513757,71.34191
0.32831088,70.05007
0.41266623,65.2917
0.26358888,72.03462
0.3800764,64.238846
0.28665027,64.35152
0.225063,66.19165
0.2273328,67.00714
0.27495924,71.04371
0.20757028,65.12175
0.20469396,68.37297
0.1248809,62.98087
0.063786305,68.06607
0.16859291,72.64026
0.0031358819,63.506424
0.0207347,67.28573
0.08886066,64.693474
0.041833285,65.902626
0.1921759,67.73236
0.18547688,70.21683
0.21715707,73.64895
0.28721237,70.89585
0.27040622,74.54704
0.46837583,76.16444
0.52361774,78.69596
0.62058425,77.10411
0.695422,82.68961
0.81343424,82.53197
0.9102479,79.351074
0.94127464,79.30667
1.1617291,81.90855
1.074449,85.150795
1.2517794,86.98076
1.1891457,84.66057
1.3290871,86.0313
1.4183416,90.34659
1.3877594,89.93229
1.4431881,91.99597
1.5614175,87.20653
1.5005885,97.0522
1.5148581,91.80045
1.5133786,94.67758
1.5133224,95.1418
1.5964794,91.59989
1.6124345,94.25172
1.5203009,94.61074
1.6618999,91.66188
1.5247272,97.78966
1.6721,98.07711
1.5875292,91.76953
1.5498207,100.44009
1.4394912,96.800514
1.507605,96.373405
1.5002348,96.64587
1.5044843,93.98976
1.480898,94.22518
1.3032296,91.79161
1.3972187,94.448555
1.2944393,95.3369
1.3272587,91.93346
1.3238677,93.19307
1.2552705,89.0367
1.3448561,91.59373
1.1942854,91.2288
1.2089204,91.36775
1.202575,95.64909
1.2214566,92.38652
1.2759898,89.07405
1.1879278,84.13497
1.2445682,82.89587
1.2599174,87.628235
1.2432841,88.77361
1.1727569,82.72223
1.1161463,80.359406
1.1577842,81.71645
1.1262513,79.08576
1.149063,81.6581
1.126659,81.97848
1.0050846,83.55751
1.0621656,79.4586
1.0086229,77.39467
0.929118,76.97454
0.9724761,80.49157
0.96099716,80.42472
0.9878846,80.25164
0.9370248,75.336006
0.75221366,74.48301
0.89280057,76.99663
0.6379856,72.511284
0.7015812,74.79295
0.69642967,74.36717
0.66739637,71.191345
0.7544879,70.911674
0.74766815,71.6517
0.68799084,72.80766
0.692057,67.22108
0.740833,72.599144
0.7090453,69.13738
0.8636414,67.19258
0.78676987,69.31681
0.7060054,65.25714
0.59768534,66.13256
0.6529674,64.54283
0.6744353,65.98101
0.5852811,61.156567
0.6069751,63.12691
0.56679344,65.46373
0.5397173,66.34588
0.4921067,65.21648
0.5366024,68.11277
0.4601621,63.162266
0.4556015,68.104065
0.3444938,65.13709
0.47368136,68.914856
0.35367194,68.75549
0.4821603,64.65595
0.59660333,66.34991
0.45826417,69.7337
0.5489616,68.31769
0.58828753,67.93647
0.71174544,73.253235
0.75504893,76.40754
0.6987926,77.57659
0.884921,72.78809
0.85624015,79.78741
1.1958346,75.20737
1.1496121,80.310326
1.2239712,79.91834
1.2306266,81.45731
1.4445698,89.361176
1.4921951,84.40039
1.5325208,87.268456
1.5785263,85.951
1.6816045,89.437965
1.75254,87.45972
1.7043072,90.34194
1.8077581,89.48357
1.843628,96.59233
1.8203075,92.78982
1.7547574,93.483765
1.8994417,94.36392
2.0243087,92.94195
1.9215256,94.29081
1.9456271,94.37768
1.909895,93.240746
1.9301913,89.12125
1.89919,96.856155
1.8047407,96.24388
1.8215712,95.38993
1.9226063,94.85446
1.8680683,92.27293
1.7934936,96.96676
1.8612698,98.84618
1.7986093,94.724365
1.76644,94.06199
1.7469852,95.318985
1.7423427,97.914894
1.7561038,95.472786
1.5894343,94.52851
1.6754599,90.884315
1.5960988,92.92282
1.5530182,90.04638
1.5708688,92.2632
1.6094449,89.77472
1.6234199,92.2952
1.5215476,86.33017
1.4849018,90.65496
1.4836614,82.02489
1.4273216,89.251305
1.5413194,84.228745
1.4433659,83.15074
1.530767,85.919975
1.5261489,86.4108
1.3865497,82.41014
1.3764495,82.34177
1.5199932,83.38797
1.4099512,79.02403
1.3722792,76.54859
1.3406358,79.39983
1.2944828,79.18649
1.1556348,80.28413
1.0901414,75.314156
1.0366784,74.76912
1.0738243,80.24167
1.0271785,74.20597
1.0802044,73.270805
1.0806165,74.11188
0.9379963,72.11094
0.9821227,71.724556
0.9143845,72.8157
0.9256181,70.5324
0.9965188,68.17365
1.0354469,75.189186
0.9484557,68.20117
0.8751474,70.88423
0.962993,65.18016
0.9265044,71.40686
0.9478292,64.71294
0.8810355,66.28375
0.85577315,60.496124
0.8498541,69.10646
0.7767241,63.12571
0.8869316,62.980534
0.76081604,66.483734
0.7589914,68.10469
0.75776386,63.795486
0.7171906,67.543015
0.68682635,64.95804
0.66543424,65.66624
0.48695976,65.03053
0.4999742,67.985756
0.4734158,69.78716
0.55685264,65.5542
0.5086572,66.8369
0.56189436,68.41777
0.6207638,66.9547
0.5966705,71.440834
0.6470557,69.61096
0.6751732,74.132195
0.7781046,72.260925
0.7927067,77.76522
0.8725752,70.637794
1.0486261,72.47769
1.149273,78.67292
1.1514121,82.57243
1.2487156,75.84505
1.2693751,81.07096
1.4090862,85.20097
1.4517465,82.92272
1.5608213,83.8079
1.6196481,85.60161
1.6331899,86.75395
1.7318707,88.551025
1.8264122,86.7596
1.8818188,88.74686
1.7841538,88.77564
1.7878369,92.9017
1.9169565,91.60269
1.8749942,92.546074
1.8605293,88.89516
2.0055249,93.10385
1.9534632,93.81193
1.8829331,91.403404
1.8353071,95.142494
1.8276985,97.19076
1.9596096,99.04882
1.9131738,98.63938
1.8481466,97.46256
1.8326591,93.91664
1.757152,93.778
1.8049041,93.5052
1.7276286,98.64605
1.6539081,95.37514
1.6554952,94.9693
1.6599641,88.8492
1.5912787,93.62777
1.5771161,92.64028
1.577024,96.08566
1.5974749,92.1291
1.516407,89.614204
1.5263304,89.20958
1.4243773,82.253105
1.3948728,87.26834
1.4603223,92.05251
1.4074928,88.256325
1.3537647,86.2966
1.4445271,87.47031
1.5038157,84.7365
1.3241469,87.66454
1.3118278,87.21526
1.3917607,87.46576
1.3196607,83.22
1.2997099,83.29571
1.2405055,82.41403
1.2400274,77.37595
1.1852871,81.60688
1.2167424,78.70958
1.1850519,79.62571
1.1906807,82.152725
1.0032938,78.86811
1.0092859,75.71303
0.9208725,75.577194
0.93008476,76.54916
0.9436287,76.94175
0.8144459,77.26701
0.7801011,74.5651
0.8835833,74.06975
0.74457425,74.74396
0.7226124,71.50802
0.72763383,72.550156
0.81245357,68.57947
0.67018324,68.95355
0.67038727,70.245636
0.74413925,71.16842
0.72879237,65.2585
0.7912752,67.593544
0.69056386,68.43107
0.70864516,72.74098
0.6062116,67.60981
0.54108214,65.88356
0.6220974,65.05171
0.5962696,67.28916
0.4638402,63.856888
0.41491485,66.831375
0.46319398,69.068214
0.41552573,64.34837
0.40827736,68.43247
0.2854491,70.28245
0.30404657,65.07702
0.24762627,67.68389
0.32089633,68.98909
0.23993656,67.66439
0.3007309,71.28118
0.29275262,63.5955
0.30785042,66.846565
0.3783678,69.97983
0.38341504,72.44645
0.43510485,71.6044
0.5805521,67.66803
0.64361894,69.05399
0.68802494,78.53344
0.6853309,73.05182
0.9162445,75.07495
0.82370025,79.78462
0.93577266,80.98494
1.0831996,83.326096
1.2661644,79.71148
1.1572727,83.79224
1.1435452,84.98953
1.2195063,80.11752
1.3528827,87.30234
1.4460335,88.43469
1.5074764,90.55132
1.5538446,88.878296
1.4987001,92.444916
1.5729902,89.04719
1.5976822,92.214066
1.5094157,93.59295
1.601837,89.626854
1.6318706,96.8966
1.5621847,93.97426
1.5675024,96.882256
1.5419207,99.76506
1.6433992,97.19496
1.4860417,94.57738
1.5674628,96.23426
1.4704266,95.15429
1.52528,96.45385
1.42708,95.17044
1.4300233,95.79661
1.4217443,95.45333
1.381507,99.3253
1.3744075,90.06001
1.3467635,95.33731
1.2543836,92.11299
1.1293178,95.42465
1.1747261,100.2286
1.179834,90.05324
1.1843324,94.07046
1.0954479,93.86958
1.2025056,88.06161
1.1030588,89.86619
1.0404426,88.93271
1.1448094,88.357895
1.0342578,86.79547
1.0123906,84.938446
1.0760684,89.16885
1.0304391,82.810394
1.0400627,82.599625
1.0299382,82.131935
0.9673591,81.998
1.0501934,81.44926
0.91376877,81.87709
0.90602916,81.87825
0.8514901,83.11747
0.7777125,78.20487
0.762084,78.03989
0.7809243,76.83934
0.6788852,77.52077
0.62712526,77.986465
0.57229185,74.00078
0.6130679,72.581696
0.54861647,79.637024
0.52169925,73.82183
0.5112863,75.60489
0.44304243,69.685
0.5372217,75.54394
0.4266871,72.88726
0.3983413,66.277596
0.44520348,74.03762
0.35287637,68.6159
0.33184755,71.201385
0.48083308,67.39917
0.35730675,69.45346
0.44022787,66.97099
0.3090317,64.05687
0.27698925,68.2491
0.27193224,67.99809
0.28793955,65.48091
0.21555229,64.611885
0.2817117,62.910263
0.18217857,66.15475
0.168551,67.531425
0.15082097,62.23049
0.11202313,64.08582
0.055423316,60.586018
-0.0061967564,70.18817
0.03755127,65.513054
-0.05499138,63.40384
0.039091945,64.68195
-0.09960712,65.612175
-0.03391401,64.609215
-0.07224012,67.19656
-0.009799299,72.43563
0.13988103,72.234375
0.05112456,75.40298
0.19034974,77.923386
0.2261327,69.739716
0.25295886,73.66166
0.2820077,72.843704
0.51717603,79.763756
0.6232962,80.318665
0.59152263,79.60488
0.7384439,77.730255
0.84411395,81.14063
0.88228357,84.124954
1.0193123,86.45719
1.0436025,84.78179
0.97734374,88.725746
1.1545295,87.09973
1.2121116,87.07081
1.1727855,91.92584
1.2739484,91.92808
1.2677302,93.99101
1.2957195,92.16587
1.3456433,90.92186
1.4183089,90.87731
1.3617294,93.758316
1.329644,100.02947
1.3778049,94.14506
1.3441998,94.08028
1.3167886,98.93327
1.322236,93.78424
1.3065624,97.31914
1.2828544,96.509094
1.2751249,95.41052
1.3534778,92.75542
1.285907,97.397804
1.2792711,95.04196
1.2334327,97.40882
1.1964122,92.49237
1.1534729,97.25854
1.1223582,92.251144
1.1370163,90.16252
1.0366064,97.178856
1.0548713,95.39388
1.0062524,92.25347
1.0342934,88.809135
0.9386078,93.32839
1.0361865,90.82392
0.95672077,90.492386
0.86871487,88.68201
0.9907874,83.82924
0.98158026,87.384445
0.819621,89.610146
0.8715236,87.50142
0.9096083,85.86955
0.8548983,85.12482
0.9029408,86.19449
0.8806491,87.8033
0.8029306,82.36047
0.8020841,80.24412
0.80084574,83.12376
0.84802276,77.407234
0.68776476,83.227516
0.69453305,79.595276
0.62059647,74.46812
0.5649678,75.65625
0.5341213,81.77805
0.58025503,77.3732
0.44994384,79.55287
0.41145444,79.33009
0.451757,77.84136
0.48972362,71.738235
0.4409415,70.84553
0.31075296,76.568054
0.25506428,72.93737
0.3652128,70.18771
0.33289,73.418076
0.35441008,66.55405
0.3602043,66.18525
0.26032224,69.89991
0.4286588,73.94438
0.34526497,63.351887
0.3382412,65.37679
0.35980374,67.68297
0.3181438,63.97004
0.28098863,64.05643
0.26959088,60.702545
0.22340181,68.87506
0.19533299,66.44978
0.16667509,64.871704
0.14537098,65.27155
0.20322984,64.69956
0.18212678,67.66466
0.11502822,68.26411
0.14427876,66.4733
0.08987611,61.97365
-0.054824587,66.34631
-0.00046231045,65.77759
0.11535728,71.853546
0.1396058,69.278564
0.10232562,69.05831
0.15928698,73.015274
0.26031458,70.14166
0.29630268,67.30336
0.28216952,72.61214
0.35799137,74.90382
0.57275975,75.982956
0.6598505,79.09102
0.7311264,76.56273
0.8739416,77.62026
0.8516546,78.964676
1.018075,79.633125
0.9752053,82.68324
1.1434627,84.94977
1.2085876,85.09609
1.2521569,84.99701
1.379776,88.085785
1.4635907,92.02293
1.3331504,90.212906
1.5634472,87.222466
1.4299914,92.09384
1.498428,95.04244
1.5127993,89.885155
1.6139035,94.845695
1.5124955,91.50022
1.5237619,93.24362
1.5744399,97.30565
1.503553,100.24703
1.5990189,96.051926
1.426303,96.74834
1.4905437,95.08876
1.4801913,94.96109
1.5614309,94.82449
1.4478878,99.0075
1.5402018,90.36086
1.4312507,96.27853
1.516996,90.933655
1.328767,95.4328
1.4105918,97.22736
1.3413364,93.96584
1.367161,92.086205
1.3757435,94.06059
1.350152,91.67253
1.2736348,92.487564
1.2702785,90.81762
1.1757935,94.953926
1.2140635,90.40226
1.2548589,92.425804
1.1547313,85.954124
1.2639513,88.02062
1.1767529,87.96755
1.2778703,79.95365
1.219784,85.4166
1.1514475,86.24625
1.0564557,85.62791
1.1001412,81.79657
1.234094,85.51758
1.0753558,84.04539
1.166271,78.55327
0.9928668,79.59959
0.98052263,83.27112
1.0045702,80.085945
0.91882104,78.26055
1.0338045,73.13067
0.8766731,81.52719
0.8687636,76.90046
0.82410836,77.91057
0.7595306,76.55128
0.72378504,73.56011
0.7235787,76.88673
0.77124107,77.65664
0.7892126,78.92404
0.75965166,69.950775
0.63766146,70.428116
0.7201048,72.64335
0.7599086,71.77064
0.7798352,67.17348
0.6585374,65.40968
0.6764428,73.19234
0.8102568,70.54731
0.6933617,68.24373
0.63995695,66.28309
0.7930646,62.51507
0.62699425,72.02389
0.6953319,62.78668
0.609085,62.830467
0.53714085,65.208786
0.59420556,61.587967
0.4885836,64.7846
0.49394605,61.53083
0.55455405,64.81174
0.4169488,66.156296
0.42793465,65.12056
0.47424975,65.78409
0.33748615,69.16062
0.3958284,64.501015
0.3332231,67.47002
0.4386514,65.27019
0.45074052,68.1486
0.53800184,71.48579
0.63441855,69.9949
0.7160185,70.670395
0.75348496,71.108284
0.8057542,79.5893
0.79011977,75.81346
0.9019421,77.520004
1.0760794,79.44481
1.2038742,72.808525
1.0858337,77.44516
1.2593172,76.745415
1.2846826,83.94304
1.5034593,82.63964
1.5086656,89.689575
1.565412,86.59373
1.6842086,84.48447
1.6375535,92.737465
1.6699195,86.54003
1.79297,86.36862
1.7867512,91.81429
1.8145778,91.53363
1.7734345,91.07582
1.8016876,94.32418
1.9834477,93.061775
1.8505354,95.8349
1.9030741,93.08702
1.8970724,92.3636
1.9336641,97.68909
1.8633963,96.34928
1.8395358,95.53233
2.0101964,100.62462
1.9133548,99.441925
1.8363076,96.07234
1.8915321,95.14199
1.8901627,94.7211
1.8043509,96.87024
1.7137947,92.00035
1.7013555,91.75295
1.6050276,96.30572
1.5462804,93.3758
1.6980679,95.84181
1.6276408,94.85978
1.6273086,92.305756
1.6138383,92.23395
1.5474207,92.905754
1.5359328,91.44416
1.5188409,87.32397
1.4634109,90.02769
1.5172198,88.55998
1.4830842,88.339745
1.4570513,84.60684
1.503554,86.343704
1.469323,87.3083
1.4774437,82.621925
1.4153925,83.76281
1.3944559,84.08504
1.3143816,81.43138
1.3466367,79.93284
1.3108301,78.7268
1.2903411,79.48682
1.3110881,85.10788
1.3329679,81.56996
1.2950048,82.86024
1.237539,81.39656
1.1315459,69.913925
1.1709316,75.338455
1.141638,74.75212
1.0312449,80.4722
1.0460967,72.555504
0.95859814,74.066154
0.9870601,72.09759
0.88949394,77.09881
1.0192,71.38382
0.9632931,71.093056
0.89885175,68.929146
0.9429413,72.23483
0.8963627,68.37306
0.85041255,68.67103
0.87752974,71.224594
0.87558186,67.311806
0.82608235,66.94545
0.9414553,67.80482
0.91065985,71.111626
0.8784864,66.81194
0.8464575,66.8448
0.8586997,61.803524
0.7348595,65.31389
0.75853366,63.676727
0.70157856,63.77444
0.6072556,68.132996
0.6662629,66.137695
0.6943871,67.00356
0.5594768,68.1639
0.6092054,64.630005
0.50248474,66.35694
0.50699556,66.35598
0.44254714,68.19031
0.6061864,71.57779
0.5994951,66.21893
0.5753744,67.97908
0.6241648,70.71144
0.687861,69.18964
0.8474053,75.66316
0.92079574,78.98234
0.9693684,76.55909
1.0885645,73.96426
1.1101371,76.684586
1.147719,81.413475
1.3488421,82.41452
1.3507968,74.401596
1.4448618,85.24515
1.5991892,84.7209
1.6919996,86.52662
1.6179696,83.42043
1.793055,85.83185
1.7107666,88.33879
1.8626242,87.46614
1.7942227,92.540054
1.8781866,90.67406
1.8886658,91.003746
1.915128,93.44479
1.9894077,98.225815
1.9946725,92.691925
1.918152,94.91015
1.8914796,96.71819
1.9132347,93.02144
1.9143476,102.43751
1.9330765,96.49489
1.8893617,93.302086
1.7242459,95.925354
1.8855145,92.17271
1.8610269,90.85863
1.7769595,93.8859
1.7495081,90.466545
1.7097815,95.233246
1.763399,93.5052
1.716171,92.007095
1.6339217,95.36771
1.6171532,94.05441
1.6128248,93.246216
1.5321677,96.090065
1.473234,90.576706
1.4908633,92.71977
1.5356326,90.64722
1.492824,87.50663
1.4749105,90.266594
1.4996529,90.7458
1.4508353,84.93305
1.4294511,90.22656
1.389287,84.95858
1.4664879,84.15032
1.3827208,79.85575
1.3070446,84.212425
1.3143823,87.655975
1.3397679,81.810074
1.2936225,86.617714
1.2930417,82.06355
1.136698,81.22079
1.1601996,78.400085
1.1584381,80.257065
1.2002051,74.656746
1.0982742,76.1461
0.97551495,75.0673
1.0222015,79.72999
0.8707198,74.178505
1.0719217,74.16204
0.8492681,73.7927
0.9016747,73.17989
0.79640007,72.860825
0.78067225,72.461395
0.8061685,74.668015
0.837639,74.277985
0.71480787,69.21653
0.7889317,73.63839
0.70476395,73.236725
0.7192435,71.58701
0.7501585,64.78904
0.71115595,67.650475
0.6886006,68.74084
0.7302826,70.071594
0.76743585,66.6619
0.74330175,65.00065
0.6305174,64.855515
0.6550606,64.88823
0.5634648,66.396774
0.595221,64.71717
0.40177673,60.82807
0.4611911,64.212074
0.37119126,62.02968
0.4379081,63.850914
0.4194744,66.53614
0.35583693,65.98715
0.29013306,61.385002
0.2812716,70.99776
0.37154794,63.584866
0.34222034,68.11118
0.28294158,67.18643
0.38908833,68.52598
0.40862748,70.48969
0.4260274,72.599884
0.51736367,71.62195
0.58252716,71.62034
0.6627472,71.40287
0.70996624,75.95276
0.76533765,76.49771
0.9068941,75.30503
0.9367026,77.393135
1.0418392,78.569
1.1747422,79.2655
1.2289292,84.27655
1.2675011,80.43919
1.3652785,84.25343
1.3180135,85.92752
1.4732609,80.947815
1.5345442,84.446144
1.4979608,93.00576
1.5644749,88.371185
1.5212703,93.57862
1.6330292,90.44053
1.4997809,92.799614
1.4859436,95.34056
1.665262,93.845055
1.6077733,92.42327
1.5629209,98.41283
1.6447848,93.52815
1.609464,88.74403
1.5739604,97.13105
1.5576664,99.1213
1.5487112,95.512764
1.477329,100.12176
1.52414,96.46638
1.515646,94.98672
1.4391596,99.81452
1.431947,94.76059
1.514876,91.05044
1.2926965,92.10581
1.3414134,93.88804
1.3181659,90.688614
1.3270042,92.507355
1.2242498,90.200096
1.2457575,88.31936
1.1709632,92.90793
1.0464765,87.19876
1.1371973,90.96121
1.0544773,88.87222
1.0517713,87.68234
1.0176963,85.86288
1.09407,84.622444
1.0895121,83.26885
1.1726968,88.18202
1.0167301,83.33767
1.0199375,85.484085
1.0561942,84.189674
0.9833799,83.41967
0.87954634,83.151886
0.93017584,84.52392
0.86980575,83.588806
0.912381,80.52922
0.754595,82.00373
0.80925024,80.47535
0.7111619,80.25148
0.71032304,78.68071
0.62091064,77.979454
0.6322583,78.90877
0.54504824,80.40146
0.59188926,75.66756
0.52828735,75.94403
0.5016201,74.3725
0.3556299,71.92222
0.51990455,66.350975
0.40259823,68.522766
0.41349012,69.19729
0.3715138,70.76658
0.42751712,69.70513
0.47326866,69.30216
0.387176,63.651802
0.333711,73.05282
0.4009467,67.22905
0.2851475,66.50421
0.5285009,70.89215
0.40161216,62.37735
0.32761452,64.44223
0.16415162,66.806564
0.13253102,63.02883
0.21093182,68.75782
0.22463146,67.924355
0.14579998,66.96901
0.04338142,66.13163
0.064434096,68.057945
0.026879804,67.97594
-0.07218387,58.971283
-0.06625481,68.62365
-0.113076255,70.83203
-0.03718182,67.62905
0.0642974,70.16782
0.021842046,71.28431
0.016244264,66.0568
0.18721512,75.88327
0.14175074,69.84848
0.21089326,72.679214
0.33335438,70.45049
0.3430458,78.20105
0.4300802,79.071205
0.6002051,75.82596
0.66853374,72.36745
0.6212344,74.21149
0.88560945,84.160675
0.933642,81.059845
0.9073559,84.664925
1.0646093,83.35001
1.043086,86.70827
1.1679195,86.36925
1.0742488,86.55486
1.1918913,87.14447
1.378317,92.28199
1.3201267,88.15159
1.2972374,92.42237
1.396639,93.51282
1.4012395,93.203
1.2710282,98.45511
1.4088372,97.5614
1.3211329,94.826256
1.3412478,93.54627
1.3500957,92.81452
1.33936,96.20287
1.3175578,94.773994
1.3474368,95.219345
1.2297682,96.27155
1.2872645,95.929886
1.2692825,99.65559
1.3304737,98.33617
1.1343677,96.829346
1.1956855,96.00485
1.1143124,93.78643
1.1169863,96.568115
1.1311073,93.58105
1.1242868,92.27842
1.062169,91.319534
0.9501256,86.00398
1.0617789,90.11212
0.91374886,88.88316
0.99580604,89.45199
0.9535095,84.879974
0.9708283,86.52152
0.94913685,88.48618
0.9076688,85.35974
0.9888401,88.68869
0.9520001,83.10284
1.0436674,85.23977
0.91760063,87.05095
0.8073577,84.77025
0.8445101,86.35367
0.80060446,84.43563
0.82780594,82.64614
0.7975857,76.11128
0.6960156,78.0812
0.7537393,81.75751
0.66051036,81.47671
0.5721033,79.09794
0.5803241,73.031876
0.72505707,76.489006
0.5593644,75.819466
0.545746,75.1074
0.5259333,75.63772
0.5241427,71.62929
0.45322952,76.08905
0.32429576,67.11007
0.3688359,77.07618
0.3519022,72.08916
0.37693527,75.66399
0.3610431,68.61613
0.28737393,68.95544
0.39530972,69.0089
0.39274082,67.05346
0.39093336,70.0118
0.4905016,66.96337
0.33120662,65.12621
0.32622275,62.243965
0.32146046,63.57596
0.28095582,62.971912
0.3459855,66.77531
0.24013714,65.34313
0.18908137,63.384373
0.22665535,66.24799
0.23071408,64.06372
0.13343038,62.141766
0.10284054,72.35245
0.0636092,68.82428
0.018833715,66.23287
-0.021983322,64.05548
-0.04294692,65.51508
0.023997122,68.80357
0.05292224,67.90117
0.014743335,68.40401
0.1268922,70.19113
0.081636555,71.40352
0.22059478,76.46244
0.19363526,74.02716
0.31712362,74.955376
0.39522794,72.781425
0.5209529,75.74714
0.5016567,81.69036
0.69084793,78.41639
0.82561415,78.40841
0.8785811,79.85267
0.84820974,80.51048
1.0191578,83.64333
1.0368608,88.85611
1.1029735,87.374275
1.2012123,85.052574
1.2340274,84.34774
1.3069388,88.926735
1.3759277,83.59143
1.3865635,94.56373
1.4773046,91.41504
1.509881,90.398
1.4152523,89.23617
1.4737736,92.77387
1.4814484,95.13591
1.5639827,97.77408
1.6240456,95.26952
1.4812346,95.34448
1.5130956,97.02527
1.5608448,97.91102
1.5747106,94.5573
1.5098704,96.01049
1.4318706,95.66005
1.4417193,96.09244
1.4816842,100.015465
1.4211258,96.116005
1.395679,96.299866
1.4328331,91.95282
1.3029181,95.14036
1.453758,89.54435
1.2969649,89.88796
1.3031774,92.4703
1.2495673,91.34759
1.304313,93.798386
1.2486745,91.76939
1.2336881,90.52847
1.1567655,86.657196
1.2095224,92.576584
1.1519465,89.11467
1.2033492,88.19648
1.2059854,87.37069
1.1878077,90.55069
1.1852446,88.03658
1.1176126,83.31924
1.1852115,83.076065
1.1540447,84.65251
0.9628113,83.68483
1.116348,82.00376
1.0607859,82.49299
1.159304,80.42797
1.0486611,75.56128
0.9625516,80.17627
0.95521986,84.08489
0.99495703,77.80147
0.8633819,78.04095
0.81450105,74.27713
0.80515146,73.93525
0.8038796,76.27103
0.7820713,75.88588
0.76868767,71.54273
0.62720954,73.39638
0.6326034,77.24996
0.7580682,74.56034
0.8008655,69.67192
0.72760135,72.11193
0.6534618,67.56354
0.69475555,71.139366
0.66414803,71.82218
0.7257562,72.85214
0.72739905,68.7974
0.62866503,70.26799
0.6021648,67.088066
0.65549606,68.102486
0.6870705,68.30311
0.6786882,68.01651
0.56286526,65.83683
0.6218953,69.13815
0.5784191,66.03076
0.54486126,62.197594
0.460279,63.081223
0.38845372,65.714325
0.42207476,65.564
0.43848276,66.72544
0.35369524,67.67117
0.42650163,66.442566
0.33934242,62.5849
0.33805487,69.371925
0.416275,70.167496
0.3674631,69.65011
0.36733416,71.601395
0.5304401,66.96048
0.5742221,74.602
0.60127956,73.996185
0.7655116,71.30937
0.8236289,70.725555
0.9133721,82.037766
0.94176847,81.19897
1.0232241,76.96754
1.1083239,82.93013
1.2775457,78.190125
1.2569983,83.54051
1.3520484,83.27469
1.4753654,83.35703
1.5235249,84.52455
1.6147847,85.32367
1.7074898,89.199326
1.6789924,88.47643
1.6567023,90.15517
1.716125,91.08049
1.7875102,88.91084
1.7118328,92.953995
1.8710898,92.773476
1.9338993,92.85989
1.9065516,90.964096
1.9450457,95.944855
1.901786,97.322945
1.8221439,91.61604
1.9572706,89.425804
1.8705119,91.555145
1.871803,92.756485
1.8769492,93.17469
1.8045148,95.025314
1.9458126,97.711426
1.8848816,97.86811
1.8111387,97.391464
1.6938685,96.94219
1.705229,93.16947
1.7964051,88.19032
1.6140692,90.76294
1.5331193,93.48744
1.5242871,97.58743
1.632082,89.40822
1.5872905,92.237236
1.5536509,86.53486
1.5533595,91.338356
1.4224979,90.394226
1.5491574,94.155
1.3285635,86.069435
1.4955192,86.36207
1.4666772,88.33965
1.4122546,87.117935
1.4681575,88.719124
1.4490865,79.80878
1.4692284,83.14733
1.378776,86.59261
1.3523203,82.12206
1.4886125,80.78276
1.4498129,79.51371
1.2989395,82.69798
1.2353263,81.231575
1.3038855,82.158646
1.2022128,74.92235
1.2122747,82.02683
1.1400862,78.449394
1.1274052,76.1888
1.1363443,73.3319
0.98604643,74.21093
1.1261342,80.41771
1.0276803,72.07874
0.96655405,75.146774
0.99088216,71.98578
1.005569,72.27548
0.9062815,68.1713
0.8652399,71.12148
0.8381725,69.35061
0.9550353,70.206314
0.95642465,68.78334
0.9666285,67.15739
0.86144906,68.057
0.89415854,70.62066
1.0135455,67.721924
0.9111941,67.012985
0.86720705,67.240906
0.82957214,65.46718
0.821217,64.53574
0.7153534,67.40153
0.74903595,64.331024
0.74972785,71.41518
0.6516471,68.82314
0.5744759,60.2155
0.50354606,63.64025
0.6110679,69.10973
0.48710862,68.53641
0.6102372,68.43959
0.5326687,69.110054
0.49045777,61.34041
0.60052323,67.79458
0.5551677,72.62823
0.6160987,73.291794
0.6726248,69.48201
0.73696804,69.42929
0.7525931,70.74743
0.8625607,73.93067
0.9442542,72.39503
1.1289667,73.518585
1.068897,74.578545
1.3145859,79.62513
1.3449489,78.860146
1.3513558,83.99625
1.412259,82.23521
1.5284833,83.38144
1.5716157,86.239586
1.7008463,85.723755
1.7171905,83.23421
1.6572548,87.15153
1.8665438,87.50219
1.8009948,88.15764
1.8328116,88.939995
1.8689715,90.33644
1.8837836,90.51867
1.9106447,92.286285
1.8729796,92.48914
1.9703126,91.652916
1.945818,93.52673
1.9564172,98.07189
1.9313004,96.92669
1.8607285,98.18132
1.9150373,93.48681
1.9266369,98.00798
1.9634317,98.99087
1.8772376,93.73015
1.7609992,97.54022
1.8451309,94.54938
1.75712,97.3123
1.836142,90.45047
1.7238942,97.72791
1.670524,96.11439
1.6399385,93.0017
1.6710371,90.08917
1.6091906,93.12577
1.5862387,91.18777
1.5110552,90.89626
1.693755,90.32182
1.431779,88.14319
1.4854589,89.43951
1.6038224,90.00221
1.4840541,86.963524
1.4513601,93.753044
1.4331449,82.268745
1.4060924,82.91021
1.3909898,85.27777
1.3305353,81.080315
1.3572737,87.74378
1.3576415,87.71659
1.3444524,82.4802
1.3315796,75.42274
1.2163022,79.80238
1.2833678,78.48433
1.155255,86.14404
1.1601727,81.47347
1.1487246,80.50466
1.1331701,79.58959
0.9924438,80.484825
0.9759291,73.68338
1.0211567,75.075806
0.95470375,73.83758
0.98818856,76.54207
0.87897784,69.10828
0.81206524,69.96057
0.77843845,71.68317
0.7482646,72.39685
0.7508672,67.63167
0.7935086,72.631035
0.7309208,70.33927
0.7497892,69.15134
0.77792674,69.70693
0.67827743,69.49239
0.817461,68.89875
0.8122095,63.88308
0.6686691,64.139435
0.75555235,68.3466
0.7367907,65.559044
0.7321965,65.81966
0.58280414,66.382
0.59896266,64.030754
0.6659632,63.971703
0.475397,61.822136
0.51622754,66.91405
0.44728875,64.615944
0.37362787,61.19316
0.42932898,64.81274
0.2948789,64.829666
0.41419655,67.88169
0.34775764,65.91297
0.3338179,69.31261
0.37853107,74.81929
0.3785311,69.38986
0.40739858,72.745125
0.4068279,73.5596
0.43777904,77.60034
0.5849953,72.1198
0.58698905,69.38314
0.6832196,74.46285
0.85826,79.35537
0.8657076,75.238884
0.91505104,80.40728
1.0316391,81.80441
1.1040438,82.23892
1.1956961,84.32999
1.2521113,84.35884
1.2878498,83.978714
1.3513573,87.62527
1.3921256,89.30338
1.4926924,90.24426
1.622243,89.24131
1.5440153,87.192245
1.6161307,91.54065
1.6739347,92.632324
1.602949,91.20763
1.5505236,95.13891
1.714322,95.30391
1.6839379,88.93593
1.6484553,91.55123
1.6868345,91.45987
1.4989454,94.63289
1.611578,94.33825
1.5308313,90.91662
1.5639791,95.412544
1.5602057,94.29161
1.5310849,96.56963
1.527058,92.99019
1.5794256,91.54932
1.4983499,94.98577
1.4612635,96.37292
1.3690104,92.91915
1.3699968,95.64963
1.2577542,94.53899
1.3673506,97.95074
1.2848881,92.595024
1.1593255,91.831436
1.136346,91.56808
1.2108068,85.62965
1.1427783,91.7596
1.1284211,87.507866
1.129442,87.13428
0.98708594,87.953316
0.99752617,90.30098
1.050749,85.849525
1.082626,90.38956
0.9890193,85.6755
0.98602456,82.90748
0.9172803,84.218704
1.021282,79.32349
0.9608125,83.99067
1.0034066,82.497025
0.94743645,76.764725
0.90217566,85.578064
0.78218174,78.11492
0.78998506,75.05654
0.7440672,77.57884
0.6566199,78.28143
0.7037992,77.68174
0.64994115,78.03876
0.6520623,73.78686
0.48736125,74.38715
0.55355674,73.6648
0.47917053,75.41931
0.39597514,70.15444
0.4043587,75.16412
0.5164053,71.189896
0.41759273,70.73101
0.53575957,73.389015
0.49260584,69.16582
0.3781602,73.02521
0.38281932,66.6718
0.40794694,68.96068
0.449037,74.605965
0.37296247,65.03735
0.3862391,65.686424
0.3348098,67.17398
0.33065718,66.90048
0.34725484,61.20053
0.40705556,63.167824
0.27086148,65.82315
0.16322325,63.923717
0.106991686,64.381
0.095866665,67.936874
0.1441672,70.95452
0.048349846,60.97124
0.041810766,62.517033
0.05340253,66.221924
0.065533854,70.70826
0.053728417,68.97056
-0.025964824,71.949486
0.041251484,67.87516
0.16882975,74.4567
0.007995559,68.93038
0.14141694,72.54889
0.15237695,67.38728
0.37922102,71.59537
0.36664236,69.93798
0.5156719,77.11355
0.5242894,75.22345
0.66788185,78.663315
0.6227458,83.03792
0.8783969,80.52173
0.7573865,79.294365
0.8863275,84.02521
0.9818281,82.3123
1.0900304,85.47241
1.1079615,83.74897
1.2087669,88.32473
1.2220042,89.16368
1.3208251,88.0331
1.3063781,93.41465
1.2930646,90.910484
1.3513659,95.39691
1.3319196,92.68507
1.3562111,92.560135
1.351518,93.58714
1.3334268,93.27113
1.4270842,95.89143
1.3575684,93.88623
1.3556284,90.043755
1.3103652,96.29654
1.285053,94.134056
1.303406,98.912346
1.2334884,94.674065
1.2748681,98.75107
1.3636215,96.05057
1.1918036,94.98271
1.1997641,94.39778
1.2325447,94.66514
1.0837834,93.90531
1.1802427,95.96591
1.0642565,92.34593
0.99445516,94.087364
1.1407273,91.071465
1.049752,94.66731
0.9599275,91.71865
0.9368934,90.979485
0.9276849,92.1771
0.9637972,87.80483
0.89047265,84.88758
0.96923524,89.2354
0.9151323,86.1812
1.0196129,85.157
0.9859137,86.200645
0.90742373,85.3713
0.8663446,87.62159
0.9033841,85.52063
0.91861016,85.8799
0.7648487,83.41568
0.6858951,80.81065
0.7344937,81.69387
0.73009765,79.56653
0.63880134,80.54597
0.65411985,81.27205
0.49274415,74.840614
0.52767223,79.14597
0.57863593,71.20796
0.5413433,80.12683
0.5302686,78.19477
0.4026233,77.44087
0.37067676,72.21913
0.27612203,71.22087
0.4500742,71.284706
0.35923645,74.872925
0.44897774,68.56367
0.33780298,70.50639
0.36137435,71.520164
0.3352321,70.68056
0.46804738,71.55805
0.31697977,66.33687
0.30594182,67.73856
0.33038816,66.55853
0.3659554,64.50673
0.26342303,69.07317
0.2673917,64.48621
0.4179689,60.685215
0.19594331,63.847336
0.17733225,67.84606
0.10204679,62.871143
0.07165386,61.266647
0.091036856,64.89648
0.12450936,68.43197
-0.0017386323,67.58911
0.090785265,69.2042
-0.04602394,68.75587
0.08894532,65.42559
0.07364713,67.7738
0.07456498,67.21714
0.014327913,69.13877
0.09779395,69.72736
0.06671639,68.070114
0.1948842,74.624825
0.19655958,70.09313
0.28867993,74.38031
0.3440341,66.64351
0.39995754,72.34909
0.46266305,72.10822
0.5532837,75.74914
0.6737692,78.48361
0.79080904,76.38298
0.8677448,80.91738
0.93115705,83.620186
1.0478135,86.09196
1.1041604,87.46304
1.1565747,87.03953
1.2003176,86.03805
1.2728821,86.94874
1.2745082,86.74632
1.3872544,89.10378
1.4609932,91.22035
1.3368212,90.530556
1.4506239,90.02192
1.4837267,90.51115
1.5472418,92.88852
1.5785005,94.86658
1.5001259,96.63288
1.5906135,91.5585
1.5231767,100.17898
1.4985859,95.5391
1.5189701,96.10054
1.464139,96.20156
1.5704995,96.5786
1.4640638,99.31573
1.3858566,97.046555
1.4696704,93.16127
1.3494407,92.027145
1.385264,95.048134
1.2399663,95.34024
1.3216921,90.5403
1.3490845,92.62315
1.2533226,94.73852
1.341136,90.697624
1.2025486,89.34607
1.1952089,90.18795
1.1391956,93.5719
1.1529678,94.42754
1.1654781,88.77433
1.2357728,90.99807
1.1895584,87.844894
1.1015443,87.36898
1.1472884,88.13595
1.1122091,89.40685
1.1305014,83.34049
1.0709385,87.46003
1.1711297,83.09985
1.0302261,84.71453
1.0463796,79.9224
1.0221003,83.043015
1.0739077,80.88283
0.97722965,81.73568
0.9290821,78.48367
0.9641335,78.89113
0.9199451,75.88552
0.8912028,79.21301
0.8094121,77.60898
0.77465904,81.97322
0.8083302,73.42392
0.72266525,76.62114
0.7946567,73.5344
0.7090235,74.49467
0.6387029,79.021416
0.68338907,71.53929
0.6387765,74.891396
0.6348088,74.09693
0.6499388,75.61903
0.67409784,66.875656
0.6890134,67.17428
0.7000155,72.29428
0.7031598,69.281586
0.683905,65.6002
0.6751472,66.27535
0.6857601,66.567696
0.6568586,60.465588
0.6617887,67.84343
0.6595014,65.40376
0.49257016,66.7619
0.5916674,64.30696
0.49039137,64.08615
0.51038367,66.73662
0.3951525,65.052086
0.43833026,65.26434
0.44357735,61.47166
0.33112678,65.90092
0.35770634,63.029877
0.33353263,67.844086
0.3360415,69.13047
0.35815337,68.88106
0.35960218,68.4924
0.41115835,69.02625
0.43675917,71.9336
0.5088232,75.647415
0.61542904,74.907974
0.61850005,73.59625
0.67792886,75.75781
0.7348832,73.81445
0.78615636,78.0843
0.9680901,75.190155
1.0161583,82.76112
1.2581161,83.037926
1.1821737,82.0757
1.1947129,82.9728
1.3603,86.897064
1.4734604,83.98189
1.5274175,91.26023
1.6301663,87.16777
1.5818895,90.10201
1.62904,87.47921
1.6049066,91.58406
1.7234732,93.35524
1.7378477,90.90498
1.86204,89.79162
1.8832817,96.23223
1.770909,94.79398
1.8607572,91.00363
1.7916198,97.33413
1.8726872,97.98924
1.8193156,100.47162
1.9812549,95.847984
1.8163713,99.831535
1.7749139,95.21617
1.8396536,95.4468
1.8889381,98.80782
1.8257815,94.33238
1.765406,98.82674
1.672834,88.90721
1.6632477,91.7483
1.7225928,94.33977
1.6999154,94.28933
1.6781498,91.506775
1.5599155,92.38184
1.6539897,90.99548
1.501661,89.34146
1.5045918,91.44314
1.5431732,93.51447
1.5461715,89.261
1.458305,93.03965
1.4975417,90.16101
1.3737804,89.973816
1.4462159,87.50482
1.4299341,83.656586
1.4673337,86.2316
1.4206934,85.96569
1.4983672,84.60246
1.4207213,88.21554
1.3871342,80.426704
1.318347,81.92964
1.4484296,83.624664
1.3430755,82.343994
1.2719853,80.02586
1.4057304,75.16209
1.2545626,77.861984
1.2662317,80.2453
1.1114416,80.62289
1.1762141,82.621124
1.2001635,74.139496
1.1440146,74.33599
1.1205231,72.74179
1.0079246,80.221985
1.070001,70.18548
1.0171638,78.108635
0.9235558,74.925125
0.8904456,72.032875
0.94439775,75.69808
0.961608,67.4735
0.8941777,73.02603
0.9525221,69.48763
0.9675159,71.050644
0.89304286,69.1334
0.8957359,69.51624
0.9471023,69.118835
0.8711118,69.609116
0.80097866,68.73264
0.82691664,65.112
0.83978367,63.02568
0.8167996,62.898674
0.74346983,64.324196
0.687899,71.07321
0.75368387,63.604122
0.63194436,67.3392
0.5970919,69.20619
0.5633661,69.012856
0.5408861,65.74168
0.46876687,66.626434
0.4678462,67.81517
0.60191494,57.327465
0.5023732,69.62451
0.59879875,72.75725
0.5987866,66.56854
0.6250167,70.72848
0.6335949,70.3272
0.72830695,69.47212
0.7705143,76.88141
0.92083466,76.143974
0.9013851,76.43678
1.1295893,77.621735
1.150604,79.99212
1.2407801,80.92903
1.3301486,81.551476
1.4137193,77.774414
1.4165708,83.70409
1.6183319,84.953384
1.6687137,82.42981
1.7046751,85.77306
1.6938559,91.113716
1.7766906,87.21125
1.8543494,90.22411
1.847603,91.6291
1.880797,93.570755
1.9237972,91.58003
1.8909262,92.08125
1.9377446,92.60317
1.9515312,96.204605
2.027336,92.41598
1.8918548,97.68777
1.9525748,95.42415
1.9277269,95.87988
1.9245158,100.52388
1.903335,95.8708
1.8467867,91.514114
1.9517684,101.48129
1.7987176,93.56281
1.8187569,94.04257
1.8058851,95.26559
1.7057694,92.56079
1.7057312,95.96072
1.7231742,93.48681
1.7172773,94.52056
1.6031922,95.08323
1.7233152,91.27296
1.5679281,84.57401
1.5592611,88.198715
1.5987661,90.09373
1.509405,93.93437
1.526293,92.19192
1.5647037,87.36271
1.5228175,92.54535
1.4329604,88.05838
1.4422119,92.54328
1.424146,88.25508
1.345537,88.378044
1.4711709,85.18949
1.4883207,82.87689
1.4023597,82.22035
1.3076397,82.00961
1.3736126,85.05073
1.4032356,83.56718
1.2040498,81.01328
1.2254773,85.11065
1.2310013,81.423706
1.1855747,79.08556
1.1175007,81.16811
1.102782,79.022446
1.0574703,77.61137
1.0251911,77.748566
0.96853423,77.923965
0.8602887,72.07982
0.94809186,77.97501
0.88922143,79.11231
0.75256616,75.06466
0.86244416,72.51562
0.8612686,72.54996
0.79125834,68.15428
0.8929056,72.93116
0.6885373,70.681625
0.7813227,66.667175
0.7676769,74.04711
0.7704539,66.403145
0.831238,66.35527
0.76845926,66.38351
0.72687495,67.53104
0.72725993,68.2
0.75943613,66.7676
0.67698777,66.60485
0.66258144,66.03749
0.5071543,63.721478
0.5931876,65.46866
0.5154581,64.77053
0.4443019,67.95231
0.41184843,67.38264
0.3255465,69.2627
0.4110861,62.249653
0.3306835,63.595848
0.3465001,70.65705
0.38205916,69.25515
0.44219813,67.487274
0.3378318,70.83545
0.36469334,70.26577
0.44528434,74.266754
0.5131063,75.627754
0.6139024,73.675125
0.5891028,74.93984
0.7010328,74.53685
0.8465522,83.22946
0.88545567,79.2918
0.9893618,80.81011
1.0602235,76.002464
1.0522676,79.54309
1.2561516,82.31766
1.2504214,83.24918
1.3674364,87.64808
1.3755287,85.832855
1.4972185,83.57978
1.4302256,88.00382
1.52888,94.100266
1.5977768,90.97712
1.6089838,91.00252
1.590111,89.9147
1.6533303,89.51346
1.7021456,90.743126
1.6964881,95.95618
1.7175971,98.823105
1.6103102,95.87706
1.6732619,98.27666
1.5771446,95.929344
1.6065072,98.864624
1.651061,96.443375
1.6174154,95.5743
1.6025546,95.28669
1.5843999,101.321686
1.6020967,97.6072
1.5692451,99.20132
1.4491796,95.66046
1.3585563,97.592255
1.4691073,92.94681
1.4359782,94.931206
1.3388187,93.08256
1.3367854,91.14828
1.3411186,91.18047
1.2491819,88.28437
1.2929417,89.16098
1.2140299,92.73367
1.2093903,91.44864
1.159574,91.75109
1.152186,88.04621
1.2587627,83.89535
1.0549922,88.65649
1.1210665,88.4046
1.1069987,84.44815
1.0249482,87.62421
1.0775201,81.65827
1.0175618,85.450455
1.0796138,81.76901
1.0901697,83.943
0.9374224,79.41464
0.91120714,78.413704
0.93882287,77.885185
0.9009686,75.63602
0.89635,74.2116
0.8184711,73.79566
0.7479269,76.69018
0.6818655,76.66851
0.7210925,73.22263
0.66417414,72.46705
0.59416586,78.676704
0.6188812,72.54774
0.6314681,76.51574
0.5183056,71.63925
0.44285357,73.09115
0.4449396,72.06819
0.38584533,70.6796
0.5005666,74.65124
0.48309562,71.94653
0.47573385,72.4873
0.42403898,69.18027
0.38251662,67.78087
0.4220667,66.6944
0.35765204,67.89477
0.43979055,65.93689
0.42559707,66.08227
0.30540705,64.32657
0.29543567,62.21088
0.37762144,65.34096
0.24304067,65.29092
0.25190556,67.60877
0.14999355,66.8686
0.34263107,63.802402
0.10070806,60.580666
0.10813678,66.28421
-0.004600292,67.09749
0.059424832,69.64554
0.072661445,65.265526
-0.026632369,65.058334
0.037100453,65.75639
-0.031114543,68.15809
0.085579805,69.116844
0.09236661,70.77274
0.09615593,69.15135
0.20086837,71.58412
0.23457424,76.49713
0.30759373,71.67563
0.37192544,76.96659
0.4869176,75.22689
0.5878625,75.11713
0.64033514,76.75594
0.7231987,82.32288
0.8397497,81.671585
0.84472084,79.63492
0.96173704,82.33691
1.0174187,84.130486
0.9913545,88.521965
1.2097232,87.298744
1.3186675,87.75488
1.2019743,88.92674
1.2991756,88.423225
1.3164611,95.13574
1.2706066,92.26419
1.3654402,87.038895
1.3623028,91.56444
1.3566501,94.51956
1.4172113,93.778984
1.4404656,94.984726
1.4554965,96.74008
1.394656,98.0978
1.3575343,93.942444
1.5069138,99.311195
1.3752872,96.240234
1.3021915,100.53968
1.3049314,97.09083
1.3084748,96.39064
1.2901978,94.73074
1.2475352,94.196495
1.2459242,94.71431
1.1415731,96.82213
1.1645701,96.209816
1.0206865,98.4827
1.1343602,91.95218
0.9473331,92.384796
1.0063138,90.13464
1.0898602,93.07126
0.9498095,86.61402
0.96356887,87.038925
0.9973077,89.777306
0.90577257,87.01875
0.9540479,83.531105
0.939332,85.79205
0.9310731,84.28048
0.89462286,84.99388
0.8654463,84.41946
0.8220728,86.23509
0.8459905,82.53997
0.84396577,81.872665
0.7768674,81.226364
0.8097139,79.96046
0.7790092,81.75718
0.72352856,84.92521
0.69316196,77.99511
0.5249618,80.32475
0.64508617,78.192345
0.59783983,75.43115
0.57360363,80.60107
0.46439317,74.96962
0.5008516,76.48178
0.41126305,75.520935
0.5217051,77.56525
0.36277908,76.08269
0.5416798,68.96815
0.40288287,71.589745
0.34768775,68.07453
0.32451275,74.17878
0.2756401,66.94526
0.42012054,65.32769
0.37429956,65.571724
0.2663176,66.209564
0.36949858,70.91798
0.322816,72.854485
0.39820713,65.44138
0.47109294,69.58873
0.36892545,69.575645
0.25603223,64.2083
0.32247347,66.38977
0.3190674,64.49894
0.22535513,62.025547
0.18252341,67.068596
0.12538022,65.45588
0.04643005,67.98116
0.16096212,69.88735
0.022825425,65.79798
0.043305892,67.93376
-0.07532634,69.426575
0.018977989,65.20498
0.0059214844,66.60285
0.046278764,66.60438
0.10771399,68.53077
0.064971104,62.88845
0.17023954,69.52925
0.19204943,74.461044
0.19688559,80.125885
0.3542038,71.58043
0.4704102,76.01625
0.4077503,78.77903
0.5552748,75.46618
0.7054115,76.59939
0.7319369,81.76271
0.84929866,80.0268
0.86928296,80.74875
0.9417988,80.58159
1.0096236,83.64036
1.1594859,83.99896
1.1024133,87.21526
1.2868664,85.09569
1.3253918,89.29661
1.3527548,92.9097
1.3082278,91.93203
1.4954689,89.36091
1.4844668,91.7242
1.4584055,93.02183
1.4879503,96.56197
1.5507052,94.650795
1.424985,95.48282
1.4448388,95.79671
1.5413226,94.995155
1.5405076,99.11079
1.5187081,93.64774
1.4593681,91.99318
1.5225018,93.30984
1.4518148,94.8368
1.4616395,97.87082
1.3687679,96.903725
1.3973423,92.78757
1.3702679,89.7948
1.3414772,95.55215
1.4020575,97.077225
1.269345,90.2011
1.2694278,90.877045
1.1949224,89.65778
1.2402523,91.25294
1.2440425,85.37613
1.1744865,91.05725
1.1425003,86.428314
1.164851,86.00473
1.1086372,90.68235
1.0581253,88.30373
1.124254,87.45319
1.1301498,91.08683
1.0906012,88.29174
1.0606283,84.599686
1.1089323,81.823586
1.0740858,82.41246
1.1201144,85.710365
1.020241,85.60418
1.0405731,84.282486
1.0876744,78.12739
1.0164869,83.065956
0.8556536,80.108215
0.8795082,83.148544
0.8985418,79.10826
0.9134234,79.12598
0.79439527,73.71237
0.76110315,72.47341
0.6937095,72.13453
0.7119198,77.19208
0.7896913,78.73042
0.65034676,76.27583
0.65414417,74.68753
0.6033697,75.260826
0.60203326,71.92999
0.5735642,70.97805
0.5843063,70.41123
0.6868134,71.60987
0.6438373,73.14695
0.5463476,68.42502
0.6168084,67.161224
0.63219136,69.40861
0.6902501,67.23366
0.6064077,65.42016
0.6348344,65.33616
0.5954905,68.228485
0.5491304,65.674934
0.60299224,61.432747
0.524723,60.669346
0.53549933,64.17561
0.5845196,61.477924
0.44046038,64.525375
0.32411578,69.40228
0.49146196,65.948906
0.31059575,65.06478
0.27551186,65.33704
0.19051424,63.87647
0.32739827,66.67583
0.3661496,63.21362
0.33913693,66.09932
0.4261656,68.2122
0.34329286,71.490265
0.44845325,66.46227
0.51793253,68.5892
0.6038453,71.4291
0.68474054,72.54362
0.7191971,71.5717
0.75061363,74.39931
0.9919735,76.95831
1.0430046,79.396034
1.040605,83.7857
1.1474566,83.467766
1.2094556,84.84099
1.330514,82.8006
1.4078737,83.86206
1.4796009,86.3485
1.6352518,81.759476
1.6166345,88.57768
1.7471857,89.148315
1.7240012,89.605934
1.6846586,94.07626
1.7541705,93.7137
1.8066651,88.63337
1.8065715,94.341125
1.7700075,95.15754
1.7935665,92.533165
1.7671359,93.755486
1.88211,94.96749
1.7868302,94.65
1.8853476,93.479004
1.8497179,99.170235
1.8579898,94.868286
1.8228581,96.920235
1.8220239,96.13486
1.7450169,95.01258
1.7619735,93.70449
1.7405115,96.785515
1.7192736,94.016525
1.6429211,92.56927
1.6828138,94.38131
1.6788689,94.69365
1.6412265,90.09424
1.5834111,86.596596
1.5539486,94.10848
1.4782939,93.04388
1.5739343,93.676186
1.4564067,88.58609
1.4564326,84.261795
1.4036978,89.70959
1.4467791,89.057274
1.433996,86.58039
1.4283419,87.85436
1.4559214,86.15031
1.5195116,85.07381
1.4464064,82.61364
1.3754649,83.77117
1.4034692,81.942566
1.42848,84.537674
1.2921386,82.4376
1.3894267,81.201584
1.2543739,80.56909
1.2710578,76.05474
1.2386925,81.16648
1.2994549,82.58187
1.1627162,78.83445
1.1111822,76.24069
1.092852,80.87436
1.0104551,76.99275
1.0136595,73.62863
1.0002981,76.92406
1.0159268,80.45725
0.9612392,75.94558
0.9170056,72.46922
0.90107477,76.29393
0.92693233,72.755104
0.9266836,70.07239
0.8920694,71.24689
0.93099976,71.32997
0.856654,69.862404
0.9185991,64.94201
0.81340295,72.1756
0.80685526,65.47512
0.8572252,68.71712
0.8715385,63.831635
0.8309039,66.34834
0.82115114,66.11792
0.8816389,72.20219
0.8540975,64.90013
0.7513927,65.3864
0.68963355,59.876175
0.7239949,65.2752
0.7240976,66.23049
0.58468133,64.09723
0.56684375,62.583733
0.50383264,66.98187
0.54748666,73.36738
0.595426,70.10628
0.5065353,65.918236
0.52967244,65.81226
0.5908742,67.76989
0.6596881,68.431114
0.73433685,73.28556
0.7270209,70.29941
0.7234729,70.130905
0.88772315,73.98664
0.9767123,75.06035
0.9809637,78.146545
1.0903223,77.86673
1.1965487,79.32685
1.3278178,79.09785
1.366311,79.94839
1.4184381,82.23497
1.5539037,79.64079
1.5356231,86.21789
1.7019123,84.02205
1.6481266,90.73995
1.7956036,85.918976
1.7406932,90.59008
1.8384298,90.34899
1.7817762,86.446976
1.8011693,88.40621
1.9172477,94.12256
1.8557677,95.88155
1.9825633,97.856285
1.9822953,96.17723
1.9828473,94.569954
2.0040936,94.470146
1.9352287,95.17117
1.9258847,97.94332
1.8895651,95.50689
1.8702368,96.572716
1.863327,96.14115
1.9012092,93.39896
1.8517783,94.83951
1.8667485,95.122086
1.8701996,92.0755
1.812437,90.42992
1.7622646,93.6634
1.7584306,88.1662
1.6588213,93.71627
1.7198243,91.527306
1.5244395,89.907845
1.6007345,90.98794
1.5675714,92.23674
1.4994646,92.22119
1.5297351,90.10121
1.5975721,85.663345
1.4949597,89.11182
1.5329177,89.102196
1.4608529,90.15278
1.5435661,86.25319
1.5149903,89.27538
1.4062972,86.04588
1.4486501,84.86048
1.3621325,82.449646
1.3515601,79.410774
1.3845481,83.90744
1.4006499,81.24004
1.3217303,76.32895
1.2754477,78.292625
1.2493134,82.573746
1.2772676,80.94192
1.2111852,83.58742
1.1153678,77.661514
1.1128899,77.33423
1.0446075,77.216286
0.9544282,79.59949
1.010977,75.88703
1.0477911,75.90949
0.8179705,78.75369
0.8887784,71.161194
0.9280231,75.05934
0.92061204,74.56214
0.78572506,72.037
0.8620092,64.21394
0.8522337,71.77802
0.78508043,66.445
0.73851043,67.745995
0.7925326,70.22898
0.8019112,72.91336
0.69842017,70.46789
0.7604596,68.33703
0.78423053,66.1633
0.8019704,65.645836
0.7018875,63.128952
0.63816065,68.73035
0.63434744,62.32141
0.5668071,66.27689
0.55569136,65.775764
0.65739447,64.18742
0.40094763,61.489494
0.40194756,67.066246
0.42010328,66.3956
0.41620177,65.62383
0.3393443,72.41853
0.4052886,65.97458
0.5051551,66.45735
0.36684632,71.2743
0.3968693,70.45158
0.4485267,70.294136
0.528875,76.27526
0.54727954,72.31635
0.60597426,76.452385
0.61030316,74.15489
0.79536307,74.12079
0.8061467,73.18542
0.9273064,78.6087
1.0359515,82.05038
1.0485754,79.1721
1.3345978,81.952614
1.3093541,78.526115
1.3791515,83.73045
1.3031133,84.686035
1.4431705,90.1143
1.4258024,87.8104
1.5278761,90.32492
1.4283438,85.9223
1.5428799,88.600845
1.5479724,91.90101
1.6355809,90.94061
1.7816609,94.261894
1.652338,97.64671
1.685746,97.138115
1.6503625,94.35964
1.7123883,94.307274
1.6524967,94.98843
1.6053176,95.39281
1.6650932,94.790955
1.678344,95.56218
1.6376667,94.88793
1.6272491,95.76456
1.5770702,95.98002
1.6303991,96.92642
1.4781164,97.733376
1.471184,95.46741
1.4165996,88.98272
1.4362489,94.08715
1.3260396,92.97309
1.4340286,93.47555
1.2562896,94.402306
1.3123779,92.84863
1.2914015,96.97554
1.2798488,91.58384
1.299564,91.86409
1.2586125,90.881065
1.1786728,88.04562
1.1395142,90.20071
1.2393506,87.65864
1.1643832,90.60503
1.0940392,87.88663
1.1029512,89.62299
1.1678065,89.45238
1.0358934,84.2361
1.0261865,83.49579
1.1437446,83.62913
1.0157322,80.12858
0.9772945,79.174675
1.0003357,85.74347
0.92769766,83.42446
0.87831926,80.67565
0.83551323,78.35633
0.7970481,81.319786
0.7441639,79.16567
0.75150967,75.00335
0.66762745,74.191025
0.5372309,75.24177
0.53228426,76.14934
0.6055854,74.95943
0.55068934,80.64083
0.6042148,71.803345
0.4803709,70.40406
0.5777592,72.72525
0.37476355,71.03252
0.38685486,73.35964
0.47410467,72.286285
0.4684532,67.82548
0.41587424,65.26892
0.44884133,71.67255
0.4812555,65.51457
0.44251537,68.668564
0.41782823,70.64246
0.43859196,69.9821
0.3277117,64.18383
0.22650276,65.97602
0.30433133,70.75325
0.2518442,66.947044
0.31557173,62.93361
0.24836406,67.28572
0.1542877,65.7297
0.15952937,68.088875
0.007970826,63.832417
0.08029436,63.575325
0.058040544,68.94612
-0.033809192,66.70067
-0.06999831,69.05295
0.020814288,66.03233
0.0054477435,74.45835
0.18484892,71.86051
0.124624886,71.33891
0.17112453,73.62181
0.2124106,73.90659
0.23264158,72.16775
0.34180865,75.24869
0.4994144,77.324974
0.5527117,75.53614
0.635316,75.10265
0.73736596,85.23066
0.8111338,84.316154
0.95020497,82.99684
0.99232066,80.948105
1.0209146,86.36454
1.0944588,86.95056
1.2116125,87.36341
1.2230256,90.97422
1.2199774,89.74543
1.223094,87.8702
1.3638958,92.965546
1.2916613,94.24637
1.3153546,89.22928
1.4235317,95.351036
1.3945426,96.77693
1.3772446,93.081665
1.3582422,93.06443
1.4645106,96.17063
1.3743681,95.23682
1.4286906,99.359856
1.4242933,96.41368
1.3509352,97.6364
1.2483954,95.65177
1.3136551,95.69911
1.2829341,94.880005
1.259557,96.521866
1.2055854,93.27048
1.290913,98.92574
1.1845815,96.35292
1.1720626,94.00634
1.1540442,93.88454
1.0896999,95.24813
1.0263871,92.242836
0.9558751,94.62936
1.003613,92.68383
0.9836318,91.66496
0.94948894,87.12133
0.95419496,85.57165
0.9970159,87.932106
0.97815096,88.29238
0.9651545,84.9976
0.9231659,83.10985
1.0574718,88.93612
0.91957676,83.28725
0.87774915,84.58551
0.8718422,80.667816
0.8642534,77.90581
0.88422275,83.20779
0.7711377,84.22006
0.7565781,81.87356
0.7811832,81.86326
0.70222527,80.327644
0.6505491,85.38947
0.60694516,82.44855
0.6601939,74.5445
0.6187447,77.15372
0.5903057,77.36355
0.4820027,78.33105
0.4841089,77.106575
0.46454114,72.207115
0.32228878,73.04442
0.44921857,77.60684
0.32872802,71.120995
0.30236754,72.6292
0.34450483,73.86126
0.4084615,68.93368
0.3823104,76.7008
0.25160396,69.936
0.42180777,66.63583
0.34447846,69.62079
0.37095258,68.796585
0.4086274,66.16632
0.30600372,67.954605
0.28815845,64.16942
0.42264527,64.5676
0.20898274,65.74996
0.20332976,67.40305
0.19946533,65.614365
0.15490636,63.11064
0.19847637,61.752293
0.17800988,59.802395
0.03475941,72.58551
0.028925229,66.51134
0.08481051,70.054405
-0.07756532,63.789284
0.08138624,66.55717
-0.10681827,68.29141
-0.031943012,67.962166
0.012875593,65.47153
0.071159735,68.47669
0.119468525,70.05092
0.18424904,71.65113
0.21662198,69.18032
0.24890141,76.291245
0.32179034,72.68643
0.3344213,72.63458
0.5374206,76.733536
0.620862,79.35516
0.686177,76.311134
0.84555805,79.42648
0.8576572,79.56346
0.93304634,85.07582
0.85972285,79.63908
1.0998101,88.00575
1.1678848,86.629654
1.2076895,84.36631
1.2771592,85.03547
1.20059,91.67853
1.3461609,86.462776
1.347621,92.92562
1.353228,89.65888
1.4844108,94.68212
1.4668602,92.411575
1.3960497,94.89968
1.5413373,93.31816
1.518755,92.6811
1.4149122,96.878006
1.4664477,98.41102
1.5450342,97.49863
1.4836465,92.35381
1.4337375,96.653786
1.3920226,97.72075
1.4857244,93.862274
1.386334,92.35796
1.3419179,95.909706
1.3885536,96.949646
1.3972282,94.35142
1.3536564,90.94468
1.2490982,94.093285
1.2115493,87.29816
1.322352,93.51833
1.2879583,92.01465
1.1695927,89.91834
1.2190943,89.75084
1.1076157,93.68082
1.1224208,89.917854
1.002946,87.16821
1.1215563,88.04966
1.0831832,88.5072
1.1272876,85.186676
1.0841019,88.698555
1.0861746,85.11844
1.0714303,86.880844
1.1082017,84.56499
1.139583,82.211975
1.0499905,82.09534
0.96864325,79.39412
0.8761031,84.47388
1.0274864,82.26344
0.91611546,85.131165
0.90661544,79.238686
0.8263711,77.03478
0.88660717,77.659386
0.85797495,77.287056
0.88943565,77.803665
0.74012375,72.96165
0.70242393,74.926674
0.7914134,76.85129
0.7064107,73.3845
0.72060674,73.4292
0.6502862,76.86753
0.58826625,71.52972
0.59566313,73.899536
0.56031406,73.026215
0.68428856,68.727455
0.6217154,75.182655
0.6089821,66.50066
0.5883939,74.13884
0.6403531,66.09094
0.6528328,64.460594
0.6230918,64.9501
0.56433815,64.59711
0.53779113,67.54282
0.5048767,63.558975
0.5620478,67.0522
0.5681439,62.12236
0.59600174,66.84719
0.5448332,64.59179
0.4053269,64.016846
0.40294006,66.90938
0.391289,66.900215
0.3443882,63.392525
0.4114567,67.64851
0.1946917,65.729095
0.25032112,68.44851
0.20728996,72.0341
0.29470688,68.44601
0.3809963,69.280205
0.34676257,70.7727
0.38039404,69.7009
0.4268183,76.70933
0.499571,73.24684
0.62642187,76.56214
0.7817917,67.27499
0.72130674,74.30202
0.89171636,79.21372
0.93038666,78.19017
1.0795957,75.85433
1.1325887,78.69267
1.1633232,84.79398
1.3538237,84.02773
1.4407734,84.07395
1.3885902,79.37478
1.441435,85.86482
1.6427851,85.567894
1.5589523,85.28548
1.626396,93.360504
1.6584693,89.62482
1.7132152,87.131805
1.7008774,90.57866
1.7014265,93.44789
1.7546984,93.98016
1.816571,87.7958
1.7299895,91.11443
1.8430327,93.93541
1.7877647,94.55964
1.8607397,96.37056
1.8490274,97.27252
1.9269015,96.670235
1.7614523,95.20924
1.7432706,96.620346
1.7829385,99.553635
1.6575204,97.7736
1.6548066,95.62446
1.7153128,96.905136
1.7395371,91.97475
1.6141524,93.81373
1.7119114,91.35235
1.609594,88.6325
1.5808653,93.66458
1.6490633,94.07014
1.6488254,94.146706
1.4470521,82.45813
1.3185502,87.40279
1.463555,84.54005
1.4682997,87.84165
1.3787616,92.839874
1.4654781,87.93964
1.4005699,84.80803
1.462979,87.310326
1.4549094,82.979935
1.5421838,82.72146
1.4979491,87.61297
1.324525,82.91923
1.3841028,83.024
1.3724295,84.242065
1.3409501,80.08007
1.2701546,78.88438
1.2673372,80.337456
1.2390834,77.61492
1.1963464,77.471664
1.1012765,77.396736
1.0944668,78.739975
1.0936424,74.44874
1.0444134,75.15036
1.0339869,76.31661
1.0832434,74.81382
0.9513646,77.74369
0.9467083,75.74703
0.89919704,76.435234
0.91955,69.04263
0.91123575,70.54335
0.92065126,73.87212
0.79452527,69.48242
0.8994395,70.28438
0.8946863,72.31567
0.91897637,62.531803
0.91327393,68.87092
0.87971586,68.00438
0.8468341,64.182
0.8759912,67.99313
0.79906344,71.73652
0.83585954,69.41625
0.86604315,65.54464
0.8155853,64.936806
0.709238,65.77257
0.81208515,65.688255
0.7021858,63.016567
0.636638,65.21459
0.61205816,69.25726
0.6027754,65.78937
0.5784676,67.106064
0.48152062,69.755226
0.5641845,65.80233
0.5769801,71.62795
0.55642766,63.17845
0.5903904,72.96038
0.6032859,69.642105
0.58915716,71.406525
0.76561755,71.3405
0.8160102,76.190636
0.72683716,75.96344
0.9643022,75.95211
0.9772789,73.05542
1.0521421,73.295944
1.1420584,77.21102
1.1540346,79.570244
1.3897516,82.9514
1.4298204,81.160194
1.5114107,79.02066
1.5698048,84.15935
1.6258725,82.83745
1.75443,84.879486
1.8122288,88.09228
1.8668144,91.77508
1.9099166,89.13445
1.865759,92.0341
1.8624902,93.76102
1.989393,89.9708
1.9147106,91.699005
2.011588,90.27062
1.9135556,94.360016
1.9489534,94.697495
2.0059257,92.45266
1.9542892,94.441734
1.9188622,97.41207
1.9857762,98.10686
1.9278756,96.750275
1.9602138,95.29426
1.9727794,99.240746
1.8105812,97.02066
1.9094923,95.23416
1.7595838,96.13298
1.8577774,90.624245
1.8022776,92.99681
1.7050635,94.3388
1.6490799,94.07384
1.6608918,91.75542
1.6808023,96.229454
1.6274669,93.93335
1.5705606,92.013145
1.5175256,91.31203
1.5674534,88.35246
1.5898277,89.12703
1.457359,89.53812
1.5331329,87.9066
1.4041905,87.10485
1.5486714,83.47719
1.5269103,87.381065
1.3963931,86.833954
1.4798267,87.848434
1.4404622,83.55849
1.436682,84.22635
1.3700899,83.80683
1.3799609,80.45497
1.3741091,81.36704
1.3257326,77.63432
1.3481101,82.565765
1.2341189,83.50526
1.1028572,77.356636
1.078302,75.85484
1.0839187,77.616875
1.1432958,75.01488
1.0842503,69.82872
1.0018802,72.420074
1.0087019,69.78553
0.9726833,66.28689
0.8881308,73.030716
0.8007875,70.772484
0.7903332,73.00732
0.8374968,70.17975
0.785847,68.96116
0.74624974,68.03001
0.8228236,70.35642
0.8295078,69.265854
0.83151746,67.045166
0.84564817,66.187126
0.7533521,67.84266
0.8134434,68.33953
0.8173469,66.64543
0.7010816,69.14658
0.8078522,65.521385
0.6425587,62.308342
0.60118765,64.18002
0.5383022,62.448166
0.57935035,62.384796
0.4783097,68.53647
0.49803716,64.948006
0.5384237,63.253063
0.42760003,71.27188
0.36535507,68.628525
0.3518274,66.28169
0.38363597,74.31738
0.36504602,65.83513
0.42744663,66.38226
0.44680816,68.00317
0.50799286,71.87701
0.5591233,73.89547
0.6096172,75.566414
0.574424,71.21602
0.6334922,74.34682
0.6447065,73.59486
0.80247474,72.47086
0.92525965,79.34258
1.092584,80.41358
1.1180629,81.49141
1.2274499,81.77793
1.2650175,84.37297
1.328831,82.93047
1.3617855,77.96926
1.4653054,86.61232
1.5547639,86.02727
1.4949685,85.69899
1.6121665,87.64498
1.6776267,89.321205
1.7149864,87.932076
1.7315652,87.435356
1.6972091,92.394066
1.6843239,94.29252
1.7551696,92.39192
1.71431,96.43408
1.748182,94.29752
1.645056,92.81601
1.6675212,96.21306
1.6812558,97.81235
1.7122612,96.640335
1.6702347,95.33897
1.6127437,99.72102
1.63314,96.42339
1.57535,99.853386
1.5528326,96.1443
1.5894872,97.78085
1.4910859,90.60527
1.475423,97.09599
1.4229198,94.44563
1.3990809,92.19413
1.4151192,93.54665
1.3185353,88.5389
1.3362247,87.36538
1.2493001,90.9467
1.2491461,89.88608
1.1035872,89.45794
1.268121,94.33837
1.2061818,86.77363
1.1966988,86.19556
1.2007711,89.90248
1.1103306,85.49545
1.1178855,85.844765
1.15967,88.5779
1.1563778,82.4971
1.1018691,86.70065
0.9135596,85.87674
1.0890135,79.53931
1.0615301,82.84622
0.993426,83.667496
0.9235468,80.85254
0.9835927,75.00404
0.99195886,84.92869
0.8851117,80.43279
0.8594302,80.44839
0.69436675,79.99796
0.78327185,79.85283
0.5690274,81.08699
0.61638856,76.151024
0.66457736,77.69315
0.60331464,71.34255
0.5069937,73.99564
0.56084824,77.15625
0.57585436,71.54085
0.48259443,70.82845
0.54493946,73.234566
0.51901406,70.61201
0.53125584,69.11108
0.41951776,71.5513
0.4573875,64.99541
0.562429,67.86302
0.5792545,65.90859
0.47805893,66.9475
0.3919901,65.02625
0.44007272,68.53721
0.39106372,62.907223
0.3291405,60.591248
0.29160613,68.31407
0.22312652,65.13298
0.2417362,64.66781
0.18766594,64.827515
0.074209064,64.44507
0.10072279,67.23872
0.11553278,67.35484
0.057378113,66.46631
0.019254545,72.951416
0.04174727,65.65617
0.079649985,73.82651
0.01245878,68.18385
0.13034244,68.40118
0.107215986,72.48399
0.28576234,68.55167
0.20697682,72.65304
0.31824154,73.197044
0.40717158,75.108406
0.44842556,77.526344
0.56600624,82.10594
0.62530184,80.098656
0.7051584,81.168465
0.7820197,78.74992
0.8610879,83.59912
0.9535893,85.4896
0.9195359,80.57819
1.0896529,89.62761
1.1884959,83.7194
1.1894258,89.22498
1.2151947,87.27702
1.2250565,86.32817
1.3601743,88.4105
1.2583177,91.233055
1.3832961,95.701546
1.2915362,98.32988
1.357428,92.41196
1.4613879,101.10329
1.4611897,92.73751
1.380508,93.84264
1.4324821,95.57045
1.4217415,98.06824
1.4391629,95.2976
1.2515258,94.46486
1.4087993,101.10454
1.3574616,91.72918
1.3349525,95.390945
1.3175379,96.54219
1.1568329,94.44169
1.2075832,95.986694
1.1397765,93.47306
1.1185318,94.764885
1.1805563,93.70335
1.0595075,93.23109
1.174637,93.83898
1.0563579,91.10107
1.0320054,93.721855
1.0293885,88.5454
0.95479935,93.5863
0.9483421,92.86046
0.9341086,91.56182
0.92350256,90.65559
0.9588968,89.753235
0.9183987,89.74029
0.8969385,85.6744
0.83513856,85.702156
0.90553975,84.09317
0.89690775,84.10533
0.76956177,85.93346
0.87779444,85.50443
0.83721346,85.88876
0.6782518,80.84421
0.7134811,79.6143
0.81332785,80.74063
0.76181835,79.10697
0.6848262,79.00092
0.6358274,78.62553
0.5350418,81.58604
0.58755517,76.955536
0.4437208,78.15845
0.47268078,77.27681
0.48672426,75.991135
0.40557975,71.06611
0.5034503,77.71716
0.44774655,72.68888
0.32358947,71.00085
0.38188854,73.28265
0.42895275,71.26543
0.30184874,67.5233
0.32151085,69.529396
0.38701057,68.64869
0.31938332,67.82085
0.39729714,75.20597
0.23852012,70.72419
0.30005285,63.604935
0.3445553,68.64251
0.29179525,65.34737
0.28639656,61.2429
0.37521943,63.56952
0.18595909,61.78927
0.16105463,63.58044
0.18057081,67.64635
0.13426495,63.459713
0.03362555,68.198814
-0.046157975,60.792763
-0.019120911,68.93788
-0.022951929,68.5698
0.01449922,65.873856
-0.027955864,64.18149
-0.0877106,73.41218
0.0029325532,70.864876
-0.0014021067,69.4961
-0.054665778,73.3965
0.14330065,72.23491
0.1388206,68.856384
0.2511098,73.468155
0.24675843,76.90556
0.30402368,77.75812
0.43460068,76.0806
0.4985838,75.548706
0.6414471,77.04579
0.63733274,78.45906
0.77216184,85.050064
0.89093256,82.8619
0.8660991,81.904564
1.0640987,83.18531
1.0840191,82.769585
1.1319928,84.37168
1.1391611,86.742355
1.292049,84.123474
1.2257668,90.57451
1.1618613,88.295456
1.3710128,90.05113
1.3422894,94.54852
1.4506761,92.751114
1.4291773,94.103836
1.4046264,94.66627
1.4114207,98.908646
1.5555787,94.64707
1.4329951,95.93375
1.5048884,93.22172
1.5190969,95.183945
1.4422832,99.46106
1.4835643,97.425934
1.3458242,97.37478
1.4678999,91.83809
1.284124,93.3592
1.3672338,91.96499
1.3767182,96.55731
1.3016123,93.46322
1.3533819,93.9571
1.3343122,90.95181
1.1110693,87.57345
1.172984,93.37442
1.1206018,95.282776
1.0839424,88.00919
1.0985363,89.913864
1.0631098,88.98654
1.0564946,89.7716
1.0717461,84.425026
1.0751002,93.56067
1.1074321,88.17636
1.0605291,82.90695
1.0568641,82.94733
1.0582815,87.77293
1.0608845,86.54471
0.9628649,84.53844
0.95203346,81.55927
1.0180348,81.74194
0.9167911,85.79228
0.9274124,82.10434
0.90003854,86.399796
1.063763,79.22478
0.8336614,78.18937
0.91999793,78.695496
0.8041861,81.51134
0.8141392,80.99198
0.7663653,82.14173
0.70324063,77.25136
0.6771008,73.93575
0.760179,74.64474
0.52968067,74.1468
0.5461119,71.3634
0.60326624,73.42009
0.6209825,75.357254
0.5477882,72.05008
0.56015116,68.39059
0.6009989,70.754814
0.52045715,65.52179
0.57360053,67.67358
0.60290056,67.3874
0.63020974,65.491
0.5085703,69.26167
0.5796877,67.91644
0.51842844,66.67733
0.47478247,68.84234
0.55082893,66.691574
0.51235664,68.39807
0.4324851,63.8176
0.49494043,63.830513
0.4009516,67.466736
0.33756843,64.10754
0.35795745,68.83415
0.31277204,65.594826
0.34537512,66.1377
0.31450543,65.658775
0.270255,67.9081
0.23680247,65.90701
0.36018333,64.20466
0.31179944,66.880486
0.26567888,67.41739
0.4819116,69.258965
0.3465666,70.494354
0.5517685,74.331314
0.50088435,70.635956
0.6706718,72.80456
0.7132391,73.95535
0.7969153,75.74187
0.93222165,79.39412
0.96465284,78.66728
1.0631461,81.47293
1.2004491,78.73341
1.2391925,82.7545
1.3202728,86.57928
1.3397614,89.071976
1.4736848,90.86836
1.4251838,84.470345
1.5904161,91.9313
1.486803,92.43258
1.666024,88.544495
1.6193241,87.38625
1.6984661,90.7622
1.7786746,91.38302
1.6789653,102.55853
1.8175126,92.676796
1.7901608,97.33396
1.8263825,97.11658
1.7912166,95.48571
1.829285,96.49671
1.8490344,97.857475
1.7544911,96.815414
1.8865974,98.61116
1.7510607,93.76348
1.753142,94.69813
1.6747426,97.984726
1.705714,93.68751
1.8116969,92.05978
1.6465138,95.04006
1.7232432,93.99476
1.6836882,94.10219
1.5647063,89.38385
1.613686,95.55703
1.5373974,89.89369
1.4379137,96.65381
1.4924381,89.665535
1.4104488,86.1144
1.4639198,87.08905
1.4084398,90.07966
1.4320427,86.20807
1.4126889,90.60348
1.3980145,86.564896
1.3760834,88.13941
1.4175192,82.35406
1.3588054,79.091934
1.4501965,84.10756
1.3960277,83.25388
1.3814532,85.8159
1.3190064,82.99538
1.2825444,83.63509
1.310362,80.932175
1.1908505,81.651405
1.2057664,76.36
1.2253689,80.36463
1.1977305,83.97195
1.167025,81.69491
1.166563,78.39162
1.0498043,76.793335
1.1880637,73.3713
1.0531069,80.15355
1.0307155,75.25364
0.973795,76.906876
0.99282575,75.48151
0.9908111,70.675064
0.84657764,71.01465
0.8437809,73.68761
0.9457703,70.575356
0.9205992,68.8787
0.9034098,72.40303
0.8802953,65.04335
0.85144246,68.59127
0.9793987,72.39728
0.87928045,68.74259
0.87397724,65.520294
0.8732377,68.25687
0.89420617,68.069664
0.7247663,65.16922
0.7860315,65.551445
0.7167546,68.10508
0.714321,64.73302
0.70420295,64.36799
0.61578774,65.07442
0.67140305,63.84582
0.6073688,65.863655
0.5611529,69.383194
0.5826301,64.78807
0.64075583,69.19825
0.52178764,64.54748
0.49412104,69.29621
0.568469,73.13106
0.48438245,70.55076
0.67971855,65.6597
0.76638633,67.81001
0.7759015,69.4828
0.83212674,75.10542
0.84251434,74.453
0.95185,78.31827
1.1385703,77.89207
1.1050519,78.72155
1.2661518,76.80078
1.2713575,79.06898
1.3432364,83.78439
1.4038876,78.98686
1.4802651,84.721565
1.649411,88.20137
1.6168652,86.59501
1.7258956,86.4732
1.7868712,90.62514
1.8225834,89.31993
1.7547618,86.91601
1.8186724,88.97939
1.8327565,96.46936
1.9508077,88.96581
1.8440914,95.26323
1.9294674,93.02851
2.0223644,93.69924
2.0166793,92.73763
1.9042474,96.11298
1.8837057,98.41029
1.9849147,97.395805
1.881869,95.73906
1.9460138,95.57668
1.9236194,98.06984
1.9047832,90.12187
1.8894117,95.32975
1.8418554,95.20117
1.8085754,92.00985
1.8199273,94.81116
1.7827466,97.04534
1.6873102,91.57228
1.5961417,91.61326
1.6846588,92.97675
1.6343329,95.29524
1.588492,92.85267
1.6750313,91.03673
1.6601554,88.86042
1.6268488,93.11397
1.4752913,92.46363
1.4514537,90.40086
1.4625556,87.95773
1.5386711,87.186035
1.4934942,90.2539
1.4483035,87.98736
1.4329282,84.51131
1.500392,87.38471
1.4172832,80.7235
1.4042283,85.36251
1.4496394,84.24117
1.3960454,80.37279
1.364176,80.05769
1.3134127,77.5607
1.2855496,82.48435
1.2333872,83.71295
1.0469157,77.502655
1.1734613,75.35985
1.1196847,77.33887
1.0389136,75.861465
1.1084551,78.623604
0.9709736,74.87282
0.9136746,74.68899
0.9903943,72.87786
0.8813097,74.73722
0.8969773,70.95686
0.95330524,70.38396
0.8261045,71.0174
0.91304344,71.11708
0.8738745,67.491486
0.8459992,70.96811
0.8647236,67.49181
0.8036715,70.55028
0.76177436,70.64185
0.81361663,63.99113
0.8262093,66.37892
0.75441337,67.18038
0.80269927,65.13426
0.84635246,61.51456
