ppg,abp
1.0635748,87.61765
1.1429716,92.057144
1.2145253,96.014656
1.3696125,104.2736
1.3369024,108.61796
1.4659572,109.69093
1.5080698,110.821304
1.5570928,117.12104
1.5958959,118.47624
1.6593206,128.46188
1.6555154,129.86104
1.6476345,131.52081
1.6242741,134.66635
1.7009039,135.71158
1.7340037,141.41457
1.7479081,140.18117
1.734372,142.93863
1.742421,145.00839
1.719625,140.8032
1.728639,149.33109
1.8159137,141.60703
1.6375155,141.01282
1.6937015,145.27852
1.5800762,144.7679
1.5939114,140.82793
1.576434,144.03749
1.5894715,136.94836
1.564327,136.94115
1.5766857,137.68326
1.5005512,133.43279
1.5464504,129.77037
1.4839846,132.51414
1.4251132,128.96783
1.42808,124.29132
1.3742952,120.93086
1.3990339,122.20243
1.3172137,115.31033
1.3415501,117.82196
1.3016725,113.15768
1.3112222,107.58394
1.3330051,105.76607
1.336986,106.21397
1.3746322,101.15751
1.378599,99.37178
1.3535839,100.89094
1.3835254,92.34237
1.3196194,92.236595
1.2570198,85.86692
1.273162,89.885475
1.1851112,84.52192
1.2223351,82.990265
1.0766653,80.245605
1.167557,77.328735
1.1180472,75.75425
0.9255857,74.3227
1.003994,66.23126
0.964898,70.927826
0.9369203,63.837013
0.8946202,62.07661
0.8039101,57.833992
0.9001012,56.22189
0.82611215,57.655685
0.9043817,51.756462
0.7953341,47.423378
0.78362024,51.122883
0.8694592,44.254597
0.8220143,47.374695
0.8505398,41.687416
0.82249767,41.859684
0.8195664,40.0
0.7919312,40.0
0.79504585,40.0
0.8446253,40.0
0.76059085,40.0
0.77714854,40.0
0.68247086,40.0
0.72897446,40.0
0.5949909,40.0
0.59475404,40.0
0.6055536,40.0
0.55126935,40.0
0.5321586,40.0
0.46122056,40.0
0.4086328,40.428852
0.52488023,41.083374
0.5757443,43.790947
0.5217405,44.656715
0.61399066,52.451817
0.6513002,51.104992
0.77780885,59.614407
0.81107926,58.72765
0.86141753,60.588844
0.9713892,67.08505
1.0512642,77.69445
1.1459451,76.34907
1.1713908,86.52054
1.3765997,87.5401
1.3895743,89.81589
1.4916335,99.66395
1.5637126,100.22729
1.6287988,100.86626
1.6263418,104.29115
1.7367055,114.19167
1.8364102,117.193634
1.7983942,124.61246
1.8513467,124.0694
1.9227108,129.80244
1.9043802,134.017
1.9419261,132.06897
1.9425747,138.18423
1.9767672,138.7573
2.034055,140.58371
1.9228817,143.73691
1.9559047,137.76456
1.9500363,145.28989
1.9892384,142.93858
1.8981699,146.23006
1.8990653,145.78781
1.8918498,145.98875
1.9609686,140.17299
1.9183029,145.36662
1.8219018,143.88562
1.8172997,135.30788
1.7790407,141.96834
1.7275051,133.18282
1.7461073,135.41187
1.6280851,134.06297
1.6649637,131.41737
1.5789421,131.33745
1.5668988,125.44758
1.5135963,124.8438
1.6090418,124.96345
1.510051,121.2658
1.5107198,118.85152
1.5485954,117.395935
1.461985,114.80977
1.5946167,109.85472
1.4771554,102.38473
1.4956475,101.00679
1.4233193,100.59233
1.399075,100.36483
1.4449404,95.07373
1.3870527,94.241
1.3449044,91.471794
1.3749421,88.93763
1.3412687,89.112625
1.2426403,85.584854
1.2930138,79.58965
1.1776123,74.93553
1.1421936,78.717
1.0098869,73.56845
1.0048858,69.58734
1.0717168,67.77618
0.9186124,65.63259
0.9731216,64.31102
0.91241515,60.676937
0.92395955,58.876728
0.94972277,50.666283
0.99464256,50.81917
0.9429306,49.725006
0.8947674,47.793594
0.88973725,45.97478
0.8182918,44.706238
0.9658832,41.015278
0.82971376,40.0
0.8799708,40.0
0.8602698,40.0
0.8278508,40.0
0.8517491,40.0
0.69598156,40.0
0.70035136,40.0
0.66288704,40.0
0.6386566,40.0
0.6009571,40.0
0.5928402,40.0
0.5610559,40.0
0.4875777,40.0
0.56817216,40.0
0.38018852,40.0
0.44894642,41.50902
0.49187297,40.0
0.47776052,44.99361
0.51347417,43.256172
0.5442295,49.850132
0.5668007,52.62799
0.5485004,52.598923
0.6708476,58.467754
0.79584527,62.349983
0.83909327,70.110634
0.9463592,74.168144
1.0723296,75.70241
1.1288103,79.66659
1.2391382,88.29464
1.3241522,88.91111
1.3312509,89.50887
1.3632283,100.92622
1.542848,103.97383
1.5499642,107.76004
1.6401813,115.541534
1.5738915,116.45036
1.7214628,120.735664
1.7361884,128.29086
1.7571065,128.18811
1.7727413,127.5604
1.8122326,135.54941
1.7106673,132.24472
1.811817,138.14308
1.7951077,141.48473
1.8549958,143.03719
1.8021078,144.63692
1.8033723,145.12546
1.830328,142.95174
1.7638322,145.15977
1.7080922,148.33192
1.6968066,145.64636
1.6701851,144.76216
1.641174,141.05415
1.6564175,136.63979
1.6241977,141.80528
1.5691193,140.19675
1.6220251,137.6545
1.5399777,133.55518
1.4968696,129.54816
1.465504,128.3228
1.3939574,129.87607
1.3805077,128.28162
1.3921167,122.84818
1.2659636,124.408615
1.3150272,118.71347
1.3323152,116.20375
1.2774775,114.04621
1.2515821,110.0412
1.2698817,105.59767
1.2645019,105.68512
1.2694534,102.07904
1.2781957,98.73853
1.1603717,96.86131
1.1125659,96.16175
1.1937832,92.26445
1.1119083,90.140114
1.1189394,86.620514
1.1123856,86.28512
1.0279267,84.83024
0.9912121,82.10871
0.954305,80.43299
0.8466191,72.259834
0.8096977,78.557304
0.82646406,74.99219
0.8000668,67.83783
0.7443006,64.336426
0.5733554,62.332996
0.7138589,63.772377
0.66315836,54.622005
0.6500344,52.982594
0.5871061,57.785427
0.6179311,51.149773
0.6278193,48.70628
0.6322005,44.302452
0.622755,46.75835
0.60292697,40.0
0.58318913,42.28638
0.5556849,40.0
0.5781663,40.0
0.55708396,40.0
0.48375374,40.0
0.4543479,40.0
0.4248406,40.0
0.34156972,40.0
0.39329425,40.0
0.34400123,40.0
0.2440442,40.0
0.20433567,40.0
0.19654019,40.0
0.16459374,40.0
0.19666222,40.0
0.18670543,40.0
0.14282854,40.0
0.22488388,42.083668
0.17544678,45.8589
0.20754588,46.58085
0.21534124,50.764267
0.3928583,53.731632
0.4054962,58.98791
0.43450713,65.553734
0.55653894,62.930492
0.5957844,69.89572
0.64443624,74.969345
0.7287869,85.926735
0.85564154,87.37766
0.9488733,89.194626
1.036183,99.45506
1.0270232,102.682655
1.1578407,107.61091
1.2981564,111.88828
1.2623385,116.20816
1.310458,119.060036
1.3674859,118.81949
1.4427682,123.56955
1.4986225,127.690186
1.4955537,128.93585
1.4211057,133.3133
1.4354281,137.60385
1.4610733,135.31407
1.4303339,143.06178
1.4419336,140.79901
1.4745969,140.98705
1.5249408,145.19446
1.4279189,141.1978
1.474029,143.36877
1.3468543,142.86285
1.4411622,141.29063
1.2983934,144.38002
1.3837191,142.25548
1.2868029,145.20122
1.326563,141.84879
1.2489175,143.17256
1.1339611,138.66667
1.1577147,135.17487
1.1904272,132.82527
1.134952,128.57481
1.1542017,126.92708
1.1342229,124.74084
0.98253566,124.68539
0.9945938,118.685745
1.0194999,120.55449
1.0287158,116.05581
0.9974647,119.70054
0.9271229,114.46841
0.98568696,105.30454
0.9590834,104.615944
0.92643696,104.08104
0.9321222,104.32183
0.89021224,96.96383
0.90183765,96.832726
0.7991186,93.33054
0.7376631,85.938736
0.8573374,87.56937
0.7443336,86.843376
0.7356692,85.21097
0.7171041,83.451
0.71058524,79.92404
0.5623856,74.49686
0.533705,75.32971
0.62181544,69.18714
0.4860686,71.013626
0.45695034,67.45186
0.46614644,63.8561
0.39265135,62.255146
0.32825333,57.17685
0.4143018,50.461998
0.33924592,52.59101
0.31385085,48.89266
0.42010188,45.374683
0.3849427,45.048065
0.3234223,45.420433
0.39307192,43.393692
0.34662813,42.82593
0.2976194,40.0
0.22589003,40.0
0.26492578,40.0
0.27843633,40.0
0.24530391,40.0
0.15952897,40.0
0.2479364,40.0
0.08805623,40.0
0.056464307,40.0
0.029263064,40.0
0.034135338,40.0
-0.005702344,40.0
-0.11464435,40.0
-0.07577746,40.0
-0.04440336,40.0
-0.105209,42.325386
-0.07994357,46.242702
-0.011311557,45.97997
0.10068529,50.11198
-0.009094846,48.07876
0.14065188,53.69145
0.18739492,57.29759
0.28210056,67.50057
0.34984484,64.058304
0.4294971,68.634544
0.48781207,74.5753
0.5607358,78.2681
0.6929568,84.21337
0.81826854,87.201416
0.8281141,97.45203
0.9331711,100.2934
1.0128679,104.2323
1.0509027,105.95321
1.0817577,113.70126
1.1767808,117.550316
1.2582269,125.0166
1.2853968,121.078575
1.3258431,127.58586
1.3692814,130.90678
1.3727343,133.08185
1.3289871,137.9797
1.4066026,137.33563
1.3612511,143.26978
1.3812537,142.17244
1.3741688,146.35251
1.4000868,143.80162
1.4120724,144.58922
1.395141,147.49123
1.368023,143.85728
1.3316296,145.03447
1.2795458,144.70833
1.2614423,142.33238
1.2238015,142.59604
1.1962599,142.11429
1.2459042,141.04454
1.2234918,142.88397
1.1369698,136.84189
1.1143281,135.50333
1.080044,131.48485
1.0625775,129.98297
1.0569998,128.91148
1.0313694,122.92586
1.0216608,123.91377
1.0631659,118.98989
1.0127507,114.16082
0.9045729,113.214775
0.9678041,112.7548
1.0562578,109.66999
0.9805174,109.805534
0.9987333,99.28506
0.91831905,107.45404
0.90554,100.5988
0.93534493,95.95709
0.93055457,93.62854
0.918947,89.9691
0.87235117,84.9751
0.8048798,87.32426
0.7876981,83.71885
0.7465833,83.186485
0.7010129,75.32283
0.7177076,76.451324
0.63508487,71.855545
0.62440515,67.43123
0.5452575,70.189026
0.5482906,69.44318
0.482779,63.480953
0.43226814,63.226856
0.4624387,57.650997
0.43568668,54.42916
0.39443132,55.64192
0.3728105,51.75509
0.5150099,52.228966
0.4209223,47.28871
0.46042326,49.113155
0.5015763,40.0
0.40408936,40.0
0.42242336,40.245953
0.4213119,40.0
0.4233987,40.0
0.37398487,40.0
0.34948984,40.0
0.28824162,40.0
0.31445378,40.0
0.28269723,40.0
0.2589342,40.0
0.27651083,40.0
0.16226557,40.0
0.19113663,40.0
0.15390612,40.0
0.15834942,40.0
0.13325725,40.0
0.1726713,43.303947
0.18218346,40.0
0.1856893,41.93368
0.2231604,48.60393
0.27918148,47.110348
0.24179575,49.653664
0.35978454,56.531082
0.43416008,63.235046
0.5194744,65.50376
0.68482065,71.291885
0.72900856,73.540764
0.8122658,77.912384
0.87840605,82.8946
0.96923566,87.34593
1.0997409,91.90675
1.2371374,99.02582
1.2287222,104.70592
1.2801853,104.39641
1.3789214,114.275734
1.476687,117.96028
1.4746128,118.096985
1.5451617,126.297646
1.633435,125.729324
1.5661138,131.8325
1.6295061,129.44725
1.644735,133.71503
1.664125,141.3312
1.6143686,141.3714
1.6838818,145.32869
1.6460822,144.94518
1.7153375,140.77007
1.6676271,145.94263
1.6368742,143.93631
1.6808332,142.18718
1.5802381,143.93895
1.6120275,145.00618
1.5878958,145.59811
1.6259631,143.4149
1.5503706,145.3401
1.5290879,136.6376
1.4710808,140.06914
1.4630421,136.49432
1.4277833,130.90836
1.426335,132.51514
1.3883426,128.80074
1.3646393,130.91302
1.3370447,128.29323
1.3557813,124.47643
1.3243753,124.373604
1.3504094,115.537056
1.2802734,118.940704
1.2718121,110.33129
1.2660161,107.23097
1.2065564,104.341194
1.3270327,105.68757
1.2663043,101.60808
1.2714093,105.896935
1.2251899,102.0751
1.2341074,96.88245
1.216843,96.96688
1.1374388,86.93961
1.0949433,87.221695
1.1629567,86.40252
1.065389,85.5726
1.0517248,77.30594
1.0112069,77.724976
1.0471258,75.860855
0.9584784,70.17417
0.9460736,68.38396
0.8751426,68.32114
0.8284097,62.85919
0.7923219,61.7429
0.7987403,58.825935
0.8335286,56.10639
0.6548732,49.6406
0.7654073,50.58238
0.8210145,48.333073
0.75252354,51.09413
0.79325765,41.81025
0.7670304,40.305874
0.8252126,45.899063
0.78508574,42.0388
0.7934248,40.0
0.7478101,40.0
0.7646053,40.0
0.6648473,40.0
0.6681843,40.0
0.6871111,40.0
0.6677027,40.0
0.6617822,40.0
0.5950092,40.0
0.5081587,40.0
0.53570956,40.0
0.5390182,40.0
0.4237588,40.0
0.5198833,40.0
0.42161667,40.518322
0.48811263,40.0
0.4875793,41.28772
0.4640054,44.52057
0.60336953,49.22024
0.6562919,54.714584
0.694299,53.466705
0.8505249,60.99852
0.8601336,65.97165
0.9674551,69.22608
1.0134437,75.2315
1.1414881,79.49366
1.3013647,83.24372
1.3774116,87.419495
1.3937839,92.62154
1.4083489,101.23174
1.5384408,101.4489
1.643647,106.98228
1.7188115,111.21899
1.7098372,117.04797
1.7111735,120.48069
1.8014454,124.82978
1.7923985,129.21808
1.8871508,127.507286
1.8783381,131.08675
1.8873445,140.94046
1.9144223,137.90933
1.9378271,136.04277
1.9601693,141.87091
1.9073253,139.6943
1.9777176,141.981
1.9260609,138.9379
1.9090945,147.65735
1.8820132,146.85468
1.9283236,144.1964
1.93509,146.81516
1.8279148,144.56827
1.8559601,145.99278
1.8100127,143.4766
1.8485678,139.91582
1.7279814,140.71437
1.7822281,140.66151
1.7003218,135.41576
1.6727808,130.24942
1.6038932,131.59108
1.5574613,125.28061
1.6352928,124.40636
1.6010162,123.39956
1.6182994,123.56845
1.5296519,118.70243
1.4968643,118.87539
1.5204332,110.34576
1.4693364,113.15545
1.4197661,109.882614
1.4773866,109.74399
1.4206988,102.607735
1.4194075,102.261765
1.5276666,96.30618
1.4443588,95.83763
1.3788749,93.18551
1.3113586,91.918335
1.320535,89.36
1.2694776,90.03289
1.2371721,85.775406
1.245114,77.17024
1.1944019,76.08558
1.1313804,73.26873
1.0459003,75.459885
1.0222931,71.110954
1.0352528,66.57684
1.0910769,67.276955
1.0165483,60.31324
1.0194347,61.419186
0.9843734,56.4962
0.94515705,52.430054
0.9264743,52.284874
0.95167184,50.91682
0.9303997,48.727867
0.9440834,44.60161
0.91018975,40.884747
0.9025706,40.0
0.904766,40.0
0.82252574,40.0
0.8081172,40.0
0.86080176,40.0
0.72584856,40.0
0.84346986,40.0
0.7613646,40.0
0.68659264,40.0
0.72663075,40.0
0.6318261,40.0
0.642108,40.0
0.66836464,40.0
0.5228039,40.0
0.50111705,40.0
0.5553923,40.0
0.51296717,41.183956
0.5395465,41.856945
0.50857204,40.00135
0.4534008,45.407627
0.60671675,49.518883
0.7097102,52.11547
0.75962025,54.964447
0.81826985,56.82387
0.76800275,63.454205
0.9200841,68.72149
0.95004916,75.11778
1.1338269,74.71817
1.2417547,81.63933
1.3525196,88.632195
1.4018089,90.48665
1.4847685,94.62597
1.5142244,104.72599
1.5783856,105.38313
1.7008716,111.120895
1.6661501,114.68187
1.7406139,118.538864
1.7395488,120.677635
1.7569414,128.96426
1.8500744,131.22885
1.8982435,132.36575
1.8894114,133.9091
1.8439232,138.14215
1.8705584,135.63937
1.8150896,139.91731
1.8566092,141.73973
1.9116089,139.41847
1.888103,146.2862
1.8141549,142.60141
1.8058437,143.2264
1.8500772,145.3566
1.7869987,143.51378
1.7532934,142.96371
1.7930546,142.14163
1.6958973,143.20425
1.6292907,141.89598
1.6884742,139.76004
1.6295606,133.7122
1.508252,130.86073
1.5806192,132.70494
1.4965845,129.67041
1.4359462,128.68793
1.453371,130.27275
1.4936512,122.39281
1.3746028,123.19094
1.3861494,119.79977
1.3639114,115.07898
1.3438531,114.42966
1.3570158,111.10717
1.3078358,110.705376
1.2727132,108.234795
1.3078581,103.51962
1.2679713,98.32133
1.3122913,96.60901
1.3017702,96.00108
1.1980952,96.23935
1.1047835,90.02034
1.1671329,85.371086
1.208371,85.55735
0.99277437,83.25954
1.1124628,83.13026
1.0299037,77.660934
0.9581559,73.54647
0.9153653,72.398544
0.7986553,66.91406
0.87710285,63.281963
0.8325548,62.487747
0.7472963,63.64044
0.74410206,61.700535
0.75550205,53.87731
0.66796273,55.01069
0.68381596,50.49691
0.7392268,51.85316
0.63900095,44.228287
0.71436745,46.468407
0.7562148,40.799385
0.6752969,40.0
0.642432,40.0
0.6422105,40.0
0.6684789,40.0
0.5848358,40.0
0.5078347,40.0
0.57796425,40.0
0.5407715,40.0
0.5273138,40.0
0.41130474,40.0
0.42954254,40.0
0.27420932,40.0
0.3501694,40.0
0.27952835,40.0
0.21055202,40.0
0.20043412,40.0
0.21240164,40.0
0.2579828,40.0
0.30084202,43.147316
0.29261282,45.36024
0.2615934,52.695698
0.3082875,52.49033
0.36480147,54.62121
0.5031727,63.654327
0.54530334,61.049038
0.60170954,68.18859
0.6937429,70.00846
0.7678378,74.5692
0.84751856,80.31034
0.9483609,86.26473
1.0049257,91.098114
1.1658998,95.04834
1.1869724,94.86698
1.2458154,106.34368
1.3119497,107.90953
1.3872863,117.52602
1.4209496,119.82385
1.4536182,121.52662
1.5233079,123.359085
1.4836681,126.092705
1.4782724,134.38542
1.4878607,132.41455
1.5071894,138.5033
1.555385,139.74898
1.500792,142.00534
1.5444419,144.67303
1.5222709,144.79991
1.5367122,142.33188
1.5416789,143.32747
1.4937737,144.64688
1.5299073,147.52155
1.3919535,141.88379
1.467964,141.0684
1.4481188,141.98846
1.3952078,137.33832
1.3241196,137.60326
1.285759,135.98975
1.2647996,137.43652
1.2951982,136.56548
1.2267702,134.32072
1.1734527,133.30002
1.0996364,127.104614
1.1731942,125.76216
1.1449893,124.48257
1.1382105,123.04835
1.0807865,118.37149
1.1255722,119.72264
1.0711579,114.579254
1.0066946,114.33547
0.98602563,108.979034
0.8999591,107.51484
0.95616394,100.16041
0.94980055,102.4297
0.98473555,95.00608
0.99719536,94.35396
0.87800336,96.33857
0.89463216,89.15051
0.8538176,87.65387
0.77145535,87.046005
0.7825099,83.89479
0.7042317,81.366806
0.70199096,79.791245
0.59654635,74.27036
0.63349825,74.36481
0.5344396,72.05086
0.55289394,73.423
0.5002998,64.01225
0.48818028,61.427532
0.4283142,61.024563
0.3527375,57.09266
0.3981675,58.033566
0.36653826,51.033398
0.3729947,47.84351
0.27100688,45.298874
0.33835003,46.81037
0.32546088,41.815693
0.39132375,40.0
0.38302866,40.0
0.25678882,40.0
0.37205294,40.0
0.27478006,40.0
0.2237982,40.0
0.3007925,40.0
0.2645146,40.0
0.20378496,40.0
0.20236053,40.0
0.14359474,40.0
0.081628285,40.0
-0.009253927,40.0
-0.029473277,40.0
-0.016250934,40.0
-0.04781597,40.0
0.010963687,40.0
-0.043048065,40.0
0.0025275683,44.061516
-0.0135086635,45.44453
0.016973112,48.65725
0.012001658,51.478313
0.1609387,53.343685
0.27338642,58.507942
0.25255772,62.900146
0.33509165,68.63011
0.41054517,74.18921
0.5141864,75.607315
0.62614244,83.47726
0.7402775,85.1021
0.7619062,90.855545
0.9325205,100.59174
0.92411345,95.68979
0.9860166,103.28582
1.0332713,104.42937
1.1274266,110.59085
1.2517673,117.71922
1.2461994,119.47971
1.3136874,126.651405
1.2543716,127.18134
1.3382666,130.02658
1.3489937,135.57799
1.3604884,133.89484
1.3946475,139.97966
1.3632262,140.31609
1.4007916,139.59369
1.4273416,141.92592
1.4147214,145.13042
1.3560508,142.66104
1.3718168,145.34209
1.2766112,144.9081
1.3261659,140.58614
1.1941875,147.8475
1.2323403,144.42441
1.2295402,141.74585
1.2385497,144.32887
1.1737055,138.15846
1.1760786,134.00888
1.1323102,136.08928
1.0466859,132.79686
1.0929096,129.14296
1.0467306,127.893394
0.9533078,129.56526
0.9689316,125.98027
1.0435537,128.44885
1.0193523,119.45381
0.95219284,112.42738
1.0165311,114.58357
0.90534747,114.69159
0.9726426,109.81829
0.94926864,104.33417
0.9509533,105.01578
0.868296,101.18249
0.88527256,96.30375
0.8385899,95.3035
0.840672,94.010254
0.73589635,91.23428
0.81355226,89.99542
0.75176173,88.111374
0.691849,79.60397
0.7460613,82.81016
0.56032735,79.93424
0.6243652,77.64278
0.6633443,75.39718
0.550221,70.79197
0.5350436,66.13559
0.48609263,66.743454
0.44294515,64.183014
0.47127765,64.448204
0.4030374,56.578766
0.448023,58.8219
0.41216165,45.882774
0.30263513,49.359734
0.3557237,45.45312
0.4043373,47.42541
0.41841972,41.480362
0.38584206,41.15681
0.41004273,40.432045
0.35126063,40.0
0.45647436,40.0
0.42018637,40.0
0.3953657,40.0
0.33315945,40.0
0.26778862,40.0
0.29867977,40.0
0.26927868,40.0
0.24554543,40.0
0.1367368,40.0
0.22482365,40.0
0.05551717,40.0
0.06814603,40.0
0.05697491,40.0
0.07999243,40.0
0.10627864,40.0
0.11342056,40.821964
0.12541018,46.26748
0.20942055,48.10091
0.20906131,49.64928
0.25759,55.24467
0.33247888,55.70676
0.36084664,61.78161
0.51742,67.2416
0.5360762,68.41519
0.6205086,74.57511
0.7939991,76.0413
0.89204746,84.87721
1.0463713,89.80241
0.99139446,97.10295
1.1089157,103.138824
1.1948818,102.87464
1.2694217,112.14656
1.3830585,111.36846
1.4253372,113.52715
1.4295633,118.8173
1.4624486,123.76471
1.4696031,126.55154
1.47325,130.1407
1.5099642,134.45851
1.557701,134.6935
1.5623848,137.04616
1.6146879,136.20454
1.6265868,139.94801
1.5361167,142.08127
1.5678428,141.29257
1.5677118,145.12123
1.6854098,145.90132
1.5641489,144.33084
1.5045577,145.00558
1.6035134,141.27046
1.4778708,140.84952
1.490714,142.1386
1.4578128,141.57655
1.4536792,138.82063
1.409085,144.23396
1.3259252,137.09692
1.3702407,130.24289
1.3839582,134.72897
1.285063,128.61528
1.3441035,128.32143
1.2766721,125.06692
1.2695296,119.64457
1.2560773,121.98664
1.21227,116.373474
1.2648888,110.768745
1.15185,112.669365
1.1820576,112.3813
1.2334735,106.60123
1.1818804,105.86968
1.158489,103.26995
1.1846573,98.255615
1.1934737,99.223785
1.10054,94.02689
1.1304089,94.13439
1.078296,87.93289
1.0956062,85.90714
1.0491784,85.046425
1.0434333,78.64207
0.94058156,79.2602
0.907652,76.62549
1.0017061,72.90859
0.81317675,72.102135
0.8958552,70.44465
0.78486323,63.91663
0.809948,59.383884
0.71504766,62.041374
0.7202194,60.75327
0.6764291,55.44364
0.6688274,56.61563
0.72410476,52.167225
0.73133445,55.342937
0.7202241,49.208614
0.7846485,44.318367
0.7625923,45.33971
0.73360294,40.0
0.69537145,40.0
0.71996254,40.0
0.7120357,40.0
0.7466083,40.0
0.64482963,40.0
0.6303595,40.0
0.5914143,40.0
0.6076296,40.0
0.5779518,40.0
0.5350915,40.0
0.48189372,40.0
0.43193787,40.0
0.42885706,40.0
0.47860056,40.0
0.37139553,40.0
0.43573207,43.97295
0.39401773,41.36633
0.44698912,45.972893
0.4930907,44.14071
0.55400074,51.02325
0.5396212,56.08371
0.5998314,56.3916
0.7889023,62.56302
0.8417693,67.935455
0.91334456,73.45719
0.9580516,73.084885
1.0824227,81.91583
1.1622549,82.843895
1.2580869,83.86545
1.3571997,96.354805
1.5011859,96.22937
1.4761544,106.69849
1.5677624,109.67414
1.6280162,110.115555
1.6733125,116.09742
1.823444,122.89568
1.7230425,119.76758
1.8712754,126.273315
1.8680749,129.22314
1.9306424,137.43672
1.8244294,135.72905
1.8139215,139.09146
1.9074956,141.01228
1.9254979,134.16566
1.9254848,143.5215
1.9211124,143.07458
1.8805244,148.46219
1.8822678,144.30379
1.8644105,142.90944
1.8715152,140.72813
1.825708,139.99069
1.7657276,142.69952
1.795104,140.88654
1.7830058,142.32777
1.7875451,143.67778
1.6804315,136.86214
1.6742854,142.095
1.6746656,132.47864
1.7124577,133.2321
1.6613657,130.83192
1.5938675,127.458336
1.4988946,126.01093
1.4798887,123.45155
1.5055637,118.50876
1.4631759,115.27695
1.464622,116.246056
1.4442967,112.073265
1.5212673,110.43867
1.5696883,105.4216
1.4813386,102.30794
1.4924024,102.88105
1.3495454,99.5068
1.4128958,96.467354
1.364904,95.07519
1.3487232,90.403015
1.3869667,89.95767
1.3446865,84.46087
1.3272719,86.80905
1.2211078,78.45214
1.2353557,78.51655
1.2237835,80.65442
1.150631,76.01389
1.0833948,77.46915
1.132678,72.21328
1.0017539,65.098366
0.9846824,60.451767
0.9705326,60.050602
0.9499201,59.33076
0.96244,51.33291
0.8932518,54.970486
0.8655815,48.952198
0.9301317,53.074356
0.8684105,48.146652
0.9904271,45.276
0.90412205,42.49896
0.8814156,42.163605
0.9075933,40.14226
0.92001224,40.0
0.88024324,40.001022
0.952481,40.0
0.8831153,40.0
0.7727977,40.0
0.8669663,40.0
0.7983497,40.0
0.7315209,40.0
0.64109635,40.0
0.620641,40.0
0.5894432,40.0
0.62465286,40.0
0.5276152,40.0
0.53323466,40.0
0.58591926,40.0
0.60455257,41.36166
0.5759549,44.625336
0.6413771,45.708336
0.6360687,52.495773
0.6265552,55.435875
0.74923867,59.811558
0.88589877,61.298996
0.94161326,67.8001
0.9063033,72.18322
1.0304172,75.775055
1.2343601,79.8457
1.2892426,84.399925
1.3887291,83.34744
1.4465009,93.287865
1.5303117,95.44094
1.5896417,102.70585
1.6443235,103.96276
1.7902294,111.308
1.7228862,111.92106
1.8306264,117.45626
1.7083113,118.99704
1.8734404,122.77623
1.8555017,125.890335
1.8693436,133.51425
1.9183935,135.58719
1.9528606,134.23302
1.863341,136.76503
1.8732506,141.23438
1.9259986,144.54733
1.868249,140.0253
1.8767809,144.53752
1.8796648,146.08522
1.8524929,147.4949
1.85077,141.69873
1.7829618,143.6642
1.8396492,142.87006
1.802951,144.11662
1.761535,139.4528
1.6922241,141.64957
1.742715,138.57556
1.6402564,134.46262
1.6125926,131.74228
1.607215,130.36874
1.5217519,127.689674
1.5352167,127.067215
1.4545469,124.17278
1.5451701,123.407036
1.5079578,121.578964
1.4532421,119.514534
1.4247018,115.16295
1.4414829,111.94289
1.4079291,104.25326
1.4159081,111.86021
1.4096502,99.97001
1.352163,102.79589
1.4399791,102.26124
1.3388348,95.86202
1.2756556,96.98538
1.3045038,90.129
1.274499,87.91849
1.2254782,89.24314
1.2511371,80.252686
1.1439129,81.44047
1.0573692,79.609146
1.0868587,76.41831
1.0598458,75.06766
0.97045875,72.83527
0.8982839,70.36774
0.8371167,67.60468
0.8385289,63.894028
0.92760545,63.331646
0.76860464,62.458813
0.76786935,57.617928
0.76554716,57.375523
0.76288575,51.506443
0.7919593,47.442513
0.7526371,46.657673
0.7671967,46.06863
0.805107,46.009544
0.78764635,41.093597
0.81963503,40.0
0.63337344,40.0
0.694598,40.0
0.65347075,40.0
0.6518894,40.0
0.5936366,40.0
0.46431643,40.0
0.58213586,40.0
0.474204,40.0
0.44499126,40.0
0.42217702,40.0
0.3895362,40.0
0.32030958,40.0
0.29278767,40.0
0.328132,40.0
0.2516514,40.0
0.32019785,40.0
0.33774862,40.0
0.31298774,48.83955
0.39783424,51.85582
0.41765472,58.155453
0.47420216,56.455044
0.4779786,56.33256
0.7224799,63.577293
0.66977245,66.80714
0.7415496,70.877754
0.9356098,78.59215
0.8654073,82.49025
1.1809976,86.78788
1.1459041,91.05566
1.1970724,93.59048
1.2773154,97.03292
1.3070704,108.67205
1.3938203,110.19856
1.382054,117.5751
1.5441828,119.02053
1.5336493,123.12354
1.6072912,125.679375
1.4568176,130.95589
1.51603,135.74971
1.5909877,134.17119
1.6166999,131.66965
1.5947876,137.40175
1.6182947,139.45177
1.6854267,144.98666
1.5262702,145.74046
1.5512937,144.55164
1.6365528,144.20323
1.6454417,146.67905
1.5652266,147.70602
1.4486718,142.50465
1.5139039,143.5766
1.425615,141.97108
1.420831,139.35349
1.3885387,138.05782
1.2605693,139.22522
1.3335392,136.98071
1.227395,133.16902
1.3187362,137.8966
1.2046269,132.0886
1.2631197,124.04455
1.2003162,127.50702
1.104642,122.88855
1.1689831,119.95744
1.1048679,117.2185
1.1023742,111.91495
1.0100791,112.38401
1.0337458,110.54939
1.0856192,108.11481
1.1623592,101.86408
1.0116061,103.10992
1.0293188,99.90319
1.0636326,99.70145
1.021674,95.67193
0.92111224,92.94606
0.9378532,92.93453
0.9283212,87.9708
0.8308705,89.57179
0.79351586,84.86803
0.808586,78.72018
0.7603265,76.567474
0.6661183,79.80432
0.6880235,75.44552
0.57266295,68.94897
0.48713607,65.31286
0.5042368,65.30147
0.46873382,64.609634
0.46246904,57.590996
0.4047171,55.897762
0.47407973,55.478355
0.42714688,50.650658
0.53124076,48.63769
0.3721226,46.904293
0.40802395,44.704144
0.38948983,40.33312
0.47871298,40.0
0.43650326,40.0
0.4272278,41.695415
0.37846845,40.0
0.36250418,40.0
0.33175477,40.0
0.33653855,40.0
0.23963866,40.0
0.2690448,40.0
0.16425382,40.0
0.20666696,40.0
0.12426909,40.0
0.07309363,40.0
0.035828836,40.0
0.018731132,40.0
0.0076774852,40.0
0.06647221,40.48783
0.0112406425,40.0
0.1199513,43.817444
0.11074697,49.882614
0.04408917,47.174408
0.094739124,50.218693
0.17116621,54.962025
0.2833466,58.28569
0.36058307,67.63802
0.40989107,68.08987
0.47553876,73.324135
0.5940371,79.25762
0.6765207,81.702
0.784357,87.91668
0.79879373,90.499756
0.9257947,95.143936
0.96869594,101.30635
1.0585446,106.63805
1.0614948,106.93006
1.12235,117.79135
1.1864657,119.775085
1.2876208,121.22655
1.3460407,127.16042
1.3638564,128.9486
1.3434438,131.18082
1.3259351,132.17839
1.4073242,131.73337
1.2649899,138.2812
1.3565007,145.12181
1.3841393,143.47847
1.4222273,140.79584
1.354193,149.78767
1.416971,148.88821
1.3135443,145.228
1.3101767,144.02592
1.3253629,148.47345
1.2767404,144.4584
1.299586,143.47815
1.255777,143.96675
1.1955202,140.5086
1.2211436,137.17157
1.1182237,136.48134
1.1223456,136.07423
1.0908487,131.89874
1.0459414,134.11092
1.0928233,127.53612
1.0671202,125.86166
1.0311215,120.49063
0.9571102,126.174286
0.8672785,119.560196
0.90836877,113.992455
0.93948334,111.57171
0.94872385,113.26045
0.83111244,112.928154
0.9417272,108.846375
0.96198934,99.83269
0.7996387,102.31852
0.84874123,99.65245
0.81819683,96.72023
0.8131666,94.44397
0.8550911,93.82868
0.7541325,89.13724
0.7634898,82.66643
0.7299286,84.87261
0.64435905,81.32282
0.6516498,77.6347
0.54766357,71.44896
0.52564985,72.22579
0.5212494,70.26635
0.45504162,68.89052
0.5246163,67.33663
0.37805298,62.410164
0.36330274,60.07052
0.35430604,53.731586
0.30050912,58.164314
0.3752645,55.050922
0.32675424,49.316036
0.3505399,45.256195
0.40468124,45.59671
0.33796316,42.433044
0.32757562,42.148724
0.3409175,40.0
0.3799989,40.0
0.3478551,40.0
0.33462575,40.0
0.31080782,40.0
0.1712168,40.0
0.26747298,40.0
0.21246609,40.0
0.22120364,40.0
0.13649926,40.0
0.16501164,40.0
0.1070805,40.0
0.020014502,40.0
-0.06900068,40.0
-0.084480256,40.0
0.06439744,40.0
0.049419988,40.94028
0.12214197,44.347904
0.1308238,46.514584
0.18388811,48.69581
0.21990348,54.56328
0.21753103,51.459927
0.24452725,61.82375
0.37086633,62.437008
0.39514282,71.3553
0.49372312,70.89932
0.6715413,76.65227
0.70395815,83.83357
0.86942846,86.621254
0.95246863,91.251686
1.0599477,93.07533
1.0044905,100.90487
1.0980018,107.568665
1.230882,110.18539
1.2136072,112.83023
1.3223921,115.302185
1.3849481,120.65586
1.3833547,124.53603
1.40803,130.23279
1.5177637,134.2735
1.4174001,133.61702
1.5132605,137.56966
1.5006524,139.47778
1.5110229,143.62494
1.5108901,139.00583
1.5068886,140.64793
1.4958373,140.93674
1.4605148,146.74011
1.4597907,141.7847
1.4054011,146.43546
1.4766648,142.403
1.5044249,144.53293
1.3548634,142.13974
1.4463427,143.71796
1.4417646,141.47931
1.3115911,139.24992
1.3438016,136.78088
1.3164997,134.70538
1.2105441,133.31049
1.3226291,132.03462
1.1989602,130.67526
1.1565809,127.20109
1.1911614,127.15432
1.1281313,118.79807
1.1978492,120.99105
1.1563338,117.629234
1.1802319,113.25787
1.1253605,111.886055
1.1885488,110.14155
1.1748708,105.27816
1.1395265,108.718445
1.0729097,102.66476
1.1077853,98.829384
1.1580434,95.84371
1.177362,92.72079
1.1224985,93.686485
0.99908704,90.007256
0.9534113,84.50708
0.9278058,83.51774
0.98046523,78.93019
0.8766412,78.36997
0.80148584,75.05537
0.82069784,76.91528
0.76708806,64.89529
0.8399706,68.48608
0.67079294,66.24489
0.7024631,60.340183
0.70308614,56.911232
0.6756195,55.40752
0.6571755,55.574955
0.6321883,54.093575
0.6107212,51.417522
0.6418756,47.426178
0.63352275,46.29568
0.6330309,45.431244
0.6178033,43.441936
0.6779472,40.952553
0.5844867,42.54342
0.59783393,40.0
0.6490779,40.0
0.5795332,40.0
0.54905844,40.0
0.57848555,40.0
0.50081563,40.0
0.4502389,40.0
0.4180176,40.0
0.46046188,40.0
0.36071572,40.0
0.3536244,40.0
0.38867077,40.0
0.32547262,40.0
0.36392298,40.0
0.38926187,40.0
0.48080653,40.0
0.37561443,42.19705
0.40548357,48.540756
0.4769482,52.12224
0.55987597,52.113888
0.6348398,60.419304
0.71551037,63.563797
0.83130014,66.87958
0.83949775,67.52741
0.9796397,74.61987
1.0289292,82.263885
1.1488329,84.01251
1.2756629,92.53357
1.2772136,96.2358
1.455416,98.848465
1.4720763,104.11608
1.490023,109.57737
1.6301485,111.230095
1.6407552,117.834854
1.6456883,124.284935
1.6994675,127.36115
1.6774588,127.963036
1.7765744,128.40189
1.8068578,133.38397
1.800823,138.23404
1.8816344,136.8732
1.7653109,137.13411
1.8958421,142.5622
1.9406427,140.62463
1.8942487,144.0525
1.8191524,144.60521
1.8760632,142.70016
1.8183659,148.59456
1.8314219,149.0688
1.8801436,143.02704
1.8131915,138.18169
1.7203891,142.10216
1.6816244,137.32063
1.7387565,136.8992
1.695197,136.88187
1.662931,139.1435
1.5830585,135.44182
1.6761729,130.6535
1.5181173,132.15741
1.6356186,130.53435
1.4463419,127.7472
1.4382286,120.337265
1.5479729,121.53677
1.429201,116.97619
1.4578166,112.763084
1.4809917,111.067924
1.4842805,106.86172
1.4054734,106.29035
1.4217383,103.938225
1.3668983,95.44511
1.4554893,96.30133
1.4404272,97.00666
1.2721701,96.106895
1.4623299,89.78647
1.3490148,87.841125
1.3882487,86.83768
1.2247057,80.85696
1.2834735,77.56348
1.2171977,80.94665
1.1430373,79.99675
1.1282852,75.99012
1.0671299,68.36685
1.0276781,66.84337
1.0547508,66.04658
0.9267981,62.204693
0.9174803,57.299835
0.9844119,57.26458
0.89059114,57.39357
0.94998646,51.361618
0.87878007,48.244858
0.9032273,50.321434
0.86100477,44.217567
0.8964079,46.74459
0.92256814,43.997303
0.89477694,40.0
0.9604365,40.0
0.87946683,40.0
0.8826418,40.0
0.81552285,40.0
0.77204645,40.0
0.75404,40.0
0.7211353,40.0
0.7882921,40.0
0.6875914,40.0
0.66498995,40.0
0.67173296,40.0
0.55455214,40.0
0.5530033,40.0
0.6386886,40.0
0.5594409,40.0
0.5208617,44.232784
0.5499411,40.0
0.5183206,44.20388
0.6554046,51.684265
0.67834467,52.727654
0.6741013,55.829487
0.75806546,59.99334
0.80218476,67.53329
0.98214686,67.13141
1.005679,71.233246
1.1069843,78.41595
1.2015927,81.56261
1.2530168,84.88791
1.3663352,91.836105
1.4957252,94.11348
1.5023352,96.8108
1.6606412,107.30212
1.7404128,109.14989
1.6848639,115.002495
1.7969748,114.29861
1.866719,123.01625
1.8094335,120.378296
1.904135,124.91275
1.927769,126.82469
1.8944956,131.41663
1.9425448,137.4336
1.9541326,139.95386
1.8573624,140.07738
1.9883556,142.46799
1.9790905,139.08026
1.9756947,140.56859
2.004909,143.32835
1.9551196,146.32893
1.9324695,145.9655
1.8965229,147.08792
1.824339,142.44899
1.8620536,146.21063
1.7433649,142.38008
1.7962531,140.36415
1.7268006,146.19592
1.6674578,138.39987
1.7332231,134.91643
1.7064184,135.16461
1.6060596,128.04823
1.5786495,130.94423
1.5625609,123.36709
1.5222163,125.74774
1.5492934,119.9652
1.5631833,123.9172
1.4522089,116.96721
1.5195091,115.13423
1.4644719,113.95959
1.4286901,107.431984
1.3680408,111.00495
1.4131103,103.00553
1.4615078,101.464294
1.4193152,97.15488
1.3941987,97.527565
1.4252031,91.14079
1.3618578,87.79254
1.2441882,89.508026
1.2686654,85.79972
1.2192717,86.078575
1.2059537,84.12136
1.1395036,78.96713
1.0922034,75.212654
0.98327357,75.17957
1.0663602,74.330315
1.0106827,67.30818
1.0212047,64.36004
0.98335475,61.546814
0.87992126,60.828503
0.9153102,62.421333
0.8296411,58.154224
0.80636877,55.72195
0.7663609,51.60333
0.8550269,47.049732
0.76860076,44.22774
0.7883518,43.097656
0.7721654,47.200825
0.79717726,41.318245
0.76210636,40.0
0.83804166,40.0
0.74492323,40.0
0.7029379,40.0
0.61559284,40.0
0.7750067,40.0
0.6135013,40.0
0.63133126,40.0
0.52538735,40.0
0.43870056,40.0
0.45227242,40.0
0.47619906,40.0
0.38404772,40.0
0.36163634,40.0
0.3506856,40.0
0.3212881,42.590412
0.38825515,42.50879
0.3731269,42.496918
0.37132594,48.388584
0.4219585,49.693092
0.4659869,54.395805
0.5434525,57.161606
0.7332481,62.661304
0.7089067,66.651695
0.78866225,69.32212
0.8828369,72.47843
0.94421494,78.431015
1.0437934,82.52655
1.1528062,85.15634
1.2510695,93.12851
1.302421,101.506546
1.328738,100.52126
1.4361689,107.47255
1.495701,111.04102
1.5929713,116.64713
1.5999887,125.16525
1.6260595,121.7484
1.6517775,126.91829
1.627613,124.40811
1.6706713,133.25261
1.6966705,129.4626
1.692639,137.40182
1.6568296,140.19904
1.7008697,144.66562
1.6693869,140.91687
1.7024469,141.53963
1.738421,141.87517
1.5717444,150.41159
1.602523,143.77287
1.5770794,142.50026
1.6191908,143.9221
1.5789361,142.21283
1.4944922,146.22325
1.5081913,140.74629
1.4631883,137.01773
1.369676,136.09576
1.3371854,137.07532
1.3741852,136.85947
1.3636068,132.58508
1.3674315,126.03497
1.2941698,127.65868
1.2589355,123.38206
1.1371254,122.47305
1.2577074,117.3241
1.2230345,121.96351
1.1642922,118.752045
1.1479803,114.41003
1.163384,105.69565
1.1248301,111.932045
1.109597,105.190285
1.1535766,103.533226
1.1212065,99.82268
1.0003313,96.47773
1.0861394,93.636734
1.0250062,95.76496
1.0260165,89.32084
1.0294527,89.71487
0.87544274,85.735954
0.85598695,83.2093
0.8637598,77.50392
0.77113265,78.42759
0.75498676,76.99582
0.7037013,75.41159
0.6976422,66.01081
0.5796669,66.15178
0.6715363,65.69408
0.49186388,66.81756
0.5574358,61.6624
0.50283176,60.972744
0.4169257,55.77853
0.47880498,50.57903
0.4691089,48.18054
0.48182163,45.38094
0.42574844,45.63704
0.4923077,42.830315
0.41022637,43.251553
0.3770673,40.0
0.43945622,40.0
0.35280985,40.0
0.36076558,40.0
0.3365077,40.0
0.3102491,40.0
0.29354727,40.0
0.2131345,40.0
0.1795008,40.0
0.2502463,40.0
0.11020153,40.0
0.04875055,40.0
0.04851108,40.0
0.09089051,40.0
0.030489398,40.0
-0.08020309,40.0
0.07776409,40.0
0.123788334,45.410995
0.10336858,46.870197
0.17149378,48.486305
0.13661185,55.854927
0.2601632,57.731003
0.30207056,62.22978
0.4369237,66.1622
0.4460931,68.89519
0.5617448,76.40394
0.67192864,80.45482
0.790703,81.703064
0.79185045,86.94435
0.83930546,96.19207
0.98757154,96.84763
1.0310135,98.9523
1.1273812,102.42029
1.1577381,114.26459
1.1585425,115.813324
1.2956406,115.90622
1.2947422,123.62119
1.3200527,124.15237
1.3026294,131.85168
1.4199151,132.04028
1.3773228,135.3416
1.4410096,134.90343
1.3823873,138.92729
1.3988048,146.379
1.3399957,140.52048
1.373408,143.90538
1.363328,140.89871
1.3376875,150.16463
1.3425995,144.59761
1.3259711,148.37927
1.375235,142.43991
1.236286,144.68964
1.2180927,142.33672
1.2615176,142.158
1.1987844,138.7279
1.1344541,138.94838
1.1666224,135.45126
1.2001584,133.93631
1.0818276,134.40761
0.98033875,129.1714
1.0035142,126.34795
1.0100054,122.64936
0.9902228,126.5075
0.9869683,118.29018
0.9049771,119.88311
0.8930892,117.115944
0.90681195,114.62914
0.90060604,109.70902
0.85930103,106.81641
0.9126458,108.44461
0.8489645,100.99942
0.8660263,102.620125
0.8465585,97.260544
0.7442775,91.016365
0.85556364,95.40197
0.8148258,88.07814
0.66541207,90.439316
0.6986411,83.754036
0.7214253,78.13081
0.6361373,77.220825
0.5964896,76.940704
0.5370595,76.395195
0.4894901,75.17518
0.4444586,69.73041
0.43912843,65.09526
0.44858256,66.113556
0.3797952,59.709465
0.37664133,56.787315
0.35672477,53.854996
0.35183457,54.640392
0.349155,48.659706
0.38800436,51.433483
0.29335812,45.85398
0.3538741,43.28398
0.32709488,42.393307
0.3827401,40.0
0.22454123,40.0
0.33469638,40.0
0.2917444,40.0
0.29568064,40.0
0.34998348,40.0
0.25317314,40.0
0.18783826,40.0
0.1769492,40.0
0.13897304,40.0
0.104197256,40.0
0.13512412,40.0
0.05716768,40.0
-0.06388129,40.0
-0.10376156,40.0
-0.040757604,40.0
0.05381728,40.0
-0.0115988655,40.684677
-0.031724937,42.24833
0.112661645,45.977047
0.08505809,46.638885
0.081467785,55.884205
0.20384629,55.373306
0.27820656,54.0027
0.30614516,66.04989
0.46924144,65.22894
0.55212986,73.72138
0.58935916,79.54394
0.6804628,82.77437
0.82888275,89.614334
0.9112886,92.93704
0.9659659,98.045456
1.0994238,102.53945
0.96396583,108.76999
1.1346381,111.00562
1.1779491,112.05056
1.294818,119.5035
1.3406888,122.1845
1.2945253,125.10243
1.4463098,128.75894
1.4700025,128.75854
1.4203192,130.83644
1.4640514,135.90456
1.4751012,138.92172
1.44631,144.10707
1.4661708,144.45683
1.4223648,142.66049
1.3508493,147.09154
1.4674155,142.99423
1.4247085,146.34363
1.4752529,139.15169
1.4289438,145.07674
1.435507,144.10985
1.3494354,140.99547
1.3590876,142.12392
1.2960246,140.9935
1.2412231,139.9807
1.2499825,142.07974
1.1485816,137.76604
1.2521286,131.27258
1.2277137,131.27075
1.2602315,131.23724
1.1450075,126.83991
1.0858252,123.613655
1.0753416,120.66183
1.1792878,113.430405
1.0808929,115.43424
1.1331168,113.76475
1.1098338,112.32374
1.0413647,109.66953
1.0394963,105.49309
1.0398347,100.67215
1.0554808,101.52688
1.0516349,93.758224
1.0037106,96.601036
0.9955758,98.73672
1.0223708,92.97977
0.9338789,86.24932
0.9299382,84.74912
0.877597,84.63693
0.83406115,80.19439
0.83635175,75.38669
0.7178884,72.961174
0.71696573,73.2605
0.6838248,67.77232
0.76503634,68.69779
0.69414943,59.889454
0.70090216,59.2032
0.6131451,59.361153
0.51978964,55.838917
0.55493,58.282166
0.5289317,54.631855
0.5740081,53.24249
0.54127425,49.421547
0.58747125,45.646717
0.60137993,43.734123
0.5581168,45.818638
0.55915636,40.0
0.54662216,40.0
0.4800238,40.0
0.55953956,40.0
0.57199764,40.0
0.50551254,40.0
0.5188532,40.0
0.4488419,40.0
0.5276496,40.0
0.34574685,40.0
0.40413025,40.0
0.24816647,40.0
0.31426862,40.0
0.33240828,40.0
0.309695,40.0
0.24536751,41.175785
0.3145269,40.45162
0.31763208,44.05542
0.40114352,50.064297
0.39793402,47.71733
0.3476877,52.20894
0.44047958,52.75226
0.52188796,62.026363
0.66684264,64.832375
0.7034492,69.55961
0.8527687,73.889336
0.83264893,74.2653
1.0490624,81.58012
1.1689819,85.69835
1.3009754,91.66271
1.2950367,94.8582
1.3516041,101.7489
1.4252038,106.11389
1.4703242,106.92794
1.48365,112.72093
1.6193643,118.192955
1.5905352,122.761055
1.603518,128.9424
1.7754761,128.89748
1.761205,126.25315
1.7529259,135.03703
1.7550842,140.29413
1.7077932,140.77888
1.7786002,137.59802
1.8392156,142.56728
1.8037186,143.53139
1.7923551,146.4328
1.8856448,147.66133
1.7243408,141.92398
1.7380929,144.74628
1.6797868,147.45581
1.7474324,146.11255
1.7330613,142.01093
1.7624627,141.30382
1.665772,138.9248
1.6830825,135.86101
1.5919952,134.34714
1.5725929,133.74716
1.5675766,135.05238
1.5293164,130.52104
1.4464571,127.49853
1.5109469,123.10526
1.4272141,122.38379
1.4425296,120.6215
1.5093288,116.87065
1.437193,118.06979
1.4315308,110.072914
1.432312,111.3341
1.400392,111.06966
1.393881,108.793526
1.3900713,101.36139
1.4015119,99.55573
1.3229848,103.03004
1.3759813,98.082405
1.3711277,91.93858
1.28623,89.70952
1.3402104,89.835526
1.2434546,85.677765
1.2183459,86.05021
1.216416,77.69751
1.1222019,77.07677
1.1077856,74.022865
1.0609457,74.25618
1.088335,66.707405
1.0128936,69.27872
0.9261402,65.75471
0.9361667,61.955364
0.88932735,58.2636
0.95276535,58.16652
0.8518098,54.30854
0.91359645,49.856377
0.9126858,48.985725
0.9296648,46.519405
0.90503126,44.889896
0.7896946,47.88004
0.82526946,40.373764
0.83341444,40.0
0.83968806,40.0
0.9227887,40.0
0.8578037,40.0
0.7729788,40.0
0.7804705,40.0
0.7395051,40.0
0.71207595,40.0
0.688382,40.0
0.6310614,40.0
0.68583924,40.0
0.62987506,40.0
0.66302025,40.0
0.5362048,40.0
0.56413096,40.0
0.53723556,40.0
0.54540306,40.0
0.54997665,41.680603
0.54496014,46.250523
0.6564453,46.686127
0.70308614,53.17112
0.7479167,55.519203
0.85005796,60.65013
0.9431136,64.83233
0.91646785,71.559135
1.0912702,67.44044
1.1175156,78.58578
1.2361567,80.68914
1.4044652,86.64466
1.3702712,90.40244
1.43229,94.08028
1.5792776,103.126564
1.7011676,101.00714
1.6948884,110.74184
1.7903036,113.01974
1.848104,119.34574
1.8498425,122.24
1.8131068,124.742065
1.9383798,130.99193
1.9769173,134.05042
1.953331,135.06343
2.0117612,138.00781
1.9533497,141.36986
1.8749714,137.49141
1.9368412,141.15527
1.9489626,144.18211
1.9266301,141.24095
1.9621923,143.53262
1.9891558,147.70403
2.0031114,142.43889
1.9151639,145.52893
1.8976986,145.73947
1.9120353,146.24197
1.8256172,144.0461
1.7621236,137.07104
1.7375889,139.9497
1.7123407,137.4523
1.6675785,135.81482
1.6694819,133.40976
1.6159866,133.1414
1.5800184,130.93227
1.544368,124.92752
1.5076351,118.00072
1.4973621,120.958336
1.5689216,117.21444
1.5612562,118.21674
1.5643739,113.45447
1.4277264,109.689095
1.4668143,107.69189
1.4980482,105.78902
1.4691525,106.33924
1.3807905,104.77733
1.4441186,100.34435
1.4046731,96.04492
1.4580762,93.22973
1.3836244,93.96999
1.350798,86.63473
1.3111405,86.78424
1.2973367,79.111275
1.2328618,81.89035
1.2259979,76.65341
1.1496539,79.1881
1.1000003,76.866646
1.03491,70.333496
0.9752323,68.97428
0.85446143,73.31667
0.9890833,64.48933
0.95619005,58.199696
0.94070685,60.083496
0.9045035,56.563072
0.86806995,55.148598
0.8500161,53.21005
0.8315054,47.682236
0.8769892,42.969612
0.8041203,43.883625
0.8769789,43.548134
0.85779965,40.449238
0.80618423,40.0
0.81823784,40.0
0.8317664,40.0
0.68356204,40.0
0.7581665,40.0
0.7142411,40.0
0.7139908,40.0
0.5875398,40.0
0.5769538,40.0
0.6095116,40.0
0.5060461,40.0
0.50220793,40.0
0.4341817,40.0
0.48247394,40.0
0.402041,40.0
0.4263245,40.0
0.4471429,43.178204
0.49966174,46.92247
0.517822,52.58329
0.51414096,50.360634
0.64187104,52.58044
0.65804464,58.180088
0.752311,60.588852
0.85345703,71.31478
0.9610077,69.601524
1.0076073,79.1892
1.037845,83.46517
1.1396413,83.41679
1.2033942,92.82319
1.3285208,97.1618
1.3838947,97.20299
1.4626862,101.89426
1.6037337,107.77063
1.5222142,108.717064
1.6224431,113.1805
1.6229618,115.181786
1.6983746,122.86663
1.6864508,129.63283
1.6514497,130.01714
1.7690983,133.46933
1.7299168,133.6486
1.7355295,139.56447
1.7765725,138.84195
1.7992601,143.0328
1.7592784,146.15771
1.7323866,145.53262
1.6996564,146.1235
1.6383777,145.43445
1.6366552,143.6985
1.6141417,145.01971
1.5993639,146.19328
1.6367955,143.00754
1.5499535,139.38219
1.5473502,143.82535
1.551699,134.32738
1.5056106,136.75337
1.5123339,138.36687
1.4589902,133.88797
1.3245345,133.94963
1.4203991,130.05708
1.3352857,128.97955
1.3119459,121.51319
1.3063121,117.25944
1.2494385,124.79449
1.2910426,115.50773
1.2874218,116.08419
1.2633307,110.21563
1.2336694,111.749374
1.1671681,103.1044
1.1714357,103.39511
1.165703,99.529495
1.1737198,97.97119
1.1323491,96.652245
1.1152462,93.40142
1.0468303,91.35553
1.022157,87.35231
1.0402243,90.23742
0.9930635,82.820915
0.9046705,79.140686
0.88054955,84.3088
0.86706173,74.31135
0.7987191,70.460014
0.73338205,71.93526
0.6811868,73.67154
0.6026361,68.45868
0.64556277,64.712616
0.6062251,60.246803
0.6836357,58.792557
0.586003,55.55325
0.5926655,53.62579
0.5497854,51.444183
0.5512713,49.34916
0.5296862,43.59524
0.55845726,42.002357
0.5157472,40.909924
0.55811775,40.0
0.48720434,40.0
0.45857278,40.0
0.4623158,40.0
0.4064393,40.0
0.37035373,40.0
0.4330119,40.0
0.31382558,40.0
0.32347232,40.0
0.3028957,40.0
0.30364868,40.0
0.14616504,40.0
0.13526456,40.0
0.10725919,40.0
0.14878899,40.0
0.109164745,40.0
0.06189836,40.0
0.13972765,40.64465
0.11766084,48.051548
0.12409997,48.787807
0.14853968,52.542934
0.1977834,56.7907
0.24253504,56.836697
0.3903029,64.905495
0.49027914,68.35705
0.49283248,67.66001
0.6244102,77.45692
0.680834,79.850716
0.7431461,86.22744
0.8753577,91.19855
0.9581628,94.16584
0.9404814,100.98698
1.0875617,106.996376
1.1700695,108.164795
1.1995255,110.67664
1.3359604,116.12255
1.30173,119.97972
1.3265413,130.40428
1.3654983,126.38409
1.4279324,131.03476
1.4245939,131.07379
1.3845291,136.10019
1.4683194,136.95728
1.3960984,136.92715
1.5285609,144.79208
1.5000377,143.41548
1.394439,145.05258
1.4244518,147.55696
1.3726071,145.11115
1.4145784,145.46463
1.3905536,142.86546
1.3049638,146.37961
1.2598784,141.5018
1.3178769,146.24872
1.2354772,141.64317
1.1876062,140.66162
1.2170775,139.01273
1.1378485,134.59578
1.1805924,136.00536
1.1904627,128.36432
1.105849,127.58464
1.0317073,130.79323
1.0237529,127.45742
0.957312,117.58396
0.97371244,120.49303
1.058261,115.87244
0.819756,115.67475
1.0149422,112.86606
0.94182473,109.4372
0.97332805,104.60671
0.94340926,106.41477
0.9123313,101.202705
0.90742105,98.72808
0.9095378,100.40208
0.8420125,94.8691
0.8101882,92.43731
0.7308916,89.26863
0.74297637,87.6
0.71346647,83.28412
0.7591762,82.434715
0.6069612,78.11463
0.654939,73.886665
0.5154057,79.43749
0.56657225,72.4254
0.5145905,69.40046
0.3376995,65.38975
0.4331953,60.466465
0.38022318,61.38969
0.30696747,58.937004
0.3695797,57.17679
0.37728935,56.635735
0.34653103,51.075886
0.31458473,49.49538
0.325713,43.451157
0.3706371,42.6674
0.2073982,41.409664
0.4268347,41.18477
0.32813337,42.708652
0.25873613,40.0
0.26596594,40.0
0.30452314,40.0
0.26915985,40.0
0.18701433,40.0
0.19222769,40.0
0.14484207,40.0
0.089487106,40.0
0.08576384,40.0
0.059458744,40.0
0.039612323,40.0
0.041720975,40.0
-0.04052671,40.55546
-0.071025796,40.0
-0.06932886,40.0
-0.0014254289,40.0
0.11852308,48.155926
0.03796249,46.25574
0.118491784,51.606388
0.080155686,55.07597
0.13064905,56.93265
0.22592568,63.434074
0.31436032,66.94383
0.5325178,64.84646
0.49640432,72.46914
0.58670783,80.80839
0.6519657,83.71458
0.81907177,86.68603
0.85952467,95.79402
0.9607523,95.616394
0.98389107,101.1381
1.083402,104.049904
1.1202005,111.95075
1.2388479,115.81547
1.2483629,123.99492
1.2997317,124.78079
1.2640634,126.022804
1.2943426,129.1621
1.3365606,135.947
1.3729854,133.74214
1.4804745,136.08817
1.3579047,143.9228
1.4514174,141.72365
1.4139762,140.9611
1.4313594,141.17151
1.4663863,143.78145
1.3401836,143.167
1.4237739,145.62416
1.3623412,145.87991
1.3833665,141.7184
1.3548607,146.72215
1.3170111,143.33725
1.317047,143.32295
1.2511427,136.59717
1.2498802,138.02835
1.1788288,131.56752
1.167114,134.77728
1.1388179,133.39221
1.1013464,128.73273
1.0891136,127.97772
1.1096784,130.45917
1.0567247,120.3272
1.1110731,117.10522
1.0209068,121.06269
1.0656023,114.988
0.99161345,110.53747
0.9751465,114.96263
1.0171274,107.21037
0.9597626,102.88676
1.0265654,100.34793
1.037786,100.96542
0.9573997,101.6754
0.9821159,96.28489
0.92591715,91.60156
0.9198888,88.690674
0.89130396,85.829865
0.8559002,84.40056
0.85442054,82.92578
0.7056616,80.92753
0.7323672,80.42757
0.7453258,76.52122
0.68678236,74.951675
0.5763272,67.77965
0.57276994,65.10541
0.58123857,63.078243
0.61633694,62.583126
0.530565,56.62555
0.5329534,53.342888
0.4901184,51.264507
0.5631901,51.58107
0.49149773,47.001934
0.45792,46.893497
0.49387053,43.561096
0.51298887,44.865337
0.5012485,41.227993
0.43793932,40.0
0.509405,40.0
0.48920447,40.0
0.52744985,40.0
0.4952267,40.0
0.47942406,40.0
0.40962988,40.0
0.30918527,40.0
0.33311084,40.0
0.304188,40.0
0.26064435,40.0
0.12738028,40.0
0.20071866,40.0
0.23496142,40.0
0.21693394,40.0
0.118401624,40.0
0.25130665,40.0
0.19168644,42.752937
0.35344568,44.33261
0.27009225,50.692394
0.32101157,53.9728
0.4712203,57.078953
0.56157076,64.89552
0.5978304,64.15797
0.70331514,72.11335
0.7628524,73.47551
0.8925115,77.081
0.9913009,78.00023
1.0561332,87.769844
1.1794676,94.85433
1.146117,98.66189
1.2742779,98.02057
1.4245585,105.518005
1.3734807,105.30275
1.4848961,113.951355
1.5922848,117.401955
1.5860142,125.72424
1.6650949,122.41595
1.5984232,129.03911
1.7221427,135.20149
1.6773472,134.49883
1.6566359,141.10518
1.7373608,139.35823
1.6089303,141.55112
1.7246753,143.98903
1.7523013,144.34857
1.7592728,146.94545
1.7243183,145.96895
1.7139415,149.80498
1.7490007,146.51599
1.6552929,146.37614
1.6141993,145.22491
1.61053,145.47968
1.6457318,139.7746
1.669325,138.351
1.5364853,135.72217
1.4174289,136.12646
1.5286086,129.89246
1.5212679,131.8492
1.4393228,128.5707
1.4636495,122.67043
1.3984101,125.51999
1.409178,124.13706
1.4370714,119.223465
1.4609659,117.969925
1.3830707,112.58256
1.3159906,109.8227
1.3641263,110.24523
1.3115103,106.54623
1.322273,112.367386
1.3399789,100.3668
1.3723633,98.72947
1.2912074,102.3719
1.2906411,97.24071
1.2644595,92.83645
1.2808766,90.74306
1.1813008,83.86968
1.1524056,86.68433
1.1993316,85.51457
1.0900418,82.408585
1.0043118,76.04984
1.0951301,73.638504
0.9928296,70.603004
0.9847914,66.936
0.92275697,64.923035
0.8835601,64.470406
0.87790644,58.695236
0.8686181,57.63096
0.8389951,59.570614
0.812458,55.337425
0.85950243,55.76479
0.8226501,50.640797
0.7980166,47.657604
0.8301709,45.577118
0.7674334,41.50691
0.87412435,40.0
0.82211876,40.0
0.7769734,40.0
0.7804389,40.0
0.78351104,40.0
0.7937997,40.0
0.7404189,40.0
0.7394126,40.0
0.6691703,40.0
0.71041495,40.0
0.6251307,40.0
0.6051389,40.0
0.5410765,40.0
0.49524626,40.0
0.49739677,40.0
0.5059983,40.0
0.5081013,40.0
0.5351948,41.234127
0.6322348,40.10608
0.4765358,47.353775
0.61609143,50.741886
0.6297487,52.257988
0.7858532,54.723312
0.7926301,61.989353
0.86910033,62.481438
0.9842589,67.33088
1.0756975,71.404564
1.1174796,72.60043
1.2041264,81.537025
1.3052127,83.76241
1.3855467,87.68279
1.5134796,94.18214
1.5518626,100.592316
1.6276562,104.18541
1.7186589,110.610146
1.7145787,115.99419
1.7367691,115.667885
1.8822978,123.24605
1.843072,124.756325
1.8781133,130.38925
1.9172044,135.46924
1.9102753,137.7965
1.9985753,137.08002
2.009232,138.18132
2.0369027,141.88116
1.8902756,139.91469
2.0171616,141.11102
2.0379817,141.14006
2.0056791,143.60648
1.9716384,140.36491
1.8893322,145.41353
1.8319913,145.47195
1.957573,138.22902
1.8544484,143.6329
1.8591775,142.91537
1.7831485,141.15982
1.7886653,141.33746
1.7603263,135.52979
1.6996516,136.41548
1.7001685,135.27295
1.6450585,132.72913
1.6919781,128.41125
1.609753,124.95762
1.558687,122.99736
1.5564868,118.250946
1.5035045,120.69186
1.4842204,112.51395
1.5477955,111.57327
1.5526631,110.535645
1.5125297,107.67093
1.4691747,104.29473
1.5328503,99.275764
1.4914764,97.91079
1.5104393,98.09881
1.4169269,96.67794
1.400304,94.41567
1.3971627,91.98068
1.394293,85.5616
1.3651423,89.806564
1.2325273,83.38971
1.1642205,83.50952
1.1936452,78.81688
1.1764549,76.43288
1.2404896,70.77219
1.0781807,68.51446
1.0996665,65.03993
0.9714219,63.562542
0.9711077,68.46731
0.9819054,58.16359
0.94811153,60.57262
0.9227582,53.514515
0.872653,51.296555
0.89260614,50.551277
0.9439386,44.718494
0.9622318,43.70041
0.90400255,45.974876
0.8644673,42.395405
0.82027966,40.0
0.9117936,40.0
0.8698667,40.0
0.9417241,40.0
0.87432146,40.0
0.76949537,40.0
0.76566637,40.0
0.6813926,40.0
0.7193365,40.0
0.6240286,40.0
0.5527064,40.0
0.60446125,40.0
0.52142006,40.0
0.5556603,40.0
0.57642263,40.0
0.46224388,40.0
0.43934447,40.0
0.50789475,40.949093
0.5520568,41.987316
0.5015567,49.121693
0.6297322,50.24518
0.6411802,57.7213
0.72372997,58.060818
0.7604015,64.52834
0.81883603,67.90013
1.0707501,73.484505
1.0837435,77.175964
1.2181761,84.49989
1.1933353,85.0994
1.3096037,90.350395
1.4136835,96.27175
1.4108176,98.9828
1.5747807,103.26378
1.611107,109.215256
1.6319234,114.03801
1.6637301,118.38224
1.7429088,122.60324
1.7211335,122.06616
1.7471797,126.49673
1.7154031,127.34628
1.806752,133.845
1.8243587,135.05075
1.8355881,136.85577
1.8607,138.4519
1.8279854,146.03287
1.816225,144.55852
1.8122241,143.66876
1.7791134,144.80444
1.7181185,141.97423
1.7539616,144.84105
1.7601564,141.80222
1.7147663,146.35646
1.6433104,142.89548
1.6040463,139.11758
1.6702689,145.40038
1.5889,138.46933
1.5684962,138.98499
1.5157626,137.39497
1.4609939,132.93233
1.4073145,133.1865
1.4915998,128.24149
1.3194996,126.56945
1.3925333,126.532425
1.3689361,118.812706
1.3006588,120.42031
1.2625778,111.022385
1.3049947,115.48036
1.2566645,112.5408
1.268619,112.49257
1.2998273,106.02512
1.2549995,102.886566
1.1886262,97.43264
1.2284542,102.06344
1.1758828,96.56219
1.2204038,91.37561
1.1184597,88.28734
1.1340429,89.892044
1.0321553,88.465706
1.1140649,85.920876
1.018184,77.028145
0.94665915,80.916824
0.95026684,76.27276
0.9250721,73.28897
0.82801074,66.33129
0.77232486,69.705154
0.7657842,66.84852
0.61764836,65.53973
0.6077056,62.90283
0.6417751,57.721226
0.68587375,56.72943
0.59561276,53.997047
0.5884675,47.8982
0.647872,50.78792
0.57582426,47.772247
0.7226853,46.95042
0.5216748,42.11601
0.5831502,40.0
0.5483676,40.0
0.52262837,40.0
0.52712727,40.0
0.40053692,40.0
0.50875026,40.0
0.4579512,40.0
0.43135375,40.0
0.4206713,40.0
0.31599155,40.0
0.299703,40.0
0.16235301,40.0
0.1958606,40.0
0.17255534,40.0
0.10074398,40.0
0.15208699,40.0
0.19746484,40.0
0.21558921,45.198746
0.19836518,45.693207
0.1958561,49.009617
0.2566358,48.37925
0.3883553,55.04331
0.3938388,60.539013
0.410874,62.495693
0.5151609,71.12966
0.6858461,73.76256
0.73903155,75.33991
0.7915071,81.39327
0.97404736,87.31601
1.0188346,88.10785
1.0150431,96.39374
1.1340016,96.56291
1.2010387,100.54553
1.2260009,110.59689
1.1672864,108.563034
1.358059,119.58054
1.4250108,119.383766
1.3918853,126.6508
1.4260663,126.78833
1.4785362,133.62347
1.4899023,136.65508
1.502612,137.70854
1.4180982,140.6133
1.3941185,136.11884
1.4647689,139.89635
1.4977807,145.79697
1.4485852,147.5097
1.4679699,145.99327
1.4261637,146.45685
1.420616,143.17802
1.3249456,146.04767
1.3693744,144.50131
1.3595035,141.04897
1.3824977,141.7282
1.2943496,143.31361
1.2809763,141.12125
1.2533741,135.22505
1.1895798,134.19157
1.1438186,132.26051
1.1428382,132.18083
1.0510726,129.24117
0.9994157,130.95384
1.051268,122.1084
1.0467603,115.3162
0.9895759,123.22332
0.98095757,119.60635
1.0172484,114.043365
0.9182652,114.22654
0.915195,109.739174
0.9766436,107.15386
0.8594594,104.4687
0.9215454,104.01308
0.8791448,100.6692
0.8696021,98.198395
0.84832466,91.84528
0.8181566,96.259094
0.76520795,91.3849
0.74546593,85.57483
0.745124,86.60674
0.73663116,82.242294
0.58891416,74.41464
0.5190443,73.93539
0.5331056,79.242645
0.54203314,71.875786
0.40181625,68.80407
0.4081312,65.10794
0.41429535,61.938313
0.38872048,65.383835
0.34925297,57.708336
0.28379512,56.91897
0.38604334,52.438705
0.3088681,50.794525
0.30115345,45.04653
0.33202633,45.18147
0.3046809,47.731514
0.33014503,40.37655
0.286124,40.0
0.30299476,40.0
0.23515587,40.0
0.23837681,40.0
0.24449082,40.0
0.232628,40.0
0.17364821,40.0
0.1271442,40.0
0.11500803,40.0
0.11881646,40.0
0.07358059,40.0
0.057787403,40.0
0.0581871,40.0
-0.022456113,40.0
-0.04599797,40.0
-0.11415866,40.0
-0.077541724,40.0
-0.07941474,40.0
-0.029528866,47.389923
0.020134846,48.166153
0.051036205,54.81022
0.1468185,54.013012
0.20251547,55.639618
0.22191325,59.906086
0.31599644,61.60281
0.42761344,71.71008
0.5722494,77.21321
0.5846847,81.29177
0.61848783,86.12284
0.79896724,94.527916
0.88891554,95.386345
1.0839539,98.36831
0.96608865,102.929886
1.1083779,107.381386
1.1236405,112.50141
1.1970245,115.85267
1.2638155,117.66014
1.37892,126.71178
1.3039359,128.97955
1.2816534,132.73799
1.3894079,136.19106
1.3235453,131.82768
1.3391516,140.39977
1.3736205,137.8898
1.4228109,146.82497
1.4440892,140.06456
1.3742338,145.63483
1.315433,147.53572
1.3486276,143.08127
1.3038324,144.94994
1.3196722,144.97673
1.3092684,142.49327
1.2917118,142.51968
1.2557306,141.29976
1.174324,139.67393
1.0873963,137.29156
1.1724967,137.91327
1.0939543,136.60077
1.1116618,133.01163
1.068819,133.68344
1.103276,131.11935
1.0130897,128.38661
1.0185627,124.269035
1.0125494,127.185165
0.92067075,118.242096
0.9926634,116.590324
0.9533534,117.99777
1.0260227,108.82797
0.96721953,111.633835
0.9807966,108.929565
0.9419962,106.87283
0.93177736,101.06502
0.9777606,101.96295
0.91013724,93.298
0.84408504,97.0144
0.8933167,94.32587
0.89749295,90.96432
0.8219692,83.778465
0.73922384,86.89738
0.7928988,79.56817
0.72304744,75.88527
0.67751837,77.38748
0.6604658,76.56661
0.6052948,69.78079
0.62808913,71.94232
0.4913119,71.77857
0.51327145,67.899956
0.49364132,58.941715
0.50712615,57.084946
0.46192512,52.556194
0.51092577,57.143375
0.44319427,51.26273
0.50425935,46.76052
0.40549648,43.71414
0.46868253,41.61114
0.4424624,43.095005
0.48896724,40.908745
0.43702722,40.59388
0.43605408,40.0
0.41974556,40.0
0.3678812,40.0
0.37171897,40.0
0.33435583,40.0
0.2843206,40.0
0.35443914,40.0
0.2693957,40.0
0.207651,40.0
0.17001967,40.0
0.16244839,40.0
0.19554284,40.0
0.16433476,40.0
0.11883221,40.0
0.08797423,40.0
0.16931559,42.386616
0.22535439,40.82262
0.14933805,45.535664
0.26718986,49.256783
0.2673284,49.257927
0.380794,61.01257
0.41163713,62.982952
0.52827615,67.17939
0.59549344,69.77078
0.76814497,69.923645
0.77609134,80.99423
0.87567675,84.62853
1.0480124,89.76172
1.1367273,93.139244
1.1987226,96.9034
1.1556097,101.74579
1.188403,106.69741
1.3363893,111.9918
1.4081408,115.37456
1.4138782,118.579735
1.5652115,119.6897
1.556001,125.86603
1.6101147,126.958046
1.6228703,131.96333
1.5430572,135.1817
1.5256119,136.39946
1.6389681,135.2801
1.6933343,141.89487
1.6343231,145.31596
1.5930961,143.19926
1.636407,141.95274
1.657508,148.33101
1.6512054,140.86406
1.6019715,147.97372
1.6692194,146.01474
1.6287515,140.19803
1.5287143,142.87798
1.5500989,141.97339
1.4827603,137.66174
1.5175431,138.78835
1.4025303,136.52882
1.4713559,131.75716
1.3511965,130.95566
1.4096712,130.48772
1.3843104,126.89636
1.4204352,127.93867
1.2972206,119.893654
1.2914104,120.957596
1.3193653,119.63036
1.3342206,117.24283
1.3015282,112.41704
1.3034639,113.9287
1.2708918,105.3273
1.3062325,110.77731
1.2113547,101.634026
1.3239421,97.009636
1.2160724,98.97062
1.2535862,98.43024
1.2784332,94.578
1.1726955,87.486465
1.1241583,88.248856
1.2034546,83.3242
1.1190317,78.73642
1.1167036,73.40086
1.0137229,75.46415
0.9346037,73.93812
0.998072,74.543915
0.89541215,72.649536
0.84655595,69.03168
0.78780985,62.707928
0.8378604,64.42245
0.84783065,54.822906
0.75439835,58.712406
0.80020005,53.895138
0.8041214,52.544254
0.8304152,47.028072
0.7209187,45.620304
0.7806921,47.03366
0.7643298,40.26911
0.79283774,42.21175
0.7622003,40.21805
0.7794121,40.0
0.8053844,40.0
0.7973058,40.0
0.6423904,40.0
0.6500409,40.0
0.74605405,40.0
0.7330591,40.0
0.62655026,40.0
0.5890753,40.0
0.5677664,40.0
0.53357184,40.0
0.50994605,40.0
0.47854707,40.0
0.45146164,40.0
0.34055722,40.0
0.5094784,40.798855
0.55253047,45.039528
0.5590799,48.195827
0.63511455,47.744617
0.64935744,50.709217
0.72875905,58.46058
0.75893354,59.94904
0.79321563,64.958405
0.9428087,69.7145
1.0175399,74.0039
1.1158048,79.01757
1.1390465,81.951614
1.3682088,91.70976
1.3699207,91.14091
1.432646,95.96531
1.530054,103.339134
1.6115845,106.492584
1.6838042,108.98993
1.7525527,118.83134
1.7713661,122.609276
1.7871193,119.82832
1.8093889,125.320564
1.8868979,127.42547
1.9042498,135.6013
1.8514973,130.36981
1.8912936,139.23083
1.8968822,141.97469
1.9264082,143.09273
1.9156566,144.51685
1.9863007,146.842
1.9714445,145.66174
1.8845452,145.3935
1.9619577,146.3012
1.913085,141.3097
1.8869414,144.83264
1.7864572,141.21558
1.7305123,139.56915
1.7854143,141.97089
1.7931788,138.61958
1.817207,138.66847
1.769495,136.11282
1.7034152,137.59677
1.6510224,130.62413
1.7065609,129.63344
1.6673112,129.12936
1.5833629,127.46467
1.6065874,126.00174
1.5031004,120.24964
1.4681675,116.03373
1.5428762,114.40359
1.4742057,112.83974
1.5125777,109.226204
1.5010946,107.34153
1.4712265,102.450165
1.4884955,104.00637
1.4958624,97.962036
1.4750415,93.51398
1.4166995,94.64209
1.398118,97.33577
1.3939435,91.30104
1.3964765,83.78358
1.314901,86.79994
1.2819616,79.502785
1.2324976,82.67184
1.2172086,79.22894
1.1805652,74.941086
1.0899903,72.88759
1.1011314,71.263985
1.0826123,66.044785
0.94673973,69.380035
0.9406851,63.885677
0.94434994,61.6325
0.9423848,55.918404
0.93556005,55.03937
0.9764971,50.308437
0.9500176,52.215393
0.82077193,43.479824
0.9062132,43.69215
0.97453105,41.60074
0.9916781,40.0
0.9456908,40.587532
0.89669865,40.0
0.86965495,40.0
0.7864216,40.0
0.8713749,40.0
0.8567041,40.0
0.7419977,40.0
0.7911932,40.0
0.7792764,40.0
0.62197226,40.0
0.5529291,40.0
0.5493037,40.0
0.56884307,40.0
0.5036742,40.0
0.5417384,40.0
0.50080067,45.148487
0.48973653,42.237755
0.56750035,44.358685
0.5576271,48.28767
0.6720368,44.842045
0.608589,51.705513
0.79615587,55.672516
0.8002618,62.1281
0.8500345,66.002884
0.9282391,70.16444
1.0745655,75.722084
1.1518307,81.64501
1.1983745,84.45985
1.2257524,85.67859
1.3464636,91.8484
1.5141009,95.75756
1.5696653,102.42577
1.5920427,105.02139
1.6367545,108.54029
1.682604,111.28714
1.6780735,117.37421
1.7886395,126.70646
1.8318485,124.083855
1.7763748,123.528984
1.8579534,131.7665
1.8454325,128.34886
1.8755625,136.25775
1.9247092,140.06787
1.839259,144.39061
1.9284159,140.12045
1.8990818,140.53986
1.8600799,145.19315
1.7543724,149.74503
1.896481,145.87059
1.7143376,146.19804
1.7705674,139.00177
1.8517419,145.179
1.6756504,138.79358
1.6570126,143.47862
1.7045234,142.60733
1.660913,137.11143
1.6213852,134.20427
1.635399,134.13297
1.5897547,131.29591
1.5120869,134.53114
1.5667117,130.58264
1.4565432,127.649254
1.392723,124.314476
1.4807563,119.98694
1.4435266,118.17776
1.3342469,118.70566
1.4006863,117.83329
1.3151237,112.74713
1.4017823,108.32353
1.3602172,102.66979
1.3221059,99.851
1.2939345,97.899506
1.2956282,98.720085
1.2481023,97.66002
1.3486084,93.877754
1.1994132,89.726555
1.2550999,89.63718
1.139088,84.2338
1.1168616,86.16757
1.0562558,77.43686
1.0565199,74.52041
0.8947877,76.157455
0.9539088,75.2163
0.8616756,71.16531
0.8701156,64.84746
0.75352955,64.72004
0.7691423,59.586594
0.7090378,55.786083
0.67858434,59.623497
0.71017486,54.928886
0.6917193,51.10588
0.69870996,50.697826
0.7025181,47.75629
0.69583875,43.58826
0.66990775,45.78113
0.6919115,42.50088
0.6179114,40.945213
0.6535109,40.0
0.585735,40.0
0.5885374,40.0
0.5347978,40.0
0.53614134,40.0
0.50383604,40.0
0.53626156,40.0
0.3645931,40.0
0.3734174,40.0
0.35430554,40.0
0.30764174,40.0
0.28732023,40.0
0.2383549,40.0
0.26927835,40.0
0.22592503,40.0
0.21526524,47.57436
0.20689312,42.568108
0.29858276,46.89634
0.28773862,49.582623
0.28647947,52.86711
0.39461875,57.159523
0.42672062,56.45955
0.60271853,63.48501
0.6944592,68.05102
0.7162764,68.280334
0.8505269,73.53846
0.8961213,83.17208
0.94778025,87.72914
1.060351,91.58724
1.1581213,96.22051
1.141615,101.77229
1.2727621,107.17594
1.2798268,110.94861
1.2969946,116.770874
1.3449938,119.348
1.3870105,118.651634
1.4647944,121.44455
1.4947195,126.96644
1.4913722,130.57875
1.5423614,131.66678
1.5440395,135.6454
1.566394,135.38802
1.6062461,143.2522
1.5442824,143.78017
1.5548282,140.1883
1.5901144,142.9763
1.5367388,145.63853
1.4942665,142.42735
1.5035405,145.95375
1.4646497,139.80533
1.403448,146.09248
1.4715416,140.98228
1.4090321,141.65211
1.3654798,141.74423
1.337432,131.60661
1.3375779,135.49225
1.2633055,135.99173
1.3005565,130.29979
1.1767768,130.34412
1.1681346,128.55772
1.159404,129.02368
1.0526907,121.83594
1.0721862,124.303
0.9826916,119.20356
1.0733593,118.30612
1.0778623,114.125465
1.0341164,107.89273
0.9594064,106.05932
0.9479957,105.92646
0.9686687,100.35191
0.9468466,104.46732
0.93306166,95.73195
0.90356266,92.52856
0.8739834,98.194305
0.8500631,91.70913
0.8042301,89.880005
0.8116651,86.03561
0.7344557,83.378555
0.72307616,78.205635
0.6614494,78.87959
0.64431167,77.8872
0.62585473,76.74065
0.57443815,71.85331
0.5616217,67.01658
0.39673778,63.741673
0.4565928,64.29872
0.4461906,62.07449
0.45448968,59.548313
0.34510028,57.43863
0.46501473,54.4548
0.43149003,50.002712
0.42239255,45.07915
0.34942907,49.34736
0.36571646,47.76549
0.38469037,40.007862
0.36436132,41.336693
0.31929114,40.0
0.33409378,40.0
0.36187598,40.0
0.3188001,40.0
0.3291381,40.0
0.19949552,40.0
0.24100655,40.0
0.19237903,40.0
0.11267654,40.0
0.018994795,40.0
0.016444812,40.0
-0.029261611,40.0
0.023391457,40.0
-0.05010798,40.0
-0.08281331,40.0
0.03564663,40.0
-0.005528028,40.018143
-0.010747271,45.76093
-0.03687937,48.65765
0.12414886,53.592796
0.19162774,54.122986
0.19332841,60.380898
0.29544142,64.90818
0.34890965,70.13152
0.5594897,74.215675
0.598718,71.154465
0.6360478,78.90217
0.76856786,82.152145
0.87776417,85.33997
0.8821157,96.94279
0.94578487,104.02161
1.0126939,101.973495
1.1104252,108.475426
1.1664892,111.44211
1.2080048,116.790955
1.254691,121.58587
1.3027014,123.82109
1.3280073,129.36183
1.3150835,129.86469
1.3636428,133.13771
1.2926478,137.65776
1.3551453,138.85857
1.3283613,142.40689
1.3934228,145.56145
1.3168643,140.99818
1.3614094,146.43758
1.3884002,146.94223
1.4019619,143.80225
1.2949582,142.8278
1.2972215,143.93274
1.3050845,139.15016
1.2412263,139.39824
1.2810408,142.69084
1.1732447,143.86737
1.1564771,139.52756
1.1555201,139.45886
1.1422638,133.29794
1.1047603,132.39835
1.0752053,133.14093
1.0976378,131.24678
1.0309156,127.82401
0.96950096,127.75567
1.0222636,118.9252
0.8724838,124.35674
1.0157261,116.12905
0.9334629,117.00672
1.0246367,114.461044
1.0077188,111.76412
0.9391919,108.99878
0.90407443,103.6704
0.88275766,98.12498
0.91128236,97.413925
0.94429094,93.314865
0.80418396,90.6674
0.85587853,89.50644
0.84822273,89.51378
0.80979997,88.08733
0.70665395,82.2521
0.5821328,80.3909
0.6467212,83.346886
0.57979065,74.85548
0.6739545,75.327614
0.51822716,68.101425
0.37562138,67.62818
0.47935733,62.901646
0.4736327,60.92095
0.38172,62.787483
0.44967923,58.067043
0.42599586,54.308144
0.37019765,57.55521
0.4079629,50.354214
0.3772495,51.970867
0.33830297,45.62078
0.4188091,40.872368
0.42022076,41.79524
0.42520478,40.0
0.3862505,40.0
0.3424333,40.0
0.3074297,40.0
0.35015565,40.0
0.39750576,40.0
0.345623,40.0
0.15330496,40.0
0.2779901,40.0
0.20621993,40.0
0.12128521,40.0
0.13657875,40.0
0.17898026,40.0
0.124033034,40.0
-0.005805372,40.0
0.023774005,40.0
0.103603944,42.29174
0.0869094,40.0
0.08478595,41.87447
0.1524743,52.449043
0.1640671,48.932095
0.29987043,51.848164
0.41769266,59.537975
0.40154618,67.14446
0.49002784,63.846584
0.5728406,70.34713
0.6498934,74.76038
0.7394085,78.95098
0.88786864,87.23959
0.9793226,90.634735
1.0152687,91.997116
1.1994996,97.55457
1.1966686,103.13476
1.275971,106.55973
1.2635624,107.136086
1.3802563,119.68953
1.4613452,120.123024
1.4810909,120.31128
1.4820489,128.56685
1.5654428,132.15321
1.6057267,134.28728
1.5484601,132.08951
1.6163672,135.46957
1.5765166,138.81401
1.5869613,143.76529
1.5761108,141.86612
1.6200818,146.34996
1.5600731,145.98737
1.5744344,142.58192
1.5369388,144.41899
1.5789586,141.41055
1.5470494,144.05327
1.4626691,144.7198
1.5165557,139.31544
1.4702858,142.22942
1.3858507,140.86583
1.4645598,137.21304
1.355605,134.55081
1.3706032,129.14809
1.3513236,131.46053
1.3421295,124.76368
1.3515409,128.80641
1.2667888,125.66726
1.240014,120.87284
1.2146002,121.60467
1.278062,116.87497
1.1373158,114.39894
1.191742,109.2735
1.1844078,108.51139
1.1605679,107.48364
1.212216,108.72806
1.2018894,102.6817
1.3045365,100.864746
1.1015302,96.6619
1.1061078,94.59284
1.0872984,93.2207
1.1066151,88.21967
1.1072975,85.12963
1.087541,83.41811
1.0700399,82.899315
0.9293081,76.96436
0.8613002,78.75785
0.8965552,72.89898
0.8113199,70.63805
0.7998044,67.21697
0.84191185,70.76859
0.7561095,63.771606
0.7718881,59.612263
0.6964163,56.060394
0.7714894,56.13216
0.69941056,50.87732
0.8126755,55.2201
0.71463925,50.881638
0.6998253,44.630333
0.75234187,40.418793
0.69738686,40.105225
0.70921564,40.0
0.7939866,41.26146
0.6618601,40.0
0.67601246,40.0
0.64688134,40.0
0.69515187,40.0
0.65660894,40.0
0.5488689,40.0
0.578339,40.0
0.52298015,40.0
0.47527313,40.0
0.4182211,40.0
0.46232042,40.0
0.40586475,40.0
0.38871846,40.0
0.39982805,40.0
0.44523793,40.933746
0.39983225,40.0
0.47873673,50.578617
0.5447126,45.39477
0.5287106,52.006054
0.4937276,58.29083
0.70475936,58.08669
0.80342704,63.751617
0.7687625,65.1348
0.95393014,70.825264
1.0265397,77.26054
1.1097775,81.48715
1.2363517,80.556076
1.2711185,92.623055
1.3687626,89.40644
1.4392072,100.7022
1.4548643,101.27701
1.5024569,108.97158
1.652929,110.26028
1.6806155,115.46501
1.7491783,122.11097
1.7228669,119.99334
1.9168408,126.03364
1.8360547,131.16547
1.8867545,133.08705
1.8606173,137.37373
1.8827149,139.10678
1.906005,140.26288
1.8755847,139.47879
1.9014937,143.37057
2.0546703,138.7899
1.8949491,149.19003
1.8640466,145.99176
1.8219614,143.3917
1.8088515,142.80228
1.8297013,140.20131
1.8413161,142.19229
1.6990163,138.79584
1.8171245,139.32286
1.6733578,139.59732
1.7049687,132.85098
1.6971543,133.21759
1.6754087,135.0763
1.6206459,133.89206
1.6729736,131.75616
1.6215966,129.61821
1.6076492,125.5449
1.571986,121.87417
1.5218176,119.25065
1.544103,121.120926
1.5459875,113.865875
1.4918141,114.12551
1.4854045,107.67602
1.3778394,106.879776
1.4555405,99.42636
1.5065651,101.09029
1.451355,100.3856
1.4372833,97.83254
1.4667323,93.52229
1.4360518,91.85506
1.3919153,91.58852
1.3285894,86.86627
1.3188486,80.61889
1.1751126,82.43195
1.2846367,81.012955
1.1764138,74.058624
1.0748957,74.973885
1.1489986,69.10432
1.1187814,65.38917
1.0334198,65.84251
0.9624255,63.88029
0.9390541,61.016384
0.9227945,58.929913
0.885876,62.947468
0.93934137,53.737713
0.916355,54.39965
0.99899024,52.616314
0.9057628,41.104496
0.93942964,45.47233
0.9101559,40.0
0.9243508,40.0
0.9259297,40.0
0.9292944,40.0
0.9418415,40.0
0.83876985,40.0
0.906097,40.0
0.7451054,40.0
0.82264644,40.0
0.7279874,40.0
0.6823634,40.0
0.64168566,40.0
0.67229646,40.0
0.6483659,40.0
0.55949104,40.0
0.626509,40.0
0.4249037,40.0
0.5344856,40.0
0.5020128,40.913498
0.5007246,43.64713
0.63480574,46.591465
0.5733629,47.62301
0.6654783,56.5871
0.8051323,63.566055
0.7793796,56.8356
0.93723404,69.87727
0.9947393,70.64515
1.1207652,69.74493
1.1441743,80.48219
1.2093016,81.45602
1.3049092,89.461426
1.3928604,94.474045
1.4516656,97.00165
1.584182,104.58261
1.623109,102.740776
1.7010882,110.28273
1.6332427,118.027664
1.7480546,118.20173
1.8674175,123.5224
1.8906341,126.65387
1.9198222,132.20615
1.8358761,130.92493
1.9666704,133.14772
1.8822421,141.1074
1.9439665,140.12805
2.001791,139.95137
1.9451329,143.52744
1.900928,144.05052
1.8751222,141.19879
1.8903952,142.07303
1.8752023,143.07741
1.8601167,147.26494
1.8084221,145.7565
1.7582827,139.90376
1.8163072,142.66696
1.7952379,140.16812
1.7485951,142.5319
1.66862,140.90741
1.703785,131.21796
1.7073445,131.27875
1.6097196,128.65474
1.574195,134.1979
1.554384,129.17284
1.4925053,122.088615
1.5218351,124.73599
1.4526393,119.659996
1.5001556,119.65522
1.4948875,114.41959
1.4737542,114.549736
1.4007131,111.225006
1.4336555,110.36517
1.3470188,106.97879
1.3825225,103.86095
1.4136823,96.898346
1.3534613,102.14637
1.3023893,94.56791
1.251482,92.7194
1.2523881,92.059975
1.1389945,87.229
1.1570787,83.17257
1.1128489,83.10953
1.1026006,79.40524
1.0163543,77.53573
0.9486014,75.766396
1.0689869,70.16749
0.90342176,72.504425
0.95371985,66.524765
0.8278621,62.263504
0.7774008,63.046833
0.7744091,59.35816
0.80522114,54.57547
0.7566975,55.62389
0.71110135,52.150337
0.8584112,49.95095
0.6943082,45.997852
0.7488201,44.805717
0.6484625,40.0
0.71131086,40.1194
0.71229756,40.0
0.75065273,40.0
0.6421917,40.0
0.6677896,40.0
0.6950285,40.0
0.5369016,40.0
0.53393394,40.0
0.5903976,40.0
0.44865656,40.0
0.32663938,40.0
0.397306,40.0
0.4189861,40.0
0.3673072,40.0
0.28213075,40.0
0.36543283,40.0
0.30456766,40.92992
0.34015876,40.489758
0.27096403,40.149944
0.35623124,48.34191
0.39686862,49.41389
0.38878757,55.80892
0.40889838,57.751324
0.60266423,60.02135
0.6106315,65.92489
0.66068566,71.509445
0.8597123,72.672264
0.9422885,79.613304
0.93253714,84.71824
1.043638,86.721085
1.112343,92.102585
1.2158561,98.64714
1.2877581,99.32732
1.3756328,109.22101
1.4331292,112.27464
1.4381568,110.71243
1.5523299,119.58089
1.4219803,122.56733
1.5625253,124.96707
1.5270501,126.927795
1.6599778,130.68828
1.6060468,137.56223
1.5893334,138.27638
1.6049557,143.11832
1.5814983,141.44907
1.62968,145.03563
1.5517381,143.27129
1.5925579,144.04906
1.6124649,143.49765
1.5726838,145.04166
1.5716144,146.61482
1.5264034,145.64532
1.5470663,141.16208
1.4584519,142.13885
1.3693956,143.70284
1.4664577,140.64296
1.409618,138.98427
1.3262889,137.50937
1.2986448,133.16003
1.2637967,132.71315
1.2354302,130.78102
1.2093612,129.62263
1.1007723,127.18117
1.1460575,124.158554
1.1229758,120.42618
1.2088072,117.74576
1.0530117,116.16696
1.0255274,113.15867
1.0490516,113.022896
1.0405425,109.269485
1.0743554,110.08546
0.97549224,102.36574
1.056989,100.86115
1.0306504,98.262024
0.9586067,99.86445
0.9489606,96.68841
0.87595296,93.07276
0.92104363,88.234055
0.8094717,85.40201
0.8016774,79.722435
0.7524268,75.22091
0.6941996,79.266685
0.7163338,72.47161
0.6111356,76.57294
0.60130936,66.85669
0.57533354,68.140236
0.51368314,68.45511
0.5261023,62.305347
0.4557872,61.13386
0.42504483,55.449425
0.45494238,56.01663
0.4072771,48.795807
0.39695874,50.51131
0.3977258,49.253788
0.46138787,48.36058
0.41789553,40.0
0.362128,40.29455
0.46051437,43.065952
0.28231433,40.0
0.3529384,40.0
0.35294914,40.0
0.30662447,40.0
0.26638696,40.0
0.28152314,40.0
0.23178233,40.0
0.17902164,40.0
0.06782063,40.0
0.10433658,40.0
-0.016889555,40.0
0.0028707492,40.0
-0.048295576,40.0
-0.050328,40.0
-0.02227285,40.755665
-0.09240433,40.0
0.0117414165,45.980915
0.0275042,42.373863
0.06929665,50.27614
0.12043194,50.46517
0.17469905,57.024944
0.22854753,61.991768
0.29481965,64.15381
0.40950543,68.85629
0.49620843,72.20372
0.5604322,78.755615
0.6161036,81.21745
0.7142959,86.691696
0.8160807,92.832726
0.93949866,93.60403
0.97344637,99.26058
1.0162705,104.80632
0.98469263,107.432144
1.1942276,110.94571
1.242275,117.22132
1.2049927,123.35324
1.2808789,124.815
1.3298095,130.4437
1.3668932,131.72774
1.3753378,137.2811
1.308019,139.36818
1.354552,141.42702
1.467388,145.93591
1.3553115,141.06729
1.3742892,142.37361
1.260637,146.60191
1.3248508,143.78253
1.3477523,144.7481
1.3843915,143.70216
1.3248643,144.3966
1.3451357,144.47256
1.2425773,143.53726
1.2629322,143.55672
1.1641787,146.2496
1.1081542,143.40906
1.1361916,137.30606
1.1556956,130.65202
1.067195,132.63435
1.04562,129.83119
1.0101333,128.93997
1.0730286,128.434
0.9112079,122.968796
0.8900405,119.05311
0.91321516,118.18707
0.92614496,115.288284
0.9731282,120.44534
0.9524727,108.665276
0.9025679,112.36161
0.9188315,106.42063
0.90939784,105.752785
0.7928408,99.57539
0.8631355,99.8281
0.8694564,92.86807
0.8108349,93.417915
0.8039339,92.38902
0.78941923,83.985794
0.7121358,86.34091
0.72553164,79.01602
0.59375733,84.20972
0.59131783,78.55931
0.5939237,72.45103
0.5468221,69.939896
0.53648084,69.668846
0.38630316,67.19308
0.45404226,67.4309
0.3802366,66.18067
0.38457978,61.144093
0.29575545,58.40801
0.3487706,57.5258
0.37123907,53.04741
0.36133412,50.22159
0.41612706,44.80205
0.38636094,46.825817
0.40731886,42.560596
0.40725642,44.307938
0.34097067,40.398666
0.3795479,40.0
0.26096258,40.0
0.26295424,40.0
0.2719236,40.0
0.30822286,40.0
0.20209172,40.0
0.20772831,40.0
0.2046421,40.0
0.10831239,40.0
0.08708647,40.0
0.08105855,40.0
0.04223793,40.0
0.02647431,40.0
0.018289566,40.0
-0.04361471,40.0
0.008145387,40.0
0.050417766,40.0
0.0456693,47.475754
0.083063476,51.179737
0.15508594,47.18889
0.21368,51.313763
0.2875679,58.778816
0.33736297,64.13791
0.5696702,66.03727
0.5967261,70.31516
0.70072746,74.347084
0.75015306,83.72741
0.81657565,88.50651
0.86611056,93.48136
0.92008656,95.885185
1.0695128,98.59734
1.0870864,107.76299
1.2607354,107.87192
1.2365718,112.12295
1.3432659,115.68989
1.4105266,122.56546
1.3961499,127.53437
1.3964615,124.75166
1.4688705,130.3094
1.4635205,130.97795
1.4196943,136.35388
1.521276,138.32848
1.5325459,140.64009
1.5240763,143.01105
1.584118,145.36285
1.4881284,145.84747
1.5239648,144.36058
1.5700792,142.86372
1.4432358,145.40385
1.4478829,145.04752
1.5738256,138.5188
1.3872538,140.87762
1.4491576,139.72127
1.3707131,139.19722
1.2860538,139.8288
1.2521813,136.35408
1.3130696,135.75769
1.287909,131.42369
1.2235318,135.01929
1.20384,131.04506
1.2125534,127.46878
1.198894,122.73714
1.1528006,123.28559
1.0850326,119.4524
1.0624381,116.12661
1.1215919,113.49351
1.1679987,112.70406
1.1773046,112.55197
1.1653011,111.47572
1.0959256,104.53033
1.1245165,97.6889
1.0992789,95.52804
1.1361428,98.623405
0.9955874,91.72949
1.054359,91.46938
1.0273179,87.40869
0.99451727,77.947395
1.0235193,76.56795
0.92526495,81.16357
0.8354045,78.68106
0.82286906,74.430695
0.78972197,75.24296
0.7519263,69.26861
0.77046573,62.993877
0.7593318,66.57338
0.66108906,62.76586
0.6339639,59.202724
0.6150238,58.174355
0.7097451,57.17256
0.6409054,48.08669
0.56463766,48.49205
0.62294894,47.528423
0.67306864,44.061172
0.71312827,44.793674
0.66163987,43.13975
0.6759641,40.987896
0.61568326,40.0
0.6292928,40.0
0.5880972,40.0
0.6837247,40.0
0.641071,40.0
0.5660011,40.0
0.46821728,40.0
0.5257007,40.0
0.5491647,40.0
0.38830382,40.0
0.4568715,40.0
0.4262458,40.0
0.2694567,40.0
0.29448807,40.0
0.34876633,40.0
0.3285682,41.13191
0.3705446,44.21804
0.41805428,47.5868
0.40480077,48.661823
0.5794499,52.325836
0.53345984,53.13706
0.6614535,55.348534
0.75055295,60.34116
0.75299686,67.13148
0.8743781,73.136024
0.93352926,77.707596
1.0631567,77.93844
1.1363239,85.619446
1.3122151,92.14308
1.3681123,90.780685
1.4002095,99.71346
1.5169008,102.09943
1.521954,107.73076
1.6417627,110.50088
1.7380408,117.90844
1.7684712,121.613976
1.721723,127.03883
1.7534269,125.659515
1.7475649,131.16959
1.7696091,132.86865
1.7831283,136.07501
1.8655307,134.11069
1.8874934,139.24423
1.8902076,140.31866
1.9318858,141.02782
1.8830628,144.21297
1.72313,142.67952
1.887098,144.7574
1.7844406,144.71037
1.7635795,143.48503
1.779022,142.86757
1.7523714,142.07065
1.7679503,143.74501
1.7128773,142.76184
1.7050575,139.29814
1.6727972,137.02359
1.5739297,134.34315
1.6140208,136.92513
1.5324067,133.01619
1.5795782,131.10721
1.5483533,126.53055
1.4835284,126.527916
1.5307711,119.80161
1.5380192,119.43772
1.4552425,115.86704
1.5184305,117.3438
1.4711139,110.272156
1.4066882,109.29627
1.4581958,104.87534
1.4474125,100.83741
1.4232321,102.55496
1.3832238,98.866295
1.3710283,100.40688
1.2925473,97.32047
1.3614291,93.73158
1.293166,95.0094
1.2920301,86.8344
1.2271683,84.916756
1.1288725,81.23765
1.2820989,80.222565
1.2066988,79.1296
1.1078374,77.19488
1.0439229,67.50319
1.046569,72.67473
1.0526651,63.169506
0.9310926,67.47713
0.9662544,65.41935
0.93459696,58.372845
0.924333,55.267235
0.9042747,56.528202
0.9191081,53.10172
0.8866937,46.795048
0.8950576,52.49318
0.90061885,44.299603
0.95233077,40.0
0.9309954,45.595665
0.92604446,40.0
0.9654141,40.0
0.88860124,40.0
0.9382029,40.0
0.803939,40.0
0.7886369,40.0
0.7526606,40.0
0.6460361,40.0
0.68703663,40.0
0.6440095,40.0
0.62693644,40.0
0.6030462,40.0
0.58298314,40.0
0.56342417,41.488087
0.57912135,40.0
0.5209191,40.0
0.60827684,44.157368
0.60476935,44.34911
0.67163527,42.822136
0.66107464,46.422813
0.7509298,55.024536
0.89316344,54.82693
0.7969535,60.899647
0.9308129,62.66276
1.0650613,69.24192
1.1495239,74.27254
1.1583719,80.480446
1.3229198,87.310745
1.4194988,90.93044
1.5446442,97.57817
1.5259352,102.58757
1.5950066,100.76994
1.6240829,103.53546
1.647189,111.02941
1.8156307,115.90961
1.7370856,121.5749
1.9184636,123.149864
1.9239404,124.86548
1.8627852,134.55544
1.9361075,130.33983
1.913586,134.97388
1.9310088,138.22794
1.8816172,144.33224
1.9634752,142.66971
2.0086362,142.9666
1.9116318,140.90323
1.872073,142.99861
1.9070343,145.0774
1.8982711,151.80377
1.8640743,145.7405
1.7934271,144.08675
1.8848857,142.26709
1.8481445,141.49069
1.7861322,138.33319
1.7669446,137.38039
1.6744494,139.12398
1.668054,136.79755
1.6110058,136.0334
1.6202536,132.7542
1.589238,131.08597
1.5488598,125.02515
1.5653824,129.5895
1.4754984,124.99156
1.5167278,121.103676
1.5410849,116.32602
1.450694,118.145
1.4339162,113.754776
1.4909723,110.675735
1.462027,109.00319
1.3628805,101.15138
1.5199878,101.77027
1.3783408,98.08042
1.3746433,96.654976
1.3619586,97.63199
1.3696876,90.941124
1.2942493,88.21281
1.229767,84.31028
1.2393162,81.44301
1.1709639,74.134384
1.1183826,84.114426
1.1143386,80.19698
1.0091596,76.743515
1.0208513,70.75303
0.9307813,70.24611
0.9470928,63.607815
0.8815553,68.192696
0.92623544,63.91773
0.8975053,61.3725
0.8443389,52.841698
0.8056408,59.199093
0.8393011,47.381245
0.8037043,49.026157
0.8101162,50.200512
0.7935673,45.27126
0.74829715,44.186012
0.8211396,40.02596
0.6992319,40.0
0.73319626,40.0
0.740231,40.0
0.73444706,40.0
0.7166593,40.0
0.63950026,40.0
0.7034107,40.0
0.5448318,40.0
0.6076788,40.0
0.50128454,40.0
0.49980596,40.0
0.44409162,40.0
0.49434343,40.0
0.3205156,40.0
0.34450698,40.0
0.4450473,40.0
0.35806394,40.0
0.47730526,45.009483
0.3972837,46.676685
0.47185174,56.421257
0.50599426,53.723408
0.56122094,56.822617
0.654311,61.451714
0.71744335,68.93047
0.85575825,70.952156
0.9768544,73.55805
1.0296004,76.98884
1.0026653,81.37168
1.0835514,90.57372
1.2330636,93.31627
1.2600263,100.826256
1.3867296,105.13059
1.4614708,111.02061
1.4106889,111.1792
1.5472246,114.082756
1.6036328,118.71941
1.6073282,120.709854
1.6085577,129.20308
1.6483896,129.31526
1.6737854,130.58263
1.6968848,134.16658
1.7024302,135.9298
1.7667539,137.79935
1.6599209,141.84654
1.6482289,140.15349
1.6821407,143.23164
1.6016492,144.01006
1.6062539,143.87822
1.6333494,149.29652
1.5862242,142.48875
1.5140184,140.19527
1.5351236,143.04787
1.5003088,145.61462
1.5547068,141.68472
1.4098107,139.42105
1.3978502,137.74344
1.3430157,138.96788
1.4350556,136.92615
1.4102583,132.54797
1.3286234,128.06392
1.3256837,130.57324
1.2956393,125.01976
1.2269675,122.834236
1.2152351,118.21378
1.1844184,117.76478
1.1968262,111.0714
1.2088324,111.92262
1.1313753,105.93518
1.0786024,110.947945
1.0877225,103.98082
1.111352,99.41753
0.9975018,100.87444
1.0207578,103.66358
0.9796308,90.33832
1.0342971,91.95135
0.9505517,90.07088
0.9624012,85.03187
0.86286145,81.3332
0.91057724,78.9193
0.84843385,82.79503
0.8354197,78.990715
0.78092504,80.255486
0.6859672,73.644485
0.59492266,70.726685
0.5572272,72.47043
0.54794157,67.90557
0.56758827,62.575375
0.5399422,53.19096
0.46108538,55.86957
0.37002814,53.184055
0.4867888,51.231613
0.527512,47.385086
0.499855,47.234863
0.42880535,47.614548
0.42380673,40.398026
0.4126921,41.83725
0.40753785,40.0
0.4896063,40.0
0.36028457,40.0
0.3766758,40.0
0.41177863,40.0
0.34685117,40.0
0.23173136,40.0
0.27290374,40.0
0.25067234,40.0
0.22189525,40.0
0.16899578,40.0
0.106781386,40.0
0.06250875,40.0
0.03624168,40.0
0.034537524,40.0
-0.01577226,40.0
0.009654581,40.0
0.06110803,42.877937
0.16281563,45.383972
0.23891267,49.593582
0.1478607,54.260773
0.2339647,52.88138
0.34236354,59.662815
0.38344786,70.34026
0.45456123,68.15159
0.5244849,71.28674
0.71211946,82.75772
0.7025464,78.88521
0.74706143,89.90064
0.9139657,91.63185
0.9489442,99.074005
1.0385758,100.266594
1.0557346,108.87657
1.1510668,108.574875
1.1553481,117.69527
1.2508479,118.08606
1.2927324,125.06538
1.3530241,124.5036
1.421971,128.90895
1.348213,134.62788
1.390171,135.26201
1.3804818,137.62851
1.3819729,140.55338
1.4419602,140.33812
1.4027327,149.61034
1.3276528,144.6214
1.3598871,140.77473
1.4477694,146.58588
1.3033177,144.80931
1.3299404,143.70541
1.2785007,144.48445
1.2916235,142.40987
1.2848613,141.8176
1.1909957,143.95418
1.2551104,138.39339
1.1910162,136.98262
1.1851568,137.55936
1.0904255,138.60608
1.1104766,131.2524
1.0800517,128.63103
1.0332909,128.17656
0.92961174,127.73865
1.0273322,125.7999
0.9187152,122.50787
0.8842122,119.598236
0.91077137,118.34137
0.93622565,111.30047
0.8955714,109.641075
0.8205841,106.06369
0.8618247,103.14607
0.9422524,101.93454
0.8532081,101.06556
0.7742872,99.90458
0.86904484,91.3167
0.7468676,93.08757
0.78730816,88.49372
0.71712613,88.07796
0.6830638,85.603836
0.6490417,82.04895
0.6935826,79.197
0.67677945,76.48068
0.49119318,74.365974
0.49674457,71.82468
0.5400656,71.34445
0.4998524,65.95872
0.4006812,66.249794
0.33523065,60.573376
0.37042835,59.992573
0.3565933,58.633404
0.2969784,58.057373
0.28669786,51.057167
0.3212758,53.37963
0.3554533,44.8578
0.32863212,43.32302
0.38190818,41.970303
0.30611745,41.212105
0.36727828,40.66086
0.3965998,40.0
0.2475259,40.0
0.24918199,40.0
0.30432394,40.0
0.31610167,40.0
0.17600231,40.0
0.12261121,40.0
0.1031084,40.0
0.110502325,40.0
0.026529968,40.0
0.07557933,40.0
-0.05568285,40.0
0.012046611,40.0
-0.01776622,40.0
-0.010847655,40.0
-0.028282069,42.94267
-0.014757915,42.7239
0.0478986,47.15741
0.14288563,51.48183
0.22464433,53.44431
0.19302027,57.46885
0.2863792,57.03379
0.38758588,61.800232
0.46693265,66.21683
0.5009574,72.27187
0.6404158,76.96384
0.7718604,83.649605
0.7739249,87.78871
0.82873183,92.77703
0.8926957,95.49636
1.1086495,99.47883
1.1392329,108.76248
1.1215217,113.52082
1.2159685,113.11814
1.2441518,119.74379
1.3564447,122.317665
1.4153169,130.62418
1.420018,131.20946
1.4620881,131.93141
1.4186752,136.4083
1.4664074,135.54605
1.4535357,138.94472
1.4403967,139.99957
1.4450424,139.95609
1.4781238,141.29219
1.4942788,141.14445
1.4144877,140.9096
1.411753,147.43755
1.451327,146.87381
1.3122592,143.15608
1.4293513,142.9663
1.3750961,142.33952
1.3453084,139.89055
1.267006,142.15198
1.2831677,142.17235
1.2043855,135.98189
1.2122022,135.90547
1.2039788,132.6185
1.2016952,133.28421
1.1213534,131.83261
1.1734365,126.30597
1.1083051,124.257614
1.0612134,122.7455
1.051129,118.07053
1.1131933,118.94897
0.97494084,114.61196
1.0583293,115.32477
1.0399042,105.76242
1.0994539,109.589905
1.1092373,107.234344
0.9638583,100.65532
1.005104,96.65098
0.9563785,95.56826
1.036221,92.38224
0.9686727,87.394875
0.9727983,88.105194
0.91429144,84.196365
0.85106385,82.01892
0.8733765,77.89703
0.86734223,77.96532
0.7383909,75.57036
0.8100149,77.97085
0.7421349,68.796814
0.7101332,68.19324
0.60499287,62.946426
0.6005405,63.472786
0.5968992,58.97361
0.5647965,58.007782
0.5950758,52.541985
0.6815893,51.780174
0.5947876,49.459335
0.5861699,48.31412
0.61843127,47.38847
0.6271995,45.073013
0.659347,41.162758
0.6337598,42.48021
0.5139859,40.0
0.6027998,40.0
0.6025568,40.0
0.5562147,40.0
0.48076364,40.0
0.5103437,40.0
0.45082048,40.0
0.44084615,40.0
0.36187065,40.0
0.36061507,40.0
0.3255318,40.0
0.29534987,40.0
0.2277877,40.0
0.23361824,40.0
0.22978431,40.0
0.28982562,40.0
0.2881139,41.81104
0.28319836,45.573463
0.34153897,50.266922
0.4721042,51.24995
0.39455584,57.937878
0.5432103,60.952248
0.6559659,63.96639
0.8007249,69.996414
0.8069604,68.15767
0.8539255,74.58028
0.97326994,84.32872
1.1114824,88.79569
1.2030262,90.37319
1.2343584,97.71306
1.3722305,100.34344
1.4646528,106.22638
1.4404453,105.81324
1.567521,114.74769
1.6675799,119.129684
1.6500791,121.344406
1.7404606,123.69227
1.7373475,131.19055
1.7057126,131.77176
1.8300135,132.12323
1.7634293,136.41049
1.8103693,138.35901
1.790702,140.05449
1.7629162,144.19122
1.8165656,142.67169
1.8215864,144.51569
1.7625915,144.19865
1.7786897,141.15138
1.7865378,143.39049
1.6856966,146.94891
1.6890898,144.86499
1.7293886,144.77003
1.7183341,141.37698
1.6287059,141.4574
1.6595918,140.40535
1.5723344,134.45695
1.6939542,133.02861
1.6383383,131.57706
1.5869751,128.73932
1.5315918,126.099945
1.4764498,125.70901
1.4203876,123.16127
1.4260765,121.98409
1.4246283,119.294975
1.4094421,119.790344
1.3784578,112.34126
1.3941852,108.2518
1.3519074,107.50546
1.3527926,104.95546
1.3656805,107.63049
1.319238,102.12567
1.3486484,102.08093
1.3296269,98.71922
1.2860119,97.05283
1.2690856,91.305954
1.2976608,93.57617
1.2102598,86.61164
1.2488285,84.18879
1.1302754,82.261024
1.1481755,76.33858
1.1216799,72.69057
1.0568478,74.20885
1.0731989,68.35633
1.0035686,66.83611
0.8974227,66.45821
0.8827455,63.123436
0.9146232,59.840866
0.9562281,56.93952
0.876787,53.916157
0.90433115,56.22713
0.8746794,52.874245
0.8573979,49.43517
0.9197551,46.254887
0.92120147,45.29335
0.87937987,40.0
0.808325,40.0
0.84605104,40.0
0.85341847,40.0
0.8212603,40.0
0.7952507,40.0
0.8205884,40.0
0.7785021,40.0
0.6924825,40.0
0.64768755,40.0
0.7021312,40.0
0.63479924,40.0
0.5587205,40.0
0.5989005,40.0
0.562699,40.0
0.55828863,40.0
0.47221082,40.0
0.61897033,41.13022
0.56768054,40.490074
0.5902326,44.07368
0.58969533,46.245583
0.6639131,49.92726
0.7350663,54.930508
0.8263251,61.131374
0.82656753,65.113556
0.9365887,68.63224
1.0253054,71.07902
1.1521373,76.4277
1.300206,79.5587
1.3044078,86.785736
1.3884997,92.32466
1.4941143,97.19654
1.5288081,97.348755
1.6987646,104.63584
1.7112752,109.785446
1.7074944,108.72755
1.7964642,118.70787
1.8097142,117.86134
1.8737693,123.758064
1.8571483,134.63817
1.9445248,127.90064
1.9401436,132.35619
1.9609821,137.08705
1.9703146,136.76996
1.9733142,138.71782
2.0262985,145.5798
1.982708,145.94252
1.9643424,142.37146
2.023605,147.1981
1.9371116,147.25723
1.9122516,148.84663
1.8736001,144.87912
1.8813418,141.44878
1.8520755,142.90163
1.8050122,140.37253
1.6856452,138.91615
1.7303256,139.02362
1.7362101,139.61356
1.733203,133.29663
1.6038051,138.8217
1.6714952,133.80333
1.5351197,128.54013
1.6051661,123.52747
1.6383454,126.69396
1.5489979,124.53345
1.4853072,116.29923
1.5315735,115.36578
1.465225,114.08786
1.4601223,112.36835
1.4908388,110.650955
1.4773546,107.4527
1.4316578,104.20459
1.4603456,101.769615
1.4100109,97.744446
1.3999931,98.23281
1.4034837,93.11803
1.3883345,92.62986
1.3840358,89.82573
1.2630758,87.50317
1.2900338,85.81289
1.2836337,82.81048
1.1964251,78.89648
1.2102381,75.81698
1.1318475,75.568
1.0120873,73.00738
1.0314171,66.77394
1.0299298,65.96435
1.0939543,59.04456
0.9129512,60.90996
0.96424854,56.773182
0.9322495,55.40511
0.82937413,52.142124
0.88033193,51.62204
0.9329816,46.0761
0.8631397,45.316647
0.85777456,46.953987
0.88225394,40.0
0.8484667,40.0
0.81831795,40.0
0.8060916,40.0
0.7759982,40.0
0.7835215,40.0
0.74948514,40.0
0.75905305,40.0
0.67573416,40.0
0.6328915,40.0
0.63376766,40.0
0.6116259,40.0
0.5551497,40.0
0.5438267,40.0
0.38857204,40.0
0.54238737,40.0
0.39284372,41.88321
0.4729057,40.809216
0.47634932,40.318893
0.44044304,47.335423
0.4727244,45.255627
0.53734386,52.87146
0.5619827,53.289932
0.61885506,55.713276
0.73241085,62.02918
0.78345245,67.48481
0.94924575,72.06918
1.0002545,73.80077
1.0210356,79.14098
1.1924181,84.90093
1.2059398,88.93731
1.3263363,95.50305
1.3499373,96.61567
1.4202049,103.10723
1.501636,109.20895
1.4926485,115.03619
1.5999523,115.88886
1.6285406,116.349174
1.6872725,124.20248
1.6804082,128.54459
1.7303818,133.33327
1.7376565,133.3499
1.7666608,137.62202
1.7876099,137.99158
1.7519083,136.39563
1.7606711,142.13484
1.754728,141.55524
1.677296,142.83513
1.7884644,143.68588
1.6906263,142.34926
1.6810704,141.06293
1.657361,144.2356
1.6641855,143.71048
1.6149052,143.93948
1.5906471,138.63805
1.5465347,142.29285
1.494732,141.08272
1.4662007,137.07204
1.438001,137.5564
1.4484843,132.09445
1.4079065,132.28012
1.3497401,130.57558
1.3073924,128.9965
1.258927,123.47995
1.3757743,118.96661
1.2348722,116.54274
1.1660218,116.2919
1.2441524,114.509186
1.216886,110.68243
1.227594,110.333916
1.1722829,107.54777
1.2910281,107.45929
1.1195817,101.94154
1.1781124,98.47028
1.1471545,94.76761
1.1245068,93.21218
1.043686,91.590546
1.0564004,87.831
0.9749873,86.869354
0.980537,84.50027
1.0355216,81.006096
0.8633593,80.77827
0.8134245,79.61075
0.83681357,75.81662
0.73433053,73.9136
0.7464451,70.35369
0.64056545,68.12836
0.60250866,64.043564
0.5775246,62.131607
0.578015,57.900917
0.5387853,59.99724
0.52448803,53.75773
0.58514255,55.67232
0.5898149,48.647903
0.5566911,47.347443
0.55111945,41.789185
0.44681224,41.180805
0.4158797,41.51976
0.5273985,40.0
0.4163136,40.672585
0.49482304,40.0
0.43415618,40.0
0.41573328,40.0
0.35539582,40.0
0.27501383,40.0
0.21263656,40.0
0.28677773,40.0
0.22939597,40.0
0.27841875,40.0
0.12035647,40.0
0.21614683,40.0
0.076984435,40.0
0.084704325,40.0
0.12640096,40.0
0.09470196,40.0
0.12525435,45.73844
0.14323424,47.178585
0.2126367,51.075134
0.17909977,52.121174
0.31746227,58.846577
0.38806504,58.450916
0.40523553,62.41956
0.549307,73.042725
0.5887597,74.02987
0.67451274,82.74312
0.77618057,87.71588
0.88219774,86.639305
1.0038197,91.22432
1.0617696,95.41784
1.1603062,103.89762
1.1288915,108.89135
1.1980865,113.38791
1.2915902,116.841965
1.3164347,119.34062
1.2644575,124.36478
1.3905039,124.390045
1.4414321,134.09248
1.4267938,131.86067
1.392605,136.0508
1.383267,138.20735
1.4751961,141.38542
1.3800517,142.75352
1.4247012,143.29626
1.419078,144.50117
1.4702041,143.3538
1.3493061,143.02261
1.3008885,144.78815
1.3454331,146.5634
1.392439,144.56853
1.2705132,144.30234
1.2839528,141.46588
1.1960136,142.29428
1.2237433,140.38731
1.2018607,137.3844
1.1143863,135.42346
1.1662815,139.9102
1.0796281,131.21257
1.1476643,127.61568
1.0216391,130.43622
1.0202059,125.41259
0.97678214,125.408
1.0056638,118.49285
0.97488475,116.526634
0.9728845,117.15625
0.9615258,110.66424
0.9571927,111.08861
0.9315422,108.057686
0.95825386,102.68654
0.873477,100.097786
0.93445307,98.19143
0.8193851,97.129654
0.8162333,97.96584
0.8552399,89.10026
0.73733,93.485664
0.69297063,83.92774
0.6875911,87.01516
0.6566674,83.94629
0.68299633,80.06797
0.58880174,80.088905
0.6304361,77.42075
0.58400816,70.70841
0.47078294,68.633606
0.41332883,68.897484
0.34672523,66.7072
0.37403202,62.66849
0.3621197,60.84526
0.43841958,54.825928
0.3999014,52.67045
0.33620426,52.43812
0.28539723,50.909695
0.29450175,49.26341
0.31710902,43.33282
0.35847864,40.0
0.36381036,42.32754
0.31199247,40.0
0.32056376,40.0
0.31976983,40.0
0.3191499,40.0
0.25434294,40.0
0.18417369,40.0
0.17334796,40.0
0.093833946,40.0
0.1250241,40.0
0.0755509,40.0
0.14430505,40.0
0.03606739,40.0
-0.04828894,40.0
-0.01972562,40.0
-0.05260336,40.0
-0.046739858,41.039524
-0.05049295,40.0
0.033603944,46.64103
-0.0026588878,48.246273
0.08005498,55.628815
0.124476746,51.13481
0.1255263,61.874542
0.25895438,60.664692
0.334164,65.46661
0.4125148,69.749626
0.56882447,75.24768
0.56463337,79.51168
0.67569697,82.54778
0.77007866,87.24517
0.7807431,92.649025
0.9241169,96.61141
1.0271077,103.482475
1.0593246,103.776184
1.1774057,115.26979
1.1508127,115.82599
1.2283314,118.12485
1.1800293,124.79982
1.2808455,126.53809
1.3749532,132.67017
1.3325065,133.7095
1.4128982,137.97461
1.3470194,135.27107
1.4585652,140.06038
1.4427997,140.98473
1.3744584,144.00241
1.4081124,143.10953
1.3739644,139.32524
1.3969709,150.45793
1.4813855,143.48918
1.3692019,145.24118
1.3832194,144.37018
1.3111037,144.66277
1.3290817,142.59442
1.2942841,138.71126
1.2580463,138.1018
1.1893764,137.57008
1.1333265,137.30206
1.1594013,132.62079
1.203774,133.93594
1.1164262,129.57924
1.128049,136.95767
1.0552089,124.19786
1.1063025,123.307816
1.1205583,119.2788
1.0955503,116.82555
0.95628595,115.11501
1.031157,112.50006
1.0333643,109.9452
1.0188029,108.077675
1.032823,105.18695
1.0172448,106.494965
0.99040323,96.34741
0.93296933,99.748695
0.9840529,92.36013
0.88394845,90.6175
0.8964467,87.28486
0.80718267,87.16096
0.8592511,81.555084
0.75243104,88.127396
0.80271155,80.61465
0.6900978,77.08878
0.7046834,76.13576
0.63407856,74.69097
0.6347965,69.53667
0.59890777,66.40096
0.5472274,59.439648
0.5396053,57.089985
0.5378537,57.512085
0.55655277,58.067562
0.4992744,57.531116
0.53114426,51.716156
0.4333624,51.363552
0.5147508,45.91173
0.51502275,48.482864
0.57093793,40.630856
0.49236456,41.28619
0.5244579,40.0
0.5088224,40.0
0.4687494,40.0
0.50365657,40.0
0.37469316,40.0
0.4499612,40.0
0.38767093,40.0
0.33895567,40.0
0.27817723,40.0
0.2830444,40.0
0.3586728,40.0
0.23759441,40.0
0.2685777,40.0
0.25363478,40.294933
0.24609452,40.0
0.17431904,40.486965
0.25754124,40.0
0.23062107,42.9952
0.20732886,49.091312
0.31051025,54.677586
0.36994419,50.22438
0.43579248,55.523438
0.46334338,56.528374
0.5722491,63.893036
0.65993875,69.84497
0.75869566,77.17983
0.92847234,75.18792
0.93915075,88.02615
1.0937344,91.46139
1.1662074,94.9206
1.222569,97.43916
1.3210739,100.559265
1.3619936,105.02161
1.3814279,113.05122
1.4567285,117.20772
1.5864325,120.17131
1.564637,126.03215
1.6569955,123.73881
1.6121374,128.60721
1.5986719,134.83536
1.7052118,134.71906
1.673447,138.3637
1.7561692,135.30202
1.7274966,141.5612
1.7674586,144.94203
1.6974187,145.04895
1.6672235,146.23244
1.7093463,143.79262
1.7982179,145.00125
1.6628064,142.90678
1.7022436,144.73773
1.6945127,146.9965
1.6259094,144.72995
1.6069936,141.4056
1.6194274,141.0824
1.549931,138.52599
1.560657,136.23138
1.4775532,133.26152
1.530172,128.98508
1.4479342,127.56009
1.453929,126.9445
1.467536,127.04142
1.4167928,121.18605
1.4002509,125.0018
1.4128115,121.66564
1.3594303,119.5348
1.365202,117.05919
1.4051338,109.94733
1.3623122,107.45779
1.3200048,104.73312
1.311121,103.94648
1.3494726,100.487335
1.3522714,100.56313
1.3032162,100.05471
1.2238755,94.31269
1.2489469,89.33222
1.1768142,88.217415
1.1672335,85.2369
1.207193,83.123116
1.2119945,83.49302
0.97541416,81.08621
1.1431634,76.803215
1.0033654,78.176735
0.9944413,69.35814
0.9350202,66.14217
0.9528503,68.458855
0.91966164,62.8146
0.90922457,61.296276
0.8808504,53.901203
0.83093345,49.72232
0.9216285,53.561523
0.8267011,46.503906
0.81889826,47.83626
0.8844385,46.374622
0.8904825,42.037132
0.8379162,41.06872
0.85645556,40.0
0.8441237,40.0
0.83241135,40.0
0.80674905,40.0
0.78878736,40.0
0.7605678,40.0
0.66424096,40.0
0.6934008,40.0
0.65031946,40.0
0.6759504,40.0
0.61188114,40.0
0.6188156,40.0
0.44215682,40.0
0.5056096,40.0
0.52733094,40.0
0.5326249,40.0
0.42568427,40.636055
0.59809697,41.56708
0.5912975,47.173763
0.59550124,47.286552
0.61726683,51.401836
0.70978487,55.997936
0.80578077,59.210674
0.8478567,68.17473
0.9149767,68.4322
1.0641764,76.1361
1.1762065,72.96196
1.2717199,81.39102
1.4353968,86.314865
1.3750654,93.660484
1.5165259,93.9596
1.5538746,101.66638
1.6105956,108.78917
1.7399939,109.78941
1.6979519,114.8779
1.7949699,119.12103
1.8726497,123.345955
1.8766112,124.62027
1.8898221,132.39957
1.9254687,135.52568
1.9928823,130.50967
1.963779,139.61937
1.9430192,138.63069
1.9141014,142.86511
1.9619157,140.91566
1.9841776,141.89326
2.0093172,151.34476
1.9498878,142.4144
1.9327004,144.52997
1.8635871,141.36722
1.8963466,143.09721
1.8791859,140.30272
1.918017,141.93198
1.849079,140.628
1.7811561,135.90414
1.8118207,138.84561
1.7766197,138.13176
1.6036059,134.93895
1.6471924,132.38231
1.6093243,129.54437
1.581644,125.92751
1.5775534,127.901855
1.5941391,123.97833
1.6360061,116.949234
1.5029081,122.863396
1.4696118,117.45033
1.5214099,117.20377
1.4943563,106.29655
1.5324453,108.30165
1.4854633,103.28564
1.4531542,103.48153
1.4872295,102.00053
1.3774105,99.80143
1.4197522,100.314766
1.4449135,94.59406
1.3947654,91.20058
1.3048028,87.17329
1.3171,87.89857
1.22077,84.41634
1.2540754,77.301094
1.1899962,77.9023
1.16543,75.31881
1.080652,74.41833
1.0240595,67.25716
0.9971893,68.77721
0.968835,67.59506
1.0034392,64.01134
0.98540545,62.089542
0.9310484,55.49387
0.8843138,55.733353
0.9377983,55.67908
0.89125293,53.14597
0.89429504,50.618237
0.9236978,45.64147
0.85923064,45.745647
0.9720459,40.356163
0.85371906,40.0
0.90680104,40.0
0.82596266,40.0
0.8258082,40.0
0.87954605,40.0
0.7563062,40.0
0.72212,40.0
0.70579934,40.0
0.6524441,40.0
0.65363055,40.0
0.5621105,40.0
0.4788766,40.0
0.5993936,40.0
0.5514583,40.0
0.51260316,40.0
0.49254167,40.0
0.47058833,40.0
0.486655,41.29376
0.5380211,48.922455
0.5820067,50.776962
0.6406257,46.97118
0.6591676,53.848576
0.74068403,60.236984
0.83766085,64.24176
0.82103133,65.8392
0.9096916,72.270935
0.9849987,75.38317
1.1515546,82.24366
1.2764927,86.07716
1.3104897,88.91879
1.3809316,94.14986
1.5035928,102.211845
1.5123106,108.40917
1.6251252,113.498146
1.5506293,115.85399
1.6557835,117.9135
1.7505339,121.55122
1.7032031,124.77405
1.7974364,130.59662
1.7953705,131.03154
1.8130599,139.25679
1.9160846,133.87549
1.789502,139.27007
1.804927,137.09769
1.9230078,141.84436
1.7559628,142.85568
1.8776293,143.52597
1.8172233,144.5078
1.7729529,144.329
1.7594535,148.75397
1.7575468,142.41324
1.691464,141.5211
1.7062169,139.53375
1.661923,142.86674
1.6668303,144.30861
1.6016617,139.1318
1.5701464,138.82683
1.4700624,135.55637
1.4901567,131.69562
1.4177209,129.31271
1.3808035,130.83595
1.4003782,123.54258
1.2991188,121.418816
1.3632153,122.79907
1.3824857,119.333305
1.3268658,117.57338
1.3363822,116.18508
1.3261935,111.724
1.2040874,111.653496
1.2780291,110.26074
1.206057,102.660065
1.3025285,103.428375
1.2087756,99.69046
1.1960537,95.33052
1.1011432,93.56801
1.0992455,91.82618
1.1149026,88.53018
1.047539,89.64514
1.0468128,84.34054
1.0746679,81.92017
0.901225,78.324066
0.8948806,72.26635
0.8420071,72.5579
0.8056921,70.28577
0.78154516,65.37617
0.7368304,70.95985
0.69955254,61.2402
0.6307606,59.760708
0.604984,53.11148
0.6731059,57.65144
0.59465253,49.332176
0.6234267,50.97225
0.5702675,46.860622
0.56791586,43.861088
0.5996673,49.516464
0.6608613,40.0
0.5601855,40.0
0.58174944,40.0
0.64862794,40.0
0.50899,40.0
0.47210592,40.0
0.4606397,40.0
0.45996454,40.0
0.4301013,40.0
0.39335522,40.0
0.28973475,40.0
0.3184063,40.0
0.27286127,40.0
0.26536298,40.0
0.16415177,40.0
0.18893406,40.0
0.15200627,40.0
0.14786251,43.37184
0.14357823,43.556324
0.16084638,46.4691
0.20980722,46.58619
0.2729068,51.25463
0.35257038,58.492535
0.41454452,56.92654
0.46767536,58.79432
0.56956625,66.43202
0.677441,69.93918
0.7630176,76.43673
0.81223464,81.71799
0.82685584,85.8314
0.96998096,89.22826
1.0230556,96.15107
1.0307288,97.53244
1.1525704,100.47729
1.1703331,106.62513
1.3091007,110.55006
1.3937845,116.37005
1.2818329,118.48907
1.3662915,125.18745
1.4477781,123.850136
1.4848089,132.8
1.5071062,133.99371
1.4806609,141.3802
1.4216363,138.9589
1.4530661,140.6843
1.5567358,140.12338
1.4859403,142.40436
1.5094476,144.71713
1.4706367,143.09183
1.4669865,147.2392
1.4248891,149.06116
1.3468207,143.92203
1.3727025,144.94421
1.2981154,140.27106
1.2200226,143.74463
1.3204075,137.93893
1.2835087,132.99591
1.2555649,138.39265
1.2352439,137.06122
1.1243521,135.02576
1.1093905,131.654
1.1042544,127.580536
1.0869601,126.72797
0.9953364,126.25133
1.1194445,125.001945
1.0119008,122.57915
0.9767499,115.571686
0.9387786,113.69897
0.99595714,115.045494
0.9278559,112.15369
0.93338794,101.204384
0.9468826,106.58802
0.89107615,100.89984
0.93435603,98.87055
0.8864367,98.48673
0.837444,93.84801
0.88895285,88.0029
0.8350706,89.51953
0.81342494,86.46504
0.65829533,86.06474
0.62938935,82.41021
0.6339789,79.4367
0.6456869,77.203926
0.46746585,74.93648
0.48992425,71.38096
0.53716445,65.64998
0.4243144,66.86662
0.4322249,66.589615
0.3883255,58.168175
0.37725693,56.49328
0.3388143,54.931545
0.34570602,51.72116
0.37505487,51.073208
0.3107768,48.964733
0.34321937,41.81872
0.32387406,45.07839
0.3495632,43.816517
0.30813643,42.479412
0.36851215,40.66375
0.3368754,40.0
0.25503102,40.0
0.1980009,40.0
0.25995278,40.0
0.22286281,40.0
0.22003134,40.0
0.13296063,40.0
0.113550246,40.0
0.12637597,40.0
0.08214811,40.0
0.04911667,40.0
-0.05039545,40.0
-0.039178472,40.0
-0.036367357,40.0
-0.0723023,40.0
-0.043631665,40.0
0.0025191582,45.92602
0.016069883,44.508816
0.12696789,51.583195
0.14621522,54.176853
0.13413706,56.231636
0.32765982,64.77525
0.32380494,69.37133
0.421667,71.63244
0.5731606,72.60144
0.6226666,77.01217
0.7005301,83.34351
0.778485,92.00631
0.9227554,97.059044
0.8805575,100.16838
1.0650346,104.38792
1.1152903,106.33303
1.1363586,114.43415
1.118458,113.01932
1.2279543,120.66954
1.2889998,123.65916
1.2769538,126.94508
1.3804089,127.954315
1.4626352,133.69516
1.4302182,139.04999
1.50373,138.53009
1.3675042,139.68594
1.4002806,143.82898
1.4377602,142.84193
1.3707274,139.98398
1.4645567,148.874
1.3868608,149.00978
1.3391503,146.51901
1.2710859,139.1351
1.2569873,145.74757
1.3378704,143.55495
1.2822989,144.25793
1.2394822,141.16734
1.2217817,144.41425
1.1333055,138.34546
1.1699704,135.06047
1.2289197,133.4073
1.1128368,132.26677
1.0252728,128.67513
1.0830559,127.24601
0.9514727,123.66432
0.9972862,124.45926
1.0045074,118.67494
0.9696145,119.636696
1.0231597,117.693
0.97511697,113.78937
0.8507859,107.06567
1.0420471,106.67758
0.96609795,104.10287
1.0127916,105.81737
0.9920319,97.00288
0.8645654,98.63207
0.828009,93.99799
0.8223671,97.095474
0.8261823,92.59142
0.861314,88.03829
0.8313035,86.185745
0.734131,81.87014
0.7254837,78.03688
0.6482699,75.70544
0.54139084,73.977905
0.65156144,67.03366
0.6578556,69.00268
0.5670048,67.004005
0.50774544,62.93077
0.47561172,59.81789
0.537426,61.53148
0.47373527,54.46246
0.4224125,59.810818
0.4083897,54.17403
0.396593,52.75402
0.46653694,46.783634
0.4995342,42.05383
0.42342788,42.889587
0.47695738,41.897644
0.373697,40.0
0.44319,40.0
0.45917037,40.0
0.3659953,40.0
0.3779231,40.0
0.402345,40.0
0.2794836,40.0
0.24421851,40.0
0.13706575,40.0
0.3253103,40.0
0.17124826,40.0
0.20798121,40.0
0.15203778,40.0
0.20455562,40.0
0.12565798,40.0
0.002566222,40.79642
0.14834899,40.0
0.25534686,46.011
0.17629252,44.95161
0.3548534,53.305943
0.2310159,55.394085
0.38801208,59.571396
0.53924257,61.63549
0.53079474,66.56353
0.64817125,71.832375
0.708148,75.25054
0.78814346,82.46702
0.9160428,85.86394
0.9421926,88.19154
1.0411133,93.745094
1.1946702,98.88825
1.2459716,100.69615
1.2752935,114.8298
1.3530422,113.27937
1.3742162,116.725365
1.5047706,115.379684
1.497022,125.6258
1.4035742,129.20944
1.5357945,130.23979
1.5835906,128.76274
1.5916396,137.00012
1.6627672,134.34416
1.6068783,137.99182
1.5989138,138.52928
1.7109094,141.90247
1.6238661,148.18526
1.6668248,144.65398
1.6530994,142.40375
1.699469,145.24883
1.5380812,144.09105
1.6188495,142.80482
1.6599814,143.16278
1.6003339,143.67651
1.521478,142.27466
1.4783815,140.31648
1.5448643,136.20316
1.4423326,134.48997
1.5012181,134.45428
1.3457866,131.63972
1.5147787,130.531
1.4127698,128.04631
1.3382022,125.87302
1.2105482,121.67737
1.3394021,120.2663
1.2690469,119.57208
1.3337735,116.97091
1.2827628,114.84778
1.3519051,106.921524
1.2681669,104.50984
1.2894677,104.42189
1.2056221,100.672874
1.3267542,99.12229
1.2026087,98.74026
1.1925167,94.38867
1.1393512,90.85461
1.2055495,89.41963
1.1410221,86.03038
1.083633,85.773476
1.1667268,85.56127
0.9809182,74.6446
1.0753293,76.26541
0.9361692,77.42697
0.90758455,73.21185
0.87411934,69.96433
0.87629837,65.638466
0.90248233,60.89104
0.833817,63.341373
0.78719926,58.312492
0.7902656,60.708157
0.7666113,51.603844
0.75472534,49.608994
0.75542057,50.71314
0.8580474,48.09175
0.8379013,43.491783
0.79536927,42.986362
0.79508835,40.0
0.7449983,40.0
0.7144791,40.0
0.7045278,40.0
0.7679548,40.0
0.7328185,40.0
0.6837776,40.0
0.6557969,40.0
0.6804007,40.0
0.6316609,40.0
0.55701226,40.0
0.5127793,40.0
0.54909664,40.0
0.48798624,40.0
0.5033482,40.0
0.44032332,40.0
0.48660254,40.0
0.5582563,42.718952
0.5268372,45.723568
0.49681988,47.562725
0.6040353,47.997597
0.6295843,55.81684
0.7420764,59.4278
0.73470396,56.226616
0.90494835,70.54013
0.9140182,69.89832
1.0110824,70.87629
1.116694,76.91895
1.1623081,82.64305
1.2781807,88.78837
1.3825697,92.64438
1.5090806,96.94164
1.5446264,99.74526
1.6163524,105.0306
1.6935316,107.91244
1.6840574,117.586235
1.7778503,114.64411
1.8209422,121.14657
1.8560727,125.889854
1.9516596,127.422165
1.9647183,130.97728
1.9197286,140.37758
1.9143348,135.29465
1.9025149,139.31412
1.9762534,138.13042
1.9436871,142.44807
1.9151845,143.2074
1.9183763,147.35655
1.9245317,145.40628
1.8739537,141.29135
1.8921168,143.09146
1.8115202,138.87643
1.8684934,141.95561
1.8025348,143.02419
1.8083278,141.36992
1.7681481,136.80183
1.7472914,136.08069
1.7213091,136.8713
1.6645501,131.28676
1.6603897,133.56126
1.6209726,129.54628
1.5466453,126.87494
1.5665188,128.95206
1.6246526,125.50319
1.5518861,117.58696
1.5014789,117.578674
1.5497019,112.33107
1.5343823,113.695015
1.4602304,112.246025
1.5461626,106.226585
1.4514824,100.04383
1.4295605,99.332214
1.46908,100.04323
1.4248899,98.90176
1.4729532,93.3072
1.4556754,94.11532
1.456394,90.421036
1.4731656,85.39926
1.2899462,88.52292
1.390085,80.45674
1.2443136,80.47887
1.2064264,80.78914
1.1620616,78.51531
1.1339056,70.73757
1.0803559,73.51365
1.0425153,66.125534
1.0191153,59.67756
0.963226,66.01736
0.8900149,64.25063
0.9422066,57.53342
0.896521,53.918335
0.9868155,49.051815
0.9429792,45.790134
0.869019,45.402885
0.9592619,45.249966
0.8731766,42.09057
0.90669495,40.676502
0.8331433,40.0
0.87767476,40.0
0.88598335,40.0
0.86533237,40.0
0.84116393,40.0
0.79477763,40.0
0.64123285,40.0
0.72579676,40.0
0.67186844,40.0
0.70262164,40.0
0.6376298,40.0
0.50005865,40.0
0.60679036,40.0
0.53443533,40.0
0.48329595,40.0
0.5448908,40.0
0.5179834,40.0
0.5334156,43.55453
0.5741922,44.296005
0.64763314,44.647736
0.68626606,54.390827
0.7537673,55.937546
0.7773946,56.145855
0.82888633,63.8554
0.94698966,71.1213
1.0927821,73.352715
1.1512413,79.06066
1.2503544,79.73838
1.2621927,92.160614
1.4014862,93.00276
1.4619365,99.188385
1.5748371,105.17132
1.5712371,108.7607
1.6040809,107.48069
1.7187533,112.384254
1.6857909,117.84957
1.749406,121.647316
1.756743,124.50531
1.7923925,132.83075
1.880504,130.52214
1.8539969,132.82329
1.8245386,135.39392
1.9171556,138.7008
1.8572532,138.99944
1.8379381,139.86214
1.8623167,141.97449
1.776539,143.0163
1.7936236,145.67445
1.8487806,145.19308
1.7932246,147.83255
1.7226677,145.23744
1.7876298,146.52393
1.7695761,140.59529
1.6612369,141.65938
1.653219,141.00139
1.619931,141.86281
1.591783,134.59993
1.5629606,136.39995
1.5313567,130.90808
1.499348,129.0537
1.5382073,131.3245
1.4509032,125.23683
1.4536612,124.29534
1.4047496,122.02732
1.3655194,120.71907
1.3778951,113.68855
1.4075028,113.79264
1.3953823,110.90899
1.3188592,109.841484
1.3259221,105.44434
1.297555,104.326775
1.2904596,99.586296
1.2569227,97.01752
1.237921,97.01864
1.1636007,88.82961
1.1711633,91.19564
1.2469511,84.157
1.1508493,85.93705
1.0662065,81.39585
1.0737456,78.28555
0.9343609,80.41938
0.95998454,73.60166
0.80054915,68.80764
0.8362954,68.11979
0.74100184,67.67964
0.75137734,68.83524
0.7741177,67.4215
0.74297035,62.198742
0.7493997,58.04296
0.67081964,52.495975
0.7057683,51.95213
0.7143744,47.32622
0.6987464,45.63867
0.7217035,49.21282
0.61371964,40.794895
0.58127445,40.0
0.65491486,40.0
0.6228703,40.0
0.623334,40.0
0.6458233,40.0
0.49605435,40.0
0.5742959,40.0
0.42195842,40.0
0.42139027,40.0
0.47661924,40.0
0.44989386,40.0
0.32543027,40.0
0.36113584,40.0
0.17649221,40.0
0.24034843,40.0
0.16673726,40.0
0.1908956,40.0
0.25877112,40.0905
0.17309901,40.0
0.22089891,45.454094
0.2821701,50.423573
0.3988831,55.505535
0.41522554,54.614616
0.538692,60.60555
0.48504847,61.690983
0.6164045,66.28195
0.6672016,75.95705
0.7818663,80.584915
0.8904596,88.29261
0.9453234,91.09882
1.061072,90.36001
1.1010385,95.432655
1.1615754,97.58067
1.3033917,103.61083
1.2944576,111.71815
1.2856897,111.5156
1.4443899,115.979515
1.4664692,122.091255
1.485551,125.82463
1.4813534,131.29442
1.5862411,127.60115
1.5449148,134.45569
1.6161547,138.58232
1.4985387,138.57689
1.6026641,140.85208
1.5576633,141.60262
1.5343136,149.1728
1.5738839,142.70186
1.5351905,145.39935
1.4919713,147.33052
1.4542942,142.80537
1.5102056,145.00394
1.5000204,142.31377
1.421031,142.17937
1.4139317,140.92218
1.4130602,141.20131
1.3576872,138.94974
1.2818507,142.34808
1.2786063,136.49153
1.1933956,131.33617
1.1745856,132.78612
1.1207964,130.90547
1.1081884,128.28387
1.0711573,126.65993
1.0196822,120.66552
0.9732412,125.391464
1.0319855,113.67394
0.9943092,116.182465
1.0629976,113.349724
0.9848668,104.8086
1.0661372,108.047905
0.9761562,107.279144
0.97466594,102.31912
1.0400759,94.7378
0.8569618,93.94889
0.82493085,91.90328
0.8848583,92.90056
0.82782567,89.72177
0.86093646,88.13251
0.7326005,78.407616
0.7028836,81.36623
0.5775918,82.24254
0.58823,78.41367
0.7168936,71.44162
0.5981694,71.943405
0.5182903,68.20246
0.5054818,67.44678
0.46509963,60.975548
0.44856784,61.49402
0.46073964,58.731766
0.37480342,51.707573
0.372528,53.06556
0.44565442,50.31142
0.39308763,47.875546
0.36389658,46.471878
0.29600874,48.67067
0.370625,41.520947
0.32096672,44.591263
0.37835538,40.0
0.35148656,40.0
0.3715825,40.0
0.28893358,40.0
0.2871309,40.0
0.33693758,40.0
0.1346311,40.0
0.14299253,40.0
0.056856096,40.0
0.04295767,40.0
0.07257494,40.0
0.04323158,40.0
-0.0018878491,40.0
0.027825693,40.0
0.042572983,40.0
-0.084964156,40.97414
0.050924093,41.011585
-0.027953532,42.92519
0.102276,44.265526
0.11541698,55.13891
0.11129123,53.890045
0.21498463,55.224354
0.31391972,67.18027
0.43621472,62.39956
0.44997367,71.857086
0.5281689,73.554756
0.62110245,80.95105
0.69010776,87.03484
0.87425214,91.42912
0.9100162,92.473015
1.0158405,101.26123
0.97015166,98.56013
1.0683392,109.94531
1.1564429,106.80655
1.1155308,113.67347
1.2797884,122.09418
1.2294282,128.07088
1.33089,126.69411
1.3619913,131.4918
1.3517547,134.33527
1.3484874,137.6615
1.3876625,136.4168
1.3430068,142.62051
1.3970445,145.26271
1.3422194,141.35591
1.2893617,140.82497
1.4185688,142.82173
1.2861643,142.34096
1.4090176,145.37263
1.2674952,146.86418
1.331924,139.97475
1.2418582,142.00433
1.2680302,137.23648
1.1955211,142.96484
1.1894616,140.88474
1.165425,135.19089
1.0794654,137.01485
1.0979182,131.77583
1.1266233,129.86356
1.0765202,126.80313
1.0055416,123.71109
1.0392005,123.97257
0.9620441,120.688515
0.99732876,119.50714
0.9905164,116.618935
0.97729886,112.73236
1.0251375,106.089066
0.9420183,105.56785
0.90329975,105.80483
0.8623636,106.60017
0.87208927,99.22286
0.89621973,97.734276
0.8632625,90.68418
0.839522,100.26401
0.7709028,89.3014
0.7597314,85.68629
0.8171893,86.41776
0.72026885,81.81776
0.75663567,80.02734
0.5642854,74.58102
0.62862873,77.59343
0.5808692,75.41323
0.5648101,70.44671
0.50598156,68.73818
0.47652677,66.655716
0.412058,59.60474
0.40680784,60.700325
0.4030994,56.235085
0.40236598,53.943768
0.33844504,51.765392
0.35450175,50.041206
0.39488262,43.74583
0.39935872,42.333084
0.42462605,43.720184
0.41486883,41.14067
0.38738328,40.0
0.4069783,40.0
0.3162415,40.0
0.38215205,40.0
0.29821587,40.0
0.35263437,40.0
0.27925336,40.0
0.24010462,40.0
0.24280883,40.0
0.18235718,40.0
0.16970253,40.0
0.12990548,40.0
0.16033643,40.0
0.06889131,40.0
0.046092812,40.0
0.06283864,40.0
0.114576295,40.708847
0.08763134,40.0
0.112465635,48.941822
0.18028602,46.272087
0.24276888,45.471817
0.246504,54.74268
0.46810284,64.227066
0.41790634,63.323044
0.547359,65.21804
0.55502385,75.069405
0.68527925,76.59593
0.7891004,78.36803
0.87290263,81.61155
0.9635404,91.69803
1.0965606,94.55375
1.1081748,100.80012
1.2385101,102.49707
1.2878754,108.249405
1.2910444,106.301765
1.4083323,117.16031
1.3918949,116.17646
1.4753755,125.96491
1.459995,129.03703
1.4931264,125.013794
1.5405618,131.81192
1.6493714,137.85596
1.5852827,134.29346
1.6041849,135.66873
1.6153821,144.71332
1.5633327,139.33235
1.5622444,137.85085
1.4918584,144.05643
1.5400937,143.45241
1.4803768,144.66992
1.6187407,143.00615
1.5410982,138.8088
1.485707,146.08319
1.50851,141.9395
1.4480413,143.75095
1.4443002,138.49692
1.3886211,138.72107
1.3354672,135.35335
1.3144614,137.03902
1.3351749,129.42166
1.270048,127.71013
1.2296512,125.87826
1.2421664,125.67135
1.2515161,123.7369
1.2233949,120.1298
1.2217563,117.588974
1.1842598,119.36635
1.2416171,114.83993
1.2201768,109.3134
1.3002443,104.62845
1.1449491,101.58279
1.2288709,105.19613
1.1738324,99.23221
1.1587218,95.78428
1.1265043,96.98233
1.1632828,88.03192
1.1388564,91.259636
1.0810505,89.85714
1.0634168,83.78934
0.9817459,79.46478
1.0080775,82.64918
0.87837976,78.12684
0.9310471,76.21797
0.84322447,74.78831
0.9224743,68.99439
0.72552454,68.51658
0.8029342,66.72351
0.74681175,55.64077
0.79594016,61.682007
0.6448118,55.34625
0.6660141,54.159904
0.76755375,52.240894
0.64111716,49.602604
0.7317498,51.16856
0.8090914,41.735493
0.736061,43.217438
0.6988113,40.0
0.6586613,40.0
0.70369244,40.0
0.7327514,40.0
0.7171398,40.0
0.67302465,40.0
0.6926455,40.0
0.61972296,40.0
0.6274576,40.0
0.59958756,40.0
0.49866557,40.0
0.44584143,40.0
0.5064091,40.0
0.5080579,40.0
0.34187183,40.0
0.36434987,40.0
0.40965965,40.946945
0.42808032,45.814747
0.3971491,41.610313
0.5312169,47.54633
0.5305194,47.218105
0.5500089,54.046013
0.72386134,57.75862
0.7248468,59.196407
0.831113,64.61006
0.9620595,68.71374
1.0105613,74.862595
1.079299,78.79721
1.1487676,86.78742
1.3281834,92.151344
1.3289396,93.898865
1.4379786,101.05523
1.4983082,102.91372
1.6749471,107.9733
1.6385814,111.5426
1.7114604,113.35838
1.767421,120.07414
1.7252214,120.18661
1.8390442,127.9506
1.7940335,127.71926
1.8783679,133.86893
1.8514044,136.66678
1.9184216,139.41708
1.9516108,138.27051
1.9457877,141.54828
1.8926408,144.47528
2.0043132,143.28645
1.8595678,145.06123
1.8647425,142.22577
1.9726102,142.9762
1.9023055,144.40285
1.8767892,145.41864
1.9081157,139.7974
1.8708465,141.49892
1.7788407,140.2074
1.7117428,141.78212
1.7631714,135.8472
1.6966567,136.59877
1.7596971,135.34535
1.6536604,132.00748
1.5751795,128.26337
1.5438938,129.59311
1.5727456,123.06399
1.5314714,124.23642
1.5476202,120.30719
1.5461336,116.1017
1.5127598,118.893486
1.4543135,110.63979
1.4320618,110.42685
1.4654258,106.75213
1.5147791,105.020294
1.4087731,99.36787
1.4340318,102.79655
1.4633095,90.83294
1.413169,97.44212
1.4261458,94.118805
1.4151732,89.37949
1.371565,88.38984
1.2384061,88.20008
1.3054297,83.48054
1.2386546,77.44919
1.2369677,76.08558
1.1545665,73.57909
1.1107166,66.659
1.1000774,65.73637
1.0847895,67.853935
1.0263294,60.066742
1.0426191,61.079376
1.0244757,58.87387
0.96851516,58.17547
0.9521092,56.956528
0.9075144,52.845787
0.8749459,46.092976
0.88382906,45.628086
0.93802714,40.0
0.9334423,40.443233
0.93944514,40.0
0.87196344,40.0
0.9351919,40.0
0.9069009,40.0
0.8827544,40.0
0.8764062,40.0
0.78780407,40.0
0.78053254,40.0
0.76399994,40.0
0.66595757,40.0
0.6215992,40.0
0.68177813,40.0
0.58322316,40.0
0.57473236,40.0
0.55879205,40.0
0.615829,40.0
0.5479311,40.0
0.53404164,40.0
0.5802854,40.100315
0.61893266,48.826145
0.5999305,49.832287
0.73935884,54.737106
0.7771509,57.907825
0.8827604,62.19569
0.9157892,65.60489
1.0364732,66.53735
1.1492207,77.02985
1.129663,77.11434
1.2474749,86.7368
1.3714768,88.07506
1.3939393,90.47956
1.4585668,98.841484
1.540863,103.30788
1.7047876,105.95533
1.7184601,108.16642
1.7563447,116.676895
1.8149707,118.9937
1.883601,119.81332
1.8210076,125.77833
1.9379565,129.081
1.8842163,132.98383
1.9282837,137.66739
1.8440422,135.50871
1.827297,138.0567
1.9842373,143.35695
1.9637247,142.30283
1.788093,143.34709
1.8545924,140.79759
1.8999246,143.33409
1.8511422,146.57448
1.9217668,142.70122
1.828507,140.22058
1.9221408,146.73259
1.8274797,138.44424
1.7431504,138.028
1.7145019,137.82867
1.7264767,131.62254
1.6410108,136.82161
1.6425232,133.52213
1.6352527,131.1957
1.5044048,124.272125
1.5244231,128.51094
1.4357955,129.49756
1.4739473,126.08585
1.4274551,121.842896
1.3977666,116.53894
1.4551607,115.723785
1.4034202,111.946335
1.4107093,109.37612
1.3595505,102.649254
1.3198954,101.02067
1.3419178,104.853615
1.3831786,95.49782
1.3548667,95.76221
1.3192525,99.013954
1.3324578,91.74217
1.2344838,88.918144
1.2077137,82.569084
1.2582209,83.64522
1.1283917,82.61841
1.0528663,78.7388
1.0910149,78.35948
0.973392,76.498146
1.0088687,69.74024
0.9422196,69.740234
0.91766906,65.381516
0.860085,68.609276
0.90010095,60.17128
0.81613785,57.276474
0.7430717,55.122414
0.76266193,53.81268
0.7957601,50.526115
0.8291778,49.3858
0.68718374,47.944378
0.7894525,48.348015
0.7027418,40.0
0.7454278,40.21013
0.71767926,40.489166
0.72162527,40.0
0.67848706,40.0
0.6823917,40.0
0.6489651,40.0
0.6042289,40.0
0.5743118,40.0
0.5297131,40.0
0.39961708,40.0
0.4318974,40.0
0.42224506,40.0
0.3557717,40.0
0.375133,40.0
0.3989812,40.0
0.35971704,40.345318
0.23579617,40.0
0.27044958,40.0
0.24775103,42.76576
0.3188339,45.395557
0.38240024,49.732327
0.45868012,53.58007
0.4929471,53.624237
0.52600276,57.55348
0.6843222,64.679756
0.739644,71.47929
0.81663936,76.40905
0.88942796,79.3071
0.9246992,78.08645
1.0742812,87.557594
1.086231,93.889694
1.273429,97.90469
1.3049686,99.94551
1.3774809,105.60858
1.3975302,111.77145
1.4151652,113.50206
1.5001283,119.96794
1.4756868,123.22567
1.5144057,124.71633
1.5180458,126.39643
1.5912797,132.98828
1.5548408,130.90567
1.6014584,133.43993
1.5746723,140.90909
1.6720268,135.77834
1.6521199,142.71204
1.6242287,145.0447
1.5299287,146.76027
1.5580575,143.47174
1.5990278,141.51237
1.5252709,144.78316
1.4682907,143.67903
1.47387,143.17943
1.5085025,141.12984
1.419421,139.8294
1.3875004,140.22116
1.386299,137.39632
1.3101959,139.81985
1.3220267,131.36028
1.2671463,134.73253
1.2545497,127.33383
1.132064,129.83083
1.1616129,128.81688
1.1017208,124.282936
1.1598827,117.96719
