ppg,abp
1.1180098,90.41099
1.1132478,92.637024
1.2003106,92.334015
1.3533062,97.874306
1.4125175,97.43702
1.5026721,98.96552
1.540876,101.97179
1.5689547,109.70531
1.5195955,108.703094
1.6433016,109.42341
1.6492084,108.88478
1.6303009,111.92084
1.6741139,114.885155
1.6091323,116.618904
1.7518414,117.91259
1.8284464,122.08016
1.7108086,118.931244
1.7055528,120.294395
1.7357783,115.39374
1.6750573,119.0326
1.8234004,123.619026
1.6469514,121.40374
1.6704715,118.35184
1.6343421,118.33447
1.5235695,119.50203
1.5702052,117.52553
1.6608695,116.01982
1.5009496,117.625786
1.5018859,120.76979
1.5375798,115.276436
1.4728932,115.79512
1.4364673,109.782555
1.3970531,109.161026
1.4143206,108.13298
1.4223981,105.7854
1.3762141,109.43329
1.4206319,107.00347
1.3167362,100.37626
1.4114588,99.18907
1.3702699,99.952065
1.1778506,95.80776
1.2509807,99.00455
1.305974,98.58945
1.258623,95.45664
1.3481526,93.50833
1.2948997,94.734055
1.1620308,88.01611
1.2643921,91.13032
1.1783601,84.79807
1.0693172,83.6116
1.1822505,85.367516
1.0877912,81.93809
1.0892252,78.84965
1.1003715,76.14231
1.0282072,77.899765
1.0437878,76.87004
0.9250051,75.16758
0.894701,77.78078
0.84383917,69.96888
0.90895325,72.730385
0.7949453,68.14742
0.82799816,65.77937
0.92226523,62.761158
0.8523863,64.84511
0.7582094,63.307922
0.76780856,60.87885
0.86736596,60.83634
0.84708226,57.859074
0.7637992,61.7527
0.8838008,56.44532
0.78105193,57.101963
0.7142932,56.681747
0.76117706,57.13475
0.7534017,61.489822
0.6411414,54.76519
0.55701536,57.09805
0.5431509,53.855522
0.5321892,57.936443
0.4740721,54.51019
0.55275404,60.1321
0.45804945,57.304283
0.49251786,61.239388
0.52407044,59.703606
0.5250604,62.482426
0.5565961,64.72973
0.6174164,67.733826
0.68668866,74.812744
0.78511643,72.03939
0.80784726,76.34046
0.8658551,75.76968
1.0582747,75.17724
1.0276383,83.46999
1.1323555,85.57172
1.3657992,86.65879
1.412535,88.847824
1.3864887,92.56084
1.520961,98.926544
1.5171645,97.390724
1.6426339,102.80223
1.6973594,104.17425
1.7667639,103.98895
1.7789514,108.79372
1.8711874,109.92445
1.8359213,108.35172
1.9040265,117.56465
1.8875909,117.811615
1.9250737,113.54204
1.8872025,117.02632
1.9336752,116.89152
1.8885798,115.97406
2.015826,124.541725
1.9295967,120.84648
1.9156991,119.05111
1.937842,121.96873
1.9277793,119.94828
1.8406881,116.67262
1.9229739,118.70811
1.7979839,123.837364
1.8574564,119.871155
1.8490081,120.88442
1.7614361,118.21685
1.7429463,114.39536
1.7848264,115.12723
1.7570472,117.52898
1.6299793,111.54158
1.630275,109.79467
1.6783069,113.05506
1.5128766,108.07287
1.6343741,104.86122
1.553967,107.10316
1.5310779,102.87056
1.575151,102.979904
1.5149581,102.32297
1.5718114,99.36634
1.5484463,99.65185
1.535866,97.81743
1.4478666,95.03507
1.4360754,94.4952
1.4040254,95.59778
1.396297,90.11934
1.3545254,88.68224
1.2938547,89.734344
1.2961974,86.42172
1.1802171,86.912766
1.131027,82.85283
1.1766168,84.5
1.077217,81.49621
1.1596744,80.12279
0.95937604,81.07478
1.062505,74.616745
1.0054479,74.80784
1.0333629,71.15216
1.0293151,74.2615
0.9572729,68.95492
0.93863547,66.77572
0.8721272,66.34825
0.9037882,66.91251
0.86609674,69.76962
0.859984,63.824642
0.8864408,60.752686
0.8169602,57.832626
0.9156495,60.335518
0.82448846,60.65252
0.8519809,58.076805
0.8636886,60.374252
0.7775242,57.43982
0.750718,59.695892
0.632186,60.789402
0.591961,53.193638
0.5498222,56.118763
0.6687988,58.52398
0.49841386,55.47689
0.57508224,53.942245
0.44815722,59.071606
0.508583,58.549812
0.46343908,59.851654
0.51996684,61.924843
0.5585311,63.565266
0.6157816,63.556618
0.54267937,65.329544
0.70187026,70.50242
0.6365667,71.19937
0.78863907,76.10577
0.8466178,75.68746
0.9203207,76.27268
0.94234526,84.03439
1.2243184,86.79551
1.0880058,87.81631
1.3633502,88.212364
1.3734144,93.38186
1.4748373,95.89264
1.4967949,98.71133
1.6251227,101.703926
1.751444,101.96278
1.6149162,104.707375
1.7149221,109.999535
1.8074367,115.051384
1.6823156,109.68605
1.7489309,111.65289
1.7810276,114.61115
1.7915887,117.04809
1.8726616,115.450386
1.8966758,117.973495
1.8317862,119.652824
1.9345729,117.893654
1.7977173,121.247314
1.8700625,120.04151
1.7635025,121.0167
1.7502351,117.48407
1.6722136,120.1285
1.6862112,118.74277
1.7627445,119.48467
1.6509916,119.83105
1.6206976,121.66472
1.6126918,116.044174
1.4997264,113.72531
1.5497723,115.970406
1.4709599,108.54963
1.4693147,110.98219
1.383568,106.52032
1.3955187,109.66607
1.5540867,103.72875
1.364834,106.22628
1.3155351,106.82738
1.2953428,105.15207
1.2381499,104.80304
1.2136347,102.30708
1.2924564,100.349655
1.3212847,101.18879
1.3086231,97.7738
1.3331555,92.32056
1.1398324,98.28182
1.1403317,92.21284
1.0964943,93.60686
1.0793887,88.01138
1.0608542,86.79007
0.96227664,88.7791
0.92537725,82.01139
0.9512172,80.34181
0.8778824,82.17641
0.9437297,82.61921
0.81084746,75.800316
0.7287323,75.08005
0.788369,76.547806
0.6329764,76.52625
0.7154831,71.55473
0.7068103,75.225655
0.58015263,70.270195
0.6672791,67.30678
0.6440262,63.593014
0.5624156,65.2848
0.6159408,63.51857
0.61814773,65.25305
0.60125804,60.221428
0.5734802,57.117928
0.5247398,63.688942
0.5367369,57.677948
0.509184,56.32584
0.6008219,55.732067
0.56963146,63.252644
0.4587452,55.87519
0.4194504,56.452675
0.3230137,53.1878
0.34301555,55.988388
0.29636985,57.065525
0.23064108,58.46513
0.15226786,58.888004
0.24141748,59.891964
0.15551768,62.886803
0.21862192,64.004555
0.19635715,64.40773
0.17362705,63.034542
0.22055048,63.70908
0.28531605,69.31403
0.26775327,68.90437
0.3891694,76.84373
0.40579373,72.58465
0.5155472,76.60091
0.56824654,79.04829
0.7340424,85.02758
0.85791945,83.767845
0.8824596,88.811134
0.98371404,87.16937
1.1390412,94.295715
1.1593847,98.39661
1.2063962,99.14456
1.2922246,104.77957
1.2767059,98.3267
1.3520823,105.12176
1.3845094,109.97005
1.4344717,107.87717
1.3402294,108.97166
1.390269,111.676414
1.6122241,110.719574
1.6578101,115.75292
1.4312568,119.453964
1.4560324,117.93789
1.5235634,119.89392
1.4605753,121.95608
1.507559,115.84328
1.4822601,119.05687
1.465225,120.990326
1.4810526,120.236244
1.4401591,123.1908
1.3750552,121.09041
1.2520808,119.159195
1.2359086,114.87603
1.292755,112.650986
1.3043314,116.565796
1.3130571,114.645584
1.1958106,115.3616
1.1869587,114.14956
1.1934812,112.634285
1.0396295,113.50358
1.0197148,107.41953
1.0204667,106.6742
1.0221821,104.79952
0.98603106,106.67711
1.0139803,101.4123
1.0220687,103.05305
0.873828,100.31663
0.9722814,97.43762
0.8370495,99.69991
0.91370356,97.38252
0.87559557,93.62341
0.9123297,93.13631
0.76633656,91.88086
0.8262484,91.01397
0.7511697,87.02547
0.725474,86.6354
0.7588123,87.95643
0.6516129,81.95362
0.6500532,85.52606
0.5390971,81.5299
0.55469215,78.74671
0.40586734,77.794525
0.4684601,77.55493
0.46138623,76.21883
0.4166946,77.48323
0.44649476,73.17017
0.42530382,69.25889
0.2988825,71.79111
0.4083042,68.42768
0.4185621,64.793175
0.38998666,64.84067
0.41381153,65.75531
0.23238973,62.254025
0.41034988,63.48628
0.47390044,59.19363
0.2824274,57.59504
0.3225196,61.264072
0.33224115,54.03816
0.1523322,56.485603
0.2561838,56.367332
0.10249321,54.839306
0.1198406,54.353096
-0.025094757,56.68966
0.07909362,54.555756
0.046119105,60.335293
-0.07206892,59.150715
-0.011787853,58.069366
-0.09268317,59.459476
-0.0053176233,56.85134
-0.051797926,61.913498
-0.032929797,60.382385
0.055260077,62.104073
-0.06996408,65.079254
0.17065552,72.19993
0.008793011,75.16021
0.3469278,76.11221
0.31114945,74.61356
0.37984672,79.765564
0.45969564,83.56632
0.5764409,81.20709
0.58791137,87.75509
0.7960581,90.54313
0.75512075,92.545525
0.8980584,92.92527
0.9572462,97.86056
1.0668676,97.24632
1.0793132,98.0888
1.143827,101.447624
1.1751043,106.117065
1.2544878,110.13021
1.2365625,108.04867
1.3076968,108.11706
1.3059314,116.783875
1.2842032,115.48069
1.3313062,120.085464
1.5029439,122.892105
1.4225844,117.43029
1.3219882,123.51679
1.3651533,121.62804
1.2547412,122.13385
1.3239521,121.395485
1.3866166,123.47592
1.2580091,121.21679
1.2707683,121.409225
1.1262406,119.513954
1.2356637,120.883026
1.2501625,120.010376
1.2246523,115.04482
1.1517383,113.31111
1.1593456,114.77445
1.0540775,113.058624
1.0815732,112.52219
1.0925071,111.19875
1.119434,116.71463
1.0447896,109.51189
1.0293013,109.81593
0.9252677,102.6083
0.8897087,107.27905
0.98425734,104.13545
0.9426673,104.28529
0.9193251,101.84446
0.88385075,99.8876
0.89371115,93.629395
0.8873897,94.05978
1.0029898,95.55499
0.79683703,93.91295
0.8128704,90.297005
0.811682,91.65094
0.7926283,85.84846
0.7282144,90.18736
0.68004704,86.15833
0.60372204,82.71095
0.66903543,81.824196
0.59327143,80.83071
0.5847436,80.44703
0.5510896,72.66604
0.5964826,78.22387
0.55252534,73.92422
0.5071112,74.105576
0.46792358,75.20995
0.39940152,70.75266
0.41194326,73.983284
0.49200353,67.72012
0.46624264,65.7214
0.41372958,65.20025
0.5099442,65.58289
0.37470636,62.16503
0.42634767,61.54162
0.32994717,56.091652
0.37311906,57.041218
0.442678,57.868748
0.46339807,59.95977
0.32568198,56.655373
0.30198517,59.40298
0.25614995,57.883057
0.097390786,57.365982
0.18141577,56.915985
0.21637075,58.263756
0.1541185,55.781586
0.18432987,55.542023
0.12427463,55.95832
0.0799021,62.75829
0.067771256,58.048817
0.06108121,60.035297
0.055188365,64.377945
0.10718549,62.31792
0.2371944,69.05937
0.29898334,71.78966
0.28977096,71.29805
0.38224944,75.54781
0.5597576,81.239006
0.6228056,78.9367
0.61540926,79.85131
0.8639905,82.54259
0.93491185,85.08436
0.911406,86.80075
1.0216885,90.863144
1.1685156,97.17799
1.2732086,97.5112
1.253583,101.87526
1.2569253,99.83338
1.389574,102.87082
1.3640907,103.3156
1.371849,107.26682
1.5099223,111.419945
1.5727507,111.80841
1.5223912,116.27088
1.5850546,117.06459
1.6648568,119.56942
1.5959461,120.26574
1.6664625,118.585464
1.5383371,116.64889
1.591615,120.28639
1.6688057,121.68871
1.6270368,117.67675
1.6038798,120.526596
1.5242726,121.41162
1.5384518,120.7251
1.5429688,117.04542
1.5030136,120.30648
1.5557104,120.28837
1.4605117,118.67261
1.5618348,113.67499
1.3293347,114.48976
1.3731846,112.37805
1.2942468,114.256165
1.3500768,109.02747
1.2103376,109.09537
1.3536447,110.57205
1.3193406,109.01997
1.1904573,107.787895
1.2147195,106.91732
1.1465979,103.620415
1.2912172,101.98623
1.256553,97.18191
1.258533,102.585915
1.2435709,94.79365
1.2715231,97.58649
1.1482602,94.98885
1.2182685,92.73608
1.1317871,92.926735
1.0458096,88.04413
1.0347395,87.310875
1.0188977,88.24647
0.98689246,84.287926
0.96932113,81.84284
1.053319,81.43313
0.98529065,82.71398
0.8795114,80.54876
0.89348555,75.54717
0.77930105,74.86382
0.7843614,74.38171
0.74086905,74.876274
0.7006115,75.02069
0.7114941,71.74515
0.8130579,72.37835
0.7404167,69.0602
0.7503136,68.15746
0.8072257,63.96568
0.78779864,61.826897
0.77498597,61.872498
0.78692245,58.334713
0.6915397,61.97567
0.6571245,57.567562
0.706471,58.598293
0.6622177,59.64179
0.69302285,55.48255
0.65753454,57.230106
0.5827329,55.723564
0.556768,56.954006
0.59426117,55.535645
0.55216223,56.09103
0.41363668,54.093254
0.35520133,61.017727
0.40373325,54.912983
0.32336462,60.72507
0.33608794,62.27841
0.41028038,62.446922
0.60589725,65.330765
0.5086319,65.958145
0.53701395,69.44671
0.56775486,72.0703
0.7011761,71.44763
0.786146,73.66888
0.8179951,74.38906
0.91542584,84.38344
1.1103189,82.038734
1.2322708,84.157715
1.2821698,86.76892
1.2886153,83.90918
1.2232074,96.26136
1.5014256,95.908356
1.6051309,98.36629
1.6129874,99.78085
1.6699709,101.29533
1.708731,104.95912
1.8165815,105.96554
1.8263761,111.9921
1.8598728,111.568115
1.8737915,115.715996
1.8846859,116.19743
1.8995277,114.65451
1.8490213,116.40781
1.9024903,116.72606
1.8797466,120.104774
1.9444066,116.073166
1.8620936,118.43919
1.9403347,121.9452
1.9466544,120.18314
1.9559941,118.57012
1.8997493,122.356995
1.9084867,122.89542
1.7487695,117.36036
1.7287089,122.210915
1.8312467,118.18165
1.5677999,113.83792
1.7150704,113.884254
1.6991099,116.73955
1.650866,111.53356
1.5960582,114.23119
1.6674889,110.20085
1.6421062,107.8909
1.594147,111.414345
1.6137636,106.096016
1.5539842,104.365685
1.5059701,99.4996
1.4313142,105.142334
1.4064677,97.680626
1.48414,98.558426
1.4172417,97.63805
1.3817357,98.83941
1.4326673,94.701
1.4568853,92.42081
1.4229363,93.26076
1.4078131,93.90099
1.4127148,87.07186
1.3203096,89.11824
1.3184222,86.95105
1.288782,86.874916
1.2509598,84.41403
1.2452769,82.64621
1.1497686,79.96713
1.1176264,81.4147
1.0746568,77.57091
1.0756537,75.20771
0.9628234,74.73842
0.9459695,72.794075
0.9409048,70.08185
1.0110704,74.547516
0.97063583,68.747215
0.9994946,62.20691
0.87293345,64.966576
0.8974061,69.76103
1.0141803,62.174187
0.9371386,62.106438
0.89611524,62.60825
0.9332172,61.782364
0.83610713,55.33881
0.9458688,59.574646
0.8178981,56.66077
0.8597795,57.424877
0.6432334,58.31548
0.77925146,56.14475
0.7181161,55.933086
0.67374235,54.29676
0.5078986,59.089252
0.6164717,55.738358
0.59416264,57.504105
0.61997926,60.34021
0.57909495,57.403927
0.49679235,60.639774
0.6018416,58.99008
0.65198666,60.491055
0.53011006,68.58384
0.6201644,65.70462
0.754944,67.644135
0.7006124,72.985245
0.97246575,76.93346
0.9624136,74.30878
1.0554435,77.1433
1.1493773,86.19634
1.129006,84.79602
1.3314435,87.61181
1.4362255,89.204506
1.4366243,94.077545
1.5636599,93.782906
1.5845906,100.824104
1.6779302,101.63495
1.780847,102.76906
1.7063109,102.68158
1.8221717,106.259735
1.7141293,109.66915
1.8902905,114.826
1.8668312,114.077545
1.8035494,116.34416
1.9264987,116.8056
1.9147733,120.334366
1.9142607,118.11713
1.9644861,118.48293
1.8913983,119.576096
1.9038596,120.61882
1.8749307,122.88882
1.9709241,123.388084
1.8595657,121.61066
1.8648562,118.19918
1.8639356,117.994896
1.8512958,119.92957
1.7257551,116.376076
1.7046307,120.291214
1.7518026,117.81094
1.6797513,117.90177
1.5864583,115.55246
1.5604396,111.97118
1.5298159,109.364296
1.4161683,110.49882
1.3782337,112.089935
1.3798254,107.34458
1.4114277,103.15431
1.4491479,106.02282
1.3862592,103.40561
1.2856364,98.785324
1.4140111,102.777756
1.405087,100.0266
1.4082782,98.53864
1.364349,96.50767
1.3893079,96.02296
1.336005,94.509445
1.2996359,90.61446
1.1862503,89.97023
1.1270854,89.55553
1.067638,89.17943
1.1146971,87.19462
1.1742505,84.940575
1.0276741,84.02047
1.0662898,82.19477
0.88696605,80.394684
0.9269223,77.60161
0.88020414,78.28565
0.8348608,72.403
0.831225,71.80754
0.8025162,71.43062
0.84041125,71.87352
0.7915578,71.75111
0.65991795,67.40058
0.802926,69.8928
0.6991244,63.078426
0.7853674,64.063644
0.72921646,63.776066
0.7566705,58.116447
0.7677313,61.615566
0.7087594,62.86699
0.81963265,59.024616
0.61669683,56.674545
0.4651364,55.179283
0.57350695,55.320442
0.5490163,57.704197
0.5018718,59.841045
0.3947085,58.548523
0.457458,56.949512
0.42447954,57.597317
0.38801762,61.068573
0.2939154,59.202408
0.33011955,58.453346
0.32475454,62.785915
0.35780722,62.4304
0.32538646,61.12681
0.22318433,67.74553
0.33760664,68.162674
0.47182792,67.69057
0.46171826,69.371956
0.5652941,75.80568
0.5846373,77.916336
0.7346232,77.749954
0.85874707,79.9181
0.924345,85.319046
0.89883524,89.80177
1.049659,89.17289
1.2137665,88.20871
1.2583246,92.1385
1.2262511,95.977516
1.3602183,97.26045
1.3443638,104.67188
1.3769093,104.65298
1.483016,102.5207
1.4383245,108.307755
1.542663,111.40544
1.6227236,108.547356
1.5873525,114.666626
1.5660027,113.9908
1.6657126,116.955444
1.6625577,120.97542
1.6828341,117.38313
1.5861003,122.952286
1.6104168,116.722176
1.5141963,120.35323
1.4390357,115.649414
1.4458703,121.29279
1.5051557,118.77492
1.5182415,119.53969
1.5061435,120.53956
1.4011075,122.07013
1.4954333,119.99746
1.3166745,117.26151
1.3137927,117.46757
1.2999693,115.00268
1.328909,117.18014
1.2105684,111.188446
1.2136894,112.98642
1.1423894,114.01896
1.115849,108.137566
1.1582055,109.05118
1.050635,103.970985
0.95462245,100.33837
1.1306233,105.89791
1.0975775,99.86959
1.0053102,99.29655
1.1481807,100.34078
1.0439315,96.05001
0.99909115,97.087616
0.99829215,93.50848
0.9179969,94.13782
0.8362948,88.29635
0.88162196,89.00283
0.9517977,89.11996
0.8549059,85.77101
0.73583,85.13137
0.8124077,82.14988
0.772659,79.49362
0.61667454,81.29717
0.6157553,80.1039
0.60621834,76.096
0.514081,77.27368
0.5919902,74.73639
0.42529294,72.5201
0.47731265,75.63758
0.44060445,65.77635
0.31964502,67.96495
0.37737927,71.51743
0.36545098,64.562485
0.39666903,62.362488
0.37147284,61.71983
0.49181527,62.434956
0.3436098,61.046085
0.3102983,61.89659
0.3682614,56.633553
0.3739383,59.613533
0.31482816,56.417385
0.22321123,58.61901
0.3025839,56.496716
0.1681229,57.148304
0.15591572,54.118423
0.18213195,57.543518
0.020603467,58.369648
0.020992508,59.42991
-0.0048348675,57.02672
0.07690489,59.7968
0.015616107,56.3942
-0.08446736,58.28443
-0.05518015,57.968945
0.020791475,61.962433
-0.0014872282,65.20282
0.026895355,66.25534
0.099701524,70.15625
0.21569943,73.659515
0.27471608,70.56855
0.3992534,71.26722
0.53106445,78.29026
0.52140456,84.42956
0.6869718,81.727036
0.69629484,86.40425
0.80954224,88.1141
0.87985003,89.96717
1.0073341,92.00403
1.0948876,99.2375
1.0213838,102.01685
1.133296,97.65066
1.2306241,101.35357
1.2263594,110.01468
1.2876697,111.190544
1.3087428,111.64094
1.3447433,111.969666
1.354585,119.957184
1.4266295,117.11
1.3295317,114.26321
1.4778844,122.676674
1.4607161,122.470406
1.3103422,121.859924
1.3941756,120.55769
1.3254225,120.23571
1.3934503,115.491646
1.292835,124.35283
1.2068424,119.634705
1.2212802,121.389984
1.3470067,120.91783
1.2821529,119.56561
1.2454154,120.284996
1.1486086,116.214645
1.1393473,115.15182
1.0572593,113.98017
1.0597973,110.486145
1.0346743,111.28316
0.97062683,110.79214
1.0015233,112.893135
1.049474,106.07547
0.997992,106.64963
0.9611407,107.074165
0.89822423,101.493385
0.8310423,100.21841
0.92859644,102.408676
0.9822617,103.88668
0.8296338,96.548096
0.93795943,96.22514
0.8938627,93.57042
0.8492926,94.24831
0.8702302,89.871544
0.8340901,92.653206
0.8156934,89.6317
0.70278233,87.78981
0.71433955,91.41931
0.62395704,85.25372
0.6771375,84.17969
0.6416327,84.65265
0.49828753,82.394066
0.48564276,79.587685
0.5394232,75.84507
0.40538067,75.4768
0.40656355,75.44972
0.39053974,71.48498
0.35621807,70.700935
0.34690997,69.16464
0.35824147,67.5412
0.42470792,67.43179
0.36556032,66.15771
0.32900274,66.79251
0.3695792,62.447296
0.33711597,59.797695
0.3045086,63.02197
0.2764022,59.40545
0.27201945,59.957027
0.34817392,55.34278
0.20929024,57.61396
0.25703228,54.77609
0.16497135,56.15751
0.20626791,57.389824
0.09438598,56.63838
0.1696413,58.643314
0.12480731,56.25306
-0.027165405,61.57837
-0.006211482,57.362103
0.13360943,58.35069
-0.08418973,61.034027
0.07684299,62.225395
0.016007567,65.35942
0.06722944,68.148926
0.04222988,66.89078
0.13379177,66.78391
0.23380437,67.65057
0.22932778,71.953476
0.37613323,75.216255
0.31009045,78.58348
0.4527654,83.590164
0.5475492,80.77651
0.8179655,86.77236
0.76399803,87.018555
0.8197658,91.88879
1.084607,88.267944
1.0708169,93.79635
1.1466027,101.757484
1.1519378,98.35653
1.2203046,100.853714
1.331861,105.51023
1.3966982,104.621796
1.3619006,109.81046
1.4304293,112.12477
1.5181139,111.5493
1.4733218,118.07771
1.53215,117.08459
1.536268,119.75024
1.4874014,118.23964
1.4570793,116.743965
1.5741112,117.68703
1.4972034,123.75401
1.6198101,120.18221
1.4792016,122.00163
1.3800958,118.20148
1.5482825,122.47055
1.411444,118.23328
1.4244093,118.059845
1.4411347,120.20223
1.4136887,117.8272
1.3928816,113.657745
1.1931483,118.48084
1.2165868,114.149895
1.2199814,113.45026
1.1059637,108.51302
1.1763225,109.3665
1.1989214,108.95613
1.2317562,107.02661
1.2326756,106.17821
1.103886,104.67764
1.1542182,105.86831
1.1262504,99.886765
1.1262463,101.27925
1.0801766,97.61959
1.0819409,97.60537
1.0640503,96.70082
1.1172233,96.24609
1.0509784,92.964226
1.175074,89.1715
1.0407085,90.391106
0.9264733,83.71337
0.915053,86.39061
0.9132006,86.14841
1.0035876,87.374756
0.88491076,83.28861
0.86762697,82.51097
0.8050004,83.784325
0.76175874,79.52321
0.70394564,77.63272
0.6345335,75.60248
0.62776214,71.9947
0.736084,74.38794
0.64084303,70.21432
0.6552124,70.68957
0.68928015,69.26951
0.5064122,67.13586
0.59005797,69.156
0.6599193,66.0617
0.6344655,63.87329
0.55146414,63.77335
0.6083813,66.09903
0.64831674,60.05361
0.5883132,61.247276
0.63731974,60.122192
0.6156552,54.25187
0.56299335,59.513313
0.5057509,55.383007
0.52164197,57.514492
0.4520487,57.953606
0.33030456,54.625237
0.36656904,57.245796
0.4748796,59.198605
0.38340512,60.562435
0.269284,57.380863
0.36762437,60.12987
0.36550638,62.073204
0.35383508,64.30915
0.31164753,65.80675
0.39545947,63.12629
0.51857084,64.73469
0.56454957,73.27015
0.69664645,72.39757
0.7598053,74.77877
0.72209114,79.437515
0.8705417,80.39782
0.9358728,80.34614
1.0272081,85.72843
1.1162808,89.59197
1.2627822,89.08837
1.2970564,92.14522
1.357251,98.10062
1.554858,97.50662
1.4897013,103.17744
1.5508742,105.02206
1.7349176,102.53737
1.6871798,109.7124
1.7338774,112.127365
1.685513,114.60567
1.8276888,113.045074
1.7296585,118.95466
1.7756424,116.66152
1.8381718,118.30266
1.7266637,114.23499
1.8887994,120.828674
1.8037972,119.27617
1.831983,119.49084
1.8500326,123.11213
1.8229223,122.96492
1.8141551,122.89192
1.8115022,122.75272
1.6921681,119.55802
1.7201256,117.38918
1.7318193,117.981926
1.6568875,119.55392
1.6507063,115.16525
1.5593637,108.57586
1.5843036,113.01102
1.4991038,114.52424
1.5862786,112.825966
1.5436578,110.78762
1.5442147,110.11756
1.4908317,109.22004
1.4430575,103.646
1.5192776,107.230194
1.4247806,100.07656
1.3590117,101.66988
1.5148398,98.42688
1.4264113,97.57713
1.540528,94.29913
1.4254428,94.77353
1.3688406,97.0055
1.4302295,94.66669
1.4272908,94.05696
1.2751771,93.48546
1.3084725,88.24117
1.2747792,86.53021
1.1905714,82.628204
1.1939245,84.58314
1.2484763,86.02532
1.1786387,80.8534
1.0357941,79.27552
0.90518165,78.37928
1.080481,77.5862
1.0399802,72.8888
0.9389344,73.89877
0.9508898,71.80265
0.9549053,71.45683
0.8725194,69.20369
0.9242745,64.98604
0.90817815,68.85756
0.9316004,66.84362
0.9970058,62.866688
0.9056378,63.102886
0.8132738,62.06103
0.8594342,59.33022
0.7625787,61.249744
0.8805177,60.567726
0.82844776,58.5152
0.8409701,57.002174
0.71599364,58.75335
0.72471535,58.44879
0.7113065,56.0426
0.716456,56.38877
0.71994895,59.891933
0.48674324,59.778404
0.5533944,56.887226
0.52660483,59.08781
0.5846024,58.07341
0.6171856,60.24744
0.51179755,62.048527
0.6290406,63.220978
0.5231568,59.618233
0.5922609,67.014366
0.74130136,69.90154
0.8137429,71.31546
0.89267623,74.81623
0.96299523,77.31179
0.90808797,76.68734
1.1002008,77.37339
1.2027885,82.73892
1.265034,81.06694
1.3239,88.86723
1.4262533,89.848274
1.4510859,93.34116
1.5983456,99.20537
1.6497927,98.92316
1.7272639,100.150406
1.7092037,107.884224
1.8309159,107.89304
1.9615812,105.37046
1.9320996,108.47637
1.9527631,114.86894
1.9130379,112.744576
1.9375799,116.77999
1.944892,119.24753
1.9911696,121.70321
1.9630136,120.15281
1.9536649,120.19557
2.0025733,123.14574
1.8739711,121.67628
1.9600375,120.41582
1.8839084,124.26481
1.9367281,123.15207
1.910511,119.53722
1.7529192,117.24055
1.8187938,122.35266
1.794193,119.21436
1.6995585,117.46772
1.7097746,114.93961
1.6979619,114.56372
1.5838604,114.52844
1.5378366,112.81299
1.7044896,109.984924
1.6229907,109.537186
1.5425965,110.21168
1.4314119,108.53637
1.611065,110.21627
1.4728141,110.0013
1.4365343,100.81467
1.5047249,102.967545
1.4706199,100.72647
1.3802518,101.15928
1.4460748,96.46066
1.3977268,91.02484
1.3671315,91.486946
1.4029176,93.080765
1.4440585,89.6288
1.3019761,93.04681
1.2677702,87.58888
1.2199479,86.436485
1.2904053,88.34854
1.1688919,83.674255
1.0905241,81.74111
1.0964098,84.02221
0.9416939,80.03871
0.92068887,76.95434
1.0689241,77.52628
0.9412941,75.19214
0.84779775,72.07077
0.843988,69.33938
0.895118,69.04762
0.81328887,72.537735
0.86177343,70.15963
0.9095425,67.783195
0.8457908,69.44387
0.7536775,63.264874
0.9989854,64.37163
0.83079714,67.069695
0.852818,58.951763
0.83535045,54.847786
0.792254,56.42978
0.88229835,61.383305
0.68424165,58.088642
0.7518909,56.82627
0.667943,53.300236
0.5900265,58.31992
0.57907224,58.464
0.4666769,55.435688
0.5352575,54.369907
0.46147946,56.752533
0.43066218,60.33614
0.38718215,59.56127
0.3799692,58.09346
0.36655542,64.46093
0.40919402,61.516075
0.45670202,63.95965
0.5141451,69.534676
0.5458948,70.29853
0.63531375,72.50737
0.66271484,72.07638
0.76511943,76.637566
0.8172025,76.012825
0.9429867,79.67099
1.0647606,81.65259
1.1514294,89.6081
1.1330607,89.32569
1.3574729,90.959854
1.3649093,95.12907
1.362967,98.80609
1.4589746,98.616135
1.4965675,107.842476
1.4344223,104.07593
1.6703179,107.329094
1.7141153,108.12966
1.7029674,109.01442
1.6619972,107.82268
1.7197882,114.20267
1.7565335,119.19795
1.6973902,116.79729
1.7137465,121.36346
1.7267371,119.950356
1.7984259,124.2055
1.6613479,118.56086
1.7246981,119.40437
1.7165602,122.08721
1.6285334,118.652275
1.5768311,121.287
1.6636225,120.240555
1.6144458,118.50181
1.4994911,118.5826
1.5463672,117.176384
1.4353583,117.30262
1.532912,116.3416
1.4420073,115.31204
1.4034082,111.76902
1.3210509,114.777084
1.3742806,109.12751
1.3421257,110.892426
1.2438562,111.87159
1.2940924,106.56939
1.1167648,102.56063
1.3688121,107.89362
1.1098075,103.41892
1.1334201,101.071846
1.0491723,96.93039
1.0624251,97.14828
1.3256025,99.87755
1.0394841,94.6352
1.1364865,94.444336
1.1179305,93.65987
1.08265,92.83292
0.97592825,91.03143
1.0401188,87.62046
0.94529176,87.776405
0.8140324,83.79109
0.8264052,82.22916
0.8364688,82.81968
0.7486184,83.34295
0.7624947,77.521255
0.6536168,79.02441
0.6842291,72.78053
0.55773985,73.07635
0.5148502,77.44524
0.644225,72.79052
0.5235536,75.12133
0.60890394,69.950935
0.6457365,65.602036
0.48177552,64.51259
0.50661933,64.57201
0.52483743,61.187405
0.50112206,62.381493
0.41203755,62.479126
0.45036265,61.192394
0.40339327,63.025665
0.48930526,55.90396
0.44772848,56.308933
0.34585962,57.545372
0.32953015,59.98367
0.36408755,56.122982
0.19462742,58.309444
0.22911415,58.092422
0.24052493,58.87031
0.20656133,56.12923
0.081793524,56.02045
0.1390305,58.782314
0.13858095,57.290825
0.04023253,58.047832
0.07611771,62.128986
0.12190185,68.17701
0.08054206,64.8092
0.20241174,69.5968
0.1320565,69.78763
0.21514693,71.50469
0.4132215,76.63936
0.48926267,77.19984
0.5324086,78.3526
0.7306581,81.41452
0.7472643,85.073044
0.789395,89.87653
0.8456828,86.56482
0.90409124,91.80623
0.96513313,93.25714
1.1197919,98.82498
1.1814386,98.25221
1.2276659,106.27555
1.292614,103.472984
1.28065,104.56092
1.2601684,110.303474
1.3904177,116.524315
1.3684102,113.36834
1.3630801,113.82863
1.3446474,115.802246
1.5389346,120.17719
1.4504561,119.340485
1.4968187,121.00667
1.3196634,118.65544
1.4454151,118.90781
1.3611397,121.89526
1.4131732,122.79767
1.3170016,124.21588
1.409053,121.22901
1.2630783,123.665695
1.2072629,118.58288
1.3085307,116.87353
1.186479,118.26136
1.222321,116.39726
1.2317773,116.495445
1.1001338,115.03935
0.98357815,116.29028
0.9437308,113.25121
1.0199506,111.10889
0.9590235,109.08151
0.9429149,110.865005
1.0005631,105.221924
1.0631529,108.73157
0.8861897,106.445
0.9218991,98.86971
0.90676844,101.67799
0.81435627,100.57824
0.9787038,95.82773
0.79917413,98.42142
0.96685463,93.08104
0.83399886,94.35797
0.8340801,91.17772
0.8131214,86.67853
0.8292228,89.491325
0.7502548,90.472145
0.6707023,87.696724
0.61946374,85.949005
0.68091315,81.46789
0.60026616,80.68446
0.5151791,81.14159
0.506057,79.207825
0.3902626,78.351234
0.40674412,75.79533
0.39130297,75.73462
0.29688585,72.892006
0.4614276,72.30054
0.37668687,66.17662
0.3246514,73.67295
0.46510172,69.3306
0.33216944,66.57702
0.29818413,66.03706
0.35806614,65.176384
0.30554056,62.71994
0.24705365,58.14536
0.42567968,59.500854
0.25817627,58.61617
0.26907685,54.47443
0.23551123,56.764217
0.1917593,56.045265
0.25298008,58.408443
0.108528435,54.812405
0.061325278,56.976875
0.030066064,56.70587
0.08878022,58.321045
0.049189556,58.20503
-0.097649805,58.052143
-0.067269884,55.42109
-0.100686856,61.37078
-0.001860858,65.228294
0.005133456,62.643986
0.11028115,65.729744
0.03913381,69.65695
-0.0016448606,67.69137
0.1907127,68.61848
0.18293141,71.43846
0.16836233,73.8454
0.39082766,78.05742
0.4580123,80.07304
0.5500572,83.53676
0.75929075,85.32668
0.7447802,89.90702
0.88560575,91.27207
0.86586493,90.882324
1.0255337,93.983116
1.0517607,100.23591
1.1033896,101.5936
1.2091774,103.19249
1.1922638,106.4442
1.250843,106.123055
1.362156,111.09165
1.2499735,108.72939
1.4541129,117.18607
1.36243,115.978806
1.3869296,118.47533
1.4721686,118.72002
1.4150743,118.50745
1.4241948,121.44749
1.4160957,122.97402
1.2831429,119.45014
1.3529737,119.834015
1.3264166,124.30354
1.2855659,123.99109
1.3865857,121.42687
1.3024683,120.820366
1.3096966,116.90794
1.3271375,117.14486
1.3053946,121.24641
1.0758582,114.05181
1.1721996,114.16053
1.1587688,114.700325
1.1591747,113.22698
1.1178182,113.93573
0.99896586,111.69471
0.9776133,106.58928
1.0739267,109.86148
0.9817133,107.751816
1.039858,103.65937
1.0648854,104.34267
0.9631508,99.255
1.0247611,100.10639
0.945549,99.34399
0.98641473,95.59082
0.91088146,95.94736
1.1193899,98.39437
0.95447636,93.0825
1.031364,90.03736
0.8991223,87.8197
0.8170868,87.60701
0.9073974,83.80773
0.75175655,82.28933
0.8131565,81.37627
0.71922857,83.03692
0.70337826,84.10871
0.7219199,81.27985
0.6768953,77.269035
0.59565485,76.85894
0.57045966,76.35974
0.56644017,75.21439
0.5602942,73.54775
0.5346423,72.43898
0.53725487,71.78654
0.4355438,67.24356
0.5015849,66.442215
0.53018934,67.698105
0.5926335,61.238304
0.5401405,62.461178
0.5139954,62.406902
0.44488862,62.66968
0.6042069,60.27352
0.5118347,59.05824
0.43759987,56.5105
0.40892676,57.002445
0.4868186,59.015724
0.3790332,57.60374
0.42413184,56.867218
0.3730948,53.22918
0.2507806,56.693638
0.22160809,56.28459
0.26821378,55.638798
0.15512106,58.575943
0.14443932,58.43237
0.21730517,59.752308
0.28268507,62.486008
0.20798609,64.32266
0.2848781,65.770256
0.3019779,66.43596
0.44123554,69.71674
0.39940077,69.59473
0.55414075,69.763885
0.5524182,74.53515
0.674002,78.555534
0.70901287,78.656334
0.8176791,83.72936
0.91523445,84.23309
1.04638,90.267784
1.0825455,89.275345
1.3068014,91.570045
1.3271022,96.648155
1.4434222,104.69722
1.5158821,102.350975
1.4721531,107.831154
1.4659138,107.03989
1.5682325,107.538445
1.6183025,114.76649
1.6798503,110.27504
1.7047664,115.76691
1.6346351,113.76198
1.7060757,117.5371
1.8391161,120.81592
1.744758,122.32767
1.743854,120.323296
1.6784635,123.00382
1.7140634,120.332924
1.7324598,118.8485
1.7126542,125.44886
1.642146,125.19288
1.7939346,123.43667
1.6393766,113.96288
1.4761095,116.6449
1.5727621,121.1841
1.5790911,118.46042
1.4870654,120.15289
1.4664506,116.39698
1.5996112,114.211716
1.4050124,115.313896
1.3924959,111.95505
1.462498,109.92189
1.4600067,107.38927
1.3846626,107.89197
1.3920784,105.682556
1.3989741,101.90502
1.2729574,104.8004
1.3790222,103.60157
1.2987853,99.73218
1.3076229,96.69998
1.2894115,99.92247
1.2364185,98.30424
1.3189567,97.54865
1.3114499,91.7983
1.2798717,93.99288
1.2315587,88.49949
1.259095,88.07271
1.1747826,87.64108
0.996945,86.4184
1.0868276,84.442276
1.090327,81.114586
1.0318002,76.132576
1.0595362,78.40395
1.025753,76.74314
1.0440894,74.95869
0.84550095,73.18287
0.8920065,71.618576
0.8516476,71.87904
0.8377919,69.04968
0.87670535,66.67575
0.8175669,68.21158
0.8671733,61.581013
0.8779076,65.03901
0.8726769,63.311344
0.7551216,61.887028
0.79251343,63.97692
0.8033784,56.2144
0.8784797,59.294308
0.94211835,59.89732
0.7649122,55.960625
0.795208,54.46011
0.730755,53.165134
0.69130826,58.335754
0.7425634,59.126
0.61709297,55.51283
0.5556105,57.288013
0.5568726,59.017166
0.5143924,56.858707
0.56727606,60.150063
0.45519006,62.1399
0.42725974,59.431885
0.4727016,59.80976
0.543504,63.87583
0.6328775,63.859097
0.5696833,64.39249
0.7188712,69.57445
0.75646764,70.6588
0.8333283,79.679924
0.838056,76.31572
1.0017695,78.42741
1.2300209,82.28908
1.1186448,84.43672
1.2400166,90.412155
1.4149113,85.23044
1.5103889,90.07076
1.5473442,91.930824
1.6347113,94.39197
1.6524009,99.07918
1.7096072,104.639915
1.7462382,104.89988
1.8791224,107.31115
1.8104656,104.37309
2.0156538,112.40702
1.8815598,110.89797
1.9442332,116.35209
1.9614124,118.87688
1.8688997,115.885826
1.9681443,123.24622
1.9129962,122.72564
1.9599767,121.62989
1.9748713,120.61485
2.0071402,118.98888
1.907411,120.245926
1.9284631,121.35044
1.9196727,117.97269
1.8986719,125.48794
1.9205812,118.633606
1.823534,119.25248
1.8154001,114.85803
1.8038954,119.579575
1.8336432,119.18058
1.6675525,115.0662
1.6902901,113.47394
1.6103637,112.092995
1.6524129,111.48416
1.5825347,116.51827
1.586904,108.76829
1.5732275,108.28729
1.6756413,107.30301
1.5737704,106.44352
1.4872285,105.81136
1.5453,101.843925
1.5068555,99.70875
1.3794063,95.14007
1.5080069,96.61807
1.5095305,92.024796
1.4544036,93.58027
1.412229,91.7524
1.4481987,92.25306
1.403858,91.57749
1.3978562,91.45348
1.3598458,86.435684
1.1958677,84.449646
1.2374547,83.73038
1.1915047,78.522125
1.1369103,79.800674
1.1381509,82.73119
1.0052003,74.614525
1.0020224,75.743034
0.9764171,75.27619
0.9686019,75.89269
1.0383337,72.25653
0.8509514,70.2024
0.8571077,71.08729
0.99082595,65.97443
0.9467917,70.175514
0.9019477,66.29966
0.90843254,57.73178
0.82295924,60.142128
0.8884414,59.41288
0.8119799,61.432056
0.89889765,59.229717
0.91147125,59.281425
0.8297471,58.640804
0.77046394,55.938362
0.7434486,56.774452
0.7655816,57.77504
0.7358299,57.054302
0.6807816,52.310577
0.6523564,57.349785
0.549829,57.52065
0.4807067,58.198315
0.49556667,56.133038
0.48535678,60.137306
0.57302374,61.971237
0.44385093,63.280148
0.5300036,66.1411
0.45822474,66.54542
0.54760665,67.10779
0.76125073,66.04223
0.6936146,70.87717
0.8095941,75.14443
0.8474927,79.8044
0.98133206,80.29785
0.99088347,82.74315
1.1215463,83.86718
1.2979687,88.19795
1.2492738,89.405495
1.3438556,91.31435
1.4592108,97.898415
1.4294019,97.64855
1.649868,104.68371
1.6273025,104.171036
1.6861382,109.538345
1.7541891,108.60176
1.6906983,113.82168
1.8416859,112.38424
1.7106669,113.73143
1.7617513,112.29232
1.8692019,114.422066
1.7899444,115.50275
1.8954494,119.53279
1.8403159,119.724106
1.7285812,121.54962
1.8111264,118.2489
1.8202541,123.11533
1.8106009,121.76215
1.7289463,125.19838
1.7290416,123.46223
1.6367764,117.20226
1.7225195,123.15484
1.6972394,118.99517
1.6123384,118.78557
1.5862021,114.25991
1.6229528,117.23551
1.5255616,111.90567
1.582484,115.99624
1.476097,115.1065
1.4996475,110.140755
1.3530821,107.328064
1.3663052,106.338936
1.3569331,105.86952
1.3996431,109.44822
1.2898245,103.80708
1.3572992,104.05467
1.3567183,101.23071
1.2245194,103.650154
1.3091416,97.15919
1.2603097,99.74095
1.2771118,92.47987
1.2710972,91.26992
1.1242943,92.82506
1.0934235,90.6829
1.1372,88.95607
1.0784872,91.867966
1.1292578,89.189835
0.9747062,86.64343
1.0015353,81.20087
0.8345847,80.64475
0.8944785,77.53142
0.8277488,78.76675
0.7869826,74.317955
0.84147483,74.42032
0.725419,71.90275
0.6385826,71.17067
0.6139521,72.134964
0.62245435,68.429184
0.6342118,70.53375
0.7072879,69.79498
0.67793584,69.29325
0.5887599,62.820145
0.6407612,66.01266
0.5897903,62.89687
0.55699426,60.792397
0.5613781,61.396378
0.6152187,57.85746
0.55878407,59.16021
0.4907292,57.48852
0.46090123,59.984325
0.38260746,55.324722
0.3833234,56.800716
0.43525514,56.2684
0.19761467,55.662003
0.31189984,60.676804
0.21572532,56.385902
0.17136344,54.769093
0.188834,61.509285
0.24012735,58.268337
0.1838756,62.464386
0.18559577,62.980206
0.2874423,60.71163
0.179496,65.879166
0.3114732,67.00746
0.41055804,71.664
0.31290877,69.72006
0.3806689,72.12804
0.5962339,73.50072
0.7160175,81.67909
0.73317957,81.44516
0.83294606,85.89292
0.95603794,89.680275
1.09282,86.69064
1.0890766,92.23023
1.1329945,93.04556
1.2026297,98.21174
1.3251766,100.79425
1.3252561,107.459045
1.4645061,109.16122
1.4135737,107.62464
1.4235666,111.24919
1.4024625,109.7617
1.4976918,114.535484
1.5175512,114.975
1.580833,113.507286
1.6566374,115.44211
1.5588795,113.37703
1.5762064,121.484535
1.4446154,118.3391
1.5913705,119.919586
1.475105,118.32396
1.4275377,123.07133
1.4167038,125.22632
1.4003371,121.78164
1.4397424,120.14865
1.3630317,117.03047
1.400879,117.080505
1.2464255,116.64491
1.2453693,116.52594
1.2981825,118.47215
1.204759,113.38195
1.2143182,113.31841
1.221938,112.28378
1.1443869,107.81176
1.0745083,111.88533
1.1185715,108.93991
1.044902,105.135124
1.0329288,103.65357
1.0379776,99.28962
1.0397707,99.93818
0.9778494,103.81683
1.0053779,100.12559
0.9017407,98.54468
0.8944823,98.272835
0.88728815,96.20353
0.8760407,95.548775
0.9436114,94.022804
0.8336407,89.47526
0.78610104,88.395584
0.7554818,85.074814
0.7421692,84.02307
0.697439,86.03502
0.712445,80.549286
0.5941052,86.158745
0.58935297,80.81182
0.38891277,74.10409
0.4213187,77.96538
0.4410711,74.62593
0.40666816,79.08637
0.24627194,71.26005
0.36249268,70.68558
0.3366733,69.5574
0.3382674,63.476612
0.3999765,68.03395
0.4459097,65.8701
0.34830534,66.30047
0.3834523,62.623672
0.40665963,63.25285
0.2088658,63.167976
0.3446173,58.675102
0.4254864,59.648075
0.3329414,58.02412
0.23554993,57.73637
0.20730957,57.23794
0.2146772,55.356842
0.12711197,57.73239
0.060973033,55.342045
0.049448077,57.14872
0.040908985,59.374607
-0.013183113,54.683266
-0.050594844,60.176598
0.028366985,56.54475
-0.07851532,60.05148
0.0010014727,64.23635
-0.06395425,63.9184
0.028764192,66.754166
-0.00044351956,71.77665
0.0793041,70.49709
0.16070901,70.41753
0.21453404,75.66854
0.3620906,73.76528
0.39308667,80.56156
0.41853115,80.02278
0.5239393,83.55842
0.59337735,83.78814
0.77097374,88.78303
0.93135065,94.74424
0.9085674,90.04665
1.0030872,97.697014
1.0387633,102.14309
1.0992087,99.76313
1.1417061,103.62204
1.1803923,109.34518
1.2917223,107.26499
1.2915359,111.53158
1.292931,116.28978
1.4222318,116.124435
1.3524114,116.17536
1.2692939,115.08545
1.3583328,117.90097
1.3576329,117.681885
1.339962,121.40436
1.3812846,121.700325
1.3921868,121.84235
1.2939798,120.18333
1.4252957,121.333435
1.2859353,119.53312
1.2753505,119.01298
1.3387253,118.123405
1.2833804,121.753586
1.2214684,116.43036
1.1907626,122.03753
1.0613412,115.98736
1.1206472,115.00468
1.0598469,113.87646
1.0490018,113.76529
0.99963874,108.67761
1.0441908,111.18233
1.0564433,105.31625
0.9833644,108.3423
0.98468226,100.0966
0.8803643,101.44944
0.9369794,101.660484
0.9144167,102.1763
0.9274154,100.371475
0.92296654,99.42176
1.0522639,96.47487
0.8509092,94.361336
0.87474,94.09665
0.80063075,87.49494
0.9181807,92.89162
0.9509948,92.643654
0.8975492,83.10108
0.7493884,87.32892
0.7687895,86.29084
0.7650985,86.719574
0.71774197,82.28183
0.54804134,85.01155
0.52212447,81.95246
0.56318873,78.819664
0.5030889,76.82507
0.4986441,78.852936
0.55740124,74.80603
0.35007533,70.67504
0.4827718,71.53765
0.40872854,63.819046
0.3751181,68.69335
0.4884262,65.781906
0.41263324,64.270195
0.4299938,62.430984
0.47233963,63.122807
0.37450746,63.387215
0.34995952,57.168358
0.4377853,60.978065
0.31214508,56.213425
0.30538166,60.38445
0.32896802,55.469097
0.34267437,54.199574
0.21527085,53.966248
0.27168387,58.180164
0.13179377,57.25278
0.19901776,56.340492
0.111091375,55.699413
0.057268105,60.010464
0.17817128,58.30273
0.10413216,59.095295
0.037975453,60.517647
0.12874517,58.374954
0.28421864,57.55266
0.14925615,69.044014
0.22857061,70.16696
0.20626397,68.005806
0.33006424,72.55686
0.46198848,74.52306
0.45190465,76.72075
0.5660427,76.8525
0.7579762,82.90029
0.7706291,79.546715
0.8516914,90.00159
1.0522302,90.65296
1.075084,91.93326
1.1683551,93.70901
1.2085714,98.35342
1.2698328,98.69349
1.2883582,100.630646
1.3380818,106.671364
1.5143212,109.430954
1.5716388,105.17014
1.4885677,111.78799
1.5559133,111.755775
1.5289601,113.7512
1.5969601,118.4711
1.6321688,116.66775
1.5328598,116.154045
1.5562758,117.923706
1.6505212,120.53714
1.5670233,121.14638
1.5058916,117.22573
1.6374788,122.5155
1.6543736,122.90246
1.5322988,118.37297
1.570348,121.27107
1.4655473,123.1462
1.5225337,117.705826
1.5099862,118.73126
1.4476689,117.89073
1.4203571,115.80699
1.4818468,116.36326
1.4046471,113.3778
1.3282331,113.508995
1.3406137,109.74514
1.3083369,111.24574
1.2669451,111.73837
1.1576198,107.80754
1.3034407,104.56199
1.3245499,103.32962
1.2252843,102.68782
1.3625963,103.22099
1.1683472,97.09276
1.2392566,99.90995
1.1762438,97.10803
1.2580675,95.42995
1.2182387,91.66889
1.2268378,94.172714
1.2082299,91.22501
1.1166847,89.806595
1.0638273,86.46189
1.1374493,87.673546
1.0646789,84.60734
0.9800889,83.464905
1.0261775,82.90141
0.9635586,81.98057
0.9539578,81.80859
0.9846167,74.59268
0.80496854,75.893166
0.85055155,74.57848
0.73315346,70.45522
0.82736355,70.706696
0.8493784,69.58167
0.74715894,68.90891
0.7471831,65.06596
0.6244833,64.33632
0.7345769,68.101204
0.7117749,63.627254
0.7486509,59.785553
0.8226495,61.340076
0.7553992,59.18549
0.7410389,58.78104
0.7795959,58.527218
0.643568,60.117996
0.63273317,55.498417
0.60529315,53.631237
0.70744264,57.279552
0.5621351,57.96233
0.4937581,57.19498
0.5447278,56.867287
0.4397038,58.01485
0.4979175,60.116802
0.44358984,58.20314
0.38978982,61.61598
0.47819737,62.63132
0.44029766,64.296906
0.36713496,63.629623
0.43606704,63.35922
0.5206914,67.81096
0.506419,69.86749
0.73887044,69.36607
0.7684802,72.98964
0.8489768,78.16609
0.93323565,78.507286
0.9448597,82.99438
1.1436529,89.61268
1.2189204,85.52078
1.2883694,90.76661
1.4435737,94.33587
1.4819388,96.11417
1.61013,100.5316
1.6252323,101.8545
1.5963963,101.60448
1.6690688,103.94736
1.7351532,109.03581
1.755535,111.59953
1.7766565,107.77276
1.90582,113.98111
1.8557439,115.486115
1.8480166,117.12397
1.8652886,114.593636
1.8991326,120.64361
1.8919091,120.94336
1.8248993,121.70976
1.9175609,121.303
1.9246079,120.75123
1.8303609,125.15924
1.905128,119.46526
1.8351624,118.979034
1.9322529,125.08227
1.8817207,119.80953
1.812497,118.61842
1.8161944,115.35336
1.8399444,117.51913
1.6460907,117.5857
1.613653,114.56779
1.6432406,114.98609
1.6486523,110.817566
1.5791467,112.94047
1.563184,110.681526
1.6206087,105.925354
1.637364,104.35924
1.4499401,105.00619
1.4034752,103.821625
1.5264909,102.02585
1.5421262,101.260605
1.4407094,98.998886
1.498738,98.64716
1.4357463,97.04623
1.4808276,90.87652
1.4972167,95.073975
1.3748121,91.01012
1.3649533,91.850296
1.4167049,87.354454
1.3941873,87.24863
1.3665687,84.617935
1.2907643,86.096954
1.1119015,83.49216
1.1636745,84.07114
1.1139598,77.03516
1.0761629,78.92611
1.014927,79.43443
1.0252215,74.86154
0.9783161,73.20386
0.9502633,71.31053
0.93035996,73.76659
0.89842606,68.37237
0.9535496,67.55723
0.9378244,67.17814
0.9916142,68.5365
0.9000964,65.257675
1.0189352,65.146965
0.79656816,64.62239
0.92543405,60.143036
0.84888124,59.995182
0.89601034,63.230732
0.9142737,58.782825
0.80532825,58.56801
0.7975734,54.260834
0.7732314,54.46071
0.7224037,56.321575
0.7703546,58.167023
0.6367777,55.672195
0.650578,55.694473
0.53209907,56.044376
0.572472,59.80856
0.54401046,57.478813
0.57287604,58.264107
0.6343986,61.883396
0.53248036,63.15818
0.52423906,64.68966
0.6689678,70.400116
0.6703688,68.35131
0.70637,69.78092
0.8687281,69.71806
0.88515276,74.38019
0.9354974,76.3988
1.1479034,78.64649
1.0234283,83.77949
1.215049,82.04674
1.379262,88.697624
1.3972242,92.988014
1.4813828,92.14504
1.6245196,99.51661
1.6998744,95.889206
1.5891185,99.51413
1.7965381,101.75853
1.7773687,108.06707
1.8081149,108.23333
1.7786297,111.400955
1.8483528,111.23153
1.926151,113.543045
1.9542301,113.87478
1.8916861,116.687805
1.9233572,119.0622
1.9383483,117.59117
1.9864655,119.75534
1.9490149,116.43383
1.9667041,119.23359
1.7606131,121.96565
1.841143,122.61308
1.7564282,120.97244
1.82386,119.00932
1.8809115,124.11446
1.547294,121.80449
1.7159433,120.104576
1.726748,117.382645
1.7348514,114.20625
1.7473345,118.78514
1.6497198,115.610306
1.5995766,116.60108
1.6155246,110.99657
1.5459646,109.85145
1.4959872,109.74081
1.3835298,107.66569
1.5145742,107.35442
1.3307319,104.82031
1.4155511,105.09142
1.3580731,99.20382
1.4514587,100.875755
1.3377373,96.08403
1.2748966,97.169754
1.3730723,96.57819
1.3152959,93.612686
1.318737,88.60808
1.3241482,90.534615
1.2233615,87.01959
1.1369244,88.483055
1.1605743,84.96767
1.1551241,87.30964
1.1634094,85.621635
1.1758779,78.09371
1.0230281,81.30914
1.024073,75.68314
0.9889707,76.725975
0.84825474,77.43587
0.8107202,76.899315
0.83397776,76.197754
0.7500254,69.49263
0.8126731,70.992096
0.7917202,69.22053
0.79259664,66.140816
0.7776395,64.96021
0.7755956,65.75337
0.7727526,65.954475
0.7026853,62.557007
0.8083762,63.829712
0.71166676,60.571743
0.71736234,59.149418
0.8209439,60.996185
0.53092265,61.231125
0.56532127,55.789608
0.6403408,63.36575
0.53864324,54.697266
0.5933211,55.601997
0.4233349,56.448257
0.36335415,53.339203
0.4213873,55.740498
0.351362,60.723038
0.3288343,58.131687
0.4812082,54.827007
0.22854891,59.43465
0.22350991,61.427483
0.25870547,61.825897
0.3211693,63.282715
0.3771821,68.80579
0.41835397,67.25464
0.46087578,72.891975
0.62488335,72.49846
0.6418803,75.28512
0.6376294,78.72551
0.75147766,83.58369
0.8487933,80.25715
0.9596789,87.78005
1.0492575,87.80269
1.1316026,89.486206
1.1630896,94.05106
1.2945503,94.21041
1.3952136,99.51085
1.3790556,102.58305
1.3375497,103.234184
1.3793945,108.239426
1.6114787,106.47365
1.5398952,106.47168
1.5814245,114.35588
1.4851428,113.45774
1.634167,114.8413
1.548095,115.503136
1.6003685,119.84814
1.704683,119.13727
1.5373557,122.28997
1.6125987,120.82715
1.6486087,123.75643
1.5472738,120.65487
1.6598351,123.03147
1.556908,120.57873
1.4332011,120.61533
1.4639678,119.527504
1.4844084,121.22767
1.4107844,120.79192
1.4581997,114.33956
1.31776,113.528564
1.2951719,114.33254
1.3426068,113.90705
1.259631,112.87558
1.1791453,111.1184
1.1313182,111.12951
1.2433023,111.40395
1.2317834,108.979706
1.1639477,107.25719
1.004253,107.24841
1.0219272,101.862785
1.0580739,99.90636
1.0969303,103.95156
0.9532187,96.56584
1.1091316,97.180504
0.9467028,101.662636
0.9223977,93.63288
0.9618432,92.73
0.9363458,90.15947
0.82239836,89.269684
0.88414514,90.046555
0.8166908,91.60631
0.8184984,84.909065
0.70666456,87.16543
0.75695735,81.226875
0.61378497,80.31927
0.69425255,79.3839
0.637732,76.006004
0.5999397,75.48948
0.5305645,69.52314
0.3683579,76.52805
0.48728636,75.89629
0.41435137,70.67716
0.3804354,67.23247
0.4279098,73.84354
0.46208614,69.697014
0.4152505,63.22845
0.4105264,64.63527
0.3593915,60.5901
0.46019104,63.084976
0.39016446,59.564495
0.39611706,61.99468
0.30424252,61.69606
0.40459007,56.90451
0.33072856,57.03497
0.2526796,55.849022
0.142947,57.954437
0.24492478,55.238407
0.08076549,55.577118
0.1483303,58.109844
0.0700676,54.700882
0.08598664,55.481102
-0.03669486,53.761814
0.04799426,57.992264
-0.06554267,57.061695
0.025481053,65.76216
0.063894495,60.45289
0.035041694,66.88335
0.10034938,64.835594
0.2194056,70.05024
0.29064414,65.033775
0.29440007,73.3614
0.4007738,77.54588
0.42257833,81.212555
0.5712562,82.74666
0.63099664,83.60185
0.7015733,91.783806
0.8900805,85.841576
0.92182946,92.73439
0.86428916,93.81599
0.9595975,97.42346
1.1008027,102.17895
1.1453022,105.72251
1.285619,103.020226
1.2181884,105.483894
1.3392917,109.77118
1.1982516,109.39011
1.3452134,111.47897
1.2552152,113.76679
1.3640878,117.99147
1.2091055,114.61196
1.361253,118.79009
1.3931667,119.64929
1.3760809,120.535
1.3565407,121.99472
1.4295512,121.92614
1.2668676,119.67563
1.2507738,119.115326
1.2716509,120.255424
1.2671506,120.99417
1.2948657,122.811226
1.2944987,123.17289
1.258818,117.61462
1.0989887,117.38717
1.1920166,118.90384
1.0341617,116.32527
1.0508195,114.643265
0.99964416,111.38338
0.96811265,109.70144
0.9164603,111.68987
1.021081,110.99197
0.9766306,107.11847
0.963701,104.163216
0.9645335,102.36234
0.8769754,104.88522
0.95100015,97.82463
0.8818417,95.92509
0.9297365,97.08826
0.88753295,98.466255
0.8135172,94.36452
0.79102975,93.75602
0.8173995,94.25942
0.76007533,90.26595
0.7434817,91.793365
0.87940526,85.03559
0.6632244,83.49935
0.6839857,81.63076
0.6094009,82.262215
0.5521229,80.14189
0.54404235,80.896454
0.48142606,78.30863
0.567631,78.0383
0.47395566,76.19887
0.43261558,74.14347
0.3985475,73.27875
0.36749235,73.12693
0.41189495,62.7176
0.3371993,67.05627
0.2995788,71.44733
0.28688154,62.91619
0.31488478,66.30473
0.3156373,61.603653
0.40276077,59.244274
0.42774457,58.932938
0.27617013,59.758614
0.28348365,60.69523
0.3738789,60.287666
0.33602965,58.521835
0.19618772,58.087414
0.28201768,54.691986
0.221366,56.143135
0.1371356,53.235775
0.11237727,56.32871
0.051539168,56.607193
0.052266803,59.212425
0.0901523,56.682796
-0.031587686,57.048313
0.052125383,55.90975
-0.08896884,59.04507
-0.03189748,63.41844
0.08812429,64.930046
0.11922407,62.44128
0.12222559,69.60096
0.28716168,67.97854
0.3207273,71.92153
0.35832942,70.76608
0.43113357,78.23723
0.5712806,78.15972
0.5415264,81.60475
0.82908756,84.40343
0.77577436,82.611244
0.8637994,92.66868
0.9357715,90.269005
1.000247,90.87849
1.1328915,100.55371
1.2087083,99.96664
1.3219521,101.66584
1.2073792,102.720436
1.5032231,108.61953
1.2788266,110.51093
1.3990107,113.92341
1.4152102,113.302635
1.5494488,116.059616
1.4387105,115.19637
1.580772,114.392426
1.4948093,120.64657
1.5085403,119.84825
1.4757676,117.22214
1.5548024,117.87529
1.4111302,122.83551
1.5556976,118.58304
1.4923004,118.343925
1.4693608,121.48743
1.297156,117.66467
1.3086922,118.28511
1.3976562,120.20732
1.399421,118.95258
1.4431944,119.670296
1.2744123,116.78923
1.2067173,116.14409
1.3799846,114.66286
1.204573,111.46497
1.1101373,113.23396
1.0685651,111.41736
1.1950566,106.78641
1.0747222,105.909454
1.184789,103.78886
1.0868223,100.652176
1.07909,104.624146
1.2114526,100.31867
1.1211941,97.56542
1.1157428,100.18043
1.0918276,97.645355
0.9698592,95.60552
1.0060111,95.629265
1.0247383,92.758125
1.0477569,88.38447
0.98312414,90.22415
0.856237,84.66462
0.9657329,86.52342
0.9263125,89.08538
0.8855161,85.59624
0.8378136,79.94933
0.76198894,78.24945
0.7018273,79.19202
0.69840777,77.73716
0.72270375,76.88148
0.65723956,73.87099
0.65560913,78.11001
0.7101785,73.502556
0.69540817,69.26235
0.6072995,68.307526
0.57332736,68.00778
0.6162573,66.63177
0.66869646,64.51788
0.6330816,62.99
0.5744844,60.291576
0.61650056,59.14186
0.59089774,60.62064
0.6235943,60.553986
0.6204188,60.88387
0.5579818,53.656544
0.5440628,56.403606
0.47052398,57.321877
0.46135658,54.69605
0.37197185,56.075752
0.39664575,52.992016
0.35565743,53.87258
0.36080825,56.606613
0.4163482,55.337925
0.24590419,55.37237
0.2826985,64.88722
0.2911533,60.76853
0.35323638,63.827988
0.4408652,68.33173
0.42519695,64.61931
0.41945234,72.213066
0.53065044,69.31945
0.59869635,72.44999
0.67747164,78.6642
0.83326364,77.7018
0.8090305,81.98615
0.9202465,83.52521
0.99576026,83.89472
1.168308,85.38983
1.2203485,89.81472
1.1888696,91.723785
1.3765028,97.14325
1.4852073,99.308075
1.4837885,100.84336
1.5931448,103.76847
1.635149,108.23525
1.7528569,104.95114
1.7181294,107.45394
1.6511277,110.748505
1.7465395,117.33915
1.7953421,113.654625
1.8047304,118.040596
1.7830983,119.54698
1.8255998,119.007225
1.9312675,123.05664
1.8105837,117.80414
1.7818524,118.976524
1.8367108,118.68651
1.7569975,121.45767
1.7784005,118.604385
1.7968508,121.15785
1.7563912,121.890335
1.7894889,121.50941
1.6377386,115.965935
1.6915718,117.63966
1.6821827,116.59784
1.6402705,113.84302
1.5922513,115.63928
1.569031,113.16014
1.5791416,113.59148
1.5586265,109.729774
1.5026106,107.67279
1.476474,108.57324
1.4733772,106.125305
1.4506373,104.54575
1.3631843,101.1421
1.3964419,101.39102
1.5019516,102.98951
1.392644,99.698296
1.361755,97.58261
1.4235295,100.74726
1.4472996,95.6057
1.3300712,90.45136
1.4352462,94.54895
1.3333184,87.39999
1.3307734,90.85413
1.2349424,86.16496
1.2507471,86.29212
1.2213572,86.699715
1.1625155,86.68907
1.146294,83.0314
1.0799468,80.78358
1.1175122,77.43184
1.0586393,78.03978
1.0553932,71.84893
1.0022882,73.37656
0.97678804,75.19487
0.8932819,70.48652
0.89334553,67.78759
0.8031031,65.06167
0.854304,65.84071
0.8318463,65.61372
0.8012851,65.72112
1.0027337,63.264027
0.8676935,60.433605
0.8668726,58.133762
0.85375416,59.757256
0.88965464,55.944492
0.84146345,54.29402
0.8242139,55.10634
0.73315406,61.059883
0.7907345,59.507504
0.7535995,57.059566
0.6659963,57.135715
0.62981385,56.60473
0.67809796,58.33786
0.6122531,59.496517
0.5554575,58.04545
0.58013004,60.117397
0.5492061,57.47104
0.49048474,61.982506
0.63180315,63.708122
0.65513587,64.38196
0.5652319,67.81663
0.66773844,68.492935
0.68884695,68.84064
0.9184384,73.703476
0.9632097,78.13671
1.0267417,81.7658
1.0158942,81.7141
1.09072,84.012924
1.2715502,89.80633
1.3372352,88.034935
1.4085028,97.65313
1.4579746,96.23384
1.6215944,94.73104
1.6594186,95.88176
1.7410973,99.948975
1.7687972,100.07607
1.8011887,105.88875
1.8774428,109.0429
1.9442816,112.13155
1.9335763,112.16995
1.9155282,114.98714
1.9668893,116.88073
1.9846593,118.45866
1.9785179,120.26236
1.9254081,119.42648
1.8110201,118.37993
1.8206528,121.450714
1.9606556,117.98783
1.9698435,119.86997
1.9320349,118.840034
1.7810193,118.654
1.8186097,119.96614
1.7914609,118.00776
1.8858113,120.44397
1.7499956,119.36552
1.7904836,119.304344
1.7273859,115.71222
1.7386518,113.60548
1.6377312,113.885284
1.6545703,115.874146
1.5969652,112.5378
1.6754044,110.37596
1.4256704,109.295006
1.5849762,106.63042
1.5840755,102.46657
1.4571894,103.36074
1.5606132,102.583694
1.5816386,99.583206
1.4504288,103.00493
1.4968995,96.06082
1.410505,100.37102
1.3794136,96.68886
1.4346088,97.49249
1.4665592,90.54362
1.4320763,92.77256
1.4580789,87.41248
1.2527301,87.71882
1.2332222,86.689995
1.2323719,86.68462
1.2449343,85.482216
1.1642913,84.52597
1.1540552,81.72713
1.0180486,78.88041
1.0486878,77.79133
0.9536695,75.87936
0.858784,74.43071
0.94179547,72.18974
0.8897648,76.88175
0.9010399,67.59562
0.91377336,67.64466
0.849633,67.14792
0.8535859,65.60513
0.89041686,65.66278
0.82543254,64.00331
0.8606042,59.66117
0.8192802,57.983414
0.7701377,59.18634
0.79018736,57.155964
0.76812613,62.932735
0.6977175,57.30277
0.668729,58.666252
0.70698494,54.48512
0.7550882,57.547615
0.5838198,60.880875
0.5115254,57.595833
0.523223,56.55376
0.4749076,57.751114
0.47414154,59.835136
0.41368243,59.239105
0.34034798,58.906548
0.39088032,60.044647
0.4544849,61.11809
0.4359272,63.26472
0.3654108,64.71963
0.44952524,66.22286
0.5073057,65.78859
0.6532113,70.577736
0.651104,73.32956
0.80847424,74.0064
0.8006919,79.775215
0.9053411,83.638306
1.0786885,86.213684
1.0850179,86.53864
1.1626418,89.61705
1.2128091,91.690025
1.4445543,92.86598
1.4704792,98.024895
1.5303755,102.154335
1.5397807,107.537125
1.6577902,105.59675
1.6590782,108.24525
1.691144,105.30276
1.6444359,110.96654
1.7358296,112.80894
1.7144425,117.56404
1.6865318,117.66639
1.760932,116.42453
1.8051775,120.838974
1.7370702,115.88861
1.7102764,122.15874
1.735335,122.54885
1.7848803,120.9532
1.7568336,119.370865
1.7596363,121.2024
1.6803954,119.286255
1.63242,117.306885
1.564914,118.83487
1.6159538,120.94141
1.4757723,116.37864
1.4453233,117.69118
1.5167195,117.698296
1.3985952,116.42113
1.3316286,117.458595
1.3420672,115.58804
1.3960117,110.58655
1.2670149,113.41212
1.2853137,107.359604
1.3535932,105.846054
1.2981066,105.68997
1.249758,109.10773
1.1613476,103.5198
1.1627564,101.119194
1.159738,99.029205
1.0780852,98.47128
1.0976695,96.651405
1.0815402,98.490814
1.1325904,92.7165
1.1077443,94.36426
1.0653759,93.62798
0.9915943,91.93208
0.9171856,88.794754
0.9464683,90.46479
0.90109515,89.04901
0.8750107,85.825356
0.86263317,80.52051
0.74801373,81.04572
0.665893,82.07577
0.6747993,80.806946
0.5845806,77.55304
0.61547697,76.84016
0.6142345,73.397095
0.59623706,70.154724
0.50854945,72.04743
0.51618093,68.54601
0.39642137,64.3911
0.4782841,67.186424
0.53845644,64.061676
0.47292835,61.880127
0.4967006,62.19526
0.5078662,60.174156
0.5076345,58.25919
0.49727368,61.300964
0.38073102,61.699463
0.4257961,58.93906
0.37839273,54.92552
0.43935564,56.68545
0.24955933,59.393986
0.18928473,58.91823
0.14971395,58.34488
0.120404944,57.805637
0.15331149,57.947853
0.104703024,60.577564
0.12151315,63.454678
0.16969024,59.488556
0.08734639,56.561306
0.078488566,65.749466
0.072272584,65.96485
0.100149445,65.05563
0.14696681,66.22368
0.25744063,74.276596
0.27106395,73.74317
0.33898878,74.9179
0.49141878,78.80905
0.5893945,75.91101
0.5890317,83.54588
0.7229483,86.14259
0.8221611,85.31507
0.9128892,85.65152
1.0601506,94.71553
1.0637231,94.23606
1.1050376,98.5468
1.1955919,99.66803
1.1943473,103.64825
1.3180091,108.214645
1.3457333,107.78826
1.2260897,109.254425
1.3676335,112.73632
1.383328,113.53011
1.3499411,114.31682
1.4354746,116.23148
1.3672112,111.53706
1.3931317,122.713394
1.3898879,122.056946
1.4359472,118.27413
1.3688488,123.91415
1.5196459,120.97709
1.4209648,123.94449
1.2854906,119.56183
1.3529205,119.98895
1.236697,119.81785
1.2900984,118.26553
1.2779344,116.26072
1.3057284,120.44256
1.1782019,115.4242
1.2638248,118.205246
1.1350038,115.76189
1.0861021,114.126724
1.0093944,111.0584
1.0294967,114.935616
0.9641763,111.76858
0.96894735,109.30694
1.0197026,106.288025
1.0092887,106.45717
0.9367185,108.51973
0.82179326,101.20532
0.9151326,100.36222
0.8398096,98.877075
0.73905927,99.52175
0.903118,96.740845
0.94339013,94.848076
0.96830773,94.32402
0.84301543,92.918846
0.6582114,96.261086
0.69243324,88.30799
0.78766483,84.24338
0.7570285,89.781136
0.68065786,83.45222
0.5140673,80.50451
0.5938033,81.81589
0.59622455,81.524216
0.44755828,76.42489
0.3464065,78.54218
0.44971675,72.46183
0.42844492,72.331696
0.2795056,73.404045
0.3859304,72.48697
0.33687052,72.36592
0.3136922,65.93401
0.34468517,65.722404
0.27837458,66.57141
0.32190254,67.41659
0.29429817,63.962574
0.34921214,59.48972
0.2916734,63.87898
0.26358122,58.65514
0.27312553,60.781834
0.1848526,59.600483
0.4227451,55.68088
0.24648054,57.63681
0.17374353,58.16295
0.15373169,57.323597
0.034755338,57.754436
0.13311751,56.487663
0.08246544,55.74816
-0.04346887,59.49576
-0.14820509,58.67852
-0.09795836,55.693787
0.050228875,60.344204
-0.029199662,61.40503
0.00890335,62.246777
-0.025855137,65.36911
-0.064645775,64.918434
0.14885712,64.71875
0.12244308,71.249374
0.1751331,72.21875
0.28421232,73.719666
0.46550134,75.14528
0.4906017,78.4056
0.58275104,81.24017
0.6814661,89.89324
0.7857254,90.92948
0.884913,89.83527
0.89338,93.99343
0.90870047,93.60643
1.1135354,99.85604
1.1958563,102.226074
1.0727998,104.007256
1.2064909,107.60225
1.2897671,112.709564
1.297127,105.735535
1.3330302,109.972206
1.3688878,112.162056
1.4097146,117.39975
1.5182257,117.06213
1.4668823,119.20058
1.4176772,117.9204
1.390857,118.1778
1.4054867,121.305824
1.421055,121.96534
1.4212266,119.31314
1.4137908,120.69959
1.4608455,119.56933
1.4100995,118.54392
1.3342403,119.55614
1.254624,119.27049
1.3249315,116.8847
1.2033899,118.73277
1.1820594,116.141945
1.1527432,111.67484
1.3045911,113.14169
1.0982816,112.88825
1.1495712,107.78115
1.0373257,107.85963
1.10946,105.9905
1.0988679,111.30965
1.0614554,107.50054
1.017144,101.6518
0.9449657,104.145874
1.1735951,105.11644
1.0029927,97.01943
1.0660728,96.740105
0.9967893,96.05363
0.9075972,96.414635
0.95634043,93.993416
1.0407666,94.263794
0.9098576,93.67701
0.8875631,88.50656
0.81689256,90.96868
0.77020186,87.94195
0.7979674,86.50014
0.82822114,86.212746
0.71267474,81.40222
0.66482157,78.70603
0.68975645,76.79927
0.6017276,80.37486
0.5638464,77.02253
0.6145359,80.00158
0.62419164,73.26575
0.48130178,73.77475
0.5353835,69.872574
0.59393454,67.21204
0.5254992,68.305786
0.4877383,66.25863
0.44260657,66.119576
0.5022651,66.29649
0.4672,61.99178
0.5031831,64.97744
0.5941272,60.01252
0.43948027,58.243088
0.38016117,58.81492
0.40314728,59.569893
0.46423858,57.32439
0.40710273,58.66031
0.35807684,56.723415
0.25445628,57.14253
0.30044994,53.795094
0.23433106,57.12912
0.28123295,62.179348
0.19124565,59.757236
0.11641272,57.900272
0.20804659,63.60318
0.170618,61.993713
0.22044758,60.30876
0.28100172,61.441383
0.22583458,63.55548
0.38541168,66.48411
0.42991397,69.895386
0.3870187,69.66059
0.39519164,73.814606
0.58925784,73.90316
0.6573226,80.56766
0.72216237,80.49319
0.94564354,83.50216
0.89532876,84.07781
1.0836759,89.41186
1.1532884,90.62955
1.2186464,87.500916
1.3087339,95.33983
1.2757231,100.32903
1.3841106,103.05841
1.486523,104.18127
1.5838003,106.3415
1.6455423,111.37139
1.6334122,109.56774
1.7578917,113.05715
1.7180252,117.30351
1.6103034,114.579605
1.6860069,113.32178
1.6363513,123.43416
1.7471384,120.637436
1.7730266,118.47313
1.6743134,121.150894
1.6839113,119.84625
1.6317854,120.01063
1.6620692,123.266785
1.6669337,120.314
1.6136386,118.499756
1.6414775,122.577324
1.6327862,119.068306
1.6424072,119.152596
1.6556287,116.81064
1.5422639,114.1367
1.535013,114.60547
1.4946955,118.16551
1.5388452,111.67149
1.3824345,111.75499
1.3388647,110.951004
1.4544823,108.22305
1.4292505,103.95281
1.473053,102.56664
1.4220837,104.54901
1.3565601,102.55487
1.3645468,101.48301
1.3316429,101.15378
1.3615341,98.07002
1.3491943,95.037445
1.195313,96.47122
1.2617896,93.986824
1.2380471,95.17249
1.2969936,94.82057
1.2261745,92.299065
1.1788329,86.190475
1.1629447,86.32871
1.2009823,88.14738
1.086808,78.63043
1.0931535,84.25579
1.0175755,77.60827
1.050044,78.92474
0.9365001,81.68179
0.92238325,79.16455
0.9081956,74.986115
0.9164925,71.40354
0.79900235,74.26646
0.8896788,69.85841
0.8737341,71.01517
0.8229146,67.76656
0.92931646,70.051414
0.909435,65.23233
0.8818223,65.39442
0.7593473,67.91659
0.9009229,58.706997
0.8462806,64.221954
0.69189745,57.799503
0.7934887,54.816727
0.8225754,56.784203
0.65147245,60.772137
0.6925967,53.74022
0.58164036,58.198437
0.68337685,56.467808
0.572924,58.495865
0.6316962,55.75985
0.51500744,61.46253
0.522999,56.121742
0.5224292,52.30626
0.4690778,59.839504
0.4555212,60.44023
0.47976065,62.070866
0.44911718,65.19781
0.53476804,68.0054
0.5728458,63.92504
0.66071814,69.480675
0.75087136,71.65049
0.8466829,73.79894
0.8795635,76.87228
0.943782,79.661835
1.1882184,80.573
1.1733277,84.82499
1.2382058,84.71678
1.3250304,90.97555
1.4036021,88.4528
1.5011044,95.55688
1.567561,94.76812
1.6238956,99.17357
1.726054,99.52072
1.8096608,105.50313
1.7538536,105.75958
1.9813998,108.88474
1.8792504,110.37279
1.7868855,112.5243
1.9697477,112.77129
1.9206848,115.413536
2.0017188,120.05159
2.0209556,122.181244
1.9546045,122.98736
1.9547077,125.495735
1.9222593,116.10823
1.8981941,118.73355
1.9296947,122.129944
1.8199359,118.365906
1.826231,118.82824
1.8703914,121.461586
1.8234546,119.70781
1.7790183,123.17666
1.8480085,116.96692
1.8524864,119.36244
1.7746508,114.29444
1.6481248,117.31909
1.7345792,112.92383
1.6968187,111.56999
1.6230288,110.44696
1.59755,112.55169
1.4418296,109.56987
1.524946,108.44333
1.5056225,107.618744
1.5469013,102.70828
1.5592514,99.32649
1.5796942,101.03746
1.5998901,103.4433
1.5411792,98.22481
1.4245542,97.53988
1.4949521,94.58333
1.5041279,93.7208
1.3416369,90.02702
1.4088163,88.17764
1.3952261,87.82727
1.3907546,88.83879
1.2583872,85.52432
1.2427211,86.002495
1.1710402,82.23364
1.2109209,78.97107
1.1838928,78.37607
1.0563079,80.66255
0.9540487,80.80893
1.0138937,74.99513
1.0110881,75.031425
0.97104317,73.2488
0.8337182,74.97566
0.9664784,71.93209
0.9476082,68.081635
0.931166,68.428795
0.82301164,67.089745
0.8561905,62.392654
1.0319523,64.96873
1.0075772,59.487503
0.8748796,61.52161
0.87726897,60.47547
0.87764984,57.34261
0.9055472,58.406395
0.74606013,58.424984
0.71068054,55.982723
0.91410846,58.51577
0.6963562,54.196846
0.71398187,59.840267
0.6967382,55.263763
0.57257843,58.702435
0.6502259,57.7059
0.5494933,54.536114
0.57592595,56.205544
0.5382113,54.855293
0.4422369,61.064205
0.5170617,57.12699
0.50995255,66.06484
0.5692198,64.92431
0.66780245,70.96519
0.6827885,68.141136
0.7447039,66.031715
0.8210845,73.08951
0.9255899,76.87396
0.9341944,77.032814
1.0981795,78.5942
1.2235062,79.84189
1.3606519,84.346504
1.2230122,90.3365
1.2715287,92.385704
1.4811159,94.24177
1.4674782,96.230385
1.6056747,105.1278
1.5795549,104.84682
1.6809325,105.25946
1.6891958,102.62649
1.8573058,110.59982
1.7094098,109.67924
1.8091211,115.26402
1.803771,112.99978
1.8764501,115.20108
1.7566347,117.85793
1.8700854,117.03586
1.8344306,116.64655
1.7831781,120.60577
1.7345254,118.84652
1.8092568,117.67138
1.6919194,118.7935
1.7137223,123.06464
1.7822618,120.00966
1.6307608,122.1998
1.6526057,118.73677
1.5726589,115.80071
1.7113936,119.24417
1.620896,114.557
1.6406245,115.3038
1.6276966,118.166695
1.5345271,115.458954
1.497159,113.58568
1.4153531,110.90944
1.431195,108.75646
1.4288129,110.92623
1.3725761,103.44368
1.3213723,105.357475
1.3382787,102.82789
1.2356192,105.2703
1.3489788,103.10578
1.3297848,100.27825
1.2388916,96.73076
1.1692656,97.47142
1.2685008,92.88574
1.2727809,91.926834
1.1496733,97.27822
1.2130111,90.210754
1.1564382,87.2289
1.1018552,86.37679
1.0646998,88.49829
0.9360063,85.586136
0.96005505,87.38614
0.98632103,82.31151
0.84920454,78.936424
0.8926457,80.1059
0.7554771,76.65605
0.7382735,72.81158
0.7783558,72.141884
0.6017094,70.61251
0.54239637,71.15707
0.68842274,72.20399
0.5647609,70.56583
0.7139494,65.91991
0.7005552,65.76678
0.6475701,60.57731
0.6020727,62.79718
0.66572833,65.16898
0.5017613,63.461655
0.5151056,58.846745
0.6618369,60.57416
0.59605896,58.35999
0.5228406,57.493706
0.44833994,56.523083
0.4138332,60.578873
0.35356483,56.193073
0.2936309,55.957203
0.3637609,56.94574
0.260118,58.10837
0.23430578,58.472702
0.25225347,57.84527
0.19196974,62.410965
0.19412771,61.065815
0.22849981,61.64292
0.22315554,66.512505
0.13515119,64.6211
0.33196327,66.94773
0.37561685,67.18141
0.29375625,64.189705
0.47336853,75.48445
0.537828,71.78435
0.68372035,76.03841
0.59894043,79.4459
0.7295003,81.74498
0.82242846,88.998
0.9321238,88.13028
1.0299252,91.90457
1.0993918,90.068634
1.1707497,97.673584
1.2040339,96.3694
1.2481697,99.485214
1.3275139,102.60438
1.3121766,107.77292
1.4563748,104.59757
1.4998164,111.343956
1.4421504,113.41022
1.5680197,113.14195
1.5111657,112.35775
1.4366962,113.172264
1.3907349,116.97652
1.5689495,115.91761
1.4953815,117.39462
1.4368542,119.337814
1.4284335,118.81502
1.4180527,118.16384
1.3537425,122.06299
1.4863554,120.57142
1.3966198,115.6587
1.3953503,123.415276
1.3703221,118.43682
1.3516281,118.73788
1.2558328,117.13996
1.201272,117.960014
1.2047915,115.42363
1.2725391,117.479324
1.1029818,112.129875
1.1328369,110.96341
1.140009,109.832306
1.0446035,109.10081
1.0498029,111.812416
1.1095353,107.718575
0.99596256,103.782646
0.9598255,106.3254
0.9610742,103.50514
0.9180707,98.89487
1.0058498,103.3615
0.96530926,97.005745
0.93482673,95.66111
0.8871104,94.26084
0.956587,92.69463
0.8793658,92.46384
0.8511637,89.65258
0.7893819,91.60585
0.6938645,89.81169
0.74412763,88.50901
0.7217396,85.713326
0.73262596,81.37773
0.62396795,80.56446
0.5674296,81.05523
0.438076,78.60445
0.53048456,79.06677
0.45632792,78.05999
0.43527073,78.08129
0.28726363,74.5566
0.4467936,69.28162
0.5549722,67.9732
0.343828,65.59755
0.39606115,68.89017
0.2849002,68.619896
0.36748686,64.396484
0.23326135,60.254032
0.28643954,58.959465
0.33677843,57.839016
0.3778994,58.322193
0.32277107,61.322178
0.32062078,58.65176
0.24267073,56.763924
0.22388107,60.485817
0.19642983,55.82873
0.13766514,57.849583
0.069987334,57.099262
0.03889643,55.466965
0.0695036,54.52882
-0.11419347,56.73982
-0.036874175,57.45595
0.003179328,55.634262
-0.16946699,60.60508
0.030337486,63.04883
-0.0773,65.40926
0.019566534,65.42538
0.0863231,66.16095
0.02310658,67.75577
0.22444355,70.18432
0.23799813,70.81314
0.3229616,76.87273
0.3196855,76.95234
0.41902763,80.23294
0.6053174,83.72645
0.75172985,85.7463
0.74265283,88.21087
0.8728321,95.53649
0.9291085,94.806946
0.986899,95.44503
1.0990802,96.19504
1.1323025,103.1791
1.1968967,106.47781
1.2614771,106.21227
1.2371259,108.22172
1.2314118,113.44504
1.2701242,109.249054
1.3957814,114.99571
1.2269168,116.787575
1.3231475,118.44915
1.3910383,115.26706
1.4029244,120.703896
1.4444435,121.03376
1.3065634,115.9405
1.3207877,117.28049
1.4353794,119.88911
1.336419,121.500244
1.4013646,121.5889
1.2738919,123.83597
1.233764,121.12447
1.2480893,119.79877
1.2200644,120.82143
1.2026031,117.66028
1.1707256,117.30626
1.2012063,116.661446
1.0886916,113.43679
1.081081,112.6944
1.2154232,108.780464
1.0725763,110.079155
0.9936659,110.35695
0.9724157,107.671875
0.9685486,107.0069
0.9519797,105.25627
0.94347245,102.71234
1.0045495,100.212425
0.9200578,102.35378
0.86078155,96.317726
0.90556955,100.24275
0.7883913,97.090996
0.93958205,95.82059
0.9060083,91.16939
0.86397785,92.96826
0.7896077,89.992195
0.8673705,86.503395
0.79506594,88.863655
0.66637033,90.33972
0.5688624,83.77355
0.6247371,83.45154
0.4632677,81.37486
0.5801882,77.58821
0.37720346,75.29041
0.5657597,77.04745
0.5180749,73.66383
0.4520035,72.12222
0.38866785,76.997406
0.43860033,67.66418
0.40475613,68.93094
0.37004626,70.257286
0.44083768,68.77817
0.34366667,69.53787
0.29806274,66.92267
0.48715553,67.93704
0.4345761,63.43865
0.3894732,61.24097
0.33069438,59.93113
0.44134626,58.842213
0.36881196,58.794147
0.25394905,55.87396
0.3388844,57.7196
0.31822482,61.97339
0.21774152,55.813652
0.22099052,54.716675
0.26917726,60.38907
0.095439166,53.50687
0.17836769,55.718967
0.11774787,57.861492
0.07157715,61.991993
0.17770427,61.63951
0.12663625,62.939705
0.08776058,61.45076
0.2351683,65.573135
0.26400432,70.08609
0.2924778,68.80155
0.33469635,73.16427
0.44251892,73.15802
0.5145123,79.21845
0.5742594,75.78586
0.8058341,81.42177
0.72173893,82.72021
0.85672957,89.375626
0.9542384,92.56769
1.0878623,90.845505
1.0978363,92.84667
1.1001797,95.64117
1.3197734,98.59668
1.4262636,100.93567
1.2906958,102.13187
1.4402844,106.10184
1.451563,105.184235
1.4836204,109.142914
1.5084698,111.00537
1.574021,113.273766
1.660427,114.71479
1.5670545,117.05393
1.5720682,117.994484
1.579922,122.63393
1.6290776,124.10925
1.5613356,117.68726
1.6001512,121.2415
1.5418153,119.06709
1.5882641,116.0318
1.6598332,123.04729
1.4880408,118.93557
1.5344732,120.74457
1.5004803,120.58088
1.4115406,119.43779
1.5114418,115.082756
1.4630766,117.17776
1.3516345,119.86054
1.4638913,112.681046
1.4348648,114.186005
1.3461741,113.07322
1.2881001,108.82834
1.3664607,107.397934
1.236137,106.76962
1.3055265,108.674126
1.2892817,104.64812
1.3241292,104.1408
1.1773841,100.40255
1.2037716,100.77336
1.1963,97.47692
1.1907094,93.960846
1.212428,94.33394
1.1371946,93.23738
1.1899127,88.33055
1.189009,91.22382
1.0729331,90.196556
1.039268,88.811165
1.0484198,88.13315
1.0189571,84.8284
0.94999325,86.38294
0.97928184,80.72705
0.92289585,76.963005
0.88714504,83.32388
0.8407466,80.752304
0.7644175,77.4591
0.69684863,75.97375
0.85755795,72.951035
0.79534274,73.13628
0.76517045,69.12467
0.8231931,66.704994
0.6626592,62.61684
0.70147526,63.536552
0.78589743,64.154945
0.7384508,63.70053
0.7287201,61.924023
0.75858694,64.790375
0.8620002,59.50104
0.6971496,59.68331
0.7419796,57.758453
0.6960648,57.88309
0.59253925,56.636055
0.5436183,56.909527
0.6298217,56.0404
0.5400649,57.279575
0.47849423,55.64533
0.43174925,56.341423
0.47216648,53.93693
0.46089387,59.081768
0.40427732,56.370922
0.43557605,63.541584
0.3935876,61.611984
0.4769634,61.893433
0.43354455,64.91803
0.56104153,63.55132
0.61122316,65.937096
0.5879618,69.4876
0.64240575,72.71121
0.7986474,74.741806
0.87211585,77.76132
0.9310313,78.48517
1.0863508,80.63641
1.1596632,86.38343
1.2242224,90.404335
1.290755,87.94597
1.3593795,94.43733
1.4514754,96.62927
1.4846693,97.7111
1.4902034,99.35989
1.6539568,101.16935
1.6335621,108.04374
1.7173319,107.54006
1.6958404,107.601494
1.7262311,110.81892
1.7405107,115.05757
1.8572445,116.78361
1.9504325,116.6532
1.9631048,118.69536
1.9380256,120.95542
1.9161198,120.47723
1.9165704,118.73962
1.9254934,124.5151
1.9138882,121.99607
1.9336586,121.04373
1.8263073,121.202324
1.8700085,115.0971
1.7759433,119.97276
1.728294,119.2944
1.8414971,119.294075
1.8419907,120.77305
1.8394774,116.23247
1.7179543,116.328094
1.6935993,115.41338
1.6308286,110.79096
1.6651522,115.63768
1.6185551,112.09899
1.5420802,112.66655
1.5890248,107.56369
1.5604397,107.702896
1.4744916,102.71178
1.5110545,100.842834
1.3949544,102.622406
1.5128342,100.607216
1.5141745,101.29556
1.453983,99.22434
1.5418774,100.39707
1.4014988,96.32801
1.5141193,92.35078
1.425837,94.01828
1.3666155,88.99706
1.3930106,90.89897
1.3321383,90.28978
1.2789769,83.21853
1.2720565,84.758934
1.1498506,81.267624
1.262041,83.61225
1.1470362,84.55132
1.000239,82.33614
1.0857487,77.071625
1.1192317,74.781395
0.9565702,77.30416
1.0369623,71.69803
0.9861155,69.04571
0.96222234,70.9398
0.91710323,72.761284
0.9545711,66.02152
0.9210879,66.016266
0.92546314,69.908615
0.9400496,60.957138
0.82790136,59.428596
1.0156342,60.82886
0.88249445,54.481483
0.9326948,59.368374
0.77519953,54.9041
0.8063595,55.921436
0.85850024,55.079853
0.83970326,51.967216
0.66403157,54.394447
0.83212143,56.593464
0.66083187,57.44052
0.6098827,57.313023
0.5287231,55.75442
0.5463717,57.89067
0.5772289,58.975693
0.54867834,59.43577
0.6188102,62.003384
0.6166418,62.159473
0.60426944,67.22791
0.5111547,67.87374
0.6179502,69.47029
0.74925524,72.24391
0.7663373,69.73621
0.84829116,73.53626
0.92598766,82.196014
1.0446591,78.9642
1.111833,80.10912
1.3220283,84.98411
1.4048153,84.78888
1.4211909,93.15178
1.5297824,93.87517
1.5547976,98.74961
1.6295457,96.85551
1.7358907,99.72038
1.7618917,102.753006
1.6983312,109.72399
1.8902249,106.4178
1.7693679,111.643974
1.9793077,110.67259
1.8835338,116.02037
1.9456769,118.09904
2.0043035,116.30637
1.9323747,118.67765
1.9657267,117.36675
1.8617865,118.1731
1.9155953,118.434105
1.9719522,122.30021
1.8778211,121.65527
1.858695,118.13916
1.84381,119.124115
1.887871,118.4627
1.8043659,117.02219
1.6969905,117.74808
1.7022392,117.870705
1.7528207,115.557205
1.5878958,116.58873
1.647782,115.00322
1.5381656,115.780075
1.6000181,113.266174
1.5833944,110.39811
1.5403591,110.90884
1.4165778,108.44357
1.5269156,108.1348
1.4807342,105.9205
1.4201331,105.74614
1.4161688,107.12533
1.4191997,102.412125
1.4182224,100.731895
1.2981088,98.974266
1.3660496,96.193634
1.3263263,98.6617
1.3229741,94.66136
1.2858367,93.71804
1.3185052,91.11667
1.3041503,90.3737
1.2217082,93.225136
1.2310019,89.53285
1.1223373,86.01384
1.1019491,81.75274
1.0590446,85.00068
1.0070924,81.63866
0.969061,84.06745
0.93654436,75.62421
0.8904691,76.886246
0.8717668,76.95972
0.83113045,75.24052
0.8383495,66.75875
0.83899593,72.99331
0.8104692,68.802246
0.80362254,70.74189
0.71048546,66.242676
0.74285454,65.42014
0.74316174,61.205196
0.83704555,66.915
0.7460982,62.777744
0.5956384,61.40257
0.63723093,59.268204
0.69094485,57.561356
0.6819075,54.42689
0.59428984,57.250923
0.68324465,57.730553
0.5801129,58.585476
0.43594983,57.74617
0.43747503,55.05936
0.35911113,56.864098
0.35383105,53.92482
0.35438442,57.766056
0.27497327,59.153114
0.39080837,59.879883
0.32584575,61.68507
0.24848966,65.3615
0.16705543,64.542336
0.3539249,64.796555
0.4422798,65.227325
0.41624954,71.49459
0.44786397,71.847855
0.53247094,76.448074
0.6777632,74.65362
0.82630867,78.32987
0.81169724,80.19409
0.983552,85.32244
0.94605863,86.95858
1.1211419,88.348465
1.0732863,87.50596
1.2404844,92.84945
1.293723,93.38374
1.4248377,100.84689
1.383008,100.270645
1.4415233,105.81852
1.5991592,104.21834
1.5677466,109.56119
1.4279405,115.64638
1.4850371,114.91862
1.4725872,117.104996
1.5502584,117.576004
1.5792395,118.87768
1.6146307,120.3296
1.5973706,117.58586
1.6298187,120.66634
1.575059,116.81527
1.6660936,120.69304
1.6007216,126.59225
1.5985408,120.309425
1.5035381,119.19035
1.47639,120.04346
1.4858855,118.00821
1.592777,118.30563
1.3446649,116.18748
1.3644344,117.11065
1.2941082,112.987885
1.300598,114.27257
1.2722731,112.928894
1.2444992,114.806
1.2517323,110.01357
1.1978389,110.28342
1.2547042,107.72485
1.1393481,104.468575
1.2286794,108.232414
1.0559814,105.616425
1.1306539,102.59382
1.1495945,100.499695
1.0846227,98.02797
1.0806365,100.55936
1.0525295,94.30535
0.99277323,92.843185
0.97010374,96.37955
0.9603197,91.737076
0.88615984,96.92196
0.8441491,89.27713
0.9757467,91.59196
0.79605335,87.11519
0.8111209,83.6636
0.6650682,87.229126
0.7766413,77.68836
0.6935639,82.00183
0.59052837,74.8922
0.58764374,78.595795
0.5580217,77.18933
0.6151388,76.71375
0.6456816,74.874825
0.48390752,70.33652
0.43084937,68.20347
0.53337103,68.49132
0.44336304,69.06192
0.5055271,65.81265
0.39925644,61.866985
0.4101499,61.347034
0.4244406,62.48838
0.4900282,60.724174
0.5305888,59.68766
0.3056115,57.60555
0.3797915,57.330196
0.3084994,54.33855
0.27086237,57.121468
0.2672179,58.26031
0.20305422,59.13702
0.25855827,55.489834
0.11169947,55.05587
0.16243728,56.187088
0.056456372,58.144234
0.054309923,56.765137
0.0188222,57.45125
0.044172253,60.485924
0.07153122,58.051167
-0.06029789,58.372208
0.015496581,63.640423
0.061401106,62.36805
0.11064513,68.64288
0.10240528,69.12865
0.23746806,68.71733
0.31407565,74.74187
0.38927138,73.45896
0.51762646,80.25557
0.54618114,80.27796
0.7419191,85.99688
0.787603,88.1821
0.8470706,91.38392
0.84919596,91.391846
0.990686,96.17778
1.0742307,99.16606
1.157569,98.66986
1.1875885,99.06564
1.1779855,101.25762
1.2209809,106.69565
1.2489036,105.22752
1.2765448,114.579254
1.3480886,111.147514
1.3235459,118.119835
1.2885044,119.05622
1.287013,116.04865
1.4051751,114.73741
1.3994153,121.405495
1.4375101,121.93185
1.2919744,122.0891
1.3154125,119.48914
1.3578658,120.363815
1.2676988,119.55584
1.3188529,117.79473
1.3571857,121.86278
1.2253747,118.39665
1.319044,119.79323
1.1659762,117.25273
1.1087537,113.877205
1.121603,114.880226
1.099585,116.69087
1.0530753,112.64519
0.9447247,113.42019
1.1247678,115.235
0.93694603,109.61844
1.0600265,104.64211
0.9492792,105.04296
0.88634974,102.58918
0.94712466,101.0307
0.91931087,106.514984
0.8279892,97.06318
0.8723193,100.643616
0.85978764,97.97088
0.84134364,95.70974
0.82035065,94.69583
0.74946153,90.2768
0.86103517,90.626945
0.7921966,93.18503
0.8008545,88.1634
0.72281504,88.29686
0.6448896,88.574844
0.73728245,83.01338
0.7001989,83.79661
0.52100015,87.31953
0.66783684,81.47984
0.5105642,73.741806
0.47508538,78.74138
0.48724586,77.36917
0.47352797,72.25893
0.49465397,77.62527
0.41113284,70.71505
0.41173023,71.73842
0.36970592,69.396385
0.36925325,67.35632
0.4298245,65.34293
0.48309955,66.22115
0.32020232,64.75346
0.287192,60.477642
0.3796502,63.768505
0.5195183,61.82908
0.28247216,58.22003
0.323975,58.115852
0.3303555,59.27969
0.196884,57.2494
0.18651558,57.91033
0.29119176,59.422943
0.09977058,57.179283
0.08604365,57.30841
0.023924666,62.36529
-0.013274295,57.4508
0.11070378,58.40284
-0.0078019537,60.513912
-0.0010925124,55.600723
0.040999293,55.958755
0.08119804,65.91702
0.029900448,57.925625
0.03667485,65.07444
0.12517951,68.74965
0.25959337,70.59808
0.34169516,70.932884
0.4134145,76.617645
0.5046239,78.53464
0.537706,76.59958
0.619142,83.13046
0.6486398,84.4392
0.85027176,85.90326
0.94085324,90.30802
0.9592149,90.33925
0.97944564,98.92919
1.1426395,98.91341
1.2090814,99.92411
1.2464467,104.96293
1.3684618,105.89893
1.3368502,108.21749
1.4830239,108.81504
1.4678321,113.30809
1.3543886,112.55217
1.4653124,116.3636
1.5661651,115.544334
1.5364031,119.23373
1.4735045,121.48084
1.4586753,117.40831
1.4149752,119.0025
1.4965539,121.56344
1.53522,120.46025
1.5123978,119.84062
1.4248308,117.55634
1.5056295,119.64503
1.4392788,116.80467
1.4343327,119.5788
1.3838344,118.17775
1.4851424,116.27314
1.3246875,116.87977
1.3999311,112.63943
1.302472,117.54975
1.2948282,112.92088
1.3331302,117.20422
1.1919556,107.66349
1.3048738,104.85377
1.1121751,108.54595
0.97489196,110.956535
1.2017844,106.73063
1.1234136,102.5839
1.1393577,102.755066
1.1684172,100.45569
1.1644655,100.64544
1.084638,96.698044
1.0219985,97.514
1.1165786,94.4557
1.1246444,93.9587
0.98283017,91.02125
1.0150652,90.15204
0.97640055,89.2892
0.9980424,92.93058
0.9977613,89.24885
0.8620084,81.64655
0.954772,84.576485
0.8906876,84.23153
0.7089208,80.26673
0.812355,79.566216
0.7285248,81.455956
0.74943376,77.783646
0.6308521,73.15939
0.5841028,71.05867
0.63663834,71.86683
0.5200788,70.105865
0.53482765,70.79405
0.6021179,69.372345
0.5944476,64.309654
0.68750495,62.84515
0.60899955,63.299213
0.5850517,59.72373
0.514702,61.239613
0.6753281,61.591434
0.5869531,58.526455
0.5864166,54.20258
0.5890235,58.1408
0.4632714,55.571323
0.56857276,57.44684
0.53650314,55.733566
0.3810327,54.20237
0.35731396,59.299736
0.32164964,54.575172
0.41128215,58.548183
0.25564408,57.23119
0.33729413,56.59682
0.36697918,59.92092
0.3219997,61.051342
0.33530527,61.920994
0.4151359,65.193375
0.36373582,66.7494
0.47269607,69.570305
0.4100956,71.36232
0.53583354,70.25391
0.7124949,78.76203
0.7183428,77.137245
0.91517544,85.452705
1.0136629,85.154854
0.99775696,87.00436
1.1538023,86.19773
1.2725189,93.7456
1.338975,95.20614
1.4375614,94.2984
1.4866215,98.06451
1.526628,103.722755
1.6198035,105.02363
1.6948639,106.34988
1.713713,108.4498
1.7819015,109.85525
1.7238045,115.78831
1.7907633,111.51683
1.8031331,115.20292
1.856643,118.343605
1.8052559,115.8678
1.9271482,117.36201
1.8124443,120.719215
1.795689,122.21466
1.8536165,120.309784
1.7986645,120.92975
1.8146973,120.18166
1.7536625,119.82007
1.7645141,116.696495
1.737141,117.58044
1.7818408,119.927185
1.7121962,119.84186
1.7143546,114.58819
1.6798996,117.7401
1.6320819,117.74871
1.5783228,114.32115
1.6090006,114.67666
1.6238426,116.031
1.7049452,109.10379
1.514252,109.76485
1.5047097,109.28946
1.5163817,107.972565
1.434736,103.30882
1.3971939,107.90334
1.5085932,99.38895
1.4361311,102.74682
1.4574248,101.14543
1.4345365,93.7159
1.3576667,93.10023
1.3543632,99.3712
1.3624727,91.59329
1.4167576,90.1465
1.3141512,89.26733
1.3312826,89.25433
1.2739232,92.26729
1.2631207,85.526115
1.0576537,84.60713
1.1124521,89.50919
0.9533242,83.778435
1.0624859,79.39056
0.99068904,78.74779
0.9785355,75.04076
0.98127466,76.83529
0.966737,72.29722
1.0710263,75.69576
0.8759953,76.4586
0.90479124,70.807106
0.8359673,67.67451
0.897728,67.155815
0.9209593,65.88486
0.9137279,63.76329
0.7900061,65.77559
0.8317488,55.79092
0.9049913,61.09272
0.88169134,60.69108
0.81319755,56.229145
0.896571,59.75843
0.81966007,61.16302
0.7543737,55.21068
0.7248578,57.521114
0.74341685,56.0949
0.58881646,56.66256
0.6314579,54.482468
0.67955416,57.809223
0.6174096,59.547264
0.6009219,58.553127
0.5410359,60.037766
0.4543348,57.768356
0.63161004,63.35931
0.5345008,66.40435
0.56706345,65.56741
0.6386403,66.53612
0.7645079,67.58102
0.8107755,73.03936
0.8851066,71.31568
0.8705614,77.357925
0.92191344,80.444565
1.0254266,78.97321
1.1239367,86.11009
1.2121428,88.48727
1.4724191,89.81071
1.4756247,89.46657
1.4695866,96.2296
1.5494865,98.05399
1.6336236,101.126144
1.820693,101.1171
1.7497462,103.16926
1.8778583,103.79974
1.91494,111.067184
1.9424585,111.97545
1.9312979,112.87813
1.9207153,115.48958
2.0387087,115.080605
1.83144,117.27511
1.9496502,119.14675
1.9575661,121.18205
2.0224762,118.598175
1.9532784,120.95613
1.8659692,117.954765
1.9110696,119.10203
1.9139999,120.400536
1.86423,117.31464
1.8851124,121.22484
1.8352257,115.49889
1.8357302,121.848175
1.8133501,120.839554
1.682508,121.03909
1.6918316,116.169586
1.6471264,112.702934
1.7414057,115.84433
1.6296332,113.46727
1.6018436,112.14479
1.5298679,105.154884
1.5127736,111.46859
1.4996613,108.46761
1.5370375,104.836754
1.5575486,106.03713
1.4837667,102.75678
1.4393816,102.99447
1.478282,103.67336
1.4621543,98.43432
1.463242,94.45529
1.4665174,96.76787
1.4451832,96.59494
1.3471624,87.43409
1.4663227,89.64419
1.3382888,91.74211
1.2459009,87.53897
1.2912612,88.19761
1.1675088,87.55659
1.1812059,80.1582
1.0752673,82.47429
1.1754812,81.49262
1.0760022,77.47898
1.0702937,80.93962
0.97847766,77.24707
0.91198486,72.30476
0.8895122,76.52112
0.9248228,73.92732
0.8397043,64.842606
0.842456,70.88865
0.86763054,68.095184
0.93065596,67.22895
0.87811226,66.15488
0.77506,63.18855
0.9139485,61.11919
0.83618957,59.400677
0.7603599,60.40597
0.75761586,63.911884
0.68507355,56.513897
0.61912566,60.317093
0.6771159,55.827682
0.64305526,60.458305
0.56418055,55.416225
0.5801408,57.506306
0.49412283,59.9666
0.569154,55.967937
0.50640446,55.64499
0.36389446,59.37689
0.47041386,59.699074
0.4539285,58.442287
0.38011098,59.307293
0.42555192,61.411713
0.5069492,63.49983
0.41875994,68.27641
0.442256,65.639755
0.5976437,68.956
0.608973,67.13111
0.6790378,74.2771
0.72259134,77.40393
0.81410664,80.858986
0.94230723,85.15699
0.9051506,86.22296
1.1420298,88.576035
1.19588,88.008224
1.1497692,91.64778
1.3422673,94.71776
1.3660643,97.0255
1.4614731,99.19761
1.5388194,101.27353
1.5897822,101.360306
1.6457303,107.21609
1.5766019,111.87547
1.7181071,110.9396
1.6524652,112.76032
1.7314912,113.687416
1.6765466,115.58375
1.7143075,114.436005
1.8562088,118.94416
1.7337956,121.30448
1.7124528,119.302315
1.7163024,120.28721
1.7392439,122.09778
1.7177219,119.75248
1.6943287,119.24835
1.6228453,121.44786
1.5788298,120.03968
1.5494499,122.47386
1.3684765,117.2267
1.5214196,118.57849
1.484836,120.43761
1.4170572,113.36759
1.4510838,110.88561
1.281197,114.48615
1.365992,115.25179
1.3762946,116.229324
1.3735592,109.02159
1.3340923,108.21591
1.1781305,105.15762
1.1769476,110.23101
1.232327,104.89273
1.1480135,105.95078
1.17645,101.95886
1.2293133,102.88931
1.1654967,98.33749
1.0340503,97.78246
1.1730577,94.536736
1.0972884,96.01123
1.0986791,93.27442
1.0822153,92.0354
1.0333707,90.48614
1.0439786,86.81517
0.945658,86.25951
0.9422326,84.456764
0.81806827,81.08928
0.8228303,80.04402
0.61210775,82.058235
0.66834843,81.37741
0.5917537,80.12352
0.66061217,75.14252
0.5628727,71.59374
0.65123934,72.27684
0.5600231,73.26259
0.5618478,73.90859
0.5146104,64.09974
0.5316728,70.75702
0.45706448,65.6041
0.47057435,64.67147
0.47907218,60.126244
0.50821894,58.535336
0.53517276,59.45477
0.47406963,60.88638
0.419035,56.91632
0.42741588,55.985394
0.30040035,53.38319
0.26930767,58.76535
0.3661734,55.97961
0.19822705,55.490578
0.28522012,52.56616
0.25488558,57.74801
0.09421842,56.441036
0.1030766,54.502014
0.088823386,61.530666
0.079622984,59.055862
0.0867797,60.693954
0.12073945,60.79952
0.21241604,65.4746
0.20482399,62.185146
0.24384059,69.14497
0.18973808,69.469696
0.18196881,72.10985
0.26458916,68.51591
0.4138574,77.289474
0.33686587,80.73025
0.5498316,84.44768
0.5679457,79.97159
0.71236557,83.34452
0.81073534,89.20322
0.87458336,88.03072
0.96029973,95.82725
1.0725949,93.098145
1.1379082,94.96536
1.1148454,102.739136
1.2393532,102.67686
1.2357799,104.409706
1.3824781,106.43331
1.2899957,109.27756
1.4275833,113.72168
1.4093952,115.64593
1.3490276,116.33413
1.4840769,119.014465
1.3443379,118.80427
1.4186697,116.54444
1.3698468,117.50529
1.3091964,122.60618
1.4683559,119.82674
1.3782336,121.69952
1.3622781,121.79529
1.3517222,119.18976
1.4764597,123.12341
1.3520007,122.08412
1.3212584,119.6244
1.2232127,118.87502
1.2232745,118.551994
1.2359576,119.1619
1.2123748,113.032265
1.1033864,115.03085
1.1282848,112.055374
1.094045,109.165665
0.96147144,112.32773
0.9502163,108.6073
1.0459808,105.591324
0.970839,107.26864
1.0105023,103.76666
0.9717312,102.9977
0.8535443,104.83927
0.9690094,104.81443
0.8817476,97.50367
0.9360699,99.58124
0.89730996,95.27726
0.8322566,94.01446
0.78658104,95.58503
0.8618325,92.19852
0.7800549,92.17585
0.84454554,86.67911
0.76731575,86.026886
0.81428355,90.03285
0.6467214,87.78606
0.614975,84.00279
0.5505073,79.563736
0.55737025,80.59883
0.46572822,81.299614
0.49940127,76.44453
0.41751948,76.200714
0.40817255,73.52005
0.44060147,74.632996
0.32350022,69.639755
0.31687337,70.57918
0.31799683,67.068756
0.48920763,63.49397
0.2606463,69.01751
0.28251347,65.30291
0.38462114,66.95883
0.39774278,63.3264
0.36570007,61.669537
0.29412815,59.313175
0.27794033,58.333508
0.30812877,58.390137
0.24732026,59.629757
0.27604946,60.565697
0.203805,57.332283
0.16120332,52.60531
0.0955085,58.310184
0.13282682,53.47318
0.09569566,57.11425
0.0966018,57.869926
0.026759379,58.986446
-0.048267137,58.103596
-0.05225109,61.93662
0.0064625037,56.66776
0.031477798,62.71301
-0.021143334,62.798737
0.06475047,64.97128
0.0702069,68.512024
0.22865628,70.83955
0.2624245,69.17381
0.26131016,74.457855
0.44253576,78.57951
0.5222196,80.28343
0.54302514,80.80285
0.62238973,86.24526
0.7031738,88.35722
0.78064984,91.38324
1.007333,97.38393
1.0763937,92.88247
1.0898366,96.81155
1.1220852,101.85923
1.2349147,100.12162
1.2298338,104.07399
1.3301262,109.02202
1.2664783,113.96104
1.2815177,112.714386
1.3206576,116.83064
1.4318455,113.29043
1.2974446,119.835976
1.4079427,119.99758
1.3713137,119.46739
1.4095091,121.03335
1.533007,118.5462
1.3266898,118.47669
1.4375395,119.75241
1.3987659,123.12381
1.4590749,122.386116
1.2924306,120.73531
1.2480171,122.35817
1.2791595,119.0887
1.224526,118.38267
1.1060562,118.92641
1.2671242,118.88693
1.1907126,116.59563
1.1563708,113.78736
1.162207,113.63718
1.1651746,109.57618
1.0530981,110.940056
1.0959027,108.136795
1.1352808,105.712845
1.0576956,109.074
0.94083935,106.7437
0.9006522,102.666794
1.0126967,100.927635
1.020838,101.03555
0.9630002,99.09435
1.0328774,98.81805
0.99581283,97.14783
1.0157049,89.57813
0.97644395,96.85691
0.92462444,94.70016
0.8722666,91.785545
0.8720932,87.97519
0.84715337,88.04116
0.80675924,84.47473
0.7557966,85.884315
0.75247747,79.77209
0.74843514,83.46044
0.67959464,81.31794
0.6589818,75.954926
0.55194056,78.100006
0.57908595,76.13073
0.6005995,75.36058
0.53164107,72.74797
0.5599238,72.709404
0.49759975,70.1883
0.50122947,69.03097
0.52409804,68.5828
0.600193,62.78841
0.4870597,64.479355
0.34595406,63.74986
0.54733443,62.44361
0.39327723,63.370712
0.50710213,59.993507
0.4259402,60.641773
0.45857552,58.93824
0.4730697,58.195282
0.4392208,62.062664
0.4377271,54.536953
0.3807902,52.095337
0.3067023,53.37724
0.3308013,57.48829
0.18166566,52.51008
0.23731369,55.8179
0.21113402,60.036415
0.2971147,60.27183
0.2000294,63.820225
0.22767623,62.565487
0.15870196,62.110004
0.29920304,66.752594
0.3457833,63.775097
0.3726352,64.680664
0.34306583,70.87445
0.55991054,74.10049
0.49055317,74.620544
0.6452209,77.96732
0.6403727,78.89581
0.9180693,86.999695
1.0319319,87.303856
0.9913462,89.27102
1.2037851,89.77518
1.292501,93.87589
1.3118935,93.936485
1.279281,98.75115
1.4804997,102.13686
1.6105533,103.21674
1.5022606,105.25034
1.504571,108.42985
1.5918287,114.296715
1.6136945,112.3356
1.623792,114.94532
1.7983514,118.68046
1.6679306,116.56786
1.7162997,117.45408
1.7678865,117.33565
1.7522185,122.379326
1.7450049,117.525764
1.7437683,118.66682
1.7452971,115.35644
1.7065817,121.32357
1.6806376,120.49872
1.8059618,119.204475
1.6822414,120.499275
1.6984259,119.22761
1.6837103,116.74683
1.4741268,117.569115
1.4410834,120.42417
1.5846387,116.738754
1.4899023,111.736305
1.4683703,115.30883
1.588211,109.773254
1.38059,107.741455
1.4016806,109.725136
1.3520083,109.43542
1.4481698,102.52841
1.3459151,107.37437
1.426591,107.42865
1.2492343,106.04367
1.2599415,100.907906
1.3578192,97.77859
1.2426299,98.5061
1.3753625,92.18479
1.2663623,94.20531
1.2899051,89.22921
1.274376,91.83179
1.2862046,90.12829
1.1837682,92.82953
1.2478843,87.78698
1.1624489,87.78153
1.1203709,84.55822
1.0378622,82.922386
1.1056389,81.03097
1.0756515,80.51245
0.90233564,79.74253
0.9140958,76.18825
0.8978826,73.42245
0.8813682,71.85528
0.7979396,72.86201
0.9169259,71.30329
0.8428416,67.45173
0.7780077,67.89319
0.8746746,64.00249
0.9179572,67.56179
0.91375804,63.95029
0.83534443,64.739494
0.8115709,62.40943
0.88916236,60.596043
0.74147564,58.64459
0.73517466,58.281834
0.7666794,57.921402
0.81458026,57.827644
0.6527336,58.203953
0.73827004,55.216785
0.7015309,57.79237
0.6820747,55.865997
0.5745879,51.281776
0.47752267,56.01269
0.573718,57.761276
0.5309109,56.38311
0.4028313,58.82597
0.5387077,60.62625
0.5407035,61.12495
0.5410631,62.60025
0.5980205,62.617794
0.51146084,66.619774
0.7152246,69.01724
0.761324,72.31079
0.70390224,72.67404
0.8582118,77.03691
0.9039797,79.254845
1.1917402,81.26465
1.2218608,85.0176
1.2508748,87.164635
1.3722409,88.32386
1.4195853,90.760666
1.5150794,95.819176
1.6131406,98.686195
1.6623179,100.42456
1.7368674,102.15189
1.8027679,107.72107
1.8399522,105.7887
1.7314142,110.46857
1.826388,108.80827
1.9275904,111.36169
1.8990115,113.64281
1.9645925,116.183586
1.9113263,120.048645
2.0038998,120.68539
1.973657,122.5867
1.9195474,120.75801
2.00198,120.62343
1.9943079,120.18981
1.9655075,124.06015
2.0556016,118.52514
1.9506552,122.67089
1.9475307,120.1147
1.9287041,118.02142
1.8832886,121.32342
1.6982241,120.026764
1.7844547,117.25519
1.7747694,115.35832
1.646949,116.22133
1.5602266,113.4174
1.6145543,114.6853
1.6601452,109.214226
1.7276357,108.703125
1.5987192,111.1511
1.4519343,108.57763
1.5102861,103.25135
1.5165799,102.43729
1.5262533,103.93401
1.4904838,104.80638
1.4970263,98.98294
1.4002141,100.03301
1.4865564,98.34175
1.4364194,96.110504
1.3733002,94.19106
1.558345,90.9092
1.4345833,84.979805
1.281974,85.57374
1.3254312,90.223885
1.3501368,86.82663
1.293473,87.22444
1.2399839,87.80602
1.1083169,83.18902
1.0132279,81.451546
1.2000841,80.59249
1.0139148,80.71665
0.918048,76.17758
0.9826836,72.57362
0.9632027,70.783394
0.91895735,71.89416
0.8709681,67.00192
0.8674641,67.920494
0.9322156,67.14253
0.8805857,66.69563
0.77020097,62.58235
0.83081573,63.48461
0.86455816,59.829407
0.94813216,61.8232
0.8447032,60.351635
0.8891805,58.089676
0.81146085,62.900764
0.9236252,57.353245
0.83736664,57.182858
0.6691082,59.63383
0.66462946,58.07582
0.62692815,55.555183
0.6734019,61.02643
0.57829994,55.9519
0.45468006,56.59094
0.5140648,57.16912
0.48149842,59.63678
0.4721425,61.63983
0.47202003,61.543873
0.5434508,60.48567
0.5423311,60.831715
0.5305265,67.230446
0.6172796,68.75847
0.65019786,69.47626
0.7288653,66.96045
0.7592593,78.15763
0.9647731,79.375
0.98151726,83.36744
1.0183814,80.24396
1.0705285,84.35508
1.2329955,83.7658
1.3311973,87.667694
1.4584223,89.675896
1.4142171,95.964775
1.6121203,98.45325
1.6194742,101.43964
1.6722668,101.03839
1.6800858,107.12993
1.6728599,111.70289
1.7061324,110.730934
1.8003954,111.48187
1.8114454,113.79993
1.8578092,117.07752
1.8284664,116.28152
1.8197428,117.806206
1.8647746,116.569626
1.9546189,121.4176
1.8522654,117.357216
1.8122553,121.843864
1.7825109,122.51598
1.7850604,120.00508
1.7019802,120.04249
1.6457546,119.10575
1.6906068,117.85895
1.722204,119.05192
1.6099868,116.07553
1.5965313,116.967575
1.5641313,119.503204
1.3814789,115.7579
1.602748,117.09659
1.528528,115.6368
1.4352559,112.1957
1.4403933,112.46269
1.4111273,110.48403
1.3495519,110.68437
1.3103936,106.360344
1.302195,104.1097
1.3129591,106.40868
1.3516638,101.98555
1.3287445,102.35049
1.3075697,101.883804
1.4050703,96.20128
1.2480845,99.80601
1.1808615,95.91355
1.2322279,93.85437
1.1366974,91.152885
1.1108376,95.63355
1.1114098,84.94584
1.049503,88.77378
1.0113382,87.26996
0.97808343,79.99951
0.9109969,84.22785
0.9652463,84.02162
0.8203801,81.22068
0.8401023,80.40123
0.7558229,81.321724
0.7153206,72.2121
0.62399983,73.45768
0.6433037,70.369354
0.70062554,71.05254
0.71430784,65.532936
0.70230865,72.4273
0.5965796,68.90232
0.51873356,66.14336
0.51328593,65.68486
0.53810304,62.352783
0.6760259,64.084206
0.5401296,61.764267
0.59324276,59.74927
0.69093555,63.11885
0.5198248,56.212276
0.4489014,59.051456
0.44259274,55.594917
0.46728212,55.290318
0.42553562,54.27054
0.28273553,59.4095
0.374886,59.150806
0.34950367,59.83551
0.21621723,52.90159
0.17029318,55.558094
0.2199214,56.39626
0.086829185,58.010506
0.26828134,60.481575
0.16720872,64.30816
0.25628194,64.863815
0.11385813,67.807465
0.20527543,68.04213
0.34274867,67.8399
0.4278118,70.01655
0.51938576,74.07692
0.5871674,75.42564
0.6165366,79.10219
0.6528869,79.53718
0.90299857,83.7746
1.0195695,89.90668
1.0828352,91.813484
1.073402,91.67598
1.1249467,96.627426
1.2205356,98.60008
1.2869488,97.66207
1.3119568,102.75937
1.378737,106.41984
1.4963843,105.282005
1.4407504,111.6578
1.4616222,112.0789
1.4469607,115.73073
1.5022564,112.68514
1.613325,115.32863
1.5609922,117.23951
1.5439464,119.48684
1.5324429,121.022575
1.5302913,118.219246
1.4999528,124.62147
1.513425,124.07788
1.447019,122.86785
1.3868444,116.8145
1.3647901,120.40406
1.4072604,117.00885
1.3074623,118.252464
1.2681739,120.82378
1.3489981,117.490074
1.1816112,117.339424
1.2537065,115.507416
1.2263706,115.07071
1.1718701,113.2279
1.0545682,108.05941
0.98426723,110.386505
1.0303032,109.52414
1.1012596,107.68493
0.9603757,110.28226
1.0373299,104.89497
1.013587,102.22009
1.1274496,100.04583
0.9866295,101.90239
0.927485,98.48986
0.8811673,97.67086
0.9259497,95.724915
0.997059,96.57424
0.8928045,93.36988
0.84086317,94.57078
0.8303251,87.903206
0.7866475,92.78561
0.8458757,88.135864
0.75577146,87.97007
0.6741277,83.0352
0.6665323,81.992294
0.54017895,80.58377
0.6049681,78.51952
0.55051374,80.12666
0.5328644,76.356186
0.50545645,74.713234
0.47251222,70.586105
0.3361903,74.523186
0.30797595,75.349365
0.38544366,70.2017
0.39544407,62.636013
0.51515454,63.382515
0.28577515,62.83544
0.3528414,66.37251
0.40587518,64.65594
0.21065544,62.824604
0.31450507,59.872147
0.2275993,62.10659
0.27722573,57.903538
0.31522715,57.438618
0.30373517,58.582882
0.33879912,53.519073
0.20501418,53.54419
0.17809732,58.308964
0.023040032,54.728004
0.20629208,58.107002
0.10134659,58.62618
0.031171085,61.76446
0.019126229,57.66233
-0.10508728,62.892788
-0.03925474,62.307568
-0.08124244,64.13787
0.057907153,61.84285
-0.04452187,67.01557
0.08279231,66.167274
0.10327179,66.203384
0.19240794,71.218704
0.18450738,70.941986
0.30063382,78.44025
0.41879302,77.72656
0.43194103,76.38601
0.5392363,87.60712
0.6465606,84.703445
0.8134226,89.47248
0.86082083,92.10505
0.93028325,94.372055
0.9798423,100.26651
0.9963089,99.20521
1.0895269,100.87649
1.2369268,105.154335
1.2416302,105.624344
1.2540979,107.56185
1.2211169,112.4671
1.442747,109.74049
1.3254962,111.66358
1.349271,116.489624
1.3442187,115.008545
1.3791827,120.5959
1.347348,118.15459
1.4203819,118.60669
1.3856258,121.77816
1.3676615,122.273254
1.3597362,120.07745
1.2883377,121.01769
1.4026588,118.67043
1.354234,122.28938
1.2876443,119.439766
1.268296,121.31596
1.211817,117.91473
1.1556134,120.441376
1.106054,114.85271
1.1856551,117.823135
1.1562833,116.237434
1.0531511,110.34196
1.069598,110.59726
1.1077002,112.979485
1.0306103,112.713745
0.9150013,106.56068
0.97906655,103.20626
0.9800889,102.45956
0.9659055,101.67764
0.93800795,99.07252
0.89235634,103.0904
0.9104216,100.64409
0.85458577,98.059784
0.8945055,91.991356
0.82275224,91.665924
0.9288133,92.34401
0.87627673,92.32982
0.8956508,85.96724
0.8373041,89.41244
0.73689467,89.117065
0.77796483,83.7804
0.7021971,84.14314
0.73614955,81.829765
0.5975687,80.48271
0.57616144,84.05497
0.5058792,74.674286
0.5235847,78.76394
0.507686,76.187996
0.45529982,74.39314
0.6027147,72.53297
0.44458413,69.49581
0.44058523,70.63084
0.42858234,69.05214
0.47113553,68.15432
0.31090602,66.213646
0.4159495,65.77132
0.37238443,65.93505
0.45274994,58.515068
0.45138523,61.09608
0.4568611,58.026024
0.34109405,56.897915
0.3636671,55.86639
0.43130985,60.146366
0.30997914,58.406246
0.37849605,57.695194
0.22307684,58.04584
0.15077524,55.327393
0.19481012,57.676437
0.11219593,55.107063
0.13638318,56.93614
0.08472155,56.233204
0.0804063,55.837833
0.17265722,57.686043
0.08013302,62.509098
0.11229493,61.002537
0.22130676,66.85549
0.28887036,70.187386
0.26761565,71.62751
0.3016995,71.727264
0.47022396,74.48022
0.52420604,76.502174
0.6050259,76.32599
0.68307567,82.171104
0.76267993,81.81844
0.79615265,88.24594
0.9098292,89.939125
1.034994,90.3951
1.1689743,94.15659
1.1665566,97.25701
1.3590475,100.05119
1.3733253,102.534065
1.3964852,102.785835
1.4766077,105.90566
1.4558606,108.953835
1.5219903,114.04684
1.4400278,113.406654
1.555131,114.63925
1.4822403,113.38667
1.4466803,114.627914
1.6169537,121.05881
1.5445193,115.55901
1.6422657,117.20309
1.5813684,119.77226
1.5656745,120.46243
1.603081,118.928696
1.702154,121.84523
1.5267034,126.228264
1.5689441,123.561325
1.52655,117.8106
1.5568595,119.51807
1.3861811,118.89643
1.4920669,116.49133
1.4700644,114.05736
1.4615015,115.7941
1.2948091,115.62063
1.2823241,114.79525
1.2877471,113.52858
1.213586,104.38882
1.1680225,105.58231
1.2440327,107.190575
1.1891081,103.91992
1.240907,105.02747
1.23501,100.10882
1.2975694,99.50217
1.2134265,99.191055
1.1887007,98.28148
1.2174237,97.54329
1.2303592,96.489784
1.1908518,93.44498
1.2412186,92.35928
1.1077348,84.859055
1.1727011,87.97801
1.0082475,88.89431
0.99698985,87.42116
0.9151413,88.5161
0.9168348,85.39134
0.9129846,82.04466
0.77894247,79.99514
0.89579135,75.49442
0.8354781,74.90828
0.78265667,81.78283
0.76319325,75.13655
0.8272314,71.65227
0.64130133,72.6077
0.7068188,68.99672
0.78202045,72.91233
0.76595974,63.342487
0.74655735,61.132225
0.6619311,63.06028
0.80815536,64.55278
0.73965436,58.34356
0.67911595,60.700905
0.7267226,62.810795
0.8193797,59.98718
0.6440522,58.910805
0.7873194,57.401928
0.6578095,61.516064
0.5689535,56.601517
0.6232973,56.831852
0.5218104,55.123524
0.49684566,56.325657
0.5806133,57.229927
0.5651025,56.42784
0.39738172,57.37431
0.40780488,58.157482
0.45086682,61.87244
0.38124377,63.203445
0.43672687,61.51052
0.47323218,64.28461
0.54213643,64.202835
0.5503881,70.38704
0.48847866,69.75481
0.5761628,70.225685
0.7772351,75.535706
0.8073999,79.13703
0.9731765,79.20127
1.0214134,81.813065
1.1024358,86.51891
1.209844,86.528
1.2591711,92.973274
1.3097471,92.42698
1.481537,97.3774
1.550076,97.18201
1.6256326,100.07306
1.6117246,102.055145
1.8190362,108.563675
1.7771478,107.26433
1.7509285,113.456505
1.7875817,112.38869
1.8375934,113.96038
1.8932135,115.64644
1.8809627,114.17847
1.715558,115.03122
1.8108455,120.81774
1.8584493,120.315155
1.891241,115.87169
1.8274363,120.49185
1.8516817,120.57933
1.9483454,123.12969
1.9592589,120.54421
1.8066438,119.33581
1.8294325,115.28702
1.8143938,117.2046
1.7552313,117.70289
1.7674717,114.65742
1.6771213,114.47368
1.640745,117.76578
1.7394158,113.13011
1.606917,115.5641
1.7202599,106.8589
1.5367872,110.167725
1.6019645,112.76852
1.5512578,110.12162
1.5328743,105.61968
1.4899237,105.88217
1.4607944,106.30937
1.5578381,100.15769
1.4666367,101.30471
1.4536762,97.38814
1.4980081,99.83542
1.5232491,95.710045
1.3505082,95.40548
1.3042471,92.09017
1.4209496,93.88649
1.3681848,92.88102
1.3490516,89.05712
1.2725388,85.447365
1.3933249,84.273544
1.3468263,85.243805
1.2172538,83.69478
1.2011727,83.27061
1.0761404,83.17929
0.99820006,77.34485
1.0895472,74.55465
1.0179374,78.59557
0.9159161,75.38496
0.955521,72.11
0.97021025,71.58901
1.0428442,69.40322
0.8274382,68.117714
0.9991618,72.16924
0.89003634,65.01781
0.78500414,61.50522
0.925628,62.059616
0.87582356,60.344
0.8055823,61.22905
0.92488736,62.29428
0.92415524,62.089577
0.84193337,60.361893
0.802743,57.057446
0.78353536,52.717117
0.77033746,56.999886
0.6760047,56.505215
0.66042113,56.2731
0.6574119,53.24894
0.63666093,58.616737
0.61399007,57.321003
0.5920746,59.33773
0.54724175,60.696148
0.52487457,61.884895
0.48301646,60.8437
0.5665229,63.467823
0.55455685,66.29534
0.73923075,65.97065
0.71708953,68.81538
0.6923923,70.28463
0.76075506,75.91131
0.8909623,77.537544
0.9655895,78.63472
1.0319948,82.45493
1.1331708,82.14528
1.3020059,81.79937
1.3339349,87.26747
1.4931506,90.4318
1.4207616,95.126526
1.6123819,97.52423
1.6119382,97.335304
1.6856374,100.69581
1.8541903,107.89277
1.7295132,104.115875
1.9349654,111.15454
1.8914882,109.36487
1.8085333,110.48258
1.8382779,113.000244
2.0689707,115.57367
1.9027674,115.35808
1.8869854,116.85961
1.8974208,117.2682
2.0070152,118.973724
1.8762301,119.62492
1.8297385,121.23313
1.8329368,120.26217
1.8617898,125.784615
1.8330467,121.87202
1.7529644,123.69481
1.7468208,122.00919
1.7615778,120.86891
1.7438402,117.6229
1.5978281,117.53541
1.6431433,121.454926
1.6492498,115.47689
1.6508852,113.996284
1.5459687,114.061226
1.4860346,115.03688
1.478568,113.601524
1.5511955,109.706
1.432624,108.62449
1.503846,107.98072
1.4077971,107.28783
1.4783894,104.94263
1.4657023,100.51667
1.3657902,100.8758
1.3697064,102.86778
1.4264785,97.30358
1.2865729,98.08205
1.3592597,97.70313
1.2344695,93.68418
1.2430748,94.096466
1.2253183,85.05615
1.283391,87.72512
1.1633838,90.898125
1.1380658,87.10416
1.0452789,82.06558
1.0548207,81.810814
1.0304328,79.36657
0.8594289,78.000694
0.84012645,76.97554
0.8922625,74.65327
0.77385825,78.6192
0.8565857,72.95213
0.9131103,75.31253
0.8120664,73.667175
0.86408055,68.66513
0.81469846,68.79104
0.69825375,65.34003
0.7375499,69.87692
0.7194197,66.06738
0.754865,58.750706
0.64119387,57.5872
0.7637374,59.414005
0.63574594,62.372406
0.6592524,58.82977
0.7292134,59.80727
0.6674623,58.920906
0.5721468,58.975647
0.5133588,58.7654
0.53011626,53.872814
0.3533007,60.177425
0.38492113,57.02521
0.312353,60.639805
0.34453553,55.19916
0.30389994,58.177364
0.3033236,57.998432
0.21572244,58.271454
0.2832794,62.347046
0.2923535,64.72978
0.3394347,63.80294
0.37038735,65.97519
0.42631128,68.54868
0.5284721,70.29682
0.47511902,74.44021
0.53640723,77.77066
0.63465655,83.93398
0.6600224,79.5203
0.82941014,83.51166
0.9891828,82.82373
1.0591598,88.33076
1.0918051,91.50642
1.1376574,97.670204
1.223983,94.418434
1.2814559,98.53864
1.4545909,102.11516
1.4140351,99.34109
1.3714775,106.50521
1.5200148,109.03901
1.5816437,108.91144
1.642366,112.57335
1.6476855,114.505356
1.645275,116.45657
1.6046746,119.2023
1.6496819,122.60681
1.5985541,118.377495
1.6109433,119.49254
1.6228647,121.04734
1.5036372,121.21442
1.5837727,117.823784
1.5835142,120.5904
1.5308087,120.458
1.4823399,120.581436
1.4923664,119.973854
1.4847649,117.292915
1.4390271,115.69043
1.4446342,119.09775
1.4024329,115.95932
1.2995695,114.29512
1.28627,113.05721
1.2169948,117.82671
1.2723186,113.11691
1.1215168,110.14326
1.246074,108.93043
1.1674564,106.838326
1.1594058,106.213974
1.0418983,106.05399
1.0793408,104.45903
0.9589238,99.51643
0.97683114,102.30104
1.0770187,100.38224
1.041597,97.03557
1.0123714,95.175766
1.0413651,91.72372
0.98918796,92.634705
0.97008944,92.32631
0.9349242,86.77363
0.88543946,88.993484
0.8702022,85.450096
0.79881954,87.32709
0.87145674,80.79389
0.7547662,84.17578
0.63046557,80.709274
0.50745296,79.59557
0.58110046,78.98336
0.5716109,77.425255
0.5927845,76.21235
0.5901661,75.697525
0.44352335,72.15538
0.45116013,71.49295
0.46957752,70.4646
0.47422618,68.94704
0.40713865,65.001724
0.38554037,67.3964
0.41505924,66.57456
0.5129057,62.519165
0.48534125,63.306168
0.37984398,56.962055
0.47585678,60.41974
0.35510802,53.798244
0.34434894,61.48059
0.28636914,53.518673
0.28011695,55.210213
0.22167349,56.020527
0.14113694,53.910343
0.08884742,55.545105
0.11885047,58.781666
0.028102148,56.125717
0.08400536,54.757133
-0.0071884776,57.572292
0.0174435,58.50359
-0.009845318,63.61902
0.044834048,61.630848
0.10081281,65.24865
0.02955643,66.85641
0.12265093,68.43164
0.1326257,73.35384
0.3216541,70.23008
0.2388587,70.51061
0.33983397,73.42257
0.503883,78.2431
0.5919168,79.903984
0.65775174,86.81038
0.67590994,84.79962
0.71308243,84.71148
0.88429135,95.982025
1.0080686,94.99683
1.0780617,99.7177
1.0572422,97.360245
1.2046691,99.68519
1.1628376,107.28598
1.2169136,105.25953
1.240894,110.60313
1.2297838,108.81303
1.2864934,113.67498
1.3075825,112.785675
1.3312342,113.04957
1.3060781,118.59746
1.2693734,117.953896
1.3700663,116.77501
1.353768,119.85145
1.3182844,117.08813
1.2853782,121.78894
1.3825593,122.09314
1.3097411,120.20517
1.3300089,121.182106
1.2582422,120.85354
1.2762105,121.279915
1.0935752,119.78116
1.1128453,115.52244
1.2388281,114.52767
1.0012293,116.35111
1.2109287,113.74406
1.0532147,116.61425
0.9965964,118.285225
0.9320033,116.055435
1.100085,110.45001
0.9598131,109.8947
1.1216567,110.06172
0.99558586,104.50655
0.87656486,103.74873
0.8855561,101.31003
0.9936876,99.715935
0.91025996,97.60455
0.8692739,100.87839
0.77517796,97.28457
0.82429457,96.67747
0.9348616,93.649086
0.79451746,91.03536
0.84319985,95.20073
0.8482474,90.15018
0.74195176,86.87045
0.7358749,85.84744
0.6438395,86.49277
0.7168863,83.54709
0.49880794,78.61654
0.4989997,83.502266
0.5503807,79.118645
0.39060548,79.20524
0.49662018,77.88201
0.3930788,76.36448
0.50131017,72.39986
0.38352156,70.8559
0.41761646,69.613304
0.38370535,70.32281
0.33687496,66.61228
0.36909196,66.24968
0.31472462,68.26806
0.21857609,62.487293
0.4016964,64.17113
0.3375943,60.55814
0.44339773,62.833782
0.29738826,55.09481
0.37727958,57.869865
0.3205765,58.84818
0.24318203,59.876213
0.22435491,57.831623
0.2412531,55.736942
0.16281202,57.71416
0.043253284,53.86555
0.012804294,57.503906
0.037261896,55.94688
0.029263644,58.46844
0.0061610187,57.68382
0.08771453,60.37846
-0.022836091,63.652798
-0.040861577,64.44939
0.020101108,65.914444
0.13089652,66.641075
0.18072808,68.0289
0.120540276,69.54274
0.22926663,76.20063
0.23522276,72.78993
0.35667342,75.323524
0.5542447,80.7144
0.5843091,82.123024
0.7405927,85.53223
0.6516336,84.72381
0.8618753,84.27272
0.97957194,90.94092
1.0757468,94.262375
1.1240565,100.101
1.1710138,96.60576
1.2373875,102.72411
1.2124828,104.738434
1.302647,104.214096
1.4083104,112.97032
1.5756081,110.43456
1.376763,115.61327
1.4900393,115.75783
1.4629636,116.634254
1.5009196,118.11814
1.4834646,118.07204
1.5624307,122.15726
1.5320678,121.08917
1.4317493,123.7203
1.3913146,121.540565
1.442739,122.50368
1.4239522,118.82501
1.4296756,118.48607
1.4106672,120.0614
1.4141623,121.8027
1.3286117,113.499626
1.2343053,121.86778
1.2690065,123.29665
1.3199477,113.2874
1.3885185,116.14751
1.2247045,111.44489
1.2399434,111.53117
1.2095145,107.97307
1.2572516,108.13272
1.1747403,110.23074
1.1040288,110.07108
1.0793761,105.76498
1.1122797,104.5789
1.1125196,104.529755
1.1556357,102.81476
1.1796364,98.47199
1.0780865,97.74708
1.0769396,104.777306
1.0492861,97.71335
1.0985237,92.50824
1.0493752,92.554405
1.010879,90.48769
1.0767406,89.664444
0.8285639,90.51981
0.926171,86.3953
1.0251353,86.14974
0.7726252,86.21253
0.6830906,77.07515
0.80073744,80.04585
0.7691334,81.39124
0.68771744,82.06015
0.6391293,76.62235
0.659697,72.99974
0.82089865,71.460785
0.5651492,71.19105
0.5928419,70.97888
0.671086,70.93577
0.6264779,65.89302
0.6145612,66.845215
0.5655383,62.735275
0.67019886,66.47439
0.6117898,62.166836
0.66347563,63.38725
0.6496409,58.385963
0.6529141,61.813038
0.5832364,60.209515
0.589219,61.68296
0.60872436,54.141613
0.5747444,56.683933
0.4701886,58.248016
0.39231527,56.141052
0.47429714,53.341274
0.35302356,53.13777
0.2718162,55.200047
0.34612185,61.032158
0.34849322,60.202827
0.4457514,57.749836
0.35148486,60.578037
0.31172627,64.51023
0.33704546,65.39775
0.47871524,66.10047
0.42225522,67.98902
0.39044347,70.30801
0.6387947,73.673225
0.6668725,72.744095
0.7239999,79.002945
0.8164188,77.92956
0.9112847,82.94803
1.112799,85.671
1.180303,89.33587
1.1592739,90.141884
1.3471295,93.82167
1.3397076,97.617424
1.4898852,100.92715
1.5718254,104.58872
1.6701736,105.39418
1.6404474,106.077896
1.5887897,107.41695
1.7198664,108.56315
1.8277144,110.69113
1.7772536,115.28103
1.7791553,113.27684
1.8441057,115.58262
1.7251992,119.42273
1.8236804,121.27773
1.854328,120.15417
1.8499513,122.50421
1.803792,119.90574
1.8733704,122.28129
1.8139329,121.42971
1.8258108,119.90345
1.8197135,124.621765
1.6998276,116.3455
1.7357044,118.058716
1.6600043,120.51183
1.5880917,119.23146
1.6503943,115.95962
1.6811341,116.41998
1.5633967,117.094086
1.5989404,114.08041
1.5002917,112.58592
1.5181636,107.52119
1.5218356,108.10417
1.4126166,110.24696
1.4969054,104.54938
1.4987193,103.19375
1.5811467,107.347404
1.4315858,99.75494
1.3184097,100.55995
1.3747699,100.00854
1.4853022,99.02852
1.3306917,96.50448
1.473652,90.97515
1.3529963,91.1685
1.3296,91.15996
1.2950826,90.131226
1.3755118,90.719826
1.2571815,84.65724
1.1646866,85.99355
1.2122624,87.4093
1.1024525,80.818
1.134502,80.98291
1.0711575,78.52025
1.0366774,81.13861
1.031096,76.0407
0.98413396,74.35748
0.96480566,73.83995
0.9279399,71.63647
0.94014996,72.39398
0.97827935,68.49329
0.91822463,63.695747
0.84746265,65.56752
1.0017142,64.09706
0.86311674,67.99379
0.88157004,62.89884
0.8694485,59.90146
0.98882693,59.27374
0.91774756,59.952435
0.84507877,59.90635
0.8247929,57.73194
0.86806643,60.09263
0.7458368,58.14241
0.82455564,54.539295
0.7381266,58.836212
0.73767066,57.158215
0.6692908,55.236664
0.53326654,57.12993
0.53730947,58.534046
0.56739724,58.16025
0.56834173,57.31448
0.4544044,57.921585
0.61634713,63.60935
0.5248551,64.77488
0.5955021,67.17485
0.7350403,63.60542
0.76297724,70.52777
0.6943907,72.544785
0.80298156,70.00782
0.85488534,73.6233
1.0191725,77.21845
1.0503575,77.22587
1.1351166,85.61049
1.2266345,85.25587
1.249053,85.40961
1.4595536,89.785736
1.4734364,94.84216
1.5480214,100.39248
1.6030027,99.7442
1.6860639,102.96938
1.7683353,105.15227
1.8492461,110.03948
1.8794836,109.39637
1.8195502,107.814316
1.8465812,112.55705
1.9273841,116.50645
2.002445,120.272385
1.9977651,118.66353
1.9424663,117.95541
1.9985405,122.78166
1.939407,118.35728
2.010819,118.946365
1.9491411,119.16632
1.9055932,119.01573
1.941,119.04962
1.8460598,120.48644
1.9683876,122.19551
1.8079442,117.08435
1.870777,118.53372
1.7587812,120.642914
1.7629447,116.072716
1.8254848,118.285126
1.6830958,118.069374
1.6904747,113.48603
1.692913,110.19645
1.589315,111.32739
1.6072353,110.62869
1.6446661,111.67684
1.5486531,108.27726
1.4696761,108.05668
1.5123165,106.19345
1.5202715,103.15196
1.5014862,104.99139
1.4271767,100.56755
1.5033703,98.112946
1.406908,93.53509
1.458023,95.96639
1.4878373,99.00111
1.3989629,93.26383
1.3147831,92.76102
1.3374753,87.66346
1.2094585,87.75506
1.3064009,87.83173
1.2015407,85.45102
1.1456182,83.563446
1.1555045,82.60938
1.0900737,81.42015
1.0707494,74.16422
1.0504452,77.80161
0.9910776,73.84077
0.9723469,76.19646
0.891314,71.438255
0.88721347,72.61805
0.826542,68.0882
0.8790032,67.69016
0.8464906,67.42333
0.8175006,69.82409
0.9479614,65.46563
0.893634,61.907955
0.8984847,61.27759
0.8771285,60.009403
0.9017852,63.226063
0.7444881,59.90844
0.7300994,56.61882
0.7605693,57.85126
0.7012902,53.878613
0.60219646,53.895264
0.7002698,55.204292
0.6564221,57.231342
0.6575755,53.439106
0.53689593,57.386932
0.5071192,56.9
0.41905206,59.239826
0.5435135,58.236946
0.36500707,56.21723
0.4052209,59.053844
0.40906358,59.524868
0.448514,62.859238
0.49506095,66.09844
0.55491227,67.49262
0.5230708,71.40634
0.5858862,73.62328
0.7400261,73.545166
0.7673063,73.90836
0.8522779,80.47298
0.8495635,81.00975
0.9732601,85.23281
1.1124647,87.12693
1.240438,89.7604
1.2431558,93.15278
1.3128911,94.96249
1.3800739,97.23484
1.4641044,97.83855
1.6150769,104.42535
1.5023347,106.13743
1.63505,109.17917
1.6713135,109.54844
1.7314453,108.263115
1.6783849,114.20811
1.699937,115.4435
1.6949167,116.88135
1.6407626,121.58337
1.6690868,120.482346
1.7512662,119.783455
1.7227359,121.83064
1.6758319,119.027054
1.7110096,119.64587
1.6673589,118.25257
1.5936345,122.54591
1.6149492,118.494606
1.4828404,116.4859
1.6010306,119.39661
1.529865,116.51532
1.5452856,117.85781
1.462733,120.65776
1.4026266,118.57565
1.3340107,117.800835
1.4295382,118.41207
1.2511984,112.43692
1.4251176,114.4946
1.3313508,111.17427
1.3278108,108.50038
1.322362,106.92202
1.184996,103.844215
1.3511933,102.626945
1.1492618,104.75052
1.2668289,98.58813
1.1620176,102.781235
1.2198231,97.60605
1.1662517,95.97583
1.1535723,96.346954
1.1251531,95.21829
1.1150067,89.78153
0.9835346,92.10683
1.1270983,89.471466
1.0122004,90.07972
0.98680735,88.39398
0.8779885,85.00539
0.71210974,79.837975
0.8969472,83.94678
0.6999895,82.8249
0.631725,77.82452
0.65970135,82.2019
0.6920936,72.002014
0.5331952,76.1949
0.60387486,67.51122
0.5409297,70.55098
0.5880374,73.594505
0.52603793,67.388145
0.40619996,66.33834
0.62240905,65.08778
0.37735122,66.6079
0.4666123,64.51073
0.472196,61.76586
0.47042057,62.375465
0.42440197,61.55942
0.49946168,59.347137
0.44308835,57.76202
0.4499935,57.214996
0.49802542,58.47341
0.39529985,54.943336
0.28065625,60.286823
0.32361966,56.489895
0.2040147,57.641243
0.1287219,58.48781
0.15614423,57.632504
0.14004709,58.005116
0.12179378,55.519947
0.07929536,61.295597
0.0040592337,64.65469
0.08889482,64.04162
0.121712625,67.14294
0.14275907,65.08938
0.21827516,66.61978
0.28621963,70.43295
0.32964605,71.23885
0.34506062,73.2236
0.48359606,81.194565
0.42993778,80.39024
0.7124985,81.6557
0.66531354,85.84812
0.7942181,88.45246
0.82161766,89.048546
0.82318914,92.94616
1.0140315,94.190704
1.0614549,99.54671
1.0857444,99.979805
1.2108479,100.98128
1.2820748,103.8552
1.3698856,107.521286
1.3422177,112.7698
1.420038,110.94295
1.4028485,114.49255
1.4133075,115.38497
1.3728001,117.99535
1.511822,117.92077
1.4043208,118.069176
1.3906188,120.168976
1.5141089,120.17585
1.5154893,121.269356
1.4319245,120.180824
1.3754574,122.151245
1.323581,122.620674
1.4309913,121.00433
1.3941036,123.253716
1.2606944,120.09089
1.1787183,121.31878
1.3099817,118.01547
1.181197,115.70921
1.2324301,116.50737
1.1005522,116.012825
1.1625645,116.699875
1.1245695,111.24351
0.9803869,108.4373
1.05991,108.10979
1.0149574,107.28005
1.0124642,111.36605
1.0057487,106.254395
0.9363613,103.60452
0.7817756,101.42104
0.9960332,103.90025
0.8230887,97.57523
0.7798763,101.48903
0.89250356,94.76442
0.8705254,96.53616
0.88095605,92.85302
0.82717884,92.91059
0.8071311,93.06572
0.8394401,89.26032
0.6771684,82.94164
0.604183,86.58938
0.6322492,84.98395
0.5703175,85.29956
0.6902319,76.04413
0.39602992,83.567665
0.44462192,80.26308
0.46261838,79.02181
0.47291094,75.70067
0.432615,72.8731
0.38248876,74.19092
0.39619598,71.14851
0.38980064,67.35603
0.32022682,68.99444
0.3658581,68.68413
0.34474906,66.05596
0.32576954,67.99894
0.32925966,64.652374
0.31791374,58.710663
0.42920643,62.02182
0.33855787,59.085297
0.20029926,60.128277
0.31597915,57.58143
0.16059697,56.105827
0.20676793,56.96935
0.19140838,55.587673
0.23171823,58.611557
0.044245243,57.00433
0.061776914,51.81393
0.04751163,54.61922
0.012261042,60.571026
-0.030521026,55.267048
0.021027217,58.711525
0.08631906,58.990715
-0.13316576,60.231625
-0.011274908,64.49043
0.026879342,63.34545
-0.02239378,64.04244
0.16695653,71.66369
0.19353715,67.97907
0.30875862,68.7379
0.21861932,74.67086
0.40885383,76.37513
0.45897716,80.86426
0.5344134,86.589516
0.6813263,83.73891
0.7515788,89.305336
0.85369337,89.6495
0.89928883,90.5067
1.0089536,99.27125
1.1043495,96.866585
1.1759729,99.09955
1.3318988,103.39698
1.2475369,104.52233
1.3034406,110.71319
1.2883761,110.84288
1.328518,114.05093
1.39952,115.86624
1.3701108,115.284355
1.4737226,113.14174
1.2995138,118.47242
1.3576636,122.64261
1.4306277,119.0057
1.3782734,119.776245
1.380385,126.33922
1.4283433,123.57979
1.425526,120.33589
1.385945,124.1951
1.4060578,117.685745
1.3511957,120.28791
1.3226054,121.26014
1.2762195,116.458984
1.2872497,118.239204
1.2054985,114.3203
1.2451383,114.74839
1.1421853,116.66835
1.2018094,110.39817
1.2128628,115.12437
1.1000843,111.363945
1.1207378,106.95863
1.0237526,107.831924
1.0956889,106.129036
1.0148296,104.00078
1.0884237,105.67265
0.9876263,100.76106
1.040768,100.63625
1.0551714,103.04344
0.9531206,98.23247
1.0034446,98.95398
1.0902829,96.30912
0.9388447,90.31624
0.89867675,95.176575
0.9918535,93.576546
0.94322145,84.46516
0.8007223,86.81213
0.8367195,85.05563
0.72513,83.351036
0.75190055,82.19368
0.66059273,84.30252
0.63431656,78.0619
0.6450669,75.320854
0.65937036,77.81768
0.64749926,78.06094
0.57203513,71.28464
0.6444648,75.72506
0.6427092,73.63184
0.5783984,72.786255
0.43995246,68.040436
0.5843101,67.55156
0.5324892,65.067894
0.59952843,64.41981
0.5162779,60.08244
0.6818897,55.87017
0.46876892,57.85976
0.54307747,59.40204
0.51089424,60.7561
0.47553784,59.185036
0.50209886,57.01898
0.37471306,59.94764
0.5234408,57.03361
0.32390267,50.453323
0.28937235,52.93383
0.32176942,59.31045
0.23023053,59.428238
0.26319027,57.560017
0.24703828,61.8385
0.25533065,58.615818
0.18937537,59.56277
0.2851127,62.13921
0.22416937,64.66689
0.29127645,62.313923
0.31306556,70.09859
0.2989166,66.850075
0.418533,71.07465
0.4807538,72.92793
0.6881516,76.44871
0.59831095,77.2676
0.8121961,81.72717
0.82785815,85.67925
1.0492676,84.34792
1.1867772,87.83891
1.1473683,91.38892
1.1392791,90.81624
1.2982529,96.48294
1.217045,100.68689
1.4750891,100.18192
1.5260607,104.91833
1.5248122,100.76403
1.5305225,107.35307
1.6177555,109.07162
1.707056,112.69643
1.6372806,112.01183
1.7109282,114.77991
1.6483918,111.1782
1.6923908,118.97199
1.6556867,123.593925
1.7177464,117.78087
1.7951357,119.86367
1.7731351,118.38266
1.7342786,123.31934
1.5596095,118.0379
1.7531728,121.66849
1.5850365,117.43995
1.631854,121.67388
1.5952866,117.52007
1.6211295,120.59058
1.5881928,117.73854
1.5572993,118.009674
1.5299749,115.89154
1.3734624,112.95976
1.4912729,114.923256
1.4006625,109.58364
1.4145485,109.248245
1.4399793,110.54789
1.3971109,110.80934
1.302077,106.150154
1.4837958,101.72481
1.3457102,103.17189
1.4385865,103.743454
1.3487765,95.20678
1.346974,102.80168
1.366276,96.79007
1.3022029,94.993385
1.3131144,94.62959
1.2668167,94.85693
1.2877492,88.8577
1.2506931,88.00778
1.2345691,87.99074
1.1182072,83.940834
1.07543,85.52588
1.2012969,84.623764
1.1005411,82.94717
0.98444605,80.94445
0.91047513,82.27801
1.011385,78.466934
