ppg,abp
1.0553448,105.48988
1.1046572,107.9125
1.1878506,111.55121
1.3411237,115.61427
1.3790913,112.58893
1.4942268,119.13666
1.5452162,121.2854
1.5988615,121.115074
1.576852,125.64543
1.52656,127.72798
1.5529069,127.8476
1.6575384,127.43391
1.6133006,132.79778
1.6957138,126.4343
1.6684469,132.73868
1.6432933,136.74095
1.7771889,135.30069
1.7347718,134.72868
1.7551559,137.01898
1.7935795,137.6392
1.6957065,135.5729
1.7421067,137.31055
1.6759236,134.329
1.6414964,136.97867
1.676513,136.69339
1.738822,137.51448
1.5442665,135.12895
1.5776662,133.82863
1.6313437,134.49437
1.5819159,133.87035
1.5554612,135.68141
1.4910158,135.73804
1.5295935,133.90454
1.537709,128.29768
1.444046,125.48689
1.5200974,124.86708
1.5127432,126.92242
1.4169797,122.73079
1.4332372,124.40946
1.4505544,126.71529
1.4348205,117.703835
1.3100201,118.30285
1.4133137,120.02809
1.3013713,119.52301
1.3364341,114.89842
1.1901075,111.97311
1.3524734,112.9532
1.2668242,109.11298
1.3705385,115.27376
1.3514457,113.17042
1.3095485,108.79179
1.1323493,107.33862
1.2412691,104.33069
1.1087182,104.84576
1.1116751,106.07381
1.0968857,103.76247
0.97633207,98.07086
0.97359,99.928825
0.9636026,99.75495
0.987609,95.37371
0.8938742,94.36958
0.8514329,94.33098
0.980788,91.065765
0.92846805,90.571884
0.8445195,89.14872
0.77588147,89.829704
0.88020235,86.01908
0.8767961,86.97241
0.970193,89.2727
0.88487315,80.16464
0.98281974,83.61485
0.865317,79.96501
0.88223785,80.124466
0.7133866,82.825516
0.8504046,79.78836
0.86393857,81.5866
0.8766082,80.03821
0.7181347,79.42414
0.8344423,78.62346
0.63740164,80.69256
0.6662354,76.26197
0.6081536,80.65039
0.5945782,79.33084
0.58474237,80.22116
0.5686943,77.85633
0.50913507,78.97365
0.52053463,83.24573
0.5779098,81.45782
0.5632385,82.880745
0.5709595,82.98597
0.5842441,85.57875
0.52698106,82.66576
0.62407553,87.729515
0.65257853,90.59963
0.7741413,88.304016
0.78719574,93.47612
0.9306986,99.855064
1.0079241,97.283676
0.9592656,104.52899
1.1804698,102.16114
1.2918755,105.01832
1.3725793,106.94543
1.4539592,107.48476
1.461808,110.02233
1.4980422,112.96821
1.6290405,116.96342
1.6797439,122.00696
1.6701044,117.62875
1.8027505,122.033195
1.8117191,122.6309
1.8564975,129.4115
1.8643888,126.000595
1.8942327,127.416306
1.8609412,125.30674
1.9093411,134.76459
1.9796151,127.45635
1.9338499,135.5563
2.0108988,134.09074
1.9424951,134.7541
1.9931673,136.03882
1.9025465,135.75732
1.9373264,136.15712
2.0513928,136.13681
1.9441959,139.52322
2.0260117,136.73944
1.8722527,138.6876
1.9318215,133.17352
1.926172,138.87935
1.8500003,134.93944
1.8167846,135.2521
1.6253728,135.71443
1.6860107,134.13696
1.7180504,132.97691
1.7007064,128.71115
1.6702194,130.4582
1.558593,128.41586
1.6267284,128.3219
1.595767,128.55533
1.5718863,123.7404
1.517624,119.581474
1.574017,123.71302
1.433026,125.06354
1.4717567,119.38926
1.3933053,122.53327
1.595164,118.29024
1.4087864,117.43312
1.4726268,114.53796
1.3957063,113.33224
1.496787,109.33757
1.4303845,111.71142
1.4049704,108.26882
1.3300198,107.10156
1.289687,105.6387
1.3042811,106.244026
1.2787086,101.568375
1.203653,101.87865
1.161439,99.16956
1.0309085,102.38062
1.1124024,96.96061
1.1833712,100.46002
0.9948447,97.4544
0.98429495,97.71452
1.0759261,92.25405
0.9480333,95.64845
0.93884987,93.61968
0.8769736,93.094345
0.89732045,91.79699
0.9868448,90.35285
0.9502881,85.6015
0.89695877,86.793816
0.8646946,85.1376
0.8896753,81.230835
0.8934084,81.332886
0.94634455,82.7657
0.74492794,78.66426
0.8100883,82.06913
0.8363276,75.30475
0.7768007,80.30102
0.8033712,78.19034
0.7627253,81.317986
0.5644631,75.68669
0.66311413,78.17021
0.71778685,77.90242
0.49702203,73.61259
0.58102334,76.43162
0.54581076,79.91799
0.5130493,77.00636
0.4761521,80.685326
0.48313555,78.95172
0.4163397,83.5468
0.50315416,79.9942
0.35696733,87.11418
0.5055092,81.62326
0.5920506,84.37316
0.6441537,84.80469
0.5626821,92.995575
0.7449528,93.23628
0.7085452,94.27019
0.7733937,99.00538
0.9799938,102.21977
0.98722816,104.16434
1.109567,104.874565
1.2979796,102.55752
1.2071459,111.313194
1.3420311,107.91486
1.3735538,113.37933
1.605372,117.35577
1.508202,120.33232
1.626697,119.49017
1.6424341,118.91539
1.6909485,124.28928
1.663742,122.87981
1.774901,126.669365
1.6413227,131.25398
1.817579,130.2757
1.8181394,133.7613
1.7137811,138.21353
1.7498188,136.81772
1.8812144,138.94601
1.7801368,138.03706
1.7626239,134.96991
1.8612502,135.17328
1.7858824,134.41148
1.7746998,135.59901
1.7944955,139.93509
1.7852073,137.7395
1.7345841,133.95474
1.6248715,138.40614
1.6571941,133.6943
1.6620461,134.61168
1.4721901,129.31764
1.5740619,131.99765
1.493575,130.04332
1.5079855,133.41061
1.4845488,132.90337
1.4177911,129.69954
1.393897,130.4205
1.4115323,128.89026
1.3230277,124.87552
1.3402841,125.53032
1.152832,125.67838
1.2755704,126.25104
1.2728413,122.074356
1.1700022,116.47745
1.2003753,117.32086
1.2222252,117.99274
1.1540416,116.5543
1.1853977,115.95827
1.257154,113.88238
1.1371423,116.13856
1.1280049,114.51186
1.1494797,114.31775
1.0906237,107.721794
1.0634543,106.08583
1.0847962,106.87609
0.9734603,107.55175
0.9184252,104.29425
0.83889717,100.25535
0.8632388,97.00289
0.8153971,101.153915
0.7716325,103.93647
0.7591309,101.60288
0.7030838,94.081345
0.7186822,96.3733
0.6072243,95.52505
0.5801999,98.064896
0.56122476,92.51315
0.5599383,91.00726
0.6573395,91.01412
0.5609877,89.78305
0.5509579,88.11128
0.57469904,83.70366
0.5330651,81.367355
0.4654882,86.23381
0.5321468,83.908875
0.5513,80.25231
0.5838303,79.91871
0.3914103,79.41971
0.4034386,77.1286
0.36695293,79.35693
0.3487212,76.47721
0.38246477,78.908676
0.33485124,74.59559
0.18403825,74.956894
0.24349922,76.4869
0.21833129,74.074554
0.15138894,75.671646
0.16521339,80.662476
0.13828947,83.66774
0.14654595,79.52709
0.089548625,79.55712
0.036596514,78.538704
0.10774631,82.06954
0.1721473,83.88195
0.14086093,86.91881
0.16413166,89.360954
0.2627543,92.14281
0.29938242,93.72274
0.32605517,94.54262
0.4472498,98.07214
0.45464596,96.3562
0.6249883,99.31143
0.7872867,102.58977
0.7986681,106.68536
0.9123894,109.23877
0.9739726,106.44195
1.0824854,109.94037
1.1022594,114.676414
1.2138726,121.09903
1.2369682,121.4924
1.2087009,119.96715
1.3693327,123.3141
1.3281933,123.90768
1.3568405,126.634865
1.4179442,127.863
1.4561446,126.32445
1.4205111,131.52971
1.3875613,131.46042
1.399914,133.8066
1.4588088,132.36053
1.4654493,133.51529
1.4677867,134.48653
1.3765672,139.21397
1.4084729,139.50961
1.345747,139.51242
1.3009337,136.66689
1.371014,138.5479
1.3799571,138.90778
1.34864,142.54823
1.274505,137.54755
1.3053918,133.81442
1.2863148,133.19444
1.2537937,136.19806
1.1116011,135.80258
1.0714543,132.22948
1.1446805,133.29497
1.190154,131.58144
1.0848807,126.79199
0.96050787,132.50136
1.1732367,127.43183
0.94100326,122.069756
0.92994815,121.2828
0.9210536,123.030945
1.0130597,118.238235
0.94506055,119.87495
0.9317252,119.82708
0.9223875,116.701836
0.9798221,119.59445
0.982613,116.58715
0.87586766,117.056885
0.8734676,110.84944
0.8148324,114.29211
0.8861027,109.768005
0.83080333,113.643166
0.7819493,109.446526
0.74503016,110.417404
0.75168735,111.22504
0.60749143,104.53342
0.6751122,101.64119
0.65696687,103.27171
0.62354004,106.584145
0.5228467,95.26273
0.4495433,98.4561
0.45021793,97.94504
0.485164,96.61617
0.45785448,93.41155
0.30792502,91.71141
0.42886344,93.82651
0.25255775,88.78139
0.23879714,89.041214
0.32378465,81.98405
0.39387366,86.97665
0.38284582,83.54707
0.33346206,85.02383
0.38164392,86.872055
0.22553372,88.05599
0.29277804,79.08611
0.33201185,81.36901
0.18822962,81.537674
0.28919905,77.828255
0.14791648,80.64482
0.21967797,79.70791
0.078836404,72.50831
0.16508467,73.109085
0.12712486,77.67352
0.093890145,74.01879
0.09667366,74.4982
0.05165499,80.7309
0.10998469,78.695885
-0.09090986,79.6228
0.016408617,80.01576
-0.032469314,83.95841
-0.039119326,80.44294
-0.07761253,84.05909
-0.004435191,85.80791
0.07569925,80.645775
0.0013034968,85.53606
0.24053992,86.956055
0.18925431,93.15526
0.23868772,90.14014
0.30576742,96.54693
0.440082,97.93924
0.48369396,97.81309
0.5225486,100.37166
0.66990256,103.77008
0.8054129,104.485374
0.90993905,109.0218
0.83733976,107.99429
0.96360403,114.993355
1.0886748,119.02414
1.0288649,117.44911
1.0674996,121.863434
1.2096624,120.094475
1.2594335,123.2647
1.3515319,125.1969
1.3779026,129.26819
1.3637075,131.26382
1.439128,128.51462
1.3850979,132.16515
1.3429431,133.93182
1.3091271,134.73369
1.4041253,137.15958
1.3621099,137.66718
1.4724871,134.32751
1.4122291,134.46545
1.3917292,137.15002
1.4021506,139.71469
1.3786502,137.97188
1.4302436,136.87703
1.3374119,136.47292
1.2906191,142.83124
1.3708991,136.05591
1.2657433,135.16862
1.3273115,135.38467
1.2740704,130.9061
1.121535,134.14389
1.0825435,130.33894
1.1458689,132.94772
1.2307811,130.59482
1.1546844,127.55842
1.0610718,125.870895
1.1219366,127.707115
1.0526186,122.44991
1.0391926,122.53374
1.0346103,124.04778
1.0330825,120.843956
0.97965604,120.3722
0.9754601,121.252464
1.035338,120.34918
0.9674701,116.40793
0.94927925,115.33398
0.9888564,114.46198
0.8737588,113.266045
0.9825146,110.58959
0.87010765,112.488144
0.96170163,107.9266
0.9143423,105.47875
0.96680415,105.079895
0.8279765,107.99569
0.8217809,101.40671
0.81722075,102.58274
0.7220703,103.52173
0.58714825,102.04756
0.7450008,96.936844
0.70898306,96.606255
0.6183769,97.20587
0.68338263,96.777794
0.51326716,93.68468
0.59039176,93.333626
0.561687,89.72769
0.54680854,89.31131
0.4280304,90.759575
0.6357746,87.83362
0.5896337,90.30125
0.5716906,86.551796
0.57578677,83.99224
0.48309705,84.20346
0.58458513,79.93977
0.5499612,81.87041
0.5026992,77.46047
0.5809615,78.55487
0.49588424,81.49562
0.41399753,75.174644
0.53206867,80.49106
0.40974197,80.21671
0.43252864,73.391014
0.21160214,78.81298
0.29822287,76.20319
0.31749678,79.611275
0.28106326,80.95558
0.22361839,78.44682
0.25864875,83.802765
0.23959054,80.87213
0.2558786,78.478485
0.22202201,80.85607
0.22851029,83.804985
0.28761268,82.724075
0.22737929,82.53623
0.41729164,88.23281
0.38972867,90.448326
0.37312102,90.27967
0.5331217,96.1804
0.7037275,93.30817
0.70655245,101.20711
0.8011398,100.41795
0.92219895,103.648384
1.0088527,106.84193
1.0310476,111.04352
1.1379272,105.08847
1.2889626,112.102745
1.276098,113.38187
1.3744451,116.64982
1.3698881,120.308685
1.4554513,119.52668
1.6109875,121.75387
1.689589,125.186584
1.6856928,122.263985
1.6454103,130.61934
1.6058052,134.56369
1.7000403,127.356346
1.7247651,133.33823
1.6776328,133.40695
1.8111359,135.28775
1.8289162,133.71716
1.7522541,139.67671
1.7299994,135.58115
1.7695159,138.42824
1.6881034,140.28621
1.715449,137.96127
1.7583888,134.37099
1.684792,140.6545
1.585257,137.64252
1.6316607,137.29535
1.6767048,135.33134
1.6149079,133.80986
1.6012827,134.37914
1.5415659,134.15646
1.6571556,131.85646
1.5161992,133.14168
1.5696981,131.31706
1.4814179,128.92874
1.4266373,125.12168
1.383243,125.43306
1.4336741,125.56959
1.4156721,126.70416
1.3102136,121.193085
1.4415107,121.255035
1.3880945,120.648544
1.3058589,115.703804
1.2937899,119.206024
1.4201465,110.28323
1.3222351,117.04296
1.3319954,117.143295
1.3705243,107.78193
1.3849993,109.387344
1.2308315,110.783165
1.4113829,111.007706
1.2473727,106.28128
1.2668196,108.69801
1.1180444,104.27235
1.1830817,107.50204
1.2490468,100.69765
1.1304297,100.58941
1.0086032,103.47088
1.0398586,96.92243
0.97956824,97.9587
0.88836545,96.487785
0.9141288,94.09845
0.9311178,92.22868
0.89909303,93.8185
0.84956783,95.51197
0.8227217,89.43666
0.9251284,86.9296
0.8650268,89.249435
0.84910184,89.83527
0.83258617,87.880005
0.83654064,86.66381
0.8329501,81.18806
0.8937531,78.60881
0.8355652,79.35165
0.95778775,79.94774
0.88560885,82.79804
0.8308506,78.537125
0.71511,80.1882
0.8554789,76.18266
0.7123935,81.31197
0.75412077,76.54829
0.72109145,79.650505
0.6462822,77.39904
0.581907,76.91644
0.65634006,77.86481
0.6079083,75.23984
0.54236484,81.05419
0.516239,79.1319
0.5588302,78.05369
0.5708181,79.43394
0.5341624,86.80822
0.4794839,85.51796
0.5700068,83.58216
0.587676,87.63662
0.6641189,90.21617
0.7509784,94.43051
0.7994371,90.8597
0.8485558,94.18804
0.96715224,98.5347
1.0636762,98.05556
1.1553894,100.26171
1.2307612,103.11235
1.4308523,106.71776
1.3579867,108.10768
1.4958926,110.05111
1.6427099,111.860016
1.7018285,118.47847
1.6718447,118.0872
1.722956,120.95336
1.7252734,123.815025
1.7557648,123.7769
1.8855128,125.90632
1.9147117,128.6692
1.8409141,131.03188
1.9318485,131.26268
1.9345236,130.10107
1.9609203,129.03499
1.8740467,134.88527
1.9624035,134.98213
1.9722618,136.44365
2.0693882,136.29312
1.9023553,131.69914
1.996479,137.68237
2.031329,134.78111
1.9171844,141.05293
1.8685528,138.25096
1.8124363,137.58423
1.8247626,138.32805
1.8462691,138.95676
1.7557989,132.5488
1.8514376,139.6046
1.707307,135.56093
1.7459253,132.32834
1.708472,130.95024
1.7113862,129.17422
1.5780274,128.0462
1.5955577,125.08296
1.6194555,127.349976
1.6295428,125.98121
1.6521521,122.00514
1.5148872,119.79335
1.5595058,119.74903
1.4995004,121.443184
1.4693577,121.38422
1.5862039,117.224976
1.4849575,119.23623
1.4672943,113.027695
1.4000194,112.780556
1.3784616,113.35866
1.4747342,115.43045
1.3180878,110.94545
1.397144,111.12677
1.3164774,106.54215
1.3042701,105.05668
1.3772867,107.4401
1.2856144,106.20258
1.1880586,103.15036
1.216377,101.09716
1.0568459,102.01596
1.1254975,96.894
1.0372866,93.25581
0.9981329,97.32351
1.0470078,96.74004
1.0068651,91.92562
1.0035716,92.84659
1.0003995,88.46161
0.9468949,92.14261
0.92606217,89.01633
0.7777856,83.55253
0.84753364,88.5881
0.8074352,86.25728
0.8264877,85.35773
0.8429234,82.92683
0.9337588,81.8968
0.8925173,78.51392
0.92438006,77.6748
0.86328167,80.11622
0.8197136,79.81726
0.71831995,79.02266
0.76746523,81.997665
0.8024637,76.52624
0.72543746,72.642944
0.656102,77.50054
0.52001476,79.79941
0.543479,77.5635
0.53148305,77.290955
0.49687132,78.09607
0.48957857,77.975136
0.43348402,78.2517
0.47605678,80.15737
0.3819506,83.39518
0.53107905,81.649826
0.49746883,86.27651
0.43117532,86.25266
0.5803254,89.12299
0.62473977,89.85423
0.6137048,93.52612
0.6508929,89.74046
0.7030116,95.941765
0.786256,98.75584
0.877482,97.37172
1.0136998,101.19247
0.9581765,99.69125
1.2009295,111.85303
1.1924891,105.20565
1.329403,111.16301
1.4662828,109.8556
1.5858111,116.551506
1.6184754,116.82438
1.5751852,118.71904
1.706713,124.49735
1.610881,121.96227
1.7234308,125.97956
1.5990491,129.72438
1.7575635,127.47389
1.746527,134.18694
1.7546011,132.28554
1.7908381,132.59917
1.8184335,133.14807
1.861599,135.00774
1.8352028,133.67719
1.7706227,137.30936
1.7555194,140.86148
1.6564399,139.32109
1.6544279,135.6425
1.6987269,138.03342
1.6156803,136.0753
1.6188704,141.34192
1.5775706,134.51152
1.6714145,134.40826
1.5347667,130.93292
1.5062538,139.532
1.4752192,135.54758
1.4108071,131.31174
1.4819149,133.76767
1.3832589,132.54257
1.336133,129.62558
1.4622692,130.94731
1.3601907,127.84923
1.3002821,127.987404
1.3165139,126.30987
1.158833,126.033585
1.2253385,120.81497
1.1924715,120.90272
1.2671742,119.89342
1.3558356,120.21146
1.1572945,114.768585
1.2265086,116.39781
1.0964636,116.057434
0.98957634,115.63913
1.2547023,115.01482
1.0312194,113.40184
1.0997835,109.092255
1.0393556,107.931145
1.0545734,106.070305
1.0340142,103.35399
0.86057985,105.787445
0.8111074,101.60366
0.89718443,104.20242
0.7941125,103.17323
0.7591466,101.69751
0.7419203,103.49669
0.6557738,101.884094
0.6612076,98.656044
0.64366394,97.60564
0.56901133,91.256485
0.6089745,88.08106
0.53885466,93.933815
0.5464895,86.4028
0.611382,90.52246
0.50854576,85.164986
0.5410951,84.03375
0.44566566,81.08931
0.48783585,85.16668
0.47398266,83.05602
0.48750448,88.512215
0.5158206,81.76136
0.53153646,83.040955
0.45571324,79.73502
0.46552324,78.83495
0.39630866,79.831696
0.47036442,77.41259
0.2937502,76.761284
0.2357439,77.54204
0.33299902,80.14904
0.22649701,76.881584
0.13893457,74.62294
0.1814851,74.58715
0.16685258,79.01055
0.13519464,79.86641
0.14065318,80.79378
0.10197845,81.50073
0.07125478,84.35301
0.2001293,84.2293
0.07431096,85.20383
0.101230465,89.35513
0.19050352,90.823425
0.32626018,88.47136
0.31824598,91.15476
0.4557609,95.65596
0.478266,91.91029
0.5267203,95.81459
0.5094877,99.37305
0.65250486,104.31377
0.8179686,106.939606
0.9180905,104.732056
1.0237267,111.844894
1.0159864,113.255295
1.0580882,111.680176
1.1900827,114.412605
1.1010748,116.59887
1.2202032,123.1426
1.2565807,123.811
1.2389637,121.964066
1.3804929,124.389496
1.3679363,127.87719
1.3650124,133.81123
1.4226177,131.38751
1.3904228,131.79166
1.4339178,134.84819
1.4383309,138.53465
1.3336755,133.56155
1.4369118,133.69644
1.5001923,138.23592
1.3203362,133.40363
1.358043,134.05806
1.3859191,138.23961
1.3732588,139.11539
1.3508112,135.8724
1.4248527,135.53087
1.2236165,130.32098
1.2949667,131.7298
1.2701412,132.61388
1.2156256,133.87968
1.1743358,131.05086
1.197528,132.09857
0.9975714,132.99481
1.0641181,134.88869
0.9506229,126.8411
1.0219254,125.42768
1.0983751,130.62643
1.0731596,128.23532
0.9941514,118.46149
1.0425575,122.72315
0.8971774,122.39057
0.93294114,123.11824
0.94061124,124.472565
0.9980167,114.810356
0.9283221,116.36312
0.94499147,119.434425
0.8958627,120.74062
0.861221,111.60754
0.8913794,111.07291
0.8196119,111.25452
0.75412226,107.95891
0.67341286,107.59035
0.7345714,104.37617
0.79532856,108.00254
0.6055405,107.650444
0.6117188,98.06824
0.5867743,105.39915
0.53984535,97.72007
0.57253975,99.14459
0.5333749,99.53037
0.4344074,97.05492
0.3546372,93.7009
0.39083126,96.01641
0.43872473,91.485504
0.41627866,90.38345
0.26245543,90.26782
0.26445106,91.11705
0.3449753,88.52042
0.3735779,90.10548
0.28145564,85.17416
0.31286615,83.79519
0.30804366,83.67224
0.22732407,84.669685
0.3145192,80.59121
0.2700787,80.072395
0.32567415,83.651505
0.24948528,77.60429
0.23269176,76.43723
0.17760384,77.22754
0.2371173,79.366516
0.12580544,76.450714
0.16192412,76.12841
0.02490311,73.41117
-0.007353038,76.78097
0.10116429,76.57469
-0.05367241,78.954
0.024955934,78.815636
-0.059209436,79.67068
-0.02153821,80.526634
0.0012610735,78.40673
-2.4334482e-05,84.60745
-0.008478846,81.7312
-0.016285032,87.93591
0.08925229,82.88163
0.1364122,88.89909
0.17366655,89.762115
0.22154294,97.749954
0.27961716,89.633995
0.49398902,98.46876
0.47088164,96.62639
0.64125264,103.816864
0.64477897,102.16789
0.77059937,108.14682
0.8482154,110.61876
0.93845785,115.696686
1.0888932,109.516594
1.0277284,116.18909
1.0925498,122.6222
1.1650163,120.933075
1.2842009,122.95599
1.178373,121.47536
1.3311325,126.99356
1.3634405,126.75271
1.3344584,130.9159
1.4145582,129.20172
1.5659561,130.65048
1.3960627,134.83934
1.3214436,132.59355
1.438341,137.22057
1.3987103,130.87354
1.373182,138.75397
1.4458976,138.01875
1.3648732,141.14085
1.3794016,139.96686
1.4521586,133.77448
1.3960937,138.15955
1.3135659,133.49825
1.4047486,142.16663
1.3233377,135.92772
1.3302366,137.7921
1.2488533,134.35022
1.2918602,136.73146
1.2441715,130.759
1.201921,129.83078
1.206827,131.52283
1.1573926,131.06302
1.0799696,129.3502
1.0529543,124.51956
1.1789662,128.18423
1.1648568,127.65527
1.0882822,126.55723
1.0452154,126.49033
1.0537364,120.70532
1.0515342,122.31837
1.1327418,121.60279
0.97674,116.53684
0.97746706,118.21774
0.94665515,115.176636
1.0279083,113.636024
0.9588619,110.3007
0.99854237,109.70129
0.9608513,113.642296
0.88255346,108.92388
0.88568634,109.60684
0.8159467,108.74903
0.8184882,108.82908
0.788106,103.84092
0.736371,104.04494
0.7481521,103.05595
0.64478236,102.02413
0.62313926,96.02438
0.71261615,97.43922
0.6501386,91.39651
0.6846832,95.53271
0.5427634,95.265564
0.5642194,88.406425
0.60746187,91.684975
0.5474217,92.730644
0.5673149,85.61555
0.44363338,89.61624
0.57643664,90.639244
0.58736837,86.47468
0.56689996,82.276505
0.51945454,82.148315
0.43789896,81.64651
0.55284584,79.606255
0.5248249,81.486404
0.5406709,79.96474
0.54301614,80.46814
0.47694275,74.766396
0.43102753,80.13201
0.3327918,71.36134
0.43792775,76.83121
0.32023972,79.110664
0.29269955,75.97105
0.24415807,75.99372
0.26051238,79.32164
0.18663742,76.55976
0.26472118,80.39785
0.2510678,81.14395
0.21885283,78.677124
0.22470897,87.041214
0.29521933,88.65072
0.3192324,81.910446
0.4557102,86.69283
0.3916676,87.59091
0.46467656,92.75622
0.49500063,95.22754
0.7199772,93.169304
0.81171525,100.12232
0.7727534,98.157425
0.8443894,102.14986
1.0175844,106.99609
1.0212356,103.866615
1.1882482,111.52936
1.1887643,112.6065
1.3790809,111.42395
1.3488996,112.85118
1.3306093,119.881424
1.4794767,117.45637
1.5691599,122.31654
1.5320611,126.59852
1.6256424,127.37622
1.6909517,130.02808
1.6723365,125.274734
1.6951467,131.68733
1.7243489,135.3647
1.8631191,132.28525
1.7992034,133.5744
1.765989,132.22862
1.7976679,136.84001
1.740758,140.33359
1.728855,138.44585
1.6866745,141.24754
1.7674507,138.21509
1.7790524,137.08383
1.6785431,134.6123
1.7969539,135.72282
1.7923514,135.00407
1.7144816,134.7749
1.7510366,136.42165
1.6809118,134.69302
1.6342714,132.29501
1.5462513,130.14493
1.5912731,132.63559
1.5632226,127.58881
1.581534,136.24593
1.4464846,126.664375
1.4735177,132.61073
1.4363648,127.93151
1.4345356,121.91215
1.3789116,124.12149
1.5150024,121.968155
1.4573842,119.2825
1.3554938,121.04911
1.336864,117.12405
1.4054462,118.417564
1.3405524,115.5148
1.3853292,114.49222
1.3778198,119.81544
1.3035494,113.55548
1.3596871,111.2873
1.4023985,113.691765
1.2898505,109.39522
1.1190645,104.64815
1.3190075,104.769005
1.2316301,103.914055
1.2009063,102.22931
1.0780933,99.379616
1.0895059,101.960075
0.9584108,100.4597
1.0791367,96.48037
1.0150963,97.18632
0.9825134,98.145676
0.99314606,91.88322
0.94573385,93.35406
0.9155407,88.14903
0.8978749,91.507904
0.8513811,93.49677
0.88938445,87.72003
0.82633144,88.64674
0.94810796,87.54151
0.8143247,86.76956
0.8324727,83.93774
0.85776997,84.07774
0.8615405,82.52952
0.88481784,82.176476
0.7627079,78.702835
0.85576504,82.28173
0.7930313,75.59193
0.91940284,84.6468
0.8214685,74.97783
0.75296825,80.39786
0.70323884,79.15829
0.6666976,76.02806
0.6779721,76.01743
0.5121844,76.82932
0.59414077,80.905334
0.5025674,75.663864
0.3877283,77.94461
0.505802,81.1026
0.5074122,79.86568
0.57979906,84.98859
0.56769186,89.25588
0.64088,80.806915
0.7610472,87.830826
0.66772556,86.83315
0.6400914,90.445724
0.7515841,90.592545
0.87602144,99.212875
0.89400935,96.44547
0.9572207,99.25052
1.1232488,100.21184
1.2185929,107.16496
1.2266,103.79476
1.4254911,110.47225
1.4873229,109.60188
1.5344656,113.58649
1.6131982,117.95415
1.597344,119.42004
1.7684231,120.889145
1.7403655,120.74299
1.7837193,125.72408
1.7907677,120.648224
1.9549993,123.15649
1.8843004,129.9631
1.8095078,126.38679
1.984829,131.09288
1.9546032,133.07376
1.9328092,138.09105
1.9262211,134.84888
2.0381558,138.00978
1.987063,135.07455
1.9512163,138.2729
1.9111615,139.39067
1.8423984,138.63312
1.8138684,136.22154
1.935867,136.99498
1.8502221,133.85527
1.8973162,139.39009
1.8037536,140.98294
1.7473683,133.87709
1.8861669,131.57191
1.6930152,135.36302
1.636193,131.57945
1.7727689,132.0002
1.7338532,129.48639
1.6006991,132.32974
1.6545653,124.94057
1.5135899,125.02989
1.5666225,126.02254
1.6015577,123.61222
1.5673759,124.479454
1.5040748,122.1485
1.4819113,123.69557
1.5337683,120.349075
1.4856026,117.62277
1.4621364,115.75727
1.4092367,113.261925
1.4818106,116.99903
1.4084407,117.78507
1.4904283,107.802986
1.396338,110.19167
1.4051666,106.522514
1.2672839,104.31
1.4148996,107.4857
1.3034788,105.115524
1.300338,106.05012
1.1967536,103.14732
1.2895546,103.49391
1.1959882,103.323395
1.0808951,99.131035
1.0914003,101.05548
0.9954369,99.07105
1.014505,94.77396
0.8688362,94.952644
0.8967363,94.35055
0.8820977,92.540504
0.95615315,94.40555
0.9507546,87.843636
0.87139106,86.008
0.84947217,88.12881
0.8951813,87.77603
0.9292387,81.55133
0.8800075,82.83955
0.8115283,80.792435
0.82094073,82.340034
0.83507854,83.45418
0.8029771,80.50199
0.80534405,79.57183
0.7674393,82.25002
0.6985335,74.5108
0.7075212,74.39077
0.71403396,76.09828
0.6356129,81.19885
0.6053289,79.38496
0.55289936,81.00891
0.49122453,81.43842
0.3422019,76.453995
0.38341692,77.07828
0.4269431,75.97646
0.38858703,77.621284
0.33467457,81.17278
0.4323997,80.64591
0.4965409,85.07983
0.40090987,84.0414
0.45801887,84.455284
0.5926293,86.67213
0.5841091,91.51388
0.62763214,90.95477
0.6535602,93.2592
0.7044398,95.60069
0.84665823,99.11892
0.9831386,103.44398
0.96248084,103.48942
1.0306321,100.59647
1.2032171,110.24407
1.2652897,109.519424
1.2408166,114.07326
1.3339636,112.04188
1.3912762,116.8573
1.558124,116.470375
1.5806129,119.53672
1.5720687,123.712036
1.5947171,125.17454
1.6419648,123.59365
1.7752252,125.45875
1.7738107,132.62312
1.701743,131.64854
1.6479561,131.17058
1.7419624,130.54257
1.7631532,135.0
1.7091935,134.40886
1.859669,134.65663
1.6881595,138.49089
1.7209897,137.58493
1.6714357,138.3106
1.6946449,137.74019
1.703151,135.245
1.7021196,138.72374
1.5603093,139.43085
1.5688483,135.43463
1.5065906,134.6688
1.5542023,135.29439
1.5132275,130.95094
1.3706213,135.33737
1.5066018,132.52919
1.2846097,133.77785
1.4212747,132.01285
1.3687549,130.67572
1.2096645,130.0328
1.4284459,125.282234
1.2862586,126.30055
1.1483073,127.41095
1.2882297,122.87592
1.2779722,124.223335
1.2555236,120.51587
1.2692453,119.88511
1.1902151,121.34624
1.1559049,115.38034
1.1538725,115.28585
1.0975337,118.20771
1.0493543,116.08359
1.1069741,116.62842
1.1452191,108.32581
1.0434384,112.98016
1.0204259,104.963425
0.9798906,103.06432
0.9191719,107.32152
0.90646017,104.6215
0.92019683,103.96085
0.886368,98.57481
0.7644781,102.632996
0.7684944,97.89885
0.6906393,102.95291
0.6553958,100.13895
0.59887105,93.81733
0.5984049,95.80144
0.66107655,92.921005
0.63268846,93.814476
0.6036008,89.70809
0.5291142,92.924576
0.53589225,89.32989
0.44363505,86.45891
0.47805604,81.63541
0.4841099,84.11297
0.53945714,84.63096
0.56461394,83.40143
0.4698297,81.72679
0.48433685,82.23972
0.4242058,80.023926
0.540277,76.94206
0.34516254,81.98773
0.36088416,73.93481
0.32134926,78.15883
0.3604088,81.72309
0.20751992,77.96408
0.2192434,79.7434
0.19569081,77.47892
0.14484233,74.291405
0.18167098,77.74211
0.030438785,80.20114
0.08474173,79.28809
0.0831276,84.57666
0.04000684,79.42195
0.14756359,82.82198
-0.033779718,84.65353
0.18799211,82.66075
0.1053612,86.437675
0.16721079,89.91405
0.23120695,91.82575
0.34119707,95.05982
0.33792144,95.896805
0.51627123,98.54844
0.57097805,95.43802
0.58658284,102.45489
0.5952811,104.019
0.7436979,107.4471
0.81227523,102.749115
0.91492647,110.563065
0.967475,109.93966
1.1501468,113.68931
1.0712084,116.50635
1.2285057,120.40905
1.2733039,122.0512
1.2132666,122.32425
1.2416618,128.6231
1.3906753,125.013824
1.3757579,127.51511
1.3265957,128.69478
1.4184003,129.75024
1.3599501,127.95358
1.4293045,134.35126
1.4436846,136.36147
1.4046067,135.35623
1.4543084,133.22307
1.4100716,138.15654
1.2775289,136.88199
1.3027005,137.68442
1.362374,141.19684
1.3205674,140.6531
1.3565184,138.26408
1.3458662,134.90047
1.2245212,136.58473
1.1932964,133.67921
1.2449397,131.88406
1.1902246,139.373
1.1470679,132.90604
1.084434,133.24068
1.1184385,131.47665
1.1339899,129.45422
1.1344252,125.89197
1.0677688,128.75111
1.0276803,125.93126
1.0353016,126.97027
1.0105985,124.615456
1.0275936,123.476814
0.8934627,116.772255
0.9491072,117.90217
0.85158426,118.7451
0.8690915,117.77768
0.9885717,116.15533
0.8175357,115.03488
0.78009355,113.58916
0.74031377,115.56604
0.8343751,111.82846
0.8225699,112.87271
0.7915049,104.855415
0.71361065,107.21106
0.72513086,106.65082
0.6853519,107.72692
0.7283097,100.37549
0.5921505,104.96066
0.58895254,105.52893
0.50717527,100.962234
0.50953794,100.42637
0.5331146,96.193344
0.4942101,95.51409
0.44286853,93.41406
0.31998846,95.84362
0.49526238,89.60175
0.3653449,88.64894
0.31976178,93.18702
0.33290273,88.20724
0.3335146,84.337
0.35399592,83.891884
0.31374344,83.18236
0.3322855,85.043175
0.41965914,80.99354
0.24951664,86.67404
0.3673398,78.39831
0.3753697,81.906715
0.26786897,79.30611
0.32993576,79.16461
0.27340376,76.31065
0.2056748,76.854324
0.17889659,79.10306
0.14112756,83.02515
0.044166937,77.04928
0.101560526,75.75284
-0.031206954,80.046074
0.028242799,80.391815
-0.020942178,76.754524
-0.06710394,81.04832
-0.06579479,77.448006
-0.04075674,79.43302
-0.059428137,80.25565
0.055945788,83.18966
0.05689492,90.545654
0.10558551,88.24363
0.14193296,86.34312
0.16550238,91.85977
0.24309056,90.88397
0.30465513,95.753975
0.45227888,94.04934
0.45219854,97.3085
0.4844778,106.40004
0.6338852,102.27406
0.62511104,106.19048
0.8495311,103.94534
0.9173473,112.085686
0.94896036,115.99497
0.9714168,113.31635
1.1774327,117.89307
1.1452814,117.90441
1.200396,123.63135
1.1990288,122.08209
1.2592211,126.30681
1.3892957,125.987465
1.3865708,131.66586
1.3489797,128.65823
1.3833236,132.04947
1.417963,133.7598
1.3929387,129.17285
1.3658667,139.86554
1.3723426,137.50203
1.4150155,138.00471
1.365872,134.63939
1.4484633,136.23715
1.3877212,137.65515
1.4143459,138.93858
1.4190097,137.65314
1.4036578,139.7154
1.3318472,133.07108
1.3875684,139.31126
1.3424703,138.16284
1.2123443,134.35995
1.2886802,135.45663
1.3233715,131.39119
1.2172159,134.12538
1.179655,131.8588
1.1243278,127.366196
1.1726727,130.64392
1.0521739,128.45143
1.1349479,125.061516
1.1478393,128.37411
1.1405821,126.49353
0.99142253,122.34386
1.0860105,123.18017
1.0220042,122.4839
1.1061785,119.1986
1.029889,119.11017
1.0648758,120.003044
1.0558187,117.85764
1.0382696,114.11018
1.0102136,111.49858
1.0059233,113.19495
1.0313861,107.63012
0.9613366,110.0169
0.8934227,108.90377
0.94679344,105.20199
0.9312275,105.40377
0.9792544,106.73295
0.8868902,103.04056
0.858582,98.66241
0.74059904,102.58733
0.7395821,96.69667
0.70023894,95.18209
0.63465667,101.65364
0.7365692,97.03891
0.6842482,89.38512
0.68064106,92.729065
0.5287066,94.03289
0.57203346,90.148735
0.5470904,92.2017
0.5365323,86.46148
0.65470666,89.02298
0.5633337,87.616875
0.60305977,84.45291
0.5742989,84.28294
0.64958507,77.74856
0.5317616,80.98167
0.58178174,76.89626
0.5369508,79.96663
0.5702688,78.3943
0.51263434,78.69759
0.5762769,84.85012
0.5386112,78.70924
0.4451675,75.656555
0.37653726,81.03363
0.27560577,76.879776
0.3938164,74.1052
0.32299578,72.74512
0.25110465,79.923035
0.2467022,73.10072
0.19977055,79.82266
0.29939023,78.324104
0.28181076,78.97759
0.2593971,77.77909
0.36183622,84.77884
0.26752654,82.6381
0.33134216,89.07947
0.42976874,91.876526
0.49788,86.59428
0.568912,94.23134
0.697402,92.86633
0.80065966,94.838905
0.9342276,104.38977
0.9729308,104.12299
0.9141537,109.32254
1.0295559,111.623604
1.2087398,109.56133
1.2098104,110.684105
1.2557107,115.81844
1.3261629,117.97427
1.4893317,118.63691
1.5622993,118.300354
1.5613079,122.49
1.6341623,121.57828
1.7440937,125.725914
1.7098471,129.51193
1.6692976,125.38216
1.6710057,134.19026
1.7334263,134.14798
1.8412632,135.68117
1.7984992,134.69069
1.7958492,137.77567
1.8483387,135.88823
1.843457,135.51901
1.8837782,134.95876
1.7010256,138.24115
1.8898827,142.28844
1.7280624,137.9584
1.7440207,134.26958
1.705314,138.6531
1.7663527,136.87943
1.7215791,137.79861
1.619193,134.77275
1.7028576,130.67473
1.6888738,131.99629
1.6711972,132.88925
1.5630134,130.23439
1.5417655,130.82274
1.4883022,124.49341
1.5508068,127.19057
1.5844508,128.29744
1.4098275,128.0509
1.5239581,126.74538
1.3660376,126.61284
1.4407873,124.04844
1.5021249,123.69883
1.4159862,120.00546
1.4428537,115.32724
1.4081084,117.51164
1.3542062,115.238174
1.4350867,115.851616
1.3600004,114.04184
1.4593238,112.58425
1.4282506,107.114975
1.2802693,108.50051
1.3791523,108.30289
1.2193075,104.60587
1.2316269,103.628044
1.0793453,107.1885
1.1509018,100.44749
1.2097917,103.74443
1.1190804,106.73745
1.1285975,102.83621
1.0305015,98.6332
1.015582,98.22279
0.964357,93.73519
1.0876311,92.7559
0.97706467,96.48013
0.9481814,91.26652
0.85267305,93.86684
0.8827621,86.703186
0.92131394,91.04962
0.839328,84.90016
0.9243665,88.25656
0.9482852,83.23095
0.8737257,86.0641
0.9852538,85.47831
0.90544283,81.73781
0.80346423,80.4388
0.83689976,82.13301
0.79055566,73.956085
0.88182336,75.920334
0.79878,76.9534
0.7293181,78.53829
0.7236436,77.77091
0.7649884,73.74406
0.70349795,80.475174
0.66412115,76.71285
0.6436126,78.24922
0.55987966,78.80676
0.6470388,80.35462
0.534758,74.91706
0.53380626,78.39068
0.46903577,82.92416
0.5490452,78.19446
0.57078683,81.03551
0.5971325,86.385185
0.6222213,87.30729
0.64623266,90.39398
0.72287464,88.17257
0.88784087,91.770096
0.83217597,94.09184
0.9041647,96.314865
1.0578061,95.76493
1.0163295,98.101715
1.150721,99.63607
1.2729596,110.8432
1.3398077,106.71233
1.489865,108.69016
1.4403944,113.713196
1.6493887,110.23793
1.6479309,116.73202
1.7651862,118.15997
1.7429959,118.33688
1.8990415,123.74703
1.844128,123.380295
1.8654914,125.58434
1.8669385,126.505424
1.9401395,127.72654
1.913543,131.74971
1.8963343,132.43628
1.929786,134.92711
2.0035112,133.55357
2.030577,135.77858
1.956995,139.50851
1.8866079,135.56474
1.932061,138.3301
1.9696774,136.22827
1.8878194,135.57161
1.9727702,139.60597
1.8786631,134.4241
1.8071694,132.19531
1.8375614,133.32497
1.7195796,136.42598
1.7536573,128.89096
1.7854111,135.00264
1.7431662,136.52235
1.7093282,133.33568
1.5889684,133.57518
1.5874165,131.22836
1.5926632,129.80269
1.6167456,127.91627
1.5879254,128.79858
1.4978132,124.48503
1.4810785,123.07183
1.6013091,121.97165
1.5729083,123.28425
1.4700614,117.63114
1.4894916,115.5259
1.4606758,116.01497
1.5498592,113.926605
1.377439,118.78979
1.4308822,113.62582
1.3801566,116.28833
1.3988531,113.63515
1.3325512,107.61183
1.3435237,111.88242
1.3611664,106.13965
1.3143779,107.85186
1.2065428,107.51452
1.2534775,100.04467
1.2003845,101.44125
1.1184953,101.09382
1.0897881,100.66644
1.0449586,101.443794
0.92256963,97.11596
0.9154518,95.63983
0.99926126,91.45428
0.93548673,88.25509
0.93687713,92.10663
0.9426284,89.829346
0.9016975,97.3155
0.8150699,91.32292
0.8663601,87.48206
0.8001256,87.414505
0.77934474,81.9926
0.8343655,84.12081
0.8047423,84.73525
0.86151105,81.15851
0.78485584,80.99093
0.82231814,81.86778
0.80818456,80.956375
0.75508773,78.77643
0.7635334,74.706154
0.609339,80.923004
0.63678545,78.001335
0.5804506,78.959404
0.62704265,73.795784
0.5311242,79.22994
0.4681911,78.89565
0.49419403,78.032684
0.45969382,79.82057
0.48976746,79.51917
0.39316323,78.632545
0.32892475,79.868484
0.36584398,86.159065
0.43506166,84.2895
0.3863233,87.499275
0.4783789,86.42484
0.5067476,87.22283
0.5887346,89.888985
0.60969037,90.679985
0.693067,95.18603
0.759918,96.41371
0.7767855,99.990135
0.9030315,99.67755
0.97189164,103.54247
1.0495161,103.96416
1.1964618,106.137
1.288562,109.64681
1.2838188,111.738884
1.3877313,109.379715
1.4350245,118.01394
1.4327488,119.72073
1.4725341,119.736946
1.6299964,123.16087
1.5693759,124.10961
1.647647,127.84293
1.7382215,124.49224
1.690653,129.1821
1.7405578,128.44429
1.6465399,129.48546
1.6302531,134.72057
1.7706338,136.4065
1.7501493,135.14928
1.6643996,132.38063
1.7625439,137.03935
1.7287225,136.81953
1.5589564,141.75328
1.7253369,138.29051
1.6015912,140.73682
1.5525452,135.9309
1.6043258,133.53333
1.6481173,137.65045
1.4861318,137.13118
1.4704889,134.35168
1.492078,137.96584
1.4146577,132.08871
1.489511,131.70576
1.3941917,132.75565
1.3113805,129.90323
1.2371432,131.94156
1.3341663,127.736626
1.3341153,124.12919
1.2228848,126.90641
1.2374214,126.60053
1.1502686,123.36647
1.1432391,122.46342
1.1057044,122.65073
1.1359844,120.91472
1.0842532,121.33938
1.1346661,114.024666
1.0146403,114.72686
1.0842302,109.74258
1.1397665,110.66975
1.0525495,111.59813
0.9960837,112.1851
1.027149,113.462326
0.9427971,109.15378
0.95252484,104.78684
0.9004617,102.53172
0.86998546,106.55611
0.8103822,103.86328
0.8723764,101.18727
0.7308527,101.606476
0.7270556,98.528786
0.6798103,100.0733
0.6303416,99.26318
0.59109455,95.48791
0.57443166,95.66544
0.50982124,87.17773
0.53107274,94.23421
0.5403307,86.605034
0.5571726,88.35518
0.51058143,93.32796
0.450213,83.94544
0.5287289,84.564415
0.37938324,80.523796
0.36134902,81.602325
0.48540565,82.55735
0.50873095,82.273094
0.43119907,80.7968
0.3245264,83.5715
0.36717385,80.63644
0.465019,77.37157
0.4239888,78.79946
0.37849566,78.19445
0.29971,78.75262
0.16295801,76.49713
0.067404844,74.146194
0.122218534,78.01051
0.17299494,76.269356
0.07417637,77.333984
0.08291968,77.58803
-0.026875785,76.531204
0.06658065,84.3332
0.095309764,84.890526
0.06292786,82.97424
0.059819482,85.20641
0.06092296,84.48407
0.15892793,89.42935
0.28412905,91.50582
0.21458839,91.38035
0.41117907,95.04997
0.45817325,90.70901
0.3950106,100.39117
0.5141923,97.68665
0.6895503,102.18167
0.72992104,101.708694
0.80432403,106.771286
0.80784714,109.90085
0.9282643,108.62113
0.95323527,115.32579
1.1344916,118.068665
1.1453447,119.89389
1.2644508,117.094894
1.2389857,121.86265
1.3255179,125.45626
1.355944,124.88001
1.3707983,128.42914
1.4170542,126.54607
1.3608013,130.14801
1.3687598,133.23433
1.4039779,132.35384
1.3684644,135.27066
1.3992422,133.71547
1.3314779,135.74922
1.3255197,136.78772
1.4702178,135.79626
1.3224564,138.37523
1.3601602,136.52684
1.4138209,139.913
1.353409,136.14767
1.2921891,134.564
1.2183397,134.88287
1.267804,138.10194
1.2452505,134.23424
1.2465189,135.03345
1.1865385,134.96828
1.103635,132.2527
1.127196,131.23344
1.0806109,132.241
1.0532691,129.92195
1.0105323,130.29054
0.97239983,124.81986
0.9867423,125.91167
1.001542,123.47911
0.8838084,123.717804
0.9255713,120.748924
0.8289999,124.28254
0.848446,120.75524
0.9963462,120.81231
0.8775621,119.22148
0.8252349,112.63796
0.8800423,112.50077
0.9092674,112.63921
0.8767809,111.97666
0.89736706,110.19163
0.76084864,106.428024
0.6972663,106.00909
0.6765305,106.28621
0.69587845,108.144394
0.6699568,102.941895
0.6800672,102.64591
0.49181974,103.61106
0.6009473,99.47787
0.57978,96.87565
0.46575585,95.8876
0.4861073,98.72845
0.5090442,100.41442
0.47597778,87.68672
0.2572191,92.16375
0.36873806,93.8491
0.35207137,87.2613
0.37739658,91.21637
0.3296741,89.12521
0.32765663,88.52757
0.36952877,84.89667
0.30226737,80.24642
0.29564545,85.69294
0.373983,84.39496
0.35860518,83.62558
0.33111766,81.68841
0.21848483,78.24119
0.3459002,73.67362
0.2532819,79.34994
0.18815583,78.00379
0.22473428,76.64184
0.075687096,77.38412
0.20167369,77.39052
0.13709849,75.933
0.07514072,80.83944
0.089582324,81.6318
0.056443445,78.545525
0.09069631,78.20195
0.007704215,75.79335
0.042741634,82.78542
-0.07635782,80.5027
0.0512568,82.64067
-0.005636128,85.41126
0.04738599,80.89402
0.01439425,86.336426
0.3001391,90.18357
0.23979722,89.29369
0.20377128,93.99193
0.37349546,95.5698
0.3618712,96.501495
0.52346534,95.27677
0.5258324,102.26941
0.69240695,104.92566
0.734475,102.2859
0.8236133,109.60679
0.97895676,112.10679
0.9958558,113.54823
1.0729231,114.451126
1.1186198,114.4606
1.2101854,117.438324
1.3198738,120.458206
1.3186461,123.53154
1.2049848,125.57816
1.3259989,128.44315
1.439877,130.12875
1.4383886,127.64321
1.3667116,134.73895
1.4482517,134.06631
1.485245,134.48901
1.4683954,137.697
1.4937792,136.48984
1.4376343,135.8256
1.5016034,135.22632
1.4818289,135.86401
1.4161228,138.4639
1.3960129,138.77193
1.424327,139.03494
1.4069412,136.36444
1.385907,136.35245
1.2995708,135.6317
1.380663,138.5881
1.2621405,134.10835
1.2780641,135.35208
1.4067,135.51309
1.2719592,131.58463
1.2603338,133.83784
1.2147275,127.89078
1.2437807,128.06703
0.98419684,126.64957
1.1137296,128.84886
1.1413916,126.37508
1.0991735,124.95162
1.1287252,123.34394
1.1200749,122.11261
1.0129484,117.70479
1.0310204,119.85465
1.044913,117.474335
1.0667713,114.80715
1.1179914,114.259384
1.0544512,117.12823
1.1427004,113.54633
1.0280222,113.73759
1.0242637,111.787796
0.9962942,110.186646
1.0255978,107.51353
0.9429395,104.26854
0.94743717,110.61673
0.86991876,105.86924
0.8266091,106.7937
0.8381489,104.92552
0.7833958,97.4035
0.78120106,98.74621
0.66301864,95.51377
0.6127974,94.65668
0.5759873,95.86499
0.68385184,95.7868
0.5610087,91.88718
0.61060077,90.57641
0.64037406,87.14815
0.53949666,89.21403
0.65716136,88.09508
0.58388084,85.085884
0.5897223,84.70788
0.5469738,87.53779
0.6057905,79.95816
0.6411096,79.80003
0.54478323,80.972404
0.60410064,81.849556
0.6193058,81.70283
0.4787894,78.29689
0.5268824,77.83678
0.42362568,77.68686
0.51754904,78.183784
0.40568206,80.76334
0.46837336,81.27876
0.5098918,76.246635
0.3168535,76.03901
0.29547283,75.979744
0.34571165,80.1027
0.2587485,78.90224
0.33049926,81.79698
0.29803646,83.69637
0.31444895,82.295135
0.30182335,83.32856
0.3466668,84.60262
0.43329585,86.8505
0.40566787,88.08727
0.4483327,89.59656
0.5742478,94.140366
0.57448137,91.28851
0.6952375,97.56
0.87642956,97.252205
0.83837414,102.52281
0.94490826,102.77922
1.0580906,107.16976
1.1251813,107.34603
1.1898137,110.55111
1.277756,111.820885
1.3954966,118.97445
1.4038031,116.21145
1.5047326,119.22259
1.5528704,122.72349
1.6599219,120.1108
1.7132351,124.8948
1.6439286,127.39398
1.7228663,129.36467
1.7862687,125.66912
1.8806292,134.429
1.7706958,129.11086
1.8329293,129.26445
1.7368872,132.79593
1.8830254,138.67427
1.8412578,140.34384
1.8701159,135.94128
1.8014939,137.42076
1.8760805,136.16852
1.7968796,135.82501
1.8278624,141.10216
1.9168775,138.49759
1.8390833,135.1099
1.7150745,137.18036
1.6911087,136.89804
1.7093197,138.92772
1.6243266,132.31046
1.6993028,134.17455
1.6303114,131.39627
1.6885679,130.54074
1.5522386,128.4331
1.4962547,132.2846
1.5624816,132.70961
1.5399185,126.60091
1.4639019,126.25149
1.5133796,126.739235
1.5114346,121.9969
1.358387,123.50461
1.4167341,120.151535
1.4503943,118.82927
1.4820169,113.948044
1.4136429,115.60516
1.4543918,114.93302
1.2880067,115.984344
1.4439499,110.813644
1.3512328,111.55493
1.3630929,106.84197
1.3621435,105.996185
1.2841712,106.604866
1.1973271,110.62859
1.2752069,107.19744
1.2692578,106.52683
1.1266122,98.94473
1.150416,100.98892
1.098232,98.56445
1.0799387,96.36463
0.97219026,100.5629
0.9796927,97.315094
0.94500476,100.0226
1.0472249,91.65677
0.93781936,95.5262
0.85929394,89.26706
0.9326109,92.894196
0.94968057,88.876076
0.9883726,90.59341
0.8469844,86.26359
0.8697311,83.09002
0.9502164,81.08164
0.93617946,82.47871
0.9406603,79.98725
0.8859784,76.96745
0.88600844,85.70822
0.8551816,79.28974
0.9057526,78.95095
0.83500534,78.54937
0.8085049,79.918076
0.78845936,81.271164
0.7880582,78.8818
0.7145201,78.07392
0.7192964,76.50948
0.6147051,75.78625
0.5568038,77.27331
0.63601774,79.69637
0.5339501,77.30009
0.45387387,79.3538
0.49978852,81.73893
0.48939678,81.22703
0.5867754,80.932884
0.59920716,80.24439
0.6060978,85.35481
0.6404597,89.18561
0.6722937,90.13668
0.7453616,92.0997
0.8177278,93.443504
0.89910555,95.4326
1.0439328,98.300606
1.0288509,99.94167
1.2557938,100.70452
1.2655007,100.18773
1.3058612,107.03048
1.354854,108.96996
1.4919529,108.98472
1.5993527,115.98179
1.5328114,119.40926
1.737747,116.573524
1.7550664,117.133644
1.7385833,121.99497
1.847062,124.28558
1.7770679,126.42115
1.9507648,125.65631
1.8362045,129.8637
1.9525224,129.93808
1.9424567,129.51625
2.001464,134.7143
1.9812034,133.90923
1.9870312,135.41867
1.9627075,136.94955
1.9656093,135.36244
2.018783,136.87389
1.961677,137.7165
1.9578841,138.69594
1.9195153,140.42924
1.8009732,142.33133
1.8513899,133.91518
1.7774769,136.64362
1.8196119,136.6758
1.7955889,133.97731
1.7574115,128.59175
1.7994089,133.63857
1.7715039,135.55042
1.6222239,132.977
1.653262,130.17943
1.5881387,129.75719
1.55729,128.75731
1.561673,130.65009
1.6504567,129.18518
1.5704839,122.9822
1.5142674,124.1321
1.5348153,118.8416
1.4690763,121.379
1.517237,124.53094
1.4791045,118.055855
1.5185424,120.97863
1.4028219,115.5449
1.5712492,115.98119
1.3765948,112.669716
1.430273,109.31849
1.4217323,110.277565
1.3043414,110.78655
1.3394854,108.00032
1.3030586,107.80771
1.322303,106.44395
1.1530615,108.10746
1.1227181,104.99991
1.2150725,99.86638
1.0534586,103.61829
1.204444,97.85818
0.9815252,96.72809
0.95978934,96.12724
0.94583845,97.97219
0.929408,92.67015
0.89434594,92.79137
0.9090348,89.17247
0.83108777,91.49532
0.81378514,85.78274
0.84332687,85.60358
0.7965773,87.27169
0.8186237,86.21788
0.74335694,86.552826
0.8193265,84.71074
0.74266046,81.933784
0.78233844,79.09657
0.7924742,82.16522
0.8334824,80.566444
0.8374085,75.421455
0.67028666,82.24906
0.6952342,78.076744
0.68385327,79.249405
0.47662175,80.15048
0.6324002,75.24689
0.5995824,79.079254
0.4743061,75.279
0.49098963,79.4016
0.41947508,77.12107
0.4365063,79.192314
0.3513471,78.15806
0.39579067,75.06199
0.39631402,80.988396
0.40275732,83.71199
0.5052502,84.109085
0.40716884,85.3385
0.3527065,87.547775
0.5454877,89.79909
0.48873994,92.55807
0.6814143,93.901794
0.71768427,95.63387
0.72627896,98.351494
0.85492355,97.83306
0.9163971,100.704956
1.0153443,104.472916
1.1231021,103.915825
1.1975205,105.19789
1.1986367,107.813614
1.2783468,108.84399
1.350363,114.813416
1.3871585,120.53221
1.5022488,121.55159
1.5331792,124.79812
1.4972581,128.9733
1.534648,126.63638
1.6710635,125.27145
1.6569664,128.4221
1.7175285,133.14514
1.64143,131.90796
1.6977414,133.51192
1.6686435,133.1795
1.7010852,136.59212
1.6866629,138.46968
1.6635491,134.17575
1.625056,133.78989
1.6030842,137.43243
1.6487049,140.4535
1.5649042,136.84956
1.6348795,141.40358
1.5626335,138.32042
1.5891718,136.2723
1.4523774,137.70537
1.4514712,136.50261
1.4434606,133.3705
1.388437,134.07217
1.422995,129.91328
1.3228843,135.43138
1.2947398,132.51917
1.3321838,132.23825
1.1659875,131.26591
1.2418176,129.80434
1.2792473,129.66028
1.2012067,127.26511
1.2448589,124.21647
1.1779245,121.30446
1.1600227,121.15673
1.0872879,118.79697
1.0950985,119.09583
1.1745358,119.31102
1.1296722,119.21464
1.0575094,114.806175
1.030445,115.669975
1.0885774,113.954834
0.9751753,109.75227
1.0518342,116.613464
0.94066495,110.32512
0.9490028,105.77836
0.8651923,108.861084
0.8907038,105.35067
0.845332,101.35523
0.8405674,100.77833
0.69757414,104.10634
0.82424545,100.999916
0.6854076,99.997345
0.6333185,98.63617
0.5792516,102.22854
0.486927,96.34199
0.513686,98.06903
0.5629012,90.25188
0.4786978,92.71221
0.44913644,88.739426
0.54298824,86.859535
0.43334094,86.09421
0.46869782,86.68947
0.4756962,88.31688
0.40156057,84.03772
0.4852146,82.532845
0.47164744,85.05104
0.31062067,79.04074
0.40102914,79.51758
0.37047476,79.45897
0.29037902,78.28424
0.336164,78.92122
0.3718994,73.27226
0.39957574,75.75922
0.28472885,76.000435
0.22736739,76.945366
0.15549424,77.49191
0.09428913,75.80909
0.114397734,72.64945
-0.003965931,75.3004
0.0726814,79.77959
0.08223228,79.60137
0.09664639,77.55612
0.10704369,79.41348
0.1373654,81.085014
0.08936588,87.879234
0.15874882,85.71284
0.15093063,91.84709
0.16415255,87.33992
0.23824333,92.483505
0.3460862,95.275406
0.38382939,99.18069
0.45295367,100.94583
0.60855705,101.15439
0.5709109,106.3082
0.6538595,104.601295
0.85640144,107.02223
0.8583552,109.61767
0.8999168,115.74461
0.98552763,114.53974
0.98296946,117.80188
1.1938252,118.717354
1.2590952,122.53629
1.2529087,122.584694
1.1698663,122.77162
1.254443,127.05229
1.2630231,129.36931
1.3579111,132.97649
1.3196071,131.18283
1.3533924,134.87224
1.4015272,136.88431
1.3881938,132.82986
1.4391958,137.36607
1.3598522,136.65797
1.3912847,136.94655
1.4072331,138.23445
1.3345618,135.55347
1.2812088,137.80736
1.3469265,138.028
1.2061516,138.05922
1.3370304,135.32152
1.1549683,133.32399
1.1943809,132.96634
1.2180668,133.32912
1.2000123,136.49593
1.1487365,132.69873
1.1066982,130.77264
1.12587,133.65184
1.0030147,126.33538
0.96788645,125.8939
1.0253719,130.54466
1.0657191,127.806564
0.9841775,128.37062
1.0078889,126.750565
0.90109366,129.19246
0.9478238,125.51043
0.94805443,121.961975
0.8598907,123.36066
0.8485731,118.45512
0.9335274,115.29838
0.8394878,113.45969
0.83350945,115.62052
0.82483345,113.64391
0.8323742,111.072266
0.85309494,110.7668
0.8346009,109.79215
0.8418764,105.75905
0.69567937,103.41282
0.6784244,104.9415
0.60193366,104.00494
0.63649136,103.11906
0.51668817,100.30231
0.5371117,101.19773
0.63799083,98.04411
0.41615447,96.41838
0.42496133,98.82
0.37079802,98.160194
0.40996328,89.53504
0.3565026,91.35687
0.42085642,92.39108
0.39518428,89.269485
0.3793569,90.83987
0.4342636,87.466225
0.40138948,86.911934
0.31160724,84.90718
0.30963507,83.94284
0.33893293,83.005264
0.27009106,80.03136
0.32380983,79.99541
0.39455366,80.57239
0.38535866,83.60897
0.30681127,78.28868
0.33475944,80.05576
0.29243454,81.970314
0.2174828,78.636284
0.1958417,79.57015
0.18528077,76.45778
0.048335046,78.776405
0.1204232,73.19159
0.0835092,77.251465
0.08934865,76.924866
0.02469139,78.58428
-0.033849917,83.13121
0.054119524,79.8264
-0.07282307,81.955894
-0.04907039,79.07628
-0.04023735,88.58532
-0.016667597,85.443344
0.12476815,83.5598
0.22757304,91.8343
0.2864621,91.74591
0.23549333,93.84639
0.36785915,93.591484
0.41938415,96.56194
0.53610265,96.49886
0.698782,103.83797
0.7686734,108.13685
0.82861537,108.593414
0.8563595,107.379326
1.0291728,109.377785
1.0243789,115.564995
1.0331011,115.506615
1.0860648,120.07365
1.2457216,117.94724
1.2460593,121.7248
1.363818,125.31194
1.3170009,127.93984
1.4343784,127.3053
1.3866057,126.472305
1.4392812,131.00674
1.4181751,133.13364
1.5230296,134.50716
1.4625415,134.00842
1.4668087,136.22917
1.4774657,133.88542
1.5165492,139.94336
1.4401217,137.47412
1.3642936,139.22316
1.5466692,140.2847
1.4544464,136.99867
1.5596114,133.75995
1.3763853,138.02724
1.4506667,140.24013
1.2671301,136.46753
1.3150752,134.312
1.324979,134.65953
1.2185187,130.8524
1.3029326,134.34993
1.2712821,132.60017
1.1742797,131.98196
1.2592199,129.46304
1.2238042,128.74681
1.281919,128.84854
1.1266999,129.14198
1.0628945,120.93082
1.0453287,120.38726
1.171727,120.253
1.1902692,124.020256
1.104968,124.64022
1.0821718,118.35404
1.1123859,122.92034
1.1465815,119.74137
1.1245697,113.44969
1.1630344,119.18626
1.0545633,113.834076
1.0530849,110.118164
1.0075912,111.77805
0.9625017,109.862816
0.877067,111.05553
0.9141581,108.02017
0.98077875,103.71579
0.8691118,101.4088
0.88970137,100.87731
0.8004511,95.902466
0.86107177,100.845436
0.7741641,101.55736
0.8060194,99.60451
0.70995367,99.65543
0.77891535,92.748474
0.5955596,91.84984
0.60461265,94.72305
0.6844079,93.960205
0.6294737,91.618675
0.5402102,93.02885
0.6306447,87.25506
0.6527478,83.84067
0.56222624,85.55608
0.59904885,86.0733
0.7149414,85.49797
0.58212256,80.58484
0.7125588,78.52078
0.64990413,80.6738
0.70666564,78.52339
0.56912565,78.96044
0.5005196,78.67043
0.504749,78.22439
0.5115779,76.816536
0.49110216,77.100105
0.44288218,77.088234
0.42177108,77.10161
0.3706263,80.70775
0.3927831,81.94243
0.38781828,75.35316
0.42090544,80.75463
0.30219072,74.006546
0.35363927,81.69554
0.40484023,84.133446
0.3601048,82.07386
0.3734669,83.45842
0.4601153,88.38951
0.43822062,88.621666
0.49873173,87.92772
0.63255316,90.73936
0.53266567,97.957306
0.78413785,92.895485
0.8340551,94.69113
0.91359514,100.31442
1.120449,104.1139
1.1811156,105.72127
1.1087228,107.42191
1.2392459,110.34168
1.3306606,112.881355
1.4351754,115.993
1.4578184,113.38807
1.5276222,116.1927
1.6590446,122.93571
1.6443466,124.5458
1.6495169,128.40326
1.6961489,126.73926
1.748678,129.20647
1.791797,124.95758
1.7344749,129.25574
1.8777051,133.54727
1.7848984,138.50221
1.8693131,136.17744
1.9377156,133.72336
1.8380332,137.26851
1.826956,135.71635
1.9552853,136.7607
1.8506651,139.65994
1.7506652,131.82872
1.8182342,137.72185
1.7682563,134.21466
1.7706136,134.97177
1.7384498,139.36893
1.7641581,137.32272
1.7078744,132.52376
1.7356733,133.10902
1.5849011,126.88783
1.6319865,132.34811
1.6541471,130.08652
1.5910054,130.22714
1.5623914,125.98703
1.4856584,125.1273
1.5480158,129.0331
1.5600919,125.94181
1.5838207,123.92987
1.4097351,123.07849
1.5030789,120.38728
1.498448,119.78262
1.5111494,120.7592
1.4465227,118.52453
1.4607369,115.85991
1.4634764,118.48773
1.4125715,117.45115
1.3078895,112.80322
1.4557049,111.160835
1.3822865,111.20365
1.2709838,108.93581
1.3013824,108.780594
1.3102058,105.52489
1.274869,108.61155
1.1825249,103.10817
1.16666,107.10726
1.2288321,100.5211
1.2748966,102.92674
1.0878619,102.172745
1.0341215,99.47258
1.0789014,95.94548
1.0034148,94.38155
1.02576,95.19747
0.84066355,94.04108
0.8649957,90.86715
0.9594907,88.9753
0.7898969,92.97481
0.97604126,86.21587
0.953801,85.78519
0.9342899,85.01781
0.93897706,80.74444
0.91995496,78.71472
0.83281195,84.6893
0.80127543,82.71863
0.8056628,82.4167
0.94548744,82.7761
0.8724797,80.374275
0.76181144,78.1943
0.79045427,76.16296
0.7600815,78.800415
0.78623396,79.23937
0.7114707,77.620285
0.68670005,76.1248
0.6024573,79.30806
0.60455877,81.09433
0.5598521,73.70191
0.5772026,80.4706
0.62095106,81.81412
0.5847934,83.228134
0.57338977,82.99811
0.5312792,83.45165
0.5819188,81.40839
0.66376245,83.33443
0.6332566,88.721504
0.7142261,92.112335
0.8061284,95.46311
0.8341507,96.72949
0.89776236,93.014786
1.0706848,96.50441
1.1023685,102.59988
1.1832532,98.08689
1.2658623,105.797134
1.2639697,107.17566
1.4594189,110.71159
1.478105,112.45041
1.5164673,114.260376
1.6215239,120.68597
1.7396543,120.46046
1.751769,120.93774
1.7064688,119.87708
1.8496711,127.03446
1.7951252,122.14274
1.8179625,129.94711
1.8796767,131.6913
1.8445654,132.94514
1.8294709,135.81364
1.955733,137.97527
1.9845902,131.93245
2.0149028,133.99535
1.975906,137.49527
1.8912172,135.09
2.0372937,136.78441
1.8719629,135.98949
1.8899021,139.79993
1.9573194,138.35861
2.0189512,138.21909
1.8348128,137.62314
1.8498026,134.54222
1.8968227,133.99841
1.8116902,138.33159
1.7508105,135.78905
1.6868227,132.04164
1.80029,130.84642
1.6040206,132.02077
1.6035182,126.180115
1.6013336,132.58694
1.5901304,124.21106
1.5576763,129.29219
1.5448518,127.12288
1.5185856,124.00529
1.3936749,124.006775
1.4642925,127.7972
1.5330744,124.93203
1.4534352,119.27593
1.4753388,116.170494
1.4155583,113.50129
1.4447109,117.62916
1.4078056,115.611534
1.3862209,116.010216
1.3445221,112.65541
1.2973657,108.80424
1.2972527,110.49
1.2353224,109.48003
1.3349711,109.030075
1.205459,106.80625
1.1236053,103.89174
1.1455315,107.14757
1.0606107,103.19099
1.1387333,105.17024
0.97929066,95.771645
0.99237484,100.3625
0.9691394,97.00152
0.85244346,96.09113
0.840432,94.721275
0.845807,91.406334
0.82822967,90.28756
0.78280675,89.74799
0.88636804,87.30578
0.7918641,84.46634
0.77379936,87.26822
0.8627188,85.11982
0.68220794,87.08928
0.7944129,85.51447
0.8472054,83.41975
0.736867,81.53878
0.6971246,79.45176
0.7362555,76.54496
0.65063083,76.2272
0.7506705,76.49068
0.7334404,79.77801
0.5874202,79.9255
0.58755374,78.29909
0.46776593,80.62203
0.52095205,73.664856
0.4665081,80.57862
0.5013927,77.50418
0.39670807,74.17596
0.3498471,79.913635
0.37131262,77.49283
0.30840695,80.34349
0.36238322,83.14072
0.29849127,81.09324
0.36633575,86.75428
0.49988806,84.45897
0.43726593,86.874825
0.4398377,91.75074
0.487099,88.07102
0.66189367,96.55702
0.7212836,92.01862
0.8040487,93.97376
0.8700586,94.50863
0.8603385,102.268616
0.95521575,108.05884
1.0164213,104.87188
1.1648568,111.36149
1.209949,110.9249
1.2648888,113.17126
1.251873,117.5261
1.3194187,118.180046
1.4252245,121.49971
1.527541,123.01429
1.4534005,122.56384
1.6324803,123.71882
1.5975047,123.44878
1.6116488,130.60088
1.5899315,131.44695
1.6574919,127.19062
1.6446973,135.61354
1.6377445,132.45638
1.7462736,138.17938
1.6018869,137.18553
1.7366687,134.63696
1.6059428,141.87277
1.6472242,138.09657
1.5974873,133.90486
1.5638912,135.44786
1.6353123,136.21243
1.5764425,135.81616
1.479882,134.5996
1.465563,133.29048
1.5439452,137.86185
1.4753007,136.99333
1.4026461,136.53337
1.3967199,133.36877
1.3458261,133.35449
1.2395011,134.08618
1.3104162,132.68948
1.3116244,125.38744
1.1927116,128.64427
1.2724595,125.55621
1.1615483,128.65038
1.1537534,126.85578
1.2056372,124.135414
1.1426541,121.75582
1.1270292,122.33699
1.1419474,120.835365
1.13558,113.26435
1.0734029,117.72563
1.0962942,113.232735
0.98138803,113.98341
1.0367712,114.1226
0.9694669,109.16166
0.8801172,111.0282
0.9507646,106.745804
0.892125,107.947266
0.8449377,109.65539
0.8683907,112.28496
0.9022013,106.08195
0.81481177,104.03151
0.69030297,104.78669
0.66431,98.937164
0.61963737,98.24023
0.7586265,96.08252
0.48629752,94.56344
0.4232721,93.801765
0.4736312,92.305305
0.5289417,87.57729
0.53177696,90.97945
0.5047382,90.09242
0.41861153,88.37479
0.35198805,87.498215
0.5029479,84.479294
0.41663343,86.746124
0.43400976,82.93832
0.46659663,82.71821
0.3549818,81.91716
0.47551212,76.41239
0.43888727,83.111664
0.3160218,80.322556
0.32565078,84.125916
0.31144115,77.373116
0.35844013,79.52999
0.25794443,79.53592
0.2572738,74.86295
0.23661552,75.43783
0.082228005,74.723656
0.06299641,74.30663
0.086433165,75.16196
0.05095406,76.4244
0.01590277,80.619576
-0.039820593,81.251816
0.037114065,78.4678
0.08206539,79.02254
0.044171397,80.66203
0.065385856,85.80638
0.19596595,87.46421
0.12168975,87.77405
0.1758196,90.42601
0.22189355,91.07062
0.4209334,94.78594
0.461087,93.93449
0.5070968,93.72423
0.6867697,101.35627
0.5836232,103.474396
0.6646898,103.61768
0.8330754,108.20095
0.89627737,108.15709
1.062629,110.03139
0.9890942,114.061264
1.0570076,116.212906
1.1090549,120.17037
1.0796316,124.20238
1.0679487,117.84917
1.2629075,130.77216
1.2817597,126.11527
1.3131049,126.75947
1.291026,132.60934
1.3597883,128.76965
1.3647339,134.67374
1.4983749,134.34558
1.4605119,132.04156
1.3714105,133.79565
1.2672954,137.48021
1.3772103,136.21594
1.2768183,137.48547
1.3314544,132.79599
1.320665,135.48112
1.3341976,137.30566
1.2932345,137.02734
1.2988834,136.3797
1.2212117,134.9329
1.2026076,135.8598
1.1780571,134.86386
1.1524221,137.17503
1.1379008,134.1359
1.1326426,130.65988
1.0979224,129.60239
1.1853112,128.80055
1.0580649,131.72966
1.0731775,127.33767
0.9677228,125.13161
0.94186676,124.00252
1.0054324,120.575775
1.0053022,128.22462
0.92295086,118.227325
1.0145555,122.17252
0.92726314,116.68899
0.9075383,118.57643
0.83491355,120.232
0.80663145,114.11871
0.8764611,112.35916
0.83891344,116.202736
0.9200079,110.838486
0.80551755,111.12472
0.80436546,106.9395
0.74850947,104.68115
0.7794983,108.11659
0.7688146,103.951065
0.67949516,104.379814
0.5576555,103.000114
0.6139594,104.68467
0.567858,98.340805
0.47165918,98.634865
0.46743333,99.74743
0.47309744,96.106606
0.43321568,94.30062
0.4521675,93.84392
0.45133004,92.57587
0.3035296,89.45165
0.26045147,88.34271
0.37718543,88.62982
0.28860644,90.6217
0.30170313,87.29845
0.39917967,89.03343
0.29931828,85.79323
0.4235064,85.883415
0.40450323,78.04057
0.3988896,77.74698
0.41125113,79.26277
0.46131653,80.15219
0.41415146,75.57317
0.4083251,77.39465
0.2898575,76.36545
0.19435824,76.784706
0.14070271,75.58541
0.1654916,77.53099
0.18220307,78.510925
0.08913493,72.924545
0.05102409,79.76655
0.062345747,78.45011
0.016702002,79.07124
-0.0042577703,78.50204
-0.11885573,83.6337
-0.022502273,81.44355
0.008091252,84.05833
0.08627446,84.93872
0.061790675,79.922005
0.118046574,88.626564
0.26785314,88.377464
0.24663198,90.18082
0.29077613,94.884
0.5179361,97.97023
0.52510875,96.52551
0.5390848,100.56164
0.70454687,97.82196
0.7099209,105.065025
0.8560524,105.73245
0.8847706,107.62258
0.92938775,105.13272
1.0720522,115.03525
1.1257915,113.77344
1.1777072,125.02615
1.3576872,118.008224
1.2957755,117.691765
1.2695514,126.00343
1.4481694,127.20285
1.4763014,130.82083
1.4507853,133.47278
1.4208592,126.64564
1.509781,133.29338
1.4843904,135.30405
1.5290519,137.57509
1.4524328,132.17737
1.4895353,133.39304
1.4425076,138.81613
1.5720271,134.57382
1.5064253,139.90094
1.5661347,139.79428
1.5656852,144.20358
1.5154654,135.625
1.4613475,137.07593
1.419015,133.28595
1.4306264,140.21523
1.3320668,135.48122
1.3544009,132.48831
1.3881071,134.7854
1.1704901,129.57399
1.3141056,133.40042
1.2288425,126.53725
1.3122776,125.20053
1.2100387,133.6598
1.2081335,127.601036
1.2012372,128.55637
1.1693366,121.644226
1.2092931,118.64947
1.1840807,121.72556
1.1826898,119.49734
1.129253,118.40395
1.1771373,121.09905
1.0650576,116.70394
1.2405937,113.36565
1.135375,112.18883
1.048518,111.62439
1.0993906,111.715
1.1248751,112.76527
1.0678732,112.23506
1.0120536,108.059265
0.98970777,104.18255
1.0553318,100.311134
1.0762119,102.45904
0.94786453,104.822624
0.88183355,102.58197
0.90523386,98.06808
0.7802195,99.896095
0.74344826,94.12905
0.71881485,94.98667
0.68757385,98.11379
0.69522494,97.482925
0.7280825,94.57648
0.6823201,92.15494
0.5512118,87.69413
0.73747456,88.47572
0.66662997,91.48714
0.7095232,85.45008
0.6022554,82.49239
0.61864257,83.7011
0.7605846,84.90326
0.65566784,86.58898
0.56585115,84.28592
0.6776626,80.65099
0.676879,76.00366
0.59461874,78.34877
0.5807556,77.770966
0.4687248,80.24817
0.5705406,80.313324
0.45597628,74.250626
0.56159824,76.909325
0.39270708,77.903435
0.4540174,77.794785
0.3829734,80.50613
0.44622388,77.27883
0.39409733,79.15975
0.31281695,80.011734
0.34999278,80.29615
0.36235455,84.739685
0.41454038,83.720955
0.4083716,83.920494
0.45589948,89.457756
0.4801807,87.88184
0.4507038,91.04296
0.62523305,86.6838
0.64490944,95.260925
0.6782979,93.342125
0.85258764,97.44292
0.804199,94.63957
1.0230881,102.93259
1.035007,107.21104
1.1875577,104.71288
1.2670186,109.37698
1.2977052,109.384834
1.5005155,113.11022
1.4227507,114.86445
1.5025482,119.08533
1.6620593,118.89403
1.6573975,121.44684
1.7190716,123.0857
1.6915596,128.87343
1.7897366,126.07174
1.8395694,131.10654
1.8593158,133.7003
1.8790615,132.47762
1.873562,139.1489
1.9325877,136.05348
1.8289608,133.18561
1.883102,134.96713
1.7566673,137.60208
1.814358,138.34067
1.8236173,136.5236
1.8659363,138.51514
1.8661698,135.13818
1.9003928,141.393
1.8857048,138.27765
1.873553,139.39636
1.8294672,134.32529
1.6721808,134.62381
1.7588466,134.0104
1.6550618,130.98407
1.5711491,135.39331
1.693292,134.41364
1.6039573,133.3499
1.5204524,133.41252
1.6643169,129.10555
1.4286602,128.97325
1.532841,127.11418
1.5922463,124.47183
1.5205297,124.50795
1.4879113,126.289345
1.5406574,124.685745
1.4021205,116.81684
1.402715,121.76329
1.4697437,116.203224
1.5682641,118.03476
1.4958069,115.66816
1.5761691,110.37221
1.4715737,110.80513
1.4601402,114.83042
1.3101463,105.8951
1.3774307,108.39797
1.228578,107.582794
1.3218967,106.69578
1.2056223,103.108505
1.3111606,99.75783
1.1993921,101.90146
1.1733766,99.23344
1.0917695,100.471504
1.0975298,101.807785
1.0066752,95.2162
1.1017933,96.07982
1.0497146,96.12904
0.9437945,91.58594
0.889909,96.90696
1.0046299,90.6229
0.9373205,88.901215
0.92716897,91.49497
0.935241,88.07185
0.8778917,86.314255
0.88023496,84.17124
0.95101184,87.56642
0.8207592,83.56129
0.93151313,82.49663
0.8886638,80.726364
0.91148186,79.5413
0.8851847,75.72355
0.7586877,80.29887
0.77019346,78.19647
0.79897916,75.59855
0.8392764,79.82572
0.67864466,77.611015
0.6868243,76.67117
0.6950853,78.526146
0.7156314,79.95233
0.59131783,78.313095
0.6064636,77.61236
0.45183575,81.28847
0.56890565,75.889595
0.6160939,78.33676
0.621258,80.591515
0.51894706,84.210594
0.5072205,85.259254
0.6280118,83.249626
0.70217973,86.95185
0.8339792,87.31316
0.81593716,91.14309
0.8396807,92.4125
0.93710774,97.36989
1.0503864,102.306816
1.1594819,99.28138
1.22026,106.73537
1.1321378,104.65474
1.4018562,109.347694
1.3396286,111.71523
1.4524007,109.7464
1.5800076,115.65094
1.588468,116.12666
1.6790195,116.36309
1.7738181,121.743965
1.8362302,123.59959
1.8473699,125.80053
1.8139992,123.477806
1.8209858,127.227295
1.9337783,125.17541
1.9275941,129.23466
2.019621,131.06361
1.8810183,132.6139
1.9060904,132.05946
1.9825754,134.64804
1.9591969,134.0914
2.0018256,132.63315
2.0037515,138.4914
1.8382622,135.21672
2.021223,138.60887
1.8533425,137.97342
1.8176496,141.2463
1.7696701,135.78587
1.7894946,137.00188
1.7593702,132.71986
1.6964093,133.5138
1.7501092,133.1723
1.7397635,131.38428
1.6841493,131.32729
1.6597885,129.73195
1.6064152,131.20793
1.5492058,123.767914
1.5473881,126.24184
1.557483,123.78713
1.5158736,128.30139
1.4501988,130.43446
1.5001945,124.16354
1.452766,123.569
1.4567757,121.60762
1.4895633,118.013596
1.4120024,117.66245
1.4130646,115.396774
1.331671,115.77355
1.3533057,115.52492
1.3519977,115.59768
1.3270658,107.986015
1.3469036,108.545975
1.3052793,110.14607
1.2954888,108.227684
1.2042019,107.784
1.2186846,105.549644
1.136731,106.66929
1.0805955,102.01479
1.1060239,103.4071
1.0367738,101.690285
0.9880183,92.86985
0.9545485,96.669945
1.0643717,97.889694
0.96749455,95.10274
0.9308733,89.736755
0.90753484,91.14297
0.7588993,91.19571
0.9057302,92.09927
0.77682716,91.99549
0.7722354,85.809006
0.7835259,82.60487
0.77538186,86.53743
0.7689757,83.83489
0.74470013,85.70942
0.7542086,80.52707
0.6764114,80.40958
0.68611115,81.74967
0.7450449,81.23663
0.65465665,78.74959
0.6813742,79.751595
0.6525127,75.38412
0.5836291,78.66224
0.5919595,74.4101
0.51557183,74.17074
0.4073901,76.22835
0.38930652,76.668045
0.36305338,77.34926
0.41964614,84.58199
0.3141286,82.10191
0.3254815,78.16103
0.40777415,82.72241
0.2572964,79.91186
0.25481874,85.19907
0.33699247,87.25112
0.4344111,84.712265
0.3876457,87.8638
0.5021503,89.27137
0.5714792,94.80558
0.63668555,91.983734
0.733199,94.45136
0.7607569,102.26481
0.8423498,98.38864
0.8215477,99.67987
0.9781494,101.179535
1.06033,110.12045
1.090834,110.793915
1.2052953,110.301186
1.2429001,115.700096
1.251602,115.318985
1.4324704,117.48589
1.3431147,122.20418
1.4136217,120.574875
1.479767,125.21879
1.5490345,121.977715
1.5610479,129.62427
1.6260104,129.91524
1.5537827,134.69653
1.6579382,132.51466
1.652673,129.90948
1.6456305,135.97043
1.6597614,135.69572
1.615019,134.44711
1.6573043,142.29874
1.6273757,134.12152
1.6931766,135.49133
1.5034027,140.33617
1.5501884,142.4859
1.4594975,137.16176
1.4453294,138.52849
1.457481,135.80081
1.4574431,135.16982
1.4858556,132.73949
1.2926179,133.98352
1.318655,130.714
1.4089589,134.76512
1.287365,133.66653
1.2810833,133.73607
1.2675666,129.38235
1.1793145,130.43475
1.1765755,130.22617
1.1865823,127.602264
1.2656628,122.838875
1.1228997,125.15733
1.1836151,121.72019
1.1594373,115.587776
1.1209475,120.054634
1.1111449,117.69265
1.1084282,118.22427
0.9455142,119.40284
1.0703506,109.99573
0.9884785,118.75886
1.0358914,113.96329
1.0660678,109.573494
0.9504026,109.928154
0.9139753,107.0104
0.89211893,109.619736
0.8441085,104.632515
0.92677844,103.76175
0.7651588,100.99471
0.7986611,101.35177
0.7608857,99.0176
0.6667105,100.06787
0.62595063,101.374146
0.53748924,97.54026
0.43522853,94.437904
0.5279879,92.34686
0.54800975,94.923195
0.5448702,92.16478
0.44180378,90.7745
0.43132392,89.71534
0.5353547,91.74106
0.31898013,87.6321
0.44614422,83.79115
0.4728982,86.8551
0.30213276,79.48015
0.39218768,79.664856
0.43514842,82.61426
0.34985623,83.152336
0.3453192,82.490875
0.39945716,81.46368
0.2803265,78.06762
0.33306295,76.84765
0.31147176,76.0757
0.23937626,75.40551
0.2280579,75.283585
0.11970235,77.89434
0.10042629,74.75084
0.04591519,79.75384
-0.0059085838,75.86224
0.056002595,79.69896
-0.060212962,79.76371
-0.06871037,80.73856
0.022754565,82.37258
0.004031766,84.526306
0.027168911,84.335945
0.049833644,82.6082
0.09272644,90.77503
0.121236116,85.7716
0.19076641,89.12229
0.30990067,92.58484
0.32379064,91.30148
0.41615015,100.45122
0.4820122,103.174446
0.6024955,97.391136
0.62599564,106.1537
0.6978681,104.67139
0.86295563,111.85388
0.95455855,105.27277
0.9577789,110.73962
1.0726628,116.39535
1.1117588,117.63395
1.202256,126.06559
1.208339,123.90739
1.1661159,124.849724
1.3395295,122.90322
1.3392991,122.857155
1.3699493,121.24503
1.3412994,126.71375
1.3896731,131.53198
1.4028982,135.61751
1.3669859,134.31688
1.3650377,136.46544
1.3520074,133.94434
1.2938732,136.0438
1.3285496,137.98744
1.3559464,135.49902
1.443689,135.93225
1.3392481,134.86215
1.3493404,139.84866
1.3368737,139.94948
1.148261,139.75523
1.1600734,135.14655
1.2072891,134.63925
1.2136405,138.75345
1.113713,131.03343
1.048373,133.65822
1.1552346,136.47292
1.1949487,130.86511
1.0778135,124.84672
1.0303541,127.1946
0.9437865,128.88611
0.99102217,126.407555
0.9931318,126.69831
1.0030819,116.467064
0.90430164,124.956474
0.8817907,119.95929
1.0197406,121.613846
0.87277865,116.78656
0.94202286,121.044945
0.9187664,113.98295
0.8918589,114.293236
0.83652455,114.469025
0.75596184,112.38139
0.8866664,113.05076
0.85815936,108.10187
0.7648156,109.41887
0.7605596,105.95227
0.6972707,105.18982
0.697527,103.14716
0.6188995,103.932396
0.5384195,101.92151
0.58633196,99.27681
0.5694932,99.98538
0.43723664,95.83347
0.50506145,96.72048
0.40968615,95.85522
0.43842152,99.151085
0.41374546,93.10958
0.4187253,90.19125
0.34666318,92.83354
0.37781233,91.26867
0.39106002,89.5467
0.37603843,85.14576
0.38029087,89.14878
0.3799163,88.77587
0.39464113,81.410736
0.2660187,82.958305
0.3743749,81.33506
0.3337592,80.55227
0.32535756,78.71058
0.38956454,78.79739
0.21481593,77.86204
0.21343957,76.11499
0.27928075,71.7598
0.28988427,74.373245
0.264579,74.101814
0.18408468,80.10275
0.052793656,79.730865
0.12078406,79.71017
0.06953593,76.85773
0.09559548,78.17644
0.05325065,79.32472
0.0017005363,80.430664
0.04136053,80.46757
0.048839085,80.4082
0.08154442,81.40767
-0.031080602,84.69004
0.11869432,88.02053
0.17420344,91.07182
0.1720875,88.18076
0.27500036,91.66746
0.37645066,93.12232
0.436968,94.274956
0.5681671,98.11491
0.48212093,98.24209
0.6516656,106.338425
0.7082756,101.82425
0.97856045,108.85626
0.984474,108.75192
1.0527503,113.754074
1.0817342,116.798805
1.1174351,121.41821
1.2268264,120.8329
1.3459415,123.934296
1.2579376,123.12678
1.3975703,129.37595
1.4539704,124.32343
1.3908886,130.1229
1.4817197,130.10675
1.6100888,129.98734
1.4366925,130.93828
1.4924353,136.89134
1.634041,136.17598
1.647773,136.14102
1.5821939,132.4264
1.5049301,134.49004
1.5698,138.00204
1.5027459,136.64737
1.4756203,137.05302
1.6194634,133.81592
1.5137944,135.71275
1.4456779,135.74146
1.464511,138.34134
1.4717821,137.4349
1.4581441,136.70726
1.3559301,132.95659
1.26962,134.41469
1.2386004,132.24153
1.2830968,134.0292
1.3098956,135.35596
1.2736074,131.15625
1.1896864,128.84464
1.2701039,125.83529
1.1869557,124.053955
1.3236004,123.084496
1.2913717,119.50212
1.2094713,121.17184
1.195336,123.25829
1.144935,120.76713
1.2017405,117.096596
1.2473029,118.28308
1.2189312,113.02135
1.0897192,111.84248
1.1557643,110.21487
1.0286467,111.3297
1.0850567,106.656944
1.0497692,116.11938
1.0775265,107.3417
0.93714374,108.410675
1.0253197,106.86755
1.033541,100.61222
0.9591383,103.350624
0.79037064,102.674675
0.8804127,98.74635
0.8573744,103.38448
0.85756946,97.09412
0.7502286,95.86871
0.7512836,96.82285
0.65710926,91.71843
0.6851921,94.93342
0.74105924,92.29955
0.7541153,87.221695
0.6625889,88.54685
0.7245428,89.67475
0.72937447,85.09878
0.8143506,86.52523
0.74830633,79.396996
0.6658566,84.95549
0.69372016,81.059654
0.6676191,81.151054
0.6080871,79.319016
0.7021532,80.72477
0.62690175,79.58772
0.72811884,79.436905
0.62723255,76.13134
0.5803248,79.56688
0.47999772,81.485855
0.50960946,76.61889
0.46061704,80.54885
0.47302625,80.117256
0.5027877,74.15342
0.44064966,78.37628
0.32399312,79.405014
0.35076347,82.92534
0.42561805,83.15133
0.32080147,81.33547
0.403252,81.49567
0.33226115,81.75944
0.45322156,84.27817
0.47179374,87.518875
0.5436958,87.86201
0.6016503,90.1171
0.6804788,94.5857
0.76959926,94.656746
0.78956985,95.14736
0.9407253,100.39149
0.98226124,103.10483
1.0432898,103.618355
1.1875876,105.64209
1.3330812,112.13782
1.3676044,109.15677
1.4475849,114.11118
1.5619515,112.469
1.5332323,119.23845
1.675699,122.8861
1.6696166,122.35225
1.7473842,123.02873
1.6650587,126.63997
1.8666419,128.96634
1.8393668,132.47804
1.7624336,132.56163
1.8857192,132.32816
1.8339752,133.47408
1.9092684,134.28694
1.9850733,133.93723
1.9621562,136.95392
1.8608313,132.30127
1.9093434,134.74796
1.8904426,139.69102
1.8836857,132.26753
1.8706917,139.22491
1.8024585,136.77293
1.8445334,134.6712
1.7613646,138.10823
1.6951516,141.16136
1.7381915,133.05244
1.7137403,132.36983
1.6506379,136.46341
1.6872247,130.64258
1.5666473,127.93414
1.6085546,130.60948
1.5056608,131.11232
1.6822593,128.9014
1.4662867,125.39144
1.582135,129.87717
1.5059843,125.81531
1.5872657,123.548225
1.553356,121.001434
1.5228903,119.56684
1.4341452,121.20588
1.5541215,119.57774
1.4060135,120.64856
1.438445,113.87429
1.4721109,115.88288
1.537183,112.586784
1.3751894,113.655106
1.4247733,111.37264
1.3772695,109.53431
1.4033041,109.391884
1.3648589,103.04208
1.3832624,103.329
1.2877342,104.30773
1.2465757,107.1249
1.2172838,101.44527
1.2000636,103.98328
1.038552,102.233894
1.0265326,98.5897
1.069637,100.45097
1.0226066,92.65724
1.0635352,99.06178
0.98234457,100.50103
0.9688532,89.494385
0.95869446,91.06436
0.9192626,90.96494
1.0436604,90.734695
0.87012637,85.62452
0.8566864,85.74323
1.0473244,84.87573
0.88166094,85.91988
0.9115772,83.332375
0.84813046,85.49756
0.9672258,80.58276
0.88154626,79.881165
0.8971162,79.37667
0.7879071,80.93984
0.74906045,76.876884
0.81483114,76.812775
0.8137555,76.27464
0.80202794,74.30812
0.6619069,71.809784
0.67879635,78.18245
0.6816495,78.37141
0.6584377,74.46932
0.54166055,73.48502
0.62042505,78.101395
0.6253845,79.60792
0.644041,80.332794
0.5838676,81.183304
0.62418914,84.01266
0.66434807,82.35702
0.6347947,84.485245
0.69060427,88.19914
0.69712967,87.8958
0.8720852,89.45002
0.86732537,94.43537
0.95770895,95.105095
1.0475712,101.871
1.0811841,100.206406
1.2717822,104.58601
1.2747777,103.355156
1.3419758,104.8154
1.3622359,108.07003
1.531297,112.41485
1.5733538,117.02873
1.7212713,114.46415
1.6283985,119.73343
1.7469563,114.95217
1.7033881,123.359184
1.8381754,124.61947
1.892578,122.94304
1.7836889,127.45213
1.897594,127.10798
1.9008774,129.5327
1.9398007,132.90828
1.9771224,131.81393
1.9537654,137.39204
1.9710586,136.62646
1.9201001,138.3446
1.9465401,138.83334
1.8846562,135.31241
1.9614258,136.7119
1.8891292,142.19017
1.8970912,137.69583
1.857953,136.63277
1.9349115,139.59444
1.8468117,135.29704
1.752378,139.15651
1.7231041,129.67438
1.7420315,133.81023
1.6723638,127.804245
1.4818715,127.36348
1.5894537,131.37148
1.6038345,131.39464
1.5307701,125.26988
1.5364592,130.30975
1.433378,125.19616
1.374243,125.72077
1.5450587,127.06616
1.4776448,123.05645
1.3528562,119.35375
1.4445516,118.48056
1.3596612,119.790825
1.3531398,116.352516
1.3435757,116.29573
1.3515038,113.34801
1.3104436,115.46793
1.4101706,112.277794
1.3768711,109.70272
1.2965823,108.52179
1.3001087,105.07915
1.3041015,108.688194
1.116736,108.63896
1.1104215,106.57579
1.1102558,103.51168
1.0704842,103.735466
1.0320618,102.20362
1.02276,97.19412
0.9396932,98.60592
0.8988657,97.214134
0.97480327,96.48959
0.87236106,96.61706
0.77595615,97.240715
0.8169497,89.591125
0.70283353,93.454765
0.8043544,92.606926
0.7385016,90.70187
0.80038524,87.53064
0.7714235,89.822945
0.71682566,84.24604
0.7277604,87.440994
0.65388286,86.2775
0.6980261,82.39688
0.69092625,81.431076
0.6873459,78.52485
0.7454874,81.07984
0.5547923,82.00402
0.69677967,75.69091
0.6543216,77.86256
0.56322986,78.14326
0.5540842,76.83668
0.39923602,74.666176
0.4492961,77.471115
0.47903287,76.94149
0.4168457,76.63238
0.3751655,80.74127
0.2564832,82.46831
0.23653416,78.1377
0.23265979,81.33556
0.33556518,79.61978
0.38115075,79.954765
0.31224096,86.39583
0.39619276,91.44478
0.45518753,84.0052
0.41776735,90.52723
0.47709465,93.771645
0.5550048,94.47268
0.5670647,93.6174
0.71868473,99.066635
0.8166993,98.8923
0.9206738,101.51599
0.8755085,106.13767
1.0497402,105.31875
1.0870852,106.11134
1.1518131,109.293045
1.3108325,114.29634
1.3512259,121.36869
1.4284369,118.13895
1.4688427,117.55926
1.4363514,121.60001
1.5762315,121.38879
1.5305833,127.64241
1.6188604,128.28674
1.6116668,129.2651
1.5334983,129.9498
1.7258371,130.49937
1.5528902,133.48378
1.555963,137.31151
1.5736688,135.2036
1.6601207,139.59003
1.6562458,135.26505
1.5890851,139.48778
1.5946323,134.25511
1.4465872,143.31026
1.668666,134.66415
1.5154812,136.61583
1.54332,134.33311
1.4637163,137.77356
1.3615054,135.58147
1.4179957,135.6478
1.3991764,136.38832
1.3052766,136.13687
1.1939292,130.5085
1.3550645,131.06015
1.2574043,131.90527
1.2775375,123.72311
1.2105584,124.134186
1.1915059,123.20712
1.1494604,125.10615
1.1009299,124.753426
1.0589981,121.51224
1.1506201,122.78771
1.1233442,122.4631
1.0252705,117.59468
0.98586524,117.1818
0.9846178,117.34244
1.1236329,114.96811
1.0224565,113.96502
1.0286635,113.82521
1.0065095,111.37456
0.9051511,110.49522
0.8743691,110.110916
0.9803504,110.08735
0.9719386,109.63035
0.8064525,105.377846
0.7658763,106.709335
0.72841746,105.928925
0.7293184,101.567795
0.63239604,98.65733
0.58067214,98.18357
0.60656774,96.99545
0.5623768,95.786644
0.4641952,96.69478
0.5748902,94.54194
0.4736372,91.111465
0.4120228,93.34212
0.37433293,90.53513
0.4827362,90.92728
0.4765819,86.678
0.4661616,83.05186
0.35506234,86.3653
0.32584906,83.3261
0.41844553,85.451256
0.46744615,79.791374
0.32654437,80.22373
0.31589517,79.15555
0.32899863,77.09337
0.34196714,79.3722
0.26462048,73.85274
0.1920047,75.377
0.17412058,75.83987
0.21482071,73.89532
0.23654392,77.65768
0.16999649,77.31421
0.24974583,78.89163
0.023452874,81.56668
0.05742509,74.93828
-0.010951163,76.135
-0.0162473,79.25208
0.010311247,78.93381
0.057894964,79.961
0.01367849,83.071594
0.005320154,85.48062
-0.013987153,85.37418
0.22480842,89.121216
0.10714508,89.50383
0.23951493,92.85225
0.26739436,92.58695
0.34223658,92.87002
0.5237742,105.29276
0.4707433,101.77148
0.5837428,103.83976
0.6446957,104.84359
0.85804725,106.76877
0.8481823,108.79236
0.8776397,109.51661
1.0522318,110.45664
1.1229709,112.312706
1.0579735,118.782036
1.0985565,123.55481
1.1693174,118.90504
1.2142274,125.36343
1.242457,121.83804
1.2847106,126.48031
1.3256927,133.90736
1.3581781,130.35109
1.3375064,131.56847
1.341521,135.74907
1.3177277,131.55695
1.3265934,134.57315
1.4108571,137.71179
1.3556889,140.2414
1.3950064,142.4115
1.2534735,137.2658
1.4062709,137.1879
1.3758769,135.08795
1.2732214,141.40675
1.310786,135.78181
1.1903001,137.53403
1.2522175,137.88489
1.3347447,138.11896
1.2294407,135.558
1.1983892,134.53787
1.1360292,133.5435
1.152917,134.37735
1.1097938,134.5028
1.1496279,132.28369
1.0659405,127.84504
1.0369098,129.77707
0.969922,126.43188
1.0042132,126.80709
0.9513636,123.5452
0.97965693,122.600815
1.0123783,123.87563
0.98390466,118.79169
0.93549085,118.120964
0.76407754,120.095406
0.8606881,111.0107
0.79010785,115.702644
0.87058693,115.40198
0.8888885,114.49125
0.9345559,110.43924
0.8211566,111.892105
0.82163817,105.61974
0.7732192,109.32273
0.82948935,109.334946
0.6337782,99.31562
0.59778684,99.850555
0.6669613,103.859985
0.5846471,100.286255
0.55935323,101.485825
0.5062179,95.95135
0.39474994,98.87085
0.435207,98.24977
0.46612838,89.415634
0.47235265,94.35587
0.39738208,91.38537
0.41518602,89.81604
0.3295723,91.17808
0.30988505,84.54438
0.41636,84.502426
0.3893693,85.92438
0.40521336,85.83096
0.42554116,85.27161
0.36605987,80.4857
0.3848331,83.44327
0.35563654,85.425446
0.24030554,79.31506
0.34047455,81.24957
0.34238794,76.42527
0.25907302,76.110664
0.21957096,74.72802
0.1319027,77.25099
0.17291725,78.317986
0.1860484,76.77427
0.13042334,75.692154
0.030821506,74.84691
0.122342244,77.2191
0.059827566,75.663666
0.104749955,76.14357
0.027719697,77.82496
0.046482682,77.86943
0.0609928,79.31915
0.047055867,87.62664
0.08299563,82.38438
0.13185082,83.1855
0.16938806,83.12445
0.21110079,88.9959
0.2762052,92.64792
0.37862116,94.12695
0.5030081,95.63421
0.5816092,97.58239
0.6662987,105.34549
0.7235579,102.129395
0.91663074,108.18276
0.76613325,107.56853
0.9699851,108.347244
1.1167511,115.21755
1.0945896,120.68923
1.10659,119.11926
1.2362742,122.11708
1.2842318,119.538246
1.3592246,122.11348
1.45728,123.97438
1.3916737,126.652695
1.48194,124.79306
1.5585505,132.80862
1.5549884,133.89763
1.4551682,132.85593
1.5816364,131.14641
1.5849544,133.93466
1.5564266,136.90681
1.4967709,132.04318
1.6399697,138.7075
1.4262543,136.17014
1.5922675,134.62279
1.4221145,137.93823
1.5934435,139.15063
1.4843798,139.07022
1.4518521,133.74342
1.5138382,136.2485
1.4170178,138.4627
1.4407414,138.4353
1.4069264,133.39732
1.3976948,131.68022
1.2816788,134.04538
1.3157114,130.69865
1.2725434,128.84196
1.2761364,132.44437
1.2696966,131.01184
1.196449,124.49948
1.3345747,125.78213
1.2361293,118.89746
1.252973,125.00368
1.1582669,121.50441
1.2236633,121.24228
1.1683825,121.79689
1.1699938,120.952126
1.1340806,117.47014
1.1512716,113.36972
1.1381645,115.87066
1.1023906,112.751686
1.1499466,116.28028
1.1372968,115.4308
1.0863632,111.07271
1.0539873,106.40165
1.0643883,107.95057
0.9754885,104.73369
0.9880579,103.33986
0.896551,103.54161
0.8727126,101.036514
0.85072356,100.71696
0.8294089,97.24285
0.7596263,100.67373
0.82427865,97.91678
0.66448724,97.75953
0.66260505,93.816505
0.75533885,90.21955
0.7442936,93.99524
0.64481795,86.68977
0.63503784,89.36187
0.6784716,88.44788
0.7286893,86.06046
0.7071615,86.18134
0.74005747,85.71406
0.7732576,82.39165
0.68599766,78.090866
0.6617852,81.9968
0.71884686,80.31202
0.76246536,77.97529
0.7205349,80.78606
0.6328298,78.734566
0.50884604,77.13979
0.6386527,80.27491
0.55784464,77.13306
0.5561752,79.92793
0.4746551,76.29862
0.4390197,82.33646
0.43520027,76.44005
0.39096805,75.776405
0.2841375,79.481926
0.36805058,77.3405
0.3073708,80.40376
0.43762594,82.172966
0.43968928,86.871445
0.38411412,85.901474
0.51156914,86.66081
0.564444,85.45085
0.5501324,86.88303
0.660023,90.26725
0.7152179,94.65634
0.8256036,97.614105
0.8796552,96.50993
1.0599005,102.98524
1.1517175,101.12591
1.2169976,104.75057
1.2461816,105.67034
1.3323098,110.59318
1.3907536,110.83355
1.3923663,117.0321
1.54,114.70628
1.4920973,114.590965
1.6243279,121.17742
1.6817938,119.9093
1.731666,125.10482
1.7857248,122.671165
1.8580446,130.75432
1.8044955,129.11172
1.8139833,132.58908
1.8950338,132.53569
1.8473228,130.24442
1.9840106,134.55098
1.8861221,137.75438
1.8891886,135.3293
1.8683279,133.32343
1.8721384,138.2614
1.8560777,135.86552
1.8534119,135.70346
1.9025885,139.56097
1.9421788,137.96333
1.8228983,137.5284
1.8340034,141.45142
1.7989296,135.80086
1.7912009,134.44002
1.7210715,135.84218
1.8027772,133.58765
1.6582854,135.64925
1.627328,126.70346
1.6835053,134.97156
1.6576029,125.94341
1.6285943,130.21158
1.4938625,126.40724
1.477278,120.514725
1.4663424,126.57638
1.5267242,123.05373
1.4900272,124.46502
1.5048579,118.75162
1.4835165,117.46278
1.4721688,124.36934
1.4870267,116.84806
1.4705079,118.28062
1.5067377,113.820305
1.4440866,116.52126
1.4558048,113.0855
1.3666838,106.63473
1.384293,113.39945
1.4053763,109.418564
1.2363269,109.70213
1.3696189,105.459175
1.2635177,103.80772
1.21074,105.988815
1.1844685,104.869484
1.1566768,101.6483
1.1354119,96.30942
1.0379336,95.2115
1.0063202,96.61741
1.0033762,97.33209
1.0223532,94.13026
0.92304415,95.9201
1.0370885,87.547325
0.835541,87.3569
0.9641954,91.292564
0.8823226,93.09043
0.83001983,87.46124
0.8709822,83.75784
0.9554351,84.013115
0.9211238,88.12608
0.9168898,82.838745
0.8362474,81.34735
0.9074401,81.33824
0.8848259,80.30831
0.8800592,75.287544
0.88963854,74.98536
0.81699777,79.65066
0.82856315,78.84502
0.7907322,76.1018
0.78900516,78.69225
0.6526537,78.163795
0.6513924,78.943474
0.6631374,80.25542
0.52624166,79.4903
0.62548697,78.990036
0.6566422,81.084236
0.4352363,81.20263
0.5967076,79.75378
0.50794595,82.036415
0.45707318,84.179276
0.6091316,88.28006
0.557751,86.64972
0.70197374,91.56189
0.70995307,89.95993
0.71675867,94.127914
0.8595188,94.88516
0.89842474,93.708984
1.1326679,100.5687
1.1915135,98.73507
1.2162284,102.41615
1.2804563,103.697205
1.4573001,110.73895
1.4170728,109.070984
1.5192223,113.89502
1.5833708,115.88913
1.6598426,115.76275
1.7204762,116.5749
1.7032524,122.590416
1.8788534,121.690865
1.8175386,125.68751
1.8811297,129.20602
1.8175303,132.26428
1.805281,132.0186
1.8254701,130.5733
1.9170009,133.72801
1.8493801,132.09093
1.9208392,135.86922
1.965803,136.93045
1.8871862,139.22942
1.8707504,137.7189
1.9100807,136.58595
1.9033171,137.55418
1.84224,138.39151
1.8653097,138.2694
1.8340038,137.40059
1.7844088,138.10413
1.7936684,132.18916
1.7853005,137.77211
1.6779315,139.30104
1.6969362,137.17046
1.693299,134.56194
1.5504026,134.2317
1.6814246,130.47066
1.6273185,131.28455
1.4782336,132.6541
1.4969096,128.33109
1.4902058,126.7078
1.4340056,125.87954
1.3972408,125.89703
1.5234874,121.7437
1.3197674,128.27727
1.4377973,119.5492
1.4045138,115.397736
1.4217478,121.79011
1.4217005,117.837524
1.2780793,114.34192
1.2754923,110.697525
1.306924,111.23248
1.3654062,108.14315
1.2091857,111.05906
1.3440053,103.90031
1.222419,105.85246
1.2471961,106.05024
1.1677332,103.60628
1.0831196,106.19868
0.96760726,102.76845
0.9999501,104.93539
0.98511946,93.65593
0.83220184,97.45305
0.8808185,99.84762
0.82618135,93.565475
0.7483006,98.33576
0.7933432,92.324875
0.834537,90.52272
0.85096806,92.04957
0.7407185,93.64301
0.7332199,89.97617
0.74443316,85.70052
0.7091714,90.73439
0.8223466,85.23384
0.6820184,88.47358
0.7256087,82.70467
0.71701944,83.23365
0.64311177,80.86145
0.7023072,82.53331
0.58828014,79.430374
0.57671744,81.83738
0.5138865,76.67605
0.5102759,72.861595
0.55472827,76.027855
0.4053399,75.78084
0.41944402,78.30768
0.33586356,79.888626
0.36321032,75.35158
0.23791705,78.08917
0.32540852,79.97765
0.23804738,79.95975
0.24828322,79.38596
0.28319964,83.578896
0.25456512,76.816795
0.2159499,82.542656
0.29821965,86.490654
0.4630153,84.05357
0.35953644,89.392944
0.40191895,90.56885
0.45426825,87.82635
0.6365185,94.345505
0.57496357,93.77844
0.71105856,97.54498
0.74504656,101.845406
0.91082096,103.05069
0.9862832,102.99074
0.9952788,107.296104
1.1185281,111.26152
1.2021706,113.16678
1.286897,117.873665
1.3305556,118.18951
1.375046,120.183205
1.5141723,118.89161
1.4348223,119.96396
1.4833858,126.13269
1.4933327,120.7417
1.5373067,129.2378
1.6318645,128.46278
1.627396,127.29806
1.6378338,133.20792
1.6871215,132.43605
1.5736705,132.70676
1.5463991,136.51505
1.5175475,135.19133
1.595802,134.57513
1.5812553,137.36595
1.544456,134.45694
1.5252631,135.47969
1.5445627,138.14574
1.449871,139.33836
1.396638,133.3204
1.4763396,135.95116
1.3984486,130.3715
1.3223612,135.27495
1.3521168,134.25917
1.3664865,133.99034
1.3262639,133.22903
1.3161412,131.0573
1.245066,131.53685
1.19469,127.869804
1.2151133,131.44223
1.1253188,127.239944
1.0332594,127.17736
1.1325678,124.70765
1.0676328,123.25322
1.0703942,121.94495
1.1131094,123.48732
1.0174326,122.5972
1.0575784,120.973946
1.0507298,114.82418
1.0248468,117.17031
0.9273561,110.87973
0.9946948,111.323105
0.9259258,114.915726
0.922212,107.11875
0.7981087,110.405914
0.86358863,109.04434
0.7237525,106.77209
0.85919,106.13987
0.8556141,100.878
0.7125023,100.9724
0.7237191,106.06027
0.7215361,101.7289
0.56491065,102.595406
0.61228096,102.233055
0.5126827,95.377
0.47234422,94.48644
0.4557404,91.14977
0.41716906,89.46763
0.38664472,88.466644
0.39977485,88.101105
0.3974481,91.11325
0.37496072,86.68164
0.37570113,86.56236
0.33088034,86.516624
0.44330135,87.62399
0.3364519,84.04989
0.44624975,82.51181
0.37095782,81.24803
0.4619991,78.491585
0.33534172,76.28331
0.33528686,78.445755
0.38193405,78.82088
0.19823001,77.3356
0.20941134,76.96184
0.056841947,79.5314
0.20766447,75.33733
0.17134753,80.4906
0.10247745,82.775894
-0.04104169,80.15458
0.06762105,74.40841
-0.009559755,77.344185
0.026550006,82.72318
0.008526013,77.36411
-0.046849545,81.09263
-0.05750917,83.60633
-0.07867192,88.58627
0.04573571,91.16195
0.052387964,84.05613
0.20313422,88.55727
0.16340443,89.314316
0.23487782,93.515396
0.40074703,98.59946
0.36642528,93.52492
0.45907468,100.02151
0.5605008,101.77318
0.6662404,102.29271
0.74460655,109.09026
0.81495595,107.726425
0.9167097,110.61711
0.9752458,111.933205
0.9710906,116.092674
1.0236908,118.26785
1.1410835,121.95155
1.242257,121.76141
1.2095029,122.06292
1.28875,129.6967
1.3785144,129.00584
1.2292174,128.95236
1.3359182,134.33218
1.4480805,137.01704
1.3859311,138.17348
1.4207639,138.8968
1.4233586,139.02176
1.3448719,137.35048
1.3538885,142.54437
1.3090605,135.50624
1.3420053,136.92165
1.3449361,138.63246
1.3491039,138.94327
1.2829707,137.40916
1.2736753,133.96413
1.2613521,139.24167
1.2303773,134.08273
1.2342925,138.46933
1.18856,136.49338
1.2027191,132.0921
1.1871771,134.63376
1.1375809,129.90085
0.98214453,131.2545
1.0438231,127.57969
0.95220953,128.2821
1.0313045,126.82183
0.9033259,124.94718
0.9880746,124.91819
0.8932449,123.064064
0.95429593,121.05799
1.0464652,118.50971
0.7836579,119.454666
0.9389691,120.688255
0.9410763,115.792404
0.9201803,116.19546
0.8354412,114.88006
0.88764715,116.14243
0.8727629,109.86669
0.82922536,112.00484
0.86686236,107.332954
0.7972775,113.4214
0.8119621,107.56114
0.71303,108.783516
0.7528514,105.44157
0.7022204,103.265526
0.7258356,103.84224
0.51857096,99.983
0.5327609,102.93485
0.5408016,95.55904
0.4400232,94.49021
0.52324724,96.336494
0.43651602,95.12164
0.35391077,91.42992
0.32443643,91.238365
0.46327126,90.8658
0.3408405,88.25128
0.4198552,87.79425
0.41253713,90.379425
0.42465222,81.11634
0.30095544,83.317215
0.3018318,85.40602
0.38070798,79.34559
0.42244807,86.49529
0.3629532,84.13724
0.28009412,80.32569
0.381837,82.240814
0.3171059,81.12197
0.25169036,77.53611
0.35525194,78.94523
0.22985275,77.14803
0.29267853,76.343506
0.082828775,78.65619
0.16949053,81.178795
0.14248918,73.93073
0.022372466,75.99826
0.06716705,77.49846
-0.01856862,80.30177
0.12922028,83.28342
0.08798445,79.948
0.11758191,86.332016
0.07915549,87.52438
0.06502795,86.55718
0.23430263,83.37653
0.25409424,87.182304
0.22326967,89.2201
0.42060143,90.89466
0.46381837,95.94668
0.5188781,97.719765
0.64554274,100.94853
0.66125906,100.79813
0.83032835,104.49243
0.89214635,107.43766
0.9862756,107.19871
0.9639284,109.92755
1.1155422,116.31856
1.1996365,113.8761
1.1239016,119.23567
1.2511734,119.9489
1.3242085,120.44313
1.3437645,125.7343
1.5068296,125.33976
1.5369811,126.99483
1.4958004,131.31535
1.4582318,129.7774
1.4426713,131.92192
1.6639403,134.10242
1.5129288,133.91992
1.5493561,137.70937
1.5350275,134.89229
1.5605046,136.88315
1.5912923,136.92679
1.5433308,132.24852
1.5590057,139.81136
1.5209273,139.37025
1.6001431,137.57584
1.5103542,139.85443
1.4638807,137.56236
1.4109564,138.64964
1.5899701,132.92053
1.494149,132.4573
1.3359183,135.07278
1.3368872,129.95207
1.3321508,127.58655
1.3574449,131.57834
1.3561109,128.13322
1.3053458,124.91594
1.2204907,127.91933
1.2963662,126.66128
1.3402299,125.93246
1.2149173,123.60708
1.2749698,119.41324
1.1745081,120.47976
1.1946095,119.67103
1.1492112,117.78647
1.2589915,118.92428
1.1750743,117.19427
1.2523911,117.19335
1.1849774,112.65372
1.1650803,114.97456
1.1525979,109.26986
1.1181521,108.08658
1.1482824,107.869865
1.0673171,102.06838
1.0462662,106.86983
1.0639675,104.78729
1.0452906,99.31969
0.9812042,101.216736
0.8533423,102.70814
0.9288094,102.15402
0.89997345,100.96376
0.8404563,100.027725
0.83153427,98.45327
0.77939373,89.85709
0.73188496,92.464874
0.7456932,90.21901
0.70935667,89.65742
0.769628,90.24362
0.8005533,92.32463
0.7964815,89.063705
0.6476192,81.621025
0.7433049,81.78393
0.7855897,85.49954
0.7783918,80.951004
0.7909213,80.152664
0.67584914,76.321915
0.6654714,76.79212
0.6523969,77.51716
0.75224614,79.426605
0.5798756,77.07619
0.62192875,77.49598
0.5760701,74.94405
0.6218744,83.50195
0.5718898,78.42849
0.45541668,77.27466
0.52581966,77.501396
0.47197178,74.921036
0.50677425,77.78491
0.3846941,79.12563
0.3790277,80.629135
0.34185928,74.99757
0.4379785,81.16242
0.516378,86.28445
0.46734962,83.1433
0.48403564,81.38534
0.5990248,88.89869
0.5331029,92.3213
0.6522367,94.70248
0.73348916,94.42867
0.9147939,98.15293
0.9871832,100.84044
1.0212235,98.59011
1.1250049,101.04131
1.1528605,104.97149
1.2693194,108.74214
1.2943223,108.56239
1.4369079,111.88929
1.5101285,115.955734
1.5764253,115.32123
1.6835126,121.09334
1.6986126,120.60147
1.7467611,120.43685
1.8700311,126.47832
1.7197126,122.59647
1.8036695,128.19487
1.8241631,133.83524
1.8025124,130.4299
1.8855811,131.01494
1.9174048,136.16483
1.9852338,132.95041
1.9072219,133.13667
1.8294678,133.59697
1.9031827,136.70372
1.9167978,138.77745
1.8750012,134.31883
1.9928504,140.66347
1.9160825,135.27324
1.8434929,134.27159
1.8466711,135.41463
1.7927604,137.44348
1.8330139,135.48854
1.7870537,132.79147
1.7594864,131.23512
1.7452447,133.1704
1.6044923,135.74548
1.6745523,132.00894
1.6357291,130.01985
1.5829097,131.40457
1.5547495,126.02744
1.5938592,125.44628
1.61978,121.7954
1.4764434,123.07204
1.4401249,122.2499
1.4634947,123.81876
1.4735851,121.71045
1.5488373,117.32447
1.4948663,118.64877
1.5270853,117.41747
1.4262588,114.773506
1.4027272,110.70523
1.4252255,114.29681
1.4042722,111.4424
1.4033892,108.41785
1.4432073,107.282196
1.262631,108.11292
1.2977148,105.16676
1.2688656,102.560555
1.2308822,98.99515
1.1435319,106.69519
1.1629888,103.88882
1.1535975,101.169655
1.1095451,96.93535
1.0864326,95.679375
1.0399376,97.74911
0.9623666,93.45144
1.069643,95.036194
0.97694033,89.81119
0.9955652,91.11241
0.9037656,91.88676
0.9177614,88.35132
0.87118673,90.59189
0.94277185,88.722176
0.96219903,84.325005
0.94030863,82.79553
0.9484122,86.98767
0.9124538,77.24053
0.8618975,81.18887
0.84367913,80.8191
0.90892667,80.86574
0.87852395,77.92048
0.8934088,79.22011
0.83460283,78.749535
0.762321,74.08303
0.71764636,74.783035
0.7023634,76.25919
0.7131636,74.54359
0.60602325,76.07738
0.63174856,78.42508
0.6236298,81.098015
0.5464022,78.435165
0.49478662,81.548
0.5677231,82.372444
0.51959145,83.06602
0.5547432,78.32886
0.58586067,84.866234
0.5712886,86.487724
0.60549104,82.92907
0.6707928,86.46138
0.7582672,90.35574
0.8433869,94.28959
0.8838104,93.7423
0.99323714,93.41842
1.1257304,101.45813
1.0967288,103.81056
1.2511777,105.89267
1.3038595,110.24303
1.4706584,112.16028
1.4464476,114.49321
1.4431505,113.52929
1.454557,113.20577
1.5977255,118.45842
1.8190464,121.77618
1.7440864,124.4672
1.8152401,129.34912
1.8862536,123.41554
1.8984171,126.74628
1.8814497,131.09308
1.8320805,131.02518
1.8419045,130.05542
1.8403063,134.527
1.9152151,133.80287
1.8525712,133.30298
1.8816649,133.12604
1.9334133,138.66837
1.8513993,135.88208
1.798154,136.42027
1.8932793,137.18513
1.7342614,144.90314
1.8130568,135.60098
1.8742641,134.53949
1.8093412,136.53078
1.7846966,135.34393
1.68379,137.02455
1.659725,134.73701
1.6891687,133.62341
1.5873871,132.7001
1.5647857,133.26212
1.5813067,131.42627
1.4752363,126.251434
1.4555593,127.78537
1.4855056,127.24526
1.4783524,127.397125
1.445237,124.85004
1.4329505,123.6754
1.3919997,121.68926
1.320578,123.52646
1.3743716,120.74994
1.4752822,119.83443
1.3246377,113.39759
1.4222468,113.69185
1.3172773,110.83528
1.2901436,113.67224
1.3282107,112.26913
1.2951024,111.672485
1.2059461,110.87342
1.3153358,106.75269
1.2006595,103.18326
1.1319392,106.72649
1.1123154,108.23795
1.0930196,105.07347
0.9740552,98.754166
0.9461864,99.49463
0.93027514,96.28042
0.942399,100.074974
0.7556678,96.25604
0.7891333,92.71808
0.86873907,98.1012
0.81088287,93.96252
0.8654663,95.90293
0.75670236,97.19074
0.6857278,89.72659
0.6311435,89.73437
0.7163841,85.35927
0.6924161,84.051186
0.6917809,85.38192
0.68417776,82.51006
0.6573504,79.82701
0.66662765,76.665375
0.74790835,81.65154
0.5744435,82.57278
0.585338,84.76755
0.6447007,76.54966
0.5521782,85.11628
0.5890733,78.01667
0.5125168,78.2563
0.4892862,77.7663
0.45551953,76.70717
0.37734416,76.43145
0.47167295,80.28934
0.366797,81.639946
0.29902172,79.09311
0.20591724,77.341156
0.30082485,76.653015
0.19240537,80.485504
0.26539287,79.69982
0.23557885,87.00311
0.22268024,88.685875
0.36565837,90.738625
0.34120837,86.722626
0.4570313,94.84508
0.5098093,93.79104
0.6090033,97.77183
0.63141567,93.839005
0.65335906,101.256775
0.82746434,100.79559
0.8518651,104.30833
0.9818104,106.9496
1.0243114,104.19862
1.134232,112.51584
1.181856,114.13626
1.1679637,111.92027
1.4101832,114.289566
1.3919352,123.81387
1.4847962,117.62714
1.3673139,120.23201
1.4678231,127.97681
1.4130576,129.97571
1.517483,129.8504
1.4715241,134.09047
1.514191,134.67166
1.5354671,135.76392
1.4379284,134.01245
1.5815947,135.4101
1.606534,133.22954
1.5469519,138.06079
1.5200235,139.46376
1.483049,137.54855
1.486811,137.87889
1.5200533,138.37979
1.4031944,138.36623
1.4565524,139.72586
1.4792627,137.27496
1.394986,131.04233
1.4146615,135.28444
1.3468901,136.8304
1.258369,131.21153
1.2597171,136.12167
1.2664654,133.95769
1.2188019,133.83145
1.1804152,126.288795
1.1587464,126.059586
1.1521369,125.93208
1.0193566,125.626076
1.1362609,124.66452
1.0923988,122.27926
1.1178755,119.455414
1.0091444,118.90172
1.0289122,117.22471
1.0080067,122.39976
1.0213852,115.65715
0.92437536,115.61395
0.9528824,113.11874
0.98404944,111.19511
0.978682,117.009605
0.9758747,110.81057
0.94944614,110.508736
0.8958897,110.566666
0.79229474,103.070244
0.824117,108.222015
0.8511235,106.17325
0.7565418,102.15749
0.748311,101.2497
0.6818282,101.71896
0.5099685,98.15388
0.5387056,97.93312
0.6678591,96.17668
0.43318012,92.95108
0.5976617,96.6627
0.43816754,94.321266
0.39802334,90.28969
0.4096313,94.39626
0.41165656,93.95693
0.378493,89.12659
0.40460068,89.86117
0.35611036,89.5111
0.34959587,85.24314
0.3738483,84.923645
0.37624907,83.250114
0.2731744,84.51935
0.40352455,80.53565
0.26653555,81.9082
0.24600329,77.13037
0.31572375,79.80661
0.33769307,78.6924
0.26334614,73.17234
0.21006255,76.73287
0.20496091,79.12492
0.07430331,77.67273
0.101904616,78.06558
0.10517087,76.00144
-0.053487074,76.36905
-0.14482655,79.43471
0.06006463,77.701065
-0.048704118,80.462166
-0.02298431,83.08706
-0.03918493,79.85278
-0.073781215,82.7145
-0.003329027,85.37752
0.07488137,88.17317
0.00046521664,86.296
0.12177861,89.168625
0.15569752,86.44384
0.3001994,92.307274
0.4105012,101.21732
0.3580672,106.28539
0.5826115,102.789055
0.5832169,101.10704
0.706904,106.242325
0.73218805,108.554535
0.9482357,108.516914
0.8248702,111.572495
0.9673865,114.736206
0.9860744,117.043724
1.2051253,119.082924
1.1680138,120.305504
1.2337403,124.06496
1.2053689,121.30571
1.1858798,125.937935
1.2418662,130.60204
1.3489068,126.901855
1.3418065,130.60649
1.4002402,135.88214
1.3568537,133.37708
1.3732718,131.99396
1.4284319,135.90823
1.4022113,136.99696
1.3066223,134.53806
1.4190168,143.3138
1.3091105,137.57571
1.3856461,136.92834
1.4224715,129.5573
1.392871,138.82965
1.288383,142.407
1.3058777,136.89911
1.2290732,140.04
1.2397223,130.87033
1.0963546,133.64328
1.27974,133.72107
1.0893594,133.22653
1.1318977,129.28453
1.0318681,131.26848
1.0472208,129.58467
1.0523322,125.91687
0.97944486,125.962494
1.0460383,126.539314
1.0313164,125.38675
0.9422553,127.71524
0.88556105,123.94993
0.9967255,116.595436
0.9321661,120.64823
0.99831957,119.22377
0.9689138,118.7009
0.8977625,116.86755
0.8022288,112.92454
0.8317379,109.13798
0.8503279,112.445984
0.90530133,110.456245
0.85963094,108.63486
0.799483,109.20246
0.6969723,104.10927
0.67523414,106.31498
0.703517,101.319336
0.6832975,99.445366
0.60219204,106.910095
0.51903427,97.9563
0.5241792,100.62893
0.5015501,98.77022
0.56004286,96.69613
0.5337564,93.61484
0.46800843,94.8533
0.50537914,92.76275
0.37826926,89.764275
0.41682363,92.63228
0.43224716,86.007256
0.36086455,90.86153
0.34443018,84.484344
0.36811393,83.85286
0.38931543,86.870026
0.33498666,83.58032
0.43154925,85.31177
0.4186705,84.571236
0.4120043,80.12927
0.34007764,76.97852
0.37335142,78.18002
0.44444954,77.62901
0.25177324,78.744286
0.35281292,78.1481
0.27807793,78.42079
0.1453874,71.66839
0.18886586,73.82581
0.22577952,78.11417
0.18699273,77.81103
0.1032143,75.19764
0.1420745,81.34084
0.14497462,77.190674
0.0680004,77.503204
0.063250065,80.27636
0.025460485,83.647446
0.08440509,83.142555
0.17739187,85.456825
0.27031502,88.75993
0.20290777,90.05826
0.2825339,88.5942
0.3849395,92.78533
0.46772888,93.665924
0.5712495,94.24112
0.6991483,97.8575
0.7613421,102.806816
0.76587456,104.36652
0.9495651,102.77158
0.990455,112.01567
1.0018573,112.05856
1.1801513,111.87575
1.2154367,120.64461
1.2332929,119.4757
1.282168,118.25861
1.3412398,121.59393
1.4132979,128.77487
1.4581023,127.087845
1.3930974,128.97903
1.6041982,133.51262
1.5851058,128.75052
1.5966959,130.88896
1.50833,134.61409
1.5676596,133.18037
1.678297,134.41643
1.5814812,135.88972
1.6091005,138.55287
1.5717088,136.09258
1.62788,138.49083
1.5369632,143.53046
1.6502738,138.1321
1.5217221,138.07713
1.4996799,135.19804
1.5835661,139.01888
1.482449,137.65683
1.5085256,132.68382
1.3820574,137.887
1.4312186,137.84483
1.4107597,133.35872
1.3602116,129.9794
1.4098494,129.81705
1.3280466,131.08257
1.3400768,128.61621
1.2806717,128.47017
1.2907791,126.35182
1.2647285,123.77006
1.3216006,123.19933
1.2081157,122.886566
1.1505704,120.59836
1.2155244,122.20293
1.2713358,110.689384
1.213246,116.27286
1.2411654,121.04441
1.2328585,113.00591
1.2466855,112.25705
1.3298169,113.947914
1.2077436,110.77479
1.1347551,110.11911
1.1032206,106.74275
1.2193958,114.426445
1.0129592,106.281456
1.0446815,102.575195
1.0825955,103.60268
1.009151,100.29939
0.90878266,101.715294
0.93640035,98.251755
0.76866233,101.226746
0.8485551,93.662094
0.7084306,95.038864
0.76392055,96.53517
0.71299726,89.95474
0.7825902,91.3495
0.7543684,91.20619
0.7745226,88.57162
0.802092,91.14578
0.77514464,87.76998
0.8364878,88.98052
0.72693175,83.901344
0.73724884,83.362656
0.66653204,81.13777
0.68534464,82.26368
0.73766136,83.76333
0.6806828,80.97059
0.6914477,79.198395
0.7657023,76.22636
0.6593882,76.00807
0.67154896,75.46823
0.6377654,78.562
0.5587778,77.30955
0.54131293,81.35393
0.53108656,75.08962
0.51934767,75.60058
0.4823326,76.76642
0.44834667,75.69698
0.44430888,76.43251
0.4760758,80.39649
0.43901664,77.273384
0.40028083,81.608795
0.40812957,85.02444
0.5581774,86.55753
0.5381456,85.048904
0.60628253,90.42204
0.62830245,89.65166
0.7254676,91.503944
0.7418579,95.30858
0.9251331,95.53593
1.008794,100.28092
1.0892481,101.06001
1.1608971,104.726906
1.2298695,106.07493
1.2930704,108.97577
1.3212905,112.84134
1.4429712,110.062645
1.5553235,111.47639
1.5279888,116.56239
1.6212785,120.73731
1.697095,123.41956
1.7437351,121.655174
1.846187,125.340515
1.8706563,128.79353
1.8468671,130.88556
1.8684765,130.69374
1.9078314,133.82715
1.9332737,125.9314
1.8357818,133.43924
1.9766533,135.61923
1.9626256,132.23457
1.9333987,135.60417
1.9383143,139.71098
1.9004357,135.81242
1.93187,137.63118
1.9447564,134.87132
1.7614256,140.47134
1.8664753,137.41028
1.9027876,139.02379
1.8331758,140.52228
1.8519003,136.27437
1.6840644,135.58327
1.6437879,135.4507
1.6532196,132.98428
1.6996158,132.16347
1.7430393,127.288666
1.6281638,134.803
1.6240257,129.60387
1.596468,128.08984
1.536422,124.64483
1.5153191,124.40282
1.5614421,128.31155
1.537584,121.44563
1.5425801,120.78563
1.5090077,122.74656
1.4289066,117.66056
1.4775667,114.091644
1.5425714,121.996056
1.3804907,119.024574
1.5049275,113.606895
1.4690515,113.24143
1.4584976,111.597206
1.5139009,105.17688
1.3884317,109.493965
1.2819996,108.754364
1.3412082,101.631424
1.1684167,106.78889
1.2230116,100.3067
1.2693299,102.54594
1.0481414,100.64293
1.0516806,96.765335
1.064008,98.68705
1.088857,97.792175
1.1501596,95.1267
0.9740276,96.64903
0.91834617,91.163445
0.9455424,96.85636
0.91358453,90.727745
0.85226727,90.77051
0.9687038,88.463875
0.8617949,89.223595
1.0470334,83.42179
0.9117085,83.98804
0.97285527,80.2137
0.8851501,84.24526
0.935612,83.58641
0.92493373,80.09849
0.89334136,80.553246
0.84943527,82.10885
0.8898335,80.92817
0.8731712,77.3555
0.7332822,77.97217
0.68564606,74.8101
0.75838244,77.274124
0.6195349,76.7825
0.534599,77.1578
0.5163243,79.30696
0.61479664,80.945724
0.49966756,77.22467
0.59184206,77.89155
0.49151507,78.56066
0.528959,79.14783
0.47272447,81.36146
0.5589723,84.89662
0.5420066,84.72787
0.66055596,88.986145
0.6422562,87.214645
0.7070025,88.92265
0.80089384,93.724594
0.8382681,90.88076
0.90161484,98.46798
1.0102913,97.13326
1.0362319,99.96791
1.2309456,103.65167
1.1653208,104.65507
1.3111433,110.32682
1.3261869,113.14933
1.4485229,112.220894
1.4969611,113.73911
1.6182364,113.600204
1.639612,117.293755
1.6959156,125.60672
1.696083,124.4013
1.7570772,122.08079
1.7896183,129.14366
1.7764885,126.91343
1.9163792,131.44713
1.8409413,132.83232
1.9409121,135.07239
1.8646237,134.51472
1.9422307,134.81558
1.8454559,133.69954
1.983359,136.60168
1.9312699,134.34816
1.9002743,140.12308
1.8738513,142.01308
1.8916292,138.74628
1.8386036,135.56438
1.7875775,139.55418
1.8853259,137.78029
1.750446,136.99864
1.6439705,135.16565
1.6961033,133.08902
1.6543977,130.35535
1.511494,133.99686
1.6028405,134.51831
1.5421294,131.8027
1.5362331,130.77386
1.4237455,133.04378
1.4588647,130.92383
1.4727932,126.11704
1.5100166,123.94832
1.4313372,120.95346
1.492762,120.42832
1.3642662,122.679985
1.3601229,120.397415
1.232846,122.40153
1.2376722,117.94561
1.3718066,118.00353
1.3483582,114.05064
1.3102114,116.34342
1.3300655,109.89845
1.2832675,109.15815
1.2443069,103.23575
1.2615045,111.050705
1.1853693,105.9839
1.0745975,104.9732
1.1686248,104.05177
1.086412,102.15346
1.0501381,105.71928
0.9668611,97.94231
0.97656244,97.43289
0.90283215,100.10118
0.8704086,97.2265
0.9065681,95.87182
0.7716967,95.034676
0.745141,92.04221
0.77913743,95.38405
0.6823779,91.45614
0.7203339,92.59587
0.6826189,90.53134
0.704419,87.26803
0.6148717,81.1615
0.6583957,84.08208
0.64736897,83.171814
0.72584856,84.02363
0.7030459,83.517365
0.6593671,78.638565
0.6776427,80.482864
0.6423413,80.39024
0.6619098,82.31209
0.49136627,81.0199
0.53968877,75.025665
0.4372397,72.275856
0.5115128,82.00401
0.49437082,72.37864
0.3834039,75.04014
0.28038296,82.944824
0.32093462,75.822586
0.42831537,81.71955
0.24904464,81.481865
0.23596777,81.11002
0.20308296,82.775986
0.1931243,82.48221
0.2840009,82.745415
0.2301122,86.00592
0.32927728,86.1425
0.28680742,83.50303
0.4217431,90.94224
0.46903855,91.26644
0.49229136,91.02645
0.6429945,93.87227
0.64597225,91.50578
0.704677,98.70361
0.7980844,102.84454
0.79160607,104.257454
0.9099573,114.09846
1.1359183,106.38
1.0142007,109.67101
1.12083,116.51038
1.2056309,114.29903
1.3556079,114.3175
1.2348993,119.85685
1.3074048,123.45415
1.405581,124.08756
1.4097531,122.867386
1.4713595,126.45422
1.474263,126.29175
1.491949,130.58133
1.5165528,135.03883
1.520691,132.3386
1.4831599,138.187
1.5561339,132.65211
1.5455127,138.8817
1.5063119,137.45305
1.5338273,133.2004
1.4813628,137.24515
1.5450537,135.95494
1.4868436,137.27292
1.4209942,137.14262
1.4472396,136.48132
1.3714321,137.73628
1.3819784,136.63676
1.4412769,134.11188
1.3402646,133.44164
1.2691026,130.71997
1.1931549,133.10693
1.1436133,130.47717
1.30609,132.1223
1.1502576,131.09952
1.1507354,129.9481
1.1831332,129.46275
1.0678385,125.69419
1.1389278,127.02996
1.0582185,122.749146
0.9445526,123.454994
1.075503,119.52132
0.98638684,119.096306
1.0527945,121.639786
0.93859404,114.008965
0.9322696,119.47952
0.8659585,115.4208
1.0317574,112.183685
0.9354014,112.495316
1.0067297,113.42147
0.895657,114.73559
0.8639084,106.41813
0.69985235,106.07604
0.7563595,108.184616
0.7701696,101.248
0.72427523,100.17922
0.6329151,103.29951
0.67042947,102.96372
0.58102536,101.079285
0.5352536,97.10709
0.50490487,96.650444
0.40369475,94.96979
0.37222233,95.15513
0.42711774,89.65573
0.44086006,93.24497
0.3688631,86.28714
0.42753416,93.21066
0.42117104,88.52925
0.34742978,91.19854
0.4633937,88.10791
0.40013638,89.74945
0.31074056,84.201584
0.43276414,87.76585
0.35865286,81.47072
0.31654733,84.04235
0.31798097,84.250946
0.24067375,78.876884
0.24368185,75.32299
0.3364328,75.437035
0.15057963,72.93847
0.24276482,77.69898
0.12600717,75.53574
0.066594616,78.114105
0.018041667,76.451225
0.10983595,76.071526
-0.0072036055,81.18293
0.05297255,86.49683
-0.011223925,79.71908
-0.11241411,83.21817
-0.14037108,82.31065
-0.00774196,81.14924
-0.022878626,85.07155
-0.0025887366,86.992905
0.0061504445,86.85241
0.20324051,88.892685
0.17122647,92.5528
0.3310207,91.10249
0.289919,94.15662
0.34294367,99.98882
0.5020494,101.34209
0.44009236,102.64344
0.7285432,102.6446
0.6473762,106.31808
0.778917,106.01838
0.8726325,108.372154
0.92293596,109.60308
1.0637577,117.14101
0.9985462,117.23133
1.1265299,119.0873
1.1026092,127.199745
1.1933979,124.65235
1.1209764,124.89275
1.253701,125.89845
1.3226264,129.48584
1.360643,126.543
1.3286766,132.3808
1.3346214,133.15608
1.3270662,136.32718
1.2903562,135.02054
1.3427981,137.90956
1.2932718,138.06085
1.358986,135.32648
1.3626212,136.40161
1.3770696,137.85281
1.3498138,135.98724
1.2457751,137.33087
1.2626097,139.58386
1.3473293,135.1896
1.3165112,138.27817
1.119249,137.13962
1.2299213,137.74928
1.1312416,137.09976
1.2524259,136.32947
1.1277703,130.23479
1.0852894,131.9414
1.1366146,132.34329
0.93836826,130.03539
0.9873137,127.79744
0.8906391,125.56175
1.0795429,126.98539
0.9746058,126.83276
0.9237033,119.806656
1.0625097,123.09542
1.0159885,120.82629
0.79331565,121.52548
0.86760247,111.6979
0.85914093,114.86646
0.8948502,119.988464
0.88305026,112.690704
0.8697437,115.27564
0.7335288,111.57627
0.8500147,104.17533
0.874751,106.01126
0.799091,110.87372
0.7239996,107.91649
0.8549059,102.72245
0.697701,102.970085
0.71617323,102.878136
0.61466724,102.159004
0.6363517,100.439095
0.57037836,99.07085
0.51343435,97.820755
0.50937307,93.11008
0.56734324,93.21232
0.48444015,91.82551
0.46653798,96.947784
0.3980538,89.989204
0.32176566,87.46998
0.5331696,87.89815
0.4386471,86.75377
0.41289252,86.96667
0.40870413,88.87404
0.4095106,81.95543
0.43247193,81.60152
0.40798458,78.85826
0.34182814,80.98212
0.37380257,82.20493
0.26959383,77.84777
0.4686251,78.24507
0.29658026,76.22639
0.31644344,77.93001
0.3533352,79.01614
0.30919874,70.7399
0.29611015,72.18701
0.23986036,78.432686
0.1754613,75.9015
0.20254242,76.24243
0.13564463,83.35225
0.1586759,78.46712
0.11978623,78.54164
0.084222846,77.09364
0.14514238,79.55099
0.12456344,84.41393
0.16592716,83.472725
0.19455735,83.92609
0.2920239,87.122055
0.28926566,87.98714
0.4114891,94.031456
0.38971227,94.30989
0.5080069,93.18859
0.5716517,95.0593
0.80934685,99.897865
0.84892404,105.108665
0.8317285,103.31094
0.8778803,106.55483
0.9770824,106.83878
1.058852,110.37452
1.1918806,112.71773
1.2562433,114.82002
1.3267876,114.67781
1.4216342,126.92159
1.3750657,126.58062
1.4986285,123.9558
1.4557644,125.684746
1.478353,130.9704
1.562536,127.52752
1.615549,133.52625
1.5619028,133.26207
1.6653069,132.57657
1.5750602,133.31009
1.584766,137.45158
1.5887125,133.76572
1.5876051,137.77328
1.6818817,137.48317
1.6027746,137.56705
1.7077649,135.96985
1.5244721,133.97203
1.6249734,138.55707
1.6720018,138.92757
1.5682936,138.15651
1.5997553,131.93207
1.520101,133.9237
1.5147727,133.18813
1.3973166,133.51465
1.4348676,136.61935
1.4804705,135.09416
1.3087523,135.08441
1.3857749,127.815445
1.2902507,130.58153
1.294584,125.248375
1.2775527,129.65141
1.4174293,125.24613
1.2854432,126.31813
1.3260125,117.85405
1.2603089,120.471
1.2200439,120.9228
1.2077115,118.75835
1.3053874,120.69003
1.2396344,117.98158
1.199527,112.627266
1.1330463,116.60867
1.3161364,115.439995
1.1904938,112.13884
1.1777588,104.717636
1.1245315,104.40221
1.1867719,106.18621
1.1559407,105.00401
1.062881,104.06046
1.1377927,107.07719
1.0670607,101.79944
1.0252267,100.8442
0.8316899,99.057304
0.88928515,95.45221
0.824315,96.98
0.8812858,95.22173
0.77676773,92.641525
0.7521891,93.761635
0.76487297,93.72096
0.79955184,95.06477
0.7039824,88.130394
0.8184135,87.7554
0.73196626,82.35893
0.6389396,86.431946
0.6941705,84.2095
0.7873702,81.462395
0.7951206,82.833984
0.69172484,81.2213
0.7696645,81.79645
0.7203347,79.751
0.8012832,80.008095
0.6850007,79.23016
0.7724765,76.95773
0.71519256,78.11939
0.6303357,77.37865
0.6505695,78.88123
0.5964905,81.401566
0.4919741,77.44354
0.5313001,78.2416
0.58834445,80.879555
0.42925748,77.66624
0.41969803,77.090034
0.45777738,77.73003
0.39186683,84.43387
0.43484586,84.02081
0.4918545,79.26263
0.5197457,83.836174
0.5487684,88.3124
0.6255023,87.04379
0.68177813,89.87156
0.73529434,92.79623
0.89780825,96.648224
0.90525985,94.606316
1.0737883,97.20185
0.97997946,98.43755
1.219194,106.11679
1.2429583,105.92151
1.3644792,107.70309
1.295178,111.2858
1.4465576,113.65949
1.5538826,115.764565
1.5901656,120.64988
1.6663587,120.69259
1.7142565,122.84464
1.7400279,128.88574
1.7415732,123.885574
1.8117238,128.86938
1.8422401,129.66151
1.8701568,129.86623
1.8857597,130.81032
1.9800427,132.6555
1.9913881,130.40288
1.8812809,133.27878
1.8970993,140.93375
2.0683444,137.65459
1.869277,136.14105
1.9539422,135.23154
1.931547,135.80414
1.9601369,139.13766
1.8523757,134.99753
1.9441302,135.43224
1.7752988,139.91566
1.7507199,138.51509
1.7633505,135.99489
1.8086189,130.17459
1.8330622,133.14014
1.7564936,131.77087
1.7381727,135.44106
1.6004604,132.23904
1.6783333,129.23343
1.6595389,128.9441
1.6086979,127.40154
1.5662183,129.65468
1.5815222,125.883644
1.5427365,126.364334
1.5641514,127.18865
1.4643538,122.93953
1.4341547,123.46784
1.5305791,120.128365
1.4751496,113.865204
1.4672074,116.27724
1.4990743,111.24442
1.4155699,109.550026
1.4060498,113.3903
1.4297264,110.65482
1.3781137,104.071365
1.2928889,106.6827
1.3509363,109.973976
1.3279414,105.828575
1.3401606,102.1903
1.1975882,106.4309
1.2036293,98.79179
1.097347,98.280685
1.0920868,98.51442
1.0960976,97.688065
1.0995296,99.41177
0.90303814,94.93723
1.0505108,95.5157
0.93656236,91.68085
0.9472644,95.79088
0.91453695,87.76469
0.9679178,87.9102
0.96789885,85.89356
0.9141512,85.17539
0.9225546,86.53926
0.97421336,82.93251
0.9162476,84.73422
0.8596658,82.369
0.89536136,80.61541
0.8569924,82.27749
0.9276964,77.841705
0.8165011,77.363075
0.8383837,77.85998
0.84881127,78.98008
0.759974,75.773445
0.7922516,75.43479
0.7019017,79.59894
0.7181355,80.35242
0.63774824,78.50897
0.6192355,78.24793
0.52293205,81.0817
0.46735752,80.71957
0.60150266,77.31509
0.53356266,82.62588
0.56568795,77.836235
0.47288385,81.06433
0.5175519,82.29897
0.45863998,79.70137
0.49815342,83.92897
0.60996747,91.295
0.62620854,90.33459
0.70848083,93.35326
0.9291132,97.840034
0.8100735,97.975945
1.1045814,100.08174
1.1686038,104.2334
1.2074145,102.43756
1.285538,107.4139
1.3637133,107.59146
1.4102602,108.61503
1.4169759,116.88422
1.4978004,114.11869
1.6069906,117.11934
1.6207824,118.696686
1.6092691,121.87136
1.8307375,123.61119
1.749685,123.92352
1.8758056,127.9009
1.8079013,130.87851
1.8261131,124.816795
1.8443903,130.18231
1.9012018,127.334984
1.8303634,132.56999
1.7955095,138.52348
1.8297169,138.02469
1.9606926,138.02478
1.7931013,134.05722
1.9027069,133.1648
1.8971586,136.36565
1.8408966,134.23062
1.7984097,136.7493
1.7193221,133.41554
1.7462547,132.14592
1.6339774,134.74281
1.7058909,138.73781
1.6625079,133.1996
1.6231441,133.15898
1.5550712,136.16365
1.6425935,133.67151
1.5489768,128.75261
1.490109,129.55934
1.5846297,129.14424
1.487821,127.79943
1.4101474,130.27925
1.3885958,126.91752
1.4113238,119.12942
1.3317267,123.488144
1.343779,120.2335
1.3776127,121.66547
1.22841,118.779076
1.3384993,118.73254
1.2955418,117.77397
1.271015,115.896355
1.3389252,113.12543
1.3376966,112.425514
1.2539667,110.70781
1.1622779,106.08946
1.2634486,111.42218
1.2475213,105.916336
1.1658949,105.50969
1.01983,106.219666
1.1121211,106.86518
1.0519239,104.71541
0.90479755,99.48563
0.9209297,103.853004
0.9165698,99.6482
0.838226,101.412
0.76760584,97.49989
0.72379154,93.7231
0.7057528,91.82222
0.7271184,94.1794
0.69818074,93.311035
0.7052565,89.27611
0.6571588,89.54512
0.72283924,86.96196
0.7067369,86.263115
0.6043344,82.15172
0.6026092,83.54709
0.66181934,83.24204
0.643237,79.21999
0.63758844,76.85204
0.64770037,77.773155
0.6755865,79.8409
0.57383895,76.05667
0.5265399,78.84453
0.5823239,79.752525
0.44855592,78.80872
0.46181786,78.01308
0.40181443,73.44435
0.31275696,75.07405
0.3577429,77.74449
0.29949722,77.141396
0.25219178,83.863686
0.2298792,80.06087
0.16448565,81.04961
0.17328231,81.31287
0.25087047,85.74291
0.06235775,81.00952
0.25692627,83.17666
0.22778675,84.4039
0.3640824,90.51568
0.38863394,87.52211
0.46861884,96.15952
0.44516113,94.075516
0.6222381,98.46247
0.65009195,100.08252
0.78125346,101.02922
0.8535036,102.080864
0.8018778,106.62219
0.9400343,107.30108
0.98436505,108.48056
1.0017884,117.16174
1.1496267,114.426025
1.2491299,117.38919
1.3752658,116.61947
1.2923605,119.00085
1.3292017,122.69619
1.3513012,125.81222
1.450213,125.09339
1.536869,128.6928
1.4102396,129.76099
1.5072262,130.8507
1.4946674,131.88585
1.4667573,133.48012
1.4948629,133.37549
1.4957125,131.02081
1.4938222,134.27162
1.4374266,136.93121
1.5242776,135.3169
1.5804256,138.76013
1.4179343,136.07632
1.3852684,137.30115
1.354947,139.67833
1.3334992,135.60529
1.2938635,137.80309
1.3552315,135.11375
1.2990581,133.65868
1.328021,135.34741
1.2236576,128.6368
1.1668139,134.40831
1.1968932,133.85132
1.1791241,129.43933
1.1213273,132.01073
1.0043006,128.58774
0.9759991,124.89176
1.1417831,125.301865
1.2009542,124.80357
1.016819,122.2644
1.0171733,122.76951
0.96392745,118.23315
0.9367769,121.17791
0.94252676,114.27795
0.96584517,117.481125
0.9347665,114.5472
0.85026073,111.76832
0.91220164,114.73433
0.90766907,110.16021
0.89479405,110.12448
0.84990996,107.842865
0.8442621,107.13592
0.80515265,103.798
0.7520461,104.308266
0.7001898,103.44985
0.70193064,102.382034
0.7130565,101.06975
0.5704112,102.07909
0.48576212,102.47721
0.5278647,97.375656
0.41036838,95.85667
0.5136471,93.3411
0.41316715,93.19903
0.400881,91.16874
0.31224835,90.40986
0.39352393,91.304245
0.3764168,92.158295
0.29882705,85.37234
0.3084576,85.98436
0.33755255,87.33825
0.2855576,84.09703
0.32015947,82.83753
0.29627356,79.22214
0.30133998,78.20901
0.3099794,79.37522
0.32864183,81.1914
0.12653637,78.64886
0.24334982,78.51191
0.21959834,76.91609
0.15951478,81.15699
0.2772945,76.460106
0.1943528,81.02595
0.10433352,74.77459
-0.0064986446,76.5505
0.053042702,76.72756
0.048005637,75.92748
-0.03236302,78.37769
0.05510532,80.4123
-0.05979541,77.83808
-0.06976012,80.07754
-0.023112992,82.17988
-0.087350994,80.11738
-0.0016939045,83.97069
-0.02242553,86.92003
0.15589069,90.000595
0.057737045,91.57034
0.25191543,89.40903
0.29597336,95.27954
0.3173709,95.43301
0.59390545,96.91191
0.61190414,101.54105
0.7372218,101.48778
0.66857594,104.899994
0.8119826,109.03418
0.86062586,109.780914
1.024686,115.736336
1.0928442,112.55052
1.0735257,116.25311
1.1375368,120.30552
1.1426762,124.729385
1.2946441,124.28265
1.272147,126.05921
1.3374616,133.06706
1.3300097,128.77753
1.342951,130.0364
1.3257073,133.17032
1.3107461,135.76813
1.3563324,134.88797
1.2143655,138.85022
1.3281441,139.7089
1.3464458,139.29143
1.3394867,134.62985
1.3954365,135.17361
1.3115034,140.15508
1.307818,138.09166
1.3064764,139.76503
1.3293897,134.10277
1.1343299,138.61905
1.1690248,134.57843
1.181964,135.5602
1.1595145,136.18365
1.2052915,133.81226
1.1726855,133.58264
1.1217514,136.92734
1.1232134,127.99779
1.0929059,128.12311
1.1062253,128.7923
0.9978038,131.62178
0.9923548,129.34776
0.94131017,121.91867
0.97680765,124.838234
0.9282233,118.01447
0.9058334,121.588036
1.0184134,118.13522
0.9525184,117.92089
0.97656035,118.86266
0.9386189,118.21869
0.90813935,115.65243
0.8259938,115.1835
0.8159254,113.3175
0.9248151,115.13531
0.91003627,112.44851
0.8977024,109.07985
0.7833035,108.34617
0.79242784,105.181854
0.75608397,106.79688
0.7979453,101.54355
0.6986762,104.20506
0.7517257,101.33887
0.6301504,99.80358
0.41718414,94.26138
0.5026177,96.11481
0.534539,94.51845
0.5128575,92.0326
0.4502291,94.05415
0.53293276,94.6898
0.5451474,89.46223
0.38840201,89.17643
0.43060502,90.1598
0.5034814,83.91464
0.41424552,86.73943
0.46608147,82.06745
0.45834413,84.155785
0.4984349,83.17475
0.48644522,80.41246
0.44580317,81.29197
0.38384062,81.24959
0.40186313,79.87019
0.434093,78.941956
0.37108758,76.39719
0.36923212,75.773285
0.31309468,82.47432
0.24743101,76.85983
0.252511,70.78746
0.27191883,76.21297
0.18987149,76.62148
0.247942,77.79087
0.041572135,78.21661
0.08630366,79.244576
0.05519601,81.241684
0.13410176,80.59574
0.1745375,81.978386
0.19941907,85.88947
0.19084512,84.483955
0.21644835,88.06928
0.32260385,88.522224
0.43775037,92.54765
0.3944477,94.94706
0.41087478,89.04517
0.65883523,100.49943
0.58771694,97.86412
0.7420019,99.01059
0.8807838,108.825806
0.91956604,102.49411
1.0801113,101.10988
1.0926763,111.49703
1.1329757,113.685036
1.244816,117.20034
1.3288641,118.334946
1.4462588,121.74078
1.3223404,117.28866
1.3954365,126.31201
1.4963696,124.7659
1.5996357,126.507576
1.5214355,124.182465
1.6056175,129.39252
1.5873972,132.39584
1.60394,131.86694
1.685087,133.25005
1.7054029,131.52757
1.7115215,135.48782
1.6859131,138.49335
1.6832919,133.90918
1.7130364,135.0858
1.6723803,134.43802
1.6074976,136.86554
1.6514212,137.616
1.5789231,137.14473
1.5721997,134.20767
1.6147708,138.00537
1.5337536,131.82335
1.6004808,132.2289
1.5551609,135.28981
1.5225186,132.50406
1.4106264,134.77072
1.379488,132.08514
1.4700649,131.2954
1.2568275,131.16977
1.4752905,130.36168
1.415682,130.60046
1.31245,123.86332
1.3211571,124.687294
1.2383106,118.01489
1.1779454,124.08902
1.2595384,123.88298
1.2998749,119.69711
1.3493972,119.191185
1.3398225,117.41077
1.3243474,116.7706
1.3163409,109.88063
1.2001148,111.228195
1.339317,109.82254
1.2216612,111.433
1.1039097,109.21437
1.2111564,105.671745
1.1283619,105.385704
1.1358058,104.81872
1.0220793,106.00078
1.0588403,105.67035
