ppg,abp
1.0362152,75.13087
1.1999811,73.716805
1.1629686,74.69026
1.2380841,75.25734
1.3220056,76.08055
1.3546886,78.17285
1.4652033,76.84144
1.4648625,80.36821
1.4916205,80.30251
1.4787476,82.06213
1.5210795,84.04725
1.5549002,82.597595
1.5870122,84.701126
1.7050614,81.7728
1.6998879,91.417915
1.7936927,86.9528
1.7043445,80.25556
1.7132454,89.352585
1.7515746,87.42728
1.5567088,90.25249
1.8581098,83.58448
1.7131708,89.62888
1.7020068,89.20649
1.7501649,86.39506
1.7131195,93.26923
1.8170114,86.6024
1.7019978,87.29359
1.6861303,86.82713
1.7316974,88.25042
1.6822045,84.90073
1.6025016,89.01566
1.7188723,88.25022
1.5716379,83.659706
1.6352823,86.04433
1.6232203,82.53633
1.4898388,82.74709
1.4406278,88.798325
1.5341668,85.93201
1.4513043,82.9586
1.376484,85.47789
1.5766644,86.8746
1.3654219,81.551476
1.5085003,81.60541
1.3364913,79.04581
1.3041873,82.60535
1.3398833,80.2526
1.3369902,77.49115
1.3916036,76.95926
1.3936583,84.03299
1.360062,77.63807
1.3869199,76.997406
1.283182,83.4935
1.3084255,78.70265
1.3279333,76.08594
1.3427081,74.62738
1.327981,75.02031
1.2155107,74.23421
1.2379429,76.44383
1.2494972,76.77313
1.2121542,69.90273
1.1465495,73.20396
1.1534984,71.42863
1.1268889,72.939224
1.1813241,70.3855
1.14997,74.73588
1.0716448,69.34386
0.946614,66.44014
0.9735606,65.63363
0.90968347,72.12659
0.8559591,67.07476
0.99333316,62.19734
0.867983,63.79401
0.9594743,68.32078
0.8086101,66.1701
0.9055035,66.39237
0.8851695,62.60508
0.8979005,65.31669
0.8372387,66.615
0.9076564,63.10939
0.80161166,61.409817
0.8562862,62.66179
0.8777747,63.04662
0.83138806,62.299946
0.84412116,62.36673
0.86943597,58.242966
0.8058608,60.48477
0.77349913,59.51585
0.790582,61.350502
0.86116385,60.098812
0.7543024,60.404507
0.6580352,57.510845
0.6966741,59.623642
0.65807,60.464268
0.66454095,54.984642
0.5940653,66.51186
0.5535951,59.203796
0.58405244,60.94508
0.6153606,59.08673
0.54329455,58.728397
0.50854665,59.060276
0.49533948,63.47399
0.5628082,62.737736
0.5825706,62.001354
0.46764758,63.075726
0.62529933,65.461205
0.6567885,65.9895
0.6932363,64.6657
0.8831153,68.59324
0.7776584,70.47717
0.84052545,69.11271
0.93172497,65.13464
1.0767425,66.92968
1.1941333,70.609764
1.2344398,75.08017
1.2493691,70.46293
1.264772,77.42511
1.4265555,75.990105
1.4463063,72.75738
1.5423858,78.21167
1.5904741,73.48397
1.6440775,83.52418
1.6856515,78.636925
1.6944159,82.80359
1.8609486,78.735344
1.7285839,82.2699
1.8240846,83.67406
1.8897988,81.88384
1.9113246,80.604706
1.9100928,80.47473
1.9672961,87.22945
1.9329743,86.962326
1.9832271,86.87958
1.920203,81.22895
1.8965476,92.54623
1.9902458,89.897224
1.9088788,87.0498
1.8950889,90.729614
1.8954227,88.63038
2.0356255,87.35741
1.9123261,89.46135
1.9744468,86.80202
1.9202214,88.57529
1.9444429,87.857445
1.9598414,89.4664
1.801227,87.3535
1.8393284,89.55828
1.8624345,88.72423
1.7987766,85.11561
1.6902262,85.94855
1.7075316,88.167015
1.7533579,82.95155
1.7219455,85.289085
1.6456454,84.14819
1.6748561,83.56173
1.6068679,81.51571
1.5740013,77.955696
1.6373203,83.24112
1.4641085,81.53756
1.5158962,81.73642
1.540293,78.612915
1.4470713,74.27174
1.3951205,84.19307
1.50443,77.36809
1.4793409,80.580696
1.3443433,80.623344
1.3673751,74.83754
1.4330394,76.28863
1.5075471,74.568756
1.4285953,78.23338
1.294542,78.59922
1.3812785,78.7563
1.43628,75.93867
1.3282477,73.21771
1.3306653,72.045586
1.2907273,74.601524
1.2704972,73.59356
1.2473879,72.91613
1.2038405,73.63052
1.1956223,73.75852
0.9860154,69.35338
1.0032676,71.115395
1.0414748,69.78721
0.9645107,68.68246
0.9462427,68.8159
0.9072667,72.026596
1.0262533,70.70427
0.85505146,65.91715
0.8572723,66.16153
0.83877915,67.02439
0.8646358,64.80658
0.9319646,62.481586
0.8581676,63.016167
0.8778689,64.19296
0.77801013,64.03017
0.8575798,66.26288
0.73492265,64.00355
0.796904,61.002823
0.72835374,60.108604
0.8763783,59.908417
0.80697185,57.547535
0.88328236,61.712727
0.70319545,61.732925
0.7380057,57.665672
0.6763663,62.135944
0.6727063,63.258488
0.74071175,61.497547
0.51938677,60.597713
0.5759126,60.824856
0.5272771,61.76916
0.48900223,61.614803
0.56673837,60.74583
0.50575495,56.886044
0.35269287,60.871754
0.33289194,60.641254
0.46652925,61.81097
0.25404623,66.3912
0.27023378,63.435707
0.3925203,63.12973
0.37290367,64.43538
0.45175314,63.972336
0.48700514,64.22967
0.5437061,64.074005
0.58775705,65.07557
0.6160517,63.150875
0.7450957,69.666626
0.6389839,70.22896
0.85368776,74.34528
0.93614656,71.21387
0.86145717,71.350624
1.023213,74.126656
0.9649572,68.43302
1.140962,73.7285
1.251104,73.847404
1.2282381,75.227684
1.3779202,80.15292
1.4391704,80.3016
1.4361275,77.40911
1.4638922,79.49864
1.4772631,85.4539
1.4493568,82.10549
1.5480708,84.32314
1.6068796,80.52288
1.5299022,84.56566
1.7548934,81.98745
1.6565305,83.16225
1.6300589,84.431366
1.6704576,82.50129
1.6532481,83.369934
1.6500024,88.289474
1.6724308,83.907776
1.7137325,86.1567
1.6691477,84.1593
1.6365358,83.45922
1.711021,89.85181
1.6879735,85.647446
1.6512948,91.24581
1.4975054,86.728096
1.5362797,88.02744
1.5627693,86.30398
1.566312,87.182884
1.4839233,89.59914
1.4931345,85.87482
1.4786372,88.853455
1.4147949,89.22759
1.2996336,85.327446
1.3248087,86.37659
1.3074125,84.74134
1.2865479,81.12989
1.1796162,83.4384
1.2876921,84.78754
1.1736375,81.54258
1.2798821,79.00005
1.1711254,87.31854
1.2082157,82.95635
1.1893126,81.99927
1.1736346,81.10746
1.1445168,81.73295
1.1029443,86.39618
1.1205636,75.25461
1.0616438,81.23778
0.9716305,78.42523
1.055969,76.830215
1.1444191,78.851295
0.95909184,76.185
1.0466979,73.17952
1.1107193,75.20512
0.9451658,72.30099
0.91406775,75.85853
1.0219826,71.72685
0.9371659,74.3547
0.7961022,72.64655
0.8323309,75.21745
0.78841126,71.80223
0.7605287,70.91207
0.6347479,70.012085
0.6067833,66.28104
0.55021375,69.64056
0.6160323,70.38713
0.67215234,70.56859
0.5714154,71.072014
0.51507384,64.21477
0.5730669,66.413734
0.42250392,68.5049
0.47094932,68.78376
0.42704085,68.15283
0.414792,65.21635
0.48048946,67.804375
0.5110423,62.008423
0.483869,61.97447
0.47619823,65.15081
0.40775406,59.672905
0.37404186,57.700764
0.43850043,64.618866
0.36969885,68.16047
0.42027178,64.3777
0.3869826,64.492004
0.33630693,61.346394
0.31700033,60.09523
0.29435572,62.57748
0.31450528,58.73486
0.35433397,57.308525
0.2546632,60.743156
0.12223952,63.55305
0.17352113,65.26934
0.099924006,60.15418
0.18065125,59.32019
0.032833584,61.86572
0.05448536,66.22583
-0.036298715,62.628788
0.09874333,57.53736
-0.03540231,62.498203
-0.07383117,60.339462
0.007557982,62.741
-0.069184594,66.810905
0.18570822,61.33706
0.02839838,66.12808
0.12058782,68.82093
0.2782818,69.68716
0.33715373,71.36451
0.30089375,67.48296
0.22779082,67.22906
0.4431508,71.53074
0.41592357,71.24282
0.53695625,70.85618
0.68918437,71.327675
0.61726105,74.906
0.74900144,70.44087
0.7747937,78.374626
0.8608148,74.83506
0.94658464,77.44436
1.0146383,74.11007
1.0154732,72.08055
1.1602465,78.04252
1.111256,81.80264
1.1733335,80.7107
1.2771165,79.70877
1.2729298,83.67721
1.2192941,83.11451
1.271488,84.82745
1.2393521,83.8417
1.4379104,85.84029
1.4125206,86.298904
1.4275397,80.42807
1.3764566,84.85203
1.2758459,86.09171
1.3700196,89.00426
1.3750292,87.367386
1.3006917,90.170296
1.3647487,85.83833
1.2579321,83.21848
1.2969377,84.970634
1.2610848,83.76146
1.2396523,87.261215
1.2276094,90.14094
1.3590697,90.32073
1.3337922,87.292816
1.2933868,90.080536
1.1622111,81.48131
1.2355163,87.04711
1.1560996,86.01297
1.0877577,85.806694
1.0649356,86.09796
1.1332538,86.34136
1.077945,88.35544
1.0895245,83.86515
1.00235,80.884766
1.0470909,82.60344
0.9620334,80.39282
0.9341432,82.78868
0.8565668,82.56755
0.8680682,85.03035
0.9705417,80.539696
0.9020117,82.42474
0.9732668,80.326225
0.964462,78.02405
0.7915375,80.5008
0.91895413,73.31136
0.94276017,80.92838
0.898687,76.81844
0.842533,77.22861
0.7663318,73.60833
0.82089305,79.17286
0.71260315,73.801
0.8432455,74.66074
0.7859195,75.50907
0.7902446,70.65974
0.7308332,75.23934
0.72345,72.73867
0.6058437,76.67311
0.61172575,73.99821
0.52004206,72.31782
0.4810487,71.033875
0.53326917,71.94852
0.5717639,70.89037
0.38329434,67.50438
0.379326,66.91142
0.33601582,73.10356
0.3885653,66.72848
0.38724178,70.29424
0.3157895,63.191498
0.34046108,67.11788
0.41137815,68.6907
0.460826,64.937065
0.35444227,67.022804
0.39497277,61.77974
0.33601555,63.8818
0.30198067,62.85658
0.41250557,59.874607
0.42285046,64.99184
0.40073153,58.35107
0.41276684,62.357307
0.52013385,61.055367
0.3813103,62.76584
0.3499038,62.959236
0.21854796,57.51672
0.26317596,59.751076
0.17166261,60.409138
0.20763865,56.608704
0.19594736,62.298664
0.13411157,62.24364
0.1183363,57.065514
0.13304368,61.64857
0.07332301,57.53337
0.06374036,59.00923
-0.05416405,60.134087
0.079745926,63.25314
0.11548304,61.641148
0.08881159,59.85325
0.13761131,63.41107
0.17765558,59.930573
0.14706999,65.89147
0.22732414,64.44707
0.31634596,69.84302
0.2584331,62.39901
0.35834366,71.01584
0.2966309,68.83404
0.44661915,68.42863
0.54306304,67.93122
0.6502602,73.33293
0.6121465,68.52918
0.7727888,70.02094
0.874838,71.34671
1.0107099,75.29387
0.9976639,75.00651
1.0424216,72.31276
1.1871294,76.91796
1.2373629,81.85493
1.2346928,79.295235
1.2954495,77.49143
1.3317423,82.08274
1.4031924,81.308426
1.4526544,80.50969
1.412528,79.86442
1.5374336,84.059814
1.5432602,85.71289
1.5191487,86.072266
1.5409693,85.74374
1.5864816,87.95929
1.5765548,84.75223
1.5611819,86.909454
1.5396014,85.77544
1.6390827,90.278336
1.6364561,85.77559
1.577554,84.033905
1.6635805,89.1434
1.6400269,84.450584
1.6276832,89.505714
1.5263569,87.86268
1.5345752,89.78955
1.488941,89.37892
1.5296133,85.47921
1.4700456,89.58405
1.3820354,87.06214
1.4796648,84.17091
1.487446,83.32007
1.4705375,83.81212
1.4247632,90.70611
1.3274832,84.885864
1.4322405,86.71421
1.3351836,86.1978
1.3118361,83.059906
1.3421297,86.36486
1.3664683,84.980286
1.2478961,83.395325
1.1703568,76.75313
1.2974654,81.60578
1.323056,82.84379
1.2292793,80.07841
1.2808784,74.71622
1.1408865,79.980095
1.1444778,78.25247
1.1997201,78.21186
1.2816424,82.23354
1.2209173,76.325096
1.1936679,75.74208
1.1398284,79.05645
1.169787,75.56849
1.2187519,74.80826
1.1405642,79.25089
1.1990118,73.54776
1.0802138,77.31837
1.0792147,71.457275
1.0135928,72.54994
0.98034585,72.46128
0.9289275,71.07487
0.9241532,73.11188
0.8959653,68.28644
0.90584517,69.792206
0.9422567,68.07316
0.7841622,68.45246
0.84123063,66.97839
0.70291007,69.0995
0.8429204,67.60339
0.848826,68.8883
0.70630217,64.36785
0.87077314,64.00814
0.7969618,67.159996
0.7774949,63.472504
0.73893404,66.08146
0.7356277,62.111633
0.6673891,59.847286
0.73417664,64.25631
0.7618192,61.749878
0.6674786,61.65156
0.73457396,62.17407
0.7888526,63.099525
0.71919775,61.039513
0.71219754,61.064613
0.7908944,56.604237
0.614641,62.190525
0.7458049,61.47306
0.6346756,59.34386
0.5742729,62.355534
0.57145077,62.090446
0.5530446,57.34977
0.40608156,58.89414
0.56634176,59.995834
0.45061436,59.975086
0.52169204,59.894993
0.452476,60.930965
0.47210857,62.231365
0.4414417,62.653248
0.39458278,64.272736
0.42590463,61.699997
0.37899908,61.248222
0.5775255,65.508995
0.5157915,66.80412
0.6348005,65.655426
0.68149155,69.65339
0.7924151,63.165325
0.8194559,67.49044
0.8899027,69.47651
0.8889176,66.96351
0.91813135,67.87975
1.0997722,69.292175
1.0759196,69.493416
1.1990969,72.36375
1.3143055,78.06388
1.3251603,77.907684
1.5604733,76.711174
1.5362664,77.24326
1.5564731,78.56553
1.5926912,77.89121
1.7834415,81.74503
1.6479928,83.93226
1.7715529,81.29235
1.8110833,82.92667
1.9052503,86.30323
1.834636,78.04131
1.8095026,82.15728
1.978992,85.61952
1.8739067,83.545586
1.878394,84.87873
1.9227813,87.36359
2.0837908,86.08865
1.9343103,84.85862
1.8966151,85.89584
1.9310876,84.50658
1.9459568,83.58242
1.9394786,88.678276
1.9677622,91.30318
1.9220892,89.28838
1.8805643,87.23905
1.9207352,90.94577
1.9219297,85.29895
1.9739296,85.00279
1.8094695,88.73357
1.8661478,85.9041
1.7156934,80.75799
1.7170999,84.722565
1.8452216,88.66397
1.7479228,86.01038
1.7593285,88.79074
1.6253783,85.25355
1.6292871,83.94103
1.6794834,86.501625
1.5988183,83.9327
1.5697001,77.1474
1.5568228,77.34437
1.6019396,83.3471
1.548198,85.593834
1.5179803,82.944954
1.5081794,80.228264
1.5885257,80.134895
1.5027696,80.24045
1.6255399,77.58572
1.4291286,77.30025
1.524693,78.71569
1.5320547,74.270584
1.3498421,72.92739
1.4342993,74.58997
1.5415142,75.415184
1.3795881,75.82149
1.4074126,70.32958
1.416395,73.59247
1.342854,74.83518
1.3838556,73.05302
1.1680348,74.26973
1.2504253,67.6372
1.2439213,71.05346
1.1647558,67.29463
1.131266,73.49978
1.1495885,69.66027
0.916762,65.94424
1.0321265,71.299286
1.0301495,69.6478
1.0618458,65.773155
1.0896118,69.840614
0.9078481,70.70724
0.9914168,65.29051
0.9197414,68.13471
0.9613506,65.09807
0.9103651,70.997696
0.90703094,67.10838
0.9904629,67.572495
0.92728686,62.790768
0.9542542,56.92012
0.95154905,60.548283
0.9577583,61.682114
0.94002473,58.163235
0.8475913,60.047108
0.85627794,62.526615
0.68730474,59.127213
0.8296567,61.95684
0.84477204,58.86581
0.84300745,60.668762
0.7260226,62.469112
0.74195635,61.095818
0.6083757,61.568604
0.59262544,58.412426
0.6014469,62.46088
0.6371176,63.558994
0.5327516,55.742256
0.4868375,60.78395
0.49603054,59.4054
0.52032363,60.78947
0.5495409,61.331802
0.46905217,62.495274
0.5008231,61.164948
0.49310693,60.40132
0.6034083,62.345295
0.56901795,67.32069
0.644187,64.3065
0.7567201,66.63974
0.72220373,64.56517
0.8075044,66.573265
0.8045791,69.80723
0.8571948,71.134056
1.0351379,74.749695
0.9800182,72.885796
1.0896164,68.65932
1.1971351,73.14953
1.2752889,71.27182
1.3549261,70.24955
1.3335091,76.19378
1.3931175,76.28227
1.4905599,76.705444
1.5612904,83.52854
1.6251698,78.451355
1.7347689,76.5938
1.5953364,82.52681
1.7323332,81.20576
1.7129825,79.07562
1.7381856,81.60971
1.7639563,84.54599
1.8353361,84.93793
1.8092864,82.78679
1.8681304,84.20357
1.8747864,83.53742
1.8727573,89.02607
1.8611819,89.6363
1.8747847,85.820114
1.8688712,84.90538
1.7963876,86.085266
1.7300546,86.78728
1.8234502,90.04451
1.7927415,86.80993
1.7759044,87.7157
1.7389718,85.30523
1.7937244,86.36393
1.800306,88.120895
1.6060756,88.10842
1.5651859,85.199394
1.589749,86.62807
1.5779724,88.45184
1.5507511,86.71636
1.5356239,89.49415
1.5469941,87.37398
1.4929497,88.304436
1.4752762,86.55869
1.3523241,82.62033
1.2802982,85.539764
1.3968179,85.13324
1.2893884,82.2147
1.2017356,83.79621
1.3447406,77.14925
1.3098605,80.27232
1.2737298,80.17449
1.224784,76.69815
1.1930145,80.205734
1.2977352,78.935555
1.321264,80.12483
1.2419881,75.050934
1.2050976,80.76298
1.2010616,77.91512
1.204431,77.39177
1.2242941,75.74857
1.1586066,73.99436
1.1398568,76.83267
1.0781478,77.958244
1.0951749,76.72482
0.94516146,72.160225
0.94670993,70.643105
0.8971048,72.85145
0.87811714,72.96334
0.99381274,73.50994
0.86603034,77.65981
0.65456027,74.89688
0.7494396,65.28951
0.64911205,65.50475
0.7752388,66.44075
0.68986255,68.67434
0.5966295,68.00606
0.59829307,66.17109
0.6344871,69.04113
0.5102631,69.06271
0.56434315,65.06918
0.581357,64.7253
0.6242595,68.340324
0.5217568,61.491493
0.5748356,64.04091
0.57624876,64.768425
0.46769994,60.815025
0.56042284,67.81629
0.6281401,60.695023
0.44796312,59.610886
0.41467896,62.449352
0.4781539,64.0648
0.5542549,57.230038
0.41749653,58.83098
0.3625221,64.22254
0.38899288,58.262127
0.38120955,62.044292
0.36829773,61.195385
0.29613134,58.968655
0.27392885,58.533882
0.1818257,62.210392
0.077852,58.200363
0.29454073,57.23734
0.19829926,57.926308
0.061443575,62.750755
0.12300731,59.832497
0.07641114,64.65286
0.15748483,59.704212
0.103681736,59.13529
0.16837502,66.39908
0.13333124,64.28638
0.16103199,62.04435
0.24676521,68.80802
0.20595917,65.4011
0.30678624,68.29512
0.32273933,70.09181
0.48684087,69.82709
0.46897113,68.90518
0.5389152,69.76884
0.6836624,73.34912
0.6961343,73.57984
0.8613267,74.58741
0.8206879,74.33671
0.9328686,73.97081
0.9723449,75.95594
1.0812836,81.68519
0.9353355,79.40337
1.1856571,74.64617
1.3773713,75.818474
1.2788405,82.277504
1.2199963,82.57013
1.2914733,85.61161
1.3234797,81.30782
1.3737704,82.28774
1.3670329,81.856544
1.3844111,82.9089
1.4299093,88.389244
1.3511122,84.04603
1.3866327,91.5741
1.4225246,87.49903
1.4604124,88.970116
1.3738858,81.428696
1.3256025,86.407005
1.4612272,88.91042
1.3143063,91.118256
1.3895546,84.94652
1.3916303,87.12627
1.3069898,88.94236
1.4231945,87.57633
1.2490716,89.32563
1.3799096,86.27055
1.1998049,82.921425
1.2940202,84.52216
1.2950151,90.3689
1.1438334,87.93268
1.208876,86.58008
1.1760808,89.4649
1.0856348,85.2801
1.0625342,84.85922
1.03365,79.81057
1.0453234,82.82187
1.0442172,84.52958
1.018603,84.35613
0.9655728,83.41482
0.99413633,80.75543
0.9104783,78.291565
0.9368882,80.36787
0.95112103,76.55807
0.8890967,82.09331
0.91508746,79.85505
0.85308987,82.26709
0.94019794,78.41557
0.94292974,80.05429
0.9925449,77.562996
0.8141375,80.699974
0.78203803,77.7894
0.87337494,75.3738
0.7977976,76.09627
0.8058439,75.436775
0.7688815,73.15787
0.7279922,70.13583
0.69544154,72.3181
0.719802,69.87193
0.70422995,72.67304
0.6306957,71.5498
0.6478789,76.14051
0.59898925,69.33344
0.5054925,67.378944
0.49733427,67.15745
0.47188342,66.51899
0.39692828,70.06214
0.33839434,66.62959
0.33045292,70.370605
0.31766754,62.040245
0.36196125,70.50704
0.33501452,65.21028
0.31735113,63.75989
0.3259487,64.21132
0.30844504,64.76299
0.37612298,65.48156
0.36327705,60.512615
0.4469585,64.436874
0.33985156,60.706696
0.3356505,66.35434
0.33822218,61.615658
0.3364543,58.891205
0.23489411,61.38557
0.3162681,62.487118
0.29237473,59.562786
0.2732934,60.513012
0.19804958,62.0753
0.22686435,59.784626
0.18813998,61.779213
0.0758955,57.908024
0.09794185,60.7863
0.08439504,59.95579
0.023376344,63.459476
-0.037048828,59.62127
0.06451706,59.430344
0.040152784,62.30656
-0.011473217,59.77449
-0.033173766,54.345325
-0.0003707683,60.52224
-0.0064337663,60.44239
-0.04151667,61.010212
-0.025085293,66.344284
-0.010233112,61.662823
0.2009966,65.31693
0.14770837,66.44515
0.24232708,64.558136
0.2230726,68.93296
0.37754068,66.54905
0.36483634,68.6244
0.5000338,69.09987
0.651707,72.44086
0.6972071,71.28164
0.65374404,77.67022
0.83776903,78.69428
0.8764196,76.79013
0.91323256,78.62296
0.95517415,77.27418
1.0399201,75.84202
1.1429213,82.30298
1.3293178,81.27233
1.3296999,81.80758
1.3697183,75.86373
1.2261149,81.2612
1.3353891,83.818665
1.2973969,82.28795
1.3779017,83.64275
1.490625,83.67485
1.4333626,85.24768
1.4077522,86.776924
1.4002409,83.06466
1.4191897,88.56536
1.4428253,84.90963
1.4021509,89.03324
1.4567565,86.28058
1.399207,85.76433
1.4884685,88.75661
1.4075286,85.56379
1.4576077,89.50564
1.3934666,87.87441
1.3759425,87.855034
1.4971877,89.90265
1.3930333,89.01141
1.3274437,85.094246
1.2893516,87.33521
1.3822663,86.59283
1.2618859,87.71709
1.3338311,88.504196
1.2348701,87.516365
1.1956404,82.77783
1.2474959,87.15122
1.1613592,84.0861
1.2336136,80.54631
1.1778554,87.03655
1.1658357,84.86891
1.0597516,80.59426
1.1225144,81.11583
1.0937847,81.8489
1.1681406,80.78965
1.1311194,79.52157
1.0652268,81.74143
1.1163474,80.50058
1.0987664,81.79868
1.1349896,78.74203
1.1030787,78.39522
1.0710133,76.680275
1.0292196,74.47682
1.0920632,74.97644
0.98511237,78.66177
0.9932442,73.19934
0.9636095,72.360374
1.0491254,69.4637
0.9672583,76.549934
0.8449021,76.37132
0.95228994,78.05792
0.84323794,71.43122
0.8376092,71.17747
0.8735155,70.81955
0.83660597,69.42649
0.77784204,72.47794
0.70927197,68.54383
0.68377876,71.05663
0.71593857,70.84752
0.7112974,70.30609
0.6561016,69.39826
0.61498636,65.26274
0.6405454,66.689026
0.6586216,64.961655
0.61246794,64.95319
0.56741536,62.330963
0.63962835,65.02621
0.6993318,63.828545
0.58377725,63.934437
0.6613509,62.81166
0.5992353,61.931065
0.69467026,63.881252
0.631489,64.36139
0.6408707,62.498238
0.5278029,62.35218
0.7388103,59.278973
0.6453247,64.518684
0.5489192,59.997723
0.5935387,59.78112
0.5479847,58.61008
0.48260254,58.867184
0.40301412,59.01974
0.4127779,58.430283
0.43368793,60.71648
0.43630067,57.304527
0.35673386,60.778065
0.44707465,59.870506
0.27609992,62.202927
0.35556543,59.222546
0.31569758,58.970642
0.27731946,62.29511
0.34747043,66.53814
0.33007988,62.227486
0.34679592,66.02
0.46175662,65.195045
0.42947936,62.54022
0.43265605,64.784515
0.5954704,63.52592
0.63460875,68.72354
0.7267347,67.34509
0.8098718,67.0401
0.82346153,67.79548
0.9733196,68.032005
1.036035,70.38517
1.1244363,73.411865
1.1686614,73.12086
1.268264,73.887245
1.2540174,72.57504
1.3694001,78.13787
1.5018166,77.27742
1.4527863,78.01009
1.5080018,79.651764
1.5399224,77.844154
1.6223857,82.23335
1.7358079,78.59956
1.6544957,81.81864
1.738426,88.949005
1.7752999,84.85537
1.7833958,82.667984
1.7290035,85.93739
1.8544703,80.78382
1.8122009,87.061966
1.8967385,87.10104
1.9691957,87.359055
1.9752357,90.74143
1.8699082,85.29972
1.8594055,85.74614
1.8141475,86.77268
1.8659897,81.1364
1.8033037,84.884766
1.8556272,86.562706
1.7956967,87.44177
1.8771464,87.52878
1.6983788,88.44286
1.7958307,83.492874
1.6782545,85.97167
1.7334527,86.06208
1.7461836,82.95553
1.7488884,87.38942
1.6647401,82.881454
1.6600025,87.53648
1.7177248,84.65178
1.6288528,83.88521
1.5548317,83.69205
1.5460702,81.14286
1.5391247,79.780556
1.5908417,80.19315
1.5629108,82.02808
1.5430933,86.876045
1.549665,77.471405
1.5351776,83.48049
1.596025,84.69513
1.4588153,81.714905
1.5017064,79.03845
1.4219488,80.08165
1.4830554,74.40483
1.448116,80.04274
1.4626079,77.16505
1.4595122,79.49784
1.4394393,72.66619
1.3962194,75.38678
1.3700421,77.11402
1.2843916,70.21445
1.3583026,71.56666
1.331381,72.79224
1.2425598,75.00174
1.243181,73.033455
1.1862202,70.5476
1.2423854,71.345146
1.2279565,65.05728
1.172104,68.57317
1.0725545,71.65277
1.2060171,70.729805
0.9629224,65.28801
1.0181396,69.57894
0.9783815,69.65676
0.93852913,67.80354
0.9678101,64.80665
0.9520227,67.20247
0.9764768,68.924866
0.91281253,69.64665
1.0188161,60.800426
0.8901247,63.313118
0.8909248,62.929417
0.86367977,63.726128
0.8137446,62.52122
0.9486897,62.59037
0.9129817,64.855896
0.91015935,59.04692
1.0794,62.75148
0.91837656,64.13416
0.88160497,61.145454
0.8278151,60.23308
0.79373837,64.333954
0.7425651,63.78623
0.73387027,60.576813
0.662504,57.61099
0.7206588,61.82484
0.77546215,58.211273
0.6494371,58.544147
0.57773894,62.356606
0.58212614,58.919525
0.5544102,54.590427
0.5623486,60.80402
0.5580319,63.284706
0.5626454,62.936264
0.5360527,58.295315
0.57797307,62.997643
0.56113523,64.6315
0.6273015,66.27539
0.5854099,67.79241
0.68304825,69.88762
0.759471,63.368443
0.8059318,68.74049
0.80350375,63.50099
0.98571503,69.68862
0.971893,68.96808
1.0260432,65.40058
1.2135108,71.15627
1.198544,72.91966
1.3034142,72.408936
1.3979725,72.510895
1.3564082,75.19471
1.4535576,73.63071
1.6962843,78.10457
1.5302738,79.23872
1.7433814,83.376366
1.6592212,79.624825
1.7442085,80.922134
1.8271056,81.551186
1.80979,83.57398
1.8618253,83.0664
1.8015248,81.48616
1.9556129,85.699165
1.869903,82.20622
1.9046361,84.53877
1.8573003,82.3523
1.8705763,83.21559
1.9437335,89.73693
1.9368731,89.016655
1.839892,88.12157
1.9751314,84.53202
1.9601612,85.10892
1.8888029,88.435585
1.8756106,83.62744
1.8149984,88.902336
1.8754693,88.75291
1.8074018,96.09673
1.8489115,88.600914
1.8135036,89.87119
1.8151078,88.34364
1.6950971,88.68215
1.6529077,89.33544
1.7212374,89.678116
1.6535133,87.13198
1.6401101,84.077644
1.6049036,89.91615
1.6018175,87.03899
1.5333459,88.78759
1.460627,82.424416
1.5678158,83.77283
1.5051955,82.331726
1.4444304,82.7598
1.4086277,82.38538
1.4904314,81.41806
1.3573494,83.97162
1.456192,80.048
1.4260826,82.78854
1.3895253,78.10803
1.4029796,79.20545
1.3626088,77.71529
1.3336504,77.20518
1.3857559,78.54792
1.2972955,72.878235
1.305058,78.89947
1.2322525,75.77852
1.2167794,76.47929
1.1835444,73.38391
1.2578844,74.20116
1.177653,74.267426
1.1393011,71.9791
1.0986062,71.049675
1.1006118,73.01974
1.0386246,73.20441
1.0640054,71.7276
0.90127504,70.80203
0.96007615,71.21309
0.8422977,73.32373
0.79051775,67.217064
0.79834825,65.72245
0.8576883,67.61342
0.8259764,67.03471
0.7753113,69.53504
0.848706,64.0938
0.84582186,65.22617
0.6770338,63.710014
0.5791975,64.337944
0.7133201,64.04755
0.65950745,64.676445
0.7759727,64.0808
0.7435921,60.76939
0.80942875,59.499878
0.7785618,61.48043
0.6850646,65.93414
0.61910206,58.80847
0.7170824,58.441143
0.5526833,65.61512
0.6677776,62.12427
0.52982014,63.618458
0.57058984,62.868107
0.5662796,58.447098
0.496078,59.111164
0.5281729,57.913002
0.42465425,58.49959
0.40739614,59.356003
0.3478649,59.760326
0.3192444,61.037632
0.27329126,61.125755
0.27234632,61.757313
0.22822103,62.55418
0.2529204,62.99435
0.26975915,63.50788
0.294892,60.81714
0.30719012,65.40132
0.34506118,63.765926
0.20918094,64.67447
0.27301964,61.52125
0.37765223,66.37119
0.3931832,65.32984
0.55079687,70.26503
0.5089092,70.93873
0.68066126,70.61113
0.68170595,72.124794
0.7135216,71.71246
0.8804813,70.56526
0.91144764,72.0502
0.9992261,77.32538
1.0193474,72.41751
1.123636,76.10466
1.237663,81.36682
1.1666042,81.7643
1.2884614,78.10122
1.290839,80.79641
1.2735958,80.27395
1.3993015,83.29953
1.2928493,81.52271
1.4995039,80.94762
1.5173866,79.76162
1.4760574,86.62889
1.5822507,86.7171
1.575846,84.2954
1.566167,87.13479
1.4981678,82.57677
1.4002903,87.22308
1.6827297,84.87985
1.5320534,86.845505
1.4955145,87.49368
1.4845425,86.11783
1.546382,88.40233
1.4920007,89.2951
1.5879441,81.20092
1.4880935,87.22773
1.5672101,90.889496
1.4358197,87.681076
1.4395938,86.16027
1.3600949,89.601395
1.2864482,88.79571
1.3435988,88.75506
1.2597632,83.0565
1.249142,89.273766
1.2427402,85.13823
1.2752064,84.234535
1.1908653,79.6708
1.267757,82.55662
1.1441073,83.20584
1.101322,78.763504
1.1249393,82.64505
1.1516776,83.963806
1.0705556,82.33776
1.0766603,82.56553
1.0165383,80.978424
0.9717392,82.699265
0.99454725,76.06041
0.9753751,79.24728
1.0027193,75.40514
0.95716673,76.41969
0.9125151,78.169914
0.9538016,81.42974
0.8841763,76.78458
0.9620156,74.29212
0.8467869,72.93767
0.84331506,73.457275
0.8402461,75.16734
0.86418545,72.18186
0.8196845,74.240524
0.7265793,70.96997
0.703151,77.07592
0.6844227,73.74386
0.6861576,71.88964
0.5958671,71.53851
0.6042677,67.41372
0.5609138,75.02581
0.509988,70.41082
0.5170879,68.46636
0.39796656,66.80327
0.48163536,65.87105
0.33050376,69.45051
0.46867484,66.3696
0.3418187,66.83726
0.42244917,66.75941
0.35023588,66.26312
0.35048983,62.785496
0.37797365,63.88625
0.30842358,63.339897
0.30115563,66.80346
0.36686304,62.20878
0.2844037,63.136
0.28762352,61.417217
0.34159583,54.04581
0.39846498,62.29378
0.35816965,61.429203
0.32275334,60.608467
0.26999557,64.1354
0.29570335,60.28192
0.22139797,59.378784
0.3660214,61.1311
0.21820463,58.747887
0.093443975,58.782684
0.14715374,57.699463
0.05989921,62.47664
0.06871822,59.62401
0.022763312,59.73004
-0.008636366,57.53014
-0.009969116,56.338234
-0.12494582,62.490482
-0.09587872,63.267765
-0.16891763,68.74418
-0.051886402,65.22921
-0.057637695,62.34141
0.046024382,61.844894
-0.015888227,65.2309
0.14106394,65.862076
0.15081389,63.497578
0.12797506,66.74901
0.27037022,70.50918
0.30502972,73.42639
0.32628503,66.8626
0.4392172,66.23584
0.3835905,69.464005
0.52964836,70.840065
0.61207336,79.16345
0.64174694,71.99207
0.747536,75.689125
0.8384105,76.27433
0.90758216,77.27929
1.0696633,72.76716
0.9844803,75.69459
1.003189,78.428246
1.1863368,74.774414
1.0897123,81.59041
1.1433446,83.14717
1.2679787,82.26526
1.26015,82.478226
1.3368303,82.12341
1.383152,79.57198
1.3432189,86.18646
1.3405368,85.0232
1.464357,86.28953
1.325575,82.4608
1.4021605,87.71905
1.3321717,84.4735
1.3438454,86.42894
1.3654352,88.52776
1.3096931,84.948975
1.2927176,90.179276
1.3221166,89.66255
1.3389678,87.271034
1.2793652,88.58969
1.4198551,89.28508
1.3257654,91.33263
1.2508265,87.46071
1.2409601,87.200325
1.2698867,83.58001
1.1485436,85.03034
1.155351,86.219086
1.1616334,82.35256
1.1565315,85.54223
1.1584386,83.155235
1.0890483,86.55743
1.0610294,83.594795
1.0998439,81.21222
1.0366037,81.518364
1.0303948,84.30963
1.0653371,83.81003
0.97106856,84.59494
0.9439643,84.10787
0.99351376,81.81057
0.9783496,75.30337
0.96406835,78.222626
0.97298014,79.57473
0.97050774,80.017715
1.0251439,80.42638
0.99558944,77.91879
0.95220435,74.11007
1.0477172,78.74533
0.9651213,78.91713
0.9004301,73.86207
0.8844697,70.22974
0.8534149,70.88768
0.7702826,70.077034
0.80295885,76.749374
0.74743795,71.32414
0.80707014,75.449974
0.7360602,73.08078
0.7540488,72.486465
0.6269198,70.45924
0.7447776,72.921364
0.7057851,70.18624
0.64695966,68.28384
0.58121586,69.07182
0.44692194,72.32905
0.55092084,67.292725
0.5165608,66.48722
0.4743761,70.38924
0.48440397,64.338615
0.4272683,67.46746
0.45766455,61.627
0.4305209,65.00965
0.507061,66.38696
0.46735013,64.030174
0.35785457,64.02906
0.38801146,59.090458
0.49535212,64.53211
0.48198596,60.100605
0.49646577,62.281155
0.5503371,59.939846
0.4681911,62.41855
0.39787605,57.132145
0.460435,62.458855
0.31615767,65.460464
0.5246546,60.000877
0.38863838,57.773186
0.24464706,58.601395
0.36956602,62.55437
0.27066627,55.453083
0.26119044,62.50199
0.20708144,55.58368
0.23076783,65.04691
0.23935644,61.356876
0.2391171,60.35244
0.24317996,63.76306
0.19970754,62.121304
0.20364115,64.73953
0.21704592,63.365284
0.31786144,62.689804
0.38575673,63.903282
0.30433506,65.40614
0.45625532,60.9695
0.46695226,67.15703
0.51058793,65.444305
0.49751,71.18494
0.71323717,68.66247
0.60595363,68.51727
0.7081368,70.832504
0.85660326,74.82688
0.9232493,75.6236
0.9638141,75.18533
1.0903544,72.92675
1.1146201,76.4973
1.2551117,73.82267
1.2538002,73.08585
1.237882,78.62215
1.3865902,78.18209
1.5064106,79.37892
1.4646813,79.57506
1.5607177,83.59472
1.573063,85.16439
1.597318,81.19767
1.586197,80.6104
1.6392822,84.29752
1.6541778,85.74798
1.6974634,86.91935
1.7437509,83.6291
1.6804177,89.3615
1.8007464,90.99443
1.7010978,84.71529
1.8040051,87.82458
1.844959,92.39398
1.7156719,91.10661
1.6529486,84.65572
1.7612002,85.67449
1.7634027,91.58755
1.6942928,85.777405
1.7129499,94.34301
1.733291,88.90919
1.6375113,88.19281
1.5806215,88.7506
1.5747825,85.95796
1.6126864,85.34977
1.6266145,81.79874
1.6368204,87.71989
1.4358463,88.056015
1.5263621,87.398476
1.4581285,87.82945
1.4922915,86.06333
1.4796134,86.19714
1.3872032,85.95393
1.4141326,84.65017
1.428888,84.5892
1.4229432,80.37454
1.3656483,79.1956
1.3734885,80.78027
1.4088763,82.81202
1.4524189,76.90117
1.3415158,76.66917
1.3768909,76.504105
1.324534,77.24404
1.3127207,77.03689
1.3729062,76.3036
1.4495863,79.05822
1.3500191,80.5121
1.2926257,77.57916
1.3203342,74.23755
1.3909109,74.740486
1.3479835,75.22495
1.213816,73.611404
1.3046205,72.31447
1.269473,74.595
1.1292763,69.11079
1.2064714,70.09763
1.1311201,69.36051
1.073658,67.612495
1.028578,69.87978
0.9987878,71.094124
1.0462817,66.35244
0.9657175,69.68778
0.9389753,66.22727
0.8416183,67.68754
0.87906146,68.0673
0.89062566,67.61494
0.7823639,70.4381
0.8520905,64.71272
0.877741,66.49526
0.8404917,65.924774
0.8956515,70.48344
0.92679316,65.56651
0.87331027,62.236073
0.888944,61.40339
0.92137796,64.02127
0.90078264,59.34868
0.87169576,61.541424
0.84560573,58.562675
0.79241335,61.9836
0.9165042,61.37547
0.81311035,58.767056
0.78311634,63.33274
0.7333036,59.981155
0.6510058,54.42255
0.815346,61.198696
0.6264368,63.09603
0.642998,66.12518
0.6867122,58.173347
0.5637875,62.53976
0.5824529,61.163177
0.61488014,63.93278
0.55372995,60.30239
0.53170437,61.90768
0.598054,66.06207
0.5078184,63.042
0.5435786,62.587856
0.5644962,62.95007
0.6206981,61.054028
0.6537247,66.08759
0.7283101,59.189297
0.770165,62.17914
0.711962,64.4207
0.90026003,66.44958
0.89725846,68.354515
0.9864226,70.39336
1.1462513,70.64848
1.0688734,71.96989
1.166651,75.60425
1.330092,72.40292
1.3143692,73.695526
1.5647346,72.52611
1.5682472,74.81636
1.4859741,79.13033
1.6960021,80.51255
1.71938,79.646416
1.8638734,79.06457
1.8369244,78.59178
1.8546679,82.19486
1.9487773,82.44101
1.7826415,77.61225
1.7861831,84.035614
1.8466452,82.21743
2.0006616,84.19435
1.965866,86.09893
1.9866049,87.88028
1.9110332,84.53133
1.9356176,85.74767
1.9087312,83.95687
1.9834671,86.19479
1.8881074,88.57977
2.0328572,88.57396
1.8654332,86.57234
1.9773691,85.33166
1.8551624,85.64131
1.8539536,90.94571
1.8895243,83.837585
1.8454258,88.09461
1.9017367,89.75011
1.8157707,84.0546
1.7837763,87.002754
1.7086587,89.31251
1.8143599,91.456894
1.6834584,85.51812
1.7163422,84.76567
1.6200606,86.784134
1.6277165,85.27836
1.7087412,84.08962
1.5619206,83.425575
1.5966443,84.28611
1.5075845,83.917786
1.5984763,82.791275
1.5678163,81.84761
1.5546441,81.49169
1.5293308,79.54456
1.4893477,85.56356
1.5002948,79.80292
1.4067448,78.39925
1.5288091,81.413185
1.4636726,77.52712
1.3384894,74.60205
1.3593148,76.87336
1.3854436,74.537796
1.3923513,76.98996
1.3639272,71.51265
1.4572192,74.20803
1.2673873,74.9675
1.3081985,73.81362
1.3352203,75.07041
1.2570907,73.23483
1.1862636,72.886345
1.18184,70.45824
1.0751781,72.133545
1.1113806,67.40939
1.0027491,65.211914
0.9325412,67.87153
0.9800683,70.05857
0.97940814,67.304344
0.87973183,68.26276
0.97742563,67.71147
1.0041196,70.71308
0.8980365,64.866035
0.84658486,62.63033
0.83875096,66.60363
0.8845689,63.90032
0.92156595,62.86753
0.8836237,63.11259
0.7628085,62.841434
0.7799583,61.80695
0.73306376,63.921497
0.78654045,67.113495
0.7850973,64.04562
0.776238,60.03319
0.8026212,60.898735
0.6659519,61.084
0.69910645,57.726105
0.8150003,60.20709
0.7305461,62.538116
0.71332306,57.694523
0.7087132,64.9296
0.5359672,58.424942
0.5017248,59.912907
0.48538503,58.306614
0.47371483,63.77257
0.43945116,57.29781
0.46067235,59.514206
0.37692744,61.12797
0.29046032,56.484726
0.4355798,60.416924
0.30797362,56.89751
0.37647504,60.426426
0.45006263,65.53346
0.45469007,65.438934
0.41988814,63.123886
0.40593785,65.88128
0.46320486,64.612915
0.5340667,67.809555
0.7240165,69.07711
0.67852074,70.47717
0.74813527,70.57658
0.7707939,71.76953
0.8689392,72.0395
0.89472723,75.09828
1.0148672,76.87287
1.0999776,75.00473
1.2060626,76.96955
1.1542453,70.143326
1.1829048,71.80047
1.3059464,77.58591
1.4281245,77.643425
1.3236513,80.92919
1.4483752,78.71186
1.5152767,80.09617
1.5442768,83.629845
1.6056516,84.11328
1.5020083,79.47858
1.6238993,84.22035
1.6438086,84.90248
1.6608483,84.817
1.6646818,86.16799
1.6481456,88.97909
1.6254858,88.303085
1.5977117,84.81711
1.7010728,86.8797
1.6286409,89.61446
1.6238248,89.568
1.618593,89.53755
1.6369641,86.48292
1.581269,86.88358
1.6170826,90.03336
1.4895153,85.95484
1.5533464,85.694435
1.5050309,88.71826
1.468945,87.39245
1.5081688,80.22691
1.4894198,85.269905
1.4666258,90.19973
1.3966542,85.444305
1.388661,87.756325
1.34681,82.50959
1.3921102,84.77375
1.3463117,88.311905
1.2943169,85.96058
1.2952782,80.9712
1.2334932,79.950485
1.1580024,83.39735
1.1981667,80.726944
1.1502707,81.549866
1.184686,82.92924
1.12234,77.347305
1.1978043,81.26771
1.2427559,81.66315
1.2173617,75.555
1.1278553,81.96769
1.0009422,80.80717
0.9972665,74.346436
0.881109,80.91963
1.0240288,72.970116
1.0441346,75.31466
0.94985723,75.12026
1.0675117,74.40602
1.0391734,73.36666
0.9572969,77.35535
0.8521215,71.5657
0.9605149,75.920944
0.83347654,73.7129
0.73711866,75.29456
0.74581885,72.47333
0.7414767,69.18802
0.63322806,69.00094
0.7137357,70.91345
0.63193756,70.45811
0.6830381,67.97545
0.5627677,68.879524
0.54054207,64.15763
0.509889,64.1064
0.3858308,70.49892
0.5521614,68.31622
0.44989473,69.53674
0.4409481,65.30835
0.4607825,61.83788
0.4412061,67.79163
0.422905,62.878193
0.39580676,65.3751
0.3963958,59.975025
0.40087986,63.85192
0.4188466,57.739353
0.3243455,62.89398
0.3983839,62.1099
0.29170623,56.833595
0.3722532,59.759315
0.36414132,58.261158
0.30186918,58.269573
0.33172432,61.9532
0.2753257,56.336254
0.21703607,59.872944
0.16277753,56.65659
0.11759006,57.845097
0.033076547,59.25461
-0.0044553196,61.159348
0.10320367,61.096077
0.022659037,59.31216
-0.04871157,57.723305
0.0775011,62.36628
-0.07932003,60.138023
0.06821289,62.956985
-0.026753714,62.7232
0.042896587,61.51401
-0.016993273,63.84984
0.12939042,65.78714
0.069895975,62.469315
0.19678223,62.170193
0.22277081,63.908806
0.24104671,67.99054
0.4313063,68.6926
0.4292734,71.68368
0.48892608,67.340195
0.5369004,69.8526
0.5550326,74.72348
0.7150819,73.26038
0.78071624,77.01176
0.8968135,72.65436
0.9073711,77.918945
1.0540662,78.20558
0.9522367,80.86933
1.0736619,85.31553
1.1335667,80.06121
1.1038712,81.31736
1.2566503,81.4967
1.2440493,82.70899
1.2172105,83.88581
1.2348393,85.43563
1.2855175,79.09433
1.2924691,84.90578
1.3152953,85.49121
1.2928445,84.45574
1.4281285,84.81279
1.4222949,86.412994
1.4213873,84.13628
1.2908419,85.35628
1.3906413,88.24437
1.3113796,87.18725
1.2891248,85.82925
1.3391781,87.02729
1.3462497,88.67648
1.1816891,89.81855
1.2813412,87.79727
1.2330971,83.993774
1.2769381,87.20606
1.3241664,90.21115
1.1688619,89.22148
1.1974931,85.04856
1.2345185,85.96458
1.1440057,88.306946
1.0807089,88.706406
1.1239028,82.24197
1.0607203,87.83396
1.053453,84.81068
1.0000714,81.94126
0.9496006,86.84192
0.92641103,81.036545
0.9510253,82.142914
0.9888337,80.78133
0.8660979,80.749275
0.90966314,83.67073
0.9448301,83.30441
1.0154465,79.77687
0.85874695,79.502846
0.88752437,83.54022
0.8483762,78.20126
0.8602054,76.92661
0.8608757,75.46193
0.7840587,79.33564
0.90370274,75.48475
0.8497772,76.54273
0.8706238,72.496025
0.69468933,75.788994
0.6907037,78.274475
0.68058777,75.708336
0.7209342,74.72296
0.73542494,69.018906
0.68844783,74.18274
0.5877642,69.2338
0.6559988,73.44344
0.49458012,72.684
0.63502735,70.87984
0.5332753,71.12191
0.4905909,72.58633
0.43159392,69.47678
0.4397156,70.76865
0.4195815,70.054985
0.4063894,67.95984
0.39286274,66.93692
0.3506184,65.23218
0.40529054,66.925804
0.36661306,67.35322
0.31642583,64.50631
0.37668747,67.474815
0.25164664,63.885643
0.3463422,66.528465
0.26055935,62.03002
0.35002488,58.47432
0.41754022,60.14422
0.39755583,61.889355
0.3193882,57.962753
0.38437623,60.392776
0.36964157,64.957634
0.29421082,60.930237
0.30879462,64.745865
0.25206476,59.92316
0.12665664,63.478565
0.15393072,56.411495
0.11149145,61.146523
0.22495396,61.43167
0.19238755,56.05104
0.1133996,58.476753
0.15950115,63.637394
0.051263742,60.576355
0.081973486,62.820965
0.11339421,61.339516
0.030737046,63.39397
0.093367785,61.15133
0.016098687,62.80232
0.15116954,64.20229
0.118988,66.95033
0.11817671,65.05581
0.21867171,64.74876
0.34107766,66.24335
0.4352025,66.86235
0.34878865,65.0515
0.5583507,64.65963
0.5561016,68.590935
0.6180497,72.42358
0.693873,74.45357
0.6740822,73.849594
0.86822957,76.74813
0.8500249,75.90402
1.1295216,73.48717
1.0471907,74.927124
1.1465364,77.87694
1.1209644,76.7443
1.3155534,79.21589
1.2823089,82.260284
1.2791467,81.13398
1.426881,80.21534
1.4606721,80.928696
1.499525,84.30779
1.5397552,84.5573
1.5580871,88.55704
1.4574143,82.85239
1.5646574,84.453896
1.5619491,83.64029
1.5695071,90.28157
1.6501839,85.48444
1.6113803,90.751884
1.5781988,86.35685
1.4789491,91.5255
1.625388,87.609245
1.5260361,88.913605
1.6945021,87.4145
1.6603965,89.17164
1.5453516,89.32002
1.5097606,91.54536
1.5878514,88.10857
1.5573224,89.396126
1.4757897,85.7031
1.4152412,81.39938
1.3695583,87.0718
1.4101243,87.01171
1.4328369,86.88041
1.3465741,82.14133
1.4143455,85.2104
1.3917248,86.17479
1.3665875,85.236664
1.3221021,83.98592
1.2434819,86.60239
1.2904863,82.916435
1.2901673,82.53067
1.3020859,84.881065
1.2265233,82.51992
1.3096036,80.481186
1.273188,84.281876
1.2722645,81.00822
1.2816969,76.1934
1.336095,76.81678
1.2267104,80.13894
1.2524107,76.06092
1.1542996,79.414375
1.2439965,78.03792
1.0764793,79.0629
1.0469133,73.9176
1.2579939,75.756905
1.2113621,73.44479
1.1092986,74.40039
1.1562393,76.25213
1.1131272,69.051796
1.0501229,73.61549
0.98602426,73.4994
0.9982078,71.345474
1.0077947,71.87283
0.95061195,64.859314
0.9668111,74.085526
0.93213886,70.97129
0.90922934,70.76826
0.83275175,68.0351
0.81432575,64.12922
0.7168442,73.11493
0.768299,68.806526
0.7691805,67.07353
0.7812363,68.86915
0.7694577,65.92191
0.754841,67.647125
0.83681595,62.852272
0.7415405,65.658844
0.7490287,67.13205
0.77181816,62.180916
0.8596784,62.175884
0.77577156,60.496838
0.78802514,60.847294
0.69415855,59.35141
0.6935564,65.11758
0.8365691,60.705635
0.70946795,59.593582
0.728207,59.67915
0.69675225,59.308193
0.6514344,63.550068
0.57173765,58.82472
0.54297507,59.860897
0.6087927,60.076584
0.52546185,63.082577
0.50784665,58.28503
0.5450926,62.990707
0.43720016,61.346504
0.34256998,60.723766
0.46980268,60.227795
0.5052912,61.64893
0.3062461,61.535686
0.4540384,63.249615
0.5466646,65.85138
0.58210874,67.50311
0.64537495,63.908756
0.67546254,62.133865
0.7221437,66.82162
0.7147586,69.237366
0.7809237,67.73314
0.88976306,65.658676
0.9810676,70.50763
0.9124333,70.42623
1.002263,73.37701
1.18639,70.188324
1.3022138,73.614525
1.2686882,75.89846
1.4673699,78.03124
1.4947062,76.94377
1.6575434,78.815216
1.5800194,77.907646
1.540336,78.40848
1.6680374,79.313835
1.6761659,72.17437
1.8292005,83.52546
1.9440393,85.0414
1.882068,83.13981
1.8597625,84.60718
1.965066,85.50515
1.850482,85.31383
1.8498123,83.35213
1.93456,82.80354
1.8499025,91.693
1.8783644,87.72921
1.9703918,88.2035
1.8365551,86.618965
1.9913561,85.56687
1.9945383,89.5122
1.9267935,92.07813
1.9697886,90.829155
1.9924421,89.41317
1.9089587,88.74347
1.9614356,88.05685
1.9732071,88.08778
1.78624,86.1021
1.8890661,84.62489
1.8775972,86.4438
1.7271285,86.0665
1.7948202,87.4321
1.7047931,85.803566
1.680472,86.244896
1.6403239,85.279015
1.5831618,83.08014
1.6795176,88.64887
1.6165185,80.684715
1.5329789,84.80072
1.5376192,83.82622
1.5510496,81.078224
1.5691574,82.0634
1.4623471,81.59997
1.4794506,78.289375
1.5582156,81.22431
1.4913174,75.96544
1.482952,79.64637
1.5209788,80.17995
1.4587088,79.35648
1.4428226,81.18013
1.5098325,80.00805
1.3889859,76.85287
1.4629742,82.11216
1.4971118,78.14332
1.4698848,74.273384
1.4244164,79.0553
1.2875521,74.01148
1.4047452,74.74494
1.275662,73.82822
1.2621384,72.42629
1.1441066,72.83734
1.2858013,68.59555
1.2229255,72.097435
1.1257577,69.33306
1.0439696,69.24773
1.058867,68.98008
0.99919385,66.507256
1.081706,68.63987
0.96631837,67.92454
1.0088602,65.47695
1.0082033,67.174706
0.99653345,65.138565
0.9770593,66.36725
0.9256931,65.18489
0.9533661,63.842464
0.8571587,65.78182
0.86281407,65.34158
0.92730397,62.135323
0.91741544,59.665894
0.85271424,65.872284
0.8944719,62.18743
0.872476,63.890583
0.7674248,57.253407
0.8348266,64.33393
0.8357255,60.796528
0.8198289,57.472317
0.81991494,60.585064
0.77683645,56.330307
0.71961844,62.238277
0.6769649,59.512135
0.7006136,60.764313
0.6100198,62.290882
0.5804709,60.99624
0.53122216,58.65681
0.58039576,63.856472
0.4134538,62.09852
0.5345959,61.424377
0.4559037,60.937664
0.4854101,60.48313
0.45968473,62.399723
0.54493034,65.78148
0.5437678,62.88882
0.59315956,62.894974
0.59693575,62.10589
0.6283909,63.430244
0.5879785,66.2452
0.7001573,67.871346
0.7429816,68.19421
0.7689791,69.25726
0.73559815,65.90829
0.9197149,69.94455
1.0349637,74.393265
1.1032149,69.41943
1.1214083,75.11164
1.2523733,70.61972
1.3089485,76.39361
1.4374878,78.05405
1.3863837,75.99404
1.4756774,77.36789
1.5347154,80.34877
1.574598,78.83738
1.6815518,80.46775
1.6452059,82.30468
1.7695818,75.807465
1.7340448,84.61004
1.7747611,80.75711
1.7091652,89.25518
1.834747,90.61289
1.7627136,84.67283
1.843071,87.170815
1.8119682,92.61554
1.8171372,86.591034
1.8004693,85.86211
1.8225143,84.599075
1.9006073,85.53409
1.8157867,89.40374
1.8033969,83.15802
1.7621746,88.23326
1.7875477,88.19308
1.6828829,90.5621
1.726432,87.058105
1.6722275,85.31749
1.725678,84.741295
1.6482064,89.872246
1.6924901,88.40131
1.562606,87.02938
1.6117814,85.8673
1.548476,87.34234
1.4110638,86.16988
1.5423344,90.27955
1.5459429,84.27414
1.4756429,84.43422
1.4743115,84.03059
1.3865047,85.85134
1.2438858,81.77383
1.334343,84.66251
1.2733783,80.639
1.3245685,83.14661
1.2301153,81.087555
1.2173412,81.7638
1.203894,80.38603
1.3720206,78.502914
1.239647,84.241554
1.2666285,81.29976
1.2104708,74.92148
1.1750165,79.121635
1.2350613,76.8585
1.1904126,76.18863
1.1946309,76.09373
1.155803,78.00402
1.1108133,78.885155
1.0966599,69.24339
1.0857754,70.87634
1.0572957,71.68695
0.9545319,75.173836
1.0513977,74.82179
0.891218,74.82968
0.8049694,73.43394
0.68985534,69.288666
0.75770086,69.25044
0.86096764,70.127625
0.65709126,69.254524
0.69213873,68.07208
0.70705587,66.39573
0.6375466,66.831436
0.6478605,66.42574
0.6197476,64.964676
0.5820462,66.10962
0.62917715,66.40106
0.55840766,62.92022
0.54775614,63.18782
0.5074427,62.95787
0.595543,63.705494
0.5572489,64.43429
0.6715769,66.70717
0.60790676,65.14381
0.561163,57.201794
0.6138379,60.205013
0.50550336,62.79669
0.49988055,57.515606
0.51051414,58.962288
0.4781737,59.045994
0.38820535,61.818027
0.3596552,58.389896
0.34655657,63.320095
0.41368207,59.233837
0.32678813,59.732834
0.19871667,64.08016
0.26132926,57.758003
0.15812594,58.446777
0.2197869,63.88327
0.14072728,62.12679
0.19051383,61.15788
0.15116124,63.22563
0.1401636,60.925495
0.07857267,61.35711
0.03822938,64.5494
0.07579837,61.463726
0.27460733,66.80656
0.17026618,63.64771
0.094316535,68.6459
0.23824386,66.273544
0.35665026,73.16651
0.4685987,68.83088
0.5859558,64.668076
0.5635445,66.22162
0.6069153,70.571976
0.5810169,73.88244
0.66793436,76.69354
0.7905639,74.73099
0.87620854,75.55018
0.8420831,75.704155
1.1130453,77.06004
1.0487753,73.15588
1.050714,76.291855
1.0881848,74.51649
1.244839,78.39582
1.2612814,82.27033
1.218978,84.21649
1.3797101,82.46924
1.3285553,77.62594
1.321925,79.35836
1.3685721,82.2177
1.3793899,82.403465
1.3610234,88.48004
1.3685191,83.71747
1.4408792,87.72763
1.4865175,87.48856
1.3887941,88.6215
1.4823688,82.86987
1.4974529,88.21811
1.4199471,87.10481
1.3118373,86.439964
1.403031,88.496994
1.3563775,83.62678
1.3458397,88.80211
1.3849865,86.82687
1.3799804,84.779236
1.312699,88.49302
1.2792455,90.155525
1.2268034,88.655876
1.1908503,88.905205
1.1883311,88.28786
1.1315278,82.6997
1.2017056,84.05741
1.0013123,87.14808
1.0165181,82.88289
1.0630217,84.261665
0.9999867,84.62392
0.8839108,85.98509
0.978479,82.131226
1.0002041,77.01418
0.941643,78.91307
0.9823631,85.627205
0.94539994,83.37079
0.91859937,77.67847
0.8527407,80.118935
0.9213333,77.47502
0.97822124,76.299225
0.9549398,76.39389
0.8541465,79.81263
0.89224714,80.60887
0.9675855,74.83459
0.8281358,72.67134
0.8374741,78.6908
0.82865405,72.79176
0.82380944,72.67846
0.8906027,73.45384
0.69474053,76.33435
0.71813565,67.77593
0.7046293,72.05295
0.6671321,72.18968
0.6564986,70.51164
0.58012545,74.28558
0.5724748,70.8636
0.5339101,68.11581
0.42266476,69.5464
0.42575556,66.949265
0.42409277,74.02068
0.42411107,64.03628
0.3541494,68.49188
0.41670904,67.2966
0.35079864,66.11153
0.32678702,66.49503
0.28487659,65.01545
0.43456885,61.88706
0.37692276,67.80226
0.30289155,68.23168
0.24875405,60.8432
0.192771,60.50195
0.28053594,61.51837
0.36974424,66.861084
0.4160439,60.32234
0.22444755,60.099796
0.37856686,58.56326
0.31273052,64.32282
0.21561511,61.450813
0.35498998,63.107834
0.22725002,61.026497
0.23926643,59.12353
0.19425802,56.834183
0.12769982,61.854866
0.111684136,59.341164
0.043550484,62.983547
0.040558167,60.99816
-0.019871311,59.17677
-0.05941817,61.898426
-0.070072144,61.816925
-0.07073778,59.59844
0.016692284,66.03367
-0.07409693,62.240788
0.060910884,63.585293
0.10716556,64.96743
0.05989042,61.230736
0.04126185,63.239273
0.21838133,66.73332
0.1591269,66.254776
0.19567476,64.94664
0.28191918,65.654755
0.39870685,72.33816
0.40235007,69.96715
0.49481648,69.15596
0.5982162,68.33842
0.66835076,76.502815
0.7071796,75.556526
0.76483345,70.07334
0.81505597,75.86505
0.9245748,75.54952
0.9981368,73.52618
1.0488551,74.98832
1.1681843,75.08121
1.0760797,82.00645
1.139997,80.671165
1.3506573,78.29419
1.2387174,78.60552
1.2090197,81.83489
1.3794563,83.63962
1.3445821,84.865074
1.4329107,83.12165
1.4304556,84.19557
1.5532833,88.53451
1.4651623,83.54937
1.4824568,85.43339
1.4682733,87.20933
1.3498497,87.91013
1.4960362,89.8903
1.484243,88.08556
1.4876167,81.535095
1.4744298,84.580284
1.419337,89.64137
1.4544845,90.182076
1.3976613,90.81185
1.4123893,89.975365
1.3738565,89.04972
1.4017981,85.191574
1.3251334,87.51899
1.344481,84.871056
1.3834695,84.32897
1.2681206,84.93046
1.2534341,88.53319
1.2897793,81.45609
1.2193902,81.61701
1.2256311,87.304306
1.2015494,87.62608
1.2090642,86.7193
1.2031032,85.930336
1.1104283,82.505516
1.1776117,81.30968
1.199566,83.17021
1.099201,84.562225
1.0981004,79.80283
1.0940154,76.55725
1.0657046,81.24987
1.1355499,75.93522
1.0094807,76.85845
0.9711875,73.82508
1.0541804,79.96161
1.0849493,78.59828
1.0727639,79.10048
1.0901752,75.2487
1.0493997,77.17189
0.9632786,74.22676
1.02489,73.835365
0.98340464,74.34366
0.9760916,72.450935
0.99346226,73.11442
0.9670109,69.546776
0.8950908,66.00981
0.83681905,72.97057
0.8093804,72.89348
0.7992907,66.465515
0.7373799,66.61667
0.664697,69.419044
0.7754848,67.28268
0.7343295,70.35481
0.6353795,66.56866
0.68010676,69.34284
0.62531585,63.5102
0.6422257,63.216625
0.7305187,66.08743
0.59318626,64.99781
0.5518088,62.70551
0.6794676,64.85353
0.6436637,65.55379
0.60869575,66.67947
0.61263394,59.646095
0.5799786,65.65152
0.5386793,63.721085
0.6926625,59.710697
0.5777982,59.390945
0.6259779,58.92472
0.6106326,64.837845
0.6715549,60.82295
0.48507315,65.04278
0.5069189,60.28528
0.51511085,61.658638
0.5106234,62.600414
0.41333103,61.391422
0.52406144,65.87112
0.3654975,59.3463
0.36691716,58.705322
0.47167072,60.46375
0.30995548,59.565662
0.45020133,61.48348
0.3125161,60.232616
0.3867195,62.623478
0.3661388,62.206074
0.3159922,61.384136
0.3426291,66.620186
0.42764658,66.7565
0.46450365,63.775257
0.44582197,65.682236
0.5587742,68.373
0.5847167,65.29752
0.7093663,65.60817
0.8145657,72.32606
0.72961485,71.76416
0.925335,69.328445
1.0976013,75.2613
1.1133772,70.36254
1.0961463,73.91174
1.20929,74.84302
1.2502928,73.667305
1.2764226,76.885376
1.4480458,74.762535
1.415108,78.69152
1.5889963,78.96545
1.6096326,82.837296
1.6242927,77.992165
1.6388391,83.45
1.6857175,80.49318
1.6783298,82.009964
1.7288308,87.578835
1.7428706,81.82354
1.865446,84.34708
1.7745473,85.60158
1.813372,91.95593
1.8775935,86.45493
1.742451,89.98922
1.8953239,88.11631
1.9179113,86.60398
1.8750886,87.637634
1.876762,85.3804
1.8650476,87.46648
1.9270293,86.751335
1.8212171,87.37469
1.7288107,85.074066
1.8278985,90.40845
1.8425213,88.91468
1.7303683,84.88559
1.7296233,84.82821
1.7722963,82.62581
1.8313072,83.7367
1.604923,86.803696
1.6937073,85.864716
1.602865,85.88699
1.5550622,87.97185
1.5573235,85.15807
1.6116099,85.69394
1.5390387,83.59164
1.584759,83.46031
1.5147628,83.08702
1.6111783,81.47785
1.5159843,80.74536
1.4208074,81.2023
1.4233713,79.09214
1.4875516,78.61843
1.4627357,79.98622
1.4284132,76.59822
1.4756799,79.577255
1.5165873,78.87978
1.4084337,77.07753
1.4450142,75.03017
1.4789478,77.58809
1.5560536,77.96316
1.3992876,76.77524
1.4144226,80.95888
1.267944,76.03613
1.3336496,70.879234
1.3105506,75.97782
1.3054855,72.29377
1.1814303,71.679825
1.1366827,69.63673
1.3189344,71.38744
1.1696235,71.13646
1.0597799,69.65263
1.1889248,65.465965
1.0605102,73.67565
0.9754766,68.17032
0.9809619,66.89515
0.89865613,66.689606
0.93891746,66.533615
0.98369837,66.78266
0.9731016,65.08288
1.0759512,67.43458
0.9137508,63.51987
0.92480826,64.74337
0.9738238,62.499077
0.93110496,66.45654
0.8947929,61.15191
0.9100581,65.975716
0.98898077,62.84349
0.98789585,59.540894
0.9092205,63.150547
0.9717165,62.554134
0.8714293,61.843586
0.9310106,62.17528
0.932043,60.7246
0.8308533,59.374744
0.87442636,62.33523
0.825845,56.401115
0.76609665,59.849174
0.7771798,59.376045
0.6008801,61.907795
0.68332183,60.200974
0.5667813,59.82015
0.49765542,57.223236
0.61452633,59.481617
0.58307445,63.185966
0.5178134,58.92413
0.58150357,63.67282
0.56978977,58.93681
0.6336131,64.32191
0.52523875,63.752262
0.53427184,63.538578
0.6649591,63.483894
0.72040296,70.35614
0.7487357,63.713104
0.7198645,69.50994
0.82251555,68.4903
0.8579098,69.16415
0.977303,68.954285
1.043293,70.40526
1.1874528,73.522804
1.2131957,72.40818
1.2994378,75.68553
1.3008767,77.69978
1.3178797,76.68755
1.3988645,76.44831
1.4903028,79.36314
1.6989746,77.118164
1.6087664,79.1782
1.7484019,78.052155
1.7651196,84.7464
1.777191,78.078316
1.8037214,81.75041
1.7332872,82.791046
1.8486001,85.08722
1.8060278,83.092674
2.0011196,88.4654
1.8560642,86.405975
1.8870436,84.94121
1.8680431,86.826225
1.8452213,88.56347
1.7585069,86.67168
1.8674638,84.47462
1.9419419,90.42265
1.8925717,87.07898
1.9378419,88.12269
1.8070796,89.09735
1.879894,87.971985
1.7726754,88.35646
1.7464991,87.4233
1.8194585,93.083916
1.7774029,88.989265
1.7949523,87.98068
1.6830403,90.18536
1.7254688,83.80335
1.6230371,88.049805
1.6798187,86.00512
1.610441,83.34077
1.6137663,81.20859
1.5037682,82.55935
1.6215574,88.75768
1.5240558,83.17071
1.5297097,86.676414
1.4531054,81.0312
1.5685804,87.9916
1.3863237,82.34697
1.5344336,84.164406
1.4179065,84.54529
1.4472629,79.39621
1.472516,81.10653
1.3770754,80.36609
1.3229487,78.84535
1.3188363,78.548294
1.3325049,78.19916
1.3432072,77.84606
1.2365848,75.35771
1.3343937,78.50427
1.3746824,76.97937
1.2665496,74.939766
1.2760962,76.532845
1.2848173,74.975914
1.2054149,77.20542
1.1248127,75.54367
1.0665404,70.15237
1.0335504,67.44295
1.0791283,69.133835
1.025771,71.12702
1.0499161,71.78629
0.98972017,68.952354
0.8669842,76.30798
0.83759797,68.50918
0.7816224,72.755905
0.8629612,67.38001
0.8081357,66.076065
0.87377733,64.8632
0.7165254,63.64819
0.8120537,62.53669
0.7789971,64.58369
0.7144829,65.54115
0.6838355,65.39044
0.74190265,65.0794
0.69926697,62.679436
0.71692085,60.972694
0.6810999,63.240253
0.71125627,57.230152
0.6979935,63.603302
0.73072743,61.334675
0.6003253,59.74165
0.55504596,58.707077
0.5708904,59.95151
0.53671616,58.908215
0.48529568,57.932533
0.46704936,61.610096
0.47709954,60.712975
0.35518375,59.79184
0.39676696,60.014706
0.4572894,61.312897
0.33067703,58.852825
0.31307888,64.26024
0.31401294,56.62074
0.23441151,64.06425
0.2299232,63.15724
0.23731962,60.239243
0.22518544,63.19181
0.20783813,64.07697
0.34671158,64.77508
0.22546095,63.366745
0.27806413,66.617874
0.2446807,65.157135
0.31923357,66.09665
0.46918482,65.669655
0.51032,68.90112
0.51191974,64.65327
0.6586446,68.99556
0.7350475,71.58113
0.7458528,73.84568
0.69008005,72.2458
0.88355184,71.570465
0.96720564,73.1544
1.0789949,73.45974
1.0972592,76.62089
1.200539,77.17451
1.1528337,78.16039
1.2422389,80.514336
1.3617295,79.5163
1.2693548,80.273895
1.40268,79.93598
1.405125,80.34515
1.367196,80.6473
1.5426717,86.719055
1.386905,82.55219
1.4772236,86.989845
1.5231056,83.69195
1.5443575,86.35762
1.5031661,88.9814
1.5185571,89.100296
1.4905847,85.676414
1.4530451,87.33852
1.4918792,88.601204
1.567168,89.32886
1.4410534,89.903694
1.5530236,85.342354
1.4607855,85.95796
1.4855596,89.77291
1.4448898,86.726875
1.3827066,88.74298
1.312627,86.78012
1.3589057,85.03741
1.3084617,90.20984
1.2790207,83.10753
1.3051895,84.94511
1.2259262,83.21886
1.2222955,86.73519
1.2338731,87.98358
1.1781712,84.84733
1.1282955,86.95529
1.1160877,79.78177
1.0557435,83.240265
1.1225457,80.99096
1.1887507,84.946236
1.126036,81.6468
1.0085937,80.88161
1.055529,82.979614
1.0567892,83.54181
1.0060188,80.924385
1.0722181,80.80712
1.0182868,81.358765
0.9913142,76.79037
0.9344124,79.98687
0.87348264,73.65552
0.9273544,80.35763
0.8832108,75.32122
0.87206,72.04769
0.8535385,78.056206
0.85597765,73.10757
0.8244969,79.15524
0.73984665,76.66593
0.7543279,74.17517
0.75912803,75.45219
0.62977934,66.52443
0.58224434,74.34225
0.6542648,73.938675
0.63469046,69.1622
0.5847844,71.243774
0.54821587,70.6938
0.5510466,67.44505
0.36946836,66.32548
0.467991,68.51054
0.4842455,68.07765
0.39439076,68.25961
0.39287364,66.00227
0.49381799,64.01517
0.39805573,64.336044
0.3457213,66.11821
0.40624508,63.591946
0.41775936,66.82944
0.43003207,65.67324
0.30380288,64.18961
0.46811795,61.33237
0.35735402,61.562405
0.35382476,64.80008
0.22189909,62.445076
0.24621975,60.8841
0.28958964,60.061405
0.33265996,60.653114
0.28926885,55.935867
0.26859498,61.550026
0.22646914,58.67634
0.17417675,61.45232
0.076690555,60.77969
0.056143697,59.69925
0.10481496,61.393394
0.10035474,59.84613
0.18216763,60.89588
-0.058957163,61.348927
0.03277579,59.42909
-0.1110452,58.447636
0.0046900804,65.246735
-0.06209777,60.46288
-0.07926278,65.50784
-0.0631299,63.128517
-0.06612648,59.336884
-0.027088026,62.257565
0.02426532,66.15953
0.03866366,67.47158
0.15925491,66.09018
0.1686036,65.54973
0.24120484,66.59263
0.33097893,69.00295
0.4159183,70.47996
0.53002113,69.73888
0.5917798,72.33944
0.6036235,70.34043
0.67172104,73.18675
0.73399955,73.21045
0.8385049,72.36615
0.91463786,74.90462
0.9958434,77.822105
0.92846984,78.03816
1.1306661,81.52327
1.0406597,78.81115
1.1041695,79.66528
1.2218636,84.47687
1.2891648,84.19113
1.3617606,82.88876
1.3150352,87.45799
1.2729381,81.66533
1.3439602,81.97783
1.3112806,86.78445
1.2996758,86.30602
1.4265757,84.24745
1.4045539,84.484604
1.387085,86.42451
1.3540311,87.04457
1.3783128,84.36212
1.357109,90.1801
1.3946824,92.36142
1.4644442,88.28682
1.3096211,90.6772
1.3752843,88.32833
1.2790087,92.896065
1.3417219,82.799934
1.2454145,84.066635
1.25972,88.3052
1.3011489,85.299576
1.1927845,87.94031
1.1688474,86.85838
1.1501015,87.07503
1.2365813,83.60666
1.1518348,85.22977
1.1999369,87.15282
1.1549151,83.239456
1.14496,84.94971
0.99140275,81.14061
1.0676047,84.55665
1.0490198,80.95578
0.9564868,86.9641
0.98456025,82.44134
0.885434,81.954636
1.009215,83.49069
0.9190112,77.77043
1.0034429,78.23444
1.0028032,81.356995
0.99520075,77.552505
0.9446275,76.95069
0.83979315,76.128784
0.9495973,75.41876
0.9727834,77.14702
0.88359845,75.467636
1.0254722,73.563126
1.0021503,68.76124
0.9223655,71.70971
0.9304731,73.16813
0.85701036,73.01335
0.86212105,74.09258
0.7751812,71.49727
0.7719841,71.47053
0.7045296,72.34599
0.78865033,69.620995
0.5501224,74.1441
0.5028443,70.08351
0.5668716,72.43666
0.60978615,67.63245
0.59400576,68.54602
0.52657723,69.29379
0.47037548,68.68704
0.51505625,66.10113
0.52998406,61.546665
0.409354,65.37918
0.48952442,66.22177
0.46118143,60.363934
0.5927345,61.538265
0.57950956,67.04533
0.4657279,64.40681
0.36585596,61.32068
0.5658759,65.568695
0.48118922,60.380093
0.5724781,63.104057
0.5670209,61.80351
0.47293088,61.458256
0.39716402,63.47779
0.37627012,65.702
0.3189788,61.366463
0.384822,60.878326
0.31801447,58.716625
0.31501776,59.87268
0.20650896,62.881264
0.31236103,59.391994
0.24307254,59.225746
0.29194954,60.31757
0.17833704,59.224327
0.24877095,61.328526
0.1967694,59.804276
0.15173422,55.141674
0.20158352,63.145824
0.25776112,64.97794
0.22198334,62.56648
0.20882411,63.559143
0.3102134,66.39959
0.4238985,66.2964
0.4255839,70.231
0.52145827,66.96961
0.50700897,68.06343
0.71920973,74.455765
0.62891144,68.20425
0.76936096,65.77423
0.975385,67.595604
0.82984304,72.36436
0.92177695,79.17858
1.1224098,73.66242
1.1700578,76.59641
1.2397577,75.47217
1.4450933,79.6596
1.3425939,79.45778
1.3563874,76.86023
1.4374115,76.010414
1.5930552,81.026245
1.5114349,82.75924
1.6236285,80.26657
1.6049738,84.12474
1.6187758,84.227394
1.618265,83.18756
1.553647,85.370186
1.6982446,83.07884
1.6175332,86.21253
1.7781196,84.4098
1.6973623,88.0943
1.8084939,83.074646
1.7908767,91.36916
1.7306883,85.45675
1.6608782,86.01838
1.7799112,87.850586
1.6386839,89.04091
1.7654599,90.03664
1.7179524,90.3542
1.7017249,87.03834
1.7790416,88.7208
1.7068928,89.566605
1.6077894,87.43641
1.5719968,84.34259
1.7248418,84.84608
1.6628759,86.653145
1.6431128,84.79712
1.5658678,87.76951
1.6035303,86.915825
1.5266452,85.083916
1.448352,85.76388
1.5343914,82.28957
1.5469717,84.15522
1.429976,79.88192
1.4467083,78.42606
1.4738212,82.172
1.2703044,80.794266
1.407233,80.56247
1.3972995,78.95374
1.3803961,77.45716
1.3312614,76.045876
1.3670384,77.33778
1.3856934,80.69848
1.3690494,80.70074
1.3500242,76.761
1.2846522,79.03539
1.3529239,81.586685
1.3613069,72.19739
1.2628444,74.51069
1.2443216,72.91271
1.2737985,76.189705
1.2297252,77.73451
1.1992962,74.103874
1.1933166,70.936966
1.136727,75.051926
1.1785396,76.40791
1.1840595,71.30146
1.0502684,72.366714
0.973786,70.2452
0.9320001,67.64163
0.9607865,66.8441
0.9740135,70.130394
0.8947682,69.54332
0.873223,70.12153
0.9453978,66.918274
0.8810095,66.9753
0.8724475,70.28813
0.8530126,66.625305
0.9545063,65.417816
0.86331123,65.92339
0.8368344,64.131485
0.8585987,63.56234
0.88601243,64.39528
0.9187128,58.523533
0.8626834,62.439747
0.9250532,57.921066
0.8693857,63.694717
0.8501892,59.07376
0.802262,61.15659
0.8433599,59.014263
0.82973766,60.26823
0.7065117,62.81085
0.8855787,59.78402
0.60576415,61.46393
0.686643,55.550148
0.6238963,59.970196
0.63779324,60.185547
0.5125095,59.696064
0.60407305,57.925285
0.60188735,62.292168
0.49655974,59.373325
0.6421,60.11504
0.5225715,62.116447
0.5632597,61.191654
0.51453143,56.7996
0.5043429,65.22321
0.601108,67.03418
0.70970905,63.87965
0.7517385,63.30312
0.68257946,66.577255
0.8451203,65.72126
0.76917493,66.35087
0.89106566,68.334656
1.114251,69.312805
0.9767726,70.3346
1.1770474,69.10771
1.1236472,68.83053
1.2179444,70.72136
1.2968868,74.75781
1.4020957,71.49816
1.4613224,78.52142
1.5108788,76.49381
1.593628,79.500786
1.6334621,80.58942
1.6407188,81.68628
1.679748,80.69761
1.7832731,81.23866
1.7354964,77.74029
1.8310082,82.358154
1.9461132,82.56058
1.8126441,80.75201
1.9106748,78.426445
1.872984,84.10657
1.9447094,82.94633
2.0644503,87.46411
1.9811604,89.09573
1.9929166,87.350975
1.891781,86.11812
1.9771466,86.570885
1.9665389,89.7176
1.9279065,90.54338
2.0015047,88.27194
1.9002202,90.01441
1.8961616,87.79576
1.7767986,90.57967
1.8829898,84.90748
1.9304092,87.53205
1.7745705,84.77426
1.7775155,86.29165
1.8376971,87.00268
1.7645707,89.86651
1.7235272,88.150215
1.6781875,83.93876
1.571944,81.95475
1.7196376,84.58898
1.5871032,85.21657
1.5086917,82.19828
1.6442431,83.94875
1.5924743,85.83715
1.5756803,86.47636
1.5740228,83.76656
1.4626057,82.76093
1.5297863,78.88543
1.5747352,77.10292
1.2941921,79.55332
1.4547838,81.813835
1.5486854,80.1281
1.4118947,81.663414
1.4515126,79.87163
1.3008431,75.71047
1.4177613,75.6028
1.3489228,78.17006
1.3662138,78.18784
1.3188769,74.87529
1.3582686,77.38057
1.255523,71.37428
1.2611892,69.674706
1.318342,79.24568
1.3337373,73.256775
1.1846179,74.495
1.158038,70.288155
1.1576905,67.83743
1.095259,63.86501
1.0136561,72.95516
1.07359,69.69185
0.996262,71.08255
0.8637918,66.78882
0.89750105,70.01115
0.98233867,67.214424
0.9513048,70.86207
0.8979669,68.3274
0.84411114,65.86651
0.9330366,64.39362
0.8731888,67.6749
0.7858139,65.100105
0.8464961,64.74469
0.6899865,62.670227
0.8964875,67.69349
0.7373266,63.603416
0.8906561,58.47618
0.8238794,62.075993
0.7823546,60.92697
0.80187225,62.38578
0.8197009,60.44969
0.76717794,59.450832
0.62478846,62.88571
0.59351766,67.58508
0.62508136,57.99194
0.62607753,58.159378
0.62962943,59.951904
0.61094373,60.787052
0.49524444,57.463165
0.54854167,59.13365
0.4616285,61.056957
0.45117307,59.244503
0.52118325,63.704205
0.46742254,62.57661
0.39834297,65.81856
0.34069967,61.729908
0.34188142,62.45432
0.3816685,63.67549
0.4181685,62.84898
0.46205106,62.342583
0.51953524,65.92863
0.3448856,67.02118
0.5214242,64.63391
0.627951,64.68779
0.61039597,73.22001
0.65382445,71.04972
0.9014267,68.175125
0.94697875,73.72684
0.9512235,72.33029
1.0606723,72.69146
1.0963776,72.33562
1.177254,72.433846
1.1798456,71.646095
1.2892447,80.16153
1.3609593,79.33661
1.3680707,76.37023
1.3954737,80.14629
1.5184984,81.364494
1.4735786,84.18695
1.5869238,79.33009
1.5186212,84.6078
1.5718638,84.089005
1.7521086,81.96284
1.6937392,82.37091
1.6494938,87.632675
1.7162393,87.93336
1.5744334,84.01885
1.6986393,88.17247
1.7318681,83.52959
1.7289274,89.1039
1.672981,87.85083
1.6263372,86.85099
1.6318595,84.768234
1.6431181,87.82023
1.6554765,89.50129
1.623368,86.62375
1.5069549,82.01912
1.5456371,88.59642
1.5669149,88.666275
1.5256647,84.54244
1.54282,89.23623
1.4621812,86.00509
1.5082995,90.233376
1.3635666,85.154305
1.3687967,90.5625
1.4329665,81.423965
1.2798903,80.96641
1.2365222,83.03857
1.2496538,83.92699
1.232009,84.00013
1.2002993,85.07792
1.0978826,81.71524
1.2403193,88.282166
1.1961956,84.54237
1.1223361,84.42928
1.2347572,82.50612
1.0851687,79.76059
1.0314276,80.68121
1.0618619,81.06524
1.0525637,78.966606
0.99591887,75.54148
1.1816105,81.001274
1.0339851,80.90393
0.9779804,75.14445
0.9508069,79.06358
1.0073372,72.79373
1.0109195,73.73902
1.0320894,74.41653
0.90684384,73.958176
0.8735169,72.940475
0.9489767,69.920105
0.7978164,75.423706
0.8539922,70.054634
0.68382156,69.5141
0.7733525,71.072845
0.65534425,67.09691
0.58405924,74.18332
0.7542001,69.64616
0.604268,67.00194
0.56336814,69.598045
0.39675996,70.54588
0.5471956,68.13408
0.41992325,65.810844
0.42602545,67.8817
0.39474612,66.75415
0.48444062,60.568985
0.41165942,61.877335
0.40515527,65.568825
0.43952656,64.03756
0.3929426,66.037155
0.41104886,64.95373
0.34748685,61.960995
0.40811044,64.36824
0.4100376,62.29052
0.417675,63.335114
0.3949373,64.89123
0.32289073,55.69734
0.27608234,58.66857
0.20360444,60.056667
0.2770376,61.470375
0.3050696,60.044075
0.22300118,61.115795
0.22941561,56.894615
0.1667921,60.232292
0.09172974,61.831253
0.0837018,56.61214
0.09375678,60.601486
0.0033202213,58.359844
-0.029159484,58.846638
-0.03438338,62.02967
0.015107248,61.752842
-0.16772597,61.20176
-0.08353821,60.86231
-0.025435654,67.816154
0.13819088,64.11004
0.07275183,62.175575
0.08379458,67.59165
0.18874209,66.17668
0.14266898,65.558846
0.2194831,69.79591
0.2711962,67.3445
0.35118198,67.89158
0.45315748,72.314705
0.51530397,73.092926
0.6746282,69.50017
0.70245063,72.28153
0.7735911,67.42006
0.86476153,76.18297
0.849127,80.62146
0.9287391,78.33881
0.99366033,80.14469
1.1061376,77.06388
1.058317,77.944084
1.1972059,87.31058
1.2530293,79.6039
1.2087456,81.69139
1.1980613,82.87431
1.2434547,80.86443
1.2741318,79.34753
1.3758739,85.8084
1.2549757,83.21392
1.390396,82.518654
1.3818445,90.66013
1.3768452,83.68195
1.2726237,85.286705
1.2939327,88.127205
1.4112766,88.55593
1.4408154,88.305534
1.3622502,84.87179
1.3998846,91.67728
1.3901151,89.633606
1.3053542,89.20159
1.3222753,86.42407
1.3894938,88.40598
1.2725497,88.52949
1.1687865,84.8327
1.1278429,82.37097
1.2172159,85.52652
1.1442109,85.5433
1.0757385,87.446556
1.1155907,88.121574
1.0255648,85.09005
1.1794466,80.22081
1.0153002,79.965485
1.0615216,83.68641
1.0366912,82.404495
1.1226656,82.7237
1.023048,84.2194
1.0350252,84.33852
0.8298726,78.58045
0.9117604,78.049065
0.9534946,80.25868
1.0156678,78.55005
0.8525878,77.22119
0.88755095,76.43329
0.8689255,75.03425
0.8822161,78.79676
0.9222719,74.63907
0.952525,77.04988
0.8898691,79.96516
0.81510884,74.39099
0.90768236,73.93552
0.81701344,76.5372
0.76951754,74.948105
0.7344978,74.780975
0.71594405,73.663994
0.5497138,73.20874
0.7306103,70.54119
0.53592134,69.71489
0.6177653,73.92969
0.6160955,68.839424
0.64985543,69.45594
0.578314,69.32214
0.50190717,67.21136
0.4966946,74.58277
0.4174102,62.809063
0.40601757,65.32279
0.42583573,67.20636
0.39937487,65.53523
0.38643286,65.99211
0.42063168,68.08928
0.45240137,58.412777
0.27902022,68.60112
0.30083933,64.73468
0.3510771,64.285255
0.441385,61.221992
0.29785982,64.92441
0.36650005,64.83062
0.4628236,62.34044
0.49108425,63.95408
0.37926963,58.618572
0.34135708,55.022926
0.31316587,60.429855
0.36418632,59.58415
0.34524912,62.24894
0.32904315,59.745453
0.2206123,60.08011
0.28337857,60.60512
0.2095272,58.10438
0.16369878,59.389885
0.16879018,61.71921
0.053801097,56.95667
0.27012727,56.4153
0.14719461,60.83978
0.02355071,63.849724
-0.0063276445,63.094658
0.022588836,61.02112
0.04602493,64.34588
0.06967728,64.89176
0.1375087,63.266987
0.18738465,63.70938
0.25489005,65.03561
0.26977012,64.05969
0.17086953,67.74783
0.3547279,65.90597
0.36233667,67.02389
0.4932229,68.786934
0.54160684,68.65108
0.69611657,70.063194
0.73726404,70.99443
0.7384321,73.684784
0.8799672,70.787445
1.0493665,74.014915
1.0003616,76.12445
1.0613174,77.984146
1.1139259,76.30338
1.1871395,78.38341
1.2471513,81.48958
1.2225634,78.60647
1.3346882,80.07146
1.465088,82.92484
1.4345652,82.24872
1.4771703,81.08933
1.6046438,87.03527
1.5656263,82.656105
1.560075,87.667854
1.5564858,84.068085
1.5642053,82.25056
1.6786976,83.340965
1.6158905,85.53749
1.599682,86.98058
1.577434,86.9367
1.6485419,90.87495
1.486144,87.80021
1.5229657,84.85179
1.4740187,94.09251
1.6293449,89.260605
1.5086945,90.55159
1.519297,81.15909
1.402987,88.68303
1.4620682,86.734985
1.5323335,87.14751
1.373501,90.82393
1.3948405,85.97685
1.355858,87.12099
1.4451402,84.24096
1.3147523,91.07709
1.3519626,84.02339
1.3443162,84.78285
1.3774414,83.81104
1.3430476,83.70576
1.3933517,83.026245
1.3081363,82.73542
1.2614299,82.46051
1.234468,82.10941
1.2550943,81.46686
1.3227242,79.00028
1.2463427,79.306244
1.208767,81.12454
1.2328687,81.10159
1.2775574,73.23802
1.1305823,73.827576
1.2153442,77.39596
1.181848,77.683495
1.2811149,72.93555
1.1829201,79.87382
1.196398,73.70566
1.2499944,78.51932
1.1088319,74.47648
1.1557349,69.40767
0.9960088,72.33802
1.1178358,72.85631
1.0297962,69.89578
1.068072,70.703445
1.0504256,68.07099
0.96380466,67.408806
0.89460075,67.924286
0.9389008,72.294815
0.81018156,74.6312
0.81605446,68.82395
0.8771854,67.70395
0.80253375,69.8155
0.8478567,66.535545
0.72774446,58.831844
0.6845446,66.363045
0.7782692,66.647194
0.7307061,61.37861
0.7765218,62.432816
0.76214504,63.833122
0.7014643,64.16507
0.83262455,61.30472
0.77114016,64.40383
0.79259026,64.92862
0.778161,60.64517
0.7879602,57.944317
0.76935434,65.09656
0.8229622,57.03893
0.71140546,59.253727
0.7195908,61.097534
0.77307653,63.217667
0.6825829,61.95024
0.6472495,58.058117
0.6016352,58.954132
0.572258,57.62513
0.57703173,62.28953
0.52488536,59.150803
0.51907265,59.153244
0.483764,60.680813
0.34245867,57.860058
0.43715537,62.64482
0.48115352,61.09353
0.45750093,66.324844
0.42520046,63.915718
0.4566559,62.72168
0.48654085,64.20552
0.5601427,62.248314
0.5254715,66.32216
0.54607344,64.85811
0.71002865,63.468513
0.72213024,72.77541
0.83154964,64.1152
0.8443124,69.44903
0.9579951,72.069664
0.9181717,70.95798
1.0481896,70.50796
1.1766317,68.27932
1.1426215,70.951324
1.3536605,74.708275
1.4530843,71.66103
1.4852918,76.06142
1.4585553,76.11356
1.5402138,79.01499
1.70323,73.44884
1.5946324,80.764465
1.8001317,80.56295
1.7817698,79.900505
1.8809621,81.10082
1.9422299,83.454926
1.8850632,81.74507
1.8717698,84.41543
1.985709,83.14508
1.8342125,86.692535
1.9007573,87.734055
1.9605755,88.25105
1.9197596,84.60582
1.9150418,83.66359
1.9195408,87.12602
1.8855146,86.90085
1.996111,87.72926
1.8894914,89.20623
2.0040452,92.430664
1.9198322,85.78399
1.9237686,88.22721
1.9109404,88.96972
1.8539416,89.16117
1.792867,89.57235
1.7764125,89.0083
1.7440441,83.52288
1.7296957,88.27925
1.6809999,89.24528
1.7175678,84.12728
1.7147962,86.04835
1.8225219,83.4907
1.6987001,88.00044
1.7194359,81.03619
1.5942023,85.59268
1.6444774,86.96909
1.5965554,83.44831
1.6019224,83.11351
1.5309178,80.603325
1.4978908,85.96142
1.5761678,81.716415
1.5174313,82.0805
1.5190511,76.76285
1.4422269,81.485916
1.6177757,81.89569
1.4474237,77.43854
1.461478,78.37286
1.5113968,81.08178
1.4094257,78.47346
1.4591526,76.20109
1.3852552,76.63318
1.3948874,70.797714
1.4333977,76.75034
1.4147041,70.62322
1.3747045,75.125015
1.2498785,69.765305
1.1135627,74.1303
1.2634463,74.004845
1.1750536,73.53537
1.1370866,66.657936
1.2296432,67.47796
1.1865637,70.22695
0.9612637,72.58933
1.1073507,63.952625
0.97306406,63.851894
0.98797214,69.07893
0.95334446,66.17243
0.9603693,67.24312
0.9932354,68.17898
1.0016906,64.11165
0.8373645,66.222466
0.86458546,61.811527
0.8731355,63.08235
0.9929428,58.623234
0.8609134,65.49824
0.857935,64.47055
0.88634896,61.095596
0.8876145,65.26502
0.90359837,62.64381
0.89700377,61.16839
0.9332009,62.545826
0.8042356,61.742775
0.8286168,60.768322
0.794946,56.767384
0.7763377,60.066273
0.78272283,60.43443
0.6990788,65.49153
0.62553734,62.705677
0.7286013,58.65869
0.584093,62.162983
0.56583834,60.282772
0.49315736,58.60681
0.605568,60.2459
0.52518517,61.606438
0.49983975,66.85567
0.49900132,63.449867
0.45559165,61.007984
0.52955943,60.799892
0.5260571,65.08052
0.4488697,61.69346
0.60938746,65.19454
0.5645952,67.15803
0.6194669,64.731834
0.6719047,67.877556
0.7419213,68.864746
0.7823461,68.76601
0.909064,71.45524
0.84559244,69.17421
1.104609,71.10146
1.153673,71.45276
1.1051593,72.89596
1.3027933,77.755135
1.2904451,74.82864
1.4061868,73.19108
1.4695215,78.95737
1.5089676,77.253395
1.5411031,77.80125
1.6184261,82.309906
1.5269524,82.51928
1.6686009,82.46513
1.6801494,78.52868
1.6155972,79.17346
1.7722877,81.36503
1.829955,85.2895
1.7633843,88.077354
1.7058183,87.58176
1.7404974,83.37167
1.7842461,91.01367
1.8613467,87.95579
1.9241785,89.67901
1.7974572,86.96273
1.9007486,90.6663
1.926737,85.08335
1.6629373,91.79078
1.853959,90.465256
1.8343216,87.57767
1.75056,86.231064
1.7767525,87.42659
1.7535956,88.061356
1.8076341,89.093155
1.7151004,88.89761
1.7134714,86.570595
1.5587608,84.60896
1.6940962,84.47402
1.5324526,84.753975
1.4696083,84.62634
1.4221019,81.72199
1.4734147,85.88093
1.4226868,84.27038
1.5102317,84.64662
1.4112017,83.39694
1.3839105,88.1346
1.4238626,83.74893
1.3373475,85.24161
1.2326323,81.23776
1.2493669,84.14357
1.3005403,81.63785
1.2923619,79.51552
1.2717891,78.493675
1.302298,80.57183
1.2857815,78.97529
1.213122,73.610176
1.1061006,73.41574
1.1192706,79.242744
1.187707,79.47023
1.2038285,75.50757
1.0789793,72.65129
1.1355779,76.53155
1.0114889,70.54446
1.0018959,73.59063
1.1101576,72.3629
1.1099391,74.08086
0.8689687,67.85624
0.82577795,68.42097
0.7979719,74.49063
0.77565646,65.29735
0.83527607,67.36341
0.741148,72.94927
0.72393996,71.10606
0.7835596,69.86703
0.679873,67.210526
0.5986503,65.49252
0.63299805,68.672295
0.6409871,62.379444
0.5486177,68.67975
0.6426802,69.53084
0.5583249,66.70444
0.48943755,68.181915
0.58104527,65.314
0.63350666,65.21763
0.5186078,67.73812
0.5536841,63.97119
0.6821006,61.383472
0.53891885,63.46143
0.5662833,62.011856
0.42273965,63.945816
0.5542608,60.66844
0.40946442,62.182903
0.44493228,60.036716
0.35520595,63.864376
0.35782567,60.137386
0.36692578,57.378555
0.2726449,61.10735
0.2974649,62.72862
0.30643216,56.169636
0.18334764,57.275276
0.21755204,62.534023
0.2212471,54.96307
0.14005716,64.34558
0.1902985,61.660294
0.043352805,61.48931
0.11304323,60.337807
0.035639245,60.02397
0.16124916,66.56543
0.07618613,58.29173
0.07102096,66.28565
0.14843628,65.77298
0.24284251,66.248
0.20938294,65.626205
0.3556721,65.82591
0.37563294,73.10167
0.41572836,68.28423
0.47656062,68.72571
0.62404037,67.438835
0.63351274,71.57959
0.6705995,72.1689
0.80894595,75.23214
0.9017724,73.73663
1.0927962,69.71375
1.0044899,77.308655
1.1099266,75.718575
1.1402339,77.04115
1.224373,81.04502
1.2025921,78.89051
1.3075715,78.94672
1.3686962,80.00429
1.2840192,82.32947
1.4170122,83.71762
1.1932576,86.11812
1.4212455,86.26169
1.5056974,83.7672
1.4555477,87.21976
1.5115664,84.26322
1.4399501,85.7356
1.4094974,88.53325
1.3540689,87.11818
1.4411763,86.90163
1.5088131,86.60855
1.4187219,89.791374
1.3805546,89.13049
1.4046539,89.202736
1.2837921,87.17513
1.40819,84.24757
1.3496454,87.31756
1.3419112,91.0889
1.3299394,86.631546
1.2704942,89.70774
1.2158988,85.49716
1.2449814,89.386604
1.1736779,87.4768
1.2210567,83.35185
1.2392387,83.33855
1.0678293,84.62543
1.1063255,85.73602
1.1176875,82.02226
0.9675601,80.821945
0.94026834,84.745445
1.052932,83.59325
0.9299029,80.866585
1.049319,83.47633
1.0471061,88.50501
0.9732584,82.27683
0.924665,75.47173
0.92818016,78.37585
0.8281259,83.73387
0.85567105,77.86056
0.8932025,84.871284
0.8737477,78.13377
0.82974994,75.85986
0.8094682,79.84953
0.87526345,75.28879
0.81253856,75.82742
0.8412952,76.02438
0.86940295,72.56423
0.8235797,77.351524
0.766995,72.493546
0.6706818,71.423096
0.62566066,70.28063
0.665042,74.05344
0.6597837,70.861626
0.5860965,73.6414
0.5913535,68.66411
0.5767353,69.240204
0.46229693,69.00975
0.46380463,69.06143
0.43671295,68.95543
0.38556114,67.560104
0.28390568,67.55348
0.34113932,65.19536
0.36503282,63.389313
0.35431963,65.94529
0.3056198,61.795998
0.36858234,59.222878
0.33019,64.418526
0.32491598,62.38953
0.2857246,66.53083
0.43484384,63.641903
0.32374367,59.570602
0.31830698,61.494255
0.2843505,61.463722
0.3765677,64.57024
0.2484585,58.868416
0.2337802,67.25311
0.28236526,57.135044
0.2236656,58.43354
0.19499987,60.798782
0.17230517,61.429726
0.16945313,62.333454
0.121787354,59.539486
0.085062794,54.8298
0.07887479,55.83927
0.00016116697,61.621796
0.027187075,57.82811
0.016467243,54.449745
-0.07599056,61.176086
-0.10152368,63.468025
-0.05662688,62.564537
-0.07585273,65.59413
0.010179917,61.882168
-0.06347646,63.367012
-0.05479418,63.16203
0.055642158,66.57127
0.101037785,67.26547
0.16440551,65.519104
0.2584273,65.99054
0.14296088,67.96651
0.33677337,69.553375
0.37436664,73.787
0.48429534,72.02968
0.5236739,69.88867
0.68243396,75.245705
0.71553785,69.27011
0.69902956,72.948524
0.9258149,77.451744
0.9564516,75.31411
1.0170567,70.531624
1.0573483,75.27659
1.1292008,81.56813
1.216598,79.763245
1.2536877,80.853424
1.2584594,80.811935
1.2686962,83.70533
1.3529149,84.43354
1.4110199,82.22338
1.4043188,85.63236
1.3854526,84.72127
1.5482323,82.5692
1.5553637,84.06917
1.4313455,87.384544
1.4732138,89.72876
1.5007265,87.34481
1.4927481,86.900375
1.4893638,83.29094
1.3773648,82.93607
1.4029659,89.04648
1.4782783,89.740234
1.4758626,85.407425
1.476728,86.60174
1.4443572,87.30474
1.3541464,89.54465
1.3429093,90.04433
1.3348682,88.60341
1.3829385,94.17168
1.4052856,86.78944
1.2741922,88.003845
1.2491584,84.32718
1.2539421,82.42824
1.2689048,82.378
1.1585253,86.89685
1.3089478,86.947
1.1779795,80.90985
1.2408832,82.14732
1.1577667,79.88959
1.1828995,81.10045
1.2722062,83.04109
1.2055721,79.20634
1.0989953,79.36411
1.1291432,82.807556
1.1906826,78.2472
1.1097816,76.81475
1.0610754,78.83272
1.1058906,76.99978
1.0870129,78.001396
1.1328784,81.031906
1.0513277,76.19994
1.0814344,79.124565
1.106311,74.86471
1.0346721,77.087105
1.0022967,75.28565
0.968476,74.57513
0.9785907,72.611984
0.9292951,69.28046
0.905125,71.05639
0.86447835,71.589836
0.8726916,71.40951
0.88300085,68.41489
0.7918996,69.375336
0.8175115,69.956276
0.69781667,67.91221
0.75886565,66.31371
0.7130027,66.26632
0.6787951,63.460503
0.71978647,71.44046
0.65113175,66.324295
0.70457363,70.902794
0.6454367,67.655754
0.68294114,62.5246
0.5566722,67.751595
0.6307777,65.196396
0.7034736,64.59189
0.6233687,63.14982
0.6576728,65.36264
0.63276726,63.62213
0.72404206,62.612316
0.5938193,63.316353
0.603311,61.1392
0.6213082,63.9935
0.6123264,60.72689
0.6910727,59.921604
0.60648793,59.51741
0.50930554,59.713608
0.46989223,63.143852
0.50880986,60.152756
0.4687701,61.29683
0.37993252,61.505344
0.4164786,60.89306
0.30903146,56.61116
0.39963332,63.459087
0.36233255,57.511696
0.4157122,64.416954
0.3779989,62.915802
0.26832795,61.27482
0.18612522,62.59931
0.45813358,61.498787
0.394423,67.78984
0.37851992,62.845356
0.43820724,65.43206
0.53853554,65.59206
0.6268286,64.831345
0.5384779,66.98916
0.5572849,67.84179
0.7586599,70.43319
0.6388173,69.110214
0.80447394,68.09225
0.9687929,70.511925
0.9651825,70.24539
1.091815,72.76892
1.1438527,75.00192
1.183573,75.06076
1.2247335,78.03485
1.3820033,75.17198
1.3835801,77.32064
1.4891062,78.07509
1.6033274,83.50627
1.5727683,83.5076
1.6338387,81.712494
1.5677514,80.53601
1.6331401,83.60317
1.7246332,83.70702
1.7874817,84.74881
1.7902216,81.87056
1.7598065,85.12597
1.718165,85.88308
1.8341181,86.14285
1.823547,90.70363
1.88217,87.8441
1.883547,86.632706
1.8276578,87.53832
1.836688,90.41268
1.8376216,87.40321
1.8295432,90.31514
1.885677,90.59481
1.8935536,90.85083
1.8665879,84.45485
1.8365834,90.66704
1.8455937,88.454
1.8579556,86.22993
1.789348,86.16547
1.7689574,87.995636
1.7722745,91.53315
1.8056457,83.74282
1.7065831,84.11887
1.6959072,88.66913
1.6429888,86.169266
1.6763918,85.051605
1.560812,83.61232
1.5694678,85.928635
1.5312479,83.12614
1.5067835,83.62733
1.5343812,83.18491
1.6048744,77.84644
1.4523807,79.73129
1.5034243,77.27248
1.5148759,82.93999
1.4403732,79.56412
1.5563663,80.85668
1.553586,79.27112
1.4931035,78.62338
1.321208,77.750435
1.5149919,79.538795
1.421618,80.01223
1.3634132,72.62784
1.3194584,73.42367
1.2935307,76.98196
1.3045474,74.382484
1.3517358,68.803116
1.2323962,73.63448
1.2294955,71.62612
1.279437,73.489365
1.1606283,75.452484
1.2656633,66.64588
1.174893,73.442924
1.1057693,63.563183
1.0697592,67.4754
1.0494306,74.07753
1.1202377,69.70672
0.9586439,70.164665
0.9898275,69.6121
1.0599566,68.09317
0.8535233,67.17024
0.98756707,69.61696
0.87507236,68.25982
1.0903759,63.03064
0.844037,65.2659
1.0010623,64.298195
1.0561872,60.080124
0.976474,65.36069
0.9110729,65.592514
0.9701526,60.541267
0.86855584,60.917942
0.8548517,62.228592
0.86602616,60.47772
0.8724772,60.580364
0.8749857,57.411263
0.81795746,57.69085
0.771979,60.197765
0.87318766,60.23159
0.7543652,58.759518
0.74205875,61.777977
0.73148006,61.77467
0.70279396,62.80095
0.6485299,60.238316
0.6725793,61.776993
0.5783669,59.54505
0.6050561,59.673794
0.5720395,62.110653
0.56639516,62.58397
0.6110186,63.35579
0.47002935,59.88901
0.60918057,63.993336
0.5723502,60.86901
0.57818824,61.357803
0.63653094,63.863876
0.74335474,63.616623
0.57896733,66.88864
0.79005176,66.28564
0.773153,65.466034
0.87747425,64.2906
0.9674977,69.6874
1.0038965,72.43166
1.076772,69.24954
1.1808705,72.69083
1.3198892,71.214455
1.4764152,75.97081
1.4315033,76.55437
1.519655,76.46739
1.4717553,79.08202
1.6147294,75.05143
1.6284738,78.49996
1.5637513,78.57267
1.6910527,80.61722
1.817096,82.53778
1.7298564,82.51978
1.7068558,84.03026
1.830276,83.84987
1.8341377,86.40563
1.8648304,80.69465
1.869465,88.17468
1.8535773,88.24135
1.8421161,90.23799
1.8100103,85.91908
1.8832971,85.01691
1.8761088,83.49657
1.9274216,88.02211
1.8431555,83.81753
1.9250466,89.520454
1.8794991,82.72262
1.9141216,85.868286
1.8740399,86.49995
1.7753083,87.99138
1.8184832,89.349014
1.7859298,84.90424
1.8815287,86.61341
1.8112423,87.8379
1.6873997,83.80398
1.6983001,86.30363
1.6937091,83.434
1.6846906,86.29816
1.5516615,86.62999
1.6197107,82.26765
1.5227681,89.89304
1.5836644,86.91227
1.4605315,82.56858
1.4715064,84.82942
1.4564533,83.29636
1.4330612,82.698555
1.4094045,82.45953
1.4351711,78.21716
1.4841969,79.21856
1.3571761,77.8438
1.3233461,84.46667
1.4324175,77.75915
1.3638543,81.20824
1.3765038,79.41697
1.3713667,77.89984
1.2395694,78.80733
1.3637493,77.42874
1.3911445,77.62731
1.3081031,75.90844
1.195488,76.31584
1.0770442,75.12752
1.1584084,75.09293
1.1899159,74.30304
1.1425045,70.630455
1.0901008,74.57732
1.0307875,72.994545
1.1332532,70.71227
0.96492535,75.5243
0.94805986,73.63916
0.952027,72.64088
0.8323957,72.17749
0.76877266,69.11706
0.7529108,66.07265
0.83775526,65.18001
0.7062044,64.97902
0.69445676,63.39552
0.7008286,64.21269
0.7789381,68.35555
0.6544364,64.911446
0.6796848,60.65154
0.6640584,61.472427
0.70339596,65.1688
0.67655265,62.13867
0.7015148,68.487434
0.67895657,63.44335
0.7735936,65.69429
0.61093414,61.647766
0.5968651,57.30991
0.6618385,59.023796
0.65076935,58.14206
0.52748775,61.634205
0.6670115,64.68483
0.38127467,59.360813
0.55735576,59.935364
0.44200596,58.84669
0.33462957,60.458942
0.30763653,59.601894
0.3288453,60.65324
0.2351147,59.102642
0.24339432,61.963516
0.21050496,58.383247
0.23296793,64.196976
0.23491946,57.31511
0.18365474,62.562176
0.30542803,62.443
0.10833699,64.12542
0.26566055,64.03525
0.27302137,59.736355
0.31289524,65.40107
0.3482263,67.18429
0.47396767,66.05543
0.4665243,66.05502
0.5569178,68.57805
0.65217847,75.443726
0.733784,70.00276
0.85817873,73.860855
0.8210839,70.73336
0.86376935,70.751335
1.0349284,74.85823
0.98187196,71.96235
1.1220471,76.685005
1.1530997,75.642365
1.2149891,75.71441
1.2463964,76.34972
1.3073808,74.664185
1.3078344,74.22823
1.3858451,80.019485
1.4922633,82.9958
1.437365,80.82183
1.5600321,79.50692
1.5199299,85.68441
1.4448748,83.263176
1.3932858,86.83776
1.6201432,83.01172
1.554931,89.636566
1.4752482,86.9726
1.4866759,84.269875
1.3517364,87.612595
1.4880248,87.49171
1.4707062,87.50258
1.4743567,86.56531
1.4672529,88.27425
1.5112097,89.40829
1.4351656,88.368095
1.5266838,91.61558
1.4685087,91.96653
1.4354137,86.690956
1.3701178,87.924675
1.2693994,89.00708
1.3416665,88.65361
1.2531005,87.254776
1.237017,88.53919
1.2910582,85.05069
1.2388909,84.45336
1.2855623,85.581924
1.1549827,86.86428
1.1594803,83.488365
1.0396342,83.2045
1.0011908,81.288086
1.0646065,84.9342
1.042101,84.39995
0.9685056,83.12868
1.0054414,74.44642
1.0250894,81.47407
1.0616026,80.50748
0.98759717,77.035446
1.0342647,75.20316
0.9755718,77.77788
0.9577373,78.11427
1.0263746,81.02056
0.98161745,75.12953
1.0018566,81.58931
0.86794347,74.55355
0.8781212,75.3295
0.803909,74.41016
0.89689475,73.89092
0.8604207,76.50656
0.7123015,74.4821
0.7002151,74.239174
0.8403823,75.66643
0.69074893,70.52796
0.5025568,70.2609
0.6063729,72.001015
0.5200446,72.57913
0.5994254,68.26556
0.57430035,72.40186
0.47642678,71.38287
0.48472208,67.06579
0.37340668,70.202286
0.41128013,62.253826
0.41505113,69.2188
0.26135752,69.66586
0.325724,63.359264
0.2226469,63.306034
0.41611654,63.15758
0.4277385,69.458694
0.32299197,65.083
0.32069045,61.643005
0.35706857,64.37667
0.20655769,60.135048
0.3659513,57.920593
0.33001208,60.19284
0.35757375,64.9104
0.26277292,63.44327
0.4147941,58.16016
0.25653046,64.82864
0.30085143,60.396122
0.14946692,59.80959
0.21687384,58.071087
0.04174763,55.8354
0.24768887,60.86739
0.0933947,62.029324
0.022222346,57.62712
0.065227926,61.577053
-0.005322022,56.09208
-0.059988853,57.19111
-0.02897442,57.598217
-0.02804027,58.74016
-0.03609126,62.33586
-0.00728285,59.69195
-0.026436158,60.630558
-0.06574416,63.057198
0.058742024,61.88547
0.022112954,62.617012
0.08104973,66.63901
0.16743188,65.19335
0.2781874,70.290405
0.3934644,68.71297
0.34405202,67.302734
0.34550664,69.43835
0.40628508,76.084724
0.5581401,66.01743
0.649442,69.076675
0.7014241,75.21729
0.77279645,72.418106
0.77925974,74.30009
0.977135,79.441475
0.99837434,80.79097
0.99454117,79.397156
1.0211641,80.62872
1.0913936,79.70764
1.1252866,83.81231
1.1752019,82.850235
1.2493074,80.31432
1.3389072,81.72475
1.3912369,81.183754
1.3017797,85.52904
1.3677627,88.781204
1.4304582,90.28353
1.3314781,84.68622
1.3779377,86.65453
1.3245902,90.13518
1.459457,88.00151
1.3974744,86.58798
1.2980824,87.91919
1.4432981,85.67905
1.3840543,86.988976
1.4132917,87.825294
1.4932159,87.03885
1.3126047,86.94926
1.3661596,89.672226
1.381195,86.22839
1.389649,84.64189
1.273661,88.72021
1.3701081,88.42008
1.1624967,87.44752
1.1575432,86.02251
1.2075706,86.67128
1.112114,84.39218
1.066376,85.28653
1.1397245,84.71227
1.1294426,82.55627
1.0729611,83.1706
1.0290581,84.79591
0.92156035,82.23071
1.0613985,81.25543
0.9860405,80.78366
1.109646,79.86947
0.9110526,78.41664
0.9802918,82.216934
1.0130929,84.48178
1.03646,80.90618
1.0960724,77.51193
1.0537176,78.29222
0.9384906,76.85402
0.9433537,75.170586
0.9770844,78.58152
0.91147476,78.34644
0.9907013,75.86627
0.92826456,70.53893
0.9450438,74.78922
0.8011217,78.053535
0.9225116,77.359505
0.79254085,75.5272
0.69882953,72.428375
0.6904644,71.44718
0.7018546,75.76123
0.70066947,72.16098
0.6424783,70.90304
0.68065053,71.12851
0.5597624,64.64053
0.57574797,68.64078
0.588626,70.058044
0.48576397,62.984406
0.58525056,65.506516
0.39215654,60.89334
0.51408046,66.93296
0.44812295,66.75021
0.58019227,61.881783
0.4416063,66.04784
0.51530904,66.13682
0.433575,64.50389
0.5315423,64.33277
0.47810578,61.860714
0.5187612,56.56657
0.47143614,63.298405
0.4876538,64.7691
0.45503283,60.110474
0.5036997,62.6252
0.4786745,63.106003
0.4406685,61.16805
0.3706792,61.435722
0.42780125,59.298645
0.47063065,60.695896
0.32177317,58.427486
0.32275572,58.99596
0.34335965,54.986237
0.2779995,61.02488
0.26576453,58.990223
0.088052064,59.45391
0.22713464,62.11439
0.2177884,60.470074
0.20335443,61.284946
0.19233279,62.87081
0.15623853,63.478714
0.13148849,60.532387
0.18993199,63.745842
0.2582764,62.964836
0.34781674,65.90634
0.38746655,65.64616
0.48623502,62.39721
0.44146413,68.57373
0.51932824,70.15338
0.7074299,65.45558
0.76577383,74.82732
0.70425785,63.147278
0.7869155,72.63094
0.99876416,70.665695
1.029791,77.664276
0.9455058,73.69308
1.1755147,71.721
1.1288484,80.71477
1.2064081,80.21131
1.3368523,75.98254
1.3614928,77.91038
1.4736696,82.40197
1.4038811,84.16774
1.5967144,80.71682
1.6011329,77.35268
1.7260879,86.15173
1.5800289,78.6734
1.7605484,82.853004
1.6380185,88.26035
1.674866,87.64347
1.5560223,87.65404
1.7234353,85.82013
1.7230887,84.33408
1.6894629,87.56519
1.8108869,89.97465
1.7503058,87.41416
1.7045702,86.92293
1.7197934,88.21171
1.7259606,85.09158
1.6697036,82.39246
1.6698493,93.21118
1.7753612,92.65356
1.6745665,89.025345
1.6751373,87.499214
1.6082569,87.379135
1.7299762,88.06867
1.6232775,83.90301
1.5425886,88.42408
1.5917672,82.24586
1.4982116,82.85833
1.5322706,84.00739
1.4781638,85.34255
1.5224767,85.42543
1.5165083,88.3861
1.470014,84.3858
1.3366865,81.72435
1.4710532,80.397064
1.4268104,81.968956
1.3432367,80.79853
1.404578,76.69143
1.3615451,82.49135
1.4135282,77.20981
1.3769459,76.30722
1.4060407,75.27553
1.4266907,80.07989
1.2856046,79.934845
1.3447465,78.66618
1.3350097,71.97931
1.3485148,76.93934
1.2214227,75.02563
1.3932284,74.1922
1.2510585,75.818794
1.344578,74.836784
1.178065,73.2143
1.2096148,74.46996
1.0746065,73.98559
1.1406096,69.045296
1.2122543,69.92729
1.1599559,72.04053
1.0750659,75.936676
1.0180417,71.18401
1.0194409,69.624725
1.0186989,69.88427
0.9708731,65.09613
1.0434445,65.18035
0.96080506,65.26523
0.92832124,69.42964
0.87556756,64.70367
0.9460661,64.42843
0.8514156,66.77305
0.8863804,67.40705
0.9236885,64.2159
0.86740214,64.158844
0.8470868,64.11432
0.91013867,60.367756
0.9380943,61.644512
0.80887085,63.971603
0.83032566,62.621857
0.84950894,62.826702
0.8243182,60.267822
0.890652,60.136494
0.7995937,61.1794
0.82528305,57.06282
0.8252141,60.293606
0.7126187,58.17042
0.6213373,60.381264
0.7601134,61.512283
0.69385505,61.830097
0.69259375,65.13641
0.6256898,56.462
0.52779233,64.15484
0.44990483,60.873806
0.56421435,61.967415
0.54586893,57.36827
0.47067255,61.824467
0.5790242,64.279434
0.55699724,61.16836
0.5690757,60.03454
0.57507885,61.24972
0.67272884,65.888885
0.58821356,65.72854
0.68480444,65.93508
0.86521566,64.83988
0.76969135,68.47266
0.92815405,67.73226
1.0462166,69.45009
1.0754627,68.080215
1.1141417,71.012146
1.1355277,70.076195
1.2593662,71.91439
1.3452828,71.885895
1.400468,73.67245
1.4629049,73.37334
1.492156,75.75414
1.5210286,76.74436
1.6380949,76.95576
1.5971632,77.15825
1.7140086,79.40623
1.8809767,79.61723
1.8328394,83.30464
1.8390505,82.825676
1.7663393,86.846016
1.8164747,86.74664
1.9372376,83.25288
1.9859687,88.034424
1.9426672,84.06742
2.0499256,84.30979
1.9273323,89.81931
2.0278234,89.02838
2.0212824,87.79949
1.9921273,87.72122
1.8568189,85.127754
1.926491,90.28691
1.816818,89.91573
1.8140174,86.58269
1.8852538,88.8989
1.9210848,88.60847
1.9251863,88.24099
1.8635103,88.46566
1.8453567,87.37006
1.7466209,84.68498
1.7116888,85.79041
1.8041352,83.80651
1.6681402,86.90689
1.6199545,81.57857
1.7490244,87.29999
1.5910752,86.916504
1.4984391,83.911125
1.6006899,85.20797
1.6020305,79.137566
1.6044006,85.94149
1.5425267,77.71538
1.6203059,81.632996
1.5384235,83.16442
1.5486022,78.10703
1.4427452,79.133934
1.5065178,78.70876
1.4496554,74.712494
1.4513279,79.77842
1.383644,77.95896
1.488124,76.184525
1.351787,76.34093
1.5711726,76.567566
1.4544206,75.22284
1.3689169,77.80484
1.3717588,72.92741
1.4365954,72.5539
1.234561,71.01714
1.159779,74.00649
1.2179271,72.311195
1.3032581,72.467674
1.2872771,72.752945
1.179602,71.48638
1.169965,71.16489
1.0355674,71.433914
1.0450611,72.23812
1.0116068,72.52582
1.0591329,68.20403
0.9007751,76.18864
0.9433053,69.724625
0.8761924,67.66277
0.85413843,67.96553
0.9338979,68.01864
0.7754133,64.58711
0.7614228,63.93652
1.012658,66.46023
0.7553075,64.962585
0.7948663,67.20075
0.76623726,61.043747
0.79801834,63.193882
0.8972464,61.348053
0.8012253,65.59719
0.82138133,62.019035
0.7411522,61.86591
0.7260791,60.64577
0.7417366,58.75886
0.7567508,57.46831
0.5672763,60.441174
0.58473563,59.87973
0.6729919,61.607227
0.638642,62.321335
0.5570626,56.19925
0.59712046,56.28803
0.51867324,61.886097
0.5937736,57.77808
0.46093735,58.755398
0.4543937,64.06876
0.3669185,64.090324
0.41908857,58.328716
0.4025091,61.76203
0.34849754,58.98976
0.42443785,61.80808
0.38198292,63.500828
0.41343036,64.320045
0.4313293,61.403667
0.48398542,65.13901
0.53083515,64.16459
0.52491665,66.8139
0.5974003,65.70671
0.562422,69.40969
0.6801618,72.17861
0.84326714,64.940445
0.8387145,65.48256
1.0440984,67.30518
1.0460818,71.47781
1.0915129,76.9176
1.1509767,73.921684
1.2625959,73.85356
1.25414,75.59836
1.3500504,79.45471
1.3473513,77.33061
1.3822297,76.14029
1.3971356,83.57235
1.4991084,78.95827
1.4975,79.42984
1.6593724,81.4847
1.5046171,83.74377
1.6997468,82.02424
1.60793,82.34165
1.6783793,81.150696
1.6477181,87.99471
1.6922688,84.64347
1.7942175,89.86828
1.6609306,83.51015
1.6844714,88.40964
1.673291,86.06968
1.592608,90.362526
1.7543136,82.957306
1.6652639,88.17185
1.6546445,85.808365
1.5605748,86.5394
1.4762077,86.83785
1.6563514,88.00362
1.5595927,83.042595
1.5221691,87.18345
1.4857514,86.436455
1.5946958,85.88907
1.381935,88.198814
1.3423672,88.188866
1.3002465,85.14691
1.3625287,85.670944
1.3624835,83.60747
1.2848703,83.03887
1.2608242,85.72434
1.2371666,81.515915
1.2122904,87.72129
1.207088,81.748276
1.1936955,83.14321
1.1380384,80.548355
1.1465821,81.57598
1.1458406,77.85136
1.1410501,83.57395
1.1708529,82.83409
1.1421812,82.22779
1.0619648,77.47368
1.1000979,78.61483
1.2029423,82.88392
1.0729609,73.938835
1.0825791,79.58533
1.0561103,76.53518
1.0206212,75.671814
0.97746754,77.24709
0.9490568,76.1233
0.88333017,76.508385
0.9105994,73.64498
0.89389974,74.48712
0.8005033,69.86905
0.80940175,70.502205
0.7815162,73.59904
0.82059216,72.24616
0.6692402,68.88989
0.6393625,67.01131
0.64797634,72.19286
0.4577079,68.30325
0.55969286,67.34548
0.5479405,66.60953
0.4972477,67.83167
0.5435627,64.0135
0.4624395,68.441154
0.38860777,65.318954
0.38362667,63.820602
0.45156547,65.02268
0.43691733,66.730515
0.42723256,68.38128
0.36141226,65.05864
0.40504375,62.199364
0.40893382,60.049763
0.36868963,58.250416
0.4502974,58.337658
0.37015113,62.021584
0.30675885,62.586464
0.30313057,66.03683
0.3019111,59.385742
0.28527173,64.55673
0.34037384,58.47322
0.25861815,56.90149
0.20548853,57.074764
0.21434426,60.637733
0.13997473,58.93665
0.05222272,55.841564
0.16101621,61.886986
0.08547521,57.145897
0.11070697,61.610058
0.015071329,60.182613
0.017049596,59.299736
-0.054872796,61.077053
-0.0105423415,59.307842
-0.078815,63.91764
0.0045367125,66.741936
0.065732144,64.40213
0.103009865,62.327366
0.12624851,67.45496
0.12323564,69.040215
0.3145444,69.73088
0.274115,69.75272
0.37094092,69.420494
0.35757512,67.86773
0.37936836,71.540245
0.5594779,72.032646
0.58255434,75.34093
0.7209299,71.83343
0.72492224,75.03416
0.83544356,74.78583
0.9401069,75.91119
0.9415399,79.10814
1.0649058,77.575645
1.1475033,78.25707
1.0818478,81.88691
1.2040509,80.22845
1.1667428,79.04925
1.2807359,81.92271
1.2798989,81.551025
1.2126578,84.31816
1.2859174,83.20138
1.4063934,85.00229
1.3420825,81.284676
1.3940216,83.760315
1.3867285,90.118965
1.3405787,89.06106
1.3357166,87.34807
1.3728439,87.237686
1.4473364,87.77705
1.3202547,88.00322
1.4387354,87.718346
1.3179469,87.94699
1.3227471,94.131744
1.3690906,87.642525
1.2154328,89.06393
1.114736,85.77548
1.2069385,86.24926
1.2741089,87.57797
1.1850581,84.88663
1.2269502,89.24363
1.2437582,87.45508
1.1135069,87.48199
1.1178571,85.39305
1.1085795,85.851234
1.0478776,86.077576
1.0710326,83.90957
1.0371515,85.14675
1.0059235,82.42392
0.96768755,81.74891
1.0503924,86.146126
0.9572319,82.53466
0.97639364,85.503525
0.9208844,81.10712
1.04508,81.57797
0.9134993,77.66462
0.88349265,77.36178
0.91153604,77.50366
0.88973486,81.95522
0.9427581,78.409645
0.884023,77.25771
0.8893148,78.60207
0.867311,75.16422
0.8219528,75.93228
0.78683084,75.703125
0.8667475,76.31454
0.7392563,75.54021
0.8467327,72.20088
0.631815,73.40352
0.71351516,69.88931
0.66344815,73.73124
0.6717763,70.24028
0.6434243,73.36707
0.5285571,68.93643
0.58145726,72.85405
0.5902096,71.75318
0.5360586,68.40615
0.638185,69.99046
0.46536365,69.259926
0.5005974,67.48287
0.3777229,66.98711
0.40253633,65.61954
0.41726932,69.6997
0.42116177,63.07138
0.40785423,68.38565
0.313029,64.05331
0.32409197,68.51895
0.33803165,62.889053
0.45826966,60.26619
0.3520374,65.29242
0.49664685,65.700005
0.40465942,65.534775
0.35255635,62.250397
0.2974465,59.022682
0.39194933,62.97883
0.33602205,62.414215
0.30812263,61.04299
0.2614142,60.02149
0.37857524,55.594128
0.16412403,57.595764
0.23086232,61.359005
0.2775911,58.803997
0.19633609,62.795513
0.22098538,60.97104
0.11456809,59.96887
0.10427444,63.44261
0.0394951,64.15335
0.021234926,62.674465
0.015843742,62.456013
0.035970256,59.94739
0.026563535,63.06151
0.050870012,65.241135
-0.028841253,59.705677
0.03389279,66.76637
0.15163516,64.77762
0.20685235,65.8134
0.26301798,67.62966
0.3096067,65.11318
0.37447488,68.33827
0.43897757,64.535965
0.63132787,69.61226
0.61327314,75.35036
0.7546685,74.35105
0.78467697,75.96627
0.84355044,74.93008
0.91446394,76.1874
1.0253118,73.90983
1.1399702,76.822876
1.2122828,78.735535
1.1492002,76.87998
1.2233318,74.53756
1.2544816,82.945694
1.3833611,82.111664
1.4538316,88.87313
1.3918971,78.21652
1.4943849,83.92854
1.4776076,85.19692
1.5193961,84.14064
1.4978914,80.22782
1.5986022,88.970375
1.5372304,86.21477
1.6233109,83.37419
1.5660228,87.3031
1.5542719,84.599655
1.5448769,86.04089
1.6287278,83.29316
1.6439521,85.37643
1.5934331,90.6946
1.5470725,86.30665
1.5404007,86.767715
1.5880944,86.265045
1.5853301,88.163795
1.4960164,92.2859
1.4724034,87.79396
1.3466592,87.15728
1.4963712,84.33392
1.4741173,86.6358
1.4296621,81.97062
1.3613579,84.259415
1.4094108,84.48771
1.3703378,87.101616
1.3178949,84.94279
1.2316991,88.21403
1.3283206,88.25285
1.2933705,80.705055
1.2767122,84.7574
1.2660791,85.56784
1.2645538,81.65148
1.2331299,75.5228
1.2644223,76.554886
1.2531909,78.424736
1.2880548,80.243484
1.1846074,80.522194
1.2974341,82.60398
1.2605937,77.378426
1.1645197,79.62381
1.1730593,75.217415
1.1739538,77.704094
1.2457339,75.28458
1.2071605,79.75434
1.093416,78.10304
1.1460811,74.20199
1.0793151,72.150986
1.103586,75.70967
1.1163231,74.36656
0.94729036,73.89434
1.0169585,73.824104
1.0156144,70.13685
0.9793122,72.750145
0.9661668,68.97933
0.8783517,67.07966
0.84331656,67.38092
0.94539434,71.08951
0.91818786,70.1522
0.75382614,65.69904
0.80532986,66.528984
0.8034978,66.890434
0.6712741,66.77491
0.8261316,61.797478
0.6923111,68.23388
0.7625688,63.72426
0.6393572,64.986176
0.7340967,68.04733
0.74400824,62.814564
0.7340061,69.194695
0.7310257,61.39491
0.86721665,60.687122
0.7828607,61.110107
0.7335851,64.455414
0.7697972,60.521866
0.7956043,58.496014
0.6854765,60.675804
0.57270014,63.11824
0.76509184,60.593838
0.6264685,59.91677
0.58405495,60.252525
0.507566,64.87528
0.54934,62.755283
0.5083366,62.281086
0.5014819,61.68103
0.5231089,58.817036
0.38213533,61.591145
0.49887228,55.97358
0.40352562,60.41115
0.50939465,56.972607
0.40023726,65.99322
0.54874665,63.087128
0.4475967,63.360043
0.49279147,65.2387
0.5919846,62.93238
0.60205597,64.7563
0.7029552,63.527664
0.7399983,65.05644
0.757968,63.433212
0.8676815,67.53112
0.99340826,70.413086
1.0784303,70.413155
1.0789726,70.007385
1.1749599,71.64824
1.1719552,70.13233
1.2584414,77.39735
1.2992666,71.89035
1.4734035,72.338005
1.5443053,75.84792
1.5197057,80.18307
1.6669009,76.7255
1.7419883,81.79651
1.6950202,81.934654
1.7508774,81.05938
1.9100071,82.580536
1.8036011,84.09298
1.8677636,87.33178
1.9273717,83.86373
1.9918971,82.40566
1.8498057,87.102135
1.9732053,84.46753
1.9415365,86.46096
1.845906,87.45756
1.9979869,86.775314
1.9638295,87.38705
1.9605693,87.54926
1.9413724,87.38627
1.8259909,86.34161
1.9625225,90.513275
1.9167645,91.05324
1.9103659,88.528915
1.8332926,90.734184
1.9119899,91.760506
1.9082639,92.54465
1.8284551,87.959305
1.7971897,86.94055
1.7526774,85.84038
1.8287615,91.42509
1.7730982,86.866264
1.6896188,83.49435
1.6814126,85.5085
1.5989996,88.05349
1.6226037,84.68141
1.5599978,83.621735
1.6443923,83.20181
1.5695629,84.00368
1.5725175,79.76775
1.5974853,85.62834
1.4114822,84.46592
1.4516902,83.79416
1.5924506,79.78238
1.4707223,84.93016
1.5755816,75.36204
1.6044246,79.682365
1.5367973,80.429565
1.4558352,78.05375
1.492125,81.36958
1.4855193,74.721924
1.5069826,78.13117
1.3567985,71.476814
1.385657,76.01722
1.472388,73.83218
1.3862922,73.94335
1.4005073,74.099174
1.2728764,71.16971
1.3268923,69.83208
1.2973695,75.511475
1.1552851,70.57405
1.1788375,74.86411
1.1743975,71.11324
1.0936661,72.02769
1.0874337,70.93235
1.085712,69.34342
0.83037406,64.72351
1.0576276,65.0559
0.981053,64.84999
0.9757401,66.85639
0.87688047,66.85652
1.0213714,69.485886
0.9048372,66.25391
0.8685651,68.495186
0.783442,67.4119
0.87605864,64.95846
0.8799076,63.119812
0.93455887,67.11827
0.9536403,56.26076
0.88509345,66.464165
0.78941387,60.075928
0.91441756,59.633553
0.8297911,61.77331
0.8660032,60.55165
0.8086864,60.795795
0.79840523,56.872208
0.7304578,60.254375
0.7413573,58.189663
0.7569259,58.113907
0.6648147,59.751774
0.5950804,57.253048
0.6668497,65.23266
0.64029557,62.121304
0.64862496,59.707462
0.46135774,65.4674
0.55689657,61.432003
0.52942795,59.874626
0.44478554,63.087685
0.48242995,60.710278
0.3481885,63.008755
0.5135757,56.95856
0.53163236,65.29883
0.6586584,62.4744
0.51644784,60.12274
0.6877833,64.79524
0.849043,65.89154
0.6431986,66.91625
0.860941,67.49048
0.89614743,68.288086
0.8771732,69.80446
0.97063583,66.920395
1.1158847,71.125694
1.1220648,74.02465
1.2475908,72.60125
1.3462573,71.65133
1.2792639,77.07117
1.5038624,76.64905
1.4063096,74.401794
1.4677597,78.11856
1.6066749,81.844505
1.6288915,79.990395
1.6705041,83.54833
1.6220953,79.91702
1.7170384,80.48152
1.6892401,84.702034
1.855247,82.66491
1.7340901,83.680626
1.784858,85.78313
1.8130828,86.50477
1.7989339,81.69412
1.7551917,87.314316
1.8662701,86.384026
1.7912271,89.0498
1.8021764,87.68251
1.7238222,86.26925
1.7917519,84.80174
1.8398215,89.77087
1.7591163,88.30332
1.7026962,83.787636
1.7464042,90.49063
1.6553895,89.228386
1.6654963,83.364365
1.8077621,88.37483
1.6426055,84.498695
1.6070421,81.2505
1.6611311,85.18085
1.5224912,85.03079
1.5174353,88.97538
1.5062722,85.50848
1.4865863,85.13887
1.4747834,89.71266
1.3983766,81.04197
1.4590689,90.616516
1.4317852,84.890564
1.2905277,82.20246
1.3245971,81.25905
1.2811683,80.36033
1.278934,75.67185
1.3141271,87.31272
1.2804897,79.640015
1.2381134,80.8682
1.24724,76.73071
1.2250584,78.88499
1.2689203,76.3083
1.2036821,82.08765
1.163221,79.7825
1.1489638,77.98274
1.2684109,76.36031
1.1666061,76.15163
1.1048112,77.59336
1.1156198,70.26394
1.1040614,72.52153
1.0411905,74.3825
1.0198306,71.487526
0.9593294,68.52112
0.92741865,69.1003
0.9276438,72.18485
0.85209286,73.78416
0.7183629,71.60245
0.77659297,70.80909
0.77196395,66.770546
0.7097168,68.134995
0.72262645,66.107086
0.66832304,70.01144
0.54917437,68.65192
0.705167,66.07409
0.614143,66.89285
0.54984444,65.65414
0.48591614,65.78053
0.5617571,64.53301
0.6386567,60.813625
0.53085256,63.49777
0.53338385,67.7292
0.47761962,65.300186
0.55306184,62.35983
0.5005382,61.29401
0.50930125,58.67601
0.48812708,61.18646
0.44936636,61.902027
0.5353454,59.81584
0.43133968,58.724255
0.41446704,59.46223
0.35290402,57.843784
0.2861608,59.8555
0.37826344,60.557285
0.31246874,58.700954
0.270819,62.216854
0.12418476,63.43683
0.15552878,62.658607
0.24420178,60.002945
0.19651714,59.984604
0.1562757,61.508427
0.16949904,60.852646
0.13768229,60.227726
0.058748003,56.042633
0.051992282,61.102318
0.10029161,63.80824
0.15609014,64.249985
0.26393375,66.8532
0.28634143,64.39919
0.27279866,71.441666
0.3524679,61.62536
0.362851,64.08573
0.53100014,68.68064
0.5931795,70.259285
0.66425985,77.44299
0.689588,67.35494
0.7655048,70.211205
0.8609394,68.8942
0.91335416,73.83909
0.94668597,74.77805
1.1185198,76.25518
1.0806952,76.2988
1.1324271,82.974525
1.1853777,77.356476
1.13366,82.750786
1.1694118,85.33796
1.2926695,77.268166
1.3421913,80.527695
1.3912544,82.91526
1.3124633,83.65242
1.4177265,85.03902
1.3970959,83.179214
1.5052844,88.8265
1.4470469,81.93283
1.4519361,84.48597
1.443752,87.96814
1.449332,84.652214
1.4362803,87.16214
1.4237909,82.21958
1.3549306,82.6984
1.4171842,85.85081
1.3310775,86.98867
1.3806316,88.6024
1.3292274,87.42267
1.3691162,89.45054
1.3556713,89.45645
1.2553574,88.169945
1.1786107,85.09366
1.2140903,81.132416
1.2101915,87.76418
1.2384537,85.852486
1.1697873,85.46075
1.1286978,88.181915
1.0299847,86.32792
0.9628764,86.88295
1.0661868,86.18226
1.0394139,82.78654
1.0684588,84.80868
0.9860323,83.609955
0.99078494,80.256165
0.9456269,84.035965
1.0180062,79.39007
0.96793914,84.51632
0.93896025,81.39643
0.87047637,82.585625
0.8902089,80.81014
0.932943,79.70755
0.94340223,76.26234
0.946229,76.05352
0.9103696,77.01413
0.82911456,75.3686
0.8714163,77.25817
0.82968974,75.0854
0.8217441,74.428825
0.81573606,75.81531
0.7478655,73.00694
0.81175846,71.9325
0.75405043,72.94595
0.649976,72.98486
0.62463546,72.558784
0.6092813,70.93095
0.532985,75.23847
0.57112044,69.97247
0.46355233,70.89849
0.4294209,70.86842
0.425089,72.98067
0.43433955,70.86194
0.3522013,69.34096
0.3526201,66.04627
0.39312467,67.57248
0.37789714,68.3528
0.33430517,67.70976
0.26707578,68.39504
0.26782987,68.351074
0.2780943,64.24787
0.30189475,62.590942
0.3383328,59.280403
0.38345754,63.605507
0.3050166,64.76141
0.2858099,59.50644
0.3041416,63.578285
0.3210169,61.373768
0.2800162,61.10653
0.40299815,63.51125
0.189142,56.638184
0.25344938,61.655964
0.2843249,59.621174
0.25743505,64.39634
0.06801351,61.905792
0.20403723,57.042355
0.15427473,61.194828
0.07038748,63.02815
0.054256085,59.958073
-0.047762245,57.865932
0.09940066,58.90834
-0.032361384,59.73823
0.059209306,61.156494
-0.15957762,62.131233
-0.06724073,63.75997
0.06450824,64.60855
0.06357468,64.648476
-0.046900876,61.20934
0.051503558,62.847267
0.25178698,64.61354
0.27990907,69.33889
0.1886414,64.13012
0.21492316,66.893585
0.35037878,67.02278
0.4310719,69.46908
0.56094635,71.76987
0.5058008,70.39122
0.67241037,67.829926
0.8247195,72.19146
0.888972,72.54572
0.8625904,79.206856
0.9156004,72.08617
1.0274936,77.19672
1.019986,73.31289
1.1093742,75.69661
1.175587,80.488846
1.171757,75.26188
1.2983985,80.776855
1.3496945,77.88509
1.2728164,85.59047
1.3653257,83.40133
1.3941828,84.650635
1.3688742,81.923935
1.4031643,85.114624
1.4527339,85.14971
1.4316002,90.52659
1.5216235,86.18486
1.442027,89.83533
1.4983703,89.163574
1.4946371,88.14024
1.390413,87.033
1.3921436,90.13033
1.383153,88.586395
1.3766831,85.14737
1.4397687,90.205315
1.3970438,92.61359
1.3466326,89.67742
1.3388671,85.99288
1.3497695,88.371346
1.2682976,89.32408
1.371092,87.28503
1.338004,87.28475
1.2072393,83.454666
1.2718608,85.58925
1.1956065,84.61575
1.2194505,84.92289
1.1456848,84.727875
1.1922157,84.03136
1.1924039,83.49746
1.090895,84.27408
1.1120541,82.457504
1.1125674,83.3665
1.1464819,82.60854
1.2062767,81.59936
1.0884609,80.987564
1.1009103,80.86379
1.082292,81.39022
1.0345734,79.51127
1.1212978,75.99217
1.1111355,75.79728
1.1458201,76.368744
1.098607,76.97428
0.98564214,74.17744
1.1185472,74.36209
1.1058102,77.74307
0.9946635,72.34763
1.0154359,78.5172
1.0378107,71.90855
1.0710315,72.20938
0.8841339,71.56104
0.873609,71.00317
0.8351798,70.95496
0.8292497,69.249535
0.78699315,73.47905
0.7665353,69.21868
0.80539924,70.21536
0.6372082,71.484825
0.74321514,68.076485
0.7673785,68.93518
0.7161507,67.33538
0.62569654,71.17712
0.62087506,64.84981
0.6342565,66.64083
0.6427715,63.43383
0.6261603,64.115326
0.6132474,67.420494
0.744519,63.143024
0.66882074,65.78506
0.68404794,65.69182
0.64241457,62.78432
0.58096945,58.405987
0.5621534,60.19265
0.75709206,61.085938
0.54602665,58.107254
0.61832225,57.93099
0.5903338,63.80605
0.5464944,54.662804
0.62410855,61.537697
0.5428666,58.67238
0.5069479,59.981243
0.45368862,61.91439
0.421616,57.809135
0.42820975,57.671993
0.36234015,58.13004
0.34884807,60.471733
0.42784438,57.673306
0.33516482,61.98741
0.2885673,61.78976
0.3144,58.96539
0.39802536,64.68976
0.39674434,62.634212
0.2514916,59.40322
0.293649,60.252167
0.41768315,62.872437
0.4280838,61.748093
0.56108576,67.009995
0.54721785,70.33388
0.59648085,66.95768
0.6499828,68.41604
0.75424016,69.927765
0.82709277,70.75776
0.9056371,69.69726
0.9818346,70.275505
1.1820782,71.54705
1.1797241,72.00959
1.2432964,70.90383
1.3901367,73.27249
1.4076029,76.0386
1.496089,74.40172
1.4935169,80.07862
1.5747018,76.03596
1.5733283,79.085495
1.6255728,78.91481
1.5820858,77.57831
1.7229302,85.703575
1.6690605,88.281784
1.8475161,81.099205
1.7706722,85.827065
1.7622204,86.29011
1.8789963,84.08017
1.8909855,84.93092
1.8751234,83.4937
1.9001915,84.020935
1.8545431,87.90571
1.8429538,85.11436
1.8999351,88.766266
1.8667827,84.82878
1.8625581,84.56769
1.8645387,88.40006
1.8587382,85.81817
1.8421494,89.414154
1.9145367,88.34089
1.7724911,91.06753
1.7888498,86.64415
1.7353344,86.896255
1.780296,85.22339
1.7998313,81.188194
1.80332,86.304
1.743846,85.340004
1.6128914,85.19014
1.6004742,86.43275
1.5645045,84.47912
1.5085849,81.765755
1.5868337,84.88937
1.4285922,83.968216
1.5538648,82.708725
1.4537971,82.41424
1.4402696,81.18939
1.5104477,82.9389
1.4103987,78.20354
1.5388097,81.23731
1.4264712,78.737335
1.5627298,80.00423
1.4928946,79.66602
1.4002342,81.05922
1.3697397,75.52957
1.491131,77.384636
1.4003356,77.88717
1.3638176,76.39486
1.3492111,77.18309
1.3837271,79.88115
1.2939286,77.18054
1.4197141,71.512115
1.3617277,72.185455
1.3202049,70.64266
1.1926597,69.23154
1.344952,73.82257
1.2064891,71.03048
1.1016238,69.066154
1.1536177,69.75174
1.1636395,72.39268
1.0580466,70.54928
1.0695653,68.72589
0.93398684,72.84825
0.849132,70.44426
1.131954,66.92245
0.959233,66.44915
0.96778786,67.593475
0.91190046,68.19032
1.0622373,64.40539
0.97913295,63.212925
0.95522606,63.614807
0.99236983,64.19377
0.86628085,62.63531
0.8784895,65.55038
1.0172843,66.650764
0.9145592,59.896683
0.87588686,64.20471
0.9402295,60.688454
0.9449091,62.07992
0.82902336,57.244965
0.7741588,60.43454
0.76484895,58.946724
0.7603044,60.74625
0.6702069,57.837307
0.76823586,59.92229
0.6506857,58.081154
0.6094526,58.78833
0.66886866,62.660362
0.60743326,63.41998
0.52088624,61.41481
0.5575482,61.789803
0.6286482,63.56389
0.58826256,62.042446
0.661459,61.38183
0.45106062,56.255753
0.544213,59.604305
0.5460114,62.9384
0.6166225,62.69775
0.5571037,65.61479
0.6946883,62.611015
0.6817326,64.384224
0.7864014,65.7757
0.8326631,72.132965
0.83092684,65.20246
0.8701062,68.59515
1.0681865,71.89442
1.1187865,68.03406
1.2365161,73.1111
1.1760898,72.65645
1.2643976,73.83962
1.3964883,77.37039
1.5350467,74.24945
1.4500678,76.55056
1.571105,85.154884
1.6080815,79.81613
1.681823,80.194565
1.6559864,81.9437
1.7497565,84.41945
1.8573742,81.68344
1.8788778,82.73301
1.8673052,83.191025
1.8671825,84.314095
1.9028498,87.7032
1.9179629,80.9914
1.8049886,87.684586
1.8488525,84.95485
1.9411075,87.00894
1.8700224,91.24447
1.9325358,86.60173
1.9101881,87.7532
1.9145502,88.984245
1.9023324,83.53892
1.831752,87.91843
2.0095592,88.1033
1.8481233,87.856346
1.9071665,84.247116
1.8792751,86.48539
1.8663478,90.63947
1.7524246,86.42024
1.7046821,88.62122
1.5731518,88.76401
1.5986967,82.06157
1.6271595,85.820694
1.5897197,86.9883
1.6177706,83.92918
1.6198418,81.800835
1.6054978,85.43933
1.5760465,82.441086
1.5030644,81.24301
1.4390184,82.78656
1.4703616,80.43159
1.4965997,82.97405
1.3884724,84.05463
1.4626918,79.6577
1.4129121,83.01028
1.2877125,78.79312
1.3808454,76.48589
1.4537507,81.04183
1.3697879,78.209404
1.4132614,81.26185
1.259892,77.98481
1.3522612,79.04993
1.2889116,79.07312
1.1349592,76.18593
1.2114913,74.66601
1.2494484,75.02656
1.2910429,72.01603
1.2607716,71.11902
1.1948441,78.7233
0.98121953,71.76055
1.0760103,74.13846
1.0552338,73.32881
0.9873184,72.03305
0.88074344,65.645836
0.91409785,64.77778
0.8352539,67.915054
0.8580581,67.24384
0.7750991,65.58889
0.86399204,67.23787
0.71461964,63.134796
0.6927858,62.701324
0.8124768,64.709175
0.72435796,64.09084
0.689569,60.096123
0.6602703,62.423916
0.6619083,65.67249
0.5127166,62.737846
0.74989545,65.283516
0.75404626,65.87002
0.67326677,60.655552
0.65901786,61.67665
0.67417485,63.524445
0.64657617,60.1241
0.72379786,59.3802
0.6593251,61.365402
0.74753517,58.29348
0.5445177,55.185402
0.59481794,57.494377
0.54831487,65.18724
0.41032335,60.324093
0.45059198,63.51968
0.38312304,56.96914
0.31299567,60.019615
0.31152266,62.696884
0.28255287,61.9382
0.27628177,61.863678
0.21419567,60.619125
0.2260394,64.10528
0.213129,60.127403
0.21472621,65.56216
0.30353847,63.72948
0.32107276,64.29364
0.21418397,62.090504
0.35755852,63.470833
0.46546265,68.301796
0.3115311,65.646065
0.38753292,70.10149
0.5114448,72.31051
0.53266495,68.22401
0.6895319,67.85374
0.74997383,68.40081
0.75504005,68.47558
0.84351075,72.96959
0.84216535,73.07119
0.93792725,77.44903
0.9919263,71.97522
1.1284394,74.287476
1.2035295,75.77983
1.3211976,81.51774
1.2375005,82.01001
1.3351305,77.29755
1.3192186,78.30032
1.4402288,80.27336
1.4052078,81.44792
1.4595852,82.68592
1.4769057,86.96333
1.4421148,82.7889
1.4832864,85.945946
1.5000035,86.07837
1.5613304,90.31567
1.5300884,90.716194
1.4974924,88.02383
1.5392663,85.135796
1.4421433,87.26465
1.530843,90.31809
1.4830555,89.178665
1.5354607,86.50609
1.5398201,89.32232
1.4510926,91.32348
1.5089594,92.137
1.3991978,91.899925
1.53359,87.85921
1.3920774,87.42388
1.4668947,86.178406
1.3268303,87.90622
1.3720876,81.69916
1.2947754,88.53839
1.2013118,85.84983
1.2710692,84.81998
1.2693077,84.493774
1.1015778,82.31793
1.1101428,82.1866
1.1337125,84.88912
1.0787053,83.80122
1.089361,85.32745
0.98179233,87.86068
0.9862092,84.049866
1.0110235,80.948326
1.0393828,83.376434
0.9483582,82.66783
0.9005887,79.69007
0.9665311,79.77856
0.96120405,79.49995
0.87758225,77.45581
0.9510614,80.75898
0.9916471,78.40929
0.91750133,79.20933
0.9057082,73.35807
0.88931453,75.75637
0.8647358,77.6521
0.838432,80.294304
0.7552829,70.597946
0.7347485,76.58963
0.7492838,74.201355
0.75132555,68.81669
0.7137618,74.25547
0.55768913,70.28536
0.6298959,72.08482
0.68002903,69.13806
0.50023586,72.404335
0.482928,70.313255
0.4455372,69.03071
0.42431715,68.89518
0.44145086,65.34687
0.43215108,66.5396
0.50952864,72.02033
0.46180937,69.52532
0.30618787,68.269554
0.30195186,63.557293
0.3402985,64.755035
0.3520986,63.546024
0.29551458,60.274494
0.29867584,63.02911
0.27966467,63.04827
0.36287764,66.39195
0.34978777,65.37204
0.31732264,66.20664
0.30960798,63.77922
0.23279497,59.01376
0.25445002,64.693016
0.18859772,58.492565
0.36526015,59.10206
0.33959028,58.065617
0.23930046,61.212673
0.24037941,63.461422
0.19463308,68.19352
0.13011332,60.74816
0.06685259,58.6827
0.051915217,58.032166
0.055832285,62.026558
-0.03829,57.88268
0.047563262,57.6505
-0.10097045,58.66551
0.028601695,64.45954
0.008223054,63.686134
0.058771115,60.26232
-0.11467158,64.46694
-0.019493077,61.637558
0.051929712,64.12193
0.029358178,64.53453
0.12856592,66.6139
0.1616955,65.93953
0.26368898,65.93103
0.24477847,72.97316
0.37016392,74.30338
0.42732376,68.48405
0.52682483,67.85418
0.5324063,71.56499
0.6209616,69.388565
0.6824219,73.46458
0.8377991,75.60072
0.83655876,78.77303
0.89168483,75.56483
0.9456117,78.41602
1.0048482,77.38312
1.0391335,80.72535
0.9977298,79.095566
1.2137367,80.77152
1.2124181,82.146416
1.3245786,82.10711
1.2773792,83.336205
1.3049154,89.1648
1.2795869,83.17719
1.3203127,87.043594
1.4224449,86.14676
1.3180907,85.357735
1.3806242,87.55664
1.3202845,85.98781
1.451371,91.37844
1.3744522,89.186295
1.3361789,89.76705
1.3641053,84.32587
1.3649249,87.19526
1.3760066,87.41868
1.4199517,90.78101
1.3790505,88.5634
1.3338212,88.699066
1.3005439,93.78854
1.3729438,89.73928
1.3195486,87.13291
1.2215652,84.446594
1.238168,88.19437
1.1140181,85.19599
1.218447,84.84931
1.1205353,83.30817
1.1553202,82.57833
1.0456384,86.33336
0.9651022,82.91681
1.1172837,84.66102
1.1259509,81.99297
1.1019096,79.174446
0.9716423,84.60529
1.07686,78.32469
1.0399098,82.22775
0.97355425,84.05484
0.96138674,79.265526
1.0369455,81.348625
0.9804795,78.12433
0.99600935,80.04649
0.91436785,81.226845
0.9650528,75.91428
0.9597541,80.492256
0.9274426,75.414444
0.87964624,78.75178
1.0465002,75.03059
0.8943422,76.84166
0.90326273,74.52603
0.90656245,74.30335
0.9116029,71.36732
0.7728656,77.311455
0.7592127,70.549446
0.78877354,71.120415
0.6559169,74.82953
0.69109774,72.55674
0.5321818,69.57592
0.64834875,70.79258
0.5522184,71.09135
0.5385081,66.40961
0.5392369,68.16656
0.6092387,64.62285
0.53154105,67.42241
0.5271418,66.117294
0.49477404,63.320377
0.49889708,66.225685
0.44304177,68.460815
0.4653,65.27522
0.58504426,62.10547
0.45350832,64.05553
0.41765398,59.699696
0.48816645,66.02769
0.4961505,61.905716
0.49908397,62.3992
0.48428667,63.381737
0.5770578,60.933445
0.46863845,59.817608
0.4330466,59.597263
0.40965578,58.782776
0.41499358,59.770283
0.46768838,59.90615
0.3520244,60.676132
0.37207928,57.976784
0.23542328,60.71023
0.31147316,59.545547
0.297902,63.005684
0.31898373,57.153625
0.20667598,60.04673
0.23323025,57.011524
0.28305113,63.024117
0.07569033,64.80046
0.22307362,61.851437
0.14795956,61.601803
0.21050243,63.908108
0.1637379,63.85158
0.20047818,64.62422
0.30992314,61.313015
0.31035963,64.87391
0.5088846,71.57408
0.30763885,67.30203
0.51676357,71.10506
0.581231,69.47135
0.72453284,69.73601
0.7386443,70.41927
0.88999987,69.01092
0.85736877,72.71387
1.0790712,72.44668
1.0462081,77.817764
1.0661408,74.903656
1.3028532,76.792595
1.3231143,80.175255
1.3296049,72.13445
1.3618876,77.620255
1.3831114,79.28951
1.444731,82.99684
1.5484438,83.08271
1.5997206,80.78174
1.520839,81.359795
1.6829615,84.532646
1.640398,86.44101
1.6723157,82.19881
1.6592059,85.47013
1.7178669,83.21835
1.7333428,86.834145
1.6757354,89.18124
1.630405,87.398636
1.7106922,86.56746
1.7350733,84.209404
1.7880545,87.15294
1.7234322,91.05331
1.6994681,89.259544
1.7728884,87.429146
1.8137493,89.62628
1.6237917,90.29901
1.6804466,90.36339
1.6481702,92.56804
1.6310698,85.877205
1.6716317,83.339516
1.6226795,87.74899
1.5519242,87.34946
1.6111662,85.732216
1.6046207,86.5912
1.5957693,89.32456
1.4746912,88.933945
1.4959471,84.093056
1.5278856,84.90873
1.5612336,82.78205
1.3978525,85.29575
1.4631946,81.9909
1.4215647,79.73451
1.4425191,82.33288
1.3146884,86.153656
1.2808108,79.96056
1.370488,80.75183
1.3477908,79.27146
1.2872211,80.130196
1.4472731,77.42024
1.403326,80.272896
1.3540236,79.029175
1.4747727,77.310875
1.3321555,73.659096
1.2216879,73.69052
1.2505931,76.388
1.3463144,70.81694
1.2296668,70.96461
1.3176512,70.882256
1.1603879,72.8689
1.187271,73.21728
1.1885533,72.00572
1.1163163,73.18801
1.0079147,72.37512
1.0767192,67.88917
1.041043,67.074196
1.043764,72.873634
0.93390334,68.21046
0.9827791,66.90416
0.91722625,67.08972
0.9430282,64.86462
0.98220474,66.58332
0.92364985,69.11963
0.80645776,66.23184
0.93495554,65.24108
0.8503953,64.3708
0.9673336,67.419876
0.82741344,66.228355
0.9238429,61.562527
0.83559316,64.05928
0.9038605,65.44363
0.89829797,61.133255
0.8651519,59.792633
0.8648614,60.900127
0.8621313,64.072655
0.89605004,60.298607
0.8670942,61.17143
0.78290504,60.203175
0.768184,62.25175
0.86305004,58.748894
0.6297632,62.652454
0.5973934,62.877567
0.7196357,61.296734
0.6130928,58.654564
0.6511895,58.856335
0.660584,58.920578
0.6425874,58.239292
0.5187835,59.430065
0.56458,60.806328
0.5229421,56.92619
0.6289785,62.535522
0.56659365,65.14573
0.57196504,62.35086
0.58707607,63.23044
0.57016087,61.803787
0.635302,63.108547
0.7173032,65.40896
0.742448,64.06273
0.80157804,68.82983
0.9225557,72.83175
0.898953,73.37834
0.98754066,72.39401
1.1477631,65.56585
1.1512816,74.21916
1.2365949,75.76188
1.2580346,72.48976
1.3274611,75.23322
1.3783112,75.41275
1.4703851,75.86577
1.5501935,77.11349
1.5910263,77.81479
1.7238381,74.582275
1.8788197,78.05091
1.7982059,82.03883
1.8355839,85.406494
1.7887003,82.964645
1.9448241,84.73142
1.9485756,86.254326
1.9623697,86.29772
1.8978574,86.13787
1.9911497,85.121376
1.9410408,86.94883
1.9836274,89.01854
1.9751079,88.56646
1.9202713,90.75748
1.9742761,84.116455
1.8308039,82.40536
1.9407324,86.96895
2.0044477,86.758804
1.939843,91.716866
2.00748,88.460884
1.8822504,88.89851
1.9097735,82.97457
1.9030056,87.48439
1.8465182,90.61707
1.8591183,83.839096
1.7795724,91.93491
1.7690597,86.62106
1.6828941,88.17572
1.7395374,86.20764
1.7205145,89.84214
1.7700487,86.37841
1.7938942,83.03524
1.641237,86.71431
1.6946845,84.96591
1.6246718,79.59676
1.5216868,81.198746
1.6716439,83.645134
1.5088981,82.81774
1.4819118,81.47923
1.5149715,79.5196
1.4112272,80.60111
1.5677088,83.609375
1.5567791,82.82214
1.4737539,76.69413
1.4599609,76.66785
1.410486,73.85087
1.391973,76.75046
