ppg,abp
0.9751751,92.32351
1.1230327,97.42282
1.1252564,97.325836
1.2479448,103.22709
1.3235967,102.846214
1.388607,104.14751
1.3968571,106.13714
1.440174,109.44824
1.490158,113.32364
1.5416819,110.239334
1.5947143,116.57601
1.6669433,115.25714
1.6443298,117.97677
1.7388318,120.57446
1.5920031,120.18025
1.7491736,122.474236
1.7471678,121.315254
1.7414997,123.67503
1.7722378,125.86091
1.7664099,124.90997
1.7389264,126.20914
1.7438407,124.73516
1.7502372,127.45405
1.7676183,126.82723
1.7054245,129.55154
1.745214,132.21445
1.7043957,130.0065
1.7160431,128.0815
1.6906128,126.82716
1.7410156,126.597755
1.6803292,123.83029
1.571576,125.55192
1.5078753,126.74807
1.5583984,126.211266
1.5120022,128.00027
1.5452707,125.415184
1.5486017,122.46058
1.5666758,120.17506
1.5200335,117.949295
1.5119567,117.687904
1.3738688,116.901375
1.5193092,117.84495
1.412785,112.07209
1.3804007,114.7648
1.3954158,114.46842
1.4230821,109.17273
1.4317664,108.7989
1.314363,111.2237
1.3945836,106.60804
1.3895344,103.91808
1.3510318,103.95892
1.3854158,103.83479
1.3374755,101.65178
1.3311287,98.2809
1.3469756,99.59954
1.4293692,98.0951
1.2911072,99.2834
1.2662221,95.039505
1.3289424,95.10312
1.1844988,89.600685
1.1829032,93.30119
1.2096499,89.418335
1.1448731,89.257484
1.1451145,86.04294
1.0336285,86.71904
1.0471989,86.488785
1.0690101,82.30575
1.0438931,82.91682
0.93630236,79.82062
0.85874915,79.34986
0.9910234,79.43589
0.9563787,79.830414
0.8987466,75.18808
0.87438464,72.84135
0.84772736,74.300804
0.88606113,68.57696
0.8633768,70.01455
0.9149088,68.01389
0.8964502,68.870056
0.91346896,67.63398
0.9451573,64.87311
0.88482946,64.623985
0.80586123,62.208103
0.89662856,61.338615
0.82613754,62.72259
0.90542406,60.97481
0.86678123,58.91612
0.82872313,58.549236
0.8854071,57.506
0.7872002,60.967724
0.8482747,58.314003
0.78952694,55.7398
0.73879415,53.9706
0.6136797,59.043446
0.6181466,55.408615
0.54593307,57.25578
0.581798,59.684807
0.5567009,57.548084
0.61925936,58.47597
0.5524233,58.139355
0.6212027,58.825653
0.5967557,64.21677
0.49804336,62.934902
0.5459958,62.066402
0.55566806,63.898212
0.59118396,70.59164
0.56768334,66.931404
0.7152822,68.33548
0.6603214,72.11584
0.79425615,74.10147
0.8089362,75.760475
0.8914588,78.72323
0.8939112,79.79885
1.0104004,83.108345
1.134769,86.14351
1.2221518,88.10173
1.2786691,88.306725
1.2626941,94.024864
1.4466774,94.230225
1.3913033,98.91324
1.6197212,101.34753
1.5969923,99.490746
1.5974667,103.44384
1.6885316,105.03845
1.7857583,108.11009
1.7464545,110.18156
1.9069772,112.97506
1.8337932,112.96415
1.7944973,115.36546
1.8902373,117.46833
1.9544538,118.29527
1.927096,122.15244
1.9450237,122.72816
1.9973617,124.30422
1.9756497,123.229385
1.9928703,125.34421
2.0302992,125.97988
2.0423477,127.089455
1.9815742,127.33063
1.9656404,126.80273
1.9792573,130.37344
1.9928498,129.84926
1.8954225,130.03407
1.9241962,129.99153
1.8420113,126.41208
1.8812524,127.878334
1.8100786,129.99638
1.8153001,128.22867
1.8327525,127.07699
1.7679242,123.29838
1.7494534,123.46756
1.6991941,122.32392
1.676291,122.0924
1.6920335,123.91098
1.6398487,121.36631
1.6260015,118.06394
1.5341341,117.841415
1.6379911,119.73444
1.5872225,113.848045
1.5393698,112.75614
1.5138451,114.227486
1.5440046,111.68225
1.4361267,112.29455
1.4434218,108.73408
1.4594433,106.94676
1.4732013,109.21941
1.4481506,104.64091
1.4813519,104.3051
1.5874374,103.03307
1.4545996,102.88515
1.4326882,97.41999
1.4055947,97.07041
1.4063885,98.294334
1.3431457,98.45803
1.3425418,97.820526
1.3290519,93.73009
1.2976418,92.38729
1.3033823,92.44143
1.1841958,89.17909
1.1815488,86.406906
1.2294204,88.62519
1.1388947,86.81943
1.128164,85.39577
0.9510089,84.23028
1.0576134,82.53121
0.942411,80.061935
0.81796557,82.756065
0.89589876,79.64854
0.85023856,74.924095
0.83712906,78.226814
0.9064785,75.10148
0.8665154,72.96672
0.84613776,70.58598
0.88593185,71.571594
0.76308054,68.85176
0.79016614,67.79926
0.79896766,69.07048
0.7915495,65.059364
0.78098583,65.54504
0.7652571,64.11839
0.832129,63.363464
0.76239455,60.872528
0.7266538,58.71425
0.74811304,60.327053
0.71427226,58.89275
0.7506481,56.98463
0.66708195,59.201088
0.6517543,58.29046
0.63492405,59.54216
0.70912445,59.710052
0.5853051,55.644135
0.540755,57.921734
0.4724373,55.787613
0.4596386,56.945988
0.4051162,57.521694
0.44739667,58.159584
0.4113034,59.22716
0.42178908,61.81422
0.3575565,61.9696
0.44291914,64.47898
0.39783633,63.579247
0.30720872,66.61393
0.4548521,65.73144
0.45179713,71.18382
0.46567234,71.36581
0.39581263,70.44076
0.4977097,72.944855
0.6243035,76.52866
0.6545747,77.25687
0.76298577,80.23293
0.85759854,81.800095
0.8342818,85.71041
0.88714045,85.95919
0.92609847,88.14458
1.1037178,88.86891
1.0615357,94.0659
1.2018636,97.16818
1.2800413,98.95136
1.4027194,102.99588
1.4181398,103.2831
1.4153907,107.579895
1.4952667,109.670105
1.5083803,110.53807
1.5319141,112.292145
1.5482486,114.802826
1.5737144,114.52585
1.5818269,116.96488
1.6961632,118.24961
1.6105994,120.23977
1.5653898,122.20079
1.6441479,123.10486
1.6598593,127.258865
1.7640835,126.70249
1.6760496,128.91179
1.6560107,127.864006
1.648372,128.62138
1.6260387,127.05463
1.6782044,127.44537
1.6293403,131.26616
1.5558276,127.32707
1.6251749,129.57526
1.6090395,129.04494
1.4970411,130.5657
1.5285883,127.494606
1.44497,127.75544
1.4576789,127.270805
1.4393394,124.60687
1.4515486,124.607376
1.3675487,124.535675
1.2749984,122.22999
1.3239789,122.0745
1.3959194,121.69112
1.2263902,122.71366
1.2549937,121.51507
1.2194567,115.165146
1.2463454,116.567314
1.1842957,114.33376
1.1515571,115.72081
1.1345897,111.79685
1.1343027,112.54551
1.155351,111.108955
1.0541468,107.366234
1.1666232,107.637794
1.086201,109.33875
1.0099536,106.60389
1.037728,101.496315
1.0075732,104.47256
0.9827828,99.66149
1.0060371,99.73437
0.9840129,98.891975
0.94986343,97.47337
0.94609356,95.10927
0.93073606,93.09886
0.88347566,93.92706
0.8500909,92.0658
0.7693949,89.76357
0.77152073,89.90852
0.73780686,89.86143
0.69738185,87.36862
0.7242038,83.74224
0.65155786,80.73541
0.5722661,82.44395
0.606808,82.671364
0.48613328,80.42326
0.52141464,76.95577
0.42755702,80.42891
0.49500805,76.88962
0.5160939,74.55531
0.49183804,71.4069
0.46514842,71.89283
0.36241528,71.45266
0.46249834,68.5736
0.41649294,67.728874
0.34969833,69.390884
0.30593294,62.372524
0.37385893,64.408966
0.44288063,62.99451
0.4029666,60.197296
0.3840842,61.91075
0.36567608,60.63461
0.32970488,61.081512
0.3706676,57.54282
0.37613052,57.86957
0.29392722,59.72003
0.36959153,56.6243
0.23410082,57.34819
0.23571762,57.292065
0.19819307,59.962547
0.05055777,55.266533
0.14588627,54.306793
0.086652935,56.760056
0.039504148,54.544212
0.123417765,57.59284
-0.023849294,58.766354
-0.0118070645,61.48201
-0.047707967,62.46222
-0.030897122,62.08936
-0.027698992,65.183624
-0.08348058,64.61491
-0.011367821,67.874535
0.09421633,69.37214
0.13940902,66.491196
0.13405092,71.24731
0.2175622,73.49246
0.19755556,77.19295
0.32414508,76.81284
0.23269023,80.163216
0.4535968,80.8502
0.48381114,81.70387
0.60768855,87.3975
0.54775083,89.61687
0.6516649,94.98919
0.78017443,94.70271
0.90105104,98.258354
0.8946586,98.09869
1.0610807,102.55521
1.0984117,102.77051
1.0910082,104.2839
1.1994693,105.95344
1.2401584,112.11172
1.2931491,112.2892
1.181044,113.887726
1.338159,114.8025
1.1976818,116.21767
1.319271,118.675385
1.3266945,121.441414
1.3555138,123.86386
1.392087,124.24534
1.3851868,123.05721
1.3696432,126.34833
1.2513374,128.97452
1.3695799,124.86335
1.3492515,126.9087
1.3300972,127.11697
1.3488505,128.96863
1.3361189,130.38354
1.339351,128.64381
1.3484914,132.04889
1.2712017,126.772484
1.2827907,129.48209
1.2711978,126.90327
1.2896118,127.904526
1.1997938,124.90496
1.2463337,126.57809
1.1755865,126.73784
1.1693175,123.93406
1.0383778,123.419266
1.1229923,122.78065
1.0729239,120.65771
1.0633489,118.63506
1.0600177,117.245186
1.025122,118.834785
0.99414396,118.2342
0.9564743,116.506256
1.0586144,116.19375
0.93825877,111.6597
0.94385797,113.27031
0.868391,111.780945
0.94040906,108.40954
0.94252396,106.238434
0.9130317,108.297195
0.88108546,102.975075
0.8676292,102.74609
0.8809561,102.938225
0.9394911,101.97035
0.8455481,99.32139
0.93456703,98.74901
0.7945401,99.38023
0.81664485,95.204926
0.8650241,94.21793
0.81196904,94.7092
0.75106996,91.000755
0.735335,92.15121
0.69541466,89.31135
0.74968976,86.430595
0.6357947,87.657074
0.5836821,88.30653
0.6015893,81.0439
0.6112346,80.47336
0.4682808,82.92497
0.4096619,78.92711
0.4554334,78.61171
0.49419194,76.916145
0.48325843,76.56439
0.42575282,74.436134
0.4754865,73.19398
0.42495298,72.64623
0.40913588,71.48686
0.32687142,67.48734
0.40165582,67.0617
0.37787205,69.77606
0.37423635,67.60518
0.4250163,65.09273
0.3667405,63.85154
0.31343585,65.808685
0.36774012,62.234676
0.35751653,62.43161
0.43454114,59.032467
0.39504007,63.420662
0.29264668,60.33795
0.263215,56.71436
0.34416035,56.265453
0.29279327,57.148003
0.3023019,56.68529
0.20386706,58.614902
0.22206779,55.483204
0.15153249,55.569725
0.18902425,54.56085
0.14106789,55.372677
0.048037935,58.18227
0.108407676,58.576946
0.02564656,60.488586
0.014139262,62.839478
0.05933127,61.504536
0.12645082,61.669586
0.121472694,64.6008
0.19632842,65.15715
0.17329009,70.88942
0.26214838,68.711266
0.26430005,70.40584
0.29501274,72.1993
0.30141923,76.36416
0.49709076,76.581345
0.45874038,82.85234
0.5495447,80.27369
0.70594424,83.402
0.6889164,86.32802
0.86717874,88.37116
0.9089669,91.60849
0.9860582,89.94413
1.016398,97.251755
1.1121985,94.804855
1.1444889,100.22473
1.2042577,102.84444
1.2048556,103.36235
1.3278315,108.68208
1.410629,109.448204
1.3781095,114.127884
1.4186304,111.26278
1.4349165,115.50886
1.4921359,115.672714
1.3972144,120.54772
1.4608887,122.03048
1.6083479,124.130325
1.5977945,122.44553
1.6080093,123.777916
1.5112112,124.67014
1.5866208,126.92986
1.5724479,129.6631
1.6099195,127.76833
1.6240864,130.46144
1.6302347,126.49539
1.6921831,128.39969
1.6116186,128.603
1.5899397,127.36182
1.5967039,126.97864
1.4848173,129.86162
1.6968364,129.47975
1.5965885,126.59436
1.5487936,128.72621
1.5489752,129.90063
1.5283846,125.59233
1.5031219,124.768425
1.4022055,124.69022
1.4250368,120.44283
1.4389819,121.917496
1.3571873,122.7023
1.4205031,119.799736
1.3401681,115.38455
1.3461012,115.8961
1.3718095,115.83766
1.3488026,116.040665
1.3244398,113.61582
1.2873646,111.9441
1.2630906,112.0148
1.2299469,109.41607
1.3614191,104.83355
1.3440752,106.666695
1.3058573,104.55265
1.3087457,103.184906
1.3017907,104.00838
1.26432,100.999954
1.2018343,99.67899
1.1392492,100.16228
1.2586672,96.687416
1.2245698,91.31611
1.1560591,99.451126
1.1852105,94.994286
1.2024722,92.46451
1.0940908,92.53478
1.0412234,85.202415
1.0829695,86.95785
1.0575482,87.979546
1.019955,85.75659
0.93318576,84.83691
0.888683,82.78507
0.89347124,81.34428
0.9552471,80.44336
0.8441443,77.2394
0.8649975,77.567505
0.7770904,75.11036
0.8186783,76.48829
0.7793424,71.821304
0.82272696,72.83163
0.83523315,70.78269
0.750228,67.49467
0.7890615,67.8722
0.81311446,66.927765
0.88951844,69.25911
0.8115715,61.953793
0.7629743,65.01264
0.77096134,61.19972
0.76444536,64.52994
0.76444167,61.8146
0.8560423,62.03164
0.73775095,62.120205
0.7548867,59.46612
0.7429878,60.91569
0.68370754,54.453472
0.757235,57.561012
0.6764556,55.823437
0.69357413,54.66657
0.6136415,57.58445
0.624592,57.3137
0.5516092,59.479687
0.5112085,57.79389
0.47353593,58.539665
0.40095055,61.27469
0.5053211,59.536545
0.5477091,59.399548
0.36967582,59.966354
0.49332327,61.400116
0.48788294,64.65396
0.56300735,61.602448
0.5666096,67.18258
0.54165,68.35034
0.6375528,69.59919
0.67756736,70.67083
0.711394,76.59915
0.7459113,76.64635
0.8851997,79.70062
0.92649573,79.78311
1.0310525,81.56018
1.0807685,85.99402
1.1578008,89.750595
1.1808994,91.81673
1.2532107,92.32904
1.4176518,95.784035
1.4177835,96.920906
1.5549442,102.2927
1.597179,101.72706
1.5856981,101.03828
1.7097745,107.555214
1.6935556,108.040924
1.8307819,112.26298
1.833818,113.381645
1.8563471,114.16508
1.846494,115.029976
1.8569564,117.21716
1.9122448,118.35255
1.9436234,122.1211
1.9855214,122.90492
1.9623435,123.6912
2.0148609,124.76687
1.9984462,126.471985
1.9055676,130.11662
2.0241673,123.65889
1.9310521,126.82688
1.8514628,127.527054
2.0384636,130.15591
1.9010265,128.22002
1.9030362,129.63293
1.9239732,129.8441
1.8842447,127.44088
1.8822805,129.69153
1.7580477,128.90979
1.8445688,128.89752
1.7865617,124.00477
1.6837562,126.01537
1.8273921,126.67947
1.752763,124.09409
1.7050372,122.616356
1.7403566,119.73928
1.6418136,120.31248
1.6811066,118.03835
1.7160127,117.35154
1.5680777,116.603905
1.6190178,115.665474
1.5694705,112.951546
1.6080794,113.870056
1.5381173,110.07808
1.5415031,108.209755
1.5577703,107.409515
1.5728192,108.35878
1.5201172,106.69746
1.5536199,106.17698
1.4240594,106.94015
1.470402,103.27828
1.5391728,99.725105
1.4461482,102.882576
1.4484206,100.48992
1.3609716,98.04603
1.4517587,96.94768
1.347149,96.11429
1.3304148,94.970955
1.375983,92.7646
1.3228989,90.73407
1.200689,90.437355
1.2088349,85.45275
1.1091704,87.31899
1.095264,87.374626
1.1945766,82.85644
1.1226643,81.86917
1.1016057,81.76172
1.0966016,79.770744
1.0252128,80.804565
1.0549831,80.52981
0.928672,78.781
0.87390876,76.66904
0.89096177,73.14302
0.98446596,72.24762
0.86048216,73.28811
0.8413367,67.42256
0.799869,66.41489
0.8732309,68.366936
0.91977566,66.12719
0.89375037,66.13355
0.8401759,62.501602
0.94500655,61.95435
0.9206878,62.940483
0.8730873,61.238514
0.8233205,60.347946
0.8059318,60.513073
0.8437706,58.23549
0.77266747,57.101315
0.8084827,59.46214
0.78279716,58.919903
0.6916754,58.742252
0.74422985,57.04191
0.6089319,55.359253
0.6102045,58.010345
0.546717,56.547
0.5236613,58.346546
0.5375134,58.25379
0.55852294,60.437508
0.50700194,58.126377
0.4831994,59.65911
0.4450974,64.436325
0.40397254,63.736923
0.5080432,61.904694
0.4901085,64.391426
0.5001317,65.8992
0.5567091,68.348564
0.5827124,69.76941
0.6368352,73.702644
0.71491164,71.65053
0.681259,74.73156
0.85153955,82.81663
0.9563784,78.528336
0.9644066,81.69028
1.1305108,86.66108
1.0128534,87.31149
1.184915,91.18305
1.2651645,92.120094
1.2659323,97.609215
1.3303359,98.91526
1.4550959,99.07995
1.3551042,103.55331
1.4439648,102.24629
1.5538623,108.91475
1.5795785,110.376274
1.6214706,110.31876
1.6168123,112.41725
1.7439308,115.88039
1.6797259,116.86141
1.6838157,117.72004
1.8116585,120.05643
1.725689,121.00735
1.7959197,124.72779
1.8475184,123.474655
1.7414972,123.97029
1.8660583,124.55781
1.7925738,130.25368
1.7683722,129.15904
1.8327186,127.49372
1.7449454,126.997
1.6444776,130.34093
1.6862652,128.80551
1.6586275,126.948845
1.6649672,129.08458
1.6406261,129.04016
1.6670306,126.1112
1.6713343,127.69394
1.59785,127.36797
1.5526687,125.28127
1.526221,125.89849
1.4908552,123.91989
1.4599949,126.84293
1.484454,124.66077
1.4714499,119.95556
1.4384133,122.71323
1.3468573,120.29264
1.3381442,117.31301
1.4132191,115.53003
1.274148,116.56095
1.292198,117.56999
1.2449443,112.166115
1.2915623,110.46383
1.2872803,108.34943
1.2139565,107.78343
1.2301462,111.188515
1.2534322,105.91453
1.170218,103.52591
1.1520957,105.81285
1.0688869,102.27117
1.1596178,99.924545
1.1603391,100.27147
1.1242963,99.72687
1.0364283,98.279015
1.0546906,97.16953
1.0633659,95.9594
0.99353826,95.561424
0.9939158,91.11613
0.9931417,90.67234
0.86639625,92.38561
0.929846,90.352104
0.863368,88.622665
0.8052203,86.656784
0.79647684,81.63466
0.76597136,83.41273
0.7647819,81.97277
0.72025514,80.31849
0.62988627,80.6452
0.65459645,77.045715
0.61159545,77.02127
0.6183863,76.969536
0.59081674,73.21029
0.5126873,73.36886
0.4959619,70.1902
0.4871982,70.63785
0.5489548,66.27088
0.54234564,68.88187
0.48217723,67.064606
0.5807103,63.53878
0.5352604,63.32625
0.4692682,62.993076
0.5210716,62.372616
0.45118478,61.10166
0.45379487,61.723667
0.46033606,57.334637
0.42915222,60.392982
0.42629898,57.186737
0.25441596,60.460804
0.31711674,56.99804
0.270638,54.89783
0.3320668,58.78874
0.3500304,57.135876
0.24631973,57.16096
0.24069747,56.05577
0.18846506,59.047344
0.13881697,59.170723
0.15678588,57.65784
0.049395133,56.161537
0.081476174,58.814877
0.030146748,59.620964
0.1139881,58.844925
0.020845499,63.975613
0.0760391,62.55092
0.06460128,64.61442
0.17776345,67.19686
0.25285846,69.497734
0.23358291,71.63996
0.2592904,74.38402
0.31010452,78.351074
0.39940888,78.20207
0.48644036,81.81524
0.52691334,81.82748
0.5190239,83.51051
0.6335828,87.88525
0.70708144,89.96774
0.7956546,90.399796
0.79797643,96.36365
0.9635844,96.10502
1.0825291,99.620735
1.0687109,101.846146
1.0819935,103.19237
1.0683383,107.917595
1.2114195,109.96488
1.22157,110.73646
1.2361066,111.11803
1.3685272,114.81178
1.3615751,116.49127
1.3711867,119.11686
1.2805034,120.62992
1.4263113,123.0196
1.4200673,122.72947
1.3943453,124.674446
1.4048748,126.57412
1.5030639,124.21896
1.4244314,127.452385
1.5315914,130.88394
1.4286228,126.19087
1.3791531,127.032364
1.4368631,129.66216
1.2936963,129.24571
1.3478222,125.426994
1.3314565,129.41249
1.2766445,129.96538
1.3511122,128.95427
1.2328196,126.851036
1.24916,128.02184
1.2108186,128.34338
1.1817644,127.16937
1.1564068,125.88263
1.1621087,124.75141
1.0916373,124.171326
1.1573273,123.118164
1.1329863,120.087585
1.0921905,119.489685
1.0340263,121.69694
0.9941913,116.461044
1.0115042,116.73954
1.0207691,116.422585
0.94744444,113.34881
0.92025554,109.78077
0.9340827,109.29412
0.98125076,110.26732
0.9693216,109.011444
0.8851386,105.79548
0.87507945,108.22876
0.93322927,107.12937
0.87567925,100.46353
0.87072295,101.07921
0.78451335,100.41568
0.80013704,100.97196
0.7774514,98.60198
0.7530421,95.532555
0.7643572,95.63215
0.8229967,94.17052
0.7677735,93.56896
0.73787534,91.640305
0.74151546,92.3895
0.63957006,90.23919
0.60212874,89.211555
0.62527007,84.55028
0.55612916,86.60384
0.53977746,83.19806
0.52021873,82.05233
0.47994465,83.08482
0.43277958,79.59779
0.3626124,75.33276
0.45742238,77.457085
0.32159358,78.62966
0.36829725,76.63183
0.35639542,74.21688
0.3999441,72.53633
0.36034206,70.948456
0.4134193,68.6901
0.34614038,69.144966
0.29117292,66.34987
0.38069737,63.511177
0.28971985,64.07673
0.28097394,62.01951
0.3730408,62.3874
0.3627613,63.96891
0.30261186,61.749023
0.3546401,57.70776
0.4142607,58.70309
0.23266794,60.744793
0.24449031,61.127583
0.26631016,57.210587
0.17917272,57.300285
0.2320255,56.565834
0.15332338,55.18086
0.09288374,59.045788
0.0895357,58.181664
0.053099986,54.7831
0.110149,56.53263
0.05858608,57.524197
0.025819806,59.200027
0.037867233,62.619987
0.013634767,63.081047
0.020142376,64.75377
-0.04632464,64.62885
0.01474279,63.033043
0.03259374,65.50851
0.07791774,67.696846
0.08993495,70.514084
0.22718558,72.50722
0.21631008,74.20553
0.30260703,76.88221
0.45246065,78.75785
0.43461618,79.09676
0.57023484,81.32391
0.58433926,85.11883
0.6547658,90.75477
0.65210617,89.18555
0.8173105,94.49869
0.9143295,93.383835
0.95112455,93.263214
1.0528157,101.671394
1.054412,102.43281
1.1329755,104.00894
1.2122686,103.46273
1.290996,108.77758
1.2782265,108.097725
1.277578,112.917336
1.3447815,115.2966
1.4033766,116.13151
1.3773959,119.20266
1.510189,118.01127
1.4162291,123.6635
1.4509218,121.40447
1.503765,124.94666
1.4536154,123.22737
1.4770005,127.21327
1.4528476,128.005
1.527685,127.58748
1.4653394,129.55943
1.5151463,127.70719
1.5120103,129.3595
1.4693819,127.38296
1.4880216,128.2185
1.5181603,129.16914
1.475431,127.10699
1.4130824,127.95579
1.4328458,129.67638
1.4444976,128.64702
1.3451691,124.51813
1.3034385,124.33402
1.3051696,125.038666
1.3440063,127.09009
1.2915863,125.60909
1.1864083,124.01249
1.3130974,119.62879
1.3065406,121.68912
1.2067271,119.345535
1.1280322,118.638954
1.2322679,118.04005
1.2445877,114.19043
1.1887319,111.920815
1.1347768,112.217964
1.122496,110.883804
1.1441507,110.02397
1.1293635,108.7173
1.2177597,107.631454
1.1066757,106.88762
1.1444513,105.60598
1.1602144,102.3182
1.1084063,104.18525
1.1509017,101.420494
1.0960186,98.78424
1.0387125,98.96789
1.0718693,94.82753
1.1206733,96.42837
1.0865315,94.009575
0.9961397,91.7973
0.99684536,89.615265
1.0105306,93.396996
0.99126637,88.4798
0.91854703,89.910065
0.9016012,85.66901
0.932687,87.089226
0.88740623,82.2842
0.8530569,83.33152
0.74694586,80.19181
0.8093799,81.89366
0.72213596,79.55388
0.67917985,78.60329
0.7277892,77.17077
0.7326716,75.38518
0.78274286,74.36365
0.6689734,67.90732
0.7169657,68.505806
0.70418453,70.43723
0.6865044,70.58758
0.68171537,65.58135
0.6868859,66.993706
0.70088106,64.21963
0.75810534,61.488804
0.65202576,60.40812
0.6672383,61.708443
0.65333366,61.059185
0.75077623,58.445576
0.674519,60.526443
0.6236269,57.668354
0.69816935,58.034866
0.6197532,58.46015
0.58655244,58.200253
0.5559936,57.158997
0.5719524,55.798275
0.4885188,58.70791
0.47004333,55.091118
0.5205159,57.689735
0.43567178,58.759537
0.42108285,58.18989
0.40622053,58.730946
0.34875494,62.24817
0.34989932,60.59973
0.38746613,62.608315
0.33073384,65.55409
0.48996753,61.59327
0.42779636,66.31065
0.5035186,67.505905
0.5656902,70.80217
0.51903474,70.4976
0.56987554,72.00001
0.67452914,75.94984
0.7582484,78.09646
0.85818684,80.55039
0.91283625,80.64482
0.9294418,84.38084
1.073201,86.43716
1.0237223,89.190636
1.2249961,88.655556
1.2713114,94.21182
1.3512139,94.97666
1.3730291,97.46941
1.5217199,100.44169
1.498203,103.351265
1.5733231,105.9769
1.6379373,106.86221
1.6421376,106.206535
1.7481171,114.10754
1.7379122,114.579865
1.8310809,113.78788
1.8062581,117.45627
1.7940725,118.2741
1.8276967,120.9489
1.8521693,120.98691
1.8412498,127.49641
1.8529028,123.93718
1.8625927,125.38492
1.9088064,124.211044
1.8398674,127.358505
1.9052287,128.1158
1.945587,128.12624
1.8566842,127.690895
1.8398257,130.2049
1.9017311,129.12813
1.932983,130.3775
1.7972087,130.26985
1.8103676,130.64938
1.7942705,127.144646
1.7286752,124.93285
1.718298,125.65113
1.8092768,124.87992
1.7522101,126.46906
1.7147807,125.46069
1.6725584,124.03512
1.793986,121.210686
1.5656776,121.18285
1.6406872,122.0595
1.6032536,121.32641
1.5273077,117.819885
1.539841,117.66007
1.5389324,116.11472
1.5233461,114.040535
1.4352998,111.59469
1.5018052,110.47446
1.6123345,108.38224
1.5254594,108.608
1.4985534,108.74003
1.4553024,105.48956
1.5220466,103.9075
1.4246235,103.80246
1.423199,102.1087
1.4253316,100.980705
1.4349242,101.728065
1.4601979,98.82945
1.3559804,95.6999
1.4345505,96.58998
1.3770056,93.80616
1.2594261,93.05161
1.3047258,93.03695
1.2844328,90.1829
1.2322401,91.36606
1.2873996,89.44257
1.2884443,88.529335
1.1295655,85.64271
1.2008458,85.78293
1.1624588,82.32014
1.1107353,81.20573
1.0881771,80.97142
1.026976,80.27494
1.0191419,77.81973
0.9911498,76.33118
0.951611,72.887474
0.9881893,71.77963
0.9425539,72.66283
0.9645402,69.30305
0.97462636,68.09256
0.89593947,65.76253
0.9544949,63.276573
0.9836328,65.22711
0.84994876,64.54482
0.91413057,60.220238
0.8831984,60.24812
0.84209645,60.9793
0.92537344,61.2095
0.9359859,58.45989
0.8615709,61.5697
0.7875156,58.79901
0.7820721,55.03332
0.69770145,58.5789
0.7221968,56.132664
0.7665379,56.95567
0.7612162,56.44863
0.71648717,54.112854
0.6284209,57.272446
0.6337757,54.48643
0.626129,55.739086
0.51860756,58.668995
0.5087505,56.982185
0.5981045,58.083145
0.5071736,61.71012
0.5479005,61.278618
0.5018923,60.246666
0.5007611,65.67578
0.66247505,66.15617
0.57834893,66.26331
0.69705766,70.31876
0.6706274,71.51781
0.7098799,74.23124
0.77498966,74.997025
0.85251886,77.2788
0.8074662,79.84923
0.96620864,81.40296
0.99978864,84.188545
1.091074,85.7138
1.1014986,89.46666
1.1986922,90.14566
1.3659592,96.36518
1.3123468,94.72285
1.424973,96.91174
1.5043781,97.292625
1.5957842,102.599594
1.5151831,105.19758
1.6633568,106.69202
1.6733885,109.09817
1.6489241,109.947014
1.7983851,112.8976
1.7915509,115.102615
1.7772961,117.23119
1.858276,117.58272
1.7940961,118.358955
1.8586966,120.356804
1.8064247,125.54471
1.9745497,124.72648
1.8235248,124.480804
1.8387725,124.68345
1.8958751,125.74013
1.8684638,127.49387
1.884511,127.30788
1.8329926,129.91145
1.8605494,127.541016
1.9155697,126.25441
1.8584929,129.82372
1.800634,125.44418
1.7615066,126.352066
1.7132245,128.63445
1.6759396,129.81853
1.6955332,125.547615
1.7527314,124.3655
1.5876808,126.19318
1.6436379,124.584145
1.5760581,122.61043
1.5995046,121.79022
1.4785206,123.64419
1.5040189,121.99813
1.522308,119.027245
1.3531883,117.49094
1.4826422,116.83052
1.3074211,112.41936
1.3380212,113.55248
1.3622069,116.643845
1.3407948,113.77411
1.4395747,108.161064
1.3004827,111.01414
1.3781984,107.96977
1.3702956,108.039085
1.394575,106.38561
1.2988704,104.79214
1.2664672,101.68499
1.2453591,100.74243
1.1872633,101.39633
1.2319028,99.02159
1.127605,99.31467
1.1705413,98.62305
1.2115728,92.45359
1.1395236,94.409225
1.1751069,93.597145
1.0835797,92.57502
1.0150713,89.918106
0.99679124,87.65609
1.0488572,89.32773
0.89403087,83.491646
0.92608297,85.01713
0.8392345,81.66632
0.8548628,83.91327
0.7882402,80.97863
0.7724136,79.6318
0.6947759,77.804054
0.71341157,79.18124
0.6524576,73.614685
0.7488968,72.846466
0.71817946,71.81268
0.6464878,69.88772
0.5898011,69.7899
0.63657176,67.731445
0.64750594,66.92175
0.56423295,69.26185
0.62620556,67.005486
0.65365976,65.304306
0.57513225,63.324917
0.4819577,62.381233
0.575998,63.381577
0.5498755,56.984684
0.54433393,61.21615
0.5340187,58.58228
0.47210476,60.87619
0.4887758,58.942
0.49449468,58.83636
0.4137059,59.855194
0.41925305,56.66887
0.28655925,57.95392
0.33270082,52.34861
0.19430315,59.470695
0.26058,60.066933
0.1994283,57.45498
0.13155454,57.545517
0.1796023,57.113472
0.04235612,61.452843
0.101347625,63.57073
0.1825427,61.923557
0.22151697,64.72429
0.20670182,67.71904
0.18557696,64.74844
0.22288446,69.59201
0.18236633,70.63423
0.25061932,71.34923
0.32300603,73.767845
0.38501564,74.52733
0.48239046,80.47764
0.5630418,81.087715
0.6250782,81.99896
0.7425566,83.90378
0.8230259,88.52394
0.7759562,89.017494
0.9790203,91.08263
0.9987708,96.80638
1.0830986,96.74841
1.0751045,102.3211
1.0738254,103.70786
1.1922318,105.43773
1.1371228,107.373955
1.2640483,110.38694
1.3495266,114.07291
1.3374212,113.588196
1.4797125,115.33954
1.3754536,119.771706
1.4760362,119.40452
1.4803083,118.56612
1.4313604,122.03218
1.4351374,126.18544
1.5276973,123.012695
1.5002966,126.28843
1.5098099,125.94916
1.5065668,125.25025
1.4671551,129.58714
1.4567584,127.06791
1.326032,129.02158
1.4758756,129.51355
1.3607862,130.9264
1.362846,126.046844
1.3130544,130.39285
1.3444879,128.30907
1.3566039,129.00073
1.329262,128.70947
1.321405,126.15214
1.262772,124.33658
1.2703758,126.713036
1.1752324,124.80301
1.2615294,125.26082
1.1432991,122.92626
1.2553946,122.48566
1.097828,120.41681
1.0523548,118.99058
1.0854686,115.02212
1.0716008,117.32921
1.026689,115.74337
1.057121,117.00911
1.0011905,116.21994
0.99395686,114.223915
1.0045295,110.20459
0.9481918,110.232765
0.9288101,106.81337
0.9847126,106.1722
0.8817358,104.37386
0.95189935,103.14896
0.96588755,101.38268
0.8571332,101.629906
0.8912576,95.64714
0.8664835,97.21021
0.8988384,96.377945
0.85858935,97.98667
0.8166061,93.17942
0.79257274,94.81941
0.75137484,93.327965
0.7752939,91.6861
0.70793337,90.34453
0.69479114,87.99697
0.6404511,88.028755
0.6745323,85.16214
0.5018433,85.389
0.54027754,82.82122
0.49617898,82.742836
0.47926795,81.10974
0.49292603,77.06942
0.43265656,76.672165
0.39937168,79.881454
0.33986172,75.994385
0.30266407,71.48033
0.28025255,74.82136
0.3033012,71.59692
0.42969194,69.20773
0.42863497,70.448006
0.30617705,67.08851
0.27526453,67.042175
0.39800656,64.66734
0.27122954,64.81393
0.2900088,67.567215
0.25329176,62.94102
0.25103226,60.93376
0.3261956,60.494232
0.31292894,60.196033
0.35160148,57.173462
0.21099578,57.668015
0.26633957,54.524597
0.18163894,58.613937
0.13637367,56.872017
0.2059721,58.176777
0.19013637,57.920757
0.06398391,58.42712
0.12058165,58.11966
0.054896884,57.58418
-0.046386514,58.767036
-0.013027352,58.1154
-0.0012617535,57.55959
-0.12704246,57.471367
0.037517436,63.290894
0.004442024,59.731884
-0.038041838,61.183434
0.017824009,62.650314
0.009827847,66.329384
0.065097146,68.496025
0.089971416,72.21351
0.14415991,73.20369
0.20059769,74.809
0.20493883,78.490005
0.4026942,76.170975
0.4994033,80.64197
0.44530225,82.45986
0.50158983,86.271194
0.55401117,86.435356
0.6594154,91.60671
0.76573205,91.665726
0.78996414,95.25162
0.89352983,96.204636
1.0177335,100.55935
1.021707,103.873535
1.0666349,103.557396
1.1266764,103.07818
1.1543573,111.55605
1.1836371,108.5451
1.310079,114.59214
1.3374687,115.40119
1.2747517,115.23268
1.3348333,117.72452
1.3488039,119.44756
1.3189328,120.666664
1.3104186,122.45848
1.3415883,122.62056
1.4429991,126.68294
1.3065146,126.18886
1.4279034,124.748055
1.3790399,127.27493
1.428413,125.83953
1.4517157,127.86579
1.434168,128.47838
1.4009808,127.20449
1.4029298,128.67271
1.3149395,128.9742
1.467267,129.29654
1.3920294,127.764015
1.3821242,129.0754
1.3591323,127.48249
1.3169059,123.7057
1.3372629,126.13724
1.2540213,125.197495
1.292935,125.57555
1.1660916,123.87044
1.1634978,123.63856
1.2527469,122.84293
1.1219293,121.25918
1.1427733,120.66741
1.1383065,115.80678
1.116551,119.78601
1.0250199,112.030396
1.0744994,112.161575
1.1261874,112.627045
1.1079217,112.09433
0.974949,108.74038
1.0586054,107.27198
1.0885423,104.59036
1.0535455,107.477104
1.0594015,104.692184
0.99639696,102.30958
1.0651438,100.97864
1.0127566,101.55529
1.0260134,98.93264
1.0336472,94.82615
0.94737804,95.00891
1.0127927,97.357925
0.8535852,94.24636
0.89557576,90.93368
0.90950394,92.65415
0.81857616,89.36269
0.8522914,88.17577
0.8438554,87.59186
0.7993472,88.719826
0.73325986,83.29707
0.7406926,86.09907
0.63527596,83.66084
0.6383878,81.70122
0.62239397,81.034035
0.5977036,81.25124
0.6229363,76.09508
0.5678785,77.14209
0.6435496,73.79955
0.6227706,71.80847
0.5619429,71.13935
0.55454624,70.86817
0.56693196,68.9898
0.53859085,67.692764
0.62491417,64.33664
0.48455924,66.79812
0.59442794,64.00686
0.56872654,63.74556
0.59419894,63.066208
0.6077389,63.84511
0.61868733,60.909435
0.5603866,59.623775
0.4844191,57.17346
0.5486205,61.034424
0.51350904,57.073112
0.5098756,55.919384
0.46687025,57.89641
0.443718,56.751682
0.4267027,54.57143
0.43743646,59.93875
0.37756896,57.884434
0.33337405,61.238735
0.3434951,59.56834
0.4020065,57.501846
0.31533313,60.052895
0.2829493,62.45773
0.2611737,59.723396
0.3255467,61.501373
0.3217683,63.74092
0.31300908,63.078968
0.3175107,68.29032
0.3741619,67.6335
0.38391215,69.64777
0.41988996,71.428246
0.5391593,73.7302
0.5561441,74.95113
0.63194513,78.12464
0.7243644,81.70014
0.85087335,80.8205
0.8648079,85.85953
0.8596199,88.18468
0.95456785,90.79215
1.1197486,91.30453
1.2344022,95.09926
1.1612432,96.84201
1.3320798,100.5958
1.419337,100.245674
1.4062884,104.56031
1.4441435,106.97077
1.5018281,108.792076
1.6105002,110.78363
1.6472776,112.075836
1.7215302,113.65008
1.6794683,118.28334
1.75217,120.101814
1.788088,120.79826
1.8010098,121.310814
1.8512318,121.30769
1.8431007,122.92068
1.714112,127.205765
1.7964027,126.78913
1.8297756,124.728424
1.8043295,127.457756
1.8526756,126.6368
1.7796801,128.44678
1.8932588,130.52098
1.7956988,129.52524
1.7714326,130.64955
1.7785889,124.23124
1.8157905,128.81055
1.732351,128.56757
1.7530751,130.67606
1.7289453,125.48121
1.688821,127.563446
1.6180607,123.94175
1.6770257,127.11853
1.5922785,124.591606
1.6158967,120.63521
1.636445,123.13093
1.6103704,121.864845
1.6406438,119.92867
1.5421264,120.98272
1.4931717,119.952194
1.5647246,118.47311
1.470082,119.29171
1.3868909,114.30826
1.4929836,108.40399
1.4480295,112.87779
1.3933812,110.852036
1.4582825,106.39379
1.433231,110.81025
1.4095675,103.599236
1.5154905,102.664055
1.3419979,103.13083
1.3836164,103.74403
1.3909259,103.73082
1.360716,98.09026
1.3277636,96.77706
1.3610198,97.34201
1.4121431,92.91518
1.320602,93.57245
1.3483874,95.32697
1.2405447,92.77309
1.3419957,92.37251
1.1834338,88.67822
1.2328714,90.753525
1.1724498,85.20585
1.1182314,85.89167
1.16189,83.71079
1.1419492,84.586655
1.0411519,80.56343
1.0723003,82.615524
0.98793036,79.46482
0.9693344,77.93734
0.9592884,75.13886
0.9042573,76.00785
0.8810674,73.93201
0.9965939,72.78348
0.92038256,69.607994
0.94832826,70.974846
0.9815786,70.992935
0.8853069,64.71056
0.9405139,67.83206
0.8239595,67.607056
0.9247766,64.74423
0.9333296,63.324368
0.94868827,61.304554
0.8905189,62.98074
0.93062913,61.812824
0.8761668,57.16018
0.8765652,58.446625
0.85306364,55.304985
0.7891825,58.41222
0.77625805,57.37735
0.69758344,56.933517
0.7098333,56.450615
0.6942431,57.216404
0.6618084,57.459103
0.6027873,58.955177
0.5827577,57.553104
0.6374596,58.336838
0.5526774,58.286583
0.56590676,57.591057
0.5128867,62.497078
0.56888133,62.3716
0.54420155,64.42542
0.5849182,66.39042
0.54620457,66.263596
0.6186242,68.90961
0.68314284,70.53109
0.7096654,72.90897
0.7395557,75.63497
0.80174047,76.93211
0.8772862,79.36732
0.89670444,78.043144
0.9442156,82.62193
1.124901,82.640175
1.044886,85.63578
1.1915112,91.51576
1.3052142,92.74702
1.4393563,96.81409
1.4500068,97.28791
1.5564289,98.71695
1.5470622,100.718056
1.628089,101.963684
1.5616834,105.66068
1.6472735,106.63329
1.81561,108.355804
1.8396416,110.127464
1.8742045,115.60678
1.8466094,117.81043
1.9006251,116.25088
1.8558893,119.5608
1.8618379,120.663376
1.9541523,122.099815
1.9445198,124.87335
1.9498541,125.1485
1.9588606,125.71421
2.0030034,124.14788
1.9273512,128.99026
1.9143468,128.17798
1.9467398,128.36732
1.8503208,127.95936
1.9017303,128.38358
1.8723332,130.14752
1.9528548,127.261925
1.8601843,128.67558
1.8380759,128.56378
1.791833,129.01347
1.7750242,126.72878
1.8035413,127.94539
1.6924536,127.88049
1.7700299,124.78663
1.6492119,123.568985
1.5860245,120.98031
1.6361635,122.9163
1.5790933,119.18763
1.6405597,119.1368
1.5757213,119.615036
1.6255977,118.31613
1.5168446,117.46357
1.5045626,112.77086
1.4820691,112.200195
1.49056,111.86544
1.4687021,111.45086
1.4118282,111.09243
1.432779,109.174194
1.430012,106.656784
1.3801551,106.90342
1.4172127,105.76405
1.3553165,104.70251
1.3723103,101.821045
1.4039972,97.93681
1.3454998,100.836754
1.3051757,99.389336
1.2131144,97.959526
1.2702007,95.071686
1.2952718,95.51897
1.2990371,92.30065
1.1985598,92.577
1.2277111,89.87232
1.1376339,89.913536
1.1324081,89.902824
1.1026092,87.70955
0.9764539,88.62829
0.972104,84.78694
0.8978634,83.57905
0.9275989,80.82998
0.97398645,78.73431
0.93193656,78.84117
0.84960955,78.92327
0.7762123,78.31371
0.8165455,76.006004
0.8140237,73.42668
0.78180313,70.380714
0.7062661,71.50728
0.70254976,68.17765
0.77273387,67.502556
0.7126008,68.53744
0.76484764,66.24072
0.7860557,66.21768
0.7577114,61.89858
0.7350526,62.007427
0.76099503,59.810726
0.61567485,58.377716
0.71534413,61.659016
0.68538964,59.266956
0.63370967,58.00134
0.6585075,58.98115
0.668325,57.037544
0.54995507,58.447796
0.530979,58.00868
0.4245809,56.0678
0.47529733,58.591568
0.45795164,55.63567
0.42823592,55.408737
0.33201224,59.728825
0.36113313,58.746014
0.38944682,60.56339
0.2851182,58.369953
0.34245175,60.637188
0.26131132,61.9414
0.24877912,66.82111
0.28253454,66.95471
0.27233946,66.293236
0.3975917,64.67478
0.28670385,69.05561
0.40152857,72.38732
0.459665,72.48361
0.48993558,76.18154
0.55363303,78.15467
0.63896686,78.84965
0.73112744,82.15237
0.7306481,81.75912
0.8488648,85.766106
0.9579532,88.366
0.94641095,90.537766
1.041213,95.45674
1.0447351,95.828606
1.1666032,95.57723
1.2239491,100.7955
1.2061652,99.72041
1.3871436,103.49444
1.3359511,108.08881
1.3297094,111.97613
1.4461957,111.08467
1.5076264,115.56862
1.3953619,117.55477
1.522662,116.20077
1.5126867,119.5426
1.504298,120.762436
1.5852257,124.5234
1.5134883,124.90836
1.5423431,124.993454
1.5628487,124.31248
1.536718,125.18443
1.5070145,127.285934
1.5328952,126.54726
1.5397719,124.8397
1.588114,130.38594
1.5533992,133.9414
1.522627,130.02345
1.4799497,127.29315
1.4852322,127.38493
1.4188052,130.76173
1.4479903,129.29349
1.4958873,126.7294
1.3986924,127.703316
1.3708707,127.0885
1.4042321,126.098206
1.3050362,124.53048
1.2878851,124.88335
1.1807551,122.91336
1.209645,123.14689
1.2181513,120.71005
1.1568619,120.88595
1.158874,120.71443
1.1487676,117.067474
1.0970433,114.9184
1.0831087,110.141365
1.1357492,113.6453
1.1150227,113.00442
1.0037979,110.190895
1.0511948,109.42219
0.9768831,110.294846
0.9888741,106.79048
0.98692703,104.38541
1.0386559,102.424644
1.0442426,104.05726
0.9874735,99.98555
0.96026284,99.02808
0.9081031,96.0383
0.90184134,95.37302
0.8498136,94.26856
0.88016814,93.167145
0.80697715,95.33113
0.79806435,91.68535
0.7234126,91.23569
0.7936511,91.80214
0.70622486,89.70887
0.6610734,86.76552
0.6973387,88.153946
0.5991371,83.40631
0.52349335,81.66332
0.5354253,81.958855
0.53478307,81.29409
0.5011625,78.15872
0.5159256,79.58873
0.41070735,78.63606
0.42471758,75.30932
0.379477,74.28319
0.3836988,70.582596
0.44778112,72.89759
0.38945252,70.06416
0.38909552,69.45715
0.32716912,67.34065
0.34120712,68.64837
0.36946687,64.2822
0.39940354,65.52188
0.29307967,62.599987
0.40845788,62.11923
0.33040914,57.791744
0.33575258,59.778393
0.24873337,59.978054
0.27855277,62.231617
0.18066706,59.323303
0.2970548,56.773094
0.18874653,55.354446
0.2855378,59.143425
0.15221684,56.350613
0.10944256,58.7171
0.11116389,56.34324
0.0042588823,56.75045
-0.0036299734,58.354992
0.03232623,58.686253
0.00952324,58.344788
-0.053021405,56.968468
-0.07956225,57.88662
-0.108361155,61.965317
-0.018551154,63.88124
-0.014833874,63.076073
-0.05933695,63.971004
-0.05004009,68.83668
0.057349898,69.166725
0.1427801,67.74504
0.12513152,71.158356
0.19661076,74.834755
0.24366492,76.71946
0.31642115,81.48347
0.44263333,80.734215
0.44644356,83.49054
0.57088006,85.00059
0.62433803,86.36418
0.57232636,88.538506
0.7499034,92.95979
0.89425164,96.26547
0.8495506,97.40014
0.94823164,98.727325
0.98513824,101.892914
1.0863994,104.85382
1.1551094,107.206314
1.1525174,111.31461
1.1746523,111.09579
1.2783259,114.91877
1.3476471,114.89291
1.1888036,116.93459
1.3462584,116.99419
1.4171355,122.05185
1.38056,119.8142
1.398645,121.526985
1.424844,126.07727
1.3605076,126.512535
1.3366748,128.11128
1.3064911,126.08002
1.4015082,127.465965
1.3406824,128.84302
1.3074037,128.7299
1.367428,128.40622
1.3206414,131.27876
1.3345562,129.14415
1.3155743,129.58546
1.402525,127.90912
1.3138746,128.4074
1.2869749,127.91252
1.2922668,127.31542
1.2217563,127.558105
1.2144408,126.58648
1.1346571,126.92036
1.2244695,123.56154
1.1414379,123.132774
1.1005827,123.41562
1.0809878,118.05885
1.0314933,122.197495
1.169181,117.445145
1.040532,119.18898
1.0027405,117.958824
0.9925984,114.663216
0.9335271,114.99188
1.0321707,109.84169
0.90216124,107.16804
0.94953,110.63895
0.9411911,106.938896
0.956055,104.01742
0.97668755,105.81918
0.88939995,102.70092
1.0026642,102.52172
0.9420721,101.23211
0.9604947,100.52227
0.90520513,97.78472
0.88035995,96.89666
0.9162867,95.86098
0.90250254,94.04085
0.80814654,92.06368
0.83691645,92.26659
0.84621495,90.132965
0.6773702,88.8843
0.7812338,88.960556
0.7294227,87.71701
0.7623278,85.66597
0.64444625,86.44852
0.5971002,81.67816
0.628922,80.34296
0.5875233,79.24857
0.56945574,78.92146
0.5804108,78.72867
0.53449345,75.797325
0.4554347,78.08294
0.5352144,72.48721
0.46101096,71.55037
0.45422813,69.37645
0.40366942,69.18108
0.47927392,69.18436
0.5105222,64.900894
0.43849736,66.97218
0.5171195,65.27125
0.47049126,65.50458
0.4694273,62.437637
0.38767794,63.532787
0.42337126,62.674294
0.41332635,60.01713
0.36319906,60.95564
0.48647934,57.68579
0.35720807,59.82314
0.41326812,58.44805
0.37530658,58.278008
0.31620744,57.561398
0.31672022,58.038982
0.3220348,55.293697
0.2447318,56.713654
0.22338305,57.00019
0.24309371,60.94926
0.17027777,63.939934
0.194013,59.99775
0.097961776,58.092545
0.105799116,62.404408
0.17751917,62.795635
0.117818266,63.071846
0.28351322,64.72546
0.19574738,65.253586
0.25273752,67.77338
0.29933473,68.68123
0.3369915,68.66059
0.34920076,71.64026
0.4390904,74.5815
0.51948375,75.23568
0.51986074,78.965355
0.651301,79.934715
0.7053369,84.72223
0.7938194,81.67474
0.85770166,88.76144
0.9332142,89.28646
0.9689306,92.310036
1.1395898,94.25883
1.097656,97.68963
1.2747064,102.14575
1.3641481,100.636284
1.3665671,105.88974
1.4272629,108.85564
1.4636407,106.786964
1.4884735,112.58244
1.4966697,112.831894
1.5438528,115.68029
1.6098039,117.30853
1.5436376,118.07198
1.6442392,121.8673
1.669471,119.17696
1.6270622,120.715225
1.6308075,125.55307
1.7572527,124.84764
1.6294158,125.426796
1.7063233,127.74854
1.7068238,127.46293
1.6949961,126.61291
1.7523513,124.8534
1.699339,130.79416
1.7297902,127.31708
1.6842067,128.43324
1.6908022,129.62633
1.6598952,125.926796
1.5999306,131.10298
1.6966486,126.51396
1.6670761,128.08101
1.6670308,124.716286
1.5301677,124.42725
1.4790194,124.16438
1.5036736,122.78432
1.4327819,124.34862
1.4900632,123.583084
1.4772481,121.383286
1.4790255,119.791466
1.4387181,121.49529
1.4384221,115.93835
1.3590745,114.21054
1.4294435,114.300545
1.4042451,111.198135
1.3544204,112.5374
1.3142527,112.35167
1.3943521,109.6709
1.4031242,106.82503
1.3827765,107.211205
1.3839164,104.82414
1.3033893,106.15707
1.4310269,104.5055
1.2831613,105.37499
1.2725456,101.19329
1.3048089,97.679474
1.288021,97.15163
1.2577304,97.190506
1.2601769,95.92829
1.3305395,92.482574
1.1853548,92.60308
1.2498416,90.70789
1.1762449,89.02233
1.1330342,89.449326
1.1037276,88.563675
1.0463117,87.052505
1.0720943,84.793274
1.0870638,86.718414
0.9870429,84.77399
1.0181316,78.65682
0.906289,80.222824
0.8820759,78.057495
0.875411,77.0963
0.8695809,74.73774
0.9021388,74.35911
0.8231094,72.97866
0.86804277,70.26795
0.8611404,71.84624
0.8388919,69.92175
0.8875112,70.88301
0.85237116,67.11144
0.89037246,64.86815
0.80619115,65.376045
0.92809457,65.4628
0.7271636,64.73505
0.8175101,62.683617
0.84302217,59.749443
0.7833359,58.051655
0.82274586,59.397194
0.77650297,57.382763
0.83497703,59.804214
0.79304177,61.074497
0.65517795,57.583206
0.6495818,60.82316
0.632064,58.066483
0.7003681,57.111595
0.6181315,55.7821
0.6211595,55.50974
0.50996053,56.564518
0.56038207,59.07152
0.5555509,57.62789
0.53712547,62.24351
0.55182135,60.592518
0.61847556,63.72486
0.49466142,63.953827
0.5357333,66.44316
0.5790949,66.356255
0.61849797,66.393196
0.6685523,70.27765
0.7305331,71.47619
0.81106037,76.65116
0.88049036,76.350266
0.9136478,77.4868
1.0209175,79.41188
1.0300343,84.00733
1.0640804,83.87921
1.1502987,84.58094
1.2400036,91.34724
1.2536607,93.68724
1.43653,94.63338
1.5159738,97.02766
1.5263398,98.42749
1.5828166,102.106606
1.6427325,100.42393
1.7184216,107.869896
1.726415,109.386955
1.7442042,109.97502
1.7869644,112.39818
1.8054293,115.04789
1.8672695,116.96688
1.9198246,116.90074
1.9401108,118.924515
1.9796069,123.20238
1.971111,122.440926
1.9253938,124.78713
1.9495481,124.73077
1.8964404,128.04811
1.9125861,124.82678
2.0402563,126.910164
1.953369,127.87395
1.8852034,128.85344
1.9689895,131.67064
2.0037615,129.34346
1.9564153,127.41299
1.9172397,127.337364
1.9411335,130.41142
1.9407536,126.634544
1.7883283,127.460175
1.7887223,127.54034
1.8566564,127.17317
1.7422534,125.01716
1.7899951,123.86956
1.7959001,125.43689
1.715565,121.91517
1.6926928,121.37407
1.6084106,122.06175
1.6663436,119.8426
1.646292,121.08224
1.598481,113.4956
1.5144299,114.64832
1.5418074,114.55142
1.4996382,111.41136
1.519418,111.27977
1.5041568,112.31566
1.4982233,108.04641
1.5429822,107.15279
1.4476315,107.28066
1.4899416,106.50361
1.4926937,105.33484
1.4574573,101.76949
1.4059025,104.04021
1.4411594,99.053535
1.4216124,101.079796
1.4607205,99.12958
1.3651745,95.74756
1.3143067,94.98618
1.3328502,94.90727
1.2287525,93.84999
1.2594836,92.20157
1.250037,91.123604
1.2034091,90.40826
1.184608,88.87353
1.1353476,87.45453
1.0499125,83.94876
1.1129801,83.83279
1.1047766,83.93249
0.9616156,82.24082
0.9430179,80.40417
0.9058988,79.94374
0.9522416,78.07375
0.88631237,78.30127
0.99089015,72.06065
0.81666374,72.62578
0.8153084,74.65416
0.94239867,70.96959
0.8462607,69.22336
0.7865687,68.34976
0.8351015,65.6707
0.91182625,67.78283
0.8084762,65.89695
0.7857599,67.52024
0.85480744,65.68096
0.77423,62.408844
0.7437432,62.535973
0.7334601,61.37236
0.762144,61.261734
0.72585183,59.02859
0.6919454,58.843044
0.6638026,57.348694
0.6411587,57.234123
0.6405643,57.5935
0.61796933,57.996906
0.5058377,58.213326
0.49109533,54.942448
0.48816404,56.68902
0.4263173,55.459072
0.47184658,53.867664
0.41454625,57.20022
0.41624558,60.085255
0.3451488,61.83641
0.4265749,62.859787
0.44492924,63.673477
0.37467062,66.262115
0.4940931,65.555145
0.5133397,66.901024
0.47443172,70.21673
0.6030653,69.65442
0.61801225,73.18753
0.65995735,74.15279
0.72764486,79.05142
0.7360631,81.18717
0.8610879,82.77556
0.7979058,84.52839
1.0463998,85.38956
0.9826776,91.49976
1.06323,91.26727
1.211547,92.28246
1.2394475,96.8836
1.3017074,100.4789
1.2684419,103.14385
1.3435795,104.201584
1.4229126,106.361595
1.4238162,110.7883
1.507748,106.09604
1.6092724,112.724205
1.5905926,113.21897
1.6381357,116.52022
1.5591197,120.17353
1.6105198,119.20466
1.6485419,119.9608
1.6391877,121.234985
1.5978132,121.81754
1.715939,127.10857
1.6697092,126.871
1.6732999,126.095764
1.6444359,128.40047
1.694108,128.68999
1.640202,129.80904
1.6338811,129.43848
1.6405306,129.73
1.5698606,128.12675
1.6165357,126.92722
1.563116,128.8266
1.5770805,126.7781
1.4571993,127.845184
1.5484973,128.39067
1.5283643,125.0496
1.4763769,125.349556
1.5144525,127.62159
1.3528365,124.53716
1.3368818,121.958496
1.4152737,121.7106
1.2798926,122.11234
1.2944074,118.097664
1.2951717,120.54064
1.2645446,117.54223
1.2493752,115.70687
1.2023822,114.79369
1.2702883,114.02654
1.1529815,114.58131
1.152043,111.26613
1.1648179,110.2946
1.1597317,108.94762
1.1705527,105.156166
1.1326625,105.97062
1.0937308,103.210236
1.0684836,105.066536
1.140163,104.618195
1.1120303,101.91749
0.9851738,101.450516
1.0414094,97.65368
0.9440129,98.31213
0.9800595,96.46128
0.93478715,96.58901
0.83758307,90.990486
0.8385554,90.28833
0.8916829,88.61238
0.81321317,90.584435
0.7721853,89.13407
0.8016037,89.34711
0.75269276,85.300095
0.6873213,82.7911
0.6426895,83.37605
0.64101857,84.526886
0.6123726,79.390755
0.5140727,79.2246
0.55902505,78.275764
0.474341,75.74281
0.47771978,76.363495
0.53317374,75.09975
0.37168986,70.57264
0.4278444,72.91615
0.38333765,70.66207
0.40144932,71.541
0.42292875,68.993576
0.4339871,64.12661
0.50210315,64.39377
0.44065663,64.07533
0.35312107,63.30318
0.45519233,63.2159
0.51179916,62.089054
0.3729996,61.31823
0.36463243,59.22947
0.34388375,58.575237
0.24983351,59.948635
0.2978689,58.0444
0.24950804,57.387142
0.21305142,57.99692
0.17189698,57.3764
0.19204944,60.33131
0.1347633,57.104004
0.07447343,57.264088
0.088954896,57.099762
0.02506432,57.38878
0.110120006,59.787876
0.0052418974,61.329586
-0.033978764,60.197197
-0.009818187,61.632767
-0.01118055,65.33563
-0.033913907,64.222046
-0.01605179,67.94921
-0.015486951,67.369446
0.09837803,68.54808
0.19037928,69.41929
0.19607872,73.86095
0.24142943,75.830986
0.32860887,77.233955
0.41287166,78.1627
0.5159838,81.60349
0.53126556,83.56795
0.5321163,86.15312
0.70487326,89.78541
0.69605696,91.57511
0.8262493,93.61522
0.7697516,99.786446
0.86598223,98.521965
0.96712905,100.56908
1.0020561,99.267555
1.0726572,106.31464
1.120664,105.96286
1.0405586,109.748726
1.2636982,111.69213
1.2160115,113.42725
1.2861308,114.29318
1.3290588,117.61398
1.3419213,117.68573
1.3402466,118.43858
1.2981843,122.284515
1.2728275,122.729034
1.3509349,126.838104
1.3843905,121.58059
1.3927119,125.19565
1.358375,128.0394
1.3800508,127.81236
1.2835042,128.82101
1.3754729,129.94447
1.2916437,131.32019
1.3007369,128.88824
1.3751663,129.3323
1.3415716,128.73227
1.3393767,127.10256
1.2205064,127.36044
1.3047969,128.64001
1.2334471,128.69868
1.246364,127.422554
1.1160768,127.39063
1.1467582,123.63139
1.0753706,122.39848
1.0154608,121.67634
1.1136148,121.32641
1.0463781,120.16107
1.0006034,119.87174
1.0441732,118.96543
0.9834465,118.139206
0.9711847,114.82794
1.0154139,116.0896
0.9555779,113.5307
0.92190343,113.51402
0.9336318,112.86941
0.9455297,109.90936
0.95920724,110.668175
1.006559,106.190994
0.84817815,105.914925
0.9089045,103.28302
0.83983564,102.27817
0.8919878,101.8445
0.86807984,101.4011
0.94442356,97.03654
0.8795865,96.89536
0.82228696,95.926704
0.8617011,94.62953
0.7879016,97.755226
0.684406,89.060905
0.68343586,90.61466
0.6476805,91.89358
0.7187408,87.26166
0.6917222,86.45844
0.6107807,86.130005
0.55174595,84.387245
0.53395647,83.29211
0.45991296,79.61622
0.47313195,79.655334
0.5026194,77.00628
0.42202237,77.04276
0.38226482,76.18891
0.37930563,75.02677
0.34782943,77.998795
0.34372774,73.19217
0.36974964,69.260796
0.40480486,68.169174
0.3818286,69.652916
0.3433818,69.217804
0.37821606,67.689415
0.3893786,61.297695
0.42127445,65.0536
0.37625706,63.136135
0.38870037,61.760727
0.38337055,58.378387
0.3416283,57.98629
0.37664512,60.45628
0.30045965,56.78096
0.34804183,58.00058
0.29168817,58.070267
0.35988703,57.54687
0.25785732,55.701847
0.23454632,56.095425
0.16718006,55.704247
0.20766929,55.04263
0.1002115,55.19835
0.11933034,57.518845
0.1580553,58.849957
0.08083723,61.53707
0.01879752,57.81403
0.08130243,59.230743
0.08956522,61.980606
0.06458886,61.63226
0.009308714,64.25566
0.11976541,65.41143
0.03767788,65.90563
0.16161333,67.31403
0.21640521,71.26538
0.19756852,72.93425
0.3420502,76.370735
0.38008663,77.919685
0.47955927,80.42766
0.46416003,81.39757
0.6199914,81.56263
0.6893178,86.2088
0.8069801,88.751274
0.8558763,90.70675
0.88338375,95.35863
0.9801578,98.20551
1.0957955,98.65368
1.090539,100.70491
1.1197176,101.2671
1.2336811,104.88541
1.3322299,109.43291
1.3263772,109.71952
1.3799062,109.4107
1.4283935,114.39459
1.3665863,117.305145
1.5168605,121.29227
1.5224612,118.3316
1.4507253,118.68314
1.5879984,120.767525
1.5295497,121.94443
1.4945692,125.25369
1.5945297,126.841866
1.5859843,125.55691
1.5758946,125.18653
1.5604311,127.99836
1.6221222,127.63669
1.5913628,128.73436
1.5283775,128.7151
1.5617489,129.42847
1.5411397,125.90332
1.5468205,130.84706
1.5703399,129.1117
1.5541362,128.12825
1.5014044,129.41321
1.4728647,128.25589
1.4404362,125.021996
1.4229845,126.04521
1.3232342,124.56523
1.4221067,123.04381
1.3508605,122.3431
1.3823698,120.0804
1.3585978,118.61646
1.3627862,118.537285
1.3580959,120.0695
1.3228196,116.53426
1.308066,115.85514
1.2756791,116.015724
1.184673,113.740265
1.2042367,110.06307
1.3685558,111.57343
1.2376678,110.50475
1.2395582,106.94628
1.1842439,105.79257
1.1707333,104.26851
1.2659203,103.34694
1.2618095,104.34638
1.2652614,103.02958
1.2502943,99.606094
1.1833991,98.52187
1.1711779,96.778984
1.189449,98.05979
1.1115987,93.0683
1.1807975,93.49756
1.1904453,91.39513
0.9604414,89.63254
1.0766178,87.56645
1.0547016,88.32318
0.9636286,90.77551
0.96881276,85.26058
0.9231309,83.00695
0.94338787,83.12636
0.9594312,82.83645
0.8235533,80.958855
0.83417153,78.59821
0.81697303,77.71222
0.8104144,77.42996
0.78206,77.69469
0.73900974,75.41359
0.7913705,71.78011
0.6344036,72.36186
0.8404099,70.84631
0.7847705,68.03964
0.735254,69.635216
0.7821205,67.727455
0.7621121,65.78761
0.7283845,64.52112
0.7617273,63.93723
0.750363,61.274265
0.8238957,62.92929
0.7101402,60.006878
0.81722957,59.159836
0.73434424,57.537655
0.68415284,57.76716
0.7275552,56.815014
0.6292428,56.86564
0.59056115,57.85414
0.6079313,60.55523
0.64600825,58.367825
0.5742465,57.742832
0.4840721,55.897877
0.56109625,55.087196
0.44129464,57.90887
0.475834,59.88502
0.4332653,62.260517
0.40754,64.57216
0.33515728,61.57758
0.5112142,61.207115
0.5211358,62.255497
0.42595094,67.35026
0.5395524,68.44719
0.46630353,70.63578
0.57396495,69.298386
0.63257825,71.74127
0.6983609,74.90182
0.82783496,74.019844
0.87421507,78.93318
0.97969306,81.70825
1.0317369,85.13901
1.0512047,85.04682
1.1807485,86.92293
1.2015152,92.38722
1.2762933,92.49165
1.3776414,95.42828
1.424188,97.65316
1.5218863,99.82566
1.5850525,101.09877
1.6504596,105.26755
1.6611363,106.35721
1.6954628,112.24654
1.7530812,111.000435
1.7877902,111.81209
1.8238391,118.30121
1.8341706,116.41959
1.8629674,117.9234
1.8396493,120.22132
1.8731223,122.72126
1.927378,121.3421
1.8919234,126.48758
1.9479493,124.04234
1.9603757,127.10774
2.0126636,124.47887
1.87371,130.05771
2.0047634,130.65767
1.8686146,129.3349
1.9532577,126.37289
1.9208901,131.4657
1.8921056,128.90746
1.9375242,129.76604
1.8856181,126.65145
1.8633575,126.31867
1.8792721,129.39192
1.8372784,126.04795
1.9526416,126.29895
1.8804044,125.63651
1.8601196,128.12314
1.7414613,124.38513
1.6998223,122.615814
1.6905562,123.17119
1.5819651,121.18337
1.6897457,119.96923
1.5689719,118.052925
1.6617569,116.59977
1.5390562,116.306526
1.6317201,111.46916
1.5564076,112.98293
1.4951447,115.06453
1.5724071,110.58272
1.59916,111.66564
1.5179385,104.65811
1.4250633,103.37985
1.538327,105.96104
1.4822289,102.522896
1.442343,102.97745
1.3892674,103.06409
1.4679632,101.28269
1.5288187,98.530525
1.4985179,98.71107
1.3815414,99.38185
1.380944,96.04545
1.3657417,91.68476
1.3644909,94.56531
1.3161836,90.04843
1.3472972,89.69475
1.209918,87.00358
1.1397368,88.64791
1.1131303,84.98051
1.0905386,85.52061
1.1130933,81.919304
1.0745516,82.64917
0.96403885,80.924065
0.98710394,77.56736
0.96771705,75.31932
1.0305114,75.12551
0.9658829,74.96706
0.9820943,75.25499
0.9432133,72.48752
0.91900027,72.447395
0.88355774,72.60823
0.9348302,67.838524
0.82869023,68.12132
0.90337497,68.224945
0.88504404,66.32903
0.8346324,62.84522
0.9153654,65.105125
0.91505563,61.802658
0.9764762,63.88807
0.92396814,59.210674
0.8701551,59.748398
0.9123114,60.64079
0.7369606,57.3924
0.76449907,59.368397
0.74088913,61.490467
0.7656483,55.946747
0.7742202,57.745792
0.6757989,57.340946
0.6002477,56.089935
0.5877469,57.474834
0.55224127,58.540333
0.4643499,58.01477
0.43110985,59.375042
0.4866483,60.657036
0.57119143,60.299328
0.48846078,61.591274
0.35646072,64.63506
0.5274577,64.99673
0.51946574,65.265915
0.5247966,66.06947
0.50699157,70.16826
0.53334665,67.59182
0.6194342,73.52559
0.69821215,73.59108
0.80683726,77.48149
0.8056129,78.696236
0.8510076,80.016205
0.9713625,82.16624
1.0852703,85.743034
1.0826509,87.747986
1.1444751,89.64064
1.2690336,93.86369
1.2896041,95.03002
1.3224499,96.74743
1.376832,99.529274
1.4283907,103.23815
1.546417,104.91413
1.6220337,107.91097
1.6440834,107.16987
1.6668886,111.39324
1.636796,112.64805
1.6340461,113.96582
1.7695541,114.87349
1.7870793,117.52958
1.7459345,118.17276
1.8068166,120.05253
1.7046413,122.94326
1.8669912,122.64765
1.7818067,124.02989
1.8708329,125.814766
1.7914554,126.63426
1.802466,129.4378
1.721629,128.79648
1.8200336,128.87917
1.772348,126.76977
1.7236971,127.05023
1.7435243,126.86947
1.7128694,128.60979
1.6909825,127.95674
1.7034556,126.6133
1.6149065,129.6358
1.6134286,129.74391
1.5635928,126.284515
1.5910528,127.85475
1.5487927,125.77006
1.4971465,125.606606
1.5156718,120.9991
1.4395689,122.003044
1.4057871,120.59252
1.4411414,120.01213
1.450592,117.33677
1.4137857,118.47888
1.3116578,118.19955
1.2980658,116.37385
1.2926162,114.75641
1.2356219,113.8835
1.2580795,111.65085
1.3264524,110.61073
1.2254919,110.1893
1.3098798,107.00556
1.2234192,105.04797
1.2298094,106.97286
1.2392895,102.41946
1.190614,101.68262
1.1789889,100.14334
1.1034015,100.695465
1.178772,97.25131
1.1420869,96.755455
1.0811867,94.46835
0.98703873,94.74767
1.0127603,93.33129
0.9344341,91.05464
0.9432443,90.53791
0.9303191,89.62039
0.8863536,88.808716
0.83984625,82.963104
0.75461733,84.45623
0.7789439,83.13145
0.8440272,83.42226
0.7219243,79.020836
0.70371807,81.30224
0.65174806,77.33399
0.6870566,75.78744
0.6151144,75.61585
0.62012035,73.97531
0.62271094,73.07558
0.50134796,69.28359
0.48533842,71.36037
0.5674926,67.98659
0.61206967,69.89324
0.5411024,68.44554
0.5156996,64.675896
0.5814352,66.20257
0.5075861,64.53097
0.5541327,64.08007
0.49570167,61.044395
0.49462694,61.371887
0.4448991,62.123642
0.43702117,60.008156
0.40540075,60.029797
0.4296116,59.27129
0.28266808,57.51626
0.3493573,56.927696
0.36480173,56.923717
0.26551652,56.76712
0.24720815,58.68397
0.25471574,57.294945
0.20259936,56.279892
0.17127183,58.033203
0.08919554,56.67729
0.10114394,58.086735
0.10277762,59.342293
0.104832396,62.001602
0.08998329,60.322628
0.08397051,65.255974
0.15211265,64.11891
0.108695775,62.10385
0.24643646,66.44632
0.21831855,69.704575
0.22014318,71.02923
0.36599785,72.96503
0.26865485,79.18068
0.3943837,76.44397
0.43655893,79.292274
0.49910218,80.55467
0.60392827,84.00648
0.693189,90.983696
0.7010426,89.6722
0.9050216,93.21631
0.9369519,95.586655
0.9609471,99.67982
1.0729675,100.745285
1.0894125,104.52179
1.0767658,103.52967
1.1837937,106.55739
1.2191607,107.032814
1.2545487,109.707375
1.2596898,112.653465
1.2885598,113.46829
1.3494229,114.97252
1.3363714,117.87516
1.4114007,118.351265
1.4229907,122.41955
1.4174742,120.491394
1.3638003,122.3663
1.4020357,123.73255
1.3944305,124.50508
1.4135774,128.55319
1.434069,126.852356
1.3696625,127.42809
1.3426553,127.05138
1.3587891,130.73683
1.2819306,128.96005
1.388671,129.23499
1.3925327,128.59627
1.1860172,129.84618
1.3635523,126.096985
1.3184845,127.760605
1.2731478,125.89411
1.2677099,125.01845
1.2287138,123.51085
1.2863743,124.498955
1.1758806,124.23703
1.1464787,123.25216
1.085339,120.736984
1.0944272,118.553696
1.0635414,116.793655
1.0485612,120.620926
1.0183685,118.70553
0.9846269,116.833
1.0379676,113.26942
1.0152698,113.86938
1.0032672,114.38135
0.8807407,111.77031
0.93032527,110.7835
0.95240575,109.35639
0.9904021,105.96837
0.93063104,108.26834
0.92583334,105.36963
0.8609588,99.88618
0.8576748,102.3827
0.8081908,99.19412
0.9062501,98.565125
0.8599183,98.009415
0.87007624,99.736885
0.7953261,95.2008
0.7492254,95.536606
0.7278796,93.863464
0.69505626,89.80987
0.71208644,89.25793
0.6758592,87.49897
0.62756175,86.452705
0.60736406,87.39347
0.5457722,86.502975
0.52091664,81.5474
0.49910367,83.48303
0.44143993,79.574974
0.38674766,80.059685
0.47689345,79.175644
0.46149167,75.946205
0.35089052,77.505875
0.35694855,75.388535
0.4309483,74.075645
0.35706386,69.34148
0.320703,69.70919
0.28396374,69.68154
0.34691456,70.15736
0.30798244,69.62462
0.40698117,67.36404
0.27818838,63.678143
0.31152833,62.904285
0.35260907,63.632507
0.37271154,64.71142
0.29426295,60.584312
0.34085354,59.760765
0.20997806,58.822712
0.2878533,58.995773
0.2530874,58.28144
0.21912648,56.753826
0.16393493,55.183563
0.16246185,56.278793
0.15092215,56.578403
0.12390282,54.83974
0.06631481,57.717766
0.016361536,59.494965
0.041149657,55.296856
0.030008534,58.14131
-0.0025978356,56.466667
0.0035150752,59.922886
-0.01413507,60.368107
-0.11821001,64.831375
-0.061995577,64.25954
-0.03513056,64.885345
-0.045784947,66.26087
0.07315893,69.205025
0.05138896,70.06927
0.22177342,71.060616
0.21512255,74.029
0.29606974,76.94004
0.38241625,77.4074
0.43407267,80.36258
0.4331718,83.18195
0.54901695,80.84576
0.57013154,87.79981
0.6922544,87.884285
0.77461994,91.75459
0.8388689,94.22198
0.91077524,94.54341
1.0023967,96.78097
0.98933977,102.63385
1.0155994,102.40717
1.1585748,107.8271
1.1709212,108.28294
1.2548183,110.927345
1.3242717,112.63937
1.3780432,114.05069
1.3205693,114.57797
1.3719386,117.91379
1.351353,117.09337
1.4185216,122.27326
1.4280931,122.00504
1.4933245,126.08992
1.5321876,126.20504
1.4438446,125.298035
1.5659113,127.0116
1.4892627,128.2587
1.5322388,126.07842
1.4358531,130.23221
1.526647,126.5128
1.4919145,127.52589
1.4550602,126.34649
1.4656131,127.14009
1.4265714,128.29716
1.5253365,125.97203
1.4584097,125.8576
1.4577109,127.07693
1.354658,125.64165
1.3885682,127.74502
1.3508629,124.9
1.3833674,125.092674
1.267389,123.030174
1.2773377,122.17491
1.2750729,121.50115
1.277795,121.44363
1.2608415,118.46435
1.2097629,122.85034
1.3078934,117.96776
1.2347001,115.019424
1.1860371,116.774185
1.1951149,112.54333
1.1027703,111.449036
1.1270589,112.327354
1.1337438,108.96686
1.1914344,106.31964
1.1138839,104.38265
1.0794433,105.11152
1.1014786,103.092896
1.064655,102.26637
1.1618356,100.402
1.1204327,98.848816
1.0919557,100.45434
1.0478022,99.05124
1.0344708,93.82719
1.0290416,94.98614
0.98856187,94.176544
0.99614185,92.55554
0.96590316,93.32478
0.97328895,90.424965
0.9100882,87.86388
0.82756096,83.780174
0.8487557,87.38253
0.83286387,85.58065
0.80810523,82.71026
0.8361178,82.57631
0.80050355,81.482315
0.67403936,76.643394
0.6617011,78.22482
0.65825516,75.54411
0.6977569,76.19911
0.7288744,73.62412
0.6090921,73.528465
0.6776865,73.10892
0.5990819,69.92813
0.7091384,68.08623
0.6844071,67.682175
0.69457644,65.88206
0.6675002,65.04646
0.6498991,66.295074
0.6677569,63.759686
0.66545796,63.908245
0.6902024,61.30483
0.70990413,58.012524
0.6145115,61.408485
0.7442012,60.50774
0.62355816,59.487904
0.64800537,60.380398
0.6034699,56.57853
0.5911358,56.089508
0.5839398,56.959774
0.39285353,58.602978
0.43630695,55.19866
0.41912118,58.34823
0.38466457,59.38446
0.38574785,57.809196
0.41742167,62.91491
0.42720744,60.83917
0.33058587,57.882256
0.3847424,63.120167
0.40146163,61.424706
0.40182412,62.190548
0.37240538,68.18685
0.41970393,69.51989
0.51489663,69.513306
0.50314873,72.66646
0.6092478,70.44957
0.6670346,74.76241
0.6977415,76.47542
0.76970613,79.789566
0.844298,80.81565
0.93504256,84.537766
0.9724636,89.58178
1.1044196,87.106285
1.1233237,90.411354
1.285932,91.869385
1.3490484,95.32702
1.3567456,98.51728
1.4565502,98.511856
1.47267,102.40636
1.6125314,106.93852
1.6379231,107.34318
1.6196604,108.59527
1.69735,112.90195
1.6916761,113.85831
1.7710637,113.163246
1.7641237,118.26792
1.9203179,121.97681
1.8222492,118.669685
1.8529576,120.775246
1.9226176,120.25072
1.9143865,123.382645
1.8824662,126.5477
1.9682926,124.5815
1.8409536,129.97726
1.8865806,127.5582
1.9328045,129.2841
1.9480096,127.48536
1.8874167,132.0821
1.91791,130.31065
1.8510133,130.7097
1.8118199,130.39038
1.760403,128.65144
1.7513006,130.00444
1.8205106,127.03525
1.7465459,129.12697
1.8205628,125.75733
1.7834506,126.077126
1.7861503,123.06187
1.7401469,121.53011
1.6715648,122.11894
1.6825309,121.34085
1.6085777,118.40478
1.6581134,119.37888
1.5587963,117.79906
1.6493185,116.99949
1.5854292,116.15383
1.5304964,114.069374
1.4787153,113.91587
1.5545461,114.22758
1.4969947,113.00937
1.5553875,109.136696
1.5839001,107.917114
1.4638886,105.11002
1.480018,107.660355
1.4805691,103.97381
1.5183775,104.560555
1.5415585,102.32013
1.4518193,101.05902
1.4776314,100.08952
1.4995593,98.8884
1.4428161,97.01854
1.3412524,94.01048
1.4042685,92.32703
1.3731396,90.95813
1.3202554,89.818214
1.2546293,90.51982
1.2835957,88.28014
1.1705717,84.12748
1.1148549,84.316185
1.0780268,84.84884
1.0250914,85.0266
1.031306,80.126755
1.1129638,80.868484
1.0084794,81.57652
0.96457344,78.368256
0.9682151,74.96339
1.014062,74.883095
0.9384412,73.19378
0.98689854,71.7987
0.9209315,69.95036
0.9628642,68.82643
0.93498254,67.73623
0.91813785,67.90729
0.8994624,67.603004
0.9055788,65.24468
0.9408228,64.657715
0.8645763,62.947514
0.8141427,61.28416
0.90796536,60.20545
0.90980357,58.43314
0.84259415,61.422344
0.8297669,59.236454
0.9357726,58.254223
0.7562076,61.49675
0.81450725,59.157658
0.83224684,57.902134
0.72358125,56.475143
0.6326669,58.85315
0.7424228,56.328773
0.66631603,54.651665
0.57906747,61.09076
0.55569726,58.659042
0.5344615,59.281853
0.5632222,62.275597
0.5462226,62.676277
0.48833168,62.76984
0.5777911,62.545166
0.56044686,65.03452
0.6086965,64.81739
0.57740015,67.66262
0.6632444,67.19572
0.61195403,71.909904
0.6981852,71.82447
0.7445058,74.304375
0.7954663,75.313194
0.8941082,78.60625
1.0275707,79.963615
0.97723657,83.26666
1.0088034,86.636
1.1651921,87.40007
1.325479,91.35447
1.3692077,95.12308
1.3768673,94.530975
1.4414054,97.96548
1.5197843,100.20777
1.563072,102.68601
1.6308264,108.065674
1.6975095,108.479485
1.7415403,109.24929
1.6651534,112.27251
1.7568141,112.534454
1.8156116,115.03244
1.8449526,119.10787
1.838456,117.65213
1.8024409,121.81815
1.9214354,121.235214
1.8942068,121.87208
1.8984205,124.20033
1.8692776,124.89806
1.9284356,126.6331
1.9142412,126.30384
1.8586074,128.94661
1.8997324,129.79243
1.9584167,127.44426
1.8112233,128.60542
1.7808278,128.78912
1.8122996,130.87337
1.7949455,130.63727
1.8259761,128.27917
1.7723446,130.16087
1.8054277,125.84017
1.6809672,128.37411
1.6873131,124.549805
1.656783,127.24485
1.5813723,124.254715
1.618528,122.65372
1.6390198,123.57103
1.5494773,120.94669
1.57371,118.79439
1.4748955,116.45561
1.4279884,117.79223
1.4887931,114.24256
1.4860865,115.69121
1.4242463,118.16914
1.3811969,114.3465
1.4207388,111.571815
1.3647633,110.73925
1.3674182,111.40658
1.351148,109.393936
1.330161,105.00128
1.3736513,104.61777
1.3545634,101.972305
1.3325021,103.49687
1.3186102,102.202194
1.2890857,98.48454
1.2088275,99.12445
1.2701161,96.12735
1.2549405,95.847374
1.1940987,93.260895
1.1605052,94.17888
1.1473511,92.99227
1.128104,92.53369
1.0759329,91.12613
1.0315194,86.3831
1.0284296,87.35558
0.9047028,86.36771
0.91191936,87.43909
0.9237254,81.33431
0.85166013,84.743965
0.81610674,81.976295
0.8377603,76.69493
0.7056495,78.35015
0.6536436,75.39661
0.688791,78.65259
0.68196774,69.76375
0.7032484,75.45853
0.7590875,70.87054
0.66770905,72.28283
0.6242423,67.137245
0.63628083,67.436
0.6401649,64.506355
0.7215942,65.0786
0.684121,62.954533
0.66155714,61.47082
0.5961095,63.677975
0.6127059,58.986813
0.60154176,61.212543
0.6017726,59.743732
0.55818105,57.504505
0.5098742,56.566967
0.51763225,58.381485
0.48673356,57.51583
0.5175472,58.960365
0.38977063,58.237114
0.3519585,54.808975
0.3357193,57.223972
0.26002622,56.704803
0.2814356,57.42103
0.2235091,57.869595
0.20943515,57.61879
0.2208322,60.918625
0.13198432,60.986378
0.18287008,61.371857
0.23691106,62.535915
0.20346777,64.97642
0.23566264,65.27661
0.24338533,66.911476
0.24506481,69.00711
0.29349753,71.7633
0.34476882,72.59683
0.3399389,74.529366
0.48274174,71.50967
0.4973553,78.15656
0.64766216,82.561935
0.57148784,79.14462
0.7047254,85.0138
0.8339402,88.07655
0.83587044,88.1648
0.9323677,91.960495
1.0063865,95.46025
1.0337145,97.68086
1.0676626,99.54578
1.1065303,101.11448
1.191208,103.44611
1.3203081,104.88565
1.3310269,108.099815
1.3758441,112.371544
1.3748186,114.227844
1.4110178,112.859695
1.4195595,117.93402
1.4200673,119.00395
1.5174582,117.27851
1.5128585,119.73586
1.4570234,123.31433
1.520202,123.70309
1.5639325,122.46076
1.52346,127.17016
1.4670384,124.270065
1.5377492,126.07659
1.4856704,129.61191
1.4809545,132.34538
1.4586796,129.14233
1.4261417,129.66559
1.5023013,129.49474
1.4163094,125.25021
1.3136656,129.92119
1.351795,130.68846
1.4150691,128.05083
1.4297286,128.15997
1.2919205,126.66752
1.3492714,126.27225
1.2778105,122.934105
1.2615358,123.078415
1.177638,124.762726
1.217299,120.11251
1.2571677,119.65127
1.2002237,120.47933
1.0109504,120.155205
1.0642716,119.25503
0.99147195,116.88338
1.0524431,114.67553
1.0688809,115.65121
1.0343544,111.6433
0.9150599,110.7892
0.94174993,107.61529
0.97618335,106.63674
0.89692,109.9139
0.90027577,105.5383
0.9773714,103.49876
0.9740424,102.78434
0.90705377,100.410614
0.8276745,100.17957
0.84240425,101.37742
0.882072,99.631454
0.8254944,94.323166
0.8035361,95.00005
0.8010204,94.505615
0.8158283,92.17827
0.7465163,93.59881
0.74422747,89.605995
0.7073145,89.78763
0.67171896,86.44727
0.5105956,87.53826
0.5906802,85.48104
0.5302019,83.8116
0.5225068,80.92115
0.42641437,80.402306
0.43030483,79.49011
0.4669546,79.94706
0.41715375,77.43769
0.35636243,76.145935
0.33580142,74.13802
0.41633135,72.39746
0.356243,71.24216
0.36127812,68.86797
0.3465073,69.69702
0.29201132,70.04602
0.3638105,66.66272
0.46154144,66.28921
0.3746927,65.43346
0.34687614,62.881374
0.23852594,62.442516
0.3870853,62.54328
0.28961566,63.38019
0.32723087,61.148407
0.29065537,58.326157
0.13557446,59.39849
0.33329603,58.906467
0.21724845,56.98859
0.22554891,55.875404
0.1553143,56.657696
0.1478153,57.513103
0.04270196,56.69329
0.088817604,56.721436
0.014682904,54.44975
-0.030691277,58.666435
-0.07291775,59.795982
0.0011315361,58.708706
-0.01932086,60.70001
0.0025217303,59.94962
-0.08892782,59.0782
0.040971495,63.128963
0.013466564,66.57134
0.044245776,65.47402
0.05711755,69.924416
0.087217465,68.2687
0.13544405,72.55023
0.20647854,77.9392
0.24608864,74.66775
0.36202106,79.727234
0.35523885,78.48716
0.45011926,82.76551
0.43994704,84.80003
0.5592887,88.00492
0.70351887,89.22102
0.6888987,91.49015
0.77977943,95.48939
0.82059234,95.35039
0.9156324,99.37018
1.043569,100.64408
1.1203659,105.43313
1.0787046,105.38937
1.1076734,106.98683
1.1677783,112.1901
1.2200385,110.64181
1.2726129,115.35517
1.2647625,116.838264
1.2493023,118.18684
1.337396,118.32888
1.314941,120.19701
1.361652,123.80238
1.4242133,122.878136
1.3952909,125.54205
1.4000584,125.638435
1.4460962,127.68084
1.3769169,128.51967
1.4732889,128.2191
1.3885365,128.83704
1.397596,127.13663
1.3944434,129.67937
1.4284687,128.90454
1.3320243,125.48394
1.3013421,128.26791
1.3005124,128.38171
1.3393489,126.596695
1.3172933,129.75967
1.2788842,126.36199
1.2381941,124.820984
1.2037578,124.67265
1.1978314,126.71637
1.2404486,122.888016
1.1545316,121.266266
1.1246921,121.158516
1.1393471,121.88573
1.1133847,119.86067
1.0706602,118.43219
1.0577298,115.89105
1.0607581,117.04138
1.0828184,112.541374
1.0503248,111.50497
1.0328497,111.40163
0.9919007,111.50653
0.9963168,108.20166
1.0379922,108.70628
0.95866936,106.86067
0.963253,105.5282
0.9875014,104.2999
1.031428,101.20681
1.0080475,100.04538
0.95101374,98.4514
0.9733155,96.88645
0.889706,95.484726
0.98104906,95.91383
0.93063694,92.61371
0.89828926,94.532234
0.95092714,91.66456
0.85430145,89.56463
0.8055457,88.69214
0.7582443,88.372955
0.75538087,87.37563
0.74507636,86.323906
0.6941643,82.91328
0.7063321,82.67827
0.6327807,79.35807
0.6103244,77.37014
0.6099334,79.90027
0.5911443,79.989944
0.57028186,75.419075
0.55970395,74.177444
0.60291797,72.34184
0.57602245,69.02052
0.4606462,71.94611
0.5072875,69.17582
0.49817204,67.52065
0.5771287,64.28844
0.45708314,66.55041
0.546094,64.91262
0.5218102,62.841297
0.58264244,62.32866
0.5151101,62.624664
0.54532003,60.17335
0.54286766,58.275238
0.5789773,62.02936
0.4450129,58.010406
0.60942733,57.397278
0.49258137,58.49923
0.35318914,55.6353
0.45220676,57.017708
0.400423,57.394726
0.35507247,60.00054
0.36035833,55.833637
0.3874121,57.67827
0.3503788,55.272247
0.26976863,57.844166
0.2518,58.958607
0.2511663,60.84976
0.28488758,61.1546
0.24772482,63.337395
0.2342027,64.30485
0.27874732,64.05384
0.31157443,64.65786
0.3679325,67.98862
0.35439622,67.84796
0.43933338,71.91853
0.45488492,70.53719
0.5768071,73.5811
0.58860105,76.24118
0.60360795,81.518456
0.7718261,81.6151
0.9232115,83.75498
0.8816869,86.76824
0.9887741,86.793755
1.0352108,92.30052
1.1224622,94.34185
1.2604492,98.55718
1.3051195,100.16339
1.3172392,102.01135
1.4432962,104.99267
1.4045179,105.17159
1.4601161,105.84467
1.571954,111.559074
1.5545336,110.106476
1.6205175,114.996475
1.6565135,115.0721
1.6469904,116.71297
1.7351383,117.83895
1.7898673,120.686745
1.7249358,122.990135
1.7295502,124.598404
1.809552,124.01277
1.8552839,124.18629
1.8306205,127.49733
1.8515816,130.56573
1.8520346,128.6261
1.8496084,127.774376
1.7593017,127.600975
1.7688314,127.75905
1.7692769,128.95703
1.7239518,127.232506
1.797553,128.04375
1.7807783,129.0574
1.689065,128.66634
1.6698188,128.75581
1.5895233,126.91483
1.6403736,126.48372
1.5668228,125.61277
1.5730007,123.42518
1.5951053,121.97328
1.5716974,122.9432
1.5909153,120.820946
1.4977239,121.33285
1.5218028,118.57309
1.5026847,115.88619
1.4834435,113.2168
1.427848,115.18283
1.5178739,113.35717
1.4745028,114.09629
1.4783204,111.30016
1.4080507,111.32147
1.3832008,110.33738
1.4297223,107.96562
1.3392195,107.36301
1.4462268,103.35902
1.3951133,102.42942
1.4027271,102.25762
1.3327374,98.139915
1.4083971,98.17355
1.3095915,98.332695
1.344448,98.2703
1.2817004,96.09997
1.3117809,95.59259
1.2954359,94.46296
1.2495586,93.05112
1.2820958,94.05905
1.1976402,89.04905
1.2116055,88.14478
1.1337453,85.18467
1.1376758,87.16424
1.1424867,82.229034
1.0508821,81.336044
1.0682852,81.838806
1.0402551,82.69775
0.9584764,80.0911
0.98187655,78.36915
0.84350437,75.360245
0.92090523,75.97516
1.0560943,73.94246
0.9291365,71.56943
0.91916275,70.625595
0.903316,69.96093
0.8905201,67.51138
0.8509548,68.890915
0.8770261,63.72166
0.8991458,65.24564
0.9413764,65.101875
0.8644621,65.05614
0.8893906,61.09508
0.9317741,60.337337
0.80130506,58.540173
0.9058983,57.35524
0.7890156,56.444267
0.82627237,59.414562
0.77042454,60.43682
0.75428325,56.797924
0.6840918,56.64416
0.75418454,56.92422
0.6568814,56.256622
0.73205507,56.586998
0.65859556,59.208206
0.59872556,56.37195
0.6230158,58.4128
0.60574067,61.050972
0.5356322,61.558575
0.56772214,58.565994
0.5979141,61.82798
0.49729374,65.472565
0.5613114,63.985134
0.5674068,64.7908
0.6068533,65.089165
0.66818696,69.61651
0.71325403,68.94661
0.7209858,74.35656
0.7061641,76.46268
0.8587394,74.64964
0.916306,79.78648
0.9632531,79.71801
1.0483193,85.094574
1.1598127,88.6729
1.1727097,89.14758
1.3341134,91.53942
1.3513044,91.45799
1.4259136,96.65291
1.4702564,97.70016
1.5532357,99.3694
1.5753285,102.550766
1.6606433,103.93776
1.6869295,111.02753
1.7219256,110.30765
1.771714,112.29165
1.8790699,112.5188
1.7634581,118.64314
1.8569936,116.940445
1.9256115,117.71806
1.9228827,120.59862
1.8882152,124.508
1.9146668,124.380005
1.9697274,126.392265
1.9314741,123.57343
1.9424745,125.030075
1.9191811,128.3695
1.9196175,124.642914
1.9356703,126.270805
1.8934124,127.27151
1.9100429,128.23177
1.9078717,128.4586
1.8530102,129.778
1.8840202,129.52277
1.9033763,127.800415
1.8331437,129.0469
1.7689816,127.03363
1.7615192,126.8653
1.8399833,126.16982
1.7354153,126.07534
1.729105,125.60538
1.66733,123.82043
1.6019328,122.69653
1.6002352,120.68384
1.6547405,123.665596
1.5406457,119.75534
1.5448503,118.14349
1.5939143,115.76337
1.4760976,116.8374
1.5705551,112.35387
1.4727757,113.46217
1.4401262,112.88736
1.4408683,109.65425
1.4119368,109.438774
1.4598069,109.61981
1.4376878,104.06103
1.4115179,105.54662
1.4604993,104.61127
1.459093,102.63904
1.4066945,100.94631
1.4577374,103.92491
1.2622929,99.757195
1.3436784,93.83566
1.2890539,98.02594
1.3609037,93.3606
1.2401867,94.19761
1.2360506,91.67535
1.2019273,88.763565
1.1021957,89.613594
1.2103584,90.27993
1.0255625,85.92527
1.0524893,86.359566
0.986937,83.32994
0.9666519,81.14688
0.96256083,82.90416
0.9914538,80.90161
0.91311437,80.034584
0.8813194,76.57325
0.8177988,77.755714
0.78651077,76.75228
0.8442636,77.16403
0.7689015,71.054245
0.8064286,70.226906
0.76923394,67.213585
0.71965355,68.69597
0.7626801,69.201904
0.7586868,68.250145
0.7070502,65.614845
0.77359575,64.087326
0.7542111,64.49552
0.69143116,59.880024
0.7034363,59.43473
0.6925168,60.641533
0.68822306,60.12769
0.7801034,58.102936
0.6464669,57.403175
0.6454652,57.674747
0.5869308,61.272038
0.5529319,57.076862
0.49328655,59.90935
0.50514543,59.520424
0.49202392,56.209766
0.4616196,56.20381
0.4422048,54.67501
0.40573376,59.432426
0.25256747,59.28359
0.33587143,60.78299
0.27257583,60.515186
0.38347387,61.898335
0.27229106,61.636776
0.33220366,63.367664
0.32793415,65.67609
0.3336013,65.335754
0.41694587,72.39195
0.41040123,71.06574
0.57378435,71.43115
0.48069462,74.98415
0.5929186,76.67067
0.65375066,82.33278
0.6896671,84.1102
0.73383033,81.74895
0.80954564,86.54781
0.8564003,88.033485
0.9627137,87.94712
1.0859795,95.11885
1.0476558,94.9887
1.1928087,97.95784
1.2527937,103.103516
1.3252429,100.77428
1.303686,103.868805
1.433179,108.05384
1.4177264,111.07141
1.4031026,112.18559
1.5144465,114.21342
1.4790889,115.6198
1.5709554,117.30269
1.5525563,119.652176
1.5776526,120.79029
1.5308279,123.07397
1.5676769,124.1924
1.6154325,124.56395
1.5846134,125.552444
1.6032366,126.04705
1.5997248,124.79396
1.6079986,128.03471
1.5420977,126.614456
1.5776587,130.33437
1.6138884,128.56007
1.4778404,131.75327
1.5226816,130.15343
1.5043819,127.79806
1.5679227,128.2135
1.5363108,126.879326
1.4741706,125.644424
1.3252839,127.57911
1.3089119,126.76713
1.3706961,128.56999
1.3405982,124.4346
1.2698281,127.0599
1.2861137,120.6244
1.2561728,120.73414
1.23409,121.78535
1.1581042,117.89668
1.1978029,119.69565
1.1656562,116.22818
1.1496385,112.21638
1.0904547,115.55901
1.1160783,113.059814
0.9971759,111.97025
1.1439664,108.61107
1.0600346,111.301315
1.02185,107.01781
1.0720187,105.99688
0.9624308,106.23673
1.0910962,106.17868
1.0172888,103.34209
0.9754951,103.18963
0.9314331,99.73718
0.96676546,100.673775
0.9955732,99.90089
0.9483351,93.66684
0.905034,94.37533
0.8330558,90.820564
0.8460813,91.302055
0.86979234,90.74958
0.7732276,91.21961
0.7631792,89.0585
0.6246939,87.390785
0.7133602,88.06261
0.58747435,84.0732
0.5146771,83.23873
0.48338985,80.19615
0.5272206,80.710106
0.4679811,79.36317
0.49485624,78.7799
0.4742036,77.554985
0.49982598,75.928566
0.39937273,74.10593
0.31448182,71.347466
0.35753617,71.47412
0.4210874,69.74416
0.4107962,67.46786
0.37439933,67.05442
0.31142125,65.90921
0.38348994,67.658615
0.41613063,64.338295
0.4453679,64.49287
0.335356,62.971767
0.3432771,62.545616
0.31306472,60.831264
0.3579467,60.883152
0.40174705,57.469276
0.3176057,58.857315
0.16232176,59.309
0.30190504,58.656033
0.18619877,56.117523
0.10182255,56.679775
0.09526421,58.878582
0.1364238,57.048397
0.13453323,55.925514
-0.02842315,58.567142
0.02389448,56.74141
0.029457085,59.325832
-0.08878373,60.40116
-0.06153803,62.42949
-0.0077599837,59.22067
-0.08071269,63.969646
-0.027576668,63.806625
0.016835198,63.332058
0.028699627,69.07861
0.11225581,71.591805
0.13887082,69.46065
0.110322446,70.80847
0.21939656,73.58387
0.27214724,77.96631
0.35765824,78.93305
0.41086993,82.181564
0.4838891,84.2108
0.5158495,82.627205
0.59347326,87.02011
0.57601464,90.27286
0.7295077,91.855865
0.82115966,95.50748
0.89483225,98.24087
0.95853007,97.34544
1.0396945,103.31083
0.98844504,101.75597
1.1372205,105.399574
1.176532,108.09101
1.1344119,112.08547
1.2100726,112.53539
1.2402753,114.82673
1.2488706,120.46054
1.2959325,119.48705
1.3738905,121.30777
1.372814,119.12326
1.379395,123.81003
1.391051,124.12046
1.3078933,125.10439
1.383828,126.54095
1.3652928,129.0132
1.3604153,126.55389
1.2593373,130.54549
1.3168782,127.40049
1.2902772,128.908
1.268771,125.6563
1.3625212,129.62115
1.3565266,128.69733
1.3423198,127.55366
1.2833376,128.23753
1.2935203,128.37035
1.2911056,125.78071
1.2354062,126.72334
1.1627831,126.940506
1.1347259,125.2667
1.195531,125.18889
1.1422305,122.94482
1.0508449,122.002945
1.113287,121.79677
1.0785258,120.8026
1.0057366,116.70595
0.95669925,116.47364
1.007095,115.271095
1.0037899,115.82965
0.9218303,113.10024
0.8939393,111.5545
0.9294428,113.52569
0.96912557,113.98263
0.9040387,105.958244
0.8857239,107.68759
0.8724692,106.83612
0.90017366,104.121895
0.90780985,103.33572
0.94531596,100.30679
0.9026897,96.7355
0.9656504,98.56631
0.84281784,96.68691
0.89106274,95.867256
0.910571,96.044
0.87495184,95.112595
0.7491935,92.979
0.798381,89.73002
0.7406557,89.03518
0.7271219,86.4685
0.6376984,87.48499
0.6227804,88.56976
0.59906316,84.10952
0.5797581,82.00072
0.51395893,81.67086
0.52872974,82.43284
0.50396276,81.19256
0.5501083,77.35325
0.50519836,73.389084
0.44528094,75.32803
0.5139886,72.62347
0.4763859,73.26881
0.4075375,71.968956
0.40079188,71.06883
0.47221798,69.320816
0.44923344,69.228424
0.42500785,68.71088
0.41918626,66.83472
0.37880027,65.26829
0.45594168,61.65003
0.4211755,64.425705
0.37548932,59.156067
0.47179773,60.773594
0.3942025,59.950386
0.4554008,60.01563
0.46462643,59.700638
0.31758046,57.691555
0.3426439,57.789577
0.33437106,57.128036
0.3185166,56.997498
0.23956642,55.34373
0.29459292,57.76839
0.27333084,56.842125
0.15675157,58.043205
0.16860563,56.35812
0.14512908,57.77038
0.13590436,56.70453
0.077707544,59.310635
0.17376186,62.271324
0.13179697,60.829815
0.13585295,63.14722
0.21262835,64.41628
0.20306398,66.88697
0.20129012,69.262024
0.2066505,71.66184
0.31347114,73.9756
0.38506505,72.98012
0.4636838,78.313156
0.51496065,77.74295
0.56802815,78.470276
0.66533583,82.88846
0.7321027,86.885605
0.7903143,90.10502
0.9499881,90.23186
0.90427077,90.16834
1.0253345,94.52678
1.1238277,94.73408
1.1717051,100.0325
1.2052798,101.48848
1.2593285,104.8026
1.4201938,106.4028
1.3536938,110.13285
1.4793696,114.03743
1.4607561,114.29093
1.4856598,112.61939
1.5818118,115.00901
1.4514617,120.76698
1.7236725,118.87092
1.6033882,121.35392
1.660701,121.44559
1.6049249,122.30732
1.5429851,124.55505
1.6396035,128.66943
1.6624624,125.147026
1.7183961,126.72745
1.6313721,127.91569
1.671502,130.46936
1.618338,126.76297
1.774299,129.16785
1.6650497,129.1692
1.7097238,128.07312
1.6060826,130.24832
1.6245325,127.664276
1.544554,126.43529
1.6294922,127.38226
1.6185645,126.89761
1.5334152,125.34092
1.548211,124.023926
1.4766617,126.703285
1.4402003,122.91416
1.5472335,122.37186
1.4210652,121.67336
1.3748697,120.14369
1.4523747,118.325455
1.4231656,118.562675
1.3806617,116.42444
1.3651818,112.83541
1.3782287,112.29176
1.3018434,115.18283
1.3930988,114.206245
1.3125217,112.40228
1.3033144,109.51464
1.3104227,105.10489
1.2467326,104.82742
1.2421882,103.37371
1.3033496,103.07154
1.390692,102.228615
1.3381077,100.105
1.21411,98.740105
1.323892,98.94493
1.2050002,97.664566
1.12155,92.67465
1.2442691,94.17631
1.2107121,92.57308
1.2019433,93.23035
1.1536592,90.52751
1.0782678,88.97592
1.1303512,88.23185
1.0953809,88.13653
1.1445979,85.93289
0.9446252,81.16177
0.9667455,82.61224
0.8969156,80.314186
0.9117875,78.97505
0.93726,79.98526
0.92923135,76.28357
0.9090844,78.49532
0.9014934,74.45779
0.7840622,72.88554
0.7702139,73.44523
0.92284375,69.51826
0.87261885,70.88523
0.8330035,71.37806
0.8950555,67.72761
0.8679494,67.29615
0.82633543,61.263874
0.87938327,63.389008
0.81419927,62.560806
0.8096871,62.042538
0.94880295,58.96298
0.88747036,61.020542
0.8292134,57.25582
0.93774897,58.436806
0.84910035,56.539707
0.7703434,60.2415
0.73482656,57.273033
0.7327036,59.18305
0.67835206,56.645367
0.6302082,56.656776
0.6252457,56.57673
0.63011926,55.856148
0.6217852,58.773663
0.5177818,54.510147
0.47417516,58.283535
0.47752315,61.66585
0.52254117,63.761543
0.4903416,62.305244
0.5105052,62.908325
0.51448864,69.375534
0.5384636,66.750244
0.5418036,67.284676
0.6426909,70.631615
0.6442762,71.42088
0.7463685,73.16232
0.8158405,78.41119
0.80812055,75.71213
0.8370276,79.99536
1.0064578,82.404106
1.1201549,83.006355
1.1238148,90.32233
1.1937594,87.27485
1.2808373,90.25049
1.3802586,94.31005
1.4698794,98.819084
1.4647031,98.37489
1.5468861,100.862045
1.5580239,103.84182
1.6239392,107.345406
1.7319337,107.85626
1.784339,107.9828
1.8291861,110.64624
1.8280044,113.521614
1.892754,114.98873
1.8551399,116.954605
1.9707648,117.70127
1.9343668,118.93685
1.973417,124.19615
1.9317182,121.982635
1.9646894,123.26423
1.9677107,125.582344
2.0126917,125.85201
1.943219,127.561134
1.979027,126.09738
1.9074923,127.97308
1.9254688,131.70285
1.9297396,129.97414
1.8975195,130.25371
1.8732027,129.76382
1.9140185,127.54998
1.8489568,127.284546
1.8302597,130.39516
1.819763,128.23566
1.8181045,124.103294
1.8199272,126.63114
1.844578,124.76942
1.7535162,126.42744
1.6946707,124.74796
1.6734389,120.867966
1.6489141,122.796036
1.6522304,120.493965
1.6613754,120.60462
1.5735551,117.51509
1.5562388,116.3164
1.5602659,118.11562
1.6341915,112.04006
1.555153,113.03571
1.5373659,109.0357
1.549158,108.849495
1.58159,111.57805
1.4381039,108.68836
1.513442,107.44497
1.5092407,104.25879
1.4683555,101.1368
1.4373752,100.60045
1.4463973,101.70554
1.5206991,101.93803
1.4066459,96.87327
1.4228166,98.077065
1.3700774,98.65631
1.273049,98.399635
1.2769496,93.86481
1.2048942,91.89262
1.2853911,91.15003
1.2096144,89.84739
1.2632147,88.51459
1.1408019,89.6021
1.1599457,85.03239
1.0762857,87.38907
1.0224204,84.52725
0.9988382,80.168045
0.9997973,76.57644
0.94022775,78.49845
0.9872482,76.61282
0.9064397,76.97488
0.97900516,74.555145
0.7941755,72.78627
0.9146311,69.37172
0.8578176,68.67856
0.85783964,69.88971
0.8458605,70.088356
0.8248196,67.59012
0.81035346,66.36731
0.884758,62.533123
0.86599064,65.71854
0.917095,63.411182
0.8229048,60.374912
0.83628565,60.904358
0.78252834,59.714745
0.72878957,57.73953
0.8315724,57.78672
0.7480827,58.90322
0.77155167,58.637222
0.6713709,58.779167
0.66321176,55.21172
0.6252859,60.052513
0.57434505,57.498177
0.59354466,55.820457
0.64274365,56.882385
0.515676,56.166733
0.49984896,59.27608
0.48324373,61.926056
0.44065142,60.573242
0.41127953,58.287403
0.51001126,59.87792
0.44518226,61.128986
0.44059405,64.94428
0.41805047,66.56874
0.42541462,69.001434
0.48924,70.33658
0.5051344,73.07232
0.6017071,74.34856
0.62761974,75.648544
0.7266622,78.15695
0.812944,78.927155
0.8033098,82.99787
0.8089333,84.202415
0.96730024,88.24898
1.0331246,87.91464
1.1013184,90.18867
1.2081649,96.14087
1.3058133,96.08755
1.2774174,100.677574
1.3213844,100.89419
1.4053558,101.00875
1.4309263,101.53536
1.5136311,106.70179
1.5868772,108.28398
1.6010116,109.116776
1.5994359,113.176605
1.6478876,115.24064
1.6660702,117.973015
1.7250317,121.40938
1.7434531,121.64405
1.6975787,121.43651
1.7619046,123.96096
1.7320055,123.8104
1.7586757,124.14087
1.6996129,127.25242
1.8292763,127.520744
1.7915056,126.8134
1.7459854,127.79991
1.7695056,127.10803
1.7280024,129.22449
1.6635494,129.07076
1.5975939,127.96284
1.6300064,128.82092
1.6328915,127.696526
1.5293459,127.19425
1.5984243,130.74498
1.5244603,129.13254
1.52498,125.20829
1.4742601,125.35378
1.4911203,125.64359
1.3430886,124.55293
1.3664408,123.500084
1.3515874,124.336365
1.3668885,120.735565
1.3399503,118.79567
1.330068,119.393906
1.3272549,117.632164
1.2813495,113.99816
1.23672,114.464935
1.1940248,115.859085
1.2105027,110.144066
1.2413228,110.927666
1.1934885,111.150566
1.1907294,105.31342
1.1385158,105.77048
1.0960014,104.45627
1.2158725,103.07565
1.0623862,101.41667
1.0384556,101.84624
1.0355037,99.44058
1.0622035,100.384674
0.9965551,96.03047
1.0302316,97.34119
0.98639894,93.8065
0.87368417,92.699135
0.8811847,89.95677
0.9266887,89.11298
0.8893837,91.711525
0.8228638,89.00279
0.82959294,86.05128
0.68785286,85.158455
0.6587195,83.951065
0.6562628,84.34303
0.691906,84.0513
0.59127593,77.955734
0.5626908,77.464355
0.5938601,78.57358
0.57491857,77.33541
0.44120497,71.72831
0.54289997,75.48645
0.41957557,74.04569
0.5298264,70.57936
0.47424406,70.04735
0.529245,71.367386
0.43574283,68.86967
0.47452995,66.76187
0.4007681,65.1848
0.4380314,65.211365
0.4237448,62.380455
0.36341622,62.896664
0.421525,64.74629
0.36274636,60.902573
0.38285762,57.0648
0.42078182,58.526848
0.35334492,57.845776
0.31424084,57.095455
0.26942176,58.116627
0.27596068,59.667988
0.21962792,58.40769
0.117400914,55.172005
0.16309294,57.05849
0.12191128,57.052364
0.09533261,58.576862
0.030200474,59.375904
0.14816599,59.886383
0.064274885,58.2383
-0.013303119,60.163906
0.02185017,63.384342
0.016292902,61.326344
0.09272096,65.2441
0.13875036,66.32908
0.10777261,70.14482
0.1149818,69.28401
0.17879711,70.91088
0.19253387,74.233
0.25484094,74.46659
0.29665348,77.17116
0.4256504,76.78597
0.4646674,80.69011
0.5536596,82.49429
0.5583177,85.43151
0.6139927,89.03863
0.74245983,92.50194
0.80574775,89.771416
0.7966874,93.218315
1.0720859,99.827614
0.9232924,99.45995
1.045562,103.60007
1.0757096,102.27157
1.1104871,108.399956
1.2233158,110.46462
1.1856358,109.49084
1.1846658,111.074066
1.2346424,116.72215
1.2763934,114.57695
1.4001296,116.59098
1.3882998,120.20926
1.3123573,119.808464
1.3985531,122.91677
1.2887748,124.07237
1.368876,127.81929
1.3614405,125.73303
1.3811847,126.777824
1.36899,127.17365
1.3762437,128.62556
1.3629717,127.76155
1.31144,128.64694
1.3512249,126.48008
1.2779984,128.14677
1.2865709,130.78563
1.3151666,130.80241
1.2989005,128.32803
1.191646,127.10788
1.2128541,126.752014
1.2020766,128.05475
1.1937217,123.250885
1.0586215,125.63186
1.1192048,123.52461
1.0807428,122.76833
1.1124637,119.13199
1.0420935,122.52511
1.1279093,119.63503
0.9883008,119.35475
1.0769835,113.53115
0.940885,117.08162
1.0229577,113.7257
0.9391866,111.72349
0.94583744,114.27518
1.0078125,112.356514
0.92390394,109.549324
0.93178976,108.323135
0.9359608,106.84698
0.8665358,107.412125
0.9382631,104.56087
0.9187071,104.23616
0.89426094,102.657585
0.91894686,98.88801
0.8237966,101.754814
0.8340488,98.85422
0.7869721,96.24211
0.85159457,94.19062
0.80771136,92.41348
0.73820066,93.5055
0.7158616,92.95659
0.692,90.789055
0.6616762,85.500244
0.66673404,85.77776
0.5319465,86.13912
0.49333343,83.67841
0.51742536,83.80163
0.47634894,81.57968
0.49285927,81.84996
0.3954434,80.264404
0.37427953,80.81394
0.37283385,73.76195
0.3715269,74.594284
0.38555992,74.102684
0.40275842,74.68862
0.40907696,71.497444
0.34267497,71.188934
0.40234914,71.765
0.3002243,68.78701
0.3663635,65.966774
0.3120902,65.914894
0.36965,64.385414
0.35262778,62.431232
0.3035608,61.467026
0.36958626,61.092136
0.32796592,63.129154
0.3436167,62.7978
0.26520047,59.070026
0.29764226,56.84702
0.29908535,57.49376
0.2758672,58.475307
0.2407602,58.214397
0.18418472,59.214508
0.14907955,54.4477
0.17610213,53.174606
0.12640667,56.07589
0.16355084,61.80199
0.10912861,57.89585
0.05201824,58.806057
-0.0121619,60.464314
-0.0061261957,59.438694
0.073120624,62.51287
0.040980436,64.60454
0.01229166,64.23745
0.16293328,64.851166
0.12076782,66.37819
0.14085242,68.50756
0.14091438,70.874916
0.21841452,69.15011
0.28482804,72.95433
0.36818382,73.970894
0.41323867,78.49419
0.5229862,81.823906
0.56954926,81.93641
0.7035565,83.28887
0.72531146,88.080154
0.83368367,90.59796
0.77777755,94.53306
0.88846767,95.86241
1.0759343,98.887314
1.1254416,98.26201
1.0954614,101.94268
1.2294594,103.392235
1.282822,104.89941
1.2761774,109.07418
1.3157309,111.19305
1.3667092,113.55955
1.4094654,113.8699
1.4175656,119.032585
1.4569241,119.01653
1.5376949,119.63669
1.4841144,121.272316
1.6287676,122.840996
1.5087917,119.979294
1.6015007,124.254395
1.5729995,125.16608
1.559852,127.17942
1.53532,129.2687
1.6150458,129.53906
1.4623419,130.3495
1.5646402,131.60472
1.5810895,128.34616
1.5339328,128.65588
1.5285602,131.09566
1.6123773,125.16953
1.4517623,129.89761
1.4796221,129.65302
1.506979,127.23727
1.4131883,127.22489
1.4266413,123.66501
1.465447,126.078026
1.3063446,124.71956
1.3492633,124.17188
1.3591082,121.502144
1.2946372,118.93206
1.2901831,119.78396
1.2845428,119.757095
1.3062835,118.40369
1.3354639,116.08035
1.2817384,114.23538
1.2130566,111.13224
1.1774005,114.6183
1.2120503,110.45583
1.1481495,109.701485
1.2342652,106.84399
1.3195438,107.611694
1.1891835,104.32996
1.1882373,105.156715
1.1501406,104.8727
1.2506429,102.55976
1.1060603,101.094894
1.2434413,98.56578
1.2138234,99.42412
1.1637288,96.84144
1.067323,96.82886
1.1494823,93.22684
1.1539608,93.22984
1.0478737,88.685814
1.0945314,88.757614
1.0197375,90.396385
0.9418434,87.26294
0.85451317,84.54745
0.93617576,86.83745
0.8577826,85.20615
0.833488,84.0287
0.8557043,78.957405
0.81388444,80.87039
0.8361694,78.418045
0.81152433,75.8607
0.7919658,74.27685
0.80683917,74.74117
0.80865395,70.443634
0.75910366,70.70895
0.73462695,69.886635
0.7446544,69.29051
0.7081981,68.22735
0.788435,65.02851
0.6886617,64.321434
0.7003949,64.5205
0.81091386,59.700394
0.74637324,63.006847
0.7489148,60.723778
0.7438118,61.162975
0.77126956,57.850452
0.68610466,59.79343
0.63224643,58.72744
0.68068665,56.9223
0.64334446,53.29199
0.5129807,55.016045
0.59386814,58.512394
0.67478406,54.826225
0.5123647,54.157185
0.5130141,55.852665
0.5543703,58.51334
0.4825454,58.466503
0.4391981,56.539337
0.49964502,57.855396
0.41025195,59.607708
0.43466672,62.347603
0.4522401,61.358044
0.46666488,64.46021
0.49084863,66.0078
0.53413963,67.352394
0.50258285,68.46484
0.6378972,69.245514
0.6826412,72.16386
0.67055964,74.62355
0.72893393,76.56019
0.8149109,75.70391
0.93934345,82.64117
0.9014792,84.771164
0.98200345,86.33285
1.083708,86.86363
1.2008344,90.95668
1.2348593,91.066925
1.3139431,96.82402
1.3882711,100.59761
1.4024196,95.69112
1.51104,102.67553
1.6231403,101.85832
1.6264247,106.7562
1.6592546,107.494385
1.7096025,113.53494
1.8006287,113.35001
1.8083557,115.45488
1.8342725,116.74053
1.8404988,119.175735
1.8679484,116.50964
1.9153233,121.32898
1.8368921,122.46373
1.966954,128.15446
1.9150919,123.19804
1.9594331,124.791595
1.9272556,128.04492
1.996761,128.27084
1.9737793,126.231094
1.9130491,129.2632
1.8575124,127.07077
1.9102955,129.11807
1.8719189,129.22607
1.857808,128.20967
1.8710244,129.53378
1.8376018,130.19026
1.8431171,130.42564
1.8180126,125.78798
1.8194435,129.35742
1.7464136,123.462814
1.7448782,122.741714
1.7923411,124.35321
1.7389796,122.51498
1.6414852,120.75226
1.566435,122.99414
1.5742126,119.878914
1.6355519,117.77522
1.5647541,115.97789
1.6405712,116.25925
1.6118699,115.13713
1.5329905,111.48077
1.4784983,112.64901
1.552845,110.841805
1.5234984,111.52562
1.5167164,108.07451
1.5452886,110.31309
1.4861292,105.60993
1.5258163,104.29351
1.485479,101.67727
1.53387,102.26297
1.4599007,100.840225
1.3647614,100.53163
1.3635664,98.667336
1.3871033,97.167274
1.4665797,95.727295
1.3368108,94.77902
1.3026985,91.41907
1.3875636,89.756805
1.3517909,91.75215
1.1825762,88.07977
1.2549965,90.07435
1.1581829,87.41726
1.1506209,86.18867
1.1151514,83.20249
1.0864244,83.70251
1.0092068,82.032364
0.94384116,78.82931
1.0172644,78.51815
0.9432201,76.284355
0.9765373,77.35234
0.9856677,76.508484
1.0019246,72.50635
0.91692525,74.75981
0.9567509,70.021385
0.88671094,67.12148
0.8782561,68.01637
0.97353655,67.1793
0.86761475,66.82838
0.99105275,64.30497
0.9222364,62.32322
0.907246,62.99853
0.8993259,62.562733
0.8548849,62.320488
0.77483326,59.248158
0.84683865,58.127445
0.82887495,58.143696
0.8424119,59.206776
0.78198725,56.714165
0.7385615,58.92089
0.6823496,57.39357
0.68866664,57.17518
0.72139704,57.93903
0.5845321,57.19928
0.659474,55.26725
0.54776686,59.853058
0.5779306,59.800186
0.4918342,59.768414
0.46715933,59.614346
0.52888274,63.495415
0.45075795,61.986942
0.47713736,62.102207
0.5333687,63.02039
0.48848268,68.64629
0.4498752,69.30769
0.6495856,70.25457
0.58873296,71.76152
0.67829126,75.111305
0.73145515,74.9386
0.82766575,77.71241
0.91915405,78.156136
0.9688113,82.33635
0.98967177,84.52557
1.1261405,86.05255
1.1518385,88.10889
1.1956407,92.17925
1.2831842,92.87326
1.3315526,96.91504
1.4046277,98.08397
1.4348338,101.24691
1.620773,102.50833
1.590195,103.08926
1.6340152,107.07248
1.5549476,113.3314
1.6406964,111.055145
1.7091901,114.48416
1.7699091,115.017815
1.8022109,118.44458
1.730647,119.318985
1.7812722,118.29418
1.844854,122.32764
1.7754302,124.41009
1.7675596,124.93396
1.8216487,125.93966
1.8452386,126.12465
1.7726767,127.35207
1.7761521,127.1449
1.8086073,127.75163
1.7788537,127.29307
1.8369453,132.27214
1.7999728,126.72244
1.7008622,131.59048
1.8256882,129.29337
1.7395316,130.34666
1.6388925,127.560486
1.6156161,128.89609
1.5744209,124.90284
1.5926101,123.873955
1.5728587,126.46174
1.5102267,123.80029
1.6171907,124.166954
1.4277185,123.64617
1.5105457,121.72613
1.4245869,121.4218
1.3568866,119.82303
1.3776069,117.5401
1.3870722,117.37021
1.359015,117.048065
1.4099953,115.70897
1.2667626,112.51924
1.229201,112.401695
1.2882136,110.46599
1.2758675,108.7152
1.2301189,108.090866
1.2044951,105.978096
1.3159497,106.297
1.2878969,104.262314
1.156992,103.27865
1.1735616,101.86812
1.1006488,100.18923
1.1057059,95.43256
1.1760098,95.87461
1.1066642,93.26201
1.1035035,94.05313
1.1214432,94.271706
0.98130727,92.289604
0.9839517,90.13854
0.92826587,88.57256
0.94756293,86.93779
0.85667634,86.994736
0.84390724,83.9906
0.85742766,85.95544
0.73108757,84.89752
0.7616165,81.886055
0.7423194,79.22672
0.6731694,77.579994
0.68158114,77.50651
0.6028251,76.58057
0.56332284,74.10858
0.6178403,74.6116
0.7062905,72.81119
0.65746695,71.39262
0.5274931,70.89404
0.54407185,69.3756
0.5259711,65.27809
0.62299085,63.8579
0.5699455,62.412167
0.6274128,65.39226
0.5082054,61.96327
0.50430137,61.811394
0.516714,58.404713
0.4907318,57.594975
0.46535316,58.939545
0.4565004,58.086452
0.45714512,57.777134
0.44355753,56.795036
0.37043342,59.341015
0.3107082,55.763714
0.23399293,55.883865
0.22583239,58.520462
0.19847761,54.361256
0.2722672,59.53384
0.19200492,57.219284
0.22118405,59.02922
0.103506096,56.984127
0.14717068,58.34387
0.12154325,60.854706
0.040994562,62.53763
-0.019308764,62.293434
0.14127047,63.52396
0.11016864,67.88163
0.1474522,67.249374
0.19484882,70.756744
0.19742034,70.33112
0.3119971,73.101685
0.4042526,76.41105
0.48061022,78.90918
0.4516704,79.66531
0.53045684,82.11572
0.6098493,82.92809
0.7074625,84.94258
0.7994916,88.29323
0.76787364,89.92762
0.9163183,94.20779
0.90066266,95.91679
1.0023528,98.76079
1.1461942,101.16177
1.0806262,104.08243
1.1983353,104.641
1.1598877,110.187485
1.3150581,109.74996
1.297261,110.57285
1.3499105,114.15652
1.334506,113.87573
1.4041414,117.43109
1.3660717,119.424484
1.3948212,122.99207
1.3787134,122.798904
1.3973883,124.36331
1.4510143,120.35784
1.4191396,126.28156
1.4541521,124.43145
1.4194373,125.26876
1.3730524,127.57199
1.4364775,127.374016
1.3916675,124.35853
1.355111,130.86345
1.3971199,129.40451
1.3418235,128.37404
1.3428726,130.66339
1.3288846,128.09892
1.3554543,127.63661
1.3573055,128.36946
1.1743577,126.22215
1.186783,123.85618
1.2215704,123.44216
1.158807,124.89978
1.2041508,124.270515
1.2120876,123.18903
1.1616199,120.738655
1.0449145,119.630905
1.0457996,120.602905
1.0221261,117.14381
0.9657575,115.78075
0.9927271,118.68647
1.0486376,115.33656
0.989504,114.15045
0.96978825,114.311646
0.98239625,109.986534
0.9138148,109.89048
0.90900534,105.77529
0.869256,106.077
0.9570166,103.15108
0.936093,105.93464
0.8648495,99.0693
0.86702406,101.46152
0.9428912,101.34429
0.828403,98.84772
0.8757806,98.02058
0.80041057,96.08497
0.7323651,95.024826
0.8087728,93.73501
0.67334396,92.52594
0.7434651,90.533516
0.6264239,89.08083
0.6679723,87.641815
0.6049915,86.546875
0.6440778,86.341125
0.56087476,85.542984
0.5530453,83.254974
0.498848,79.12947
0.44986033,81.44392
0.46140328,80.8068
0.3793408,78.2097
0.38069698,76.10488
0.37783596,76.04533
0.36555815,74.49169
0.29391134,71.97577
0.36155888,71.27489
0.34613836,71.336174
0.34057355,68.61227
0.2973534,67.05513
0.38417155,65.60869
0.33643854,64.1987
0.33027923,65.222565
0.28640878,62.254562
0.29559153,59.98975
0.2919854,61.52577
0.30816033,59.473854
0.32446566,59.533195
0.30497766,57.34765
0.26421615,60.089436
0.22629224,60.636517
0.20004256,56.175594
0.14197098,57.234768
0.13882716,58.272903
0.16076688,54.943363
0.06555649,57.239883
0.08695448,59.450302
0.04235386,56.782402
-0.00024351772,55.144768
-0.01882867,59.45959
0.043996975,61.508842
0.01155813,61.555656
-0.014648344,61.34744
0.045730423,60.34789
-0.005673518,66.36504
0.021150963,66.45681
0.12423264,68.805084
0.09298379,69.9444
0.14639483,71.136765
0.17607187,71.670265
0.23560464,75.45063
0.29764482,74.99726
0.3528421,78.61868
0.4107037,80.58133
0.47635353,86.19173
0.59840286,86.22038
0.67453057,87.00054
0.7778693,92.71243
0.84376305,91.4022
0.8621404,96.91136
0.95541894,97.57783
0.9662931,98.688835
1.0879077,102.43223
1.145721,100.455215
1.147726,106.14961
1.1824744,108.06062
1.3045293,110.320496
1.2572733,110.70165
1.2558508,114.06694
1.4043673,117.60143
1.3724048,119.93095
1.3847605,119.11855
1.3376726,122.366356
1.4523733,122.76763
1.4780428,120.371925
1.4506006,123.163025
1.4289259,126.26232
1.4491643,127.189285
1.4994221,127.26789
1.4469049,129.1986
1.4849964,130.85016
1.4375175,128.54483
1.4834874,130.2323
1.4177694,126.48628
1.3947582,128.40248
1.3868111,130.26323
1.3518173,129.28357
1.3929335,128.425
1.3689276,129.51125
1.3033526,124.23366
1.3188047,123.56157
1.2564715,126.85598
1.2584499,125.479576
1.2779249,122.576355
1.2668073,120.91724
1.2932438,119.41376
1.1969303,121.31497
1.130423,117.256775
1.1775532,117.629105
1.1210563,118.80081
1.1137447,115.50057
1.1275674,111.82305
1.187312,111.73758
1.1477726,112.36175
1.0542097,108.067764
1.050031,107.74109
1.1142796,105.80142
1.0987327,106.777794
1.1025703,100.11495
1.0812527,104.80472
1.0888708,99.98605
1.055148,100.62471
1.0941951,100.00443
0.9518052,98.2086
1.075381,95.22572
0.9112717,92.31038
1.0093017,93.948784
0.95225495,89.45923
0.9807049,90.05442
0.9033496,88.313896
0.92605764,89.182014
0.8537643,84.39963
0.7807768,86.57244
0.78879875,85.2417
0.72070545,82.509415
0.73611116,80.26843
0.6940391,80.03728
0.81360465,77.90886
0.6846673,75.87383
0.66218936,80.0864
0.6196987,74.70323
0.6687958,75.73805
0.66177124,71.126236
0.6037928,69.065216
0.620345,70.116905
0.6256223,67.079025
0.6547368,66.62548
0.60583746,66.65424
0.627228,65.41739
0.7343312,64.05141
0.693147,63.19407
0.6571267,63.56177
0.60777617,61.008038
0.5971289,59.375896
0.54427755,59.83634
0.66662765,58.17825
0.57534677,56.93972
0.54776025,57.36296
0.5708487,59.158176
0.5825129,57.7626
0.5296638,58.743366
0.45123202,56.056816
0.45502907,57.000134
0.40450323,57.325058
0.32747275,56.84848
0.3499805,55.91871
0.3449416,55.53738
0.33254445,58.764275
0.32994956,59.02008
0.38242894,61.772945
0.30684197,60.89174
0.33447292,66.751175
0.49626482,68.790794
0.36170638,65.992004
0.38552606,69.434265
0.50962895,69.8802
0.44419023,73.65755
0.5777167,75.357834
0.637318,75.63122
0.82930773,76.53179
0.8803588,81.12219
0.85986984,85.594185
0.97718084,86.15579
0.9674453,89.50393
1.0573766,90.0277
1.3130403,91.34288
1.2009038,98.35003
1.2991567,94.579956
1.3833907,97.666794
1.4375495,99.467964
1.5306355,104.28124
1.5404633,106.09554
1.6429148,108.63155
1.6448264,108.525764
1.6225553,112.74614
1.7824363,116.47188
1.8138382,115.6953
1.744717,117.44188
1.8196595,118.87295
1.8014913,121.093124
1.8177767,124.280174
1.8746308,125.401276
1.8349102,123.85271
1.9354177,124.16429
1.9020671,125.55557
1.8973686,125.46813
1.8668705,126.25222
1.9523731,127.84529
1.798995,129.4382
1.8421742,130.28557
1.8886931,126.01481
1.8057759,130.67633
1.7656081,127.01061
1.8013033,128.26146
1.7518952,127.19554
1.7739807,127.031105
1.7081543,128.78276
1.7277398,126.36049
1.6731567,123.96509
1.6912574,124.07636
1.5876813,123.77466
1.6379958,121.59811
1.6497468,118.21236
1.622762,119.50665
1.5956563,118.40183
1.5535164,116.14027
1.489597,116.31279
1.5820457,115.264206
1.5630876,113.913506
1.5491272,110.31966
1.5494709,112.6292
1.5301869,108.75222
1.4517713,109.40579
1.5242718,110.44762
1.4875778,106.3454
1.4399052,104.598045
1.4853253,103.99552
1.3909864,101.11947
1.4790394,101.56099
1.444992,102.67954
1.4851663,96.494026
1.4025426,98.023
1.3428838,96.9901
1.314826,94.34113
1.2739353,93.83874
1.3131583,92.45967
1.2544245,93.83667
1.2721183,87.07294
1.3021168,88.15789
1.1550381,86.665695
1.1480794,84.18027
1.123281,83.80281
1.0580266,82.413246
0.9798825,81.040924
1.0509942,78.3782
0.9881098,76.36319
0.93401384,77.92826
0.91690433,75.45168
0.9895151,76.71691
0.92291355,71.39397
0.9353158,68.89496
0.915813,70.93998
0.9645557,67.73395
0.9265325,67.18538
0.8666394,64.61873
0.97431904,64.62671
0.9036773,64.66604
0.93220896,63.839268
0.94164616,62.44606
0.90890825,61.561375
0.87358207,61.539536
0.83063066,57.55141
0.7442287,58.44673
0.8078254,56.830414
0.82630306,55.451447
0.73676986,55.397133
0.82996804,56.47006
0.76042384,56.14002
0.7089068,53.66004
0.7187086,58.00876
0.6769548,58.793934
0.5994604,59.807297
0.60780686,58.14447
0.5685628,58.999783
0.5220844,60.273403
0.5729216,60.189625
0.52071416,60.33194
0.4537706,62.284332
0.6303729,63.52718
0.5568281,65.417915
0.54596215,66.11472
0.70596373,70.158134
0.68872654,73.23113
0.73845845,71.79093
0.77406996,73.39677
0.8008359,71.15668
0.88696295,76.652534
0.9020617,81.950966
0.97715783,85.039856
1.0235672,85.662056
1.0945439,85.23603
1.1606355,86.27393
1.3570138,93.79495
1.4495764,95.55964
1.4566939,96.05732
1.5120659,99.16461
1.5534087,102.74288
1.5757438,103.595215
1.6406453,108.833694
1.6586163,107.93939
1.732649,109.82313
1.842947,113.09779
1.7696097,117.23069
1.8923205,114.62838
1.8397342,119.15665
1.9707699,116.62437
1.8122671,123.725784
1.9277542,121.52903
1.894667,124.1968
1.9238265,126.52139
1.8065256,125.652756
1.8788126,126.676186
1.9255903,132.2562
1.9394052,129.50032
1.8544883,129.89445
1.9062804,127.86039
1.8370693,131.37918
1.8972832,127.717896
1.8148106,129.07246
1.8698331,129.27594
1.7824898,129.06424
1.7009583,129.59409
1.7127362,128.22304
1.7175268,129.02618
1.6711947,127.55535
1.6854203,124.77797
1.6813048,125.559296
1.5670937,122.672226
1.5732287,119.69713
1.5569392,120.345314
1.5978278,120.20105
1.5502067,117.62236
1.528421,117.97248
1.4444836,116.19553
1.460486,113.129265
1.4001809,113.59873
1.3492137,113.32002
1.3868493,112.52343
1.3455274,108.8196
1.4146123,110.37938
1.4304029,105.49358
1.3205363,103.65098
1.3413893,104.94261
1.3103726,102.80165
1.2971404,100.69981
1.3041366,99.456314
1.2674352,100.41869
1.2678483,99.043846
1.2056639,96.34906
1.2580577,94.6127
1.2555027,93.27053
1.1965264,94.300964
1.1328434,94.149796
1.1151867,91.794136
1.0621282,88.9222
1.022086,88.93741
0.98772466,84.42147
0.8433965,84.76973
0.89106095,80.522766
0.92214566,85.34773
0.8386205,80.0634
0.92148113,81.291176
0.82565314,77.2754
0.8083368,75.78388
0.7779989,75.14644
0.67731756,71.53356
0.7059676,74.99506
0.52673507,69.98328
0.7045139,69.52049
0.70456743,68.63591
0.7547875,64.8162
0.6276453,68.68827
0.68503857,66.91498
0.66632664,63.38377
0.73614895,64.08967
0.6061348,62.46778
0.6944589,63.094025
0.6861449,59.95433
0.5830906,58.661068
0.5768282,60.90815
0.51753896,58.396164
0.62631136,58.426758
0.5895377,57.946175
0.42100558,54.491997
0.4053292,59.79114
0.4114793,56.042137
0.3773208,53.821274
0.4023699,57.053677
0.27803573,57.9402
0.22503568,59.38811
0.29730058,56.75094
0.24911146,59.23548
0.18511687,58.70348
0.3204167,61.18325
0.29458776,61.72379
0.21746367,63.058674
0.19119336,68.727234
0.28720492,65.73379
0.2685324,69.58493
0.33579385,68.381516
0.40097472,72.075745
0.40383646,73.47373
0.41641015,74.080734
0.54028255,75.34881
0.64806616,80.072395
0.69198567,83.33915
0.75962627,83.87446
0.79271036,88.23116
0.97809464,87.87791
0.9303118,90.729485
1.060532,94.06618
1.110399,96.94598
1.0519614,98.44515
1.1398549,101.62118
1.1972128,103.8808
1.3267982,107.555824
1.3665005,107.89717
1.3384814,112.23131
1.3990713,113.275185
1.4333571,113.65876
1.3860298,112.23763
1.4850826,119.48148
1.5026586,119.19177
1.4930345,122.98182
1.5085773,124.15645
1.5136055,121.40427
1.483473,125.11081
1.5699904,124.05633
1.5114197,125.62704
1.5848258,131.24461
1.5538467,123.75349
1.5245893,126.94732
1.458975,129.82245
1.4169343,128.56946
1.427816,129.33278
1.4148624,128.11816
1.4128939,126.048515
1.3813521,127.74285
1.3099759,129.10655
1.3749257,124.97878
1.3320398,124.35181
1.2860843,126.19452
1.2882406,125.78148
1.2685205,122.06883
1.2212768,122.51635
1.2368277,120.48762
1.1304778,120.7201
1.1217313,120.6689
1.1605387,121.14593
1.0766006,114.79224
1.0559065,117.644196
1.0779403,115.83506
1.110402,110.841
1.0685365,110.86816
1.0426872,112.76456
0.96098447,107.94045
0.95167446,109.19529
0.9033776,108.58405
1.0148892,106.318726
0.9743458,107.20261
0.90151864,101.68711
0.92347723,101.16062
0.9387972,100.07505
0.9242622,100.27104
0.920963,99.66915
0.8750694,97.64414
0.835226,93.199165
0.8279811,96.47143
0.7969277,95.12089
0.79577017,90.73102
0.70282686,89.40517
0.69236994,90.04529
0.6668624,89.14215
0.5862477,86.431755
0.61318487,85.955894
0.54441005,83.28965
0.5806696,79.73062
0.5159559,81.2641
0.43984836,82.04463
0.49118418,78.532715
0.45139736,80.95101
0.3629081,74.89135
0.39035565,71.7712
0.37825882,74.58343
0.35472617,71.7848
0.3360985,70.95751
0.3147522,70.76301
0.30065262,69.000824
0.24631359,63.825474
0.31626958,66.103905
0.25973496,64.62945
0.34245893,62.235455
0.29606235,61.696625
0.28979322,62.347076
0.3660523,60.889668
0.28220284,62.041485
0.28482965,58.228607
0.29626608,59.66374
0.26954702,58.13769
0.17775004,55.846577
0.23551708,58.128426
0.12013477,58.465996
0.120147616,55.992775
0.05955528,55.687233
0.057987608,56.354675
0.045886073,57.20523
0.073903315,57.3077
-0.012160071,60.842007
-0.027282868,59.057877
-0.068231136,61.141777
-0.09686938,59.9083
-0.106336094,64.82879
-0.031267736,64.27569
-0.021779986,66.37973
0.046928186,66.02728
0.03685654,69.06705
0.097041816,70.7694
0.13206203,71.83066
0.20138717,73.2263
0.31205115,75.39042
0.29543623,74.81488
0.3071428,81.23219
0.40645447,82.969376
0.48025873,88.3202
0.59715533,86.04727
0.5572565,88.672226
0.6775775,89.827805
0.74529177,96.65057
0.8936839,95.07982
0.91030836,97.548935
0.9548908,101.421974
1.0703412,103.30694
1.0848706,105.55281
1.1122609,107.70845
1.2098731,110.76276
1.2636173,112.73976
1.262073,115.232544
1.3684423,114.56743
1.2945681,116.998505
1.3015383,119.74983
1.3314605,121.46937
1.3527972,122.301865
1.3356279,126.13419
1.4191319,126.210556
1.374447,124.13442
1.3751862,127.54068
1.4307928,127.78922
1.3587533,127.72912
1.4694437,127.90471
1.3652912,130.26688
1.3093821,128.66388
1.3801188,126.837776
1.3739289,130.32338
1.4232264,129.70398
1.3346682,130.40338
1.3568293,123.84959
1.3359697,129.75537
1.2720432,126.01008
1.2278019,128.89847
1.2481047,125.54478
1.1556134,122.31799
1.1253908,122.76794
1.1454246,122.43372
1.112436,122.92796
1.0408152,120.992096
1.1579462,123.50494
1.0943731,116.907715
1.0560178,115.24949
1.0057225,113.18435
1.0834135,115.07403
0.967835,113.45435
1.0430783,114.36571
0.970221,108.9084
1.0582848,110.52209
1.0365231,109.59359
1.0363204,101.88442
1.0313305,103.18443
0.9833554,104.64133
0.98891866,100.90963
1.0268414,98.78906
0.9490203,98.44205
0.8785552,96.66516
0.9128003,97.35033
0.9436,96.16114
0.9273826,95.78214
0.86761427,91.55512
0.8643763,92.38336
0.816735,89.02645
0.77883434,88.98284
0.8264552,88.15349
0.6835935,87.25344
0.67137945,85.60491
0.6694249,83.49441
0.6613579,84.339966
0.68910056,80.878395
0.5070925,78.94256
0.5823866,78.30032
0.51813865,78.6823
0.57496506,74.70232
0.54770005,71.975365
0.55164826,72.85823
0.52009803,71.478386
0.50294626,71.21255
0.49385053,69.75501
0.46166146,69.09634
0.5462202,65.886406
0.5541744,64.437325
0.55498487,64.094246
0.50825274,65.92217
0.4893777,62.42037
0.59522724,63.948555
0.54257214,61.041676
0.60008,59.58008
0.5268958,58.743336
0.43540224,61.5718
0.47388178,59.536427
0.40426078,57.65319
0.46538273,58.872746
0.3619072,54.89696
0.37218344,57.673866
0.40179563,55.701828
0.31856823,56.661106
0.3205107,57.781933
0.26948825,57.56977
0.18579985,58.425014
0.21565233,59.31104
0.25851765,60.73728
0.30195826,62.06606
0.24007574,59.41587
0.2306537,65.33911
0.2581939,64.04573
0.32439426,66.98966
0.29911157,67.601265
0.38285354,68.692116
0.44466272,71.25776
0.4082911,72.22309
0.5359866,74.855835
0.6438472,77.279366
0.6105362,79.94961
0.7919852,81.370255
0.7628287,85.6771
0.92309505,85.76138
0.92741793,88.8715
1.0267705,90.531715
1.1287254,95.548775
1.1970985,94.69681
1.2597452,98.202644
1.2877009,99.0107
1.3670031,103.82022
1.3906443,102.43446
1.4394429,105.15656
1.5779281,109.602425
1.510609,113.71033
1.5985266,112.13699
1.6353085,116.26097
1.5893216,117.67483
1.7102406,119.62671
1.7083282,121.25509
1.7254905,122.011635
1.7061985,122.12418
1.7248809,124.8036
1.7531936,122.92725
1.8510756,128.3921
1.7474897,129.32849
1.6990274,127.51237
1.749671,129.87775
1.8673326,130.51561
1.7498531,128.0411
1.7726291,130.75545
1.7754583,127.52146
1.7428832,128.02197
1.7431469,127.254654
1.7245655,125.82613
1.7285937,128.21811
1.6495289,127.49628
1.606588,126.329735
1.5861541,123.61687
1.6120995,124.8564
1.5703071,125.18323
1.5126239,121.185196
1.5563583,122.60753
1.5933548,119.55793
1.4769137,116.8454
1.5007011,118.80921
1.4905883,118.25717
1.454482,117.08363
1.4369733,115.8414
1.477623,114.12973
1.4003226,111.870316
1.4686335,109.84222
1.4493748,109.3708
1.3806419,107.85497
1.3671942,106.44098
1.2962768,108.15216
1.3216115,104.310555
1.3885801,100.48011
1.3456764,102.68142
1.3643389,99.836006
1.3575122,96.60614
1.3449748,95.71809
1.2881199,97.58596
1.3469949,95.49268
1.315192,93.78271
1.3050097,89.16618
1.2212796,93.47833
1.2329533,90.7383
1.1852789,88.081535
1.1205088,84.631935
1.1009171,85.92394
1.0549324,85.81028
1.0590161,83.72039
0.92885894,82.17025
1.0476607,80.773125
1.0281733,77.860016
1.0236715,77.9579
0.92562836,76.1742
0.8743735,74.10731
0.87317514,74.80405
0.88762,75.01482
0.8594427,72.55227
0.9372181,70.50536
0.86111677,66.64422
0.8781339,64.09687
0.89764816,66.53801
0.8781347,63.70481
0.9556065,62.97372
0.9645995,64.209404
0.8655158,62.67846
0.87337124,60.124935
0.8931266,61.925743
0.9203486,58.936848
0.86511886,58.76003
0.7458082,58.218506
0.7772715,58.08363
0.8346945,58.567825
0.78339654,58.406322
0.68688565,55.933846
0.74877644,55.052326
0.70065963,56.822456
0.61810344,56.460026
0.56887037,59.189117
0.6370957,57.82534
0.64035374,59.882572
0.51146835,59.882465
0.59415096,62.377853
0.5135252,59.785286
0.55414313,63.03482
0.6418204,64.55311
0.590445,65.7281
0.624087,67.781334
0.59603024,71.86005
0.68596184,70.31469
0.7405878,72.00746
0.7652404,71.174576
0.87692416,76.40075
0.9056837,77.83066
1.008056,80.98117
1.0560355,83.682396
1.1117293,88.32242
1.1485246,86.93517
1.2722887,90.70207
1.3724502,94.72033
1.3794254,97.77154
1.4492793,98.27753
1.5302696,97.99653
1.6710663,105.897766
1.6791698,103.99284
1.7069986,103.72264
1.6955761,108.46322
1.8521442,109.63939
1.8170413,113.34344
1.84685,115.46497
1.8745029,115.44136
1.9273216,116.709206
1.9014578,119.94349
1.9067196,121.461716
1.97357,126.02407
1.8573651,124.41272
1.9627627,124.24476
1.9451183,126.06537
1.9919938,131.8618
1.9304578,127.12481
1.9073162,128.10817
1.9739261,128.50508
1.9226738,130.15138
1.9019772,130.58357
1.9445913,126.83723
1.9006261,129.3823
1.8243372,127.90794
1.8592411,128.4009
1.8320926,128.07867
1.7925391,125.14691
1.7436869,126.26722
1.7887943,124.41698
1.7800287,123.6957
1.7212324,123.94889
1.743622,121.67636
1.6645069,120.05702
1.6345267,121.06346
1.5578954,119.55973
1.5578434,114.55512
1.5259398,118.50823
1.5093037,114.947716
1.5614467,115.58721
1.5093528,114.93304
1.6025954,114.60975
1.4204234,110.900856
1.4060835,108.90833
1.5189148,109.34847
1.4910986,106.78984
1.4699464,108.18038
1.3569599,105.90286
1.5067816,102.59902
1.483772,100.06621
1.4348773,103.74729
1.3637743,98.28598
1.3313249,97.59775
1.3707666,99.296394
1.326406,94.53562
1.286367,92.663086
1.2609764,92.57608
1.2563336,88.32756
1.2565147,92.00767
1.1390857,89.85937
1.1087725,88.89608
1.001374,86.93381
1.0174387,82.9284
0.9998149,83.414665
0.96476346,80.55544
0.9987845,81.96626
0.9366067,78.99218
0.9143335,78.539406
0.8308154,77.36789
0.84222305,76.07346
0.7799199,74.88494
0.85805076,76.073326
0.8115141,73.91775
0.74108,70.814445
0.8816502,69.96735
0.798778,67.558136
0.80251235,65.92471
0.7527634,65.64077
0.7670281,64.58219
0.7759433,62.108963
0.7769501,60.963036
0.7562677,59.95687
0.70984894,61.666164
0.74674374,59.43259
0.64016014,62.721943
0.63328034,59.25352
0.659152,56.773376
0.6106313,58.873486
0.56371593,56.321148
0.603217,58.22107
0.5758325,56.31415
0.3620185,57.1371
0.4089296,56.80733
0.4260484,56.72479
0.3482728,58.514458
0.3613396,56.62239
0.37588507,58.82394
0.37398002,59.579544
0.27397308,61.592537
0.28235662,61.82211
0.3003338,65.011536
0.350276,65.0765
0.3195672,66.717674
0.40996337,69.91638
0.47486466,72.3216
0.48531315,72.342766
0.5703037,73.895744
0.63316905,76.54159
0.5984235,77.03039
0.671932,79.25076
0.67254865,81.36344
0.74843705,82.64053
0.9026133,88.17325
1.0417106,90.2759
1.0474072,96.63237
1.2005954,94.81532
1.1831608,97.23973
1.1958878,101.897125
1.351894,100.79849
1.4284893,103.69205
1.4236126,105.98853
1.4008455,106.36725
1.4427146,110.441925
1.5116415,110.72145
1.5681098,118.05817
1.4463617,116.28533
1.637109,117.50109
1.5168904,122.337944
1.6577333,121.46411
1.6268591,122.53094
1.5590719,124.30408
1.6591427,124.98288
1.5975531,125.70385
1.684587,128.9305
1.5683101,128.51752
1.6006002,125.823555
1.5735079,131.04797
1.5681665,127.45896
1.6048715,128.79852
1.5913984,127.99601
1.6415628,127.613144
1.5373522,131.25424
1.5285605,127.88439
1.5261406,127.07674
1.508642,130.30312
1.3542699,126.434456
1.3826554,127.29817
1.3728977,125.86604
1.4624993,124.06785
1.3593309,121.00023
1.3221326,122.158936
1.3156418,120.58202
1.3253204,120.049515
1.1994476,119.28813
1.1762539,118.08715
1.1780318,116.55795
1.1427133,117.32172
1.1571208,112.589165
1.153987,114.207016
1.1206441,111.86208
1.119193,109.38324
1.0674525,107.87689
0.9605755,107.71847
0.99565,105.275444
0.97244513,103.3622
1.0386266,103.014725
0.982344,102.65189
0.96149725,100.708435
1.0379077,96.987755
0.9028354,96.607155
0.8951854,96.99833
0.8718159,93.00238
0.8714958,93.81142
0.89418954,93.45175
0.76755065,92.72529
0.891434,89.48819
0.7456957,89.245285
0.71418744,87.48252
0.7376773,82.55192
0.680363,84.94229
0.60008883,83.015594
0.6386932,82.062675
0.47389966,83.01461
0.55508554,79.56391
0.52068555,79.635414
0.4370495,75.51231
0.42229682,75.46192
0.4592433,74.22948
0.45567933,74.00247
0.4750875,69.951454
0.341855,70.48949
0.4349352,67.48553
0.4186477,64.68632
0.36364487,67.78193
0.38006654,65.06709
0.33758846,63.016483
0.3502984,61.77717
0.4314269,62.098125
0.4192464,61.597603
0.3357962,60.65114
0.35741362,59.069546
0.3450449,58.953926
0.2574213,60.224422
0.31846794,57.833046
0.2292572,57.214607
0.20790029,57.946873
0.17024116,55.145214
0.06977492,55.85412
0.11545821,57.202522
0.0835078,54.814217
0.05660091,56.637913
-0.0031668516,56.645065
-0.012933741,57.836582
-0.078122385,61.15624
-0.013961884,61.663815
-0.043543432,59.623924
-0.05622436,61.869095
-0.020147804,61.846996
0.05203918,67.14859
-0.012036565,66.85014
0.051914047,68.158936
0.16286194,71.145546
0.0644441,70.358635
0.1445028,73.798645
0.27166507,76.88676
0.31234857,77.96658
0.4410358,80.247475
0.45942608,81.353455
0.5573538,83.74544
0.58539605,87.704315
0.6246116,88.77797
0.823388,89.14352
0.8588268,95.29683
0.92130023,98.07392
0.81251264,97.37245
0.95621055,101.85204
0.9402245,104.85487
1.0362586,107.89941
1.1013012,108.32316
1.181687,111.29355
1.2366006,110.565765
1.2178861,113.51683
1.3158064,115.67768
1.290544,121.09321
1.3820515,118.33669
1.2993255,120.3313
1.4299661,123.87611
1.3339555,122.941154
1.3476921,125.037636
1.3172889,125.277435
1.3653821,126.08586
1.3809296,126.893616
1.3539014,128.42183
1.3529127,128.71251
1.4198754,129.25702
1.3402817,130.01727
1.3246889,129.35033
1.3378541,129.5477
1.2765336,130.0258
1.3420516,128.50858
1.2910521,129.239
1.2809198,130.00168
1.1911589,127.233696
1.2193285,125.90358
1.1987467,124.09924
1.0584927,123.5729
1.0954514,123.2737
1.1086345,122.36896
1.121249,122.12025
1.1441733,119.231804
1.0128039,118.62605
0.9979998,118.771255
0.9893702,119.37389
0.9722056,114.47224
0.92449474,115.33746
0.97612065,112.61631
0.91470283,110.11031
0.9164063,110.235176
1.0227696,109.19232
0.9490074,105.7654
0.87826157,106.08716
0.955887,104.79539
0.90684,104.11254
0.8808498,103.10347
0.92223185,98.71105
0.9135534,99.06059
0.84202886,97.73126
0.83195066,93.0713
0.8102286,93.839775
0.78127056,95.31331
0.84948504,92.32817
0.8196584,93.70038
0.75276154,89.12542
0.7584316,87.91504
0.68270314,87.902275
0.67908007,89.25456
0.59317106,83.18891
0.63060606,83.19894
0.53999394,81.32979
0.5980616,79.3779
0.48686066,80.0536
0.44081026,78.43843
0.49796802,76.639015
0.38381785,74.33489
0.4667689,72.41486
0.44932893,73.577415
0.4727064,73.58598
0.35643324,71.30172
0.40197974,71.227005
0.40779293,70.23963
0.45082203,65.99611
0.43212557,67.1831
0.4147436,64.66182
0.39890727,63.4092
0.34878835,61.76646
0.29881677,62.14351
0.44245785,61.242496
0.4589541,59.8663
0.443564,60.07889
0.35044354,56.62593
0.4071748,58.05276
0.2605317,57.277294
0.32653663,56.898106
0.21639083,57.45722
0.25676915,58.43908
0.2353313,56.438156
0.20504156,57.075966
0.19007748,57.539684
0.1175494,57.090996
0.20099996,57.576496
0.08218203,60.522167
0.086825445,57.710056
0.11724841,62.379875
0.11488865,62.31549
0.12942268,65.462875
0.14232175,66.664856
0.0768493,66.574646
0.15945067,67.97874
0.17619917,68.10627
0.25004554,72.65163
0.27436486,75.26731
0.45397344,76.97929
0.5167258,74.12379
0.5750225,78.611595
0.6100256,80.10729
0.740928,84.4579
0.75455135,85.916016
0.8531694,90.34672
0.9208019,92.34257
0.9709559,93.41141
1.0344105,97.14796
1.1534169,99.45391
1.2011412,101.93132
1.2777008,103.518654
1.3609552,106.236824
1.3331876,109.00396
1.4479759,108.44408
1.4439856,111.3766
1.4414042,113.23404
1.5070413,116.367355
1.5911632,118.291695
1.5673167,117.39457
1.5488918,122.21139
1.6122197,121.710815
1.6794851,124.032
1.5450658,122.91763
1.6653984,127.120995
1.6603074,127.46185
1.6687299,126.57579
1.6494479,127.65205
1.6934247,126.24822
1.7133309,127.218185
1.6736648,128.6797
1.606787,130.55635
1.6807141,129.96523
1.6322024,127.742546
1.6170849,129.75615
1.6671481,130.28777
1.5389887,126.471436
1.5344639,127.85897
1.526885,125.07832
1.5860718,127.40981
1.4622393,124.00218
1.4910402,125.54121
1.4963639,123.13425
1.4596525,122.09913
1.3949304,121.73958
1.3988863,121.573616
1.3566524,117.860756
1.3828435,118.524185
1.302753,112.6598
1.3678135,116.03689
1.3039662,113.96717
1.272776,111.71479
1.3711393,111.17105
1.3219043,108.615135
1.2871379,107.6534
1.2759187,103.95306
1.3088462,104.86707
1.2912631,102.31506
1.287257,103.161896
1.304668,102.39705
1.2081366,100.48764
1.234066,98.23684
1.1207391,97.7259
