ppg,abp
1.0310133,113.67681
1.0963932,113.76636
1.197439,115.58702
1.3798648,118.524445
1.2824227,125.56463
1.3583603,123.569916
1.5302185,122.92806
1.5708512,126.821724
1.5412081,131.32562
1.6618205,130.11417
1.7468734,130.06276
1.6628486,135.96344
1.7706478,133.73647
1.706798,134.88727
1.7116547,135.83257
1.6860538,137.33035
1.789506,139.12607
1.7597215,136.8374
1.7291051,135.04517
1.7904578,136.40031
1.7022073,138.70363
1.773166,137.55922
1.7326398,136.71068
1.6227005,138.01535
1.623751,135.68596
1.6795241,134.0567
1.5413096,137.18947
1.5248171,135.68398
1.6154727,134.20294
1.5548836,132.98578
1.5116476,134.75688
1.5005027,132.53519
1.554348,132.87233
1.4520688,130.28955
1.4523267,129.23763
1.4338219,127.884834
1.3812455,126.538864
1.4674737,126.127716
1.2822641,124.274826
1.3089926,125.24901
1.4014293,121.829
1.3750721,119.30551
1.26941,120.443275
1.3510866,121.30402
1.388535,115.0469
1.3490076,118.581436
1.3357958,117.668846
1.289231,117.06787
1.2463226,115.89891
1.2400424,113.89641
1.1468573,115.785995
1.1079954,112.07144
1.1787657,110.186295
1.0386345,110.97988
1.018966,110.20697
0.95588475,107.20651
0.98598695,106.48388
0.8599161,105.96725
0.83524257,105.39742
0.90468895,102.31584
0.82554364,102.06332
0.921587,102.70574
0.9597715,100.92469
0.8742001,102.55274
0.89385164,98.98044
0.8480402,99.03519
0.8761466,97.38547
0.8382537,96.509125
0.8062437,96.24713
0.75839657,93.57669
0.803149,93.15096
0.8101572,90.57137
0.9042553,92.66321
0.77234703,91.91598
0.82414925,88.24759
0.72120035,90.60302
0.6641653,93.07112
0.70943785,91.36276
0.67194986,90.1617
0.548357,90.591324
0.55453366,88.93461
0.5655164,88.08167
0.5159177,93.46547
0.5157549,93.76704
0.50143737,92.59082
0.45360494,93.59855
0.49324825,94.55684
0.51373076,98.12664
0.5213951,98.29398
0.6978246,98.79942
0.66720515,99.09776
0.8876054,103.26345
0.8116174,103.87162
1.0238581,108.178795
1.0270888,108.77466
1.1228688,110.732544
1.2550281,110.03571
1.2253857,113.72011
1.4067383,117.86486
1.4625245,116.74012
1.570584,119.09669
1.659689,122.973145
1.6372209,123.05656
1.7407899,125.722755
1.7824413,130.4873
1.9036603,128.9816
1.8968288,129.54732
1.9479077,129.46468
1.8784978,131.49887
2.0008237,131.76456
1.9685646,132.07448
1.9596381,137.25885
1.9947217,137.9655
1.9071643,136.5803
1.9149863,139.29555
1.9626628,139.41739
2.0207276,139.28203
2.0090451,138.59354
1.9151291,137.31949
1.937614,137.75177
1.9347938,138.80843
1.9517744,143.10959
1.8001182,136.02472
1.8411499,136.42493
1.7653619,134.75224
1.7617885,135.17026
1.7177327,135.0708
1.5931222,137.7334
1.7309837,131.76486
1.5512263,133.06319
1.6590372,132.9698
1.6333991,130.08624
1.5547028,129.9795
1.581915,129.28662
1.5335008,128.8818
1.4833795,126.36549
1.5654953,126.47733
1.4689903,127.18874
1.5389274,121.99768
1.4952501,121.35233
1.4754425,121.570526
1.4803419,118.32899
1.3765914,117.203636
1.4215039,118.9077
1.4216875,115.989525
1.3987274,115.58256
1.3481516,116.15924
1.3771288,112.14518
1.2051826,116.8255
1.2015241,111.23151
1.2519872,107.602135
1.22346,110.61693
1.0393736,107.89978
1.0608382,108.16143
1.0251774,104.26043
1.0314773,105.619774
0.9545823,103.924225
0.93575037,106.00262
0.9730851,101.01994
0.8986409,100.42051
0.9462674,99.94495
0.88535774,100.21975
0.8054582,99.028656
0.9317676,93.94693
0.9636626,96.060104
0.8476548,95.49169
0.7438723,94.61428
0.79998064,95.21638
0.84659374,91.80147
0.8587048,88.624886
0.8613975,95.21969
0.82709527,89.863075
0.87898284,90.24509
0.6612829,88.936104
0.58962137,89.139885
0.65477115,91.06611
0.686694,93.08028
0.582611,89.36382
0.49137253,89.403854
0.47412863,88.96958
0.48122194,90.93952
0.48422062,92.76141
0.42896637,95.33867
0.45131078,96.16881
0.5577173,95.39865
0.5200773,100.005875
0.5360911,98.43888
0.55389535,100.7805
0.7161512,102.74854
0.7771322,105.900665
0.88436335,106.07782
0.90293264,106.02034
0.96128094,111.11451
1.1633192,110.338715
1.1046343,112.55748
1.2763222,114.74275
1.3643292,116.09751
1.4185041,118.012215
1.4703902,123.419
1.5367991,118.08669
1.5520114,123.2864
1.6222653,128.70944
1.7094676,128.31136
1.7100966,132.1068
1.7732445,128.95773
1.8090558,126.9322
1.7292241,133.23602
1.7890321,138.14816
1.8657396,134.9668
1.8172109,138.54561
1.865459,136.17183
1.7729173,133.26009
1.7893963,139.37202
1.7828954,140.06035
1.8043355,136.89796
1.7131453,135.30734
1.7496237,138.56339
1.7510928,139.01994
1.6292042,138.34457
1.6984951,138.536
1.6237694,137.01385
1.5789835,136.18076
1.5992746,136.87704
1.5549682,134.31534
1.5021706,135.1218
1.5095195,133.85326
1.4355922,135.5074
1.3811308,133.05556
1.4018079,130.76187
1.3572009,129.05658
1.2933903,129.90295
1.2590414,127.66481
1.3870356,123.92306
1.3201909,128.63379
1.1612191,123.11633
1.2490716,124.155594
1.2609551,125.995476
1.2443836,120.333206
1.1831834,119.98202
1.1486712,117.30742
1.2221504,119.91558
1.2320722,117.14476
1.1786785,115.92599
1.049202,115.221054
1.0879709,115.910446
1.0854617,114.13994
1.0373703,110.5463
0.91060925,108.94925
0.89787734,106.52188
0.85652816,108.32268
0.8325445,107.13171
0.74626535,107.928925
0.67965955,105.49542
0.72242296,102.750114
0.7140844,106.35564
0.6327544,100.232254
0.67677957,101.402725
0.5485346,100.63938
0.5649895,99.15073
0.58326834,98.09111
0.64540106,94.33763
0.6622561,95.86746
0.48932976,95.94689
0.5085714,96.51843
0.6278952,94.75738
0.47257677,90.79514
0.53106356,93.708115
0.5371954,92.72668
0.5115566,92.266075
0.4579823,91.277115
0.46692535,93.23834
0.38586363,95.12405
0.35464755,91.84628
0.31413147,91.42297
0.19291687,89.86273
0.27635437,91.8945
0.23322065,91.49073
0.23452757,95.23518
0.02258064,91.31744
0.17238313,95.48514
0.18545103,95.05088
0.13782997,97.196335
0.20184965,96.99103
0.18934298,97.34056
0.31195349,100.79261
0.25317353,103.19342
0.36513498,101.84544
0.46695614,105.6421
0.5768283,103.7374
0.7024973,107.92066
0.702454,109.22762
0.7893594,110.57067
0.82405716,113.50166
0.8957681,112.63443
1.0602999,119.00357
1.061451,119.86757
1.1710246,122.18016
1.1759408,124.43351
1.2755265,123.9896
1.3285862,127.28659
1.3207428,125.220215
1.4831312,127.24894
1.394838,130.22807
1.4773991,132.5666
1.4421663,133.80124
1.4341248,132.54485
1.5101297,136.11412
1.4541411,133.77339
1.4877509,135.9051
1.4917831,137.33682
1.4651815,137.58223
1.3925647,138.74759
1.4000164,138.91225
1.3237689,141.09218
1.4546208,138.36667
1.3475463,139.85277
1.3881192,134.71992
1.2414756,137.15114
1.2279881,136.3862
1.2658732,136.31627
1.2990487,137.31105
1.2182723,134.96199
1.2032082,132.7985
1.1094586,131.54678
1.1118186,132.1986
1.0293908,128.65833
1.0314574,130.63545
0.99539244,131.24356
0.9681518,130.36787
1.0292648,129.38942
0.9986001,126.2978
0.98133266,123.49689
1.0061169,124.64901
0.9509178,124.268974
0.9693963,122.370636
0.8584574,121.44718
0.88487875,118.24764
0.84279656,117.1562
0.88495934,119.65941
0.912419,116.54315
0.73481405,113.888535
0.78056043,114.20137
0.8408218,113.92699
0.69943446,111.42074
0.7328858,109.9802
0.6643245,110.710014
0.65758246,110.20393
0.5470943,107.930984
0.50966984,109.626305
0.3786099,104.355896
0.5181981,104.10498
0.39506957,104.82327
0.49616838,104.19307
0.355746,100.043594
0.39547145,96.94795
0.32823157,95.59191
0.3147627,99.80237
0.30269572,98.38146
0.40557134,95.04386
0.38766438,97.47945
0.31381428,93.545
0.27569938,92.81315
0.2921929,93.25359
0.3037072,92.78628
0.3030176,93.305115
0.32477334,86.71175
0.23340528,89.487915
0.15211585,90.79235
0.16810359,87.82745
0.0793788,88.871315
0.0014845745,87.16438
0.10235828,92.51252
-0.045873225,93.0335
0.03268036,89.90083
-0.006633227,90.284515
-0.043578077,90.05114
-0.08680733,91.19331
-0.11847322,93.34663
-0.07896972,93.34581
-0.10305034,94.8483
-0.0605937,101.27763
0.10787694,98.61405
0.1660874,99.627686
0.25087017,100.28494
0.28908664,102.16476
0.3341082,108.138725
0.5526624,106.341736
0.5454139,109.47304
0.71150285,108.14385
0.7114684,113.2719
0.74877125,114.89299
0.8372639,117.71142
0.9559035,116.54396
0.9905099,119.78253
1.0845877,123.22636
1.1728358,124.55638
1.1927627,127.11919
1.2482104,124.5212
1.2346346,127.07031
1.1959909,130.58136
1.3017744,132.92084
1.3336383,132.50194
1.3567429,131.3886
1.3702697,135.76659
1.3652748,137.87784
1.3532751,137.56277
1.3535482,136.29362
1.311347,138.09103
1.4719777,137.94498
1.3646537,138.64279
1.3394092,136.42584
1.3813019,136.56653
1.3565531,136.47656
1.2632334,138.918
1.2402266,137.14308
1.3034176,134.97638
1.2181947,138.18526
1.2314527,136.8092
1.1169753,133.52946
1.1805065,133.01826
1.1545112,133.75371
1.0882587,134.24419
1.1101949,127.08445
0.9693858,131.64957
0.9682419,132.9884
1.0544972,131.33755
0.9780957,126.66894
1.025495,127.67965
1.0736271,124.51167
0.9766847,125.15483
0.9655538,122.1744
0.8609139,122.84016
0.9607758,119.644615
0.9756435,117.32994
0.93892485,117.91448
0.8436827,116.219345
0.8452055,118.82578
0.9216016,115.17578
0.78543276,114.64524
0.83386505,114.925575
0.78277224,109.84822
0.7574624,114.51149
0.7414384,112.55494
0.69616044,110.606155
0.6898619,107.96603
0.61329347,106.94415
0.5244744,106.37387
0.53517574,104.061264
0.5488632,105.5198
0.4518083,104.08944
0.49778745,100.19853
0.45291272,100.764694
0.37938753,100.01822
0.44892916,98.16255
0.5524617,96.21924
0.45816833,96.95497
0.34576574,95.872025
0.4475915,95.96338
0.41794702,92.95691
0.4736619,92.82728
0.53337896,91.96158
0.35140902,92.15728
0.4365671,90.47484
0.35692453,92.85322
0.4504405,93.131516
0.4091854,89.76494
0.32777053,89.0802
0.306724,89.72975
0.31081343,92.50075
0.15915048,89.43454
0.2597582,86.83959
0.18853568,88.45043
0.20868638,93.16637
0.24366134,91.581696
0.17451973,94.07335
0.1070648,95.11257
0.16787717,95.659386
0.16030574,97.03446
0.24849077,97.824936
0.39379573,98.959785
0.4092824,103.56306
0.45231992,105.51911
0.5026073,104.78699
0.6573262,104.94327
0.72025573,107.07381
0.93928003,109.40527
0.85462254,110.72988
1.0888531,110.80072
1.0528655,114.999214
1.1016372,116.87783
1.2654144,120.055954
1.3157545,122.176765
1.2862897,126.68038
1.425921,125.41299
1.5317388,126.74258
1.5460613,129.89761
1.569634,130.62463
1.7346772,132.86517
1.6057929,131.34662
1.6193012,134.20782
1.6296629,134.16403
1.7347673,134.9495
1.6956984,136.05595
1.6404727,135.83923
1.5954398,137.8297
1.6804093,139.08836
1.7209747,137.08328
1.6509042,138.14124
1.6429645,137.3851
1.7058417,136.06819
1.6726601,138.26411
1.5616122,136.59448
1.6154679,139.89285
1.6401104,139.25096
1.4762123,136.28212
1.4516608,136.92665
1.5320898,131.8121
1.4270474,134.22768
1.4453735,131.478
1.3492775,134.106
1.3917383,130.98492
1.373107,127.82902
1.3859369,130.5075
1.3574152,128.15027
1.361091,128.42986
1.3168247,127.15148
1.3117554,121.79231
1.2777051,121.83805
1.2979461,124.26916
1.2516623,120.85191
1.2908593,122.083336
1.3424841,120.226685
1.2288284,120.146835
1.210972,114.119484
1.2295903,116.621414
1.2135684,116.58517
1.100508,113.76092
1.0849684,114.12764
1.1385791,112.2404
1.0726359,108.70822
0.97361195,110.31985
0.97863054,110.90421
0.97541624,106.24171
1.0112594,105.78767
0.98691005,109.840294
0.84803635,105.566315
0.8330252,101.97412
0.8176345,105.15362
0.8479896,101.13117
0.90925545,99.22514
0.7450853,97.29873
0.751744,99.71932
0.8796098,97.113174
0.857772,96.37736
0.8312789,96.248825
0.7914019,97.782715
0.85509396,90.66089
0.7390439,92.2837
0.81459355,92.46697
0.8717781,94.544464
0.7373766,93.2684
0.8188496,92.02765
0.66279775,88.64658
0.69928646,89.99985
0.5720721,89.86906
0.59404284,92.71236
0.5665211,89.17267
0.5774665,86.51703
0.44154695,94.790405
0.59140044,92.556244
0.48299247,94.81503
0.46109536,95.575
0.52714366,95.12758
0.50275767,97.71133
0.55162466,96.82708
0.6809341,99.143524
0.67513007,100.58094
0.78284585,99.93683
0.7605727,100.603775
0.9161701,101.687126
0.89493364,104.34161
1.0885564,106.862274
1.068531,109.763275
1.2013698,113.62878
1.2801539,113.54836
1.3000158,114.490204
1.5301108,117.240204
1.5561283,120.58266
1.5290542,121.355896
1.6572678,122.583336
1.645216,123.37972
1.8372216,124.09642
1.8049589,129.8506
1.7800512,128.82655
1.8333989,131.66026
1.8559806,135.01056
1.9821814,134.07025
1.9775295,133.089
1.9331735,138.84753
2.0349045,136.04958
1.995133,138.55937
1.9899237,138.50296
1.9533693,137.28662
2.0577948,136.79338
1.9008056,138.1526
1.910715,140.10362
1.8068656,135.35844
1.7880317,135.58852
1.8312474,133.74199
1.8216391,137.1221
1.8346862,137.94281
1.7102765,135.2209
1.8632771,134.4927
1.7303152,133.88197
1.6546986,133.29492
1.6506089,134.9122
1.6428887,131.33072
1.5603772,133.65611
1.578734,131.77109
1.5258377,130.52098
1.49083,130.47229
1.6366081,128.24965
1.518367,126.61462
1.5191586,126.83599
1.5417316,121.67653
1.5727434,122.74953
1.5015293,119.68037
1.4431188,121.35116
1.4816602,119.33115
1.4294093,120.672066
1.4690398,116.256035
1.4461803,114.48561
1.4200236,114.26321
1.3479483,114.34376
1.2896038,114.48377
1.275697,111.222824
1.2553731,111.29577
1.1010236,109.942955
1.1207384,108.81411
1.0858321,108.61693
1.0935082,107.40331
1.0747682,107.99058
1.1077054,105.04785
0.9698829,102.224625
0.9387345,102.77455
1.0104872,102.18442
0.860625,98.60811
0.990633,99.49959
0.7467467,98.497284
0.84894687,99.70551
0.9075401,96.19845
0.8065617,96.74116
0.91978353,93.51713
0.9270019,96.70337
0.8702756,93.30019
0.85459596,93.43087
0.8260578,92.57503
0.8554547,90.70484
0.80223083,90.90572
0.7554339,90.57061
0.7311279,91.16797
0.7685926,90.7948
0.63987345,91.99857
0.57191,92.56587
0.51692075,89.10321
0.5733117,93.1875
0.49465418,90.993996
0.48798746,93.69108
0.46868026,92.28625
0.4513672,93.06378
0.50294876,92.97339
0.5325804,94.7082
0.6079239,94.47483
0.6040866,99.18584
0.6552237,100.80244
0.7413938,103.86186
0.77239823,104.78147
0.953731,102.79855
0.9922482,107.7205
0.98752826,111.331825
1.1744064,110.89944
1.1688838,112.953255
1.2434134,116.067726
1.3481787,117.73626
1.4123406,120.90862
1.5398177,124.028824
1.5628843,122.1718
1.6181058,124.5269
1.6767635,128.68376
1.7685274,129.01723
1.7442645,129.913
1.7499747,129.45184
1.8065166,131.50099
1.806282,135.99416
1.8325349,134.09364
1.827941,137.1249
1.8201572,135.19402
1.8172193,136.88257
1.8976266,135.83228
1.8710648,137.53665
1.9117644,136.43999
1.7887955,137.20071
1.7797611,135.61366
1.7389067,139.45927
1.7601061,134.3086
1.6395123,138.147
1.7198336,135.99275
1.7651048,136.25082
1.7247591,130.96889
1.5685624,132.40201
1.5846465,133.9206
1.568787,135.77815
1.5148003,134.0093
1.5481232,133.57674
1.3672652,131.11386
1.476825,129.82634
1.3394275,129.80017
1.3841777,129.11993
1.3704345,126.45171
1.3350449,125.014366
1.3075227,123.40564
1.2720479,125.173164
1.2494888,121.34841
1.3400822,122.26012
1.2734804,118.56738
1.2111058,119.754105
1.1789827,119.72758
1.2724003,120.60674
1.2012355,119.21126
1.1877606,117.448494
1.0747123,115.60119
1.0505104,112.540985
1.0883158,113.08065
1.0109848,112.07346
1.0327661,107.847336
0.9594602,111.14574
0.8313597,107.3853
0.8097272,109.076416
0.8325483,104.89755
0.7415507,105.334885
0.72427654,104.30438
0.7235494,103.42402
0.71330744,102.611946
0.65695447,100.414345
0.64286315,99.2189
0.6784892,99.11277
0.65953666,96.54007
0.62177294,100.159386
0.63927126,99.90887
0.6193496,91.088326
0.72994393,93.41532
0.5925323,93.82863
0.5775455,93.875
0.60088193,91.30684
0.5708548,90.921875
0.46079153,91.99532
0.4826379,89.18141
0.49879178,92.93212
0.40683028,91.54259
0.48610678,91.9907
0.3288017,89.619064
0.2409991,92.28619
0.3158245,90.6181
0.20270011,91.04371
0.24096014,94.35679
0.17610678,92.38672
0.10384698,94.283165
0.2250033,94.292
0.3069162,96.50588
0.32697338,97.85466
0.2661191,99.733574
0.30407858,102.34475
0.28328598,101.94263
0.48907402,100.50233
0.50692296,106.83297
0.6051586,109.75012
0.6282979,108.16739
0.768798,110.65571
0.7926625,111.36302
0.941405,113.974236
0.86998487,116.95167
1.0494653,116.40575
1.0900823,121.16089
1.2912794,119.416336
1.2446423,125.377495
1.2534528,125.995926
1.3832113,130.21289
1.3847212,129.12157
1.4270778,131.06093
1.5123557,129.12187
1.5210687,132.5362
1.5454091,133.10483
1.5466574,131.40163
1.5568887,136.4779
1.5338752,137.6523
1.5112169,135.34666
1.4906921,137.27148
1.4289829,134.48128
1.5026151,136.8427
1.4576674,138.4077
1.5248483,139.15924
1.3895321,138.2082
1.4930191,136.69452
1.3340291,140.37979
1.2946746,135.9997
1.2678262,135.75613
1.2568852,137.55165
1.2708066,134.6556
1.2308847,134.29027
1.1925012,135.6402
1.2339782,132.70946
1.1787033,131.43701
1.1056554,129.02777
1.0951394,132.78253
1.0969533,129.68498
1.0352106,128.84651
0.99544686,125.90685
0.99246055,124.92533
0.9366795,121.55694
0.8845583,124.32705
0.9149357,119.040276
0.9276341,121.77981
0.8788776,120.299706
0.927834,121.96331
0.8571849,115.041115
0.82053244,119.21611
0.8418451,116.41635
0.8481913,114.42311
0.8198249,116.05366
0.7930142,114.852325
0.6810471,110.90012
0.7574064,112.21133
0.70691556,108.09308
0.61199445,110.138145
0.5654396,108.60753
0.4926728,104.87887
0.3934746,104.05158
0.40392196,106.68731
0.4181637,104.958466
0.4062872,104.828835
0.34818146,101.29595
0.34964886,101.996376
0.33510852,100.774506
0.36056557,96.35305
0.41769493,100.11198
0.2995342,97.80508
0.34468058,94.812904
0.30389327,97.12189
0.3076506,93.63022
0.34937,93.3497
0.2383818,91.165924
0.34495375,92.248085
0.3071982,89.59502
0.34320566,91.72648
0.20399143,88.20722
0.1951639,90.92787
0.14697751,91.854416
0.059512213,91.11542
0.0595912,91.13888
0.02575671,95.44958
-0.034668066,93.366066
-0.046526354,94.10937
-0.04745286,94.19219
-0.033258986,90.74398
-0.015251387,96.421364
-0.04109788,94.362564
-0.04682072,96.41265
0.06266435,97.492065
0.1115005,99.21969
0.109315984,99.386314
0.122378126,104.89118
0.2000196,105.915184
0.3472738,101.51088
0.4250315,110.030525
0.5202899,108.30878
0.61964357,114.22085
0.704753,111.9923
0.84958154,117.21867
0.91953576,117.47631
0.9505751,117.659805
0.9662754,124.41311
1.0618163,120.71446
1.1891593,121.90905
1.1727687,127.9165
1.0927118,128.15985
1.2005868,133.49413
1.279312,132.63547
1.2972419,131.16896
1.3560259,132.7499
1.3332027,133.64256
1.2602187,137.01917
1.3004631,137.32953
1.3797705,136.30637
1.3776977,136.20273
1.3106338,139.27048
1.3262244,137.57063
1.2788892,140.35
1.3557813,140.429
1.3279245,138.89557
1.4026225,139.07687
1.1976985,140.0773
1.1988046,135.57529
1.2658122,137.15184
1.2344397,134.62822
1.1735383,134.82274
1.1291652,132.98003
1.1243902,131.63872
1.1022823,133.1907
1.055576,133.05045
1.0768229,134.71132
0.9577236,131.3144
1.0154945,129.5476
0.9931944,125.15024
0.98428065,125.9711
0.9164933,123.766335
1.0539215,123.705696
0.95337117,122.59657
0.96750593,120.949615
0.9767742,118.95358
0.95741284,123.58477
0.99626064,121.87537
0.8261119,119.63126
0.9440466,117.331
0.7981523,116.85431
0.8701969,116.34782
0.72865534,113.84761
0.723297,114.97929
0.7941071,110.51914
0.7189569,114.063774
0.7053154,111.114494
0.6346345,108.88194
0.5753617,107.42606
0.60396403,106.638435
0.58698505,104.41412
0.45110336,104.04581
0.54905,103.15264
0.47551158,103.17668
0.42032874,102.16714
0.39745873,101.02404
0.44134077,101.5182
0.43974474,98.23881
0.41428503,99.015434
0.40219134,97.90408
0.3112744,96.29951
0.41878167,97.46481
0.40630114,93.16185
0.3650978,92.52674
0.45329216,92.286575
0.390354,91.90441
0.40799686,91.56581
0.3877546,92.45499
0.3514846,92.05643
0.367829,90.86506
0.21576545,90.501144
0.22155006,88.99998
0.18926026,95.57773
0.19017412,90.8178
0.18061443,92.45909
0.18174936,91.60885
0.04387467,95.04794
0.12877116,92.76649
0.15997437,96.6873
0.14585687,96.21673
0.12697284,94.45357
0.11400715,97.00243
0.19024463,100.09325
0.32079795,101.36788
0.37125763,104.25951
0.41678786,104.463135
0.5892567,105.37885
0.5386871,108.36183
0.698257,107.54209
0.75063586,112.25738
0.88121754,109.20956
0.89417195,112.9403
1.0744784,113.48202
1.0595859,118.39247
1.1915469,118.68426
1.2556125,121.3669
1.3253895,123.8942
1.3769828,125.90255
1.3552791,127.74277
1.4652815,126.2731
1.4999391,128.09447
1.615796,128.4741
1.6080109,129.78172
1.6162366,132.67986
1.6426331,132.72781
1.6178749,136.86433
1.6295068,136.92854
1.5980115,138.25618
1.5897492,136.40152
1.6113081,135.47647
1.654351,137.33386
1.6417229,140.21214
1.6271398,137.18591
1.6708509,135.23141
1.5497813,137.13095
1.5415872,135.88103
1.5247394,138.73701
1.5240715,136.24884
1.4823098,136.08562
1.4096967,136.81467
1.3966146,137.39755
1.4333217,133.44739
1.3597605,132.8556
1.3100498,130.7913
1.3415457,130.77296
1.2869025,129.08948
1.3731236,129.4666
1.1969987,129.48923
1.2055805,122.982796
1.2882403,128.36816
1.3390274,123.001686
1.2874354,121.60171
1.2014652,122.49633
1.19572,121.73929
1.2599437,121.76866
1.3147583,121.12264
1.2197828,121.37969
1.2726238,114.90725
1.2569214,118.32725
1.1276346,113.43524
1.1373931,115.23169
1.1147597,109.1467
1.0156364,114.93377
1.014206,108.1887
0.95194787,110.9148
1.0054036,110.957535
0.8958337,112.51158
0.9329453,107.99073
0.7835924,104.601395
0.90154487,104.381004
0.8593615,104.3939
0.78163475,103.38595
0.75538987,101.44817
0.7818583,103.532036
0.7797154,95.30762
0.7647284,99.38677
0.81600803,96.63059
0.67323005,98.173874
0.7211994,93.78069
0.7009738,97.31853
0.7605103,96.427734
0.7011313,93.294014
0.77795094,91.93701
0.7804794,92.97626
0.6594818,91.21255
0.62388986,93.01908
0.630221,93.57524
0.5925902,91.388275
0.68444645,90.25035
0.46288347,90.68648
0.50694406,90.39071
0.47261453,89.25265
0.4464534,90.4528
0.39753184,87.11237
0.39890942,93.23768
0.480005,92.80659
0.41822252,94.30545
0.49515837,96.89188
0.50699675,97.25112
0.45099643,102.07772
0.61213195,100.27982
0.6934208,98.43982
0.7382541,105.61144
0.88441825,104.89522
0.86981666,103.702065
0.93545765,105.225845
0.9900822,107.0315
1.2178825,110.56066
1.2464776,112.64935
1.3855383,113.02835
1.3811153,119.06799
1.5523033,118.17037
1.5346433,121.62442
1.6096387,124.67827
1.7854537,126.55662
1.7437221,125.6501
1.7493889,128.46729
1.7982472,130.54016
1.7929568,134.86267
1.8794651,130.8096
1.8715065,133.98485
1.9225852,135.72328
1.9225047,135.49112
1.9120944,134.2859
1.9437087,136.7932
1.9645636,137.03857
1.9547086,137.9776
1.8714564,135.21103
1.952054,137.1251
1.8834107,137.96773
1.9187924,139.77727
1.8046268,138.56223
1.8777668,137.49554
1.8040171,137.1663
1.7767574,138.92006
1.671939,132.16891
1.7292284,135.91469
1.685083,134.8085
1.6753774,129.13167
1.6753682,133.36958
1.5889468,131.20549
1.6170923,129.33331
1.5821725,131.75233
1.514433,128.8468
1.5752317,126.82429
1.5546422,126.51091
1.5102476,126.390724
1.4766572,123.878914
1.4754677,125.02039
1.4645663,123.72397
1.5343341,123.82843
1.4585173,119.85572
1.4848936,119.26109
1.3789871,118.48959
1.3879209,118.68282
1.3826437,116.189354
1.3917544,114.89774
1.3599585,115.72218
1.3726887,111.785706
1.3108355,113.14609
1.2702179,110.021126
1.1855348,110.510544
1.1448182,107.79288
1.0220784,109.23524
1.0732679,109.12816
1.0829617,107.10529
1.0109599,103.75552
0.93584603,104.852844
1.0741636,105.67872
0.98335767,104.163185
0.9772446,100.304726
0.9439984,99.991615
0.91049045,98.93959
0.84626883,99.57743
0.8563742,98.36035
0.87102425,95.098366
0.8995824,93.99441
0.9710365,95.837006
0.90678144,94.223915
0.89078605,90.35519
0.8089088,92.692215
0.93579686,95.16301
0.83062446,90.360085
0.789638,90.95221
0.81401956,89.7496
0.7221488,91.320564
0.7633642,92.64356
0.5804359,93.95767
0.572626,91.94254
0.56485337,92.072655
0.5132355,90.098785
0.5149381,91.55071
0.5653874,91.69647
0.55667025,94.95468
0.56059635,95.338974
0.54134417,93.50625
0.4826438,98.6584
0.5805058,98.190094
0.6291148,99.969604
0.7514667,102.10167
0.8667616,98.96389
0.8761694,106.41022
0.9823774,107.366714
1.01711,110.7875
1.1055703,109.73525
1.2992795,113.29535
1.3960088,116.30432
1.417751,115.955765
1.5307248,116.3272
1.3995781,120.68332
1.6481208,122.588844
1.722241,123.52147
1.7696631,126.937416
1.744114,126.913155
1.7262803,131.24368
1.8012806,127.11645
1.8147999,130.4715
1.8443251,135.27528
1.9226248,134.6756
1.9840008,132.38612
1.8849761,138.74088
1.8486981,135.66058
1.8350619,137.19394
1.8668829,136.92174
1.8903506,141.25421
1.8390223,138.88416
1.8568947,139.0717
1.7411251,139.23158
1.8072482,138.49411
1.8396639,135.77536
1.7276155,135.57457
1.7271014,138.14194
1.6049556,133.8659
1.6590266,134.02844
1.6566669,135.3278
1.6012764,133.45476
1.6003422,132.39073
1.5561522,131.98238
1.4651994,133.49191
1.4576777,128.94554
1.4730699,128.00835
1.3567313,131.16707
1.3750949,128.77151
1.4322755,125.713486
1.3645833,124.48435
1.3527528,125.62888
1.3961741,122.298935
1.4208037,123.45043
1.3373023,119.74905
1.3117602,120.21041
1.3465887,117.58817
1.3187656,121.90786
1.3146293,117.06236
1.2855725,113.63306
1.1900601,114.405655
1.15234,112.31482
1.1778017,111.57415
1.0936648,113.24312
0.9736096,111.457985
0.9843053,108.81927
0.9926978,108.47014
0.845774,108.486145
0.8170509,107.04994
0.8444604,105.70789
0.8628802,105.46189
0.8286558,103.744255
0.7680272,99.80134
0.7959138,101.67954
0.6878915,101.149254
0.70107305,100.786
0.76596147,97.38354
0.63022715,96.2799
0.64709574,96.7226
0.7165852,96.990685
0.63966554,94.14458
0.64801514,90.99345
0.6968973,95.25667
0.63560516,94.35062
0.5553437,90.63516
0.6013505,93.78795
0.55531514,91.86165
0.468668,91.69512
0.4889017,90.129745
0.44202188,90.81921
0.37685925,91.19989
0.33225295,92.69289
0.33345938,91.716125
0.2650072,91.29413
0.263407,94.64801
0.23033804,93.37384
0.08018856,91.004005
0.3234733,95.22922
0.28588974,97.7202
0.20637883,99.0991
0.3656238,98.78182
0.45471498,100.82182
0.49368367,101.452
0.4992182,103.17147
0.5274703,104.51886
0.6104729,104.731766
0.8459296,107.96095
0.8048363,110.749405
0.95736957,110.33026
0.92887425,112.99166
0.9824882,114.84008
1.0738225,115.50624
1.2249553,122.591324
1.2550046,122.63477
1.3085682,120.8858
1.399877,123.698265
1.3966552,126.16461
1.442124,126.62758
1.4905468,127.04734
1.5999924,129.32715
1.5945686,132.8269
1.5467294,134.61826
1.5071038,135.73969
1.5849094,134.4797
1.6189821,135.92894
1.4442173,137.28375
1.5373291,138.55453
1.6194842,136.29059
1.5543822,141.4958
1.6419197,138.50609
1.3958024,139.69617
1.449949,139.26562
1.4515127,138.88603
1.4784396,138.05884
1.3914719,134.63626
1.3166252,137.39793
1.3788474,136.48482
1.3086518,135.98073
1.3760717,136.01552
1.2289498,133.04887
1.2151965,133.83476
1.1544495,131.62158
1.258738,130.39426
1.0372573,130.8248
0.9702771,128.12074
1.0151179,126.26802
1.1455613,130.10669
1.0263568,125.31365
0.9689326,124.34559
0.9928531,124.057205
0.99381375,124.87828
1.044111,122.81441
1.0020475,121.61342
0.9505073,121.4182
0.9853236,120.47143
0.9339987,116.500305
0.8814989,119.972404
0.8550529,113.67814
0.8980316,116.392334
0.7538865,111.77156
0.73272735,111.243935
0.76715416,114.78372
0.6110505,106.13442
0.6621099,107.70501
0.55944,109.984695
0.5417318,106.597565
0.4905342,108.51838
0.40783057,106.67267
0.4037416,102.61368
0.45860893,100.50911
0.38142696,100.91035
0.4308514,98.06215
0.37581497,99.963585
0.3116612,99.10575
0.40045092,96.70733
0.41296974,97.15639
0.43278244,94.0012
0.32628074,94.73534
0.32820728,91.833405
0.3572461,94.86648
0.36713773,93.35436
0.2723215,88.95589
0.29277575,93.01265
0.21549729,91.137245
0.17378256,90.214806
0.16251801,90.172966
0.15392627,89.50333
0.16336502,93.25924
0.09955362,86.251785
0.01851126,88.34096
0.09840434,90.26252
-0.054200754,90.68101
-0.015382241,92.561195
0.017265145,90.22214
-0.053960055,96.811806
0.037664805,96.47212
0.020325242,98.698784
0.09450408,99.345604
0.11395077,95.90981
0.12742591,98.96249
0.29659232,101.84421
0.25385493,106.39329
0.36696908,107.41695
0.45429555,105.83362
0.44294694,108.72541
0.50186014,112.8388
0.76303566,111.46085
0.762232,114.621925
0.87448406,119.53251
0.9080493,118.31425
1.0054687,120.977394
1.1256858,122.38391
1.1514126,125.5038
1.2192781,125.79698
1.2791855,129.40619
1.2415503,129.55202
1.305993,129.81334
1.3217999,131.6098
1.3296292,132.97339
1.3151774,131.87248
1.4443187,137.77396
1.381356,135.99757
1.4109294,138.47316
1.4310455,136.4513
1.3795111,137.46135
1.3945379,137.03912
1.3186171,136.41331
1.3820379,137.65608
1.3002056,135.76752
1.2219698,137.95697
1.3103682,138.25352
1.3044313,135.67712
1.260947,136.35007
1.1752243,138.89658
1.2535838,135.68762
1.150518,135.51372
1.1372031,134.47536
1.0609956,133.23434
0.98870206,132.5577
0.9932776,131.88896
0.9902232,129.64825
0.9411913,129.72047
0.94893134,127.0035
0.9225189,126.05178
1.0082455,126.72757
0.9340634,123.23823
0.9720916,123.79736
0.9458628,122.263245
0.88756895,119.65642
0.84359187,121.09378
0.8716131,118.668915
0.83414626,120.27459
0.86853224,116.36821
0.90667254,116.37958
0.83999646,117.22617
0.76906735,112.12276
0.62768525,114.04477
0.731678,113.50254
0.6884452,108.29162
0.63536286,109.25831
0.6968475,107.48365
0.60899454,106.191086
0.4875567,108.2377
0.566289,109.09076
0.43874946,103.01272
0.47762075,100.09028
0.46508914,101.30521
0.4044108,101.01037
0.3855887,100.004616
0.33307162,99.83062
0.3793171,98.66658
0.3740123,92.73012
0.3936967,94.861885
0.3571606,97.47765
0.39058197,97.53247
0.36814857,95.49728
0.40593338,89.92472
0.345727,93.25419
0.3140014,87.92333
0.40607193,90.343956
0.27376133,87.67791
0.272266,89.7875
0.29803985,89.02889
0.24093442,92.33702
0.22064795,93.42926
0.16031788,92.245804
0.18726426,88.27521
0.14913705,89.16151
0.08810631,91.82125
0.056534242,90.922424
0.0745748,91.653145
0.060284365,94.339516
0.06629738,93.00085
0.08931434,94.75957
0.16191377,96.9236
0.16727808,99.20863
0.22464629,100.84303
0.24371108,98.73576
0.37933037,102.07964
0.51982045,105.789474
0.627676,105.98572
0.65032625,112.66796
0.66990644,114.058105
0.82773167,110.85484
0.90950054,112.03627
0.94507027,112.265625
1.0802063,118.025566
1.0862743,119.60968
1.1964093,120.798386
1.2771378,123.83887
1.3149236,126.18844
1.4288586,127.67415
1.3801284,127.78238
1.4001209,128.30844
1.5295715,128.75916
1.5961964,133.33833
1.5584145,132.8265
1.628777,134.69019
1.4956175,133.98279
1.5605766,136.58244
1.5074122,134.2712
1.6012148,141.2901
1.5301023,137.05391
1.6238718,141.35701
1.5457525,140.19356
1.5176048,140.88345
1.494573,135.84889
1.5134495,139.23206
1.5720456,138.64963
1.4744381,135.73384
1.4574863,139.89124
1.416593,136.95737
1.455089,133.58481
1.3813624,134.45097
1.3285748,132.51555
1.2495283,130.97147
1.2567904,132.16345
1.2585906,130.45212
1.137322,130.215
1.2197851,128.16309
1.3278214,126.74289
1.2506887,128.51503
1.2428533,124.957954
1.1793467,124.72376
1.3120635,121.11111
1.2675501,120.89817
1.1898694,122.052414
1.1790344,120.84656
1.1638042,120.56225
1.1217811,118.556984
1.1845319,119.38032
1.1505212,117.38598
1.0318085,117.40077
1.0627935,116.465965
0.9923082,113.59165
0.9285204,111.02424
0.99537367,111.17455
0.9229791,109.614784
0.8501016,110.133835
0.8748725,109.639496
0.89221275,109.92447
0.7888287,108.20998
0.7376297,103.22859
0.8079398,100.44036
0.71071327,104.12626
0.74663806,102.77682
0.7233214,101.61238
0.77108836,98.02809
0.731229,97.51582
0.73151255,96.89359
0.8019037,96.39124
0.74676615,93.47297
0.77445894,93.65185
0.7348718,94.23469
0.61361015,93.10386
0.71054643,95.40077
0.69951814,91.77731
0.59011555,88.988434
0.6542568,92.00645
0.59820116,90.53141
0.5952866,87.19454
0.54746246,90.88389
0.52603626,87.17259
0.45354417,91.93068
0.43201092,88.80534
0.44547582,87.33467
0.36400685,89.787926
0.439661,92.87471
0.43199846,95.62169
0.4869777,94.51968
0.45764273,96.510994
0.5001446,97.75032
0.4157193,98.941315
0.55373657,100.11931
0.6405042,100.8058
0.754662,101.21474
0.7919281,105.61761
0.8759327,104.32739
0.8929693,107.53651
0.98291576,109.21251
1.1526737,113.674934
1.2821525,113.81328
1.3049618,114.01854
1.3491309,117.87207
1.527742,120.05358
1.5262057,122.43002
1.5976945,122.160034
1.6128473,127.33208
1.6491804,127.268295
1.7429215,127.57894
1.7373625,129.9573
1.861316,130.39667
1.8777758,131.48027
1.9777632,131.98206
1.8904335,135.06578
1.9452634,135.69826
1.8966541,136.1749
1.9937328,136.238
1.9307394,139.79236
1.8643256,140.33096
1.9050993,140.30162
1.8774803,141.2156
1.8206016,138.88942
1.8397173,135.89792
1.8623425,137.37895
1.858954,138.03021
1.8234082,136.2064
1.7727219,136.333
1.7456148,134.48776
1.6704197,136.46797
1.6697766,130.82828
1.7462206,133.61012
1.6763527,130.59135
1.659855,131.1875
1.7094952,130.67639
1.6579872,128.75214
1.5961878,125.027664
1.5284874,129.51414
1.5288111,126.22848
1.5895221,127.767204
1.5094812,124.76294
1.4594551,124.38415
1.4337193,121.24554
1.509856,122.10171
1.4398867,122.55076
1.4663335,120.21466
1.4678798,118.40172
1.503864,118.053696
1.3697772,119.42189
1.3673724,117.55256
1.3643765,111.77278
1.2809962,114.56218
1.2444922,112.52341
1.2639406,110.96019
1.3042884,113.82919
1.1648239,109.593254
1.093499,108.356674
1.1461387,107.12503
0.9567275,106.30018
1.0227149,104.469826
1.0300978,104.450966
1.00073,105.25734
1.0060388,103.279625
0.95353806,102.308846
0.9736329,100.729836
0.90229577,100.3331
0.90411747,100.28396
0.97945386,96.55326
0.9187306,94.949066
0.92368776,96.39896
0.910915,95.179
0.8270346,95.71184
0.8543608,93.92867
0.8489955,93.80041
0.90650594,93.16861
0.8551532,94.18499
0.8329703,92.55779
0.75634193,89.23593
0.72164714,91.02477
0.6518213,89.668304
0.6376474,88.91052
0.59906626,89.60255
0.6159417,93.17555
0.5624834,87.97991
0.6015239,92.287346
0.5385267,93.52517
0.6521499,93.8407
0.5824292,99.84207
0.5617777,96.26564
0.61377925,97.868996
0.5922173,97.85297
0.6871296,98.796295
0.70723295,103.43218
0.8743016,102.47901
0.89949673,103.29124
1.0244677,107.25722
1.0791339,106.38984
1.2569793,114.444244
1.1674091,111.04487
1.3364224,116.25045
1.3804405,119.5749
1.4773817,117.55345
1.5327395,120.28363
1.621487,120.66263
1.6487098,126.194695
1.7431507,122.763
1.7135994,131.057
1.8765486,130.8432
1.9218479,131.3837
1.8805684,131.61186
1.988843,132.73717
1.9425699,135.50911
1.9447017,132.33836
1.8604753,135.21133
1.9321041,132.23265
1.8804272,138.41713
1.8929656,143.15729
1.8663063,137.02837
1.9335245,135.13992
1.8979527,136.73634
1.8587877,134.9142
1.9235461,137.68196
1.8184543,137.94292
1.7405021,135.81105
1.7464441,136.84
1.8328456,135.51312
1.769663,133.3911
1.6628529,133.56291
1.6611344,135.20059
1.5859292,135.35693
1.5276115,134.56303
1.5867001,133.88235
1.5526766,131.83177
1.5271056,125.99939
1.4290173,131.96774
1.4759451,128.77896
1.4596155,124.41628
1.4308658,126.02089
1.3672526,125.46331
1.3921291,124.53927
1.4911205,123.64177
1.3298753,121.440445
1.341264,119.45487
1.3342185,121.45794
1.3270235,118.04885
1.230381,118.2461
1.3063636,115.81636
1.2950343,113.35211
1.1296256,110.015305
1.179435,112.85991
1.1664587,111.51066
1.129586,109.540115
1.0496926,108.434875
1.0110949,109.54884
1.0297929,110.104706
0.9673978,107.57038
0.89917356,104.96507
0.84917974,103.66913
0.89146894,102.93735
0.7802643,102.24014
0.7835496,101.31905
0.6603243,102.623924
0.76916945,100.93537
0.70968044,96.52431
0.7191615,98.95982
0.7216481,94.265335
0.78304857,93.94641
0.76014096,93.45963
0.6200884,94.088875
0.69668585,94.84659
0.7117915,92.365234
0.65887237,92.524254
0.67435825,93.61582
0.6392553,91.70722
0.5008413,91.0803
0.5299122,91.163506
0.48123008,91.950935
0.39386633,89.22789
0.35905257,94.23463
0.25651023,88.30533
0.2985173,91.34455
0.3012285,91.8767
0.29203013,96.63951
0.2646745,96.0454
0.30376068,91.73363
0.31677824,95.25009
0.3049456,98.437485
0.28554475,96.57775
0.44938427,97.61255
0.5306118,100.437325
0.6036293,104.184654
0.59390885,106.75432
0.74564064,107.12472
0.7427596,108.9817
0.8295987,108.476685
0.8991762,110.28981
1.0587051,114.0841
1.0095737,117.02115
1.2006236,119.552315
1.235748,119.55677
1.2824167,122.27652
1.4471222,125.364876
1.3607217,124.87604
1.3964292,127.73458
1.4690387,130.52365
1.5128756,130.44392
1.5423325,131.03793
1.6046398,132.45766
1.5019382,133.08405
1.6131878,133.30441
1.5655974,132.28326
1.5723842,134.3265
1.6153167,138.07625
1.5685561,137.67863
1.633826,137.08438
1.4997271,142.21906
1.58889,140.15927
1.4456375,134.39606
1.5613589,140.94255
1.4899155,139.10568
1.3907214,136.87083
1.4308255,135.49608
1.4455059,136.82114
1.3843607,135.29936
1.2764426,134.47574
1.2712151,134.95479
1.1880864,133.7124
1.2804049,130.72992
1.1972196,133.17796
1.2508473,133.96497
1.1106386,130.52695
1.2101793,129.46834
1.1209401,127.91966
1.0650715,126.20188
1.0147985,125.46552
0.93141156,127.018936
1.0192882,125.97713
0.99111915,125.62061
1.0114034,122.681435
0.9813587,123.52758
1.0335584,121.58777
0.96361905,120.760445
0.9747316,115.33857
0.867841,116.28582
0.86101055,115.2583
0.86249876,113.80429
0.79037905,114.39925
0.7418419,112.837685
0.65249443,106.747696
0.6696387,111.36186
0.67838556,109.800705
0.65465915,108.84586
0.63153976,107.31442
0.5234354,105.70582
0.5603842,106.70473
0.43832216,101.30678
0.4171268,105.60932
0.4670117,102.13112
0.38571393,103.331154
0.39671716,100.179855
0.46058264,98.39646
0.4113371,99.008644
0.4017879,95.40345
0.4120783,93.518394
0.40358862,93.78366
0.3250302,92.515144
0.38295615,93.85656
0.32519847,89.78509
0.2877103,88.8307
0.38988823,92.59403
0.2566987,89.91204
0.21441917,89.61566
0.2529495,88.07085
0.18355665,89.267296
0.11637211,90.88218
0.09725709,92.17553
0.19249777,90.80371
0.052372247,90.37654
0.029173551,94.01104
-0.030044919,89.3236
0.023901343,91.44377
-0.09169035,91.00269
-0.030910427,96.69823
0.015325119,94.7056
0.048589237,97.719734
0.07760358,97.54097
0.15002188,97.546906
0.26368943,98.592735
0.28973946,105.673164
0.38566276,104.14053
0.40824687,107.28287
0.52317625,109.99469
0.5744455,111.07729
0.7271273,109.95848
0.8404024,113.21178
0.9204572,115.74366
0.8427872,121.137276
0.93325776,119.34211
1.0635525,126.76723
1.0547165,123.67454
1.1925712,126.26471
1.2876086,128.39888
1.3830234,129.36626
1.3120404,129.975
1.2446314,135.78223
1.3712609,133.5631
1.3031088,132.1879
1.3948945,135.16708
1.3989512,135.38142
1.3572847,138.73372
1.3687999,134.72136
1.3910879,137.04439
1.3312376,139.83276
1.2690731,141.43373
1.2534148,138.66486
1.3239278,138.35538
1.3305763,140.51695
1.3227397,136.5862
1.2285161,138.93442
1.2693299,134.46
1.1432732,137.31067
1.1519583,137.69426
1.0510856,135.52878
1.2481233,135.7161
1.0436996,132.20924
1.013767,134.19223
0.9607176,131.20505
0.9569505,131.30704
0.9514721,128.7093
0.8557461,129.0479
0.91718143,126.68303
0.871699,126.010826
0.8890394,127.20452
0.94480175,124.299644
0.92666924,124.47209
0.87060976,123.629364
0.85488576,118.454994
0.92674774,120.27041
0.8185228,116.718155
0.8598692,116.014404
0.9422223,114.05248
0.86714715,114.26132
0.7838684,115.04288
0.7536884,114.053955
0.62208337,112.36808
0.68929803,111.986046
0.73772836,109.56212
0.57825196,110.308876
0.58667123,107.42787
0.5079221,105.702774
0.57863706,106.4164
0.41206706,106.56484
0.47072357,104.3208
0.4084143,103.69539
0.35472566,101.0132
0.40856546,97.77334
0.361105,98.78366
0.36469194,99.92753
0.34958342,98.19086
0.2914749,92.90286
0.33132628,95.20501
0.30541867,94.15773
0.4418617,92.846725
0.41216817,94.924904
0.36847365,94.79449
0.33370042,92.3581
0.3185105,90.81332
0.30277133,90.81064
0.26125503,89.832565
0.23554985,91.27236
0.12875041,90.9273
0.17725535,92.00875
0.13481617,89.14592
0.16488266,90.714134
0.121843986,89.483246
-0.050040524,95.15577
0.0430427,93.93506
0.014144656,92.31153
0.04781883,94.49619
0.047424015,98.9132
0.1145189,95.57297
0.038246334,96.91924
0.1951887,99.12684
0.18571243,100.3755
0.30306795,100.16458
0.34836182,103.564766
0.46653345,105.56254
0.5186297,110.0512
0.6436097,107.12182
0.59625626,108.50678
0.7253111,111.56541
0.8825284,114.77825
0.99360454,118.35066
1.0860022,121.03078
1.1375817,123.80319
1.1370133,122.1325
1.2463492,122.89237
1.2885923,124.72175
1.3686621,127.76598
1.4613991,129.1194
1.3758985,127.24204
1.4794022,129.0291
1.5040953,133.26807
1.4615486,133.90976
1.5751606,134.47755
1.466839,134.51756
1.4568318,139.08919
1.4977715,137.20804
1.478522,139.42305
1.5768279,136.73505
1.5736743,138.75172
1.5181301,135.4655
1.5207688,139.96483
1.4138516,137.8146
1.4890573,135.7353
1.4459767,137.57373
1.4388659,136.871
1.3907832,135.42833
1.4792355,137.00972
1.3749053,136.20413
1.3749372,133.65839
1.3923502,133.55756
1.294134,133.23701
1.2317542,133.08119
1.2166023,133.4084
1.2362816,127.75478
1.1894094,124.259445
1.2165253,130.08101
1.2587914,125.74579
1.1842031,125.19713
1.2242945,122.57693
1.1307156,123.21201
1.1751302,122.93615
1.1345686,120.129654
1.1803249,119.299866
1.1344308,115.7705
1.1653914,118.59451
1.0679498,118.55336
0.9783837,114.81925
1.0659108,113.98523
0.98634493,113.953995
0.9872525,113.40316
0.989811,112.12558
0.98268247,109.64316
0.8731687,109.43987
0.79532355,109.821976
0.8483556,110.00793
0.9208699,110.00038
0.85193324,105.02187
0.8126366,108.01896
0.72298384,105.58144
0.7588705,101.214325
0.6534401,101.43956
0.72457206,102.11283
0.6673458,97.985466
0.72061014,98.243904
0.6536607,95.93689
0.65245646,95.788765
0.68164206,97.15732
0.6090724,97.18742
0.6231138,93.73334
0.6372985,93.01248
0.58900666,92.34571
0.6483552,91.99681
0.66575086,88.80717
0.60839194,91.36268
0.54929435,90.03837
0.5188762,90.16586
0.4515246,90.03585
0.42165878,88.44782
0.54750484,92.19372
0.36458114,92.80423
0.33910292,91.617226
0.4565997,89.08572
0.3826716,93.4448
0.39559436,92.22772
0.40391678,94.81386
0.4261475,95.04062
0.42536378,96.525764
0.5633651,98.64287
0.42669508,97.32188
0.61072433,99.81372
0.6627082,101.958305
0.8013579,103.388115
0.82636887,106.79794
0.88666636,106.43092
1.0001427,110.11628
1.1023211,113.359665
1.1917312,114.818985
1.2423352,117.76266
1.3227954,120.39574
1.3662896,118.78189
1.5493504,118.23088
1.5891021,122.39571
1.6095395,125.75136
1.5858788,132.72069
1.6258714,126.88437
1.6965039,127.45989
1.8047713,130.19112
1.822157,130.11656
1.7976155,134.21684
1.8623439,138.29811
1.8157718,134.08934
1.9371487,137.62033
1.9163378,138.94278
1.8489306,136.42184
1.8406886,136.69461
1.8619705,138.20398
1.9572314,139.8748
1.8666127,137.10164
1.8908687,136.61226
1.8688164,138.8355
1.7748802,139.68881
1.6975746,137.84111
1.7591708,137.79059
1.6931092,136.59645
1.7485808,132.92519
1.6999995,134.05095
1.5660785,131.92023
1.5329326,134.98502
1.6380917,131.41106
1.6292325,130.94151
1.5650182,133.53528
1.6058142,130.27997
1.5376879,127.404144
1.5394909,127.545204
1.5570226,125.07509
1.4672357,123.9762
1.3911035,122.850586
1.5081074,123.85752
1.392478,121.1204
1.5269525,120.80314
1.501186,117.23255
1.4368327,121.45924
1.4310814,115.77665
1.284197,114.95547
1.2995963,115.7667
1.3033792,113.52666
1.4200181,113.488976
1.3636423,114.62233
1.3125516,112.24655
1.1738504,111.08515
1.140168,109.71044
1.0748397,109.0152
1.0527141,104.72396
1.0439732,108.03433
1.0728844,106.22282
1.0828135,103.45497
0.92166233,105.261604
0.91595775,102.2719
0.9452598,100.5779
0.9829104,99.24328
0.95579076,96.03858
0.91924286,95.15709
0.9231945,100.231895
0.87547874,92.815926
0.9761045,93.04463
0.90240306,92.50423
0.8246905,94.72338
0.83480847,92.57529
0.92049485,93.06545
0.8436091,91.67598
0.86809456,91.11231
0.8118578,91.61149
0.8325348,89.743645
0.71105945,88.9154
0.697851,92.1253
0.678568,88.79146
0.61245084,90.144424
0.6127984,91.45867
0.53748244,89.07616
0.4595581,93.11937
0.6602562,95.917175
0.50297815,92.76297
0.48882535,93.34515
0.5565882,96.26764
0.6318715,96.60791
0.6094471,100.66767
0.70338994,98.642654
0.7213313,103.37908
0.8662281,102.10614
0.96729314,105.31576
1.0252104,106.99714
1.0931033,106.045845
1.1279573,107.13112
1.2289807,112.719315
1.4065166,117.26269
1.4522043,118.55322
1.5323627,119.82924
1.546066,116.31278
1.5560731,123.45256
1.8191129,125.73444
1.66476,123.93336
1.7915559,127.832596
1.7851502,128.98463
1.8779812,129.82999
1.9364387,130.96976
1.8840526,129.88751
1.9324741,131.97884
2.011569,134.34431
1.8574952,137.74611
1.9809449,139.85149
1.9401699,135.1309
1.9463476,137.7743
1.9822307,135.91154
1.8934073,136.63472
1.8786385,136.26424
1.8352407,136.39748
1.8774917,135.98715
1.7824678,137.87903
1.8348111,139.16873
1.8176452,139.19063
1.8238279,135.67412
1.7334198,135.67725
1.6862924,134.98474
1.6014696,134.62999
1.7184931,133.69495
1.5836998,132.83252
1.5223873,131.98271
1.5270793,131.79367
1.5072596,130.9244
1.4627932,127.2483
1.5050792,127.945694
1.4282509,129.09071
1.5063791,125.13064
1.4946442,124.180046
1.3964419,122.26434
1.40932,122.95685
1.4950078,119.786156
1.5172657,119.22443
1.4058849,118.09348
1.350194,116.41122
1.3983792,115.07957
1.3758605,114.973595
1.2732346,113.07204
1.1945022,112.04512
1.2027993,115.05129
1.2020099,111.69062
1.1673379,111.51077
1.0188498,110.88874
0.9943831,106.68831
1.0189812,109.25803
0.90035796,107.7397
0.85895765,105.21645
0.8144538,106.80753
0.71096855,103.92964
0.8563224,102.471825
0.7783964,101.42813
0.8078405,101.21873
0.7857939,99.51183
0.790566,96.69554
0.8468605,98.808044
0.7129968,93.73267
0.74797237,95.48283
0.6921977,94.287224
0.74455565,96.95744
0.7384724,94.01655
0.76925564,94.43636
0.68564695,89.70604
0.65419996,93.40579
0.6230779,88.15497
0.57222784,89.90749
0.5188692,89.96859
0.48882836,92.11392
0.44852513,91.35253
0.45551115,92.949554
0.3557645,91.92422
0.3822545,91.37011
0.34246662,91.55812
0.23853837,95.442215
0.29263687,93.88131
0.27374497,96.0531
0.38367346,97.81202
0.39466685,98.63549
0.42435226,100.1256
0.5059482,100.5645
0.5364321,101.14112
0.6353016,100.3255
0.6851255,106.33183
0.7704039,106.99985
0.8196036,107.53094
0.83778375,113.12876
0.94006187,112.618416
0.9940896,112.52891
1.1318256,117.6414
1.231185,117.716705
1.2221762,121.11697
1.3481519,122.26714
1.3811581,121.86309
1.4447651,123.62674
1.4897528,127.30381
1.5208954,128.19193
1.5725218,130.0328
1.5317105,131.29942
1.650156,133.08994
1.6885682,134.75871
1.6504743,136.19823
1.5685663,134.92984
1.6726283,136.4001
1.6790075,135.75871
1.5785974,133.09528
1.6148907,137.52812
1.5621316,139.73105
1.6535914,139.91942
1.6372553,141.1157
1.4998045,136.46747
1.61135,137.274
1.5699328,136.61053
1.5216148,136.56383
1.4597903,134.32965
1.3768785,136.16501
1.4768884,134.93045
1.3960783,135.3157
1.3710393,133.75314
1.3327597,133.32834
1.2599044,131.32152
1.2377887,128.33513
1.1261772,130.01811
1.0635825,129.6509
1.073172,126.8588
1.141568,128.72075
1.1013063,126.24722
1.1863853,122.17047
1.0939727,124.78703
1.1259122,124.066864
1.0500598,118.97457
1.0351964,118.739975
1.0435953,121.47078
0.9674875,116.91524
0.9798618,117.16757
0.8727584,116.86824
0.9320197,114.70489
0.9390649,115.16459
0.8699022,113.07927
0.75430936,114.484024
0.77694464,113.263214
0.7816527,109.61438
0.7253893,108.74013
0.6815259,109.49341
0.5803106,109.05344
0.5668065,105.91288
0.43566477,103.219246
0.4705584,104.0037
0.51665914,100.0409
0.5686751,104.38248
0.44565564,99.69416
0.5272159,100.28537
0.47604227,97.59213
0.43581703,97.33294
0.46057773,95.03357
0.5079579,94.65668
0.49621645,93.99653
0.39549303,93.36579
0.39747593,94.78025
0.4759115,92.14194
0.3873164,91.1789
0.32046333,87.75355
0.24243607,91.94726
0.33469352,93.43626
0.23256417,92.53296
0.11888139,89.724945
0.0992164,90.71038
0.116457395,88.69324
0.17558578,94.72483
0.11925961,92.95501
0.06892854,91.281586
0.08032625,91.62254
-0.050970517,95.12591
0.039108124,91.19373
-0.02120158,96.10175
0.029428765,98.664085
0.09517313,97.42169
0.0800884,98.43341
0.27591276,101.18596
0.27010304,104.112885
0.25801978,105.46297
0.35028124,105.17255
0.44537008,106.15696
0.55764383,111.0528
0.6120956,106.6366
0.8582633,113.29626
0.8563657,114.816795
0.80009955,115.63178
0.89073914,118.82583
1.1314459,122.05889
1.098661,124.40605
1.1307477,124.686226
1.1400256,123.318115
1.3188534,126.61582
1.3948807,126.84136
1.3273314,130.2853
1.4090294,131.94182
1.3273506,134.48305
1.3631554,136.02415
1.383343,136.59381
1.3907473,136.07796
1.5002973,134.16971
1.3290206,138.94455
1.227019,136.69838
1.409594,138.25221
1.3374103,138.23605
1.3423859,139.89069
1.373988,137.26784
1.2561285,139.56056
1.2151557,136.34586
1.3148775,137.83466
1.2160375,137.482
1.1180133,137.57143
1.1042644,135.00032
1.1305857,134.79839
1.0927775,134.87578
1.0833538,133.01357
1.0071176,134.58643
1.0330012,131.11455
1.0295812,131.92216
0.99456775,128.45686
0.95606303,126.47722
0.94190496,127.06316
0.93002456,126.46565
0.95733494,125.557884
0.88233924,127.065414
0.88731325,122.65136
0.91354334,124.63581
0.901388,116.6858
0.820013,119.78664
0.86709803,119.240746
0.8391618,120.30643
0.83389145,118.91973
0.84321153,116.33173
0.7648027,115.73067
0.71623266,114.35947
0.73757374,112.636024
0.6635507,110.01425
0.5558144,110.70468
0.6526748,107.410904
0.64074534,107.925385
0.5368896,105.56113
0.5566103,107.913506
0.42201763,105.87668
0.4819214,105.69913
0.38780951,102.073074
0.39483088,103.05358
0.3564202,101.850525
0.3201078,97.75787
0.42325166,95.59603
0.33032918,100.63416
0.37876323,95.61713
0.3351968,98.55967
0.3556633,95.075645
0.3374506,96.42792
0.26182783,91.648575
0.2812386,95.4495
0.36641356,93.407776
0.315809,92.18871
0.30055788,89.62433
0.25065678,89.75512
0.30046707,92.19831
0.15607639,88.19631
0.13774674,93.09524
0.25362107,91.68469
0.1878707,90.96966
0.07922851,93.47926
0.079570554,93.19974
0.027525831,92.03537
-0.011212338,94.80877
0.017096305,95.34119
0.09157305,93.981384
0.047370806,95.26326
0.07644143,100.86561
0.026192581,96.87375
0.24473093,97.86044
0.2094153,98.43478
0.4274115,103.02124
0.3806723,104.558334
0.46402803,105.66454
0.58190775,109.049644
0.73649585,112.942
0.74631023,112.89012
0.8292123,112.46336
0.86218005,117.75433
0.9715925,118.353745
1.0174675,120.63565
1.1494954,121.916824
1.215764,124.45009
1.2922273,125.2871
1.3786105,126.53616
1.3645042,127.158775
1.3501188,131.63031
1.4092629,132.5554
1.3409591,132.77032
1.470318,136.4685
1.4491823,133.91486
1.5631057,137.04324
1.5062885,135.82666
1.4858627,137.8791
1.4353573,139.61276
1.5228193,139.45377
1.4550767,140.02432
1.3984864,138.98141
1.3888757,135.89671
1.4368709,140.10004
1.527075,137.09802
1.4262898,135.68677
1.434347,136.26642
1.3425289,135.83994
1.2824458,137.27878
1.2840313,137.63914
1.281172,134.83778
1.1932697,129.72214
1.2739128,132.8301
1.2885901,131.87602
1.1532465,129.39009
1.1722485,134.33534
1.2219033,129.99503
1.0890082,129.97206
1.1998522,127.14041
1.1030077,126.35958
1.1035354,124.734825
1.0789971,122.359474
1.0872,123.12668
1.1436515,119.37119
1.0584942,118.575455
1.0883933,118.92544
1.0983756,118.68151
0.98822093,116.35583
1.0697821,116.46849
0.9674044,113.732574
0.9188293,114.20022
0.8843871,114.70133
0.9170268,111.425896
0.91002285,110.53584
0.96520185,109.12739
0.7579974,108.49581
0.7649478,109.073975
0.7842645,105.25401
0.69109994,102.718155
0.74741375,104.04991
0.69207305,104.39918
0.6222863,98.81505
0.64108163,101.07853
0.6830132,104.331604
0.6748473,98.44018
0.6614674,98.63213
0.6375419,95.1125
0.5297609,96.9525
0.62643445,97.71187
0.62906355,94.17754
0.6659617,96.434654
0.7167037,95.31153
0.63082755,92.23827
0.5228202,95.780464
0.6049637,88.56169
0.49468657,88.624855
0.60434383,89.88581
0.5203775,91.45355
0.4052631,89.621765
0.42007032,90.28095
0.43775594,89.685326
0.32976365,91.14997
0.24523427,89.71113
0.30463544,90.14519
0.25804177,92.62965
0.30981374,93.66226
0.38081586,96.98363
0.25470006,98.1825
0.40594956,96.57412
0.3635872,98.648926
0.50648147,97.94604
0.53320813,100.09848
0.53943413,103.11679
0.7862267,105.788864
0.7366765,107.36681
0.8969419,106.256195
0.88829005,110.202
1.0631751,111.727974
1.1328543,113.872826
1.2083864,118.03909
1.2728994,115.79831
1.3607575,121.54413
1.5088052,121.06998
1.5277643,123.85186
1.605066,125.12302
1.6408426,124.03789
1.677824,126.5826
1.6662701,129.89407
1.7867155,132.2883
1.7268363,132.48596
1.8307886,131.9532
1.771704,131.02048
1.86538,136.14932
1.8457779,137.10359
1.8301098,136.06401
1.9613869,137.65279
1.8345563,135.5513
1.8283256,140.5015
1.8790102,139.27242
1.797413,136.67139
1.7176489,137.82722
1.7794634,137.1753
1.7677047,139.06328
1.7212921,136.72687
1.7268958,139.92686
1.6732094,137.00995
1.6846889,134.67316
1.6278577,136.30522
1.7207681,135.8941
1.6599822,135.06323
1.5675188,133.36519
1.5772613,129.72855
1.4935703,128.87335
1.5196851,128.37228
1.443987,132.26927
1.5246216,125.02302
1.3977574,125.178276
1.3851222,123.17384
1.4870039,126.876236
1.504911,124.525246
1.3841087,120.113625
1.45987,121.54817
1.4443434,119.398285
1.3389407,118.362404
1.4441545,116.72763
1.3311228,118.39158
1.3170986,117.71401
1.2813239,116.16413
1.2492356,112.01155
1.2516012,114.894424
1.2163032,111.32681
1.1725007,115.15559
1.1198832,108.72347
1.1027284,111.60832
1.038061,106.471176
1.0477043,103.630135
0.9865713,105.30563
0.98217773,102.2241
0.945173,99.75602
0.96175146,103.61843
0.9463282,101.36532
0.94366586,100.730515
0.9923822,101.07155
0.9887352,96.6923
0.8831218,97.08441
0.92703605,94.62639
0.8839208,95.75591
0.858866,93.08538
0.8985009,94.30761
0.88710827,95.35892
0.8967711,90.88949
0.84693795,92.700676
0.91228133,92.342064
0.8328535,87.63786
0.7548903,91.37161
0.7208436,92.21676
0.59137744,91.37082
0.74361026,91.14595
0.6515607,90.306854
0.55771667,91.03722
0.61747336,90.288864
0.53260726,92.023026
0.5527341,90.86762
0.4876116,92.75733
0.5672998,92.71582
0.66994005,93.88806
0.72078687,97.43131
0.66261953,99.73191
0.6771571,101.66139
0.84349823,101.25386
0.81738955,104.12835
0.92735827,104.287895
0.98391384,106.33896
1.0710119,106.74947
1.2294964,111.07056
1.3512198,110.18775
1.3519518,114.26663
1.4696641,114.5937
1.4832885,116.08519
1.6696815,120.3056
1.6724377,122.548645
1.6422033,124.77958
1.7254403,127.078995
1.8851368,128.97406
1.815205,129.11224
1.8584784,128.66644
1.9314415,130.63423
1.8701116,135.1149
1.968602,134.26529
1.9426619,132.38281
2.0012548,135.36418
1.9912894,135.23563
1.976063,136.29755
1.9749804,138.14937
1.9404726,138.51773
1.9492137,137.49574
1.8669028,136.06682
1.9514102,137.29446
1.927052,139.78918
1.8629627,136.10901
1.7877806,138.62149
1.7282082,136.8306
1.8603758,137.13521
1.7788979,137.02647
1.6835903,135.87796
1.6505278,135.57121
1.6191276,133.43521
1.5850519,132.34818
1.5075573,133.35307
1.5114243,129.68294
1.5950456,128.69388
1.6745294,130.04599
1.4918029,127.42812
1.5480647,128.55164
1.4801137,127.96757
1.4986922,124.88803
1.481812,122.22703
1.4405968,122.15338
1.4799536,121.34214
1.3736004,119.8482
1.4139712,120.0185
1.3991355,119.424095
1.2772748,118.12391
1.3004895,113.943405
1.3141196,112.972115
1.2429746,112.70816
1.1623155,111.73568
1.1767802,110.72638
1.1484107,110.692024
1.120575,110.41259
1.0630255,108.55429
1.0719897,110.33936
1.0084577,107.68035
0.97697705,108.979034
0.9597623,103.471245
0.8792453,103.917366
0.9319262,102.28479
0.70603687,101.49864
0.8458464,101.515396
0.84163296,99.1482
0.7961475,99.106346
0.8595785,96.28193
0.8861334,97.90463
0.7926641,90.73088
0.7276461,96.62294
0.76173013,95.08776
0.70082074,92.78544
0.6789421,95.403915
0.8681638,93.90704
0.7890146,90.32575
0.6903648,89.58059
0.74473256,89.71297
0.61520267,87.009155
0.5634506,90.86607
0.53304225,89.37603
0.48362428,89.69233
0.50847256,87.4776
0.499782,92.75897
0.31579027,92.08859
0.306143,92.0051
0.36833918,92.9288
0.3201397,94.628204
0.35504135,97.31014
0.48737082,95.9073
0.44913653,99.448654
0.5108133,96.105255
0.55334836,101.20619
0.6224543,101.15271
0.72848386,103.95955
0.7229346,102.37372
0.9814439,107.86079
0.9627694,111.08339
1.0719777,112.2595
1.1006438,111.06184
1.1616462,116.09721
1.2800697,117.123055
1.3846046,121.88813
1.4102998,120.22861
1.418683,123.579735
1.4856693,128.21417
1.5952971,127.161385
1.5438333,130.1147
1.7410058,131.66972
1.6115654,133.2179
1.6510062,128.64595
1.6745176,133.85924
1.6600019,136.14653
1.7008693,137.91447
1.7094579,137.73518
1.7307419,136.50319
1.7393479,137.47989
1.6075741,138.13678
1.7289861,137.82535
1.6174465,140.00409
1.5876229,140.90045
1.553543,137.51213
1.5724367,137.91713
1.5507177,137.02116
1.4841971,135.8167
1.6653064,138.91199
1.4645942,136.8561
1.4336723,136.48534
1.4779611,136.22751
1.2961148,132.45065
1.3201859,133.09937
1.357409,130.53181
1.3207976,132.21387
1.2225702,127.36776
1.2782525,127.72186
1.197269,125.720406
1.1592011,123.88705
1.1846012,126.44795
1.1492234,125.32106
1.1056905,124.1279
1.0767242,122.76885
1.1154562,121.65329
1.1824223,120.848114
1.0320503,121.58586
1.1498213,118.618324
1.0712154,117.186905
0.9827995,114.758705
0.9240055,115.40811
0.9094125,114.94737
0.9240923,116.07064
0.89244825,113.37269
0.7628335,109.09652
0.7323911,109.4602
0.6887547,109.12361
0.64132476,107.868004
0.6872692,109.01023
0.61414164,105.94145
0.60429925,105.7253
0.51225734,103.687614
0.46254313,100.48459
0.4851101,100.54538
0.5619619,98.720055
0.46975562,97.07645
0.42076638,99.06786
0.49487466,97.97095
0.46533415,96.22761
0.40170318,95.91695
0.43541327,92.39129
0.4928789,95.04758
0.43741664,90.83494
0.40765285,90.176186
0.3819087,90.32741
0.3728747,89.697
0.3520913,90.92353
0.26680538,89.91026
0.28495082,91.64387
0.25125992,90.32645
0.24593303,87.96941
0.16635637,89.525986
0.12048558,91.94862
0.076902695,91.0683
0.10370752,93.21955
0.081099145,91.70912
0.052935336,97.631676
-0.031752568,93.67671
0.022226732,97.18254
0.060917314,94.6884
0.082942374,100.44519
0.17673394,99.51415
0.2095452,99.04645
0.32197067,102.93284
0.3767792,101.66541
0.4915668,105.07821
0.552944,106.28755
0.6040232,108.52113
0.6952049,112.839386
0.688052,114.152504
0.8416931,115.322815
0.90813094,119.95937
1.0321678,115.113716
0.9825415,120.53788
1.1070751,123.93368
1.1727593,122.573494
1.2505745,125.99537
1.2534282,130.44817
1.2154658,128.19847
1.3771374,129.06834
1.2954595,134.06998
1.3722726,133.10417
1.3170178,132.65953
1.3849369,134.20369
1.3406703,135.41869
1.4835941,137.21564
1.2836007,138.24734
1.2835671,143.27812
1.3688546,138.89645
1.3465377,140.39537
1.3295547,137.76965
1.3115056,138.69003
1.3951285,138.58865
1.3166724,139.09152
1.3025125,137.26578
1.2383078,135.92307
1.0964441,134.10762
1.1319257,138.12029
1.1044061,134.39589
1.0816618,136.20337
1.1340617,134.70422
1.0814933,130.5851
1.0268571,131.98488
1.1275891,132.18494
0.94129777,129.49136
0.9283068,125.97791
0.93285966,126.76885
0.99768686,127.23044
0.9104793,122.53963
0.9372658,124.445175
0.85023,121.80685
0.78944916,124.64542
0.997417,122.04123
0.8555882,120.362915
0.7989605,119.24798
0.8661217,120.04596
0.8331948,116.11614
0.8282951,114.99968
0.7783041,111.942314
0.7180817,113.052414
0.6987592,111.89262
0.67444617,109.739815
0.6181394,109.97596
0.62040967,108.55099
0.62864655,106.363205
0.56821454,110.77195
0.4191495,108.51747
0.5285433,103.8102
0.34677097,102.10035
0.43476605,102.63529
0.30291477,100.68735
0.39122242,101.62614
0.39931035,101.26528
0.30621925,99.01673
0.35266954,97.73267
0.31609863,98.305435
0.32690254,93.47942
0.351398,94.09664
0.3468624,94.3182
0.31839034,89.82878
0.32353443,93.34126
0.22146726,93.62523
0.4173572,89.591774
0.25705555,91.72024
0.28446072,89.35084
0.22867918,92.12864
0.14806423,91.89749
0.17045619,92.40355
0.052482087,92.092445
0.04170707,92.60374
-0.024959039,88.19606
0.056565467,92.77507
-0.019120157,95.25281
0.019421984,93.4245
-0.10122845,95.106895
0.026581278,96.52261
0.034692932,92.39479
-0.024128804,98.66927
0.020648208,98.8246
0.17549506,99.37169
0.13513596,103.35132
0.23232208,103.411385
0.32544604,106.31516
0.5322479,108.8445
0.5806239,109.2588
0.59835905,107.37522
0.7404643,114.33624
0.8613769,113.11919
0.8660797,114.42589
0.9817899,118.59178
1.070718,121.98067
1.1791285,120.748886
1.1314648,123.90575
1.2031008,122.846405
1.2917074,126.94067
1.3655393,127.085785
1.3296505,129.87856
1.3677864,131.16393
1.4324685,131.59895
1.5259466,132.74396
1.4392148,134.3112
1.4651619,138.13513
1.4748584,135.39116
1.390337,136.83812
1.4478104,138.56773
1.4685739,136.56361
1.4630892,136.86502
1.4212749,137.41776
1.4098707,138.51387
1.3659077,140.41373
1.361758,138.15004
1.3674037,137.42842
1.3489774,138.35924
1.3226165,136.08783
1.3504497,137.01765
1.2592108,135.01204
1.28172,135.23993
1.1442018,132.20633
1.225145,133.10991
1.2685034,132.80418
1.1809587,133.45631
1.0802981,128.8107
1.1556865,126.838905
1.1583079,127.49333
1.0633005,127.55122
1.0652419,123.28679
1.0779543,125.21797
1.1008664,123.51749
1.059669,122.54535
1.0745969,120.967354
1.0084978,118.313324
1.0213041,117.62007
1.0257696,120.83319
0.94025946,119.524216
1.035331,117.384735
1.0082114,113.8944
0.91956985,113.52965
0.9457632,114.80554
0.8301221,113.64659
0.8892291,109.28221
0.7705664,112.58976
0.71047145,104.29427
0.7952626,108.30159
0.7641004,102.74
0.722714,106.60995
0.661348,106.44297
0.62061745,105.79333
0.57842785,100.82636
0.62453294,96.36928
0.61806464,102.14477
0.62715113,99.04193
0.6464392,96.850525
0.5275031,97.45615
0.5687624,96.69145
0.5366331,98.41526
0.52567714,94.79654
0.5111317,95.02692
0.70037955,95.61522
0.5500725,92.89633
0.5642221,92.67739
0.5454602,89.91326
0.50789815,88.37221
0.53386617,91.69913
0.40000716,90.1376
0.43202698,92.52532
0.32491633,89.22835
0.3635622,89.37579
0.2890186,93.79514
0.27729607,89.1145
0.26446915,94.93818
0.15777203,92.25968
0.31938025,94.38417
0.24763064,95.92085
0.3033302,95.89385
0.29424235,94.29275
0.3287435,94.65669
0.45891175,97.66908
0.4352919,100.90736
0.5295171,104.69693
0.6045118,104.379166
0.5786313,105.74275
0.80033517,108.374504
0.89859086,112.31111
0.9983284,112.038956
1.0521231,113.91828
1.1666338,112.57879
1.2251773,118.19784
1.3947412,119.07315
1.4117688,119.65073
1.4652705,123.74849
1.5140184,125.23814
1.5320266,125.45491
1.6886209,128.15594
1.7342752,133.2028
1.7538877,133.24873
1.7386671,132.0197
1.7232985,134.94377
1.8143233,133.64243
1.8204763,135.63185
1.7751216,135.55421
1.6785867,135.81741
1.753081,136.6012
1.8527678,137.15111
1.8130636,137.5678
1.7846692,136.27246
1.7535803,140.20918
1.7623096,136.38396
1.702332,140.38297
1.734687,138.0597
1.6852703,137.107
1.624175,133.80492
1.7274778,134.80557
1.605564,132.33678
1.6133056,133.33908
1.6827569,133.51717
1.5559734,134.2653
1.6128931,126.75206
1.4557335,133.37054
1.4753414,130.62915
1.519229,132.1098
1.5747672,130.72209
1.4884331,125.807144
1.4491926,127.45613
1.3865005,125.978745
1.4267979,125.091576
1.3468329,123.13892
1.4016615,121.23124
1.4309177,117.91068
1.3441892,118.307785
1.3889116,120.37707
1.4420222,117.08415
1.3367211,115.46916
1.3045315,117.37257
1.274374,115.28349
1.1943887,110.63044
1.2531146,109.842545
1.2381191,110.510124
1.2079294,112.98966
1.0878094,111.873314
1.0611367,106.18951
1.0729069,105.64079
1.0588013,108.37324
0.9896025,106.31145
0.96640015,104.31536
0.9196683,101.47473
0.8545911,104.35123
0.9607978,100.82893
0.9576649,98.40076
0.8955019,98.64836
0.8591912,98.99573
0.8389601,99.71911
0.90071434,94.37603
0.81967443,92.95289
0.8344441,95.654434
0.87695926,91.59856
0.93188196,94.13878
0.8306143,93.114296
0.79704666,92.65734
0.7826492,90.67529
0.71644753,90.79787
0.752219,91.103226
0.59331,89.10693
0.6690883,91.99411
0.62831396,90.20856
0.66980684,92.560684
0.54490787,87.35954
0.5451276,94.264336
0.51016295,93.623985
0.5515696,94.92693
0.5080491,92.26911
0.532483,95.1762
0.58822757,96.196205
0.58493114,97.427666
0.6088969,100.01887
0.75790745,101.602844
0.72690094,100.700424
0.7985281,102.9616
0.9332168,107.13954
1.0536131,105.214584
1.065164,109.32817
1.1547468,109.30416
1.319413,112.50644
1.3882128,113.83071
1.4642996,114.73085
1.5162774,118.66358
1.5743669,117.23987
1.6505084,122.38895
1.6808139,122.95875
1.6985517,125.145645
1.8133256,129.28656
1.897746,128.24884
1.8406821,130.78639
1.8815873,133.42664
1.9649001,134.2804
1.9025079,135.30614
2.0025134,137.2823
1.8715339,135.6098
1.9136488,137.3253
1.9187485,136.07361
1.9923319,139.16975
1.8733671,135.95299
1.9005535,140.14323
1.9603925,136.40413
1.9996122,137.78181
1.8754926,139.27246
1.8852862,139.26332
1.8047613,138.43016
1.8616154,137.93977
1.7519287,137.37103
1.8004315,133.1223
1.6765486,136.18929
1.7630363,133.522
1.6710396,133.47318
1.7202941,133.36574
1.5874505,135.42139
1.653747,129.4218
1.5476657,130.35886
1.5638888,126.60005
1.6023746,130.0766
1.5693694,129.36798
1.4998373,125.24873
1.52451,127.05423
1.4249507,127.23389
1.517553,122.65387
1.4264615,121.06337
1.3996928,122.21004
1.4085647,118.05821
1.3926611,119.49992
1.3639654,119.36865
1.3773583,115.23106
1.258475,114.66
1.2905347,114.88147
1.2799166,112.47696
1.1000124,111.80422
1.1664469,106.78085
1.1694669,109.221985
1.1121625,109.82581
1.0111575,106.35756
0.9750495,105.515945
0.9989837,105.64305
0.9488386,103.25065
0.9206532,105.366165
0.8990329,102.5381
0.80506146,103.53033
0.87558764,100.56647
0.8354406,97.48767
0.87199086,97.83211
0.892081,99.42523
0.7925034,93.893036
0.75516397,97.52132
0.7796124,95.74314
0.8208382,94.41645
0.7582504,95.710754
0.8126488,92.793755
0.81097084,90.75962
0.6569109,92.44429
0.7059824,92.66192
0.6138493,90.38305
0.6656339,92.81943
0.6899651,90.632835
0.5596219,91.29848
0.5397577,91.42118
0.4866666,92.51439
0.50104916,89.080864
0.48132434,91.021225
0.427565,94.086685
0.3981462,91.83466
0.40069932,96.59834
0.39053565,95.9196
0.403024,95.76694
0.49787903,96.5528
0.6141226,96.41515
0.59091026,99.86888
0.63915783,102.682556
0.74454457,103.29411
0.8785038,108.386055
0.8347653,107.632744
0.91933566,110.242226
1.0814273,108.91826
1.1909219,112.3806
1.2777023,112.76899
1.265735,117.914116
1.354559,120.11064
1.3950243,119.39287
1.4945571,123.606026
1.4971632,123.92029
1.5548954,127.946655
1.6492695,130.12791
1.7360349,130.077
1.6965501,129.82509
1.7087191,131.20871
1.6793596,134.8603
1.6485357,136.30936
1.7494915,133.85103
1.7897354,133.44998
1.727271,135.87361
1.7568367,137.011
1.6555701,135.11163
1.7046853,138.57301
1.7596934,137.4386
1.7018894,138.28317
1.6244586,136.25983
1.6915215,138.06258
1.720533,134.14827
1.6202149,137.18925
1.5669771,136.12373
1.5234778,137.3426
1.5019437,135.63824
1.3712497,135.32631
1.3846642,134.60635
1.3139606,135.21695
1.3217676,130.3043
1.3452139,133.53638
1.3590461,129.79059
1.2359009,126.28852
1.2517582,129.01645
1.2751414,125.07848
1.2514096,121.78507
1.3039333,126.603386
1.158954,123.80938
1.2457129,121.897804
1.1928527,122.47272
1.1924943,121.436584
1.1409198,118.173325
1.0728371,118.24666
1.0850061,116.39612
1.0850607,116.691124
0.92331165,117.53265
0.97462237,113.58299
0.9114373,110.955894
0.90557426,112.19924
0.9005825,108.531044
0.7700077,109.05399
0.8142132,109.983574
0.73869324,105.63866
0.7356273,109.53957
0.7596082,108.59939
0.68946666,105.58761
0.63767487,106.169945
0.6191202,102.99046
0.5043601,101.12229
0.66223294,101.33318
0.59073913,102.681694
0.52153236,99.3284
0.469311,97.10974
0.5338264,95.70114
0.48997858,94.839355
0.4830772,96.46891
0.54999995,92.57876
0.5070574,91.75481
0.48807302,93.6374
0.4241552,91.73665
0.40243033,90.78846
0.35070774,89.9194
0.30611885,90.31724
0.35658547,92.78445
0.22354537,91.44278
0.33495495,91.172195
0.1731548,90.06355
0.16066176,92.4912
0.11551685,93.28782
-0.032197453,92.03288
0.097330004,91.0482
0.037008133,93.716515
-0.021686412,92.52171
0.028111806,92.69154
0.11533656,96.09303
0.15303698,93.85119
0.20703694,100.80076
0.3249369,100.9596
0.30866757,104.33653
0.26346487,103.18805
0.47720242,103.80714
0.5945063,108.705734
0.6507945,108.61275
0.67324615,109.508026
0.75633484,111.98873
0.8100646,116.67214
0.9813733,117.794464
0.9767178,120.641205
1.0678469,116.99565
1.1389309,123.78545
1.1953942,122.46268
1.196926,125.70175
1.2830282,130.7296
1.3140062,130.14285
1.3676115,129.82649
1.3636314,131.4195
1.4081264,132.21713
1.3881474,137.18884
1.3775657,132.16547
1.4129453,133.99995
1.3782032,139.37302
1.3817139,137.30582
1.4871336,137.57709
1.447303,137.25046
1.4950235,140.76341
1.2931185,137.4329
1.4043413,139.5825
1.342469,140.08047
1.2720429,136.22513
1.2442399,136.35258
1.2559994,136.75294
1.134217,135.38362
1.1881369,136.90048
1.1463643,137.15799
1.1197191,131.99892
1.067397,132.0334
1.0731192,134.01736
1.0245435,132.37892
0.96680117,132.02635
1.0767293,129.28824
0.98396087,126.29608
0.9760953,129.2224
1.0763324,123.24015
0.8893191,125.83057
0.87552047,122.21688
0.89478993,119.19607
0.9207641,122.65648
0.8576904,116.63937
0.8030746,120.613976
0.88665164,120.9956
0.8215814,119.22496
0.85517937,116.57435
0.7157662,114.49083
0.6512009,114.32311
0.72659427,113.940636
0.7154209,108.90936
0.56573987,115.10186
0.66925883,111.687485
0.6330029,109.644844
0.5654265,106.32273
0.5220592,108.85545
0.41691953,104.909706
0.39466432,104.15806
0.37169403,104.63253
0.4235252,104.483955
0.35368988,100.301056
0.2662457,99.631
0.30151403,99.63607
0.30421087,99.03915
0.39110407,100.22685
0.33412176,100.772354
0.29256684,97.14044
0.33967328,94.76518
0.36422166,91.31243
0.36219427,92.24553
0.29240268,94.47413
0.30868945,90.90874
0.2639388,89.49027
0.35265014,91.68369
0.25805736,90.97339
0.29548568,89.93859
0.023364699,93.07425
0.14428625,92.41151
0.057412993,89.31649
0.08883442,90.37352
0.0024824874,89.82399
-0.02696739,91.81562
-0.093703434,94.12427
-0.03751569,91.93953
0.0020119355,92.98367
0.008099033,95.18615
-0.01974325,98.87473
0.060552545,100.943184
0.100354254,97.28275
-0.024529014,101.80616
0.21535248,98.956116
0.2948295,101.866905
0.39430097,104.58627
0.46001375,107.262596
0.50676715,111.24432
0.5334805,108.066444
0.7007025,109.9745
0.78939515,114.126945
0.82817435,115.99042
0.8962032,117.429535
1.0315074,117.67513
1.0206177,122.171135
1.1494483,125.489525
1.1785626,124.199684
1.2384176,127.660645
1.2486358,130.59123
1.3286813,129.79176
1.3998727,132.31824
1.3349838,131.64159
1.3766456,132.57799
1.3703941,133.3015
1.364022,134.92064
1.4321396,132.90164
1.4717135,138.48402
1.4684256,137.0571
1.3523085,138.69955
1.4460708,137.1179
1.4116579,138.13379
1.3347412,136.57133
1.3115864,136.90152
1.3074341,138.6273
1.3729825,135.99098
1.2792242,139.70078
1.3683875,134.13513
1.2387877,137.60918
1.2355409,134.8894
1.2053481,134.19588
1.1383156,130.93169
1.1796316,131.61221
1.0314453,133.44278
1.1633413,133.36856
1.1192514,131.32564
1.1353294,131.9809
1.1299108,128.83606
1.0504781,126.05535
1.0408508,128.30565
0.98884106,124.70963
1.1196833,125.81505
1.0305209,122.987274
1.0412241,122.33279
1.0765231,118.95294
0.9738368,119.809044
1.0051159,119.2019
0.95590943,113.27006
0.9094315,116.34171
0.9215318,113.336136
0.9096438,113.22057
0.8454093,114.24172
0.8531837,114.13205
0.8465085,109.45663
0.71338135,111.23454
0.6654346,111.02247
0.6688221,107.11899
0.6586324,108.61218
0.73852396,106.117546
0.6115175,106.27498
0.5326205,103.72893
0.5416174,100.75557
0.5332168,99.719444
0.57870024,102.22499
0.5449861,100.91925
0.5729049,100.96056
0.543626,96.96373
0.54733497,97.658356
0.5195901,97.0981
0.5620288,94.87709
0.5814916,93.27856
0.5514698,92.37519
0.42144385,93.31014
0.53438216,89.38854
0.472807,90.983986
0.43190694,89.32593
0.357785,90.47222
0.5088844,89.733635
0.40657967,88.57977
0.37587827,88.74607
0.28019935,89.36331
0.29835483,90.09018
0.26770145,90.933136
0.18921101,90.95988
0.17154944,94.15879
0.19418329,95.59844
0.26481953,92.746346
0.28466037,95.44592
0.32922232,96.43244
0.37884277,98.641426
0.42705244,98.2332
0.48329335,98.28059
0.54775435,105.48399
0.5464612,101.487434
0.67518884,105.698105
0.8227263,108.309685
0.9003746,108.149796
0.9577924,108.43567
0.9561183,116.19183
1.0824964,114.61203
1.2651117,117.03917
1.327926,117.74164
1.3960663,117.89877
1.4451671,121.83758
1.5565729,121.94992
1.5591477,124.21034
1.5732442,126.85549
1.635024,128.77968
1.7211721,131.35634
1.6838592,132.17455
1.6929381,134.30464
1.7348928,134.18037
1.6955043,133.11009
1.6931403,137.98148
1.7065654,136.22781
1.7942287,135.1242
1.7569631,138.21193
1.8606138,138.81453
1.7579145,137.13753
1.7668735,137.78386
1.7849857,141.28906
1.6379517,135.14482
1.6945664,139.1623
1.650807,137.39987
1.7284395,138.55144
1.5857328,136.52182
1.5886568,134.27003
1.6003376,137.61217
1.5380687,135.2762
1.492586,133.06306
1.4194506,130.42554
1.441322,134.43301
1.3720549,130.36168
1.3573853,128.67429
1.4325951,129.49872
1.4536521,126.31411
1.4232866,126.7177
1.3383574,125.17613
1.3367167,123.47754
1.4241629,123.88325
1.353654,122.651436
1.4827687,121.093765
1.2969061,119.49284
1.312263,119.27157
1.3575758,116.6336
1.3247285,116.17563
1.3086765,116.86818
1.2695851,116.18317
1.2822834,115.0344
1.2922958,113.83107
1.0756682,111.60082
1.1924266,110.85775
1.074291,108.122536
1.047147,109.89353
1.0146933,107.75824
0.9257506,104.72024
1.0100015,105.81211
0.8921793,106.168564
0.87548995,107.54385
0.89398324,98.38099
0.88299304,101.66629
0.8471549,98.77007
0.81949234,98.686295
0.86709946,100.0064
0.8589579,95.62928
0.8751183,95.962364
0.8376484,93.21221
0.87250644,95.52879
0.9023355,91.970695
0.84467894,89.986336
0.775371,90.80653
0.861614,91.50376
0.78990245,90.456635
0.7660738,94.61918
0.76217407,89.38418
0.73812497,91.27928
0.69600046,90.946815
0.6056957,91.64271
0.6127064,90.524925
0.439302,87.47895
0.49872562,90.366844
0.50525093,91.863495
0.5740057,91.74804
0.53353083,92.1821
0.52047265,96.16713
0.4673069,92.904305
0.53286415,96.16622
0.6061939,97.92236
0.67094517,100.73496
0.7918038,98.75208
0.94759715,105.70408
0.99097544,107.22559
1.0381331,106.80737
1.1032706,109.10568
1.1776353,111.823975
1.2540143,112.06157
1.2578331,114.2507
1.4694,117.80403
1.493724,120.82672
1.5635195,121.70293
1.6599123,121.60276
1.694564,124.91025
1.8202472,128.61278
1.8008854,124.580376
1.7782794,128.95296
1.8298202,130.79318
1.9464715,135.49805
1.9397415,133.66862
1.8916891,133.87395
2.0312948,137.5876
1.946871,135.32578
1.9764415,133.85645
1.9094998,135.4814
2.0232227,138.18494
1.8881301,137.87454
1.9190521,136.02898
1.8751898,139.27638
1.929787,140.3563
1.8811098,140.08246
1.9210474,137.99829
1.8625796,140.58966
1.858277,134.95552
1.8426217,135.1188
1.7807596,137.10876
1.6712055,136.1143
1.6624091,133.49164
1.7068523,135.4428
1.7215413,130.91626
1.695946,129.47539
1.697431,130.09282
1.5842451,129.92293
1.6569685,127.39461
1.5444208,127.03518
1.552839,128.69061
1.5081764,123.13404
1.5463988,126.36049
1.528331,123.20863
1.4592316,124.028725
1.4797252,122.14583
1.5603964,122.28328
1.4443043,119.72223
1.4032544,118.08375
1.3779233,116.08878
1.3427769,116.791016
1.3315948,112.05325
1.3594402,114.23713
1.2391499,116.72099
1.2127918,113.579575
1.2217742,107.47504
1.2218366,110.4942
1.1713024,109.97836
1.0903641,104.80917
1.1232584,105.30614
1.044704,107.17017
0.9816578,103.930855
1.0104148,102.83035
0.9093097,103.45401
0.9256337,100.96667
0.92288285,100.14765
0.9040658,98.54902
0.88464427,97.78461
0.9678489,95.761955
0.88976425,97.29828
0.8830311,94.57213
0.8684354,94.39072
0.8538269,94.88524
0.8537516,91.39196
0.89192873,92.118965
0.8409555,92.72659
0.80498344,92.04778
0.72662765,91.31039
0.69771993,90.02038
0.671531,90.207504
0.6109618,92.886955
0.5609389,89.01667
0.5394507,90.73114
0.53664184,94.209114
0.5288069,91.63912
0.5357024,94.25022
0.43279198,93.4278
0.47999182,94.90857
0.4956606,92.314606
0.4627989,96.11543
0.48939934,96.14435
0.5067214,97.16467
0.504335,99.64082
0.61056685,99.101974
0.71835876,103.96679
0.75199735,105.78949
0.8719106,107.505806
0.9362225,109.69739
0.979463,109.766014
1.0568131,113.09466
1.1186111,109.9232
1.3217381,114.39141
1.4115727,114.83786
1.3624421,117.14405
1.439419,121.716644
1.4903862,122.960754
1.5472413,126.33228
1.6114608,128.23732
1.6995829,129.64331
1.7829174,129.11339
1.7728163,133.02069
1.6684563,129.8512
1.7679892,135.10999
1.8136368,134.85548
1.907772,135.56276
1.8014458,138.46072
1.8255936,135.3753
1.8318111,139.11371
1.7468804,138.64827
1.7844099,135.95802
1.7550792,138.3027
1.7108687,137.98117
1.7041266,139.65656
1.7229701,138.07463
1.6860454,137.50095
1.6777436,138.82173
1.6022102,135.67958
1.5896435,135.63417
1.5024215,134.73985
1.4603941,132.62192
1.4865744,135.47205
1.3711011,134.66295
1.4248593,131.97798
1.2973433,130.365
1.3215252,131.26093
1.2841706,130.51418
1.357919,126.76146
1.2709297,125.467094
1.2217801,127.40921
1.1965044,125.297714
1.2853415,126.90802
1.2687759,123.445045
1.2208207,125.23978
1.1750101,123.37778
1.1380246,119.036644
1.2316284,118.909775
1.113833,117.42165
1.0954545,119.62009
1.0863305,115.78918
1.025571,113.50493
1.0176281,113.33246
1.0161266,113.51979
0.9777657,109.66357
0.9248103,110.18637
0.84163636,108.63828
0.7996318,107.971436
0.70488685,106.38295
0.76130843,107.08299
0.6710059,104.69252
0.66324323,105.23625
0.67642295,104.86477
0.6126721,104.13628
0.6284907,102.8176
0.63489294,103.0951
0.67238504,99.745346
0.6187255,96.39831
0.56847364,100.05347
0.5567748,96.79565
0.6039595,95.07146
0.55762464,95.74564
0.49929702,95.7193
0.5021121,92.398605
0.4689931,93.99001
0.4665142,91.78963
0.41265616,92.05702
0.32407477,91.069756
0.36118075,90.93723
0.3550527,91.15085
0.25790524,88.76335
0.28065258,92.6544
0.25799084,90.51763
0.1976424,94.1815
0.060318675,91.54995
0.1041019,91.71058
0.14913306,93.96325
0.092572674,93.90181
0.066743456,93.540695
0.112502396,95.74078
0.23898396,95.924484
0.10787103,101.803665
0.26549208,100.46644
0.33915216,102.81879
0.43088967,105.58706
0.48109174,104.738655
0.6541803,108.383514
0.672068,110.024315
0.6896641,112.70994
0.7849344,110.432014
0.8837659,115.68038
0.9880956,119.09377
1.0494957,117.236595
1.1822151,121.87404
1.1380868,120.507515
1.2572095,124.03325
1.2656175,126.51676
1.2921513,130.8371
1.3419997,129.81319
1.2833467,131.52248
1.4157487,129.68527
1.3714349,136.8737
1.4057103,133.303
1.4912802,138.43175
1.419665,135.29532
1.473328,138.05527
1.4716376,134.14224
1.4452871,137.19398
1.41417,138.85564
1.3470732,137.22777
1.4211102,137.22293
1.4201119,136.5524
1.3582733,138.82133
1.366334,136.20222
1.238602,135.95564
1.2821401,139.42256
1.2115526,136.7722
1.1455566,135.1008
1.1256996,131.59082
1.1637993,131.70522
1.1477218,132.7939
1.0276293,131.97958
1.0337827,130.88618
1.0193491,129.61786
0.9951506,127.29671
1.0784593,129.15942
0.99571,128.98306
0.9570424,125.69464
0.9966277,125.233734
1.0446913,121.37662
0.9254153,124.9334
1.0244242,122.02592
0.83262014,124.70958
0.8979634,117.668755
0.97973454,117.023735
0.96648026,116.50274
0.8207758,119.19831
0.83354104,113.89693
0.8454331,115.738716
0.7330057,112.10546
0.73593736,112.27921
0.60870916,110.34349
0.63089937,109.31262
0.5760952,109.312775
0.59700036,109.34097
0.60213995,105.12896
0.4034997,103.20603
0.44317365,104.89732
0.46602914,100.27076
0.43854746,101.723885
0.36458313,105.39905
0.3120511,103.32803
0.29787427,100.20849
0.3095216,101.367485
0.30766046,96.21653
0.3312084,95.38062
0.39287823,93.93158
0.37976322,96.12821
0.33466503,95.42421
0.31378427,94.21657
0.3264011,94.537766
0.38226503,92.074295
0.20234974,91.75668
0.16889074,91.05582
0.18647738,90.60619
0.23111644,91.957146
0.18956292,88.657616
0.068983845,88.727974
0.059932504,92.96796
0.058433376,91.94073
0.088592745,92.323555
-0.059329286,91.46748
-0.08821383,89.8225
-0.12625855,93.30069
0.072834596,93.631805
0.011485193,94.75777
0.019664971,97.598755
0.1376829,96.74297
0.02626631,99.57802
0.07137301,100.26077
0.1745289,103.66363
0.22905685,100.637665
0.37682176,103.49579
0.3285559,109.03655
0.5313341,106.33095
0.5214911,109.24801
0.6924248,112.08994
0.71285135,114.12603
0.85483444,113.91561
0.8847928,119.453545
0.9555581,117.832054
1.1375966,118.914955
1.0983374,122.401794
1.1768183,127.0847
1.1411053,129.1217
1.3041537,129.46869
1.3248603,128.42757
1.3240843,132.35217
1.3541528,133.02095
1.323489,134.79913
1.431005,133.57036
1.3648455,134.54404
1.4505502,137.76382
1.3790259,136.94353
1.4213265,137.82622
1.3339658,139.0029
1.403525,139.43353
1.432813,139.13765
1.3554547,137.52419
1.3804784,138.8356
1.3399462,139.38896
1.3141584,136.13477
1.4547557,138.74908
1.2167294,136.11613
1.2391142,138.96036
1.1982939,135.46455
1.2195686,136.25078
1.1238153,135.55127
1.1301281,134.6702
1.1266654,134.55385
1.1273694,131.91241
1.0637661,130.53572
1.0449761,129.34344
1.0472223,125.96343
1.0791776,127.36888
0.96410614,128.17595
0.9169546,124.45439
1.0496472,125.97274
1.03707,122.4625
1.0038058,124.74664
0.8928011,118.89203
1.0674443,119.6273
1.0110191,117.360374
0.8844789,118.53777
0.87052083,117.041725
0.78513336,115.53373
0.8292053,113.15949
0.9026468,115.20483
0.8319065,113.16919
0.8417286,110.48325
0.7142391,108.39528
0.61652786,110.98496
0.6211054,109.271164
0.65526515,104.59144
0.53230786,104.63742
0.54517305,104.616196
0.50205255,102.272285
0.4661139,102.96997
0.50983524,102.40683
0.4277694,101.297005
0.48842567,99.468346
0.4581167,99.85059
0.44819257,95.52644
0.5068173,95.98113
0.4691296,95.57174
0.44165537,94.11432
0.5989604,92.527435
0.46543387,94.053986
0.43360388,93.88865
0.46220824,90.74046
0.46294147,91.0985
0.44386655,92.527565
0.34454566,93.25881
0.28471726,90.726204
0.28454894,89.38082
0.32218271,89.65695
0.26749,91.874275
0.27483273,91.82498
0.20892787,91.41939
0.2075901,92.40564
0.21032965,90.494934
0.15066324,93.66117
0.14654203,92.444954
0.11993701,95.669014
0.24510284,96.32549
0.22926137,97.63689
0.29668233,98.78706
0.39080498,100.71148
0.46177408,106.525635
0.5342332,103.41579
0.72008795,107.05079
0.77676123,111.96918
0.77176034,108.613045
0.92566836,114.10149
0.96590626,112.79278
0.9612103,117.73593
1.2091126,120.02114
1.2626616,119.857544
1.3208839,123.19379
1.4159235,123.05485
1.4829108,121.60726
1.4670545,125.15724
1.4932429,126.47645
1.559133,130.6888
1.5510186,131.2394
1.6473286,132.85576
1.6336298,134.62784
1.6248003,135.59117
1.6974214,134.24995
1.6661752,134.08865
1.642318,137.55864
1.6527237,138.42728
1.7133067,137.8132
1.6778059,137.77458
1.6599338,135.88936
1.7018468,134.56683
1.6932212,138.13853
1.5887235,137.9359
1.5726534,136.49203
1.6189797,137.18188
1.5974944,137.32838
1.5220327,139.07332
1.5381916,134.66867
1.5327278,136.45883
1.4619489,130.95132
1.4570081,132.3819
1.506668,130.90584
1.4477953,129.68239
1.4020586,131.066
1.380896,133.03462
1.3228955,129.48901
1.2852575,127.14895
1.3946714,124.99962
1.3406436,125.20052
1.2673744,123.16561
1.3801194,122.28048
1.281422,121.596344
1.3252816,121.48351
1.3479557,122.01771
1.2690223,118.45311
1.2698822,114.555725
1.201465,117.77005
1.2431102,116.20014
1.222675,115.222466
1.1243296,114.468346
1.0671349,111.803375
1.1622125,112.76038
1.0495816,110.08377
0.919927,112.1593
0.95150244,106.65387
0.91274536,108.03594
0.9726419,103.55759
0.973399,104.93023
0.8982607,105.47153
0.7705372,101.84603
0.8897771,101.866776
0.80227363,101.902306
0.91665614,98.32835
0.8278899,99.41636
0.8261235,98.12535
0.8805772,95.4129
0.87789214,96.52185
0.8385324,94.48203
0.7999138,95.877716
0.8196809,90.4459
0.8588063,91.52047
0.7579943,91.85712
0.78838074,91.41511
0.83672,93.61583
0.7593224,90.713776
0.7272235,91.59572
0.63895535,92.21722
0.69575953,91.218704
0.6685973,89.0846
0.6150204,88.74373
0.552455,92.51669
0.5574263,92.30679
0.5176995,94.69879
0.5932463,92.23981
0.4831059,93.70423
0.43274108,92.238174
0.53408396,94.95302
0.5906716,97.72852
0.66377115,98.04809
0.6748649,100.44874
0.76930666,98.156425
0.7933869,103.59803
0.83173907,103.82323
0.8746813,108.465065
1.0780649,107.073074
1.1642758,111.46122
1.2574546,115.591995
1.3413897,115.72866
1.4093895,116.84587
1.4784307,118.63702
1.6316135,122.64272
1.736132,120.41477
1.7548392,122.30468
1.7289132,122.68872
1.7350007,128.06975
1.8080882,130.42613
1.8939816,128.57216
1.9323827,132.10724
1.9399978,133.21802
1.8662499,134.82626
2.044409,132.49484
2.0148056,135.41211
1.9849117,137.30226
1.9638581,137.22385
1.947986,138.35692
1.9644368,137.07649
1.8862573,139.3279
1.9053745,137.2898
2.0162811,139.5713
1.8311278,138.37946
1.8896716,135.71465
1.8589041,138.6649
1.772816,136.86487
1.7932713,134.7952
1.7837259,136.63258
1.7539074,137.86227
1.8046097,135.03766
1.7199496,136.11942
1.6813103,131.76118
1.6393776,133.00015
1.6360555,128.97737
1.6564933,128.6027
1.5576067,127.16898
1.487344,129.96216
1.5909754,126.319466
1.5358405,124.901535
1.5209627,122.87202
1.4707166,124.29663
1.4810882,121.24029
1.5086405,119.753136
1.444545,119.26776
1.4492877,119.86361
1.374595,116.65804
1.4123882,115.81171
1.4090453,115.23
1.455713,115.37533
1.4509561,114.15344
1.2905334,115.464905
1.2550653,110.56929
1.1488642,112.31983
1.1570212,108.834465
1.1515598,108.983154
1.1116906,107.41593
1.1105999,110.09166
1.1111885,103.210396
1.1178044,104.41586
1.0065621,104.9592
0.9670604,104.439445
0.97847986,101.53021
0.84011364,99.59515
0.8754658,98.148254
0.8277811,97.81568
0.8812773,97.273056
0.8753508,96.73925
0.9431069,97.71694
0.93776727,96.00896
0.90573543,92.73724
0.9077796,95.14137
0.9338151,96.42305
0.83455956,91.66844
0.8012887,91.057365
0.80108917,90.002975
0.88305587,89.797195
0.7198823,91.08778
0.70808876,90.85923
0.64255124,90.303505
0.5852184,91.76319
0.56382537,91.77143
0.50851905,93.88596
0.36958805,90.851
0.49426934,93.000694
0.4468401,92.04351
0.38908404,93.0795
0.44268957,94.45316
0.49583977,98.03909
0.6494248,97.9363
0.65200704,100.63735
0.7018459,101.23692
0.73234123,102.44665
0.75955623,107.32374
0.9118647,105.396774
1.0395429,106.80279
1.0570445,109.55718
1.1712656,110.52601
1.2053118,112.85096
1.3586715,115.4127
1.3291273,116.12726
1.5527629,118.95659
1.4193221,120.79288
1.6373385,122.73182
1.6772016,127.00871
1.6630769,124.57643
1.8106941,129.9209
1.8118315,130.85712
1.8564402,128.34413
1.8738523,133.77228
1.8242218,132.0269
1.8160275,135.82872
1.8632464,135.40263
1.8930787,138.393
1.8683647,136.78853
1.8646055,137.51869
1.8390514,135.83247
1.835165,138.49524
1.8544397,138.46556
1.6836523,139.57285
1.7035376,139.41908
1.7037603,138.92622
1.74113,136.78389
1.671418,136.59648
1.5921957,136.04765
1.6809108,136.5894
1.4970981,135.98657
1.6167425,133.13214
1.4577564,133.29805
1.4064175,134.88542
1.4179069,134.28897
1.4439479,130.2777
1.409645,127.18582
1.3910578,131.62686
1.287873,128.81247
1.2983853,125.703514
1.3264885,125.97817
1.3066416,123.88698
1.2723545,124.15522
1.217003,123.682396
1.2089065,122.6591
1.2695184,122.70414
1.2200043,118.34933
1.2208574,118.80601
1.1170206,119.75749
1.1545193,116.12091
1.1356198,117.65377
1.0587707,115.03594
1.0018346,111.02036
0.97508836,114.92698
0.98008096,110.38747
0.9832231,108.95779
0.8123149,109.85677
0.89322716,110.06965
0.8792626,107.40862
0.83829355,105.32169
0.71373516,107.939224
0.62154263,105.0549
0.7176038,105.20056
0.6748718,98.30939
0.7150002,100.39185
0.6589626,101.25136
0.65333426,101.25269
0.5078018,100.05129
0.66394013,96.954124
0.5788356,97.84325
0.5217687,93.062584
0.52929825,92.85735
0.47283587,90.78296
0.6400506,93.97387
0.5277536,90.764534
0.51743,92.379196
0.52511466,91.35138
0.44346792,92.07679
0.45616063,87.770164
0.45041245,89.93589
0.32050967,89.05814
0.23342483,92.65159
0.26565066,91.84
0.17347932,87.622475
0.1836073,89.4911
0.1844523,95.22263
0.08253898,93.76693
0.20582058,93.418015
0.2318093,92.70456
0.2349527,97.606544
0.23674749,95.75661
0.28249678,98.65177
0.34342277,101.05155
0.3430823,102.95759
0.5258505,99.80792
0.4482285,104.924545
0.5818676,106.5507
0.6701083,109.4126
0.80456924,110.37228
0.89742875,117.25124
0.895518,113.81155
1.0437298,118.966064
1.0725135,116.76529
1.2379886,117.985245
1.2161596,123.92966
1.2703695,124.037056
1.2636536,125.25844
1.37056,125.68534
1.4460794,129.78374
1.4675844,132.65594
1.4335467,132.46152
1.4816172,130.428
1.4776285,132.82965
1.4180807,133.01219
1.4965403,134.8837
1.4567972,134.87433
1.5227207,138.63525
1.5267481,133.57231
1.3712734,139.89125
1.4447619,137.75015
1.4604858,138.25493
1.379067,138.3529
1.4561079,137.65718
1.3869541,135.79196
1.4559186,136.56087
1.3276951,136.23358
1.2630785,135.97879
1.2990075,132.82056
1.261905,133.51335
1.1607299,132.68375
1.1872734,131.6019
1.0297884,130.30907
1.0927323,130.42798
1.0503329,133.43568
1.1015358,130.24142
1.0481901,128.92674
1.0114958,127.6177
1.0351247,128.40836
0.99697626,125.560684
0.96850574,124.80387
0.962664,120.93871
0.9574418,122.05916
0.94171244,121.88972
0.93967,123.5708
0.8979851,115.063446
0.98220575,116.90321
0.8385836,118.36988
0.82106435,116.098885
0.74528325,115.17399
0.7916202,114.11236
0.7546315,111.03589
0.69275,106.937874
0.749609,110.83239
0.6123263,113.24437
0.5746569,106.879074
0.5006793,110.22268
0.4483602,105.85818
0.5179321,105.07782
0.3951242,104.929115
0.4112186,104.26572
0.37365347,103.223404
0.30833548,102.12858
0.32337558,100.91758
0.29556802,99.65
0.41247007,100.715164
0.281957,97.5087
0.41091886,99.01246
0.26547164,95.00514
0.3338042,92.57258
0.3178827,95.36618
0.28571817,94.09486
0.34084293,92.00236
0.24811484,93.881065
0.2893903,93.449196
0.24053364,95.49953
0.16139074,92.676575
0.14525653,86.71055
0.14626932,90.94477
0.070496015,91.046745
-0.0016574345,91.83391
0.03505909,89.03419
-0.11326253,93.758766
-0.08416013,92.65746
-0.115225315,92.09639
-0.08921725,92.718925
-0.043650612,92.29261
-0.09579609,94.272736
0.035580516,97.97508
0.0012693409,97.982544
0.058172464,102.77049
0.177313,99.06886
0.32493746,102.096695
0.30793834,101.688614
0.4344394,103.77407
0.64555484,109.35733
0.5849437,109.385735
0.5837065,112.118454
0.73093903,116.51077
0.8717879,115.74132
0.8265413,119.95222
1.0048023,121.20079
0.9930178,123.63378
1.0852621,122.34771
1.2145877,123.84651
1.2012454,128.4522
1.3426808,130.3527
1.3096145,130.50734
1.3294631,132.64738
1.3414617,132.38257
1.4333093,134.14061
1.4568176,131.94418
1.287979,136.57611
1.4113059,133.92336
1.414356,138.61221
1.3354325,136.85313
1.465273,133.5181
1.4535915,136.02689
1.408201,140.23515
1.3082917,138.21068
1.3127227,138.03339
1.2632233,139.90369
1.2910364,139.37166
1.2366507,137.84839
1.1056304,137.9853
1.3209893,134.06142
1.1678568,134.67476
1.0975392,136.46507
1.12791,133.93912
1.134109,133.83356
1.0887178,133.86794
0.94965446,129.70177
1.0316986,128.23921
1.0758781,132.39354
0.98016,126.03666
0.98144007,127.68715
0.9701711,126.28511
0.94547117,125.74079
0.9556447,120.78413
0.99967414,121.882515
0.9433859,122.991486
0.8895622,122.13271
0.83797705,116.14754
0.8850095,118.96373
0.916288,117.39454
0.8721645,112.52408
0.8231967,114.26622
0.88661194,115.11448
0.865609,111.57191
0.7576529,109.18216
0.7298819,111.1595
0.6848267,110.61397
0.66482633,106.37811
0.66277903,111.80432
0.5715547,106.63149
0.56016326,105.55764
0.5147222,102.09236
0.4511427,104.701035
0.4276793,102.867676
0.47711465,99.89547
0.5587135,101.985306
0.56665206,97.88301
0.40153122,99.37705
0.46863076,95.91471
0.44826087,96.97436
0.4101513,94.938835
0.4079374,92.73348
0.43393728,95.97384
0.57249904,92.264145
0.4438244,91.91181
0.3261123,92.624146
0.3740147,91.15271
0.43902874,91.48031
0.31089047,89.81972
0.3236922,90.72415
0.30436498,87.601364
0.20450322,90.76611
0.24723329,90.22858
0.1701868,90.0124
0.15729782,90.63437
0.24046788,92.36627
0.22147396,92.495735
0.13187389,95.60134
0.17731789,95.29545
0.064014636,93.22685
0.21646166,97.766365
0.29024547,97.88419
0.21944302,99.53676
0.24819854,102.381195
0.46812743,104.16063
0.5365946,107.11536
0.5936708,105.265816
0.6607203,103.49696
0.6941313,113.027084
0.7872563,112.62658
0.9018398,113.393005
0.936197,113.81523
1.1498075,117.34115
1.2057443,118.87866
1.2319156,121.56506
1.2699758,123.33474
1.3624535,123.27517
1.4995176,128.44072
1.5818634,126.19088
1.5133058,128.17236
1.6401286,130.83086
1.6509811,132.06035
1.6610363,134.79814
1.5424353,137.5011
1.6152428,133.23018
1.6445985,137.08253
1.6556395,139.40782
1.6527785,138.60535
1.6629826,138.48619
1.7147677,137.35596
1.6242071,136.639
1.5906813,136.51123
1.6547792,140.05937
1.5745063,137.66615
1.5367327,139.90273
1.5260526,136.26346
1.5753917,137.72775
1.4621776,135.15918
1.479155,136.15186
1.4691877,137.29494
1.4688109,135.21417
1.4656998,133.54388
1.3369663,131.63231
1.4112527,135.05197
1.3203264,129.80193
1.3720632,126.54405
1.3232704,127.42997
1.3112638,127.0146
1.3125293,125.64129
1.2780397,126.53538
1.3086194,122.42574
1.2644662,126.55204
1.379357,120.27058
1.2021211,119.10638
1.3161908,118.41663
1.3581742,117.47421
1.1094497,117.986435
1.1738153,119.685745
1.1589352,116.51098
1.1950985,113.48529
1.2511882,113.53415
1.0697396,111.340416
1.0385367,113.55561
1.079017,111.136345
0.9762188,110.27239
0.935914,109.05722
0.94057137,106.46774
0.8965222,105.53937
0.822098,106.07912
0.85696214,102.85395
0.7703376,101.85205
0.77387685,102.31874
0.78875333,100.4665
0.7629654,99.33773
0.7800777,100.33206
0.73771477,98.99527
0.7336151,96.7424
0.8224834,97.28158
0.80358666,95.66836
0.7687357,95.994026
0.80879015,93.600365
0.76289135,94.18574
0.7826312,90.906075
0.6908117,91.91754
0.6448242,90.79769
0.7496963,90.48286
0.645369,88.30409
0.605277,91.90147
0.5474967,89.10932
0.4900766,92.717674
0.63338274,91.16725
0.4675014,88.27247
0.39894092,91.560394
0.402724,92.69225
0.37885332,91.272446
0.5731226,97.64937
0.5010615,95.40588
0.5493518,94.84231
0.59907806,99.25888
0.60874695,100.892815
0.6774335,99.08736
0.73367006,103.829
0.6946246,105.04559
0.9040425,99.919945
0.92110443,107.30649
1.070546,109.80956
1.0399168,110.19852
1.2442381,112.94389
1.3273368,111.75769
1.4399687,118.77527
1.5135951,118.26491
1.6147968,123.1569
1.605754,122.2041
1.6857848,124.509155
1.7125117,124.899124
1.7025988,128.56209
1.8055946,127.34546
1.9152035,131.1356
1.9536777,131.08382
1.9072608,131.65439
1.9944609,135.04427
1.9528807,135.3163
1.9180509,135.55206
1.9124739,134.79984
1.9892566,135.25041
1.9293412,139.91574
1.9614918,139.40262
1.944648,137.0031
1.9057814,135.84903
1.9052782,137.21242
1.939089,135.41893
1.9458534,140.50418
1.7799941,134.94925
1.9019566,138.80043
1.7330034,133.14478
1.720739,135.23753
1.7943158,137.89029
1.6438258,137.6441
1.7264832,133.3859
1.5610223,130.3859
1.6345634,131.44226
1.5728179,131.21198
1.5856487,128.23409
1.5753243,128.2472
1.593802,130.05138
1.6018105,127.77069
1.6326687,128.11913
1.5229584,124.11723
1.5098474,122.21616
1.4813157,124.07038
1.5481743,122.826935
1.4226862,119.646385
1.5281188,120.074524
1.4424522,115.2257
1.440835,116.09883
1.3735851,113.63697
1.3127269,117.17214
1.3585473,113.64658
1.3007354,115.625336
1.2536016,113.16091
1.2576977,112.604836
1.0899029,108.25183
1.158617,109.62313
1.0228841,109.19543
1.1226939,107.04326
0.9947323,105.93313
1.1088035,103.92882
0.9422701,104.174126
0.93322074,102.727844
1.0286974,103.288994
0.9667269,97.32873
0.8829285,96.77544
0.9847365,94.53068
0.9066795,96.1947
0.9187245,97.88571
0.92901355,92.64665
0.9814406,91.82666
0.86339825,94.38033
0.92833537,93.36979
0.81338596,90.601204
0.8867367,91.37067
0.7853402,88.01925
0.76682687,89.95428
0.74980575,90.562675
0.67744267,90.78825
0.7034081,89.25087
0.6519188,91.54236
0.6971451,91.80318
0.582189,90.28892
0.5691885,89.43805
0.572872,93.8472
0.42013523,93.68398
0.5460389,90.82188
0.5196331,94.824104
0.51073575,92.390816
0.4975467,95.074165
0.5609887,99.27779
0.57196534,101.26173
0.67596704,101.29488
0.6764564,102.75778
0.9694955,104.57997
0.94122684,105.09525
0.992962,106.287895
1.1702754,109.433014
1.1458668,110.98528
1.2903913,114.45363
1.4379151,115.41334
1.3867027,116.58241
1.505116,117.01782
1.5644586,121.068115
1.6046059,123.35774
1.7087501,126.62786
1.7016968,126.15488
1.7173735,129.39178
1.7665582,127.54582
1.8160172,130.44627
1.7689999,133.99184
1.863753,132.92175
1.8657198,132.31908
1.8112546,133.08704
1.8956424,135.33775
1.7740326,137.36887
1.7652171,137.16127
1.8333633,139.13982
1.9000511,135.8079
1.8328769,138.04025
1.8190062,139.27808
1.9024591,134.2966
1.7051979,135.75546
1.726422,139.86278
1.6941267,140.12038
1.668138,136.55779
1.6632981,134.91855
1.6037865,135.80823
1.5746502,131.5883
1.5090804,133.48848
1.490662,136.09497
1.5071981,132.85788
1.5012002,131.58685
1.4710546,127.96394
1.4225644,128.06952
1.3641868,125.595665
1.4751334,123.31443
1.3809508,125.84038
1.319082,125.303764
1.3279556,123.06355
1.3432796,126.932526
1.3756299,121.785324
1.2948018,122.29022
1.4723548,116.98645
1.3310705,117.43147
1.1974528,116.022415
1.2940851,114.77414
1.1099836,116.12909
1.1945055,113.99143
1.0621392,114.93859
1.0236294,109.25132
1.0633233,109.578354
0.8819506,112.178185
1.0117985,109.40003
0.95998865,106.67268
0.840475,106.08603
0.8044992,105.27057
0.79495066,105.9933
0.7363959,104.479324
0.8472474,101.69524
0.6466777,104.82133
0.66577464,101.30983
0.7211364,97.30463
0.646093,99.82952
0.6862695,98.9009
0.6538591,96.65973
0.6373333,94.322945
0.6044887,95.36978
0.6697454,92.67402
0.64323753,92.868286
0.70610464,93.95888
0.53019226,92.6004
0.5679023,92.26108
0.488734,91.260124
0.5570133,88.713554
0.48193663,92.00286
0.40667647,89.11115
0.39385745,91.36314
0.31977126,90.70987
0.32012308,93.40271
0.29362768,86.845375
0.21623172,92.8267
0.15389952,93.54586
0.23086971,92.722
0.20354167,96.27607
0.2143969,98.52916
0.26741254,98.140205
0.2544879,98.164345
0.3007756,96.868675
0.35832053,101.81598
0.4202892,103.63296
0.46043503,106.61776
0.54187405,105.83679
0.67746794,105.494705
0.743496,107.20337
0.8435696,109.27019
0.8230939,113.66554
0.93145627,114.06592
0.9705387,120.18972
1.1345131,116.089035
1.2149884,120.74471
1.2357024,123.17305
1.2753905,122.93005
1.3521469,123.93968
1.3488431,126.665245
1.3768609,129.6226
1.507813,128.40833
1.5380914,131.66025
1.4926118,129.74368
1.559271,132.92146
1.4898229,133.33003
1.6525431,135.98564
1.5752233,135.07494
1.5418243,136.19554
1.546574,138.37378
1.5442977,138.7804
1.4883147,137.7663
1.5160826,137.63747
1.5062557,140.89627
1.446629,138.33339
1.3887995,137.62758
1.3791573,137.37903
1.3748282,138.47437
1.2970883,137.36801
1.3415037,138.19308
1.3595369,132.75682
1.244313,134.37193
1.2088301,134.52898
1.1718327,132.72365
1.1123039,132.57397
1.01048,131.80032
1.0910883,130.76021
1.094219,130.0229
1.0965381,126.74533
0.9844424,128.58109
0.93230176,124.874985
1.0340728,125.06974
1.0307322,123.16891
0.9588753,123.39843
1.0587229,120.554054
0.9157095,120.62978
0.9973636,116.21523
0.9307354,115.897064
0.92010176,119.58822
0.86405206,116.9813
0.8320306,110.56877
0.84076864,113.42023
0.7356169,111.63462
0.62407225,110.28403
0.7836419,110.21751
0.6261507,108.915764
0.6585714,108.93232
0.58682275,107.559425
0.59701335,107.414154
0.49210605,103.23783
0.49403226,103.48066
0.38669857,104.36681
0.40350375,101.76403
0.35930246,101.03927
0.33004695,99.558395
0.4168577,101.50202
0.43407467,99.30005
0.3916496,94.86414
0.38870814,98.12905
0.277593,94.054436
0.3811919,96.35558
0.38849682,93.87157
0.3522601,93.78819
0.32716784,92.41217
0.30747765,93.43523
0.28588456,90.376976
0.2651363,88.286606
0.088644266,92.04412
0.16792506,92.44531
0.07660786,91.578255
0.13987532,90.078186
0.10418367,88.72313
0.015430077,89.35717
-0.046363372,89.79217
-0.12537111,94.21876
-0.14866324,92.32696
-0.042042896,95.229294
-0.051717974,95.898766
-0.0033196127,92.988396
0.0038627114,96.73908
-0.018956266,97.28226
0.1150143,100.69619
0.23832764,103.842094
0.2638169,105.9604
0.28802818,101.22088
0.27521378,107.17803
0.47528943,108.6662
0.59001464,112.21812
0.70314795,113.53518
0.6714142,115.23271
0.83442897,115.00198
0.9013321,119.22618
0.9560632,120.41618
1.0160794,123.081314
1.1068617,122.15746
1.2350374,123.862175
1.1736983,126.55488
1.1645851,124.21598
1.2402858,128.37146
1.3232548,128.64594
1.2704384,132.93617
1.3549441,131.38365
1.2906204,135.6701
1.3955197,137.12328
1.3226168,139.3681
1.3690436,136.76506
1.3496275,136.58838
1.3671736,139.10146
1.3091327,140.2458
1.3901811,139.10616
1.3443235,137.96799
1.3430696,141.41185
1.2894231,137.39825
1.3379409,137.39603
1.1646008,134.92122
1.2585683,136.16913
1.2729435,134.89914
1.260396,137.54297
1.1508652,131.95084
1.1893739,132.3734
1.0545882,134.12608
1.1023933,133.08192
1.0549995,132.25
0.9996726,130.11592
0.9492958,129.08705
1.0204386,128.57333
0.9812148,124.92787
0.9853856,125.10475
1.0299288,124.227066
1.0104989,122.18509
0.9610038,122.50319
0.91809756,120.77908
0.89859253,120.767845
0.9254269,115.99052
0.8429035,118.35663
0.87401676,118.843925
0.8759819,114.555244
0.82647353,116.701645
0.7875123,116.352684
0.76039,113.89523
0.70592123,112.68002
0.5821469,112.01592
0.61215276,110.58054
0.6495838,106.00121
0.5548566,110.627495
0.6042869,107.037315
0.48775575,103.27757
0.51187944,102.308426
0.5001507,102.42396
0.3260432,102.41687
0.43605608,100.207664
0.3724322,99.628395
0.39824617,99.41358
0.39296785,100.96692
0.42796543,94.375854
0.40919665,97.939644
0.43722335,95.80124
0.41359323,97.998055
0.36450678,93.86047
0.36579752,94.17135
0.39866745,92.66488
0.3808111,90.69189
0.29943687,91.583984
0.32767892,93.639114
0.2504426,89.73078
0.23123907,94.53267
0.22458304,89.88
0.18567802,88.75192
0.19400616,89.76257
0.21377802,89.30423
0.1399831,92.07527
0.07809511,91.67983
0.066445924,92.345665
0.07241703,94.10767
0.011345226,94.970566
0.13520649,95.85499
0.16658016,96.87987
0.16529292,97.08922
0.25355685,98.99418
0.2749869,99.42163
0.37648448,101.76668
0.4112114,103.86572
0.50007325,108.65037
0.6677875,109.39884
0.7075452,108.23714
0.88022524,109.76202
0.81831723,114.02155
0.9861344,114.95826
1.1138988,118.98586
1.0945202,117.97076
1.2595048,118.24979
1.1670218,123.20468
1.3034533,123.79239
1.3734633,124.81253
1.4665456,127.39635
1.4341174,127.986565
1.4518822,129.1069
1.457036,132.60312
1.5783534,134.21254
1.6152828,133.89641
1.5270946,129.79785
1.574649,136.5963
1.6554222,136.7031
1.6467787,136.24185
1.5629853,135.76433
1.6797405,137.35704
1.5962155,138.40645
1.5706971,138.46133
1.5770485,139.91127
1.5304539,140.32687
1.5805684,135.89476
1.4872377,136.28183
1.4261334,134.23216
1.4424553,133.82907
1.4321731,134.61589
1.3446599,136.20436
1.4072844,138.53401
1.3689934,133.55666
1.4658346,131.51767
1.3411523,132.85254
1.325586,128.90143
1.2449944,133.08875
1.2816254,131.37833
1.292149,129.84648
1.1430806,127.13307
1.1634859,126.22328
1.2610251,121.49655
1.1673334,123.55936
1.1834353,122.53589
1.198101,117.13714
1.2000383,120.4468
1.182229,120.07424
1.2073311,118.815575
1.1823516,116.02859
1.2151287,116.316765
1.0834005,116.546524
1.0743905,115.131996
0.9755385,111.9921
0.95531684,112.35628
1.0524421,109.763306
0.9483682,108.54202
0.89904946,109.18118
0.9279271,106.28499
0.86853004,106.66735
0.8741077,104.72949
0.7096661,103.5662
0.7978991,100.00696
0.75242776,104.08276
0.78425384,101.56051
0.79385304,99.45425
0.9053019,94.51324
0.7006574,98.67067
0.77476186,94.013176
0.7420083,95.04784
0.7366248,94.93975
0.7772917,93.73117
0.7521953,91.0825
0.72789586,94.21745
0.6391416,91.88557
0.67012393,88.565186
0.7265773,92.06002
0.55239826,88.62363
0.6255964,91.33181
0.6069064,87.212364
0.55684876,89.111084
0.52455026,94.82346
0.46195716,88.55021
0.52989525,93.93427
0.44283804,91.12112
0.5057367,91.344475
0.47731933,89.52522
0.5262983,91.59326
0.45279822,94.16606
0.46688098,98.607155
0.44880217,95.182
0.5319275,101.00576
0.67044747,97.18506
0.7178481,102.43761
0.7503958,102.33593
0.8839147,104.115875
0.97237647,104.66795
0.9841277,110.53569
1.0498065,108.45543
1.1886188,112.45976
1.2579076,113.10609
1.4494644,117.15615
1.395602,115.358505
1.5807735,120.154945
1.6537118,121.29581
1.5868272,123.72405
1.6711448,126.35122
1.7052754,129.04987
1.7892562,128.04735
1.8241718,128.75279
1.8488183,131.50986
1.9659487,131.37323
1.8607981,133.3777
1.8663816,135.97345
1.9609638,136.55812
1.9664819,135.2838
1.9009814,137.5968
1.9567798,136.68561
1.9403,139.11252
1.8721819,138.4073
1.8767277,137.67911
1.868043,139.26819
1.8934298,138.15216
1.8293744,139.04117
1.8396965,134.95935
1.7694706,135.64282
1.7349669,135.20088
1.7824614,136.5727
1.6985584,133.85307
1.7157817,133.10133
1.5701032,136.30614
1.6186155,131.45732
1.671072,135.31407
1.634448,128.55452
1.5000315,128.57133
1.5281932,127.41018
1.5949544,126.17745
1.5265458,127.45494
1.5342008,126.85649
1.5179615,123.16029
1.4483654,124.24512
1.4581435,121.18303
1.443957,123.58231
1.4289361,121.67592
1.5076389,118.6594
1.4505492,118.3391
1.3564314,118.79524
1.377512,113.427315
1.351869,114.8588
1.3401008,111.95806
1.3112456,111.208244
1.2802404,113.6772
1.1996038,110.00857
1.1923996,105.8597
1.1431706,104.31429
1.1062877,107.206314
1.0415603,106.23601
1.0507925,106.11365
1.0668905,102.55025
1.0206336,102.411064
0.9658138,100.35535
0.8503026,100.193695
1.0512886,100.73457
1.0102707,97.757324
0.935834,99.60808
0.95373875,98.178215
0.9851495,96.271545
1.0006527,92.23205
0.8804891,96.90034
0.9930161,95.07823
0.89942914,91.10998
0.91038686,95.09201
0.8949431,94.42064
0.7940275,88.58379
0.8057904,90.13187
0.7150047,90.62422
0.7350008,91.46972
0.6336901,88.85746
0.6355597,91.89046
0.5521813,90.28841
0.6628493,90.42422
0.49645507,94.30733
0.63634664,92.18582
0.53855425,92.25
0.6011278,93.021706
0.49314353,93.45351
0.5526864,96.01264
0.5687453,97.266
0.6532698,98.35139
0.5923376,99.26415
0.6616769,98.31282
0.8009916,101.98457
0.8849202,104.59576
0.89019376,104.696205
1.0041739,106.51225
1.1554799,110.2052
1.1623887,112.17745
1.276756,114.0141
1.4219657,113.5723
1.442762,116.15891
1.5438209,119.76635
1.4488239,122.97037
1.705865,123.8151
1.788765,122.94717
1.700463,124.67281
1.8045394,130.33403
1.8358747,130.50227
1.925085,130.31961
1.8334985,131.41994
1.906497,135.25684
1.805695,134.58136
1.8618622,131.80069
1.9007562,135.28656
1.8665955,135.67146
1.888161,135.11148
1.9006712,141.44368
1.8939306,135.862
1.877654,137.91646
1.9159007,142.00856
1.7986342,139.69638
1.7485166,136.61885
1.8236493,135.14247
1.7720462,136.67868
1.7748752,138.44678
1.7687465,134.95476
1.6347017,135.5428
1.6655835,132.42659
1.59696,132.65091
1.4843229,132.89798
1.6860554,131.69716
1.5729022,130.93927
1.4145046,130.51793
1.401945,126.98085
1.4499664,129.22412
1.4730748,130.45529
1.419615,122.690056
1.2941744,124.44328
1.3909662,124.32453
1.3378364,122.35392
1.3718246,119.38689
1.3329091,121.73351
1.3550061,121.76422
1.2623997,119.53752
1.2770647,116.73202
1.2932637,118.65401
1.1645977,115.38236
1.203304,117.41551
1.16027,112.44586
1.0431827,111.868416
1.1309719,110.72809
1.0484153,110.93746
0.93307585,108.42471
0.92701405,106.61626
0.93377703,103.581535
0.8418121,104.50067
0.7522999,104.09375
0.76995605,104.08846
0.78573704,102.554054
0.72148114,100.148
0.7791018,102.17088
0.7135095,99.95041
0.7564386,100.557556
0.7744019,96.91183
0.6905937,93.3547
0.68282783,96.910286
0.6724626,94.406006
0.6878854,93.85309
0.73802686,94.97653
0.7113947,93.71135
0.6993072,92.437004
0.62603265,90.37755
0.62889373,91.765045
0.53659815,89.45466
0.51621395,91.05443
0.5140799,89.488
0.4194739,88.57403
0.34025136,88.40509
0.3535784,92.42506
0.24943021,88.63271
0.33496857,90.68966
0.33227167,93.48145
0.28573853,88.951
0.24394225,93.68886
0.26742324,94.134445
0.18733297,96.64522
0.290852,100.16924
0.28341603,95.84492
0.48340112,98.59197
0.47371978,101.08644
0.58438313,103.34199
0.64548486,105.25285
0.7150872,110.11468
0.7942145,108.18338
0.87544596,109.15105
0.8897701,114.73409
1.0097358,113.42521
1.0989633,119.47522
1.1583176,118.47418
1.2759621,122.08993
1.374215,120.94986
1.4334534,126.15949
1.387821,128.05713
1.4813422,126.92834
1.4522926,129.9176
1.5080854,131.9059
1.5836929,133.2355
1.5090652,134.01958
1.5439839,134.00195
1.4488584,136.85248
1.6392484,136.86317
1.5418952,136.8924
1.5355626,138.74863
1.553686,139.81328
1.5493935,140.62352
1.6224219,137.58984
1.5517247,141.75362
1.5544877,135.04749
1.4551295,136.93056
1.3263372,137.17099
1.4372536,137.1922
1.3911395,136.11691
1.3931249,136.49025
1.2602592,136.18306
1.2860451,136.07439
1.3064985,133.5345
1.2571564,132.39938
1.2164292,134.36462
1.0860252,131.22655
1.1429379,130.65549
1.1485064,127.78508
1.1107937,129.0596
1.0463388,127.54478
1.0858481,126.58629
1.0489371,125.90061
1.073289,124.77445
0.9794632,123.10287
1.0103704,121.45186
0.9506892,121.553856
0.90999424,122.88878
1.035424,118.00603
0.9929873,120.22274
0.9243336,112.56374
0.921769,115.44244
0.781289,113.615005
0.84880483,113.95916
0.83850956,110.83748
0.75644714,109.62241
0.6104883,107.936264
0.7281407,107.29605
0.63665897,109.76541
0.5559599,106.64737
0.53597146,108.4499
0.4290027,106.084915
0.5223253,103.8729
0.38765475,103.54676
0.47483084,102.96542
0.38337532,99.39059
0.33770907,98.90739
0.32987267,100.86152
0.44689387,99.402916
0.40709224,96.257515
0.37695643,93.8152
0.40722993,92.10118
0.43917024,92.81902
0.33878765,94.23879
0.3543008,93.16569
0.32281095,91.2015
0.2900698,89.709816
0.36161706,91.191376
0.24071075,91.68511
0.31113884,91.6059
0.1652172,92.69316
0.12923591,89.02681
0.09614249,90.49602
-0.03891072,91.290405
0.046598226,92.77149
0.07085443,91.80169
0.013344501,91.39972
-0.08159972,91.500854
0.012674451,91.91341
0.017350597,93.55715
0.027275566,94.25626
0.041620195,99.255516
0.020729184,98.0485
0.16152132,100.176994
0.23210093,104.91397
0.28675827,101.72136
0.28117275,104.33412
0.40497875,105.12848
0.39144912,106.99162
0.56010246,107.804726
0.66928226,111.63172
0.77471447,115.98963
0.85774636,114.52257
0.96386063,116.241936
0.8990818,121.788185
1.0367501,123.2886
1.1218748,125.88336
1.2034179,127.04817
1.2587265,124.666
1.2581257,129.24739
1.3330466,129.80081
1.2806224,132.10132
1.262464,132.5225
1.3171657,133.73543
1.3959967,136.5485
1.2871253,133.9247
1.3706646,135.64911
1.4349904,137.94115
1.3393356,137.68877
1.3360448,137.24904
1.3702085,136.42561
1.2828681,138.31073
1.28649,140.32191
1.3311497,139.91782
1.2653617,137.9141
1.2320389,135.5628
1.2856544,136.2381
1.218828,136.64377
1.2848046,136.6134
1.1486868,130.83847
1.2209853,131.34848
1.0630349,132.75136
1.0807787,132.61578
1.0180813,131.60806
1.1322699,128.33911
1.0406301,129.50105
1.0839851,128.16562
0.9143516,125.15048
0.91625845,122.32742
1.0243268,127.258545
0.9802871,124.284615
1.0165929,124.23915
0.9089938,121.98177
0.90424144,123.196434
0.8313563,119.17906
0.9022532,118.02819
0.88554096,119.2609
0.74893177,119.21236
0.896832,115.27638
0.77097267,115.87863
0.737807,112.54848
0.8047536,113.80498
0.7230981,113.604195
0.70082784,109.072556
0.7010966,112.30515
0.4863105,106.74557
0.55337507,107.48523
0.48715624,106.90291
0.51958543,103.881676
0.45090562,108.8267
0.36671048,106.44082
0.49693012,101.800026
0.400119,100.12584
0.35574698,98.16979
0.31489345,96.510056
0.4304925,99.83802
0.4009487,97.005936
0.30887824,95.02876
0.35826778,96.979095
0.35603195,95.64374
0.36623308,94.14197
0.39838895,91.31738
0.4398265,92.939354
0.33520937,93.05904
0.27252412,88.85694
0.44412935,89.468544
0.25989154,90.185326
0.1696568,88.79723
0.11997408,90.79776
0.07944653,89.43674
0.12890738,86.443344
0.094861895,89.77516
0.07536197,90.44458
0.035543583,92.088684
0.019974725,92.13761
0.08101008,93.429436
-0.029448826,94.83776
0.015919859,95.808624
0.03554495,97.54417
0.13504416,95.67086
0.1022513,101.88894
0.2794174,100.49499
0.35442686,104.3849
0.45586368,103.50748
0.5096616,106.96275
0.5611747,107.72811
0.56133395,109.27371
0.793723,111.46029
0.92813164,111.49523
0.8756476,115.32375
0.9866431,118.59864
1.0896331,119.304665
1.1481048,118.01677
1.1385198,121.70105
1.195532,120.42524
1.4678806,126.12895
1.4315304,125.90473
1.3735514,129.64458
1.450735,132.17093
1.4730879,129.64417
1.492096,133.86908
1.4545989,133.83476
1.4955044,138.47902
1.5503397,137.22112
1.5825607,137.53728
1.5213217,139.69707
1.4852419,139.82016
1.5800714,137.28575
1.5553967,141.5453
1.5754085,139.77577
1.5349429,136.31697
1.5741358,133.53427
1.4890271,137.10841
1.4885644,140.77353
1.4172732,135.39091
1.5707779,135.3159
1.3071533,132.2984
1.365614,133.7968
1.2492483,132.49452
1.2888848,133.80795
1.2640103,134.42099
1.2652235,133.38474
1.2469882,128.48311
1.3035518,130.3129
1.2030392,129.87343
1.200354,127.87948
1.1708289,127.45448
1.1810489,122.61288
1.2411088,125.95213
1.1424276,122.66462
1.132446,120.58177
1.1363919,116.52989
1.152746,121.879135
1.1506724,120.12749
1.14076,117.88182
1.0544959,113.344284
1.0366346,117.224464
1.1478361,112.57024
1.0316646,114.79196
1.0301281,112.96571
0.96047455,110.4673
0.9184559,109.95148
0.9593649,107.943665
0.9606493,106.14342
0.83627754,109.40882
0.7469885,105.626434
0.78837484,105.50249
0.7686913,105.671196
0.7700346,102.01501
0.7085822,102.20403
0.7125966,101.77215
0.67127126,101.62022
0.65974116,97.521515
0.7341174,96.595665
0.78184277,96.32624
0.691178,97.7266
0.7018286,95.21646
0.72973585,93.77068
0.76701516,94.034584
0.5948087,92.213196
0.7254113,90.42585
0.648818,88.23988
0.6890905,88.59094
0.5634817,89.0248
0.7090976,90.6479
0.55803937,88.73203
0.46733838,90.17721
0.43280363,89.2117
0.41213265,92.47748
0.3828135,91.5652
0.374833,92.75137
0.46844015,95.22942
0.35509413,91.12405
0.5341842,93.61059
0.37803465,96.80547
0.40310436,95.8924
0.46376935,94.91116
0.49909532,99.16839
0.6298338,101.22905
0.64417094,102.42509
0.6452302,104.356964
0.7633387,102.944275
0.90415823,106.483406
0.9606,107.327126
1.1321784,114.057
1.1359049,112.88385
1.2622207,114.910065
1.3294959,116.041725
1.3448651,115.80902
1.5356823,122.925255
1.4581237,121.91027
1.5782491,124.75587
1.5788196,127.22269
1.7213584,127.55943
1.8031044,127.60122
1.8493416,128.98315
1.8369526,133.23146
1.8920014,135.09837
1.7802409,135.89673
1.8778994,134.50404
1.9389722,136.75026
1.9313657,135.6961
1.8294176,135.33044
1.8297089,139.18523
1.9344025,135.45302
1.9317857,139.56857
1.8099419,139.43349
1.8621829,137.31668
1.735539,137.5102
1.886773,136.31804
1.8173153,137.3171
1.7116455,137.62405
1.7826688,138.20224
1.7114887,135.20332
1.6603476,133.15501
1.6902457,135.17616
1.5751002,134.2154
1.6351342,133.58403
1.6022432,131.3393
1.5173398,128.1438
1.4891542,130.82085
1.549195,126.96072
1.5393318,128.6965
1.6321976,128.11115
1.4786513,122.86863
1.4649907,121.613625
1.4677198,125.157814
1.4698588,121.643616
1.417405,119.56258
1.5170283,121.00732
1.4978086,121.06741
1.3707235,114.535645
1.4586213,117.140724
1.4024295,115.11669
1.3555129,117.43844
1.3226811,114.6997
1.3189898,113.27579
1.2783693,112.45483
1.190933,111.49905
1.2151536,108.73472
1.1110612,110.75531
1.1572455,108.824875
1.0396862,105.47614
0.99040604,105.84971
1.0156702,101.06253
0.8659228,103.55301
1.0472438,102.91854
0.9586675,100.69478
0.94013447,98.36915
0.966087,97.35649
0.9509758,98.92205
1.0311809,98.65802
0.8551898,94.9775
0.9486505,95.53635
0.90028214,93.32063
0.88565534,94.42789
0.91657114,92.1859
0.8923377,92.62082
0.78327996,94.82728
0.89743346,89.71327
0.8331057,88.145996
0.82582223,92.055466
0.7788946,89.52826
0.63539827,90.650795
0.602039,89.9297
0.7173455,90.53114
0.5556077,92.61439
0.52051806,93.627266
0.6000169,90.74694
0.5198061,92.88211
0.49917087,94.917725
0.5131034,94.82528
0.58386666,95.77372
0.57934785,98.37509
0.63518476,101.5078
0.65925527,99.014465
0.8156707,101.257866
0.79143786,102.53612
0.8986469,108.284225
1.0036559,103.71338
0.96862024,109.68753
1.1256545,108.764244
1.2106156,111.84368
1.306607,114.88831
1.3605909,118.34467
1.3816017,117.64589
1.6718303,116.42674
1.5562725,122.34332
1.738016,124.30196
1.6293125,124.347534
1.7395366,125.41154
1.7366632,128.86063
1.8431935,130.64987
1.919982,131.10994
1.9714838,131.5002
1.8986353,136.5186
1.9163705,135.36293
1.9272128,136.80443
1.8972427,134.49542
1.9076474,136.69034
1.8864123,135.42668
1.8471441,137.4252
1.9617919,138.75795
1.9231774,140.61263
1.8555591,138.61693
1.8337939,139.15439
1.8210307,137.61037
1.770136,134.35735
1.8866521,137.10292
1.802237,137.4171
1.7063193,135.19106
1.7501378,137.44052
1.6883341,137.55446
1.6236737,133.774
1.6152753,133.50172
1.6449383,130.99445
1.67283,128.02203
1.4630493,130.64842
1.5249609,129.65509
1.4212463,129.59828
1.4887364,126.871765
1.436798,124.27393
1.4071021,123.951294
1.4215529,124.80785
1.3877313,124.19835
1.3594892,123.430504
1.4397877,119.31585
1.3859721,119.63193
1.3685858,121.62864
1.291186,115.84903
1.3277959,114.79023
1.216204,116.063126
1.2805085,115.23127
1.2363763,113.13226
1.2050928,112.89061
1.1392056,111.95975
1.0386885,110.00907
0.96295226,108.97682
0.95321643,108.93282
0.97988826,110.62979
0.95173186,105.87109
0.8156791,105.02749
0.86030525,104.07241
0.8302787,101.17376
0.80733764,102.243774
0.78399783,99.930336
0.7941458,101.31507
0.8093687,99.14829
0.78443384,95.90324
0.70883006,97.41678
0.66670346,95.75585
0.6855149,96.21724
0.76007473,93.90784
0.71444756,93.839485
0.67053074,92.51658
0.64739263,94.187416
0.6435469,92.977455
0.6756828,90.818504
0.6349687,93.63347
0.57336634,88.0527
0.5220853,88.85967
0.4623236,85.2367
0.38085327,91.940346
0.42684785,94.76527
0.37346694,91.5366
0.33586425,86.71009
0.30791208,89.6118
0.33759603,94.34147
0.38210273,92.78871
0.23887888,96.020874
0.3565383,95.49721
0.36935923,93.3375
0.41332474,98.57855
0.49316195,101.212715
0.5819791,101.701584
0.6511044,104.47682
0.6507,105.49031
0.8235858,108.6995
0.7954295,110.92219
0.8976854,114.51438
1.0729067,113.34884
1.1452053,113.447655
1.1084266,116.914734
1.1856691,118.318436
1.3164617,119.15804
1.4217491,121.988045
1.3185854,123.53994
1.442645,124.39701
1.5073967,129.43759
1.5777042,128.18059
1.5708623,129.42358
1.6712842,132.81317
1.6918072,133.88547
1.6063659,136.08528
1.6887226,137.12581
1.4952656,134.71992
1.6846465,134.67072
1.5898026,139.25206
1.5972677,139.78403
1.6255774,140.0105
1.544198,138.35832
1.5998634,136.31458
1.553685,138.80725
1.4850737,136.32089
1.50517,137.72745
1.3774973,137.55283
1.374726,138.7673
1.2441221,134.3319
1.3539463,133.1828
1.370632,133.06836
1.3438286,135.73195
1.1941915,135.04231
1.3068223,132.51529
1.2340194,132.0839
1.2123713,131.96179
1.179677,129.43443
1.0873528,129.14809
1.0956681,126.316734
1.0731838,127.48834
1.0436393,126.92614
1.1126918,122.94788
1.0641223,121.533104
1.0526028,123.910545
1.0578903,121.35405
0.95939237,118.14814
1.0141125,118.03993
1.0016143,116.119286
0.92294014,117.904175
0.9639277,112.97349
0.8862101,114.72519
0.81398743,113.160545
0.86191857,114.5911
0.77826214,112.68101
0.7321143,112.10801
0.7154755,108.22313
0.7338619,109.700775
0.5744091,109.05567
0.58745044,109.43233
0.5521163,104.68464
0.5182904,107.10069
0.46384773,102.05758
0.48385364,105.01921
0.45876667,99.109886
0.41542646,98.87997
0.40695727,98.438614
0.42407227,98.3504
0.45360002,95.99218
0.39365798,96.54154
0.42084673,91.09894
0.43368396,95.02764
0.4719297,97.08063
0.48923054,94.72149
0.38989633,93.652054
0.3387684,91.60124
0.28359562,90.46032
0.2443355,93.36182
0.28332496,89.633156
0.21665716,88.13283
0.18080072,91.04256
0.13615622,93.62486
0.1835237,93.67959
-0.0105705885,92.04488
0.07410189,88.9123
0.053077154,89.43363
0.02876365,95.77996
0.05303873,92.889885
-0.048379295,93.49902
0.08749232,97.33874
0.051774718,95.99437
0.1829232,101.27221
0.11321195,102.55868
0.19412339,98.45386
0.25629887,103.72405
0.33635455,104.20565
0.42434442,107.205765
0.6087276,108.35786
0.62487674,113.80441
0.590951,111.45542
0.7564275,113.76117
0.7690525,113.79254
0.9388448,117.64579
0.99899787,119.15026
1.0476309,120.6908
1.2014868,124.185135
1.1108586,124.37727
1.2500339,127.52747
1.2304589,132.07599
1.300965,128.96262
1.3307599,130.99065
1.4064647,134.61835
1.275367,134.10938
1.3885772,137.08214
1.3380574,135.80562
1.4028257,135.76097
1.3745786,138.74596
1.3462044,136.24757
1.4463367,136.70605
1.4402711,136.27953
1.3948513,138.88475
1.2906674,138.09814
1.3013693,139.4499
1.252904,139.40286
1.2755612,140.3598
1.2852724,137.38297
1.219593,141.12231
1.149555,135.2435
1.0715249,135.24336
1.1413674,134.0041
1.1188445,134.90453
1.0559436,133.74422
1.0034384,131.94737
0.963141,132.05661
1.0120208,131.44203
0.9219356,129.9308
0.91675895,128.05542
0.90237355,127.25594
0.96676636,125.319786
0.89821345,127.43418
0.912176,122.949135
0.9095024,120.91302
0.96201223,121.32209
0.81997895,120.78401
0.8469459,117.19113
0.86870843,115.92575
0.9050302,117.9993
0.79764974,116.00156
0.7854298,114.33309
0.6846885,115.49766
0.67926466,110.6069
0.70618236,112.25735
0.6304383,112.23773
0.6948456,112.025116
0.5127129,109.15605
0.47892702,104.05848
0.40964064,105.22335
0.3549095,105.40272
0.45336252,105.34509
0.37727576,104.82702
0.3870423,104.2456
0.33662325,98.483536
0.31722042,98.34104
0.36963415,100.141945
0.4248293,97.02831
0.38791993,97.41006
0.51396644,95.77742
0.3589715,97.49692
0.31995142,93.13631
0.33294424,94.066605
0.333795,92.096016
0.34879923,93.6939
0.38524494,91.09907
0.3092221,91.54803
0.21393293,90.88178
0.31734622,89.38886
0.20048912,88.45952
0.115012646,88.68529
0.08934701,92.11116
0.052152384,89.01915
-0.01614722,93.51091
-0.015901627,93.447365
-0.09098413,91.39229
-0.00080405973,91.46452
-0.03035531,91.977005
0.035685882,94.152374
0.04800454,92.46538
0.026829176,96.12539
0.07276944,95.09705
0.14739133,99.24619
0.1408365,103.77133
0.22231896,104.9074
0.3780673,103.82452
0.48392487,104.678276
0.3862942,107.486534
0.6406072,108.87865
0.7227529,111.72249
0.78630733,112.79883
0.86542785,114.16052
0.9598145,119.11674
1.0680499,118.2638
1.0685143,121.16962
1.1899666,125.75346
1.2185128,124.65828
1.2497567,125.21033
1.3133371,124.10995
1.4247553,131.2278
1.4359173,133.75903
1.4034073,131.04317
1.465167,132.17845
1.4517128,135.26358
1.494284,136.54347
1.5004232,135.62248
1.5229479,139.26686
1.5547537,137.37083
1.4493073,136.74976
1.5338525,138.66074
1.5505357,138.85464
1.5531001,138.0609
1.4527255,140.25905
1.4930727,140.2228
1.4383951,134.93076
1.4362146,138.62512
1.3277484,134.5339
1.4007545,135.63835
1.3620882,136.21611
1.3662018,132.24576
1.2238456,135.29448
1.2430434,133.63171
1.2576027,132.79938
1.2482305,130.19682
1.2171023,130.41685
1.3102566,130.00317
1.2182021,130.52925
1.131119,126.80681
1.1310798,124.893326
1.1155285,124.01043
1.0747298,126.43929
1.1498357,123.38832
1.0920438,124.30262
1.0380126,119.593506
1.1417807,121.01538
1.0589856,118.60288
1.0582695,113.8192
1.0498928,115.61244
1.0367383,115.53557
1.0125144,113.208664
0.94609976,112.73388
0.91669583,114.23987
1.0107547,110.42876
1.007791,110.92863
0.881398,112.002075
0.8375235,108.34697
0.7427732,107.96252
0.74200535,107.4829
0.7316338,104.09047
