ppg,abp
0.938581,88.754745
1.1304132,95.95424
1.208528,95.48884
1.3082551,99.57011
1.3884374,99.00799
1.3196906,99.83235
1.4385692,100.42722
1.5371616,102.36392
1.6444165,107.616
1.5701648,103.93325
1.5975144,108.238945
1.6335711,110.68343
1.7223994,111.69119
1.6599538,106.90245
1.7319868,112.984825
1.685065,113.02964
1.7968184,110.415436
1.7241768,110.03016
1.7345685,116.52932
1.7390956,114.68866
1.6342162,115.78029
1.8140084,112.87588
1.8000904,116.86085
1.7521522,114.44448
1.6516718,117.38761
1.735644,117.42961
1.7385901,113.89988
1.6435461,118.1184
1.7049648,114.39793
1.6213983,114.12052
1.7514161,113.99387
1.5899359,109.66561
1.6580888,108.180374
1.5982314,110.29935
1.5309232,113.82202
1.5045544,107.91019
1.509047,113.068474
1.5338187,106.94324
1.45985,108.27328
1.4932878,107.90575
1.4926646,109.78876
1.3668808,110.919876
1.3592645,106.25994
1.4337205,104.19842
1.3852758,104.70923
1.4172152,103.44204
1.317534,104.80074
1.4135971,102.14798
1.4420655,99.64877
1.418825,100.833534
1.3515482,102.9961
1.3172926,97.31098
1.32174,96.2214
1.4164225,98.43347
1.3786259,95.80711
1.2077932,99.473915
1.2909235,97.01108
1.317906,97.30614
1.2863356,92.2631
1.2684042,94.75366
1.1529868,90.149704
1.2044622,88.20029
1.0908504,88.817444
1.1775342,86.23402
1.1640786,90.58517
1.1605023,90.16784
1.1663042,88.23979
1.0928559,83.01785
0.91266954,84.02283
0.9429635,80.21931
1.0469148,85.527214
0.960307,86.602165
0.86945176,82.16251
0.84257364,81.10508
0.8367585,82.47404
0.88861036,74.07417
0.81336045,78.14902
0.8866165,80.62654
0.87208354,76.62319
1.0065598,76.04845
0.8885664,74.534775
0.7859564,70.34424
0.8664801,70.29306
0.8972163,68.80639
0.924042,71.057724
0.88160366,71.61752
0.7720237,71.52171
0.7591686,68.825554
0.8490828,71.526184
0.72402924,71.815216
0.80942035,70.25293
0.63436097,70.89221
0.70880204,69.12987
0.75196487,67.76921
0.6661615,70.09397
0.64162004,69.02516
0.62332666,65.50789
0.5490092,71.411606
0.48390076,69.67255
0.50818646,68.14568
0.56228507,69.95456
0.51984924,76.90135
0.5627102,71.606415
0.50965977,73.21407
0.5698581,74.284904
0.5255959,77.376114
0.6835536,75.584076
0.64534473,79.29181
0.7197936,78.61007
0.79133123,84.47815
0.84898466,80.89832
0.84390587,83.84274
0.9452292,81.87295
1.0514712,84.891304
1.1813848,90.104576
1.1026485,89.78436
1.2158372,91.06305
1.2974288,94.85516
1.4286076,95.83977
1.543652,99.1697
1.5243567,96.49211
1.5895286,97.658615
1.634347,100.85295
1.6957725,101.21331
1.807544,99.853355
1.6412514,103.17224
1.8659964,109.11691
1.8415362,103.17212
1.8607528,107.47673
1.8208809,107.48633
2.0172722,108.54203
1.9954914,109.78533
1.8920528,110.4503
2.0019162,112.71385
2.1076202,115.99357
1.9842615,114.86121
1.9393342,115.36277
1.9772909,112.445625
1.9976283,112.05396
1.9386479,116.62308
1.9868073,114.68315
1.9087361,114.11639
1.9069718,117.24439
1.9338155,119.03366
1.8142804,115.49781
1.7841238,112.25345
1.7915103,110.92084
1.7964662,115.319
1.7297424,111.39786
1.7450867,114.29925
1.7917663,117.15179
1.8017833,111.55293
1.6935711,110.340195
1.7120364,113.938385
1.7120194,107.98186
1.6558543,108.7913
1.624029,110.152405
1.6285352,109.7923
1.5310915,105.86065
1.4825579,106.13946
1.5572348,109.44175
1.5199854,102.71171
1.5412388,105.18478
1.5077817,105.7485
1.4833846,103.71668
1.4920368,97.324615
1.4774611,100.08698
1.439589,96.50435
1.3484974,94.83042
1.4946133,97.4553
1.4128596,99.174675
1.4497235,97.24202
1.4273915,98.70285
1.3062867,90.900444
1.4356186,93.78179
1.2985694,94.4604
1.2739445,92.00265
1.2638236,91.419205
1.196841,88.008644
1.2815217,87.19401
1.1519392,86.74268
1.2354442,88.13174
1.0842451,88.93117
1.0808684,89.037796
1.0567642,87.17037
0.9968978,84.35435
0.9309293,84.98442
0.9041168,79.184906
0.93498343,85.394295
0.95855796,80.84164
0.8080881,81.67557
0.9142259,86.085106
0.94036686,75.00342
0.82480866,77.25593
0.812265,77.496765
0.95651215,73.50917
0.64219034,78.835335
0.81499106,70.437
0.7397196,74.204124
0.81511164,76.03806
0.85441405,71.71407
0.7614363,71.08171
0.7560764,73.38807
0.7664249,69.71465
0.6957256,70.23985
0.6661281,72.102005
0.7214813,69.683136
0.69671506,73.334816
0.5647347,71.33526
0.52566475,72.24799
0.56078607,70.3614
0.49133295,72.72037
0.386928,70.74202
0.42574662,72.747406
0.3877982,69.05055
0.33664766,71.73267
0.32834914,74.94989
0.41020605,71.81257
0.45732903,71.111046
0.26862162,69.75745
0.31653377,70.553665
0.4243753,77.11854
0.39501718,76.525986
0.42971164,75.752785
0.5327745,79.82375
0.56047493,82.61876
0.56184804,82.51924
0.58334696,80.29463
0.731304,81.84685
0.74155325,85.299866
0.78347623,84.9105
0.9414712,90.66995
0.8975621,92.04367
0.90785265,89.96073
1.0133274,94.06103
1.1742716,91.98086
1.2515345,99.148705
1.2967196,94.88568
1.2736517,97.10942
1.378544,101.87638
1.4794205,103.94177
1.3965056,103.98976
1.5554976,104.11064
1.5876111,103.3066
1.5756767,106.23517
1.627647,106.76308
1.5933702,108.63134
1.7015495,110.157104
1.6734098,108.95671
1.6166148,113.24429
1.6598121,108.87283
1.645223,109.52462
1.5346441,115.48463
1.6272523,111.98409
1.762784,113.140434
1.5829364,116.44014
1.7235006,114.81537
1.5304956,118.28658
1.5818051,119.081635
1.5925843,118.157745
1.5855259,114.65839
1.5360674,117.38981
1.586169,114.04769
1.504726,116.26852
1.5334179,115.56732
1.5660759,115.831436
1.3824652,114.33283
1.3910468,112.3788
1.3524894,109.93294
1.2962862,111.40205
1.368309,111.24512
1.1961943,111.2572
1.276562,106.019844
1.2452621,107.66019
1.085179,107.86293
1.1053586,106.25198
1.1431216,107.37964
1.1145709,103.22786
1.2031995,108.32135
1.1743257,103.29636
1.1204998,104.932846
1.0555305,101.60357
1.0600569,103.156296
1.1733167,103.57925
1.0762956,103.10057
1.0149118,97.06015
1.042662,98.89402
1.0971955,100.87477
0.99969244,96.292076
1.0277435,98.17608
0.98880905,95.18533
0.91921705,89.80256
0.9010836,92.28427
0.80699533,94.91548
0.93997145,89.59172
0.73924553,91.710365
0.8118685,90.26763
0.7985034,87.067535
0.7294856,94.14955
0.6789107,83.93936
0.5209927,87.95592
0.64445186,84.08444
0.56090367,83.95068
0.4759322,85.03728
0.56286204,83.10459
0.49999177,83.59698
0.50039446,85.07307
0.41020325,80.19532
0.417808,77.4904
0.5004294,79.576645
0.40201402,77.3159
0.4125734,80.10951
0.4644465,75.89622
0.51807874,77.85232
0.46077982,75.14103
0.39833078,73.882286
0.45896894,75.27476
0.4455772,73.02183
0.34480155,70.133255
0.38749695,73.32437
0.37749934,68.856735
0.21165234,70.81486
0.36553708,71.886055
0.3346487,72.39486
0.30492574,69.98263
0.23800053,71.3106
0.24169724,68.7734
0.2320569,69.38928
0.10050026,71.71443
0.16213782,72.30877
-0.005029053,70.84087
0.037765834,74.377945
-0.004950785,67.988495
0.0042785937,71.338776
0.06620588,71.11676
0.0052772583,70.82994
-0.0008141518,72.32172
0.015333315,73.68319
-0.020952262,73.954254
0.014016688,75.99611
-0.026589755,76.00247
0.11352189,76.62289
0.09337051,81.96767
0.17476495,82.185844
0.26659828,81.932175
0.38568616,79.80174
0.30668512,83.81281
0.4102199,81.48176
0.5789731,87.365654
0.5779942,89.08889
0.60254425,92.023636
0.7302935,90.038086
0.7959153,93.295685
0.84772646,92.273
0.9471887,97.70679
0.9541088,98.60209
1.0772313,103.18421
1.0226241,102.62986
1.0534732,103.418564
1.1906499,102.52231
1.2264245,104.990585
1.2217604,106.480965
1.1969823,107.31578
1.3418025,109.83549
1.3727449,114.247574
1.3660336,109.9424
1.3672258,112.62497
1.3923447,110.790565
1.3213011,111.70481
1.3588603,113.28739
1.2346747,115.39396
1.2843229,116.08815
1.358034,115.72865
1.44545,113.99155
1.3179737,116.83872
1.4278342,118.35606
1.3528526,112.23503
1.290288,117.70836
1.3865643,113.06702
1.3013805,113.55402
1.340858,115.25359
1.1619141,112.76201
1.2180707,113.22571
1.2447592,114.152275
1.2269129,112.99431
1.0885475,110.219406
1.102052,111.78173
1.2021126,110.871185
0.94131166,113.078354
1.0047667,110.75256
0.92064774,106.49395
1.0767747,107.40129
1.0628448,107.68598
0.9248623,109.29353
0.96257925,104.651535
1.0239818,106.034195
0.96995884,107.42494
0.96706676,102.230705
0.95898265,104.847115
0.9662063,103.557465
0.88212955,103.033585
0.9036198,97.48372
0.9491439,100.2435
0.9563985,98.68144
0.8615183,99.61006
0.9186335,92.71294
0.9431718,95.539665
0.90150803,95.212006
0.8572435,95.14241
0.74529,95.84275
0.77791655,94.278755
0.8007121,91.12978
0.7099899,93.15449
0.65971076,91.02818
0.7216984,86.01377
0.6617606,90.807945
0.5513751,84.862885
0.5745204,86.72577
0.59237546,86.629486
0.4882829,83.62814
0.47645512,85.50446
0.4318106,81.70972
0.45910332,81.57957
0.42424667,81.070694
0.47083443,83.20352
0.37829906,81.38077
0.42288712,76.128105
0.37966457,79.9784
0.40512532,78.67456
0.39080048,79.42286
0.46920636,74.139885
0.45905355,73.20892
0.35452121,73.449936
0.36185375,77.472115
0.41933408,70.37856
0.42539027,74.67597
0.33713374,69.55667
0.44128788,71.65142
0.4478058,71.82871
0.28182617,69.43523
0.38711584,71.21901
0.31574708,69.63078
0.20822802,70.304726
0.27646753,70.617096
0.26717985,71.17578
0.20541567,67.864136
0.28038552,71.65016
0.17511922,72.65761
0.16401692,72.22801
0.08403108,70.717804
0.017618256,69.78288
0.036915906,70.69317
0.05345829,71.20268
0.044875644,69.980705
0.15360977,71.44168
0.05838347,71.291756
0.2082466,78.18502
0.22410925,74.828255
0.20209838,77.05821
0.24728389,77.51436
0.3060697,81.045586
0.31273997,82.68844
0.45297664,82.82606
0.5704758,84.45792
0.5871086,85.536446
0.64517426,86.18475
0.6794342,85.40397
0.8893306,89.228935
0.8682189,91.27773
0.9469783,96.46396
0.9779462,95.030556
1.1144613,95.508224
1.1023624,94.252
1.119778,97.19243
1.234529,101.71454
1.3966818,99.34223
1.333501,106.70041
1.4222507,106.0487
1.3680841,102.306885
1.4705886,108.02031
1.4736288,107.94016
1.5124133,110.93853
1.4875343,110.93489
1.6232202,115.75545
1.5317246,109.684525
1.7409699,111.00991
1.5301267,112.28719
1.6328443,113.7033
1.6401528,114.0366
1.5930954,114.38984
1.6682671,112.750595
1.6602687,112.97581
1.6689464,118.52642
1.491748,115.45431
1.5760219,115.30167
1.6937308,113.71077
1.5650486,115.94537
1.5494766,116.21666
1.4819561,116.371284
1.5425732,114.24489
1.5280272,113.59949
1.5081819,112.11088
1.4221,116.23462
1.3794583,114.14264
1.4368881,113.49885
1.3705678,113.087814
1.4020166,108.993774
1.4120251,108.76043
1.3862548,110.86602
1.3062208,109.94878
1.3236965,105.977516
1.3318179,108.26359
1.2323846,105.075356
1.3627882,106.69067
1.3168871,107.55935
1.3060786,105.79341
1.2940158,102.8422
1.206948,101.838745
1.2221268,100.00983
1.2059159,99.750305
1.3521158,98.93341
1.2781599,100.36711
1.2409422,96.62448
1.1684774,97.949646
1.2160208,99.73804
1.3021437,95.40909
1.2212569,94.499695
1.1802146,92.23104
1.1960819,90.96914
1.1073287,89.31343
1.0516229,90.88348
1.064427,89.55449
1.117732,90.617325
0.9360983,91.72334
1.0305289,87.4752
0.98767513,84.563034
0.8877199,85.95235
0.8770345,82.34634
0.8105075,84.57528
0.7923695,85.42646
0.9668977,78.9492
0.814005,77.622894
0.77269554,86.03176
0.78008455,81.18915
0.67132825,77.635315
0.75212824,75.50265
0.81042916,76.742546
0.8156123,72.29108
0.8043493,73.52046
0.8100427,76.972725
0.7808022,74.20804
0.8533507,72.89146
0.8356939,73.72141
0.87636024,74.01834
0.80276203,76.77499
0.7469562,69.95772
0.73212993,67.38164
0.7806474,69.88539
0.7129546,68.840034
0.7520383,69.08997
0.65244454,69.46931
0.57899195,70.789665
0.59719723,71.554085
0.56965595,68.42277
0.5878731,68.601555
0.4184894,71.93278
0.5605231,68.6818
0.4744356,70.27307
0.42718259,71.70154
0.44698608,73.19372
0.4904174,72.555954
0.5625355,76.28172
0.52650785,73.325066
0.49188152,76.15611
0.6033573,75.321724
0.652972,78.83384
0.578673,78.218956
0.6811052,80.14399
0.77125984,78.29393
0.8338367,82.99241
0.9024964,82.56309
0.9168011,83.88091
0.9640571,85.340164
1.0786744,88.2781
1.2109356,86.35954
1.2799762,92.13198
1.3376987,94.708336
1.4285923,90.02597
1.4852762,94.77765
1.5961024,97.6674
1.5507604,100.95788
1.5862421,99.39571
1.6818364,101.332
1.7656271,103.00124
1.7964787,101.93273
1.7969748,109.12748
1.765059,106.31895
1.7953554,106.94668
1.8625814,105.142525
1.9144478,110.48544
1.9596871,112.7991
1.8904389,111.60082
1.9003271,112.73125
2.030756,116.307014
1.9599769,118.46194
1.9309131,113.56778
1.9414545,115.717545
1.8637191,116.43359
1.9219468,113.46215
2.000065,117.43388
1.9081045,115.072266
1.8911479,117.32398
1.9016577,117.41361
1.9317349,118.13482
1.9328923,116.10677
1.9162036,114.90388
1.9117938,115.71813
1.8122611,111.99883
1.8311056,118.41118
1.8013576,109.810684
1.7941303,112.16366
1.7577721,108.18539
1.6677293,110.39759
1.6395459,113.17046
1.6496326,108.15536
1.5605036,113.881096
1.6145462,106.30612
1.6338558,110.33089
1.589501,107.18747
1.6127907,104.735825
1.4853293,105.19528
1.5430471,102.78042
1.4894158,101.6054
1.5454549,101.805885
1.544421,103.151276
1.5188324,95.93775
1.5984576,97.562614
1.4681967,95.95388
1.5075985,98.928535
1.4393289,98.19741
1.4722028,95.55998
1.479332,91.73441
1.3689094,93.92578
1.2736361,94.48133
1.4243479,94.26299
1.2925475,90.602165
1.3712867,88.54392
1.2816536,86.63455
1.2158471,91.3686
1.2598171,86.62304
1.0984405,92.05162
1.1932334,90.3488
1.0876099,86.875145
0.99882966,86.31563
1.1105514,83.99149
0.9783222,85.95515
0.99688417,81.26785
0.9686382,84.057884
0.974589,81.484
0.84998405,84.95229
0.9184984,80.677605
0.8999283,76.399445
0.84388,77.01204
1.0183644,79.09669
0.81510437,77.70318
0.9108561,77.98573
0.92175055,74.18479
0.8194666,74.46522
0.80882037,75.07892
0.8573574,73.99947
0.8785984,74.156494
0.79715323,73.80798
0.8211532,69.232216
0.73754704,74.54023
0.7315687,70.39945
0.80988264,68.590614
0.7528334,70.76836
0.647362,71.11278
0.6840673,68.76561
0.56975293,71.54455
0.5672735,70.06633
0.61440694,66.88883
0.5400883,70.704895
0.65326,70.92294
0.5540275,70.56568
0.40194985,69.314064
0.513035,72.91326
0.485532,72.43465
0.44428027,76.04463
0.55448717,74.85473
0.48420715,77.17587
0.47687164,79.16943
0.42655393,75.604576
0.66506207,75.33925
0.67321473,81.34644
0.7153465,77.86158
0.65304387,82.8693
0.8103143,86.69395
0.7879694,85.46039
0.9598493,87.9902
1.0230069,89.834915
0.9994094,90.271835
1.152555,88.34952
1.2514673,90.57821
1.227406,94.54801
1.2995594,98.69883
1.4170877,99.13562
1.486284,100.20672
1.4624457,98.32285
1.5019742,98.18536
1.5300635,103.210846
1.483296,105.38367
1.6557713,103.56958
1.7774739,108.24524
1.7713563,108.56872
1.6784788,107.28277
1.6746528,107.34193
1.7371962,112.75169
1.8137693,110.44146
1.7195351,112.61356
1.7965199,112.45429
1.8090179,111.432144
1.7727848,116.19944
1.8531648,119.34481
1.8245845,115.32641
1.7090706,116.46404
1.8255306,115.69703
1.7129562,115.34474
1.714956,113.42555
1.6815192,115.730736
1.733434,115.34217
1.6821063,116.19283
1.5618212,117.22424
1.6298904,113.80048
1.4993181,114.07954
1.6017431,117.170425
1.4679822,115.38256
1.5213139,109.51627
1.4876668,111.173256
1.5049994,111.999214
1.377753,109.28023
1.3463091,108.554535
1.4309822,108.24968
1.3502932,106.797745
1.3826312,108.84303
1.2790312,104.79166
1.2453438,105.75267
1.3190174,106.46368
1.2270436,105.59139
1.2395158,104.09294
1.1773455,101.911194
1.2159201,103.34347
1.2217665,103.36683
1.0360979,94.75131
1.1437166,100.49949
1.1538851,101.90926
1.1450218,97.76024
1.103871,99.144775
1.1838619,97.0037
1.0568256,95.80667
0.9972345,91.12138
0.920266,93.66018
0.99013996,93.95076
0.9842403,92.346565
0.9822949,90.41736
0.8824726,90.35072
0.8892195,91.049225
0.7337887,86.5265
0.64748436,91.4062
0.6973128,87.41332
0.7402029,85.08362
0.7357365,86.574104
0.6031774,80.39442
0.650501,84.825165
0.62705135,82.24808
0.6676691,84.515724
0.57992864,79.78713
0.58006954,79.14069
0.54624665,79.37712
0.5663694,79.35701
0.4706679,76.90051
0.47701883,77.45416
0.5269692,75.20945
0.47326037,77.51998
0.57382935,75.08901
0.48710594,72.095665
0.5406044,76.038284
0.43986917,69.761314
0.36958063,73.64994
0.48421186,69.195984
0.35378754,71.92081
0.40084517,73.58789
0.37967068,68.174286
0.34201354,70.21252
0.30442867,73.52995
0.29536426,73.24694
0.29351538,68.56015
0.20719121,71.750565
0.2986602,70.86157
0.12034383,67.49925
0.1191227,69.65226
0.1384846,69.581154
0.066914625,73.00405
0.13193549,69.68955
0.0375063,71.71489
0.10250082,72.80353
0.14226572,72.76699
0.09611566,74.109955
0.11001634,73.70244
0.0747094,75.9394
0.121393904,79.24881
0.1376525,77.908485
0.28879288,78.18624
0.31653544,80.679436
0.49219674,81.83034
0.3951498,83.015854
0.53346735,83.33524
0.57426715,87.959305
0.6005158,93.20088
0.7622548,92.9562
0.7590731,90.59239
0.83896863,98.163
0.97493434,92.99793
1.0162362,96.28418
1.0465131,98.509575
1.1013585,100.22483
1.0820485,98.51409
1.1444747,102.3683
1.2079496,101.815865
1.2232009,103.98866
1.299931,103.37177
1.3920891,106.330315
1.2549589,112.03283
1.3731564,111.7479
1.3910736,107.67976
1.3797677,111.6506
1.4711287,113.71724
1.4843539,114.02274
1.3780884,113.82117
1.3782578,118.21559
1.4244995,112.54352
1.3279128,115.0717
1.3027568,114.5737
1.3725214,114.01473
1.3341019,115.34503
1.3382299,113.13702
1.369751,114.84722
1.2260714,113.106445
1.3720311,109.97683
1.2246225,112.04814
1.251966,113.35488
1.2621216,113.93768
1.2550853,113.96376
1.1894178,114.50068
1.1327441,110.99495
1.0456443,110.99935
1.132727,113.133606
1.078924,115.22766
1.0398979,107.484116
1.0532295,109.808464
0.9652215,107.28206
0.96869785,107.69769
1.0137812,103.69266
0.9467477,103.325836
0.94080263,102.14513
1.0463762,105.73243
0.9706238,104.330124
0.84226215,101.8562
0.8933996,101.24725
0.8652838,97.22085
0.83059436,104.51788
0.9088827,102.96229
0.7441065,96.4162
0.7873362,95.21743
0.73697954,95.94435
0.79344827,96.13387
0.8854113,98.47493
0.7723676,95.346054
0.8028624,96.584526
0.8212438,92.94108
0.81747407,94.524536
0.7175679,93.97086
0.6945322,87.625404
0.6560091,90.38406
0.5726897,85.8956
0.47091258,87.06397
0.49195093,88.22835
0.4656438,87.91831
0.49359268,89.20552
0.49414277,83.94608
0.42277345,81.51488
0.421867,83.46763
0.39845207,83.42934
0.45606756,81.00983
0.40364787,78.5003
0.38106796,77.5573
0.30937472,75.54011
0.33191285,76.19507
0.4129009,76.48165
0.29999736,78.717926
0.36633602,74.50786
0.3026784,71.90614
0.27682117,69.0948
0.24164866,70.41812
0.37401748,71.60454
0.30656767,71.20117
0.301494,70.241135
0.27757856,72.39842
0.2714561,72.52461
0.18365648,68.23507
0.1759733,66.79948
0.17808765,71.072586
0.109934665,71.82792
0.17191209,71.74487
-0.011030135,70.96593
0.07229145,71.53317
0.16068989,70.13053
-0.018827815,73.93523
0.0037195347,71.64578
-0.105851404,70.52746
-0.018288955,76.06249
0.1422976,70.59881
-0.047624886,71.4574
-0.03968641,76.87499
-0.015138094,72.41401
0.12079747,71.08858
-0.026651444,79.96429
0.07660488,80.16104
0.23785268,80.120255
0.31784487,77.850105
0.2815786,80.17419
0.39359626,81.42168
0.49757737,79.73816
0.5482883,86.77287
0.53233427,86.39145
0.6406513,92.64314
0.71983373,88.86225
0.7874935,90.7276
0.8627546,90.40375
0.8919806,92.85368
0.92959636,99.03595
1.1330131,97.332794
1.1070179,98.62636
1.1875763,101.84483
1.2415415,100.475945
1.3710608,102.70545
1.3955365,107.99371
1.4242293,104.67055
1.3633626,109.0868
1.4149327,103.49333
1.4387844,109.73471
1.4813769,106.24415
1.5345474,110.34322
1.4818313,110.86333
1.4372714,109.90014
1.4922376,114.75025
1.4861367,116.360916
1.5490377,116.2404
1.5408645,112.88276
1.5078379,115.92179
1.4735111,117.86883
1.5129609,114.08332
1.5186743,111.8977
1.507028,119.08624
1.4768506,116.13149
1.4046084,115.85523
1.4524534,114.01221
1.4321439,110.50578
1.4613369,113.474464
1.3656375,113.58673
1.4083074,114.12006
1.3007691,110.89841
1.3241076,111.87782
1.3190473,110.5374
1.2606194,108.363716
1.2456045,110.32455
1.1994447,106.18794
1.2822245,108.28794
1.2536305,106.20282
1.1440849,106.77276
1.3195055,106.07192
1.1680537,104.14997
1.0999131,104.987206
1.1898729,103.800285
1.2146088,102.97824
1.2287457,105.25749
1.1534725,100.15736
1.1735854,100.48623
1.0770257,101.93437
1.1312028,99.12241
1.1836702,98.69242
1.091754,93.88815
1.1225573,99.02285
1.1737813,94.69869
1.170875,92.61958
1.0713513,92.288086
1.0960057,90.96554
1.0501497,93.83515
1.0071998,93.05775
1.0312836,89.21561
0.9442627,89.05671
0.9497856,89.82931
0.94266564,83.94806
0.8796571,86.900215
0.8413083,86.37214
0.8053217,85.80713
0.8207699,85.13792
0.75100994,84.03956
0.7692002,83.416756
0.6889948,84.76273
0.7628827,78.960625
0.65875375,80.31196
0.56454706,78.627174
0.70689285,75.58432
0.6434895,75.98926
0.72256255,77.338844
0.7044716,76.46119
0.6235505,75.24043
0.63970715,75.33286
0.7342955,75.44511
0.58807373,73.91179
0.56653166,74.54841
0.7182392,75.04484
0.8129895,71.959175
0.73793584,73.55062
0.60558,69.260666
0.6537908,69.169655
0.62488216,71.21558
0.6378962,70.0959
0.5179946,72.47999
0.5915368,69.4377
0.56398267,73.28843
0.4963971,70.22843
0.5058686,68.19003
0.377308,70.33138
0.43500426,68.744415
0.42429286,72.16672
0.4004687,72.758934
0.26124606,74.355835
0.36734802,66.37569
0.33657902,70.969574
0.34685203,75.04258
0.43919584,76.22548
0.39700776,78.67795
0.58652127,78.68636
0.4766198,79.2758
0.5451324,76.57167
0.6487154,80.54053
0.69294995,86.55707
0.80756456,86.43795
0.7621036,82.68272
0.93064207,89.74898
0.991824,93.013145
1.1369412,88.748634
1.1922712,95.63564
1.2580913,96.81565
1.2116698,93.78974
1.4698625,97.30729
1.5221723,98.8932
1.5319694,97.13476
1.5310521,101.56779
1.6495383,102.53295
1.6402446,103.61366
1.6531827,104.463356
1.7505381,104.778366
1.7697603,105.34323
1.8125572,107.4449
1.8741146,109.04622
1.7303628,110.483635
1.8659656,111.10709
1.8974478,115.073265
1.8672253,108.59189
1.9015039,114.69529
1.89507,112.86073
1.7869232,115.45314
1.8483475,118.19074
1.9204712,119.397575
1.968582,113.31024
1.8893286,117.59689
1.8898371,117.494865
1.9407115,116.469
1.8525784,113.55558
1.9417652,111.55178
1.9027928,115.002144
1.7966641,116.53595
1.7767174,115.00455
1.7614899,112.634605
1.720706,114.02641
1.6528813,115.232666
1.7363199,109.62765
1.7192763,111.382774
1.6447816,110.15221
1.6747693,108.52278
1.5312297,111.575806
1.3742086,108.4992
1.5918376,112.335846
1.6059428,106.45081
1.6082945,105.81923
1.6264497,104.76304
1.5594121,101.47665
1.513642,101.490364
1.4750335,102.12974
1.4879135,104.531364
1.4425517,100.9783
1.4627005,99.136856
1.5088117,97.68084
1.4766912,98.64722
1.466592,99.335625
1.4524155,95.47208
1.4238977,94.78668
1.4502673,95.21602
1.4427744,94.73906
1.3684375,94.721825
1.4243814,93.10759
1.3341938,91.81349
1.2509452,93.82496
1.2786374,86.74759
1.2396353,91.26714
1.2122915,89.569824
1.2088343,88.81828
1.163153,89.17895
1.157264,88.24876
1.0886912,84.826546
1.1070374,81.60914
1.040066,85.36357
0.94705707,85.33695
0.9556527,84.98303
1.0037084,79.07101
0.93261945,81.50238
0.9135558,77.73848
0.8848098,75.401
0.9664083,79.88817
0.7992004,80.210365
0.9872106,79.625824
0.9858761,73.17009
0.9465914,77.07909
0.95714736,73.218636
0.82317257,73.846275
0.9157659,72.39393
0.8679978,71.92375
1.0177239,70.43842
0.94283414,72.027306
0.8805534,73.16061
0.81826085,69.78341
0.80573535,70.409706
0.73849416,71.57139
0.7387615,71.01834
0.73712265,69.07779
0.59445786,71.241684
0.71957105,68.45475
0.71703106,68.75009
0.5526055,70.37015
0.6031964,70.72401
0.5400737,71.44216
0.5453882,70.86147
0.5503173,72.90177
0.628662,75.39976
0.53365225,72.11717
0.43362424,79.17552
0.5982438,75.05351
0.48430857,75.85255
0.5957005,77.39541
0.5539993,79.80631
0.6583954,82.495705
0.823823,83.8574
0.79371315,80.764404
0.83680886,86.43857
0.8499188,86.78831
0.98175055,86.41097
1.1146871,87.248886
1.2207088,86.51772
1.2472452,89.95074
1.3359138,96.343636
1.4483528,93.92442
1.4624912,98.250755
1.5302896,99.75785
1.5065889,102.673035
1.5699339,100.22699
1.6035973,102.19394
1.795456,103.707146
1.8195736,105.97093
1.8331524,102.57493
1.7539012,107.73366
1.8806115,110.829735
1.7416321,109.146225
1.7745945,110.67291
1.9198695,107.495346
1.8740715,111.41955
1.9138036,111.832985
1.9526434,112.269356
1.8829341,110.643654
1.8292074,113.41414
1.8743209,112.70857
1.8419133,114.09988
1.7296768,117.84801
1.8183542,109.78335
1.8195738,117.586555
1.8189623,113.87016
1.8183764,116.748436
1.7023807,116.6221
1.7554146,112.68776
1.6239333,113.0554
1.7019659,112.86283
1.633816,114.86956
1.6165963,112.9602
1.6943364,114.43313
1.5843523,110.50328
1.5746664,113.59508
1.4961485,111.07122
1.5667136,114.01288
1.4641913,112.489624
1.4781902,106.68416
1.439908,108.84729
1.4470927,106.68111
1.3792517,107.01369
1.3636276,107.73383
1.2639284,105.15502
1.3218863,108.72623
1.3694568,104.944725
1.3288989,103.60854
1.2792447,97.64548
1.2113103,104.21004
1.3131425,92.37019
1.2878824,99.18032
1.2988572,98.82205
1.2580479,96.84207
1.2532452,93.74391
1.2018042,93.38976
1.1514817,92.09366
1.1590099,99.22555
1.1143991,91.135
1.0536679,94.322266
1.1637243,91.70526
1.0516968,94.24527
1.0184903,89.09977
0.9873358,89.120285
0.9294755,85.54169
0.8142202,87.84825
0.8083665,88.482376
0.91331655,85.385796
0.72220296,84.62411
0.8068646,84.492035
0.714561,82.63093
0.7031314,83.29534
0.7275645,79.82164
0.6915475,77.58865
0.6828009,79.74551
0.67143494,78.70485
0.6570733,77.89836
0.57702273,75.19597
0.62988526,73.833755
0.5493255,77.4109
0.6283798,75.3054
0.61826396,75.54553
0.6183475,74.658264
0.6038197,69.278946
0.5911263,71.215836
0.5471231,69.42976
0.5326302,72.55055
0.5642143,69.91573
0.52178943,70.20261
0.4701537,72.08723
0.39623672,72.28952
0.40599382,68.88262
0.36257133,70.14798
0.3288505,69.48238
0.28090078,70.59875
0.25736263,70.47629
0.22073807,67.46845
0.27695125,70.104744
0.16917714,72.42285
0.17481744,71.51315
0.15332082,74.36012
0.11123856,73.521675
0.14554113,75.76081
0.0932003,74.6524
0.21868487,76.53808
0.14771894,77.947815
0.23415032,76.69315
0.25805414,79.38077
0.3828653,76.35705
0.3674976,82.13182
0.42939863,81.483505
0.48614874,83.36084
0.59119374,87.879684
0.6387247,85.66456
0.70593935,85.01821
0.90957713,91.227264
0.85283875,89.02053
0.911983,94.73341
0.82009196,92.47452
0.9621616,96.17729
1.259008,99.52218
1.1305526,96.109024
1.233578,98.75306
1.3150531,100.40337
1.2519588,100.63635
1.3916371,107.62417
1.3594098,106.83107
1.3810289,109.924225
1.3469944,108.63828
1.3948969,109.56906
1.4379352,109.96483
1.4495386,109.39217
1.4197462,112.32715
1.4618523,114.241
1.5696601,112.09251
1.4665627,113.02911
1.3992211,116.781105
1.4592673,115.58594
1.5405303,111.84503
1.5310695,116.12033
1.3971918,115.811104
1.4094431,115.26523
1.3178701,115.5432
1.3468441,115.190056
1.3442445,116.05963
1.4396107,114.44194
1.3048086,118.58594
1.3191162,114.63414
1.2528818,113.29565
1.3291951,112.947945
1.3424929,113.52882
1.1710612,118.48389
1.1779865,110.79677
1.0849228,110.12039
1.0346636,109.68899
1.1012629,108.32074
1.098949,106.37145
1.044783,111.02114
1.0712521,108.87966
0.9430063,104.580956
1.1527315,107.68135
1.0570906,106.39144
0.9903423,100.878784
0.9265055,102.43269
0.8739639,103.62033
0.94806385,104.54922
0.98850363,101.67831
0.9294401,102.90253
0.9897576,98.8978
0.93963873,97.51492
0.8605437,97.32868
0.8504441,101.45385
0.83937967,95.399254
0.7831506,93.839424
0.8241509,91.96771
0.7369199,93.06111
0.5747553,92.94689
0.7461904,92.59471
0.78488237,92.01388
0.6211491,86.217865
0.5452346,86.77789
0.47947288,88.84982
0.6215068,87.78002
0.53502065,85.22178
0.60262007,85.18651
0.5075311,85.03912
0.4147542,89.26303
0.36072382,81.99298
0.37211663,80.80088
0.4221957,76.672455
0.39582142,80.97715
0.3973239,76.03168
0.3251315,77.232445
0.36460775,78.065765
0.40661576,78.009254
0.33447316,80.87264
0.364348,75.421524
0.37688333,74.95706
0.35832065,74.37492
0.29620773,70.95927
0.31241646,73.70991
0.26074624,68.68638
0.30355114,70.634514
0.29807577,75.25399
0.2774492,72.23535
0.19822758,73.51551
0.25961298,72.09989
0.20974153,70.26853
0.19354689,68.71013
0.15098934,73.41642
0.08789844,71.84947
0.09510336,67.9036
0.021784537,72.23272
0.054881215,69.52365
0.0538936,74.16422
-0.09196531,69.31226
-0.02513727,68.0824
-0.09875336,71.90691
-0.025073921,74.04417
-0.12246421,75.519745
-0.09469803,75.05942
-0.08506076,75.50945
0.026970144,79.054146
0.082843125,73.189835
0.095148645,78.83712
0.045762356,78.58969
0.2824928,78.550186
0.2224387,81.35318
0.34598833,85.61462
0.5486319,84.85203
0.4935493,86.79436
0.670164,88.847565
0.5904177,89.74525
0.64827514,88.28102
0.88681746,90.81064
0.7601359,94.164955
0.9192199,99.875946
0.9481612,93.813354
1.0640281,98.38337
1.0408897,98.95662
1.0858624,102.47983
1.193854,102.197845
1.2041234,99.12166
1.2913518,107.84286
1.2367467,105.06452
1.3737414,105.96564
1.3749621,105.51329
1.2700294,110.14595
1.415004,111.257935
1.4083068,111.65435
1.3625705,113.30578
1.4238545,112.46772
1.5475215,110.352356
1.3749065,115.36052
1.3488822,117.676056
1.4658056,113.646774
1.4283874,115.713135
1.4009355,112.30049
1.3383036,116.92565
1.3035477,118.04531
1.3582561,117.021255
1.4157441,113.45989
1.3002673,116.22829
1.3550335,116.807594
1.3834165,115.637535
1.3521037,114.41759
1.2472892,113.9056
1.2295914,111.147606
1.3108815,108.80572
1.3250798,112.31385
1.0570881,109.39089
1.1232805,109.81666
1.1214806,108.94121
1.0133334,111.06711
1.1731329,106.200516
1.0481683,105.45086
1.100017,105.97405
1.0504619,105.12455
1.0849726,106.31447
1.0457228,100.57227
1.0518712,104.87702
0.9878271,100.13073
1.1023408,104.354515
1.1497401,96.37839
1.0236534,99.85479
1.0201201,99.9702
1.0643117,97.84135
0.9750057,98.32442
0.92281824,93.97073
0.9705303,93.99052
1.0881976,95.51415
0.9486551,94.366646
0.92734104,94.74901
0.8180851,92.883286
0.9298645,94.44378
0.94136345,93.05002
0.82785255,90.05088
0.7504162,89.803375
0.84513456,89.21041
0.69492924,89.98467
0.7011915,86.91511
0.62162656,88.19055
0.6713087,85.05936
0.7035131,84.49029
0.5632633,81.89389
0.60539126,82.86268
0.6621929,81.7673
0.64540625,82.596565
0.54951745,80.27226
0.53599066,78.23705
0.57425654,77.56691
0.6206478,76.92194
0.62268466,78.11384
0.57821965,76.6612
0.5251519,78.78794
0.5832388,75.08228
0.612509,73.84526
0.55491763,72.349815
0.56921333,74.0082
0.56322706,73.70566
0.5651786,72.17708
0.5203214,74.39717
0.52575,71.892746
0.5520573,68.25764
0.48080087,69.081474
0.4909166,67.6891
0.4293281,70.08691
0.4522653,70.91076
0.27841288,68.79116
0.38403216,69.54734
0.32223067,71.55503
0.40154338,68.96649
0.38141385,72.41411
0.19255963,70.13106
0.28133836,73.23196
0.23761821,71.29535
0.3343166,72.30596
0.23079066,71.973885
0.32178834,77.600685
0.26377824,75.3167
0.27328542,74.54698
0.39127013,78.70182
0.3633638,79.8699
0.57234514,79.415016
0.5176814,86.22581
0.65223813,87.08733
0.68912536,86.259026
0.7118394,87.3072
0.84511244,90.3561
0.98654217,85.641205
1.0162287,90.44314
1.1571417,91.1008
1.2009342,94.41447
1.2043145,97.59351
1.2623857,93.979546
1.4589014,94.390625
1.4455625,100.10319
1.5073915,98.86948
1.5719433,104.188324
1.5316259,104.14759
1.670011,108.029495
1.6131696,109.45804
1.6243082,106.5715
1.7454046,107.57325
1.833682,109.82802
1.7271494,111.00661
1.7973174,111.525246
1.7489973,110.92583
1.7869488,111.68199
1.8776299,115.34302
1.8460734,113.83447
1.840572,111.506
1.8874464,114.25746
1.8362185,117.54628
1.7843909,115.99604
1.895791,115.24873
1.8660476,114.84019
1.7724873,117.129555
1.8360473,117.96293
1.7410444,113.17071
1.793606,112.7424
1.7532493,114.647064
1.7682885,116.89611
1.6832685,109.37775
1.5839568,116.28947
1.6913782,112.622215
1.5992967,112.02896
1.6247246,111.77762
1.5905006,110.98325
1.5401644,108.4823
1.5059248,109.48212
1.5123092,102.71516
1.5693374,108.47071
1.5329702,109.2808
1.4592509,103.50842
1.5236984,109.03641
1.4125018,107.890274
1.46652,103.7774
1.4462786,102.70108
1.384935,100.30628
1.3839165,103.59933
1.5502645,97.99354
1.4194608,98.11101
1.3612138,98.57557
1.418362,93.39112
1.4872236,96.14101
1.3424121,95.256874
1.381116,96.45345
1.3925853,95.41324
1.3193977,100.281044
1.2758158,92.70029
1.3001885,91.265076
1.2000991,97.7574
1.1860502,89.86062
1.2197602,86.44771
1.1666726,90.19366
1.1756748,87.3375
1.0683904,88.651306
1.139362,87.10185
1.0279241,85.763664
1.0780978,86.67685
1.0136094,84.40537
0.9847202,79.98304
1.0319386,80.40595
0.9049599,79.82959
0.9491657,82.53179
0.9642494,78.35686
0.92977965,77.42951
0.8828538,77.33218
0.9464861,80.260895
0.9300759,78.4524
0.89754707,72.61876
0.88899934,77.60993
0.95524293,74.75826
0.8427199,72.82015
0.9377372,74.59559
0.80745,73.22081
0.8262119,69.83422
0.8239255,73.17579
0.8509667,74.87996
1.0014439,70.31945
0.78898656,70.56336
0.7612949,71.013
0.7083086,71.88589
0.7510876,71.24893
0.6899846,72.15202
0.6547013,69.66764
0.6815818,68.31773
0.69429964,71.785614
0.4993394,68.30418
0.5384262,71.473625
0.6323282,69.63401
0.4745761,70.83153
0.70386225,74.81691
0.53873694,76.426575
0.5792476,77.767746
0.63472295,75.697075
0.6232014,74.37417
0.68259865,77.43613
0.78026605,75.84082
0.7830028,81.580414
0.8023816,83.770035
0.8962899,82.77464
0.9304152,84.38152
0.9640379,87.98922
1.0691159,87.02835
1.2377913,84.56129
1.1877468,91.85661
1.3059278,95.44245
1.2651745,91.88517
1.5276155,95.7521
1.4225194,97.96644
1.4566853,96.46713
1.6339741,97.47512
1.6856505,102.79776
1.6928049,98.926346
1.7340037,102.9817
1.7917393,107.3028
1.7477219,108.64816
1.8930862,104.50116
1.9000086,109.86963
1.85512,108.32936
1.9106233,107.53075
1.781565,110.60219
1.9937319,114.07194
1.9171001,115.09609
1.9513644,114.0614
1.8662097,114.64791
1.93409,112.03639
1.9835228,117.79771
1.9540452,113.38339
1.8953654,118.18796
1.8956646,116.56217
1.8401812,115.079575
1.91969,118.05442
1.8307937,118.46296
1.9688603,115.32114
1.8863859,111.206856
1.8160691,117.79753
1.7773434,116.77658
1.8515459,112.83122
1.7315916,111.28254
1.7080457,112.24643
1.6703033,107.36485
1.6128429,114.78072
1.6630043,113.45046
1.6729529,108.937126
1.6501718,109.22672
1.5248454,109.52146
1.5113684,109.22849
1.3981364,106.0671
1.4379789,106.71955
1.4999105,104.04901
1.4518144,104.561584
1.5004454,104.276634
1.3775927,108.13101
1.4036493,103.63496
1.4183334,100.09753
1.4196502,101.374886
1.4323727,98.05128
1.3230829,97.96057
1.3672804,98.16461
1.3638561,96.385086
1.3237798,96.86697
1.3461919,95.71805
1.2601508,92.57358
1.2519779,94.076
1.231562,93.483
1.2151017,89.89617
1.2132354,92.7209
1.1493394,90.40995
1.1323482,90.37908
1.0746862,88.692024
1.0067472,89.991684
0.91863924,91.55751
0.9969576,88.12197
1.0093529,90.86685
0.8966265,83.62207
0.9376333,84.192215
0.74965686,83.0254
0.75402474,81.29125
0.88907254,83.15597
0.80962306,77.44333
0.6927973,76.63342
0.7299152,75.66896
0.7114842,76.203094
0.73169786,73.66789
0.664054,76.01304
0.7806171,75.013435
0.74717224,74.9168
0.6951094,76.82871
0.78095317,76.339554
0.65500104,76.75033
0.77431273,73.99901
0.6905786,73.092445
0.65465105,70.49135
0.759965,71.71541
0.53480536,70.51255
0.48517466,73.669785
0.57441276,69.73436
0.47892776,68.64376
0.5104302,69.052475
0.5046265,68.56055
0.40458035,71.88953
0.31447434,70.978745
0.43146548,70.20326
0.41328683,71.08368
0.28505924,69.36641
0.33958125,70.684784
0.25738943,74.92831
0.28314438,75.13505
0.2868716,75.70799
0.28038135,77.67793
0.3308805,78.12972
0.4436074,75.60616
0.36944932,77.00789
0.36657026,77.492195
0.42260078,77.0621
0.5287858,82.534836
0.65884787,83.24133
0.680227,83.56667
0.64257956,87.73753
0.92224926,86.38956
0.8076553,89.651855
0.92229,88.482994
0.89587927,89.55255
1.013628,93.36363
1.1685191,92.35662
1.0778556,98.56242
1.1487075,99.082985
1.2074696,98.426506
1.2775124,104.351616
1.3629172,103.07112
1.4171506,102.57963
1.5110971,103.58555
1.4503419,108.889915
1.5210513,106.44541
1.5172818,103.22164
1.4562094,110.883606
1.5515405,109.21074
1.5858622,111.468704
1.6879882,111.53199
1.6514941,110.51942
1.5390766,113.390465
1.4959242,114.362564
1.6477151,111.297104
1.5422841,113.39282
1.5388833,118.13184
1.6079581,119.26545
1.6111445,114.77794
1.5339211,115.583
1.4877307,113.70527
1.4327153,117.24836
1.4395578,117.05246
1.4167007,114.248634
1.4117016,113.593796
1.4975191,113.44263
1.319959,110.12905
1.1772923,114.28527
1.326589,110.59883
1.3500074,106.695656
1.2997913,110.55386
1.1564786,112.53319
1.1393889,109.24167
1.1379886,107.97679
1.1350354,109.05006
1.147494,105.49721
1.100617,106.40766
1.0806236,106.03665
1.1555004,105.34489
1.1240146,105.25807
1.0536859,102.42354
1.0466295,100.388664
1.1179693,103.869255
1.0822264,101.05115
1.0541602,101.26017
0.94217587,99.17829
1.0157425,100.65977
0.9263933,96.26721
0.87018883,94.84463
0.8574007,96.353065
0.91850674,97.609375
0.95509195,93.207016
0.8410987,95.41166
0.847628,93.057884
0.7816355,87.306145
0.7190349,92.16373
0.67771167,87.997
0.7721298,90.46435
0.64399076,88.27322
0.67304176,89.671196
0.562205,86.76763
0.5413673,86.65173
0.58223456,84.58897
0.5733995,84.554504
0.54758346,84.8633
0.5076364,84.05851
0.45458925,84.39829
0.4368794,78.63537
0.42390198,77.665016
0.38255775,80.81378
0.3319938,75.77701
0.34563094,75.66286
0.32954547,74.448074
0.3899923,75.70377
0.35223573,76.19803
0.31937104,73.944244
0.38050988,77.39538
0.33404732,75.26343
0.41337103,73.48207
0.32030293,73.31846
0.37509415,74.73956
0.25676718,69.19587
0.22266458,71.31288
0.29644924,67.63864
0.244121,65.74367
0.13834444,70.613045
0.09973852,68.48262
0.092296384,71.79427
0.00014962137,70.23908
0.052548513,70.749954
0.075864814,68.06943
-0.039667096,74.89091
-0.08929791,70.9124
0.034159496,70.64933
-0.0721495,70.097885
-0.037443683,73.051636
-0.027276061,73.56501
-0.053765956,70.93731
-0.12277825,72.41934
-0.03676971,76.63678
-0.06142267,75.10337
0.056247175,78.19952
0.096855044,80.654015
0.120816626,79.79256
0.20497487,80.575
0.2622902,84.762024
0.26894274,81.04482
0.38722098,85.249
0.4629328,85.50899
0.5835848,83.43911
0.7000533,85.98923
0.7060921,90.55729
0.7454327,93.72808
0.8445641,94.47179
0.8186943,88.73774
0.9001109,97.971466
0.9730877,99.12374
1.0681909,101.243515
1.1442885,102.1996
1.2205919,106.055824
1.199018,103.87068
1.2628684,106.30208
1.1505415,102.34205
1.2202647,110.108376
1.4005746,112.488815
1.3367025,110.19618
1.3243277,108.5773
1.3396219,112.47471
1.4259678,110.278175
1.4675728,110.31472
1.4631118,113.30029
1.3393389,114.33148
1.3645569,114.53834
1.3020371,115.9907
1.2739828,116.99955
1.3744874,115.69358
1.3578947,115.8817
1.4555211,114.67256
1.3385464,112.16281
1.189259,115.90417
1.297095,112.30392
1.246075,117.45241
1.2073721,114.214714
1.200188,113.344475
1.2059792,113.30996
1.2025422,113.992455
1.2119416,111.92387
1.1572816,110.61442
1.0741946,111.69113
1.1386414,110.04505
1.0485985,109.72085
0.9881589,105.49901
1.028384,108.00447
0.9805973,106.430595
1.0200839,103.52221
0.9372152,106.397804
0.9755719,105.98999
0.90798265,101.61679
0.8896815,103.674095
1.1203027,103.30736
0.97084063,99.72835
0.9797308,103.73017
1.0488055,99.3402
0.94291955,101.65232
0.90226007,98.042175
0.9181009,98.610535
1.0060092,97.804
0.84623927,96.50755
0.8776705,94.846436
0.85329866,96.709785
0.80673134,92.54715
0.85991555,95.24492
0.76794165,92.79187
0.61887145,86.82863
0.7217031,90.07307
0.7434144,89.26738
0.6338102,89.40196
0.6149105,90.191315
0.54429895,85.0596
0.5927529,81.86539
0.5308457,87.32589
0.4896716,83.46702
0.4894539,85.577446
0.51852906,78.297
0.47610584,81.45109
0.45299876,82.8184
0.4303704,82.317604
0.45991135,83.38243
0.3483358,78.93485
0.46213084,75.21972
0.47071537,76.74532
0.42142537,72.30205
0.4536998,69.31514
0.45067757,72.208305
0.42487505,72.916695
0.39486578,77.129234
0.5045579,72.827324
0.5370143,72.016975
0.46281642,71.59225
0.44097984,72.805855
0.4272514,69.18761
0.46867913,74.163864
0.37156564,70.90967
0.2169735,66.74938
0.30544513,66.926674
0.28023866,69.03338
0.29966512,71.896835
0.31030503,67.17939
0.21602936,71.39356
0.22302352,69.05227
0.11256387,72.309746
0.1935177,70.60565
0.073227085,72.18004
0.14669691,70.51629
0.2157476,70.90099
0.28661203,71.12249
0.19387974,72.38387
0.30377722,71.8355
0.22159034,81.264
0.33905277,78.00146
0.32044065,81.828636
0.3701941,80.15121
0.4426807,81.22131
0.56375855,83.49639
0.5951923,86.006615
0.71031815,86.07729
0.66182435,84.76598
0.7827961,89.04703
1.0005565,90.885
1.0115864,93.46753
1.0520141,96.86852
1.1588137,100.42675
1.2691066,98.684746
1.2692449,97.87241
1.2802886,99.19958
1.427857,100.55843
1.477207,104.48755
1.5182503,105.04348
1.5061754,104.69899
1.6341336,104.73267
1.4969864,110.59526
1.6788651,112.41679
1.6535257,109.44809
1.6502676,109.421326
1.6812602,113.418434
1.6556066,109.7584
1.7338291,115.39666
1.7680585,109.9461
1.6475343,113.69513
1.6674811,115.55464
1.6903636,118.39176
1.7055749,115.106926
1.7020512,115.39964
1.7338759,118.08916
1.7522432,115.62355
1.6843516,111.41871
1.6905134,120.18072
1.6381533,114.19679
1.6058998,116.0552
1.5877229,114.584915
1.6996787,113.871414
1.5553601,112.13356
1.6667432,113.24195
1.5840417,110.94063
1.5014237,111.28266
1.4164648,107.191986
1.4572203,112.1778
1.3829031,111.518105
1.4468588,108.882034
1.506479,110.53768
1.3600446,107.034836
1.4807391,105.815285
1.3801205,106.87484
1.4157146,107.4328
1.3168547,105.31003
1.3814443,102.77564
1.4438154,102.74988
1.3284469,101.2198
1.3406534,102.50147
1.2754685,101.31741
1.4048461,101.56879
1.3726584,98.999504
1.3199341,99.44767
1.3024344,95.94509
1.2398789,96.46217
1.2824267,97.22723
1.2319331,91.66522
1.2389488,92.277
1.1449376,90.323235
1.2582726,92.908745
1.2832996,93.86635
1.0877929,92.16528
1.1613183,90.76341
1.0134412,88.08099
1.0344465,87.73009
1.0243742,86.22752
0.98954004,84.19378
0.95890075,85.258385
1.0067167,83.436165
0.9393005,79.35772
0.9086878,80.17783
0.936076,82.100426
0.9577096,78.10725
0.8352757,80.37123
0.9291339,80.9014
0.8642341,78.28852
0.8637316,77.11693
0.8245542,77.78241
0.82907116,74.52953
0.83201885,79.01406
0.7853688,76.768166
0.8860729,70.53908
0.86023134,72.45776
0.8598231,72.788795
0.7527155,76.54332
0.7364542,69.07822
0.7279062,71.91415
0.769398,71.54873
0.792556,70.77041
0.7247211,68.153534
0.7691431,71.01984
0.63044876,72.40093
0.6648737,70.13306
0.62681735,70.826225
0.66653645,71.12513
0.64826113,73.120995
0.665882,70.14998
0.58249635,72.387535
0.5469983,71.24986
0.52702224,70.94306
0.49657887,72.965485
0.59760386,72.73444
0.46852967,70.27471
0.4758217,71.7573
0.60222244,75.002884
0.5652123,79.430244
0.7297897,76.18869
0.7498554,77.50254
0.7061396,79.14252
0.88008064,84.17843
0.80910957,84.93617
0.94303846,83.17314
0.9666719,83.267876
1.1268954,90.387985
1.1519976,91.045876
1.2430111,94.87044
1.2770078,93.172844
1.4426104,95.05744
1.4505705,98.308
1.5820161,95.68067
1.5875387,95.18397
1.6155143,101.19514
1.7426544,99.83743
1.8347042,100.71469
1.7876081,101.532936
1.7597318,105.343636
1.7772775,108.29282
1.9887416,109.25216
1.89102,110.17774
1.9476032,106.282555
1.9736421,111.29122
1.8456345,111.696976
1.9448512,110.92937
1.9885219,113.265434
1.9848732,113.620316
2.0265481,117.10855
1.9147662,112.17393
1.8935877,112.15369
2.0482614,117.851135
1.9792047,117.63649
1.980906,115.27571
1.9362963,115.36634
1.949698,114.79038
1.8866736,117.949974
1.8114612,115.47224
1.8763758,114.67158
1.8919787,113.0375
1.8461909,115.05091
1.7841368,113.98931
1.7016925,112.39908
1.7617854,111.031136
1.6822699,111.707146
1.6608094,109.19364
1.6519482,111.20035
1.705354,109.010925
1.6356484,108.92232
1.686423,107.285934
1.5442908,108.814026
1.475631,106.88272
1.521504,106.79686
1.4587796,102.82247
1.5260113,103.32655
1.4577409,103.36706
1.4903115,100.2489
1.4285659,102.18426
1.4704435,100.055725
1.5507913,99.64109
1.4362752,97.22719
1.4277883,97.78337
1.4360353,96.551834
1.4042407,95.58218
1.3179226,96.51481
1.4012512,94.27082
1.2842857,92.816345
1.322819,96.78622
1.2353019,91.7273
1.2698507,89.52677
1.1813886,91.49578
1.307946,88.60734
1.1691499,86.2773
1.080429,89.74122
1.1663754,84.12979
1.1137037,84.9104
0.9971137,86.46527
1.0156189,86.777855
0.9270119,82.74033
0.9381034,84.31472
0.9418436,82.08681
0.934479,79.79342
0.97273993,81.69527
0.9082517,84.318855
0.80558753,80.50025
0.8777997,77.929565
0.8133696,80.37699
0.7755605,77.28032
0.95484406,77.70709
0.8310401,72.00656
0.8049766,72.07496
0.86737454,71.83297
0.90432096,73.1341
0.7699365,75.40002
0.7908724,74.25508
0.779463,69.20455
0.7729653,68.75059
0.72406006,71.79422
0.6429737,67.97493
0.6948866,69.5601
0.59814405,72.23516
0.67426574,69.88365
0.6984913,72.43495
0.6358401,64.6625
0.51960737,68.64019
0.42710787,66.42195
0.45988172,71.55201
0.4808943,70.457794
0.43684492,71.6892
0.48123738,69.66043
0.42322195,73.31173
0.3637846,72.474045
0.33155853,76.02209
0.41222525,77.44234
0.42757216,77.66792
0.46563295,76.552574
0.55298245,82.01744
0.5017322,74.6405
0.60784036,84.73959
0.5614148,77.97372
0.66253215,90.22631
0.74694747,84.33867
0.82719475,85.43312
0.934966,89.314095
0.93848544,87.352585
1.1034671,93.52689
1.196002,92.54215
1.1342541,92.68361
1.1822237,92.87915
1.3802532,96.38298
1.4275646,97.611946
1.3669624,97.46448
1.361201,103.94239
1.4890139,101.68927
1.5366259,103.771515
1.5980619,105.9176
1.5113579,104.88082
1.6560696,109.34039
1.587752,108.68282
1.7132661,111.86877
1.8061967,111.261475
1.6266743,107.36994
1.6563069,110.403824
1.7206836,110.67092
1.7189287,112.3797
1.6588529,111.04264
1.6254256,116.04268
1.612887,114.18241
1.6709282,111.771935
1.6325907,115.748726
1.6367491,116.77878
1.6527773,115.4705
1.5707247,115.82922
1.6283455,115.47785
1.491094,117.97653
1.6379755,118.17025
1.488655,116.8264
1.5437543,111.12225
1.5147372,112.73226
1.4838712,109.75937
1.3952415,114.68177
1.4197234,109.39133
1.3893377,109.91108
1.3321979,111.29424
1.2293422,111.49993
1.2596093,110.51899
1.1888742,107.46555
1.2581233,105.38525
1.1502613,109.3376
1.1843177,108.898834
1.181356,106.17581
1.0768442,103.32594
1.2519909,99.6981
1.1416947,104.83484
1.1495348,98.55329
1.1449257,101.97778
1.0635239,96.80815
1.0325516,98.25229
1.0066872,101.10343
1.1208744,98.03318
0.9955516,92.94719
1.0353762,96.17024
1.0262653,91.860535
0.9024829,95.11881
0.98732847,92.14084
0.911723,92.8298
0.8858495,90.27974
0.94287926,91.362206
0.7980391,89.15794
0.78237504,88.60397
0.7976556,89.167366
0.6876671,88.63011
0.6414001,86.66617
0.6155762,86.096825
0.66516644,85.66791
0.5433879,84.72306
0.5496803,81.789795
0.52430755,85.97184
0.42615184,82.17031
0.4691961,80.52408
0.45051324,79.400246
0.47791627,79.3123
0.4096504,76.71145
0.4342109,76.33337
0.48269382,77.18785
0.3860556,78.49032
0.44793555,74.468346
0.43640998,76.58135
0.5157362,76.03498
0.3935772,71.931595
0.48274964,72.35663
0.41069955,71.81211
0.3728747,69.30753
0.39465368,70.27277
0.34741515,69.93422
0.31515992,70.23902
0.2591332,71.96519
0.24711332,70.0043
0.27776444,70.04793
0.23475686,70.31325
0.13410543,70.325386
0.12581839,71.15385
0.10989761,69.424736
0.12947485,73.25146
0.05236248,67.463936
-0.0327251,68.21122
0.015873907,72.28697
-0.06025372,76.48606
0.06832996,70.79346
0.004576766,74.84929
-0.014593708,75.088524
0.060071874,73.61351
0.083631314,80.08951
0.080153614,79.463036
0.20379278,77.578995
0.23998658,78.31029
0.32954392,77.15439
0.3413599,82.55925
0.41960144,85.452286
0.48105627,87.93396
0.41319773,87.11536
0.65182203,90.15706
0.6152241,88.43794
0.73489225,93.21249
0.85104793,91.08479
0.90294224,93.59962
0.89930993,97.035645
1.0268711,95.02646
1.0270822,100.930824
1.2250962,99.190346
1.1792601,100.162506
1.0929226,105.501274
1.3186439,103.73633
1.1918463,103.333786
1.2608536,107.02113
1.1816242,111.688644
1.3481427,106.886375
1.3076856,108.60956
1.3072275,111.91773
1.4511218,112.69501
1.2500333,115.639534
1.29543,110.275734
1.3347453,116.06103
1.2873601,114.01755
1.3674892,115.63528
1.3050139,113.69321
1.368718,111.94726
1.4518819,111.19895
1.3662816,113.149
1.3580408,115.95688
1.32783,115.46754
1.2581981,117.86521
1.3060957,115.3411
1.2218039,116.167465
1.2897732,114.496216
1.2616899,117.32042
1.2043136,115.7245
1.135484,111.50011
1.13362,110.565155
1.1185004,111.16598
1.1272687,108.31236
1.1160433,108.58278
1.0474226,107.92277
0.96790344,105.62501
1.0432565,109.73034
0.98188496,109.28749
1.0208285,108.319244
0.91867244,104.190865
0.9502274,107.9357
0.9490121,103.97295
0.84547615,104.43758
0.9537158,100.793205
0.9007001,101.32844
0.92715526,99.08741
0.8513643,100.48377
0.9248426,100.39169
0.8522502,99.40808
0.7583087,95.449005
0.89590275,94.64245
0.8701362,97.10221
0.73110306,95.04814
0.8235863,93.00544
0.76216656,92.88279
0.6505499,90.14977
0.6930551,95.650406
0.7526063,91.54754
0.7267936,92.81873
0.52926457,86.8667
0.6999522,87.511925
0.5946024,89.72928
0.45447555,85.512146
0.50497156,86.004776
0.4987849,85.16869
0.46665382,83.61204
0.4524371,83.41817
0.47118026,82.964165
0.32661486,77.31759
0.4388311,77.25955
0.49771804,82.42271
0.27771947,80.65792
0.34476763,77.64399
0.2902201,77.5203
0.33210614,75.31633
0.2966385,75.10362
0.39459795,74.49885
0.35273707,71.82195
0.3788085,74.48741
0.31841314,76.52819
0.34580815,72.0682
0.2939466,72.66911
0.39696378,65.91445
0.26057145,71.98429
0.37491727,69.07993
0.26433527,69.17904
0.2237849,68.16104
0.26669118,69.97769
0.2674084,70.01193
0.18186449,68.42989
0.19755246,72.21084
0.07085257,71.05437
0.025609031,68.83347
0.0535201,73.59054
-0.025650054,70.173355
0.11151541,71.78946
0.08700213,71.72871
-0.035956442,74.40236
0.107961155,73.53832
0.0592583,76.79591
0.17610197,74.659424
0.13918868,75.743645
0.20778209,75.26897
0.23967662,77.32867
0.26017284,77.6342
0.3146383,77.5393
0.41404083,85.81784
0.42642185,81.67157
0.53395236,85.81667
0.68789244,85.26098
0.7254775,88.49609
0.7213261,87.59227
0.8449317,89.32959
0.9105264,89.38708
0.92136645,99.69012
1.0795498,96.92486
1.1077428,96.91666
1.1182824,96.59327
1.2337701,98.834755
1.3289974,100.852516
1.3846424,100.94358
1.3363365,108.73277
1.4239672,103.57881
1.5309638,104.79756
1.4647417,107.128746
1.477156,108.499825
1.5323483,111.86071
1.5186241,110.88043
1.5966752,113.105194
1.5542629,112.07591
1.6579897,111.479126
1.5073454,113.01704
1.6072358,113.52153
1.5779849,112.60534
1.6738167,113.32326
1.473809,114.91337
1.6063414,117.33931
1.6218009,116.81977
1.6033508,114.88717
1.5638387,119.32837
1.5319642,113.45912
1.5215455,114.157776
1.4343363,116.642845
1.438167,120.10198
1.4697087,117.06862
1.3994818,115.45855
1.3191637,109.25665
1.3600647,113.78048
1.3851395,108.578896
1.3250567,110.04345
1.3423213,112.4808
1.3703134,110.25881
1.2517542,108.080666
1.2781842,109.53496
1.3038588,108.250114
1.2896574,106.06158
1.3328098,102.53907
1.2341952,102.30223
1.2899913,104.402504
1.2242901,106.254234
1.1579168,104.08988
1.3188986,104.73884
1.2198194,104.052376
1.2003402,99.675026
1.24575,99.09931
1.2575705,95.847374
1.1645693,99.262375
1.1073892,99.11689
1.1337969,93.98657
1.237833,91.69026
1.1789443,91.19004
1.1380637,92.27138
1.1918974,91.81767
1.1932147,90.33587
1.059079,91.078156
0.98021734,90.43714
0.9705005,86.4076
0.98531276,90.50346
0.8854369,88.67362
0.99818766,85.07107
0.8227084,85.01407
0.8216898,84.90095
0.740364,84.82223
0.8787556,83.490715
0.74019223,84.3532
0.82835346,83.08009
0.6992626,83.88931
0.7034198,79.965
0.73555255,79.804
0.8041081,78.73914
0.8180167,75.60781
0.76099837,75.10003
0.8550676,76.00936
0.80547875,74.87266
0.7681434,71.62265
0.90213126,74.97861
0.78635263,74.899765
0.69678694,70.766
0.84920263,70.30198
0.74588364,67.909225
0.7747403,72.06018
0.785021,73.19227
0.72379184,70.46504
0.5946582,70.20046
0.67909664,71.012955
0.6478854,68.20776
0.66063654,73.36256
0.55270714,72.48332
0.5414135,70.0827
0.4628198,68.58306
0.54536736,72.27035
0.48020872,66.97801
0.37060532,72.32813
0.44520497,69.85808
0.46516645,75.95531
0.45386767,71.99648
0.6350911,77.83703
0.57383984,70.14238
0.5844394,76.4948
0.5757375,75.65169
0.53218305,75.08462
0.65657806,79.51448
0.5724795,80.54894
0.79929245,81.1045
0.83164376,84.202446
0.8852706,84.13729
0.98460525,89.25412
1.108974,87.19828
1.1530534,88.13122
1.2304592,86.50271
1.2592918,89.55776
1.389828,92.75138
1.4238753,97.8329
1.5432152,94.6385
1.4862305,100.32045
1.5775827,100.00636
1.6893351,105.077
1.6371934,107.42124
1.6629232,102.22436
1.7582543,105.49795
1.8698897,103.67716
1.805596,108.611046
1.9235836,108.78873
1.9411125,108.523476
1.9349273,109.646126
1.9674902,111.45234
1.8933274,110.69598
1.887154,114.15784
2.0371459,113.64565
1.9182442,116.88923
1.9301434,112.81154
1.9836587,113.79141
1.9556069,115.482925
1.9327419,117.55735
1.8335012,119.11874
1.940649,113.60427
1.8190842,113.5833
1.9131371,113.27123
1.9012164,113.752
1.8063729,113.17293
1.7770202,114.82146
1.7382789,111.75132
1.9203357,116.16294
1.7412066,115.52349
1.7152687,110.483154
1.6465201,108.745094
1.6175649,109.25
1.720521,105.289185
1.5935832,108.44172
1.6467075,110.13692
1.5695294,110.12167
1.5741538,106.81565
1.538484,106.29331
1.6473358,102.6259
1.6407479,106.86115
1.5570949,104.294975
1.4914101,101.8086
1.5192616,101.07053
1.5426636,102.41218
1.3667125,100.43556
1.3891574,101.46843
1.4584156,99.06185
1.4319992,98.7611
1.5040572,96.488914
1.4405107,96.72199
1.4081872,95.348045
1.4086398,94.84301
1.3633506,96.52323
1.406364,89.00835
1.2910774,94.066925
1.3559263,94.34108
1.184028,88.15435
1.21183,88.234375
1.2315286,90.50684
1.1847867,87.430145
1.1233283,87.12599
1.1408834,89.02999
1.0977967,84.89651
1.0250087,82.68011
0.93955755,83.01466
1.069476,80.54716
0.9722642,81.05408
1.055876,83.147934
1.049078,81.36886
0.94945645,81.78296
0.886663,77.02262
1.0706521,78.28895
0.88756067,74.29609
0.90002453,78.579636
0.8519275,73.68596
0.9143247,75.04665
0.94120353,72.43387
0.9749701,75.51403
0.8874561,71.27404
0.88874984,72.273384
0.8353164,76.06894
0.8908549,74.066895
0.817084,66.85997
0.7876527,74.0483
0.69334286,65.76172
0.7584963,70.600136
0.76394606,69.89821
0.72402185,71.30391
0.6604597,72.22273
0.59732246,66.334656
0.6864153,67.30998
0.5219453,74.55234
0.6003807,66.41542
0.5942565,70.4472
0.54043496,72.31167
0.55421275,69.08334
0.48575065,71.68659
0.41550705,76.06703
0.47964537,72.20775
0.58500516,76.88684
0.5434537,74.8798
0.5510966,78.35744
0.62850535,75.621414
0.5522363,79.9249
0.65726405,83.54367
0.68005216,84.28038
0.88751477,81.00974
0.92109466,86.1529
0.9468634,84.17533
1.0374112,86.11465
1.0615864,91.37459
1.187554,89.89179
1.1823514,93.63595
1.294491,91.33992
1.5070847,93.53224
1.4443982,98.061646
1.5173965,98.05131
1.5735286,98.63092
1.6033406,97.429375
1.6110244,101.169266
1.6184206,104.249016
1.775256,104.052986
1.6481944,107.581764
1.7530091,104.65914
1.8500814,107.12383
1.7405326,111.03533
1.7512435,109.848625
1.7047155,111.95357
1.8247173,113.7725
1.7860368,114.316536
1.8112016,112.022446
1.7303914,115.015785
1.8475946,115.48382
1.7610922,113.40411
1.7352827,111.28456
1.7272679,117.15775
1.6950115,117.94455
1.7477493,113.12146
1.752857,118.70404
1.6697103,114.36828
1.8236997,111.19454
1.6785551,113.195435
1.5831063,112.16306
1.5512158,115.98943
1.6435214,116.00663
1.425038,113.00912
1.6094328,113.83276
1.4726526,114.38799
1.5796856,107.50641
1.4424562,112.02446
1.3710777,109.04208
1.3651836,106.70006
1.4659723,104.92019
1.280893,109.16329
1.2356815,104.94883
1.3314669,106.74209
1.3645271,106.68954
1.2865661,102.460915
1.3271536,103.31448
1.2290176,105.10261
1.228859,103.33339
1.2413812,100.3799
1.1753484,99.97855
1.2397994,97.18595
1.2055668,95.634125
1.2182006,98.73612
1.1718669,99.42514
1.1329542,97.03461
1.1094002,95.90989
1.0526108,94.64983
1.0127784,94.94245
0.9378531,91.870186
0.991043,92.493965
0.9478833,90.3654
0.94220287,90.94029
0.8781787,90.17714
0.85524756,90.895584
0.7240588,89.23919
0.82794327,85.71563
0.68491685,88.47619
0.8408183,87.247086
0.64926594,85.55333
0.6980472,83.49573
0.6391357,81.31567
0.5925494,84.05574
0.5537669,84.68042
0.5541498,77.88461
0.56609654,75.54014
0.52422273,75.36594
0.5728931,77.25051
0.4986971,78.730446
0.51291615,74.327255
0.50218177,76.92605
0.52143645,73.15954
0.5957613,74.228584
0.5419618,74.32465
0.48876226,74.5386
0.5248834,70.646545
0.41356206,73.223854
0.45392245,71.879776
0.45152205,69.34021
0.35019568,73.96018
0.32017684,73.39563
0.31697747,72.65595
0.3120397,68.517006
0.3301006,67.621704
0.23232204,67.48142
0.22949183,69.427986
0.18452677,73.864716
0.12176618,70.30978
0.15546034,68.25195
0.026276724,68.82804
0.06755646,71.75983
0.09181342,71.26365
0.09373422,69.03886
0.068162955,78.256966
0.17544192,74.4942
-0.017472316,77.60403
0.14790045,78.54851
0.20567104,82.47077
0.18639642,77.66892
0.21958554,83.47727
0.3126593,79.30722
0.31913584,80.035164
0.4979362,86.23188
0.5134798,85.41982
0.481205,86.59053
0.6069339,88.27404
0.75434923,85.90333
0.659597,91.54327
0.8501498,93.58999
0.97288454,95.60146
1.0401589,95.971596
1.0774589,98.95154
1.0786972,97.00941
1.1283197,98.59671
1.153909,103.44914
1.2557987,105.66556
1.2845768,104.885925
1.3506352,104.58379
1.3727657,104.078354
1.41149,108.70565
1.3757607,111.93303
1.335313,108.1032
1.4529873,115.447
1.3896786,114.349976
1.3041425,110.932434
1.3898094,113.0212
1.4221939,112.04927
1.3953663,110.814354
1.4469028,114.220245
1.3585023,114.892555
1.4846007,116.56885
1.4189727,116.82849
1.5365386,118.09837
1.4708204,117.21153
1.3472708,116.600746
1.3704736,118.97019
1.3279804,116.24363
1.2402933,116.822914
1.2588894,117.93936
1.1830735,112.1878
1.1254267,110.68234
1.2015995,112.25177
1.0634221,113.92596
1.113098,106.71162
1.0383425,115.861595
1.1321375,108.31076
1.0718098,108.666245
1.0423789,112.39307
0.97632414,107.004845
1.000639,105.13481
0.9918497,105.95226
1.0805389,103.1709
0.98541033,105.27416
0.887809,102.58983
0.9700324,102.8309
0.94059926,97.2139
0.9232516,99.9687
0.9494756,100.323524
0.95155716,97.21987
0.81806254,99.95053
0.9385354,98.14018
0.92361957,96.11754
0.8561374,95.74276
0.7498635,97.77232
0.79334944,92.90704
0.81719965,93.022736
0.75298405,94.70777
0.7573401,89.85652
0.6562415,89.2694
0.6471463,92.36697
0.64262944,86.44803
0.57263607,90.23394
0.5757599,87.44739
0.5115866,86.96738
0.48897585,89.788315
0.5139774,87.64812
0.4601494,88.74989
0.5143814,82.5515
0.41194022,85.10677
0.44984794,79.80098
0.45099115,79.300964
0.44481748,82.401085
0.36154082,79.965546
0.3977034,79.022804
0.3210537,78.67666
0.44274414,79.10362
0.36113057,78.923965
0.46247667,76.32072
0.446662,72.20078
0.35342982,71.492134
0.27255493,71.473404
0.416465,72.58341
0.3505179,77.58655
0.3271592,68.85402
0.26156163,72.44471
0.2663538,72.01058
0.2247623,68.434555
0.21177907,71.168564
0.13326576,69.94965
0.1755928,73.27703
0.113844335,67.295
0.12031566,66.04102
0.13229774,67.32187
0.08520486,70.59548
0.039271228,64.80752
-0.011333525,69.421196
0.0106693925,71.06161
0.05342819,73.23445
-0.0422409,70.59117
0.040975265,68.54095
0.059776593,75.31522
0.00069381186,74.30923
-0.01357665,74.96898
0.13332246,75.64834
0.195006,73.616554
0.20087942,78.62049
0.1462829,79.80749
0.21183775,84.1173
0.21841872,84.39957
0.4126634,81.583534
0.4702908,88.376915
0.53954256,83.55349
0.63698626,87.97118
0.62750024,89.312935
0.77263844,94.6703
0.8554212,95.51405
0.94961196,93.13894
1.0057445,94.21224
1.0965252,95.94843
1.1117321,100.12119
1.164216,98.5163
1.1818888,102.180626
1.3111138,104.023346
1.3301558,106.62362
1.3015716,104.13049
1.3032358,108.814606
1.4007645,104.226074
1.3600452,107.31298
1.4326293,111.72303
1.46668,111.154724
1.6474259,114.81315
1.4162273,113.09288
1.4638412,111.27975
1.4829538,114.845795
1.4615592,117.16093
1.5106072,114.53938
1.4178809,114.110855
1.5005914,111.85378
1.4043878,116.17222
1.4805292,118.330284
1.4852989,113.783844
1.3660141,117.45588
1.3994205,114.96017
1.4355159,117.66485
1.3613933,115.88115
1.4386091,115.0851
1.3597822,110.80359
1.3345922,111.52714
1.2979252,110.44871
1.2460058,109.66231
1.2981327,111.68766
1.3290524,109.44256
1.2835157,111.55406
1.1210445,109.82132
1.2293333,110.33076
1.1960336,107.482315
1.281541,103.57685
1.2144569,106.26401
1.1050534,105.32215
1.2306856,104.10264
1.2237189,106.18006
1.1372707,104.08577
1.1447221,102.87272
1.1947027,100.76133
1.1914241,97.77645
1.141966,100.05818
1.0974658,98.6815
1.0528804,97.66686
1.1699547,95.48714
1.148181,95.67318
1.0830313,93.58528
1.0576069,93.77038
1.1291708,92.753746
1.0177886,93.62632
0.9686235,87.95781
0.93444717,91.44133
0.9207927,90.97829
0.8898762,89.75989
0.8149411,88.371574
0.7950432,88.123085
0.7933774,88.86928
0.7931415,90.54087
0.76413894,84.3949
0.76780987,79.78607
0.7416164,84.24157
0.6117867,81.36511
0.6619862,81.549805
0.7727377,82.19414
0.6404892,83.98774
0.5556885,79.57561
0.80369747,75.18948
0.65678924,75.71905
0.63619715,80.712395
0.6575049,73.551094
0.6703899,73.25853
0.68501556,72.92564
0.7248989,69.1538
0.65372264,72.0655
0.6352811,70.84199
0.7294235,72.57697
0.5814755,70.607994
0.6079797,74.21552
0.6072643,71.108116
0.6200558,73.38362
0.48970932,74.11068
0.54156613,70.723404
0.5699889,68.44366
0.5655518,69.98051
0.45225117,70.69652
0.3610328,70.78914
0.47394884,69.746544
0.521627,70.373856
0.52564466,72.7372
0.4339683,74.36151
0.3815275,70.6798
0.32439584,71.415146
0.24615094,70.242645
0.3710852,75.90054
0.33940777,77.282906
0.3950358,75.98977
0.38408998,77.66132
0.57361305,74.31182
0.52757657,78.184326
0.6197605,80.79758
0.6415956,80.465485
0.7177285,80.32687
0.81438285,84.466835
0.78518724,81.5774
0.81529236,89.43205
1.0430152,87.4835
1.0812294,89.78976
1.1526212,93.65664
1.224053,91.209206
1.3802322,94.822014
1.3634725,94.73866
1.4526627,99.11076
1.4990585,96.31128
1.5769694,105.20097
1.5515352,102.38807
1.7175769,100.146225
1.6288955,105.13132
1.6961625,105.41023
1.7984202,108.97351
1.7977122,108.39401
1.7841097,108.22729
1.8260682,110.45184
1.8028951,109.03977
1.9339293,111.079315
1.7643427,113.870125
1.8335129,116.83053
1.9108151,113.17585
1.8354332,116.67065
1.8230137,113.30613
1.8317449,115.43988
1.9232248,113.29709
1.7852173,116.53311
1.9164479,115.17726
1.8077307,113.310455
1.8233819,117.21841
1.8050362,115.20801
1.7843311,115.279305
1.7316244,116.709
1.8294652,114.77086
1.8293806,116.04104
1.701066,112.44959
1.7627751,113.82148
1.7464556,109.47632
1.6182908,116.677826
1.5977046,108.91
1.6187595,111.470665
1.588627,107.970825
1.5338857,109.72424
1.566701,108.68615
1.583327,107.28045
1.6207561,104.87259
1.4805659,106.08495
1.5698451,105.907715
1.4836364,103.30494
1.4795504,100.858055
1.5168962,102.07683
1.4595895,99.98307
1.4450953,96.541245
1.4436308,96.99605
1.5041972,98.80674
1.4633354,99.68025
1.401268,98.3671
1.4051843,95.48236
1.4327812,94.27999
1.4385839,95.47094
1.3896656,96.085785
1.3153011,94.91908
1.3924545,87.768326
1.1949655,92.77756
1.1675314,89.24851
1.1866248,91.74803
1.1264889,89.01721
1.1900572,88.93332
1.0917329,88.44765
1.1090807,85.98045
1.1161817,89.19552
1.1157509,85.96995
1.1163685,85.70641
0.95238245,83.67094
0.91940993,81.69138
0.96624774,85.18491
0.9880957,81.13037
0.94387156,77.67102
1.0482672,77.91484
0.9602607,80.0999
0.87135434,78.23839
0.9976978,76.52746
0.9811014,74.97273
0.9677373,78.533875
0.9351784,73.977684
0.8796478,72.39689
0.93481344,70.18559
0.8670421,74.75422
0.9156631,68.81023
0.8249054,72.82445
0.89898986,68.78264
0.81533307,70.17694
0.7595272,72.41932
0.7935128,65.814735
0.8242658,76.356606
0.6673772,69.180534
0.7234782,69.47783
0.5770612,70.1577
0.6658696,66.270744
0.597976,70.642334
0.55029875,72.86303
0.52587324,72.0475
0.50670713,74.027985
0.53003913,69.51717
0.53624445,73.736786
0.56078815,73.038864
0.67993635,77.44903
0.5165069,73.39564
0.6283163,74.76624
0.49664545,77.20814
0.6863118,77.61172
0.65806276,79.44828
0.6865811,77.89353
0.79573286,80.11548
0.8783648,85.26989
0.9695347,82.7596
1.0186421,87.22114
1.0462693,88.77015
1.1578037,92.728386
1.2438347,93.28136
1.4338114,91.62306
1.4286107,92.50589
1.3519397,95.582695
1.6210486,95.737015
1.5660163,99.90035
1.6287601,96.060936
1.6197011,101.32603
1.7377557,101.095894
1.7549177,103.953384
1.7219903,102.70405
1.7450861,106.361946
1.8208076,107.262245
1.8057048,106.81185
1.7762961,108.99038
1.9673417,110.768814
1.8879604,108.65963
1.9545213,110.974815
1.9673648,113.7633
1.910214,113.574715
1.8982882,115.21291
1.84223,111.1846
1.914599,111.59534
1.812696,113.39529
1.8468153,117.27035
1.8750796,117.25526
1.8579566,118.204796
1.7921646,116.0072
1.8272799,115.65609
1.8056862,114.365326
1.7112498,116.352646
1.7028967,116.355934
1.731197,116.350006
1.5914046,112.03226
1.7293901,115.15233
1.6524854,111.27433
1.6046021,110.396805
1.6649978,113.435074
1.5206401,110.13586
1.5099909,108.329735
1.534829,113.412224
1.4868249,108.70703
1.3918647,105.33682
1.4391729,106.397514
1.3788472,107.26235
1.3995467,107.20438
1.3643982,105.98646
1.3935616,103.44047
1.4293272,98.925255
1.3772589,104.62226
1.3046167,101.572495
1.2781892,100.38131
1.322059,99.46048
1.2683907,98.95883
1.2203945,99.40197
1.3065801,97.96203
1.2778577,95.24112
1.206676,94.60714
1.1616386,94.15076
1.1737794,96.843575
1.1679461,91.748146
1.0278282,91.52902
1.0610821,93.45078
0.98730785,94.40362
0.9304945,86.88371
0.9534841,89.58945
0.89840895,89.46914
0.8931587,87.33385
0.7934424,85.259575
0.8842778,83.67587
0.6969633,84.34773
0.7664088,80.29219
0.7853041,82.156136
0.6817036,81.11667
0.7135404,82.29845
0.74442637,78.7122
0.6690052,80.11704
0.6282014,78.84936
0.59778357,77.34701
0.60762674,78.564545
0.6338054,76.75189
0.74090403,74.435165
0.63540685,70.35913
0.6101152,76.27981
0.63832015,73.82696
0.6860697,74.62719
0.7017118,68.545525
0.5735783,70.978935
0.4522415,71.86769
0.58735293,69.11505
0.5259474,72.51139
0.5337681,69.01344
0.37270173,67.2441
0.36642206,72.039734
0.42028126,69.8166
0.34238255,66.60238
0.26061755,72.99092
0.2202151,72.22879
0.29610905,70.83497
0.28640187,69.01198
0.24771994,72.690735
0.20734374,73.53687
0.13443427,70.20962
0.11629986,71.32082
0.23952955,77.01613
0.12948981,75.71073
0.26636335,78.95795
0.28611755,74.93481
0.34530765,78.966934
0.3979849,78.94132
0.36377153,83.87299
0.48454905,78.67329
0.59885716,82.793594
0.6446596,83.77792
0.59712064,84.109985
0.7000926,88.41674
0.8268657,88.31682
0.79488146,93.80174
0.91095066,93.1649
0.9479723,97.16499
1.0836557,93.551506
1.0948842,95.30903
1.1245768,99.18601
1.1936406,100.786316
1.227296,102.90739
1.256198,101.715996
1.36188,102.98873
1.3959471,103.34256
1.2721881,109.55571
1.3522642,109.37248
1.5062215,108.768
1.4005319,108.323
1.4371006,111.0023
1.5123551,115.86593
1.497842,113.05696
1.4755417,117.74709
1.5947452,113.39349
1.3841984,117.69001
1.5117832,117.564865
1.4659858,113.01551
1.4566048,113.73834
1.4236152,113.93413
1.5436313,117.46204
1.491886,115.86121
1.3684658,118.88555
1.4896085,117.03422
1.4732075,115.54405
1.3395748,114.88013
1.3983735,113.99934
1.2764437,115.4718
1.3558671,114.63678
1.2246741,113.01863
1.2643434,111.348885
1.2230908,107.46611
1.1321974,107.61456
1.2116168,111.24865
1.1264951,111.879776
1.1048015,108.461075
1.0514297,108.03136
1.0301358,108.72671
1.0074044,107.275856
1.002264,109.00536
0.93351763,105.91209
1.0064871,102.95866
0.9277119,98.80674
0.99594194,98.94717
1.0796803,104.729996
0.92912024,98.846725
0.9047095,99.03544
0.83368295,100.28598
0.8918322,100.882195
0.8850015,97.871704
0.89488834,97.42853
0.85039294,99.23585
0.87921864,97.84856
0.7955249,91.52295
0.7721348,91.94327
0.72372794,93.0297
0.7367552,92.28522
0.66250986,90.81781
0.7044953,84.402725
0.6328701,88.44349
0.6169164,90.30884
0.5368253,87.71707
0.5302424,85.65686
0.53867704,85.66843
0.4215013,87.35789
0.48311657,81.74678
0.43836758,81.94266
0.38687295,81.788055
0.39099088,81.927155
0.36356482,79.98526
0.40558547,83.44083
0.30846533,81.31481
0.36077192,77.11547
0.3179982,77.59724
0.33549893,75.30624
0.2742125,74.401375
0.2982278,78.113365
0.34994784,74.498665
0.36650166,73.99585
0.2492423,74.10704
0.4099378,75.879135
0.27541542,73.09775
0.22415175,70.482216
0.3218041,71.5887
0.16724382,69.828674
0.30072445,69.84051
0.19018532,70.23928
0.19700009,67.3379
0.09935998,70.12421
0.19452493,65.96392
0.16113855,72.28193
0.014809407,70.61387
0.015625393,71.73933
0.066100605,71.6332
0.04745882,69.80004
-0.040644944,70.555626
-0.062462684,75.426025
0.05587435,74.16518
-0.11869133,74.83891
-0.013377754,72.696686
-0.021722795,73.48426
-0.013394204,77.193436
0.05472109,74.62024
0.060121316,78.097565
0.038185783,77.97321
0.09918037,82.12281
0.25418404,82.01126
0.3242744,84.750854
0.34530014,85.3657
0.4363917,85.89331
0.52211004,82.326004
0.5827477,88.34283
0.7100451,90.43341
0.8233477,95.09082
0.8160468,94.23837
0.8764481,93.30475
1.036879,95.397766
1.0874575,98.10296
1.121544,98.998604
1.1055242,100.192635
1.245304,100.519135
1.1821871,104.46938
1.1885368,104.522255
1.3800422,105.01451
1.282873,107.16617
1.214414,108.2894
1.3549051,108.21428
1.4356778,109.83813
1.340937,113.67553
1.3110666,110.75119
1.4326636,110.77263
1.3433589,108.94523
1.4742924,113.83097
1.3213787,111.7192
1.3076386,118.6925
1.4388553,114.632576
1.4278187,114.218506
1.4439079,115.97283
1.3972248,116.24938
1.4195904,115.87966
1.375931,116.96705
1.335022,118.51402
1.3800721,114.942856
1.2867546,112.81514
1.3118613,112.410904
1.2918826,112.19635
1.238688,113.41129
1.2026259,114.71808
1.1944823,112.79234
1.2320704,110.73577
1.1370994,110.244545
1.1704494,105.92268
1.1695242,108.64552
1.1701354,108.68539
1.0284775,105.015015
1.0243745,107.129074
1.0847842,106.04707
1.0875034,105.29873
1.0216368,106.392876
1.067072,101.99176
0.9688842,99.99158
1.0449271,103.59463
0.9972466,100.48842
0.9193002,98.66687
1.0173616,99.684135
0.907902,99.50725
0.9126416,97.04808
1.0529652,96.77599
0.9719036,95.11969
0.8986498,94.86893
0.8791083,94.94933
0.9339648,95.71757
0.9561525,94.76206
0.88138145,93.73041
0.91405296,89.36982
0.760903,88.07291
0.81775105,84.737724
0.76161176,89.01879
0.8085161,87.91706
0.7551587,87.80173
0.6655805,86.60143
0.6151134,85.98162
0.61811936,85.201706
0.5839568,85.45537
0.6117488,82.122856
0.5063291,82.36441
0.69273657,81.26473
0.6480407,82.184654
0.5324499,79.87505
0.60549504,73.20412
0.4183898,76.52898
0.5816923,77.110825
0.5407802,75.038605
0.4851041,77.975945
0.6483982,77.44273
0.40176144,76.26416
0.6105931,71.189316
0.4735012,72.135376
0.573301,71.15727
0.52767414,69.12832
0.41160557,71.375626
0.39671773,68.256195
0.38079873,69.53598
0.48934114,71.26536
0.43551913,70.64865
0.3419879,69.52722
0.34408486,71.83427
0.36234483,73.19829
0.367277,70.71791
0.30313814,70.60576
0.33611053,67.20618
0.2123151,70.943184
0.31891742,73.43186
0.24780306,70.84378
0.21187261,72.31913
0.27715045,73.46634
0.31297326,77.215965
0.26156735,73.93011
0.28983337,76.62869
0.36726555,81.09027
0.33235586,75.45693
0.46311858,76.80089
0.45223954,81.71928
0.49456012,83.60119
0.6004151,83.48006
0.6801584,85.60838
0.78748524,86.261925
0.8322182,85.006454
0.90068424,90.82779
0.99092305,92.95797
1.0419955,90.75927
1.2967674,91.57423
1.212932,98.05549
1.2991066,93.538574
1.2966955,100.830826
1.3486581,96.51323
1.36119,102.96292
1.6384732,101.61561
1.609585,100.44042
1.5664481,103.50396
1.6275206,101.91273
1.7057385,106.08358
1.69523,110.0586
1.7156154,113.46769
1.7192158,108.35653
1.8040388,111.348305
1.7555501,110.22136
1.7925985,114.870926
1.6987969,113.82301
1.8115981,115.90404
1.8679366,113.33481
1.7790005,112.59353
1.8494513,112.83668
1.7340399,112.830826
1.6925969,112.5841
1.8675929,115.8642
1.8400286,116.8282
1.7066926,113.36017
1.6999629,113.1161
1.6661415,114.614334
1.7553849,112.84079
1.7088203,114.98079
1.6383818,115.33741
1.6351271,112.84374
1.6366482,113.13996
1.6265758,112.52685
1.6362975,110.34705
1.6587434,110.07503
1.5096996,111.739365
1.4514645,110.21282
1.4824238,105.75773
1.4361619,106.570595
1.4351964,108.148094
1.415996,102.15461
1.4768945,110.097435
1.4325206,104.721565
1.485415,102.52156
1.4238728,103.623535
1.509178,103.18108
1.4529594,98.529976
1.412326,101.68347
1.4674059,97.83847
1.4448051,97.58396
1.2771498,98.51044
1.3973397,97.6808
1.3133491,96.6808
1.3672159,95.81111
1.3196608,96.576546
1.4138035,91.60726
1.2602639,91.89745
1.2651222,97.76344
1.2127347,93.24933
1.2234161,87.95327
1.1226414,89.59113
1.1729683,92.570854
1.1171408,87.83033
1.116744,88.760216
1.0661707,83.30253
1.0508391,84.87967
1.0852888,84.14236
0.9559349,84.43963
0.9306718,83.14524
0.9945682,81.05199
0.8941176,78.04327
0.9594455,78.4655
0.8831897,83.45387
0.97646415,78.24049
0.8449516,77.91111
0.9773254,79.58689
0.88269776,72.764755
0.8343119,75.51058
0.85694224,75.07185
0.87575024,73.26884
0.93809116,72.46487
0.8860774,70.66227
0.8160068,69.5037
0.94752526,72.8174
0.85010135,70.10374
0.8482159,67.34017
0.7266963,67.31556
0.81690174,69.42453
0.75696623,68.51001
0.8527494,67.46097
0.6711606,69.81251
0.63030565,66.9174
0.7011916,68.289375
0.66066,70.62497
0.72190446,71.0461
0.55699843,69.30734
0.6032637,72.7739
0.5473242,66.519394
0.54076743,70.08678
0.61697334,69.33888
0.49215215,73.664635
0.49249294,72.22263
0.5708247,73.938156
0.58272475,77.366066
0.60270613,78.12193
0.7108979,77.9876
0.6949274,79.218155
0.7579504,80.35809
0.90702397,82.93385
0.93974644,87.25672
0.9755282,85.054146
1.1240016,90.61723
1.1886091,86.41648
1.2939949,89.09989
1.3025553,91.46464
1.323717,91.0402
1.3202342,91.85997
1.429325,93.8881
1.4874251,98.20541
1.6152686,99.55703
1.7287918,100.76341
1.6956284,101.15962
1.802434,105.781654
1.7206072,105.55746
1.8542217,105.26478
1.8254936,103.06493
1.9330363,108.29444
1.868169,103.38185
1.8336139,110.2477
1.9796604,111.33708
2.0460522,111.280495
1.9824312,107.015854
2.0619793,114.76128
1.9612466,112.768
1.98822,115.166336
2.0524096,112.556885
1.931413,113.43918
1.8601174,118.12791
1.8820943,115.24411
2.0136585,117.65074
1.9328974,114.85928
1.9652559,114.77852
1.8891681,114.39787
1.8623581,114.215126
1.7367673,116.34968
1.7609997,111.666885
1.8023725,114.55239
1.8243023,110.42808
1.7057621,116.42515
1.7129301,112.60543
1.6480464,112.077415
1.5431484,109.90418
1.574414,113.156624
1.5701854,113.0354
1.5452881,107.0522
1.5707071,107.98746
1.4408923,106.53711
1.5582895,104.71423
1.5151858,109.751495
1.5503567,106.87945
1.3786145,105.855125
1.5079983,104.353355
1.3908681,104.26831
1.5021219,103.17214
1.4435383,103.23746
1.2560297,100.90936
1.4471543,97.88446
1.3821777,97.93733
1.4087627,100.26928
1.3603908,97.743614
1.3491964,96.071945
1.2045945,97.70382
1.34201,93.04606
1.2920923,92.88172
1.1983024,89.68014
1.203968,92.98313
1.0866045,86.90394
1.1105897,88.92076
1.0974852,88.93381
1.0659742,89.4014
1.1384932,85.03513
0.95574194,87.17883
1.0290105,83.239944
0.9030087,85.79502
0.97784674,84.17316
0.9009868,84.6214
0.82570434,80.849106
0.8357382,80.09164
0.7888644,80.57408
0.7922811,82.290375
0.84192514,74.74555
0.8726031,78.91283
0.9471928,77.0836
0.6943075,78.20428
0.77622074,75.380325
0.7519618,77.11116
0.76896137,73.07541
0.743238,74.50146
0.60471684,71.82652
0.7072579,76.22711
0.7215565,71.80179
0.7099766,71.84825
0.67622954,69.85178
0.6945647,68.68884
0.55383337,70.06209
0.5649833,73.372604
0.54234993,68.21471
0.5548608,73.38963
0.6032107,69.82842
0.5813403,75.34765
0.47806194,69.794075
0.39271507,68.74961
0.37304607,68.762215
0.30557862,68.89252
0.3819795,70.81288
0.33058897,68.88656
0.3496655,72.63815
0.35143274,71.851364
0.29557914,78.05593
0.33932996,76.392914
0.3315596,78.35747
0.32212058,78.8045
0.42274797,77.747185
0.50174177,78.77878
0.47886112,79.518776
0.6217056,81.66122
0.7376546,82.71168
0.68168324,88.17611
0.82086194,87.07779
0.87104434,89.354095
0.9799948,87.3138
0.9900616,91.060936
1.1106913,92.75437
1.1698253,93.90739
1.1223357,100.24109
1.2461363,98.48194
1.2800672,99.255905
1.341406,98.40061
1.3156159,101.202736
1.4696321,104.41919
1.4894897,103.29145
1.4290855,106.74675
1.6248999,106.20338
1.4992375,111.457924
1.5973415,109.30982
1.5633148,109.42042
1.6229695,109.62866
1.5625422,108.88395
1.5282476,111.56312
1.5582558,112.4984
1.5016778,111.98724
1.5308433,115.22456
1.5661168,112.27637
1.4783494,114.734695
1.5302563,116.634094
1.4547162,115.58375
1.591835,111.79825
1.5734602,117.02219
1.5878367,114.9996
1.5187311,114.80738
1.4302315,112.3528
1.4391168,113.52604
1.3222255,115.3909
1.4056114,115.14136
1.488665,113.8509
1.3349688,111.84923
1.3554801,112.051765
1.2694569,110.87815
1.2538174,112.325836
1.2791834,112.02791
1.1253805,109.46237
1.2234921,112.02435
1.2459015,112.658104
1.1629319,108.53162
1.0733117,105.47798
1.1213504,101.90681
1.1383762,104.96706
1.0427728,102.46354
1.1119657,102.21267
0.97705793,100.31793
1.0013438,101.74085
1.0044937,103.489136
0.9631936,98.20105
1.0889331,101.019516
1.0433596,96.5209
1.0271133,100.54993
1.0072007,95.132515
0.8296402,97.636024
0.91378707,93.395386
0.9117952,94.605034
0.85523415,92.93434
0.8024331,96.029274
0.8360713,91.06123
0.80573326,92.13082
0.7050329,91.13835
0.65359795,88.1609
0.6394984,87.9743
0.7081256,87.82706
0.4930514,86.86026
0.5095607,87.663086
0.43300515,84.82633
0.5022931,83.16807
0.46241283,80.395676
0.46957216,85.41172
0.38988772,80.87528
0.3444976,83.78392
0.41611928,81.37882
0.3676481,80.45837
0.43379256,77.99286
0.3422861,75.67852
0.31813958,77.19837
0.3566078,79.145134
0.3285107,75.45107
0.3637288,74.63202
0.4116898,73.22412
0.2981906,72.87713
0.40230346,72.4094
0.38248605,68.4778
0.24829601,73.79971
0.32125086,69.685326
0.34194693,71.944595
0.2954884,71.39455
0.31256536,66.31543
0.17244296,65.26729
0.12916598,73.44563
0.19773708,73.52249
0.10084273,70.17771
0.121095404,69.6978
-0.012887606,73.22903
0.028262679,71.47059
-0.09674158,73.64151
-0.1084028,68.38375
-0.0170724,69.78919
0.026415648,74.68322
-0.13422336,69.32229
0.04584516,75.55154
-0.024033343,77.01103
0.00061429414,76.53681
-0.021869386,77.14282
0.07664423,82.88949
0.11105848,82.273254
0.11983167,80.206696
0.26294583,85.76709
0.22092636,81.27469
0.39819008,85.49077
0.45789763,87.79144
0.52812874,88.83519
0.56817645,92.30415
0.6663101,94.13211
0.7781103,93.948135
0.85428005,92.191536
0.9448953,91.48892
0.89857703,95.20824
1.0005214,97.94342
1.0322646,97.992775
1.1235768,102.93034
1.0299914,104.55145
1.1878791,103.73687
1.2072812,110.04981
1.3208016,105.200966
1.2643375,103.749916
1.308967,106.10599
1.3052417,106.29742
1.3466002,107.943
1.3276113,112.89906
1.449649,116.773506
1.3315365,112.69896
1.337477,111.40035
1.4208963,113.66561
1.3990846,114.53495
1.3643824,112.63539
1.2804607,111.121826
1.3410089,113.34369
1.3735292,113.70383
1.3244884,116.36625
1.3036674,116.75995
1.3546876,115.07824
1.3186865,115.570656
1.2413441,116.492256
1.2443277,118.39971
1.0911702,114.87814
1.2162725,116.10305
1.0920402,114.45905
1.0820212,113.169395
1.1566281,107.60019
1.1355311,112.529366
1.1238785,112.48413
1.061659,111.19459
1.0309024,110.86016
1.0376905,111.8393
1.0123304,111.06302
1.0055685,106.78297
1.0671726,108.12812
0.9671477,107.367096
1.0256335,105.445984
0.9732242,102.974236
0.9696654,99.05622
0.92624694,101.90648
0.8468521,98.11332
0.9363892,97.92467
1.0184362,99.37267
0.9811337,98.59883
0.8804745,93.11659
0.8730521,96.32609
0.8509281,97.4523
0.97365785,91.862625
0.84203,94.127884
0.73291844,97.12453
0.78493875,92.43033
0.8462184,92.18344
0.68413347,89.65878
0.7231833,87.14136
0.7412668,88.10715
0.6377909,91.46439
0.53984004,87.88858
0.61851126,86.16276
0.55378044,82.740135
0.58344585,82.71855
0.5767508,84.84755
0.5511316,85.35803
0.59121877,81.12478
0.43128794,82.66227
0.4662889,81.48639
0.44149667,80.52902
0.4492438,80.78314
0.44015235,77.16989
0.3648225,81.25418
0.52118003,75.04019
0.4448122,78.540634
0.3656453,74.022255
0.44769204,77.042465
0.5232546,73.20834
0.49255878,71.18558
0.4252475,69.55038
0.46397054,69.65265
0.4209506,70.490746
0.30965105,73.40687
0.42117262,73.960495
0.3718888,68.8432
0.38008007,69.528244
0.36105767,68.69248
0.24386467,72.63868
0.3026909,74.78962
0.19825964,69.563675
0.19956443,72.412994
0.1649885,71.355896
0.14082044,72.63539
0.12148233,72.57954
0.1278784,70.248085
0.12213547,70.79365
0.002943979,69.42189
0.067711726,70.65109
0.13105747,75.11472
0.16891402,73.74402
0.11656588,77.62749
0.17748515,76.33776
0.23858593,77.27942
0.3173311,80.593475
0.4287365,82.43211
0.4602727,81.786964
0.5126286,83.48818
0.6925251,86.03034
0.60528845,88.25888
0.8420594,84.33369
0.7695376,94.43186
1.0001094,88.938705
0.98891723,94.19645
1.0613252,93.5936
1.087367,91.38291
1.182236,95.40826
1.250357,97.69909
1.341311,98.274826
1.3534682,102.25092
1.4709284,101.610565
1.5051156,104.349
1.443398,104.80833
1.4520369,106.91315
1.5325317,105.13895
1.5983746,110.21792
1.5894767,109.3689
1.6865712,109.21708
1.6740713,110.06943
1.7402253,110.02514
1.6492642,115.10575
1.6741562,113.541306
1.6001391,114.32289
1.6977192,118.62978
1.6426281,113.03228
1.7212152,113.661644
1.6411132,116.23092
1.7534769,114.98804
1.6090323,114.235985
1.6367658,116.08867
1.6729795,116.05991
1.6116346,114.29027
1.614038,117.06618
1.5322121,116.75014
1.6861154,115.08706
1.537178,114.11375
1.5320541,113.23642
1.4825652,111.20444
1.5424646,110.06023
1.4204936,116.37712
1.487006,109.4916
1.4876899,110.95932
1.383436,111.18896
1.341041,107.5648
1.4049294,104.33559
1.3618289,108.16048
1.305131,104.20334
1.3560843,102.57419
1.4136147,100.0307
1.3886838,104.47753
1.3876258,106.74649
1.2971352,99.57093
1.2762272,102.442955
1.36233,99.672226
1.2548732,101.860344
1.3016783,99.90492
1.278885,98.86262
1.2468853,96.31561
1.3831785,94.24261
1.3868223,95.43225
1.242713,97.50201
1.2583616,91.7997
1.2214631,92.799835
1.2091233,94.78575
1.2166531,88.8673
1.1135556,92.55448
1.1267345,88.60433
1.0537255,90.10417
1.107353,84.273155
1.0473413,91.165245
0.9654011,88.35067
0.94976944,84.655106
0.9571312,88.35575
0.91264075,83.16373
0.9422006,86.225235
0.91603005,80.27371
0.76181567,80.815506
0.77834755,75.56125
0.931181,79.75998
0.96252614,77.3516
0.84140795,77.775505
0.8881491,78.13315
0.90226597,77.30385
0.83495086,75.20252
0.91600245,76.72406
0.8904322,73.0783
0.85358995,71.729546
0.87051773,73.57516
0.8949509,73.238045
0.8394864,75.75983
0.7853602,68.066505
0.81216973,71.4068
0.7288311,68.06573
0.7512077,71.45904
0.57931256,67.263084
0.63734335,69.31546
0.7437967,68.28836
0.6531026,65.39511
0.56023157,69.02516
0.6632615,68.47536
0.4460476,73.2398
0.5820481,73.47895
0.48317713,72.6429
0.5490216,68.42379
0.6620345,73.473724
0.48096067,72.55888
0.55031264,73.76375
0.5322237,76.994255
0.610219,73.849014
0.5856863,74.01519
0.563115,79.25225
0.6751292,75.12496
0.81730807,79.20761
0.8352719,79.47358
0.73933405,79.81924
0.9017337,85.24008
1.0175813,83.69408
1.1760429,86.917946
1.1656672,92.02324
1.2494131,90.125694
1.208053,92.74985
1.4095747,89.45201
1.4178256,93.897415
1.4587511,96.668945
1.474028,99.48107
1.6122179,96.12849
1.6757647,101.49529
1.6747857,101.981285
1.7197225,103.48875
1.803931,105.80421
1.8340323,104.884964
1.8623035,109.09557
1.8885659,108.959404
1.8302894,111.966805
1.944598,111.78936
1.9140857,111.43525
2.0137393,114.5648
2.0302322,113.55009
1.864851,116.00879
2.0145674,114.92805
1.9340094,114.384254
1.9030422,115.20733
2.070122,113.90209
1.8874562,113.23116
1.9425517,110.2094
1.8949082,114.00464
1.9634941,116.683876
1.8706383,117.03391
1.9338622,117.902725
1.8017899,112.92504
1.9516833,112.965614
1.794211,114.22713
1.8157738,116.48651
1.7391044,110.48869
1.6809886,109.46784
1.7562555,111.03907
1.7076726,111.1945
1.6139243,110.515686
1.660779,110.36777
1.5977383,105.03111
1.5090293,108.548355
1.625215,105.02051
1.5037224,106.12417
1.5754149,103.92764
1.5164807,105.483864
1.5682905,104.564354
1.5557988,102.23187
1.4349124,102.47346
1.4304713,104.09538
1.4910274,102.141716
1.424835,100.8528
1.4654748,100.492165
1.4250005,96.815956
1.4054443,97.40987
1.4306782,96.630745
1.3666449,95.56739
1.4412035,95.46781
1.3196411,93.95769
1.3865249,92.9132
1.3219246,93.33008
1.2881037,91.45339
1.25649,91.5249
1.2016662,90.28697
1.2014308,88.97828
1.2067856,88.04269
1.2038558,86.11374
1.1465292,86.443596
0.94825166,84.63066
1.0306135,83.98877
1.0424398,85.05112
0.9716959,81.359505
0.9689759,84.13976
0.93895113,81.7524
1.0003325,80.43014
0.8380567,78.237564
0.91096085,80.613495
0.7693761,79.17201
0.965166,76.27344
0.7872162,75.159
0.78167856,74.35778
0.8660069,74.988846
0.8833251,78.23132
0.8377333,72.02125
0.79625237,72.16305
0.8716085,70.964134
0.75608456,72.5263
0.7516073,68.896065
0.8003865,72.34957
0.73185354,73.351494
0.7576398,71.05428
0.7645624,66.74727
0.7146451,69.24732
0.704064,69.0541
0.57202154,67.526794
0.4469208,70.04567
0.68931055,73.95679
0.45130858,69.75601
0.4878853,70.69929
0.40110928,68.702805
0.4630875,71.39038
0.49617085,71.94699
0.43666264,74.06235
0.33078182,73.324326
0.4297954,71.584564
0.37461504,73.639465
0.45260915,75.5458
0.44053707,76.16456
0.5963738,79.49446
0.51987296,79.18158
0.7124184,84.715675
0.61627626,77.31746
0.73927295,86.26283
0.77519614,88.68231
0.9765132,84.96294
0.88567597,85.39455
0.98290575,86.38527
0.9904915,92.40938
1.130683,94.4348
1.1967678,96.50388
1.3765303,94.52878
1.3788943,97.83212
1.4274843,94.0145
1.421,96.14764
1.5544703,102.57638
1.4403644,102.7476
1.4874815,103.0225
1.6626763,108.86722
1.6340383,110.30877
1.6323442,103.704216
1.6331519,108.078926
1.6914617,110.39393
1.7620039,111.72949
1.7453445,108.760315
1.739871,114.267555
1.6615435,107.052956
1.756511,115.808266
1.6229982,113.27639
1.7669406,115.47826
1.6834415,116.659904
1.708294,113.51811
1.7293259,116.72947
1.5726982,115.52343
1.6635371,113.56487
1.6009176,112.70391
1.5709244,115.61364
1.5976737,116.83073
1.582347,116.4641
1.6357939,113.515015
1.5258843,113.55708
1.5231338,113.96505
1.4344174,111.75681
1.4392136,113.43802
1.560898,110.03862
1.4005933,113.60732
1.2553446,108.86048
1.3206905,107.12169
1.3981268,113.457275
1.295264,109.52862
1.3299655,108.83217
1.1633824,105.86266
1.2047704,106.38892
1.2420455,108.28119
1.2338127,103.16462
1.1458519,105.88235
1.1760033,105.64541
1.2125707,100.40172
1.1031837,103.32439
1.0794537,100.328094
1.0455782,99.89412
1.1631922,100.480606
1.0105865,97.30598
1.1235529,97.15634
1.0916224,96.04931
0.98181236,90.74096
0.98851395,96.18107
0.9968715,93.56577
0.86679053,92.43457
0.8371213,91.81557
0.836628,93.05587
0.9027861,87.757645
0.86554366,93.23164
0.78628427,87.19928
0.82056713,88.2542
0.6604333,86.52605
0.72173995,85.75032
0.6378096,87.07229
0.5419521,83.06021
0.627099,81.65641
0.5377318,80.15147
0.52755594,80.30028
0.43982947,82.838234
0.43136033,82.7402
0.52441394,76.76516
0.47568363,81.982414
0.4392391,78.846596
0.5022796,74.95371
0.40008396,76.23986
0.43272805,70.504524
0.4363836,73.77444
0.44625184,72.90047
0.4438179,74.989334
0.46844256,70.10397
0.41158307,68.752815
0.42775327,71.94491
0.36908805,73.48203
0.36618653,71.89275
0.36964887,72.414246
0.38491318,68.638115
0.3114794,71.09588
0.2595468,71.616425
0.15687315,65.74171
0.21857823,70.98592
0.16832091,70.683426
0.119409285,67.65615
0.15743965,67.67704
0.003227173,69.7977
-0.005160798,72.11291
0.04509046,70.45725
0.040263794,68.35968
-0.026236586,70.310265
0.033011075,70.37903
0.051387895,70.169846
0.073254526,72.8349
0.001702569,75.759026
0.11957632,80.348976
0.22512808,81.752335
0.21364602,76.85572
0.29321668,81.346565
0.35213804,81.98321
0.38417473,83.1511
0.47662503,83.95366
0.4974796,87.81245
0.5859135,86.074646
0.59665847,89.23273
0.6548011,88.89393
0.74776304,92.21191
0.97494847,93.83112
0.9946192,95.89129
0.98082906,100.264145
1.0733079,98.42932
1.0832328,98.69364
1.1198809,103.512024
1.1243865,100.76692
1.1532373,104.82541
1.198754,105.393364
1.2699895,109.48664
1.2602619,104.11664
1.3132077,109.0705
1.3374624,109.91693
1.4186102,109.00496
1.3353893,107.361176
1.3541524,113.65501
1.4146601,116.471405
1.4701931,108.61862
1.3810644,117.28753
1.4922249,115.661064
1.3684558,116.42326
1.4257708,117.47399
1.3067585,114.499596
1.3858836,114.93154
1.3486034,118.944336
1.2172956,118.41676
1.2141424,116.92281
1.3511732,115.8065
1.2673873,112.93216
1.1400541,118.127846
1.1499718,114.13087
1.13205,112.61279
1.0991398,114.25233
1.1701338,110.98981
1.1049558,110.87024
1.1439017,109.16839
1.0506233,111.232025
1.0101072,109.97249
1.0465082,105.65446
1.0590562,110.130775
0.98635614,106.98304
0.85957515,109.39554
0.91727704,105.376884
0.8574517,107.21579
0.9474389,105.31225
0.9651064,100.770775
0.9029427,101.41011
0.79349494,103.113914
0.88553,98.35007
0.9028728,100.16343
0.8415216,101.922676
0.80138427,99.98434
0.8673394,97.69869
0.860495,96.26147
0.742169,98.8821
0.92897695,96.2685
0.81397456,95.201996
0.7759161,88.29657
0.791678,91.94405
0.68882924,92.45194
0.78364897,90.23507
0.76481694,92.86023
0.6187578,91.228905
0.5143939,85.04879
0.6192575,90.205986
0.5358442,86.7728
0.53380597,85.35055
0.4602348,82.80013
0.48252204,84.34101
0.43566397,85.59824
0.3994886,82.11821
0.48961613,84.11136
0.41648513,80.09444
0.36662596,82.42602
0.4183248,80.23498
0.30109853,75.27792
0.38374043,77.84251
0.46974802,77.07517
0.4090762,74.92435
0.35445222,75.37936
0.3192734,74.468185
0.42264777,74.70553
0.39385545,70.037315
0.3431873,72.485756
0.4000588,71.51107
0.3662793,71.90512
0.31673926,72.62388
0.31828603,74.4848
0.21552934,69.327866
0.32366535,70.13209
0.2491537,70.87681
0.18397835,70.08298
0.29475895,69.7735
0.20403033,71.35497
0.11245653,72.33267
0.07506215,69.04566
0.051569495,71.27844
0.056836452,70.36841
-0.05382872,70.920876
0.012137411,71.42959
0.10832759,72.19399
-0.081034295,71.69516
-0.023969669,73.27179
0.0498997,75.35611
0.07000591,72.86543
0.13886933,81.1325
0.11744411,79.60121
0.32227337,80.74507
0.40747806,81.26836
0.42209616,87.47504
0.37304574,81.59655
0.5771118,82.753426
0.579406,83.82167
0.56443745,88.714935
0.7439055,87.8796
0.88043225,92.05421
0.886913,94.91166
0.9511578,93.36537
1.0578895,92.97498
1.0652236,94.63121
1.1580368,100.784706
1.1485167,100.89468
1.2724385,101.64999
1.2972131,103.94244
1.3380493,104.80466
1.3228699,102.3295
1.4485109,104.18631
1.561111,108.07153
1.5673403,111.030785
1.474047,109.41818
1.5773697,114.472984
1.5498642,110.085365
1.5158992,113.172035
1.5216749,115.434746
1.5209478,112.411736
1.4999583,113.1947
1.5119505,113.76736
1.4678738,117.32464
1.6269041,116.31114
1.6426457,116.80177
1.5831822,113.700226
1.4917085,113.50176
1.4210213,114.09513
1.4483076,112.914246
1.5356469,116.31073
1.497296,110.39239
1.3949391,111.574875
1.4482542,114.34222
1.4673392,114.54092
1.3887964,111.14945
1.3838991,114.5607
1.288203,111.67334
1.316842,114.83691
1.3391564,109.80007
1.4803928,107.90455
1.3512336,107.92774
1.2953956,108.52888
1.2004005,103.76768
1.2511263,103.70244
1.2089071,106.12065
1.3308394,102.99424
1.250643,101.27323
1.1564028,101.46792
1.2726982,102.142654
1.21826,102.89128
1.2723179,100.82561
1.2213212,98.158295
1.2018757,102.50608
1.2110571,95.946815
1.2894495,99.53647
1.2226939,95.531044
1.0894161,97.41164
1.158716,94.64947
1.122485,95.837296
1.0725892,91.709656
1.0403125,94.82949
1.1082554,90.35638
0.95724654,92.56149
1.0119096,93.29871
0.9677144,88.20581
1.0187384,89.77763
0.8767177,85.52266
0.9245812,88.64748
0.94778246,84.059654
0.8316162,83.296196
0.8199213,84.31672
0.7474613,87.675186
0.71626294,85.767334
0.81978935,77.525635
0.7934525,79.50233
0.75039965,78.50176
0.68920547,80.33081
0.74973345,78.067345
0.76788664,78.00594
0.6206853,75.35762
0.68020725,77.79376
0.6943977,74.74361
0.7899127,72.16792
0.7531181,73.816505
0.7063559,71.80057
0.6428127,75.1572
0.7702197,71.26774
0.71447825,70.61625
0.66763735,73.76528
0.5719841,72.66415
0.6706633,70.37535
0.6558579,70.80755
0.61731815,68.16741
0.58704674,67.98935
0.6235653,67.55596
0.5962447,67.1719
0.5197063,71.86413
0.51853895,70.47292
0.39288497,69.434586
0.42198288,73.36189
0.41482213,75.5086
0.40379038,71.35834
0.46197423,73.81279
0.4551187,72.008286
0.5400019,75.38189
0.47170708,75.34797
0.5146257,76.61714
0.54693645,74.69153
0.61543596,78.18608
0.6536761,78.62984
0.6427127,81.729965
0.7571594,82.117805
0.7608975,83.67861
0.9575335,85.58415
0.89853936,85.96236
1.1199148,86.68522
1.056814,90.7151
1.207373,91.15839
1.21259,86.82274
1.3545825,93.12176
1.4089863,96.473366
1.5596013,97.50838
1.4670883,100.435974
1.4919158,99.36434
1.5186174,97.79017
1.6551036,103.7739
1.7148716,103.4917
1.657717,104.28545
1.8237553,107.45484
1.8233416,106.56048
1.9313027,108.90518
1.7668309,111.58251
1.8199333,110.66562
1.8345921,113.49461
1.8985021,111.61553
1.918895,110.206985
1.9181004,112.22471
1.9219846,114.54629
1.9679759,115.10941
1.9264454,115.38461
1.8675227,117.226456
1.8204141,113.1671
2.0082161,118.33333
1.8153634,115.538734
1.8843895,114.86804
1.902443,112.47769
1.8664163,114.91512
1.756326,114.53598
1.7752655,115.15207
1.8365293,112.2733
1.7477576,115.96783
1.7539536,113.41714
1.6814959,114.63432
1.6853251,111.45854
1.6780752,108.355606
1.7218386,114.0381
1.6394548,111.016945
1.5822926,107.98133
1.6426415,108.32225
1.5820737,108.311226
1.4816172,106.17721
1.5784805,104.67622
1.6088148,106.16619
1.5089548,102.65462
1.5316648,103.29282
1.503176,103.01719
1.412514,100.642136
1.519017,101.98812
1.4818759,102.733826
1.4671355,98.30967
1.5207705,99.53578
1.5340204,97.41139
1.4940299,98.42129
1.5295774,94.85113
1.30372,93.55466
1.3859049,96.24793
1.4334179,96.115524
1.2350935,93.610504
1.2123318,90.21916
1.3216158,91.030235
1.2277673,90.615746
1.1412214,90.63867
1.1714789,87.53943
1.0790938,86.08605
1.2390043,86.750755
1.1502304,86.125374
1.0416152,82.41485
1.0423428,84.821526
1.0238109,85.5468
1.0085301,81.3431
0.99355704,80.217896
0.9904416,77.93882
0.95287704,76.035515
0.9835396,80.03235
0.8890263,80.3077
0.9261819,76.71676
0.9667881,77.59304
0.9221465,76.2863
0.85514814,77.69678
1.0159552,75.11428
0.82089514,71.08969
0.93150145,76.81915
0.8008885,73.165474
0.89875555,73.52506
0.8503252,68.51207
0.86080545,71.048195
0.80761,69.254524
0.8327515,67.25071
0.7641611,68.014755
0.69542825,72.21007
0.70252484,70.59445
0.6990548,71.64145
0.66248465,68.97016
0.69803786,65.29845
0.64797395,72.474884
0.5197776,70.98596
0.53910434,71.82282
0.48875928,70.48151
0.54170406,73.485016
0.4519668,75.20469
0.5292471,74.8115
0.5973887,72.13756
0.49392888,74.01145
0.5222064,74.24503
0.6403717,76.91837
0.4958323,77.455864
0.64817786,79.288414
0.6818831,82.08281
0.7444696,81.918015
0.8571842,83.11722
0.9247219,87.40673
1.0366496,89.65597
1.0213284,88.2377
1.0752825,85.625
1.1180614,90.45504
1.3042583,91.43882
1.3478594,91.43114
1.3496087,91.63036
1.3985614,97.93003
1.4449004,96.83998
1.5082079,99.329575
1.6396748,97.63806
1.6058011,101.940796
1.6471884,103.29678
1.599925,102.866875
1.6731627,106.87607
1.8491931,104.785965
1.755847,108.48655
1.7612379,109.83498
1.742665,108.94833
1.8211746,112.84241
1.6884336,112.15594
1.8357167,117.579124
1.7964213,112.18102
1.8502101,114.0983
1.8225335,118.40868
1.726118,116.329445
1.7980287,116.65625
1.838107,116.25742
1.8249472,117.37626
1.8060501,117.58119
1.7934494,116.56472
1.7374917,116.88744
1.7708366,116.047874
1.721505,108.639336
1.6466619,114.8723
1.6737808,117.961655
1.5797359,112.34977
1.5777614,114.028076
1.6480491,110.9238
1.6097896,113.93417
1.569719,111.897514
1.4412531,110.743706
1.412023,108.216934
1.386613,103.98587
1.3144603,104.98535
1.3778852,108.02111
1.3040451,102.83305
1.3872993,107.43287
1.3173516,104.79834
1.2173821,102.218575
1.3865311,104.07071
1.3365303,103.51296
1.2592623,101.99904
1.2348237,101.55584
1.2593318,101.41083
1.2540314,97.136024
1.3011084,98.727776
1.2175149,99.31839
1.1638694,94.760445
1.1224531,94.65939
1.1523312,98.202194
1.1434509,89.613144
1.0193278,92.58267
1.0950686,91.94972
1.0914667,88.57479
1.0427758,95.11086
0.9415988,88.144516
0.8999818,91.53965
0.9357864,86.59752
0.7873494,86.27318
0.78382444,85.40308
0.7015349,85.10318
0.7735001,84.008835
0.8114228,89.46298
0.7296065,85.45839
0.60983,85.39521
0.61991316,77.80486
0.61935884,83.12159
0.6294318,81.03316
0.6415539,80.63741
0.52796435,81.263954
0.5538847,77.94905
0.64604646,79.56974
0.5372574,74.30737
0.62837327,75.22827
0.62861335,77.22261
0.5406733,76.15536
0.6081178,71.30674
0.56670296,73.48484
0.56364554,69.7759
0.5480876,71.96327
0.49546263,71.61885
0.38184708,73.22509
0.5293808,67.34587
0.41153276,70.815544
0.46036986,67.49848
0.23178107,67.72178
0.41365233,70.749374
0.3689479,68.85989
0.2368409,72.5106
0.20254044,71.21019
0.19615349,67.460304
0.12584983,71.494896
0.17421037,69.82409
0.098835625,68.11462
0.09818265,72.0022
0.09701781,75.15559
0.0035012541,77.28412
0.21925174,75.47939
0.13566971,79.75019
0.18834819,75.207344
0.21904379,75.981636
0.29505664,80.311714
0.29434216,81.58129
0.42892882,80.34941
0.39668941,83.120995
0.3624166,86.74849
0.6275324,83.474846
0.56806606,84.39371
0.7286864,89.42983
0.7099223,90.09202
0.7749922,92.407776
0.88695437,95.44095
0.85342705,96.631355
0.9924505,97.70492
0.9498693,101.3469
1.0633694,101.94926
1.1551951,101.81927
1.2074803,102.8127
1.1861699,103.94321
1.2924339,98.37062
1.3498114,105.220825
1.3816872,110.29686
1.4344754,110.21159
1.3575001,108.83771
1.3772854,106.69397
1.4516785,111.39663
1.4218374,111.60831
1.4380347,112.475365
1.401013,114.8965
1.4644878,114.39549
1.4437461,111.542816
1.4213599,112.79266
1.3923491,121.045235
1.4317954,115.941536
1.3302637,118.75835
1.3377941,114.80063
1.4077086,118.056595
1.3723899,116.63109
1.3122514,112.77679
1.2639365,114.9057
1.2080504,116.89504
1.2292528,115.82659
1.2457042,112.006065
1.2621341,112.879974
1.2777699,114.691444
1.1095437,113.236374
1.0670681,112.70774
1.1594981,109.41149
1.0449321,110.30709
1.1519599,111.08233
1.0708138,108.867676
0.9818678,109.39189
1.0625949,108.55597
0.8522559,103.41436
1.0842247,105.35778
0.9987143,103.89659
0.96217406,100.967285
0.91280645,102.18708
1.0124993,103.42105
0.9354331,100.5901
0.90460855,102.55897
0.8904946,102.969444
0.7715023,98.25967
0.8983639,99.124725
0.88682085,95.96434
0.8553424,95.08595
0.76405704,95.842186
0.7810634,93.277405
0.7375535,91.023285
0.71982044,96.540985
0.65373665,92.37756
0.6223605,91.84697
0.7684799,91.1651
0.64448875,89.024185
0.74382883,89.555
0.55730283,88.30008
0.5386223,90.88185
0.53449357,83.79209
0.5449998,85.87216
0.49534407,82.507935
0.3504106,85.42927
0.34644833,83.56414
0.340891,81.85889
0.34852928,81.1806
0.34075427,80.92979
0.2970563,80.99681
0.3114385,81.49687
0.35468885,79.460945
0.33168063,77.13348
0.31343007,75.11428
0.29610023,73.821655
0.33227092,75.71941
0.20468226,75.122505
0.40342116,71.96493
0.39899296,74.9319
0.23318638,71.9245
0.3736654,72.41767
0.30855966,71.86711
0.26910064,73.83492
0.3011886,68.7361
0.2627788,65.31191
0.18213558,74.33307
0.23776618,69.62493
0.18742992,71.22821
0.049224764,70.27392
0.07447957,66.440125
0.0649028,69.317955
0.072294965,72.4228
-0.033194665,71.08424
-0.10089847,72.48434
-0.022564398,68.916824
-0.05358956,73.34191
0.07005972,71.8942
-0.0094250785,72.99764
0.15419087,72.21296
0.05618286,72.56702
0.15575413,79.0533
0.04465334,74.79195
0.22156955,77.180435
0.22661172,79.94451
0.2745584,80.18283
0.36219138,84.9004
0.41607085,82.53842
0.534315,87.65402
0.56771445,87.08783
0.5610023,89.34546
0.673303,91.38737
0.70261556,91.81784
0.8344458,93.54221
0.8537722,93.91609
0.949078,93.42877
1.0061214,95.82826
1.0888698,99.86053
1.1602504,104.38607
1.1515813,102.67572
1.194562,105.58603
1.2287184,102.724594
1.2151431,107.37515
1.3626356,109.654434
1.3192897,110.57089
1.366723,112.187065
1.3158034,107.42219
1.3618063,109.36017
1.4029691,110.35825
1.443209,115.43931
1.3961987,111.93715
1.4502138,114.208984
1.5092803,116.770096
1.3361522,113.596886
1.4662163,115.928246
1.514816,114.56845
1.420717,117.8225
1.5372046,113.00079
1.3961854,118.3466
1.3386661,116.3776
1.4071145,113.5255
1.3164641,115.46246
1.3963672,115.16853
1.4318244,113.16806
1.2948836,113.79125
1.2909061,112.44666
1.2639897,114.525795
1.2520663,111.583275
1.237353,113.36705
1.2764674,113.533005
1.1281971,113.12124
1.1280208,112.70701
1.1624097,108.35167
1.1542027,107.96879
1.104439,103.3536
1.0904474,106.85308
1.1775489,106.09575
1.1132072,104.51372
1.0686953,105.244675
1.0330812,101.171
1.0957803,103.61727
1.059588,97.31323
1.1024438,100.213524
1.1889247,97.176476
0.9983633,98.53759
1.0786337,99.01009
1.0072284,96.89218
1.0058521,93.2439
1.1089193,97.871864
1.088769,96.359055
1.0342417,90.7792
0.93956995,95.42839
0.9349597,89.65642
0.90556335,90.19532
0.9786985,93.156586
0.9254845,89.66532
0.89986545,91.27549
0.84232116,88.56954
0.77059853,89.298676
0.79836404,85.14222
0.7106174,87.28965
0.76603156,84.976974
0.599735,82.89902
0.49956608,81.44835
0.7469899,82.29083
0.6325723,78.3105
0.6508574,81.828
0.6827021,83.2372
0.6317318,80.55743
0.5121567,77.87882
0.61538774,81.01995
0.67855847,73.4683
0.58372766,76.27825
0.5877473,74.5611
0.6391988,76.33208
0.692893,71.52677
0.59262264,71.27068
0.71367514,72.11778
0.54465985,71.49858
0.5609817,74.9394
0.67815244,72.223495
0.60289186,67.921486
0.556767,69.341774
0.47892264,72.989876
0.60271883,67.51983
0.47720838,72.17859
0.53711516,71.60933
0.4994726,76.07555
0.4089687,75.200096
0.3941301,68.95426
0.39833525,68.172066
0.41805753,69.38479
0.28247726,73.95748
0.25828704,73.88004
0.41726276,69.89379
0.4440142,76.10916
0.32527918,73.66408
0.37559715,76.64059
0.4326732,75.34537
0.39475217,79.17579
0.48250642,76.29544
0.602444,79.98354
0.5619087,81.30225
0.7148987,83.7613
0.70167005,90.19638
0.95034885,84.35379
0.987023,90.56249
0.96735585,87.65937
1.0367025,85.805565
1.092956,91.26594
1.1292799,93.75505
1.2636989,95.46547
1.2093717,95.65964
1.3375155,94.27495
1.5181661,97.372345
1.5029612,100.06631
1.6132408,99.62281
1.6710191,102.65499
1.6578066,104.03171
1.6683589,103.010086
1.738689,106.633545
1.7077149,109.20804
1.7619889,108.394844
1.7593669,117.15761
1.8775234,110.00039
1.8191403,112.08541
1.8646888,110.648735
1.8639232,114.37106
1.7678804,112.63919
1.8508974,111.61729
1.8703895,113.785545
1.8515801,118.44341
1.7932746,113.912125
1.8197781,114.119446
1.8375255,116.73583
1.8605521,115.09172
1.8573178,114.713005
1.8981555,115.25328
1.792743,115.70945
1.8110685,114.49039
1.7472918,113.573044
1.7430811,113.393036
1.7032797,113.40687
1.7503852,112.65881
1.8111159,113.5486
1.6483088,109.6462
1.5335414,111.17618
1.634784,109.74676
1.6288098,109.3287
1.5565543,110.03728
1.5535145,109.155464
1.5709823,108.27558
1.5024811,106.51653
1.6425616,104.06619
1.411835,104.95418
1.466779,105.731705
1.4839585,102.27109
1.4881064,100.975945
1.5917438,104.27863
1.4203767,100.07015
1.4876773,98.662155
1.3081248,100.235466
1.4178879,99.20324
1.4548423,99.88569
1.4130442,98.773476
1.2690907,97.50259
1.3377901,93.35288
1.3548096,94.60959
1.3821439,89.420784
1.3091213,97.355736
1.2501339,93.181175
1.1689687,90.91958
1.1471279,89.54856
1.2381654,90.44736
1.2057908,90.89209
1.0484478,87.011055
1.158627,86.60628
0.9875686,80.89588
1.045504,82.69524
1.0282191,84.02972
1.0167111,82.3025
0.95817876,86.34408
0.9997891,81.78372
0.9460977,78.057755
1.0242562,80.13957
0.81373584,79.26115
0.88097453,75.91333
0.9579805,76.604866
0.9802042,76.73697
0.9501454,77.24862
0.8539736,76.35555
0.9425281,75.54474
0.9140396,77.06691
0.846967,70.77732
1.0220878,73.004265
0.9562588,75.55675
0.91559803,70.23457
0.9364474,75.20123
0.9103566,67.835014
0.7280678,72.363365
0.82154727,70.27093
0.7036091,71.94355
0.70569026,70.19954
0.71565706,70.55877
0.5513894,67.79488
0.69324523,72.86649
0.78449225,71.14947
0.6318243,69.41198
0.5846087,72.59008
0.566802,71.21454
0.5503206,72.84658
0.6727249,77.70301
0.48200035,70.81234
0.56499225,74.716896
0.46658355,77.280624
0.6842092,76.12416
0.6289396,78.97315
0.69333285,77.28305
0.6745565,76.54819
0.69697034,79.931206
0.80108184,81.82999
1.0159385,84.35849
1.0602314,83.30519
0.9559782,86.6887
1.0182699,86.31407
1.1526674,89.40333
1.130884,88.85334
1.3573914,91.26359
1.3192726,94.750916
1.4709165,93.568115
1.4611659,98.85026
1.5267004,99.581635
1.6273297,101.71634
1.700594,101.0051
1.7622013,102.640884
1.8667185,104.07392
1.8116376,107.38726
1.7907652,108.022896
1.9340124,110.91253
1.8871828,111.66318
1.7932568,109.42237
1.9352521,112.4619
1.8899784,110.669334
1.8334914,113.62629
1.895887,118.063156
1.9375471,116.86901
1.8749743,114.22579
1.7994802,112.421005
1.8686051,110.805885
1.8989087,115.93249
1.8336408,114.74883
1.8829697,114.211945
1.8735752,116.012985
1.8776897,115.04454
1.9008635,117.76931
1.8473889,117.12057
1.7397872,115.966255
1.8109602,112.633934
1.7662364,113.59933
1.6628151,116.07293
1.6501063,109.819565
1.5541664,112.92694
1.674958,110.267914
1.6045165,111.120636
1.66948,112.43569
1.5740731,106.949196
1.5166214,107.452866
1.451628,110.13122
1.4663987,109.66536
1.5141838,108.417366
1.5129355,103.285385
1.4571689,102.99078
1.448162,101.20509
1.4726075,101.92752
1.3919998,102.75465
1.3156343,102.28129
1.3475281,103.05399
1.3548577,103.71635
1.4838543,96.58262
1.2622398,98.23278
1.2946318,97.66032
1.269869,95.81116
1.2264802,97.7367
1.259067,96.217674
1.2816763,91.90525
1.1856848,92.880646
1.1609149,92.226295
1.0963591,92.556175
1.0489064,89.10735
1.0926404,89.56605
1.156734,87.00026
0.9480475,87.35751
0.9792191,90.592926
1.0077566,88.76274
0.8483795,89.21771
0.7962715,83.48935
0.8641786,82.7152
0.8730923,84.235374
0.81924623,84.9251
0.75663275,82.63977
0.7064984,79.631454
0.69840765,80.58816
0.6683029,75.699295
0.7627372,78.54597
0.60102737,78.36579
0.7822655,79.666595
0.7171594,75.387184
0.6784564,77.81946
0.5713537,76.94314
0.7472917,74.200386
0.6835359,70.444756
0.54328614,67.6868
0.7052799,71.79653
0.56662875,72.05268
0.6245662,67.46994
0.6079245,68.908844
0.57709944,72.22754
0.44095916,68.673615
0.5371307,73.53252
0.52098984,71.51745
0.3636667,73.04274
0.46097904,70.74689
0.4116845,67.1588
0.3754149,67.2
0.3895879,71.909546
0.36456388,68.82829
0.34589684,73.380936
0.22334982,69.022835
0.33102047,72.02508
0.15130395,72.07927
0.2972667,72.21639
0.22893478,70.91409
0.22925346,75.31199
0.35740343,79.39668
0.24355431,78.08553
0.33165008,76.29008
0.41894025,80.3642
0.42657351,78.286964
0.49004924,87.37969
0.5085832,83.80547
0.63901705,84.99533
0.74458253,87.91187
0.86047447,92.30494
0.9452186,87.80279
0.9931481,90.176384
1.0101452,89.38888
0.99078137,97.007195
1.0793751,96.490204
1.1803975,96.592705
1.2963265,96.55071
1.3305554,99.52912
1.2728082,101.29057
1.30308,103.42228
1.4019605,107.45929
1.4062206,109.39236
1.372591,106.45467
1.3509628,108.36666
1.5052847,107.91247
1.5480186,108.998604
1.4910235,113.551186
1.4915067,111.35064
1.3769432,112.12682
1.5387689,114.6985
1.5115956,116.202
1.4898695,116.23986
1.4770805,117.21694
1.5464011,112.940636
1.437117,116.28637
1.4588202,114.56716
1.5156919,113.79451
1.40366,117.05344
1.437266,114.32281
1.4231911,117.09695
1.3652836,112.734184
1.271497,116.209274
1.2757621,115.42096
1.2708147,113.50672
1.2715619,111.01008
1.1709949,113.21753
1.1406598,112.91476
1.1908561,113.81439
1.1673805,111.63065
1.0422381,105.51815
1.1366024,110.49445
1.1130986,107.51705
1.070683,106.85557
1.0503703,105.47252
1.0352651,104.81634
0.9622176,104.93321
0.99706376,100.774574
0.9573416,107.42098
0.9942787,103.616005
0.9948651,101.70032
1.0013375,103.43039
0.97189456,97.89658
0.90248626,98.79569
0.9725513,101.69527
0.98174876,97.13372
0.87724113,96.907906
0.88042265,95.56089
0.8235488,94.39049
0.8541599,95.54202
0.7534386,93.31403
0.742954,93.80012
0.7530255,93.31041
0.73632914,91.68288
0.7522924,88.64356
0.6403208,89.89571
0.68527573,91.340645
0.5265661,84.904526
0.46732306,90.6315
0.5019401,88.41187
0.62078154,85.11374
0.36568448,81.988625
0.49512342,85.41999
0.3018914,80.939354
0.46604186,79.53962
0.51344097,80.97383
0.42760393,82.11543
0.33647835,78.16641
0.32709503,80.64383
0.36908966,78.84569
0.32527575,77.985245
0.29455626,76.48982
0.34453937,75.586945
0.2738033,75.3518
0.33579588,72.0997
0.40685803,72.23624
0.40036428,75.03327
0.30553296,70.37418
0.35105407,68.33089
0.22942442,71.6379
0.2991727,72.5147
0.30302525,68.84049
0.16730262,71.685265
0.18302491,72.47704
0.14739193,68.85025
0.18174738,70.26989
0.09441611,69.50144
0.15576176,73.44323
-0.01108618,72.839195
-0.010357855,69.01736
-0.03758524,71.76624
-0.013856662,73.0142
-0.12493902,66.60154
-0.0861594,74.88593
0.006577782,74.75327
-0.16365565,73.56002
-0.026063088,74.980965
0.053694036,75.95678
-0.096347645,75.318184
-0.0072902148,75.59447
0.12316128,81.2635
0.07259293,82.976494
0.19044524,83.76539
0.23680875,81.50951
0.39005268,82.49546
0.4680679,86.30234
0.48689273,87.459755
0.5047659,87.91331
0.6274435,89.10909
0.7159043,90.348305
0.8090225,93.17632
0.8134091,95.04365
0.9729448,96.38706
1.0453147,98.020836
1.0332495,102.933914
1.0596396,102.030975
1.1037685,101.99195
1.2274891,103.85219
1.2117404,103.263306
1.1051741,103.09732
1.2425367,105.76526
1.3445297,108.83907
1.2796752,108.30171
1.3458105,108.075386
1.410622,108.79613
1.4220101,114.65389
1.4459893,112.970634
1.4168602,117.887
1.3432181,109.51922
1.3689994,116.41928
1.4070387,115.63694
1.3574609,117.430435
1.3149686,114.38181
1.3733897,114.67158
1.3922975,113.58338
1.3960761,116.99121
1.2338811,117.17423
1.4083959,115.71689
1.3291216,113.20946
1.3170456,115.60946
1.2229791,114.294266
1.2672901,110.43618
1.3001478,114.25936
1.2271203,116.33874
1.2122205,109.6711
1.2522117,110.22316
1.1069562,111.86813
1.1418699,105.97547
1.068082,109.44406
1.0303451,106.39128
1.0412395,107.65595
1.1297415,106.510376
0.9790459,107.761536
0.993631,105.48898
1.0925958,105.61112
1.0453612,105.47571
1.0004606,105.179085
0.9828779,103.989815
0.95772654,98.35267
0.93658555,101.80467
0.9833392,99.6618
1.0626229,98.359566
1.0037298,99.68328
0.91228807,97.76173
1.0029725,93.40802
0.9508027,94.94925
0.9634194,93.47553
0.95020527,93.534225
0.8178365,92.96775
0.8675394,88.48135
0.85933995,91.1598
0.85640544,89.51801
0.80569506,89.15111
0.7349402,90.11817
0.7766014,87.68213
0.676986,90.15543
0.6830728,88.383896
0.6726877,84.784676
0.57950443,83.77109
0.614511,84.172745
0.5871938,85.44397
0.58304304,86.28825
0.49630246,77.96893
0.50029856,79.09722
0.46084905,78.82767
0.48986176,81.47919
0.52999735,79.05375
0.45341942,74.72985
0.49344766,75.11732
0.6476771,75.73514
0.5242075,74.60373
0.42724857,75.11242
0.5912759,77.23414
0.41735423,72.303474
0.5887998,71.47133
0.515506,70.91952
0.57900316,72.695496
0.5033277,69.15033
0.5460348,72.32893
0.50582516,71.99852
0.32176453,69.06131
0.41853896,70.493454
0.4237578,65.80967
0.32227534,66.82197
0.35814393,73.789024
0.34753034,66.013596
0.23007062,69.62064
0.19395113,74.8843
0.26216212,65.181496
0.17077601,74.37012
0.21361372,70.400444
0.1260446,74.41375
0.21784377,74.10306
0.11202507,74.133484
0.3157476,73.66238
0.27899644,78.40404
0.31593463,78.33363
0.41467258,80.442566
0.50049555,79.38699
0.53069395,82.115616
0.5870864,82.55914
0.60906047,86.62193
0.7355057,84.35263
0.7957373,85.54367
0.80023456,88.24036
0.9902088,88.93138
1.052934,91.58897
1.0886793,94.94536
1.1095575,93.28518
1.182587,96.96338
1.3377428,99.20435
1.4011991,99.317825
1.4830554,99.537895
1.449479,98.97929
1.5805376,104.008575
1.597624,103.87142
1.5785062,106.25891
1.6600603,106.06403
1.6835699,107.949
1.5668384,108.334785
1.7240461,111.98645
1.7816643,112.42016
1.746392,112.832
1.7781168,114.68653
1.7999077,112.32688
1.7240967,115.92675
1.7688979,113.69829
1.8041148,115.06448
1.7852234,110.9359
1.7300113,112.87266
1.764898,116.388115
1.7288861,116.30941
1.6855359,119.30209
1.7209466,116.893234
1.8088509,117.68248
1.6065862,119.87866
1.6369523,114.76293
1.76776,115.965996
1.6253251,111.02457
1.6200773,114.356
1.603284,115.19248
1.6293836,109.99738
1.4728675,114.09208
1.5210035,111.976204
1.5464214,109.7584
1.477951,111.71262
1.4163666,106.051315
1.4405195,109.6364
1.4618671,109.293365
1.3503122,105.89523
1.4100622,107.298676
1.3575441,107.04735
1.3839738,104.76208
1.3736104,102.04106
1.5176806,103.48924
1.3749851,105.18302
1.4114225,99.83984
1.3315102,99.84269
1.3497354,96.16227
1.3996814,99.34967
1.3743993,96.60755
1.2744106,95.07264
1.3053737,95.32338
1.2687265,98.91253
1.3617066,95.378174
1.2349275,93.81632
1.2803605,88.69713
1.1649047,91.125175
1.2715868,91.4236
1.1024016,89.80546
1.2141243,90.43391
1.0368687,86.26927
1.0604782,88.1973
1.0821253,87.05217
1.023123,85.40907
0.93397033,87.49648
0.96701723,84.611755
0.8865501,82.879074
0.8810497,80.380135
0.8915062,80.914314
0.88162124,80.41673
0.81674784,80.21816
0.9281716,79.38203
0.8819433,75.434746
0.93567556,77.49903
0.8231366,77.65561
0.8857308,78.65195
0.8351352,74.44392
0.8820937,73.63072
0.8363523,73.774895
0.8401538,71.27114
0.89313483,73.22928
0.8097395,69.44101
0.8571903,72.622314
0.85974145,70.180725
0.80950236,70.39823
0.7406618,67.97771
0.71538156,69.184975
0.7449699,68.69678
0.70677114,69.84722
0.7547314,69.16802
0.6271105,67.87875
0.60343546,71.0135
0.61091983,70.82345
0.46526566,68.350044
0.5520142,72.04693
0.5055206,69.58294
0.51627,72.03428
0.54951537,70.426834
0.5264254,69.35046
0.6261295,75.65674
0.5655442,73.68028
0.6292551,76.87237
0.7130819,76.0976
0.6606672,78.834076
0.7277271,80.15544
0.8219584,82.88485
0.77812296,80.25539
1.0027803,87.9503
0.9269588,89.57237
1.0203196,86.861534
1.1004895,87.58978
1.247336,88.67572
1.2534857,93.07836
1.3491253,93.046234
1.3721789,95.11913
1.4469603,98.64052
1.5536289,93.78205
1.6001678,98.64334
1.5858167,99.03144
1.7688489,104.12667
1.6782783,101.82545
1.8779609,103.25752
1.8840414,104.4987
1.7785258,107.02946
1.8664994,107.86808
1.9310647,107.516975
1.969684,114.25404
1.8800153,107.97974
1.9906075,110.29749
1.9257135,113.25258
1.9240031,113.92484
1.9830201,113.19683
1.9249734,115.87224
2.082882,115.48038
1.9013852,113.863075
2.0093124,114.121605
1.9200708,119.26297
1.9299961,117.11962
1.925135,111.72026
1.918227,112.496956
1.8841773,113.801384
1.8874685,114.22246
1.9410915,113.337326
1.6921409,118.18996
1.7493975,116.372345
1.723877,112.02962
1.7257892,112.66246
1.6605322,114.655
1.7497747,111.17447
1.6562805,111.4178
1.6499753,109.07286
1.5924573,110.406876
1.5510826,110.03892
1.6439321,107.09114
1.5664424,105.75827
1.5142031,104.86545
1.4787699,110.009026
1.5953904,109.36901
1.514473,100.883224
1.4494936,104.918655
1.4210047,99.966484
1.3897876,97.03201
1.4784919,99.57324
1.4707497,98.835106
1.4820716,99.05253
1.4835101,97.91937
1.4414366,95.75523
1.4610288,102.39829
1.3787502,92.694725
1.3899657,98.7815
1.2509533,93.42641
1.2659019,93.095146
1.2779766,92.001686
1.294573,92.372154
1.2509851,89.08104
1.1407764,90.033844
1.0626956,87.29132
1.205709,88.04929
1.0495023,89.94319
0.99736106,85.750725
0.9788432,85.49154
0.9762327,84.35854
0.8681725,85.91146
0.895719,82.05486
0.87493294,78.9473
0.8683559,82.03295
0.82979274,79.89204
0.81640923,81.64674
0.7533491,77.58283
0.88320273,78.9081
0.87786764,77.26243
0.80665153,72.14021
0.85374844,74.39226
0.80695844,73.50851
0.8686954,76.49004
0.7326326,75.217155
0.8604003,74.4332
0.82686913,71.40609
0.7370802,72.17937
0.7939194,74.10908
0.6447986,71.27824
0.5852036,69.75727
0.66903585,72.68171
0.64760625,69.90851
0.5567788,69.266396
0.532358,70.28453
0.5139104,70.051834
0.49605733,71.73514
0.59045714,70.38095
0.45296675,67.94153
0.41082093,69.58436
0.2832998,67.42397
0.3442033,72.04528
0.26750314,73.14417
0.26747447,71.652534
0.27107045,68.02633
0.312215,75.0148
0.421772,73.49995
0.38638833,78.424416
0.41068324,78.47937
0.4468347,78.38221
0.449469,77.66057
0.59540176,80.36236
0.5943673,79.87248
0.6925367,84.229324
0.65081173,83.178215
0.6761902,82.15166
0.86447024,89.15123
0.9590145,92.04904
1.0682248,89.617424
1.0365531,95.13942
1.1476958,94.155365
1.2037145,93.132866
1.2927605,96.32497
1.3107674,102.35791
1.4178343,97.81467
1.3848771,98.389854
1.4306643,100.64909
1.4927521,104.385056
1.4440647,102.76368
1.5205963,105.91625
1.6358386,106.98106
1.5239633,108.43459
1.5557928,109.69142
1.6132243,110.03413
1.5836127,113.401535
1.5760381,113.86786
1.6048386,112.53846
1.6508398,110.64919
1.5461019,112.98408
1.6268938,114.01486
1.6342089,115.92482
1.6221713,118.24449
1.5654312,115.107346
1.6098435,115.3408
1.6614815,117.50756
1.5827779,116.670616
1.5262014,114.15113
1.4574087,111.8969
1.3962774,115.254135
1.3756548,113.17734
1.479227,113.40585
1.4721632,110.86222
1.3576896,113.070564
1.4720862,113.25755
1.362872,112.39293
1.2465312,114.20695
1.2911954,107.40235
1.1608316,109.36085
1.2711443,109.91118
1.2962561,103.43702
1.0972918,107.83128
1.1564962,105.517654
1.1668733,102.75129
1.1096534,101.25232
1.1397611,103.07473
1.0238546,102.846535
1.193435,101.85779
1.0276885,102.73373
1.136721,100.35609
1.1320914,102.691505
0.9733124,95.46114
1.1089302,97.83713
1.1206452,100.98484
0.8897636,97.47772
0.8912066,93.97168
0.93886757,95.37221
0.8898729,100.105125
0.8765565,91.733345
0.858186,93.62761
0.8587414,92.86413
0.8365116,92.68514
0.75739866,90.69936
0.7596712,86.27514
0.672264,91.08055
0.6314492,85.889206
0.6353045,85.72315
0.6047824,87.36005
0.59711397,83.29658
0.43964896,84.16544
0.49902418,83.11663
0.47494915,81.18497
0.37237042,82.923294
0.43103307,81.602036
0.52837896,78.22396
0.5232152,79.80441
0.3658566,76.34672
0.37548265,76.72154
0.33597577,77.50926
0.36375436,73.00093
0.3619637,77.07276
0.41331577,72.59072
0.3480951,70.06374
0.45065594,69.92371
0.32496348,73.076225
0.36898232,71.88386
0.28151792,70.21481
0.26283386,71.127396
0.2460577,70.89799
0.36643586,73.09574
0.2709574,71.86258
0.28002366,67.421455
0.1708737,69.94475
0.12562941,69.23064
0.0600921,71.76149
0.14417589,71.16861
0.12133205,65.85063
0.08006209,67.898506
0.0048601604,68.62741
-0.074909136,72.18148
-0.16068225,75.4748
0.02985493,69.79422
-0.014348856,72.18979
-0.06521079,72.3804
0.008589294,73.01928
0.030630149,74.32175
0.13197842,72.222496
0.02915074,79.727196
0.13625738,76.385185
0.224641,79.34577
0.16307925,81.27148
0.3495699,82.71573
0.34724826,85.8318
0.45298538,84.88079
0.5725397,86.20782
0.64597297,87.47682
0.6055584,89.392136
0.6828414,92.61398
0.5977316,93.58514
0.8758257,95.61152
0.8525175,94.59503
0.92114025,98.10457
1.0100747,98.48373
1.0064812,96.643684
1.1819361,102.97443
1.2561013,104.57101
1.1760317,105.45082
1.1680413,108.56933
1.1601484,110.20568
1.3791136,111.70769
1.2529491,110.13937
1.3568738,114.265625
1.3094323,109.134636
1.3260885,115.36185
1.3107893,108.48274
1.3159269,112.09974
1.2681428,114.767586
1.3546602,113.44986
1.4198594,115.26224
1.4011039,115.530594
1.4172806,116.767235
1.2569293,118.57467
1.3769222,116.02449
1.3730237,115.07669
1.26301,117.2919
1.4158479,110.88799
1.3534359,114.30405
1.2645944,116.83938
1.2193547,118.68052
1.2053764,115.30492
1.1701463,110.693474
1.0820719,111.74948
1.0732435,108.12008
1.0231396,109.99041
1.0803562,106.10149
1.0665977,114.99698
1.0058997,106.867256
0.99828124,106.091736
1.084952,108.91916
1.038776,105.88679
0.92948294,102.04761
0.9495895,102.10244
0.9961245,106.081955
0.9104496,102.50524
1.0221303,101.81363
0.9578483,98.2026
0.89845884,101.529945
0.9886104,101.59611
0.88367814,103.6229
0.9216204,100.14422
0.93983215,98.931366
0.8084009,97.41235
0.8490308,94.44745
0.85098904,96.09888
0.8580093,97.334496
0.8196,95.087296
0.91209155,94.54878
0.6801729,92.326355
0.7282966,88.82962
0.68230194,91.42934
0.6433758,84.63056
0.64230895,86.807434
0.5525512,86.9847
0.5286335,86.24845
0.5114199,83.7737
0.61200935,86.10001
0.59790224,86.00994
0.5061977,83.96694
0.5101802,81.7608
0.45251212,82.442276
0.45570764,79.20368
0.43959588,78.752464
0.46663427,82.75035
0.41730887,77.24736
0.46333104,78.57034
0.39907774,78.60036
0.41300964,75.81344
0.37845808,72.72339
0.4701386,70.79408
0.46837527,76.47496
0.417364,72.062965
0.3541834,70.67056
0.44826558,71.153305
0.32215345,73.1371
0.4831615,67.469154
0.26095682,68.86546
0.4040237,70.55656
0.34109733,71.39194
0.3280807,70.07538
0.2792049,66.95558
0.2917498,69.863884
0.23975754,75.78801
0.07098588,70.64891
0.14506684,68.22899
0.098439835,70.72045
0.06067414,67.42422
0.18605755,69.79563
0.14654507,73.33209
0.16538212,73.52982
0.14154269,73.71407
0.1918628,77.121254
0.15403213,71.868614
0.20147057,77.65019
0.16785213,78.7551
0.3148057,74.465195
0.19583403,83.73105
0.32637954,77.845314
0.4944178,80.60258
0.38885638,82.61084
0.52795905,85.40422
0.62474173,89.112656
0.67004687,86.33449
0.8037081,87.76207
0.76739293,89.16579
0.9669533,91.25068
0.8948746,92.24566
1.0555862,94.48738
1.1444501,96.5849
1.1699413,93.5441
1.2322688,96.08564
1.2968025,100.61156
1.4140354,102.68728
1.3195993,103.20111
1.4606905,104.76891
1.4895068,108.28414
1.5302262,108.97833
1.4668531,111.66085
1.5248216,109.32241
1.6396217,109.56769
1.6616887,110.49117
1.6269506,112.8515
1.5804695,114.15763
1.7533257,115.79231
1.6331503,112.92131
1.7328037,111.742615
1.6702218,115.982
1.6704658,114.08161
1.683125,115.67559
1.5970199,114.05761
1.5660506,116.6152
1.6718924,112.38256
1.5484369,116.90139
1.6123796,112.18757
1.574437,113.83755
1.4978573,115.21184
1.421126,114.39181
1.5959823,111.9233
1.6198366,114.38628
1.4301136,114.53529
1.4659715,115.88798
1.5007411,113.0159
1.4765718,112.63129
1.4022592,109.45984
1.3759488,110.22206
1.3206643,106.86751
1.2986606,104.65601
1.3214468,108.777336
1.3465725,104.66794
1.3183991,105.08697
1.3235437,105.38484
1.2585741,105.106606
1.2046999,105.34324
1.2788894,102.715836
1.2822702,98.86537
1.2916627,104.04042
1.3204772,98.437805
1.2167473,99.38372
1.3586923,99.24975
1.2039862,97.47904
1.2803694,96.5097
1.2697833,98.08556
1.2087835,96.486015
1.2422969,90.06415
1.2035705,94.59355
1.120537,91.683235
1.1372205,94.34458
1.0644095,91.10677
1.084595,86.117195
1.0301794,90.976166
1.0486493,92.2369
0.8682216,87.799286
0.94533855,81.64438
0.90701383,85.281105
0.9163321,83.97671
0.86884385,84.402885
0.9297854,83.53014
0.8684767,80.508934
0.859622,79.42023
0.84230524,82.11642
0.78894585,77.73225
0.81917924,76.89906
0.78909314,80.11992
0.7745692,79.30931
0.7142064,77.55452
0.85562694,75.38775
0.83828926,76.68085
0.8216864,73.41221
0.83662003,73.9897
0.8358291,79.12479
0.84684837,70.74983
0.79234594,72.459404
0.75111496,74.4018
0.83777833,70.61297
0.7325496,71.2237
0.68368906,70.493286
0.70280105,70.154564
0.70169765,67.325096
0.68126595,69.36994
0.6611156,68.288795
0.6964722,69.075
0.62739235,69.76482
0.60789794,70.63598
0.42240313,70.66546
0.435455,73.034164
