ppg,abp
0.9315368,87.72369
1.0756533,91.89132
1.2014426,96.30515
1.4321848,102.92298
1.4783906,99.91702
1.4987054,107.929115
1.5394695,119.36295
1.630801,115.01499
1.6497838,116.55614
1.6710273,119.33178
1.6724024,126.08975
1.7990872,128.72765
1.7828457,128.33069
1.7715477,127.49325
1.8838704,130.64735
1.6826881,126.51019
1.663771,130.13432
1.6372863,125.01886
1.653982,133.66428
1.6772941,123.92991
1.5769713,128.21136
1.5302358,123.65568
1.5237373,124.35835
1.4595636,120.37303
1.5010204,118.97665
1.4332561,122.10244
1.4007075,116.691635
1.3903852,113.56756
1.3330739,115.01507
1.3823414,110.39059
1.3774567,105.340096
1.2690735,105.31276
1.351042,101.78245
1.2727613,100.96561
1.3479772,96.77252
1.3578346,98.898155
1.2634913,90.89302
1.2265197,90.08516
1.2090274,90.328674
1.1169636,86.78239
1.1418962,86.08212
1.0389388,80.05872
1.0761973,76.30586
0.95695245,77.49913
0.9616687,75.29094
0.9107134,73.92938
0.79582727,71.2124
0.71631986,70.60734
0.84328693,64.017296
0.6964727,62.295994
0.8277373,60.852665
0.82889587,55.32336
0.75592476,55.21424
0.7683327,54.45217
0.85910267,53.97902
0.7971382,55.417152
0.8041237,49.501385
0.834693,49.556946
0.5952827,52.44656
0.768826,49.235645
0.6792439,42.31194
0.67405283,47.261932
0.49889484,47.64653
0.61697584,50.87708
0.45458546,48.92335
0.4500761,56.166237
0.47001326,55.612885
0.53288054,57.30326
0.52799433,63.000587
0.5636521,60.69957
0.6184839,67.90559
0.7297606,68.86104
0.7681512,69.30059
0.9916959,75.09126
1.1652107,82.14249
1.1450351,83.02395
1.2937075,86.773346
1.485211,91.47082
1.5217488,99.554695
1.5392864,101.24265
1.6508418,107.898575
1.7769701,111.90687
1.7531048,114.72151
1.8254801,116.46554
1.8528003,120.280815
2.0534606,119.772415
1.9092011,124.69828
2.0283177,126.528854
1.9107028,124.856995
1.9749961,133.61368
1.9970978,129.98193
1.8052107,132.55652
1.8640492,135.17654
1.8954227,131.00261
1.8097458,127.58189
1.810329,129.24615
1.7481104,127.19017
1.7544503,128.90643
1.6834186,120.04952
1.6667935,120.929535
1.5951433,119.66756
1.5562137,117.473946
1.6091611,111.84059
1.488976,108.542496
1.6758692,110.54515
1.5609943,109.900925
1.5582201,111.4607
1.6263757,102.38607
1.5646042,99.72719
1.5141213,100.74675
1.4701276,101.19808
1.4142865,93.23075
1.3659409,92.66391
1.3284571,88.19218
1.2877816,86.534225
1.1949595,85.54204
1.150035,84.091446
1.1492991,82.24809
1.1055707,78.98138
1.1424996,76.769936
1.0941226,73.67558
0.9875126,74.61396
0.9934812,69.61571
0.9352143,71.806694
0.8832073,65.33176
0.97570753,58.59928
0.9134154,58.338455
0.9301425,58.3318
0.91098,53.304836
1.0495018,59.645687
0.864669,50.57718
1.0016849,51.13777
0.7908411,51.468548
0.743512,52.84792
0.7921477,49.02889
0.69715375,49.265957
0.69051933,45.46605
0.70837045,49.62103
0.6147004,45.893253
0.6107811,53.99858
0.53071946,50.21229
0.64918983,56.04186
0.5478442,55.088745
0.57343525,60.481297
0.5568694,63.365334
0.6775029,62.868202
0.74980867,68.18564
0.7996406,70.14239
0.8673359,71.70164
1.0186489,79.1127
1.0831366,82.29209
1.2907962,86.48933
1.3514088,92.93312
1.5516558,97.94338
1.6067189,101.464226
1.6618607,104.120094
1.7248957,108.59723
1.7589433,113.97349
1.8246588,115.97137
1.8135736,118.35036
1.9160303,123.07873
1.9255961,123.81013
1.9218861,127.478745
1.9362774,128.40326
1.983301,125.33586
1.8002222,130.47536
1.9260412,127.10697
1.8902994,128.3288
1.7571499,133.08673
1.844952,129.97902
1.7416762,131.82079
1.7621133,127.42732
1.5998029,128.37233
1.6861534,125.67219
1.641274,124.92799
1.5235411,122.21454
1.5708871,115.40415
1.5827715,116.13764
1.5836709,113.303925
1.4556525,110.84378
1.4873264,114.6095
1.4536294,112.9017
1.513402,107.96687
1.4873198,101.57592
1.4145573,100.88713
1.3117155,98.38907
1.3944781,93.97457
1.3238589,92.60198
1.3176633,93.2218
1.2617431,85.764946
1.2661713,82.385544
1.1690563,84.1986
1.1855934,84.64381
1.1427681,81.068474
1.1289505,80.4691
0.95620304,78.50875
0.9449348,73.557304
0.8486234,71.75184
0.8225619,74.60483
0.81476915,68.40286
0.8717361,64.748825
0.77066433,58.77104
0.8695971,56.325233
0.7449378,60.586033
0.79896516,58.271378
0.79523724,51.91746
0.80901253,48.128258
0.81584346,46.762238
0.71648026,50.068405
0.6297877,46.637035
0.6198308,50.617332
0.6225839,48.022602
0.54027283,48.02921
0.5139691,54.037407
0.4263676,50.553722
0.4300181,54.126816
0.42880765,54.28832
0.29104033,49.256195
0.34474745,59.738907
0.51061475,57.027744
0.4771068,60.47116
0.45142844,63.538097
0.63258547,65.834496
0.69265425,66.598625
0.74575675,74.09974
0.9446076,80.25207
0.99196684,82.38782
1.1029902,86.417595
1.3042194,89.528206
1.2871801,92.091965
1.4430671,97.99721
1.5613831,103.594055
1.5568981,108.35705
1.5220819,108.77648
1.6274679,117.455124
1.5723886,116.80338
1.766131,121.93818
1.6928325,121.94406
1.6674417,121.75073
1.6121258,127.16757
1.7229998,130.63945
1.697914,131.65105
1.568961,124.325294
1.605819,130.42947
1.675313,130.44756
1.6580888,127.58118
1.6597779,128.83997
1.5649253,126.744446
1.5965325,128.25285
1.4536926,120.53091
1.4042097,123.98542
1.4608741,127.00664
1.2783402,117.048515
1.2520424,122.07982
1.247306,115.48114
1.150589,113.04377
1.1846858,107.51964
1.1810682,107.07743
1.1414446,103.63003
1.217522,105.40593
1.1084293,98.884346
1.0497494,93.32402
1.1405689,94.94518
1.0497655,96.25778
1.1274616,91.29984
1.032143,90.25915
0.88499576,87.37083
0.795238,85.18935
0.9643391,85.63739
0.91883326,77.06249
0.74564385,82.556335
0.694209,72.95717
0.61541814,71.207375
0.615864,71.11083
0.648749,68.16266
0.5250339,64.319176
0.5376627,68.98097
0.50631595,61.61346
0.5454683,65.55194
0.5487181,53.52018
0.49736407,54.81862
0.5199146,58.200077
0.50445837,52.135433
0.36350477,48.12491
0.39000288,50.457726
0.43762162,49.469692
0.29175007,50.251842
0.31478167,47.268665
0.31917766,52.717495
0.13956967,50.349182
0.13195392,50.533314
0.13054395,48.291176
0.06469384,55.55019
0.026233537,55.357254
0.085275225,57.150555
0.16572317,57.090733
0.16080806,63.367916
0.27417716,68.5048
0.4858746,68.90204
0.42626768,71.98056
0.5066712,78.7408
0.7353249,82.12752
0.784668,88.30494
0.9219204,91.79022
0.95336485,89.51252
1.0364857,97.40312
1.20014,101.126
1.4038006,106.9038
1.2477764,110.63165
1.2601525,107.86044
1.3143151,115.540474
1.4019285,115.827866
1.3874702,119.082054
1.2773848,121.03255
1.5372097,125.09999
1.500375,127.76778
1.4865872,124.92889
1.4402832,126.71917
1.395419,127.971825
1.4542521,132.91626
1.2874774,132.51709
1.3542265,129.55548
1.275325,126.44254
1.2102404,125.13939
1.2062126,126.58521
1.2024379,119.31957
1.0646726,122.69802
1.0811149,125.22514
1.0827789,120.65786
1.104996,121.88526
1.048018,114.82543
1.0034906,111.8159
0.96731174,113.81265
0.94656026,106.16995
0.92928725,103.61054
0.86956626,103.241615
0.9662588,99.61465
0.7910662,100.8653
0.7993769,98.58075
0.8171009,95.10362
0.8751553,93.483894
0.7624334,89.07339
0.78840774,88.61672
0.7551728,83.078606
0.6450251,78.10775
0.5421971,81.51204
0.5469421,75.09112
0.5195547,75.78194
0.49788254,70.53508
0.38483182,71.37849
0.36679462,71.04894
0.2584449,67.81366
0.34809813,63.703445
0.3495076,63.37568
0.370748,61.494053
0.3384646,56.111294
0.24151608,58.964214
0.36096606,56.165615
0.25467882,50.50896
0.23964392,48.813293
0.34134942,50.560604
0.31175226,53.648697
0.1945943,42.141228
0.04301831,49.08089
0.20676914,46.39506
-0.016002256,50.834946
-0.0071198726,50.654194
-0.053631324,50.0848
-0.08668158,57.67766
-0.034696948,54.35001
-0.091770045,56.763325
0.038364112,59.12644
0.09695888,65.31187
0.13637558,64.34744
0.213531,67.426125
0.34065574,71.203125
0.34567282,78.24131
0.52635235,81.495056
0.6176337,86.68954
0.7601913,89.030334
0.8052256,93.56024
0.9955575,98.51079
1.0833663,101.529274
1.0706236,107.68833
1.1647329,109.687256
1.2530273,111.38389
1.2904387,113.8119
1.3062184,117.68198
1.3764027,124.44374
1.4086496,124.19047
1.3744189,123.880646
1.4304919,122.64554
1.3785423,126.91204
1.4279335,123.22327
1.2263172,129.93651
1.3599615,127.20185
1.4069426,123.52449
1.3906653,133.17694
1.2017647,122.77626
1.2280592,121.90864
1.1907667,123.45585
1.1325403,123.38664
1.0907481,118.8891
1.0629932,119.51556
1.1139764,118.07338
1.015184,118.20984
0.9806921,112.16505
1.0059494,113.36615
0.9336783,109.634476
0.90221983,107.93534
0.93235207,110.83065
0.90111256,99.35313
0.91393423,99.739174
0.9695771,99.90334
0.85763675,93.68026
0.87008697,96.005066
0.7271641,91.18794
0.8680632,89.47888
0.68737787,87.903435
0.71374995,89.20277
0.59500486,84.352486
0.5666425,82.061905
0.50495726,76.321045
0.51969427,75.483
0.435053,74.70085
0.47920036,66.15653
0.48374802,72.54385
0.36716866,67.6617
0.44876164,62.829662
0.5177122,61.54279
0.3609084,59.7351
0.38195294,55.67949
0.5646027,57.7186
0.41572094,54.641396
0.3500729,52.72781
0.4508595,48.79367
0.1694076,53.042927
0.32595187,44.4183
0.20976922,46.596222
0.2684886,50.7162
0.2071574,50.186596
0.0033036806,47.694405
0.11815302,47.767685
0.026521979,56.134113
0.031552725,53.944046
0.030914037,58.42023
0.105092004,61.597996
0.12883013,61.556202
0.16178085,66.94692
0.20221594,65.07245
0.35585856,71.3279
0.4916549,73.087906
0.5853083,74.753494
0.6770311,79.27974
0.8235866,88.6998
0.90902704,90.89759
1.0668207,93.43533
1.1730231,100.38568
1.2704246,98.75461
1.333589,105.34473
1.3727014,108.64483
1.4395493,110.15533
1.411109,118.38574
1.4512532,119.55656
1.4611955,120.72668
1.4888753,130.02219
1.5881114,126.48143
1.5036774,126.04395
1.486957,131.8941
1.5461701,130.17685
1.553837,126.22688
1.5353988,132.12952
1.4478501,127.400536
1.390564,124.31258
1.4211873,130.60555
1.4479156,127.07977
1.3210723,122.7899
1.3546728,125.182915
1.2349752,118.62924
1.1438698,120.07009
1.2914011,119.18085
1.24171,110.46101
1.2022569,115.57842
1.158459,110.08252
1.2115209,106.425156
1.0883096,107.66489
1.1600206,106.788704
1.0694449,102.812164
1.0528796,98.5383
1.0926757,97.224396
1.0743232,92.261475
1.0826821,91.001625
1.0049533,92.52747
0.96301585,89.5882
0.9931849,84.952225
0.9820644,77.61312
0.7999559,82.04556
0.8120773,78.93867
0.8065277,75.49426
0.72734296,73.91972
0.66301113,68.33696
0.6035834,66.90436
0.68149817,63.19252
0.7060509,65.391495
0.595347,59.15141
0.6997615,62.778004
0.6695257,58.328487
0.6356922,57.6232
0.6459062,56.504524
0.6982108,51.664433
0.73925024,49.715305
0.6470446,51.037384
0.56579924,49.420475
0.53898233,54.320694
0.46055886,52.054222
0.5523779,50.265747
0.35695437,49.802227
0.3939433,45.241882
0.43073177,49.50416
0.3771658,53.9832
0.29799718,56.770267
0.4104052,51.467
0.32579476,63.692215
0.40599164,59.94647
0.48354763,68.81303
0.5042686,67.38726
0.675112,73.601036
0.77735084,76.49521
0.84543854,78.11329
1.0144597,82.68911
1.224711,85.14933
1.2449737,95.50315
1.346378,95.559975
1.563198,99.0953
1.5318158,103.85159
1.5685142,111.35391
1.5581952,111.55264
1.821377,113.12454
1.7499396,122.508804
1.8293029,120.59673
1.7821666,122.50122
1.785751,118.499756
1.7763845,127.4362
1.8280232,126.6065
1.8887401,125.88191
1.8631843,129.008
1.8038582,128.0316
1.6802115,128.04913
1.7482668,125.318794
1.7295576,127.289734
1.6963068,123.74395
1.6161081,124.738304
1.6075001,123.6266
1.5425735,125.014755
1.5057132,120.32705
1.5207204,118.77746
1.3675209,119.57448
1.4827164,117.223236
1.570999,114.17494
1.41662,109.83136
1.5251154,105.461876
1.4067402,103.85591
1.3371174,103.79541
1.414766,102.60629
1.2952762,99.62713
1.4079859,95.5984
1.3226612,93.052086
1.4381673,92.531006
1.294585,88.77238
1.1797768,87.571884
1.218227,82.868546
1.1577044,79.6352
1.1154685,78.81943
1.0690767,76.06187
1.0309255,73.48367
0.9349988,77.18454
0.98643935,71.63061
0.8540457,65.77572
0.9493329,67.46172
0.9306398,65.25471
0.96720535,60.144188
0.9604501,61.42018
0.9378833,60.058674
0.8080537,53.00349
0.987132,54.52539
0.835536,53.558037
0.8862258,50.63545
0.78669417,51.48476
0.7179666,47.67357
0.70458966,48.63511
0.7307429,48.423393
0.63417745,49.647636
0.5832016,48.22097
0.52062815,49.029697
0.4746572,51.066025
0.49729794,53.83675
0.6385093,55.631355
0.5591741,56.25001
0.53147906,59.168434
0.61960524,63.92919
0.6668,66.077644
0.7617861,72.481346
0.9443831,73.13263
1.0235288,76.44144
1.0868604,80.44054
1.1587197,83.977264
1.4368147,87.25794
1.4166179,89.94517
1.5758905,99.14051
1.5930378,100.70082
1.7239237,106.50873
1.720102,112.22045
1.7515337,112.49153
1.857592,113.80537
1.8604791,119.74056
1.8882859,124.33883
1.8865706,123.35053
1.942089,121.89225
1.9170207,130.26042
1.9064833,127.911934
1.9276203,128.61948
1.9916393,129.09293
1.9758168,128.40337
1.8274534,128.41844
1.8915143,128.89403
1.9112885,127.666145
1.9002911,127.22005
1.792053,132.52945
1.6950046,121.905334
1.7820362,121.53874
1.6864834,122.77954
1.500233,119.16774
1.621466,112.19801
1.5213553,112.44949
1.6112822,109.73692
1.4981551,110.58834
1.5262631,108.7523
1.4875555,104.1447
1.4948361,99.282845
1.62296,99.4774
1.3985285,98.11507
1.4073142,98.20917
1.3720196,93.274124
1.3830395,92.146095
1.411935,87.13457
1.3285627,85.44249
1.2808956,82.203224
1.1465099,80.557625
1.1211262,78.86922
1.0069747,76.70345
1.0512074,75.2953
0.99565613,72.79235
0.96652657,72.39097
0.9839608,72.13282
0.9138054,66.7687
0.90850085,66.768684
0.9114775,63.04509
0.8852625,61.692875
0.9946673,54.871017
0.8705641,55.05138
0.86343616,51.081425
0.9129491,57.70494
0.80877906,48.443016
0.81412643,51.336807
0.8912412,50.060486
0.7550606,47.494465
0.68899524,44.49382
0.58380544,50.20629
0.6122471,51.9917
0.50258297,46.60949
0.50672394,53.39783
0.49033925,53.002937
0.47906536,54.71633
0.5632611,59.843964
0.57198304,60.676754
0.61355704,62.81585
0.6709094,67.24477
0.74869525,69.12758
0.80185425,78.533905
1.0226523,80.60304
1.0958661,76.729004
1.1910014,89.31008
1.3229395,88.80994
1.3181415,91.13864
1.4060622,102.13546
1.5632172,99.64198
1.653683,102.17925
1.6269948,111.936424
1.852404,110.96084
1.7499341,117.74941
1.8189279,118.497505
1.8805387,122.87189
1.8030752,121.09218
1.861405,127.175476
1.9777702,128.40504
1.8224325,126.55426
1.8399178,128.9675
1.8654875,128.42525
1.7871134,129.88821
1.7257688,130.41724
1.7191435,130.45404
1.720365,126.91159
1.6133133,128.82137
1.7223934,123.77976
1.6058714,119.05744
1.509787,123.76047
1.5357484,121.98569
1.3978432,115.75649
1.4931809,117.29137
1.4135891,112.56362
1.4021711,109.42157
1.3522543,106.52771
1.3574219,103.00497
1.4174606,101.112045
1.317336,102.81061
1.2486373,97.9936
1.2440386,97.89892
1.2617033,96.75775
1.2659881,88.945885
1.1872033,94.4825
1.1198514,89.436874
0.9736245,82.22304
0.98733294,83.59906
1.040019,83.23368
0.9666231,79.12519
0.9845,74.53192
0.9025446,74.41443
0.71974957,73.863
0.7856272,72.19048
0.7952365,71.716034
0.7495651,61.71851
0.76903176,63.98219
0.6499671,62.942764
0.63747764,59.90376
0.68503165,57.28569
0.60922,58.342197
0.66471773,51.958046
0.64495045,53.07015
0.7102098,47.617916
0.5277591,49.36352
0.53452003,55.672558
0.334936,45.28275
0.42025563,51.053665
0.3621579,51.377907
0.5101443,49.54558
0.21832812,47.004375
0.26303506,52.6854
0.19073378,55.223007
0.25504795,51.282696
0.25491208,57.486687
0.38591805,57.56789
0.38618335,63.37838
0.41133028,67.22969
0.4399283,70.91878
0.64078915,73.61117
0.7023756,77.54143
0.9048195,79.38536
0.91992396,87.51844
1.0462569,90.519775
1.1667216,97.07143
1.1383003,93.638504
1.3185157,100.619484
1.4517949,104.97017
1.4747193,110.01743
1.5300411,115.79403
1.4975606,119.08101
1.5572639,123.87373
1.5896077,122.644455
1.5921565,122.28116
1.5539668,124.18028
1.6092623,126.500626
1.5549922,129.21349
1.5217259,129.94644
1.649455,129.04442
1.5187323,131.93806
1.5556314,130.86937
1.4525654,128.11368
1.4449589,131.91768
1.3767551,129.69412
1.3663057,122.12989
1.3707473,126.58682
1.2834413,125.227104
1.2399746,120.82904
1.2646949,114.31887
1.1940855,115.05448
1.1146511,113.679054
1.1555595,113.29368
1.1486074,104.90186
1.0053346,110.70546
1.0033381,104.69127
0.953944,101.67668
1.0279945,98.19899
0.9957511,99.45659
0.9543327,91.66963
0.85845786,87.999214
0.9353315,90.11719
0.9083538,85.40631
0.80719006,83.42799
0.7301671,85.30821
0.6893308,81.320076
0.65751785,81.18876
0.62885517,78.44554
0.5575325,72.404465
0.5645995,66.38257
0.44783255,68.73666
0.5614503,73.28274
0.45142972,62.708298
0.50218004,61.23929
0.4651571,60.177162
0.47155792,57.807323
0.43250203,56.671783
0.5113302,55.20073
0.36092925,53.948723
0.37473792,52.68008
0.32838306,52.482685
0.30916265,49.901855
0.20878083,48.25678
0.24294768,46.627872
0.2816579,50.28809
0.093641765,47.47702
0.032599974,52.47593
0.035546474,49.782917
-0.035197828,52.325535
0.032585736,53.779835
-9.610189e-05,58.53374
0.089302436,58.042984
-0.012538997,65.86081
0.21308468,63.907387
0.37522054,65.95744
0.29894394,66.0211
0.38808367,74.08141
0.65941757,78.09817
0.6457936,80.62885
0.80043995,88.82493
0.78537107,90.36499
1.0052788,94.13398
1.0375155,99.46245
1.1421062,103.608826
1.1890777,103.18368
1.2258863,108.47524
1.2818775,119.03695
1.3307514,112.8091
1.323855,124.433014
1.422497,125.10184
1.31948,125.69945
1.4347451,127.26742
1.3722416,128.48515
1.528286,131.44202
1.3265561,128.86916
1.3979496,128.45305
1.3169605,131.67802
1.3542753,130.9269
1.1676022,130.13696
1.3124514,126.274284
1.1651353,126.305016
1.1609645,121.35746
1.141405,118.99536
1.1486162,119.583
0.9736032,119.181305
1.0229453,123.57531
0.8690255,112.346825
0.91053575,111.946754
0.88619846,111.84525
0.87946105,109.326256
1.0362072,107.118546
0.9435364,102.746994
0.8307022,103.06626
0.8948303,95.36921
0.8611426,95.87066
0.87782156,88.74351
0.8754867,95.53234
0.8145616,87.83658
0.81739,86.73718
0.65449256,87.087654
0.66657865,81.403145
0.5838946,79.81199
0.50981456,77.8438
0.4554783,73.54795
0.52093107,73.41142
0.3910767,72.02258
0.38285702,69.45356
0.35623962,65.98697
0.3318447,62.832737
0.30748135,63.652386
0.30411237,57.191326
0.2960953,56.755817
0.29265815,55.712128
0.37866718,55.831844
0.3693481,55.795223
0.3245697,51.487682
0.30408067,49.575825
0.25813878,49.587223
0.17804508,45.94867
0.09805671,50.06948
0.1223974,47.392746
0.006672376,50.507954
0.06759806,50.72325
-0.008772129,49.1632
-0.056204878,49.40717
-0.10495136,58.04888
-0.017494151,55.677723
-0.04746533,58.50243
0.08542311,61.60063
0.13185118,66.11089
0.26681173,68.51345
0.3783106,70.69594
0.47319162,77.13024
0.4846818,79.27872
0.65249467,82.8938
0.65836495,85.7171
0.92450356,88.51024
0.8714226,99.45505
0.95123,97.82648
1.0349783,105.5713
1.1763828,105.5945
1.2845107,113.3185
1.4571488,113.985306
1.4010792,113.51083
1.411897,123.48007
1.4918234,123.290184
1.4628516,127.78331
1.4642365,124.98298
1.3848339,127.17312
1.4490507,128.97403
1.3591313,131.98714
1.4880669,130.00278
1.3320682,132.19664
1.318438,128.16809
1.3792002,127.33975
1.3090634,130.35817
1.2177881,130.05923
1.2300596,121.96314
1.1374811,120.091194
1.1345265,117.96331
1.1207626,119.19299
1.0107405,113.05876
0.974176,111.79014
0.9845369,115.35482
1.1006368,108.12931
1.0499158,106.57498
0.97893023,105.42985
1.0639204,100.54257
0.9404175,104.64522
0.94699824,94.617035
0.94259083,99.731636
0.97029716,94.368416
0.948056,91.854416
0.8799499,93.03794
0.91899997,84.309494
0.76970553,87.865234
0.66401076,79.67635
0.6552176,77.45624
0.67640793,77.015045
0.6316756,75.29889
0.56929594,72.34394
0.5175971,72.36569
0.6031486,64.77931
0.4591562,63.66769
0.44081888,64.589806
0.43541175,58.766655
0.50964147,58.597084
0.50018406,56.823906
0.43258098,57.62723
0.4211755,52.636566
0.4312054,49.2785
0.40769172,51.04985
0.4866124,51.455833
0.41989008,47.337624
0.35980043,49.909004
0.2786857,50.90563
0.28254968,50.571087
0.18205893,48.33587
0.24754602,49.09793
0.19555107,51.45793
0.19942006,52.609272
0.07221252,56.878765
0.14690347,56.607796
0.17743383,61.26315
0.30108434,62.956974
0.36177805,68.01921
0.43402657,64.472336
0.55918145,72.55912
0.6876337,80.370224
0.8609452,82.46401
0.92130405,87.65229
1.1215752,89.369995
1.1497134,90.16699
1.1561453,97.536545
1.2079887,104.86261
1.3884262,106.12185
1.3386056,110.04938
1.5594568,111.260895
1.4951166,114.16528
1.6011156,121.2291
1.668019,118.4751
1.6119697,124.630104
1.7339213,131.31912
1.6674286,128.2892
1.6592463,132.55666
1.7070842,129.36365
1.6452512,129.8568
1.6213833,131.57314
1.5725383,132.61508
1.5941324,127.8139
1.5693578,124.019165
1.473782,128.0524
1.5027621,120.62587
1.3976727,122.39155
1.3811247,119.96246
1.4373834,123.018005
1.3719654,115.74165
1.3010203,117.2553
1.2510934,111.82519
1.423623,110.91855
1.2543519,109.6156
1.268676,110.8885
1.2715214,107.942444
1.1696813,102.68541
1.2522837,101.85723
1.2134718,91.78241
1.3283252,95.297035
1.0393385,91.632996
1.1954608,86.71997
1.2291311,89.0742
1.0475751,82.94753
1.063937,81.04906
0.9933729,83.806656
0.97973925,79.13934
0.81139356,79.500015
0.83174986,74.74901
0.86135334,70.92069
0.86030716,68.864784
0.7343529,70.99924
0.7662018,62.162464
0.79596186,57.971024
0.7030539,56.637817
0.68804866,59.23132
0.8185832,56.999542
0.8166566,52.887264
0.8048995,56.0271
0.75950664,46.668602
0.71725994,49.975746
0.6175861,52.92242
0.6445019,45.38593
0.63691556,46.038937
0.57636654,51.898067
0.6011822,45.052902
0.5785726,43.480564
0.4341514,46.069183
0.4282821,53.899582
0.42282113,53.542725
0.4512741,52.86251
0.5194295,58.071182
0.4294882,61.042862
0.62096184,65.30996
0.7345571,64.9389
0.8551889,73.416626
0.87061745,76.19538
0.898745,73.0062
1.032261,81.55582
1.1808658,91.30252
1.180139,88.86206
1.4467276,92.50923
1.4790741,98.73981
1.6123642,103.89145
1.6389879,112.415825
1.7964325,111.53357
1.7602316,115.21156
1.812525,112.85034
1.8430799,118.61609
1.9116105,125.86015
1.9208977,121.517006
1.8573817,126.19362
1.8450649,125.74047
1.8761936,127.460884
1.8447517,128.60764
1.854717,127.83991
1.8483723,128.57483
1.9514078,128.47597
1.6999555,126.82867
1.8777056,126.27756
1.7680367,126.559784
1.7505243,126.950455
1.6828604,124.20216
1.6081548,120.91555
1.5464839,119.6345
1.5530897,122.68618
1.6356453,113.13673
1.4583628,112.41645
1.4611657,111.2405
1.4136657,109.874435
1.5164247,109.140335
1.4832102,100.97755
1.4297583,106.85717
1.3727013,99.57195
1.4244004,94.8593
1.4128253,92.3308
1.4167801,92.09854
1.306568,89.7883
1.3886895,92.71771
1.1777742,86.67705
1.2139275,84.943504
1.176739,83.22718
1.1015248,79.22262
1.0334874,80.543976
0.9172786,71.03833
1.0247493,72.51261
0.9706358,70.47293
0.94180644,66.107056
0.96331114,63.340073
0.8698374,68.705284
0.95180404,57.88107
0.92025316,60.654026
0.9207518,55.441784
0.9293265,53.546185
0.91000277,51.312428
0.8430513,51.383553
0.8741675,55.20311
0.76552707,49.541687
0.7772737,52.0494
0.76772547,47.106705
0.75508547,47.18437
0.70923346,51.38732
0.60374784,45.920784
0.5852966,47.301224
0.49589288,48.79149
0.4861563,50.910713
0.59640807,56.65353
0.5856644,58.259235
0.69178593,59.305527
0.7517213,62.90079
0.74111,70.79152
0.8706858,74.064865
1.0349749,75.60127
1.0798317,82.6479
1.0912571,79.186386
1.1665918,89.57416
1.2807511,95.52053
1.4999509,97.297966
1.6269385,95.89242
1.659515,106.32241
1.6501294,109.62841
1.7601433,111.22942
1.7316713,115.08825
1.8720087,115.52673
1.989461,118.202446
1.9860613,120.614655
1.8721192,116.92434
1.8815823,126.65794
1.8876299,125.61057
1.9955487,128.77548
1.847124,133.70131
1.9484766,128.66101
1.8816825,130.46747
1.8813481,128.83568
1.757469,129.9848
1.7679669,123.87308
1.7922022,127.572685
1.736389,124.876236
1.7311795,122.548615
1.5983429,119.166214
1.599418,121.07362
1.586727,118.82312
1.595629,114.65951
1.4788865,114.769806
1.6097327,111.51139
1.4211808,108.426834
1.5166528,106.87859
1.4100089,107.926414
1.4420861,97.527275
1.481382,98.02902
1.3878598,96.68106
1.4242476,93.84625
1.4205425,92.03081
1.3363854,90.92165
1.2621086,91.0026
1.2502502,80.29188
1.1566435,80.751236
1.1084561,79.77398
1.0442812,75.02062
1.0791806,73.65142
0.8566276,74.685585
0.9523063,71.3604
0.8904101,67.56424
0.85403407,67.8938
0.8550583,66.85225
0.85306096,63.639923
0.7970304,55.58975
0.8405436,56.4668
0.7541482,53.984367
0.8587049,57.22874
0.74262345,52.991417
0.70127517,55.38646
0.7338251,50.00479
0.6745953,50.13496
0.66013956,48.64137
0.62929237,49.463802
0.6246522,50.68335
0.53202045,50.80058
0.4915691,51.48361
0.5752088,49.017406
0.40891814,51.30632
0.2635426,55.326176
0.40855855,59.57231
0.36791012,59.101162
0.4575535,65.53251
0.5175358,60.32643
0.68245006,68.56217
0.6800377,68.28643
0.88456124,78.61003
0.9149464,82.2495
1.0841541,83.08782
1.1344514,89.51142
1.2920672,94.55988
1.353527,95.93244
1.4840058,101.778885
1.5172328,104.79142
1.6105517,109.37728
1.6372361,109.4523
1.6590686,118.69086
1.667464,120.59846
1.6931938,122.06921
1.7811935,127.5487
1.770515,126.67199
1.7260432,129.57799
1.7582905,127.790146
1.8075134,130.47328
1.7600509,128.42506
1.659082,130.75955
1.7270329,125.17563
1.6640608,126.86549
1.5435363,129.11143
1.5656885,126.27853
1.4753319,129.82011
1.5498769,123.86321
1.4620692,116.370766
1.4579327,118.445915
1.4252667,116.51036
1.3306303,111.64266
1.3707142,112.11217
1.2928131,111.33692
1.2513427,107.63669
1.2397913,107.221245
1.2637651,106.07078
1.2054079,102.508965
1.127777,103.53479
1.2202141,101.80959
1.2442538,98.04259
1.021939,88.726006
1.1758028,88.922295
1.0817641,86.54345
0.98248357,87.02505
0.93686354,87.046165
0.89039737,79.88127
0.9118221,81.223236
0.7484741,81.71362
0.69081277,73.66043
0.71106124,70.27961
0.7125398,68.664276
0.70821726,68.75763
0.6892773,66.29282
0.61486506,65.36161
0.6043719,62.916332
0.5640567,57.124763
0.50347257,58.04626
0.62077516,54.461655
0.66459,59.152832
0.41587257,55.328682
0.48419186,53.00437
0.50739217,54.059765
0.47663084,42.278088
0.44902724,47.22479
0.3717207,49.509373
0.38227513,49.792038
0.28810465,44.642902
0.2365676,52.884632
0.11630867,51.464256
0.21841589,50.683544
0.092528604,55.10046
0.19973148,52.3091
0.29943073,57.10876
0.17643312,62.654663
0.3308967,65.483665
0.4174152,70.74397
0.5523294,72.04962
0.6393127,78.81662
0.6652862,79.492004
0.8789599,87.79281
0.93144447,88.129456
1.0495882,93.3226
1.1687084,99.1935
1.2109644,104.41619
1.2696295,108.444855
1.4904081,108.85472
1.3853161,113.70816
1.3927084,116.410774
1.4931128,118.15507
1.5421894,118.80486
1.3939632,127.59043
1.4922509,130.0884
1.4558978,132.4438
1.4385457,127.11543
1.4905081,124.534485
1.4918468,131.37465
1.4080396,130.05736
1.4760222,130.12732
1.3057007,131.22064
1.3098283,123.277054
1.2861483,124.49667
1.2714486,129.21817
1.2013011,123.57926
1.1549461,121.73182
1.0922972,119.256386
1.1745439,119.06021
1.0216964,119.76714
1.1018444,113.519455
1.0219291,113.21279
0.9580402,110.53123
0.9673201,104.355034
0.9854239,100.89157
1.0175227,106.24
0.8801283,101.54227
0.879507,99.24763
0.972399,94.65664
0.8903058,95.62724
0.81108606,90.567085
0.78835374,85.538155
0.7193651,86.44595
0.7646087,85.37252
0.7287757,83.520836
0.5215888,83.36855
0.5954485,76.469086
0.5235794,74.07197
0.5264062,76.631195
0.39280495,69.62766
0.35100934,65.94394
0.34868613,61.587254
0.39187068,66.71583
0.23949869,66.981735
0.39527526,55.8181
0.32890332,57.58944
0.46797326,55.38777
0.27908152,50.835724
0.24086285,52.641876
0.3202368,48.959896
0.34652808,53.413475
0.25343913,48.249363
0.29026294,47.74478
0.08305021,46.819183
0.050433632,49.40642
0.013506182,50.50909
-0.08573356,50.649307
-0.04829459,48.92132
-0.11094376,53.687096
-0.032275114,49.79597
-0.020213315,56.623592
0.040907446,60.863945
0.05871265,62.67386
0.2558602,65.76106
0.17635098,70.65579
0.39626482,74.12136
0.37635037,76.56485
0.5086234,81.00505
0.7318381,83.78487
0.6688653,91.160065
0.9459559,92.74659
1.0101546,97.521805
1.164747,102.58325
1.0733685,105.49509
1.1673733,111.60198
1.1937244,108.91897
1.3572208,118.77595
1.3722719,121.5884
1.2856257,123.74746
1.340381,126.45946
1.3607708,125.075584
1.3861785,129.90584
1.3481563,129.94025
1.3991494,126.30965
1.3719258,128.4738
1.2524353,132.55507
1.3370502,128.95915
1.2468178,130.13988
1.2433685,132.60187
1.2551924,126.08996
1.0846798,126.2254
1.1098982,119.31666
1.0748514,116.88693
1.1456131,119.442276
1.0027989,113.07023
0.9707274,114.758026
1.0800815,114.20436
0.92129165,111.2678
0.8796023,109.71758
0.97078604,105.24044
0.90127784,102.85797
0.9326555,99.81687
0.9194979,100.354416
0.9433267,98.49498
0.9575097,97.51094
0.8147577,94.4275
0.83160067,85.73238
0.7166402,87.55173
0.70738864,88.085686
0.72551554,84.6311
0.5763436,81.308075
0.59200305,77.27465
0.6524636,76.258064
0.5022651,74.135185
0.4593487,74.32831
0.40055427,68.83883
0.33228683,62.348846
0.31622124,66.53315
0.41865888,63.130245
0.44144356,56.397667
0.41061616,62.520386
0.34968093,63.655407
0.38521942,54.108074
0.36965993,50.115273
0.40826523,50.235626
0.2393169,52.607243
0.3238028,49.314728
0.23799498,53.75097
0.18400937,48.254166
0.18741891,46.591015
0.24902488,48.14053
0.12145088,53.005657
-0.0038650997,53.28659
0.10928524,51.39918
0.05235815,53.90542
-0.007027727,55.155132
0.13913944,59.567158
0.046641443,62.38317
0.19626904,59.70983
0.32657826,67.956314
0.32321483,73.427864
0.43899637,75.79253
0.582194,80.57201
0.74489236,82.75957
0.7988706,86.62413
0.8950667,93.54705
1.0821732,100.88294
1.0364707,102.0086
1.1136268,103.60143
1.2975876,104.82015
1.3538427,112.92394
1.322608,115.27511
1.464241,120.20008
1.4723735,118.18155
1.3869406,119.09184
1.4713571,119.88964
1.4897652,129.6797
1.5373026,125.33009
1.40724,127.9189
1.556875,129.26288
1.461575,130.46378
1.4776384,127.4275
1.5068703,130.25232
1.3899593,130.12112
1.2969366,128.6742
1.4095765,126.4293
1.2168204,122.57694
1.31105,122.23611
1.2673088,120.88764
1.23649,118.60285
1.1871636,116.158554
1.2402081,112.45596
1.1901226,112.09829
1.1540838,111.67472
1.119458,108.490395
1.1474004,102.767624
1.1430892,104.42479
1.0704666,103.90032
1.0581361,101.6626
1.0233138,99.290665
1.086817,95.4677
1.0201988,89.69636
0.956877,92.335495
0.85959464,86.959175
0.90940416,84.54933
0.8835518,81.76274
0.83640444,82.07173
0.71441025,74.26839
0.667244,74.05486
0.69098264,70.03848
0.6730328,74.3445
0.56321126,64.626915
0.50467306,68.035675
0.6845518,64.28469
0.6563273,63.09214
0.60207874,58.208065
0.56646323,60.41095
0.5835429,55.06414
0.5238242,50.963024
0.546203,52.369404
0.5656589,53.043533
0.51495296,46.848557
0.5439968,53.95276
0.37051237,49.356167
0.51545936,51.185497
0.30097505,49.338997
0.41670558,44.878727
0.26763514,45.31149
0.3720779,46.79557
0.3025965,52.1553
0.15222785,52.794674
0.25080013,57.094387
0.3928879,58.670986
0.44175708,61.8043
0.442016,68.30473
0.47528943,70.78606
0.6193984,71.09041
0.7234437,81.70212
0.8674315,81.62234
0.96330285,87.44194
1.2053816,90.409904
1.2383436,92.659164
1.3862869,93.384735
1.4032747,99.197975
1.4912195,105.556335
1.5765201,115.52488
1.661517,114.25065
1.6292552,114.08008
1.6507157,122.07204
1.6415769,118.98978
1.6844369,126.86918
1.7236325,122.20188
1.7230275,134.79404
1.8322982,130.99487
1.724517,132.14816
1.7599683,125.819626
1.8153974,127.44814
1.8358837,127.73045
1.6609739,129.9054
1.6531676,122.961494
1.6603655,128.35692
1.592195,125.415115
1.5512681,121.201416
1.4891437,125.32341
1.5195403,122.73158
1.4163097,121.93635
1.4921213,111.80957
1.468721,108.13995
1.3545506,110.02668
1.3456994,109.1637
1.3808566,106.16186
1.469341,109.06798
1.4062915,96.88531
1.3790134,101.43906
1.3292161,97.785164
1.3616503,95.27542
1.2237575,96.632545
1.3032746,92.57986
1.294042,87.54458
1.192749,84.23441
1.1693771,87.00586
1.1215744,81.678825
1.0454181,78.6749
0.99877673,82.9196
0.9570577,76.649704
1.0035684,69.975235
0.9225463,75.156746
0.83965224,69.37507
0.8692273,68.42974
0.8037932,65.68789
0.9345591,62.7096
0.98939586,61.232685
0.8507417,59.072056
0.8315187,52.458992
0.82508034,50.59754
0.79024714,51.136314
0.90065336,49.713543
0.8264737,48.679794
0.82373637,49.88505
0.7530343,50.570427
0.66488326,49.80719
0.64307094,47.65391
0.49960345,48.9591
0.51309556,51.860554
0.49380732,47.62212
0.45753384,54.40962
0.4810205,52.185883
0.55782044,60.98268
0.5882959,60.36477
0.7043083,62.944653
0.71431,67.26252
0.7896101,70.36324
0.924376,72.95863
0.9580407,76.18587
1.0847936,84.36728
1.1750879,84.97277
1.271535,87.351166
1.4407688,92.838425
1.4948248,99.49197
1.5343741,103.166245
1.8189113,105.25448
1.7387238,110.66267
1.8327054,110.1641
1.929205,114.43638
1.8641485,119.26064
1.9589738,125.74589
1.9011697,124.913185
1.9280928,124.52471
1.983887,129.22171
2.0163152,130.95192
2.0270483,128.56181
1.9146634,129.07594
1.9756619,129.09727
1.8928785,132.19061
1.8958493,127.9899
1.9218152,127.03858
1.8141402,124.43601
1.905141,124.83825
1.6479979,123.51335
1.6384631,119.1688
1.6828508,118.10558
1.6123309,117.149956
1.6007782,116.57392
1.4555869,112.26834
1.5842024,113.06203
1.5330635,111.59972
1.5520239,107.4231
1.5125453,104.61712
1.5071408,103.01194
1.5668436,97.50724
1.4687611,95.34007
1.4264454,96.18976
1.391131,89.815994
1.339301,91.33527
1.3244038,89.787994
1.3269641,85.606766
1.2240673,84.25273
1.2110084,82.17839
1.1388682,79.42763
1.1000081,81.79698
1.036676,75.900276
1.0952805,72.30555
1.0543619,70.0461
0.96498805,67.2398
0.955034,65.081436
0.8794734,67.32891
0.96527636,59.34731
0.9755729,64.9853
0.9331858,56.254917
0.8878261,56.99551
0.95626545,52.724957
0.88757837,53.586483
0.90966994,52.038334
0.8586563,47.48525
0.7809799,50.5085
0.6960606,47.59749
0.63529366,47.907104
0.6137955,48.9467
0.6098675,44.86454
0.57727176,49.363834
0.6138396,54.97652
0.5076123,52.221104
0.44427523,52.693245
0.47146937,60.371002
0.641375,62.8911
0.6205532,61.318253
0.631681,70.04896
0.89877975,71.55954
0.81541824,75.50648
0.98446375,75.64333
1.1856638,78.29484
1.2176725,92.85386
1.3001305,86.93367
1.4648937,91.497826
1.5094109,98.504875
1.6130872,101.15646
1.6495298,102.65003
1.7092433,112.42108
1.787865,113.92474
1.8847941,119.27231
1.8379437,118.654015
1.9014356,123.13959
1.8310181,122.76176
1.8781421,125.64074
1.8813632,124.009125
1.8325368,128.317
1.8326432,127.07475
1.8368798,130.18796
1.7998681,129.16498
1.8253995,128.44579
1.831702,127.04999
1.8083527,128.5609
1.7232351,130.86388
1.6753126,123.536736
1.6818527,125.15439
1.7001789,115.99689
1.4692622,119.62652
1.4860921,119.176575
1.485082,116.49963
1.4344137,111.25153
1.4018216,111.680954
1.4311855,113.84615
1.4063579,104.88592
1.4613467,100.796486
1.3793454,100.64276
1.4016827,99.59699
1.3600711,92.234985
1.2872434,100.41286
1.2922586,94.93558
1.3209472,89.643036
1.2610161,87.36695
0.9908141,82.79212
1.1389308,82.78725
0.9417413,78.60585
0.97441614,74.9554
0.9932124,71.78763
0.877113,75.77235
0.8810242,69.97641
0.78974164,67.31017
0.7756704,64.46074
0.7879027,62.759098
0.78261393,63.900623
0.7278907,58.99056
0.7656655,57.12069
0.7852601,54.753765
0.7398724,52.784317
0.7882143,53.614162
0.7298242,50.355907
0.73361915,48.63048
0.5881206,50.41043
0.6305071,50.215874
0.52538395,46.655197
0.47698918,46.756638
0.48544362,53.442856
0.41963425,54.390472
0.42553028,52.65529
0.278027,50.309425
0.21978815,51.293037
0.3513799,53.16512
0.33782208,55.971355
0.45507774,62.35669
0.5228835,63.330166
0.5045873,66.90123
0.74734396,72.99669
0.7451172,71.30288
0.78290766,79.01251
0.8298559,88.19638
0.8964318,87.17634
1.1622787,95.80858
1.2362041,93.9594
1.3819168,103.62923
1.4417742,93.771385
1.4693128,100.41469
1.5156621,112.078514
1.4454069,114.173355
1.642032,118.29794
1.6897672,119.29682
1.6006206,120.803856
1.5993514,126.12123
1.7020963,123.47242
1.6397176,126.159195
1.6859359,131.97852
1.5254261,125.074684
1.5792704,124.5362
1.5521425,136.67365
1.4704514,126.878395
1.564973,124.5264
1.4710284,130.25797
1.4003124,125.47389
1.5034418,127.540985
1.3608661,118.5476
1.216335,123.43715
1.3222619,118.92724
1.2108936,110.904175
1.2486682,109.507866
1.0818957,107.70681
1.0807855,111.02988
1.080553,106.68599
1.053584,107.30618
1.1198479,108.487206
1.1236088,101.785355
1.2209244,99.3167
1.0421546,90.5343
0.95711374,91.86107
1.0611616,95.02284
0.87355566,90.77874
0.8988968,88.25847
0.7553049,84.53236
0.8299235,77.552315
0.69985974,78.59603
0.74731594,76.20781
0.7128912,79.67187
0.5436698,76.01817
0.58789146,71.87654
0.5712286,71.39504
0.4891808,68.41906
0.5577519,65.92555
0.4463675,58.015644
0.433395,59.13271
0.45138162,56.29211
0.44687983,56.76688
0.42956644,55.813965
0.49821597,52.46349
0.3210928,53.22801
0.34027594,47.51815
0.3588336,50.32044
0.2680094,40.304096
0.31444257,51.309242
0.14552271,47.497776
0.19157441,46.749
0.13401993,51.326653
0.1392236,52.435642
-0.001293366,53.362236
-0.008188668,53.360565
0.1419962,59.219303
0.039991055,55.81391
-0.0017624153,62.68138
0.21651793,62.204338
0.36583126,67.2849
0.40749723,70.754456
0.47627258,77.09854
0.6465987,78.67973
0.74787474,78.33146
0.77291375,89.564735
0.8493142,94.296
1.0677327,96.23365
1.1149683,102.32511
1.1111951,105.96337
1.209724,107.58674
1.2083491,114.3819
1.4045085,113.9528
1.3731643,118.568535
1.3695639,120.557236
1.2773218,118.97653
1.3811092,122.75202
1.389774,123.42701
1.4623387,131.60226
1.4779948,128.4174
1.3825777,126.83642
1.3092318,131.7728
1.3046178,129.29718
1.3631326,126.87083
1.3460374,125.50073
1.2471229,124.72854
1.1306267,126.221565
1.1432971,123.00254
1.1705561,124.21794
1.1219655,121.91432
0.9908507,118.3312
0.9871738,117.87096
0.9430839,116.04211
0.9544702,111.84781
0.95451576,109.03171
0.87458247,105.07267
0.9766321,107.63097
0.8354784,101.35312
0.83784926,101.99549
0.9449032,100.30179
0.8370943,92.07098
0.9124763,95.93049
0.7742988,87.11488
0.8514573,90.49104
0.6717935,85.356346
0.640047,87.08082
0.590003,82.39742
0.5878947,76.35918
0.49493855,76.78654
0.54048806,79.44194
0.49851853,71.31007
0.44068393,71.9201
0.4517362,69.8391
0.37631425,66.566574
0.39743418,67.27595
0.35167924,62.78817
0.2429249,56.114376
0.33319038,57.532196
0.340515,54.359158
0.38265398,48.66238
0.32416597,48.75672
0.3630437,52.85563
0.32369703,52.568592
0.18135136,46.37122
0.20469175,47.443577
0.16431835,46.715454
0.15222767,49.87923
-0.014392244,48.84541
0.07539255,50.34195
-0.088781536,49.72295
-0.13840328,50.381416
-0.09861043,55.146507
-0.06474259,52.962082
-0.026409782,60.563484
0.007502685,60.0187
0.15351784,71.16069
0.2734199,68.92568
0.30189025,72.3392
0.3666156,80.51461
0.4737201,77.07757
0.6712556,85.44473
0.6939693,89.58489
0.87570024,96.30334
0.99217176,96.561874
1.1017199,103.489944
1.0596081,101.316
1.1700917,111.85552
1.2388486,111.63786
1.2689763,112.79902
1.3616589,113.57163
1.4151273,123.3083
1.3617988,121.83163
1.3189546,122.464455
1.4449215,127.25632
1.4020771,127.71927
1.4403716,125.69865
1.2931137,129.31824
1.4557025,131.13219
1.3662355,128.86789
1.3835762,129.24005
1.2618716,125.69377
1.179121,126.75889
1.1985445,122.64496
1.1502599,121.53819
1.0238688,121.09292
1.1356745,121.818565
0.99588275,118.58267
1.069817,113.51656
0.92781895,114.52908
0.9187452,109.25189
1.0587662,109.86275
0.9819909,104.34175
0.9983604,104.29985
0.95241815,105.04487
1.0114517,100.55429
0.94340795,95.346504
0.89743835,98.88609
0.7794001,91.18297
0.80004156,88.42325
0.7814958,88.836365
0.84728897,83.39955
0.71379286,83.813354
0.69276726,83.95739
0.6687543,81.62338
0.46887475,74.94611
0.63973135,72.888245
0.36259067,75.88115
0.5281682,68.80711
0.43317172,67.402855
0.46944362,67.487335
0.43461326,62.769844
0.46449438,61.471504
0.49194187,60.376442
0.38625598,59.39652
0.39370498,56.60506
0.44722357,53.29968
0.3754627,53.144615
0.49467105,52.483086
0.4680153,47.657494
0.2560806,48.356197
0.21587296,46.09702
0.1826413,47.967262
0.1793093,48.67385
0.16690135,50.171726
0.1313906,49.286144
0.14342636,50.589127
0.11829077,50.218956
0.0839003,58.93571
0.14860477,53.878437
0.11343074,61.810513
0.28289035,66.56038
0.32721394,64.39157
0.44034964,71.90475
0.43785056,75.326065
0.6695488,81.336006
0.7827623,81.74047
0.7482219,84.345375
0.9675356,88.0044
1.1856487,94.41409
1.1167126,100.32322
1.2754667,101.038475
1.3488091,108.882965
1.3905929,108.81204
1.4868294,115.57407
1.4442437,115.334724
1.5325644,122.66004
1.5279981,121.50464
1.607538,123.81948
1.4256866,127.70058
1.5973405,127.28379
1.5270947,127.86447
1.7049848,129.83788
1.4851747,132.02602
1.5791332,128.78537
1.5452956,126.349594
1.493331,130.19107
1.4430786,128.90706
1.420999,126.723465
1.3733734,118.90341
1.4248041,125.46054
1.3374969,121.61723
1.2514765,125.120094
1.2908872,119.50867
1.3297421,114.234375
1.2860126,113.11088
1.2088584,109.13491
1.1457924,109.89651
1.2424724,105.74021
1.1705459,99.45902
1.1601458,101.54739
1.2187654,99.07834
1.195469,97.14056
1.1423317,95.003494
1.1727574,90.659065
1.0615928,95.914055
1.077961,86.01307
0.9256118,80.77087
0.94258094,85.39863
0.9208372,78.37533
0.7740919,81.67786
0.8675598,76.01193
0.76538235,72.3485
0.82580125,73.609314
0.7191237,64.86231
0.6981566,64.44269
0.74529624,66.59676
0.84229416,63.777905
0.64348716,66.04029
0.6696055,58.80946
0.7426662,57.39445
0.6869777,56.182266
0.7201056,54.270893
0.7265351,49.64418
0.7031639,51.168404
0.6236526,50.438644
0.53939635,51.252117
0.65003055,47.953197
0.48885903,48.968697
0.4940739,46.222797
0.4012478,51.79563
0.48780933,55.372135
0.33565706,50.794254
0.38387847,55.026028
0.365913,57.39806
0.2844095,57.454777
0.47553623,58.17065
0.5439097,65.787346
0.6200415,67.7172
0.7144146,66.952545
0.8390331,71.5604
0.93791443,78.1841
1.0156991,85.68671
1.181488,86.65361
1.2926801,89.63139
1.4145558,97.25927
1.4647486,101.23585
1.5779793,106.215706
1.5501537,100.13456
1.5991349,111.44957
1.7502738,116.47227
1.7978278,117.30628
1.8585862,117.29588
1.7380064,124.17477
1.8299935,124.00658
1.929091,124.07227
1.8330107,126.15819
1.775691,128.63873
1.8968408,126.775955
1.79415,130.0701
1.8572954,126.40257
1.8687879,127.669205
1.741659,133.17389
1.800063,128.58723
1.6502117,124.18785
1.6758347,124.679375
1.6468481,120.525536
1.6028501,119.556076
1.5763115,119.91692
1.5433925,118.4112
1.5508443,119.25265
1.4610635,109.95544
1.4460846,111.53962
1.4649047,103.514656
1.4328429,107.0225
1.447451,103.04882
1.3833877,98.96274
1.3902148,98.46648
1.4185131,94.85419
1.36553,94.6954
1.4435879,90.524994
1.4080083,91.516716
1.3768078,90.964836
1.2562371,84.04485
1.1510074,78.31924
1.1507341,81.84567
1.0961204,83.54639
0.9351343,77.52578
0.94977206,73.869026
0.95094126,72.53667
0.81579024,66.59055
0.97518826,67.61064
0.9607428,66.10161
0.9358581,64.513435
0.9126488,65.05772
0.8500805,58.759693
0.98557746,56.919594
0.9115983,53.22127
0.909838,51.374615
0.9190222,49.252098
0.86348087,50.345093
0.835841,50.745533
0.7556855,52.064404
0.63347495,51.500084
0.67385906,47.079227
0.720964,49.49589
0.65539706,48.80226
0.50306714,47.30733
0.5254243,47.448544
0.4293452,52.785324
0.57710284,57.589836
0.6856697,61.060413
0.61761475,61.01325
0.69462353,66.28857
0.84794974,67.14991
0.9464076,75.7511
1.0043201,75.13734
1.0554384,83.176834
1.3247359,83.14165
1.3340738,86.83936
1.4680274,89.9891
1.5238155,95.75988
1.5363426,96.16709
1.774669,102.783516
1.8153129,103.216736
1.9318966,109.32877
1.8279295,117.85306
1.8411942,120.75729
1.9642559,118.64826
1.8953522,123.25762
1.9215902,127.6736
1.9994261,127.331436
1.9088149,125.36867
1.9887024,131.78313
1.9637939,128.57773
1.7974,128.36198
1.8637657,131.37564
1.9198387,134.76843
1.8046763,126.42375
1.8258636,128.00507
1.8462565,126.797905
1.7181654,123.9143
1.8205712,122.2922
1.6377486,123.32593
1.7271448,119.71334
1.5809262,119.16882
1.622682,115.06428
1.594943,114.2994
1.5266159,111.021416
1.5363207,105.66623
1.4289023,106.9443
1.523686,103.917946
1.4681932,103.86359
1.4070886,97.44525
1.3996844,96.721886
1.4153926,93.63444
1.3476152,90.35077
1.380371,90.07545
1.2346041,88.613365
1.3550168,81.31175
1.2375948,85.26669
1.1109219,77.310974
1.0530729,76.240074
1.007335,75.02714
0.9988187,74.53199
0.8838196,69.018196
0.7924835,64.997955
0.9867748,62.644485
0.92727095,63.099293
0.82210475,64.33123
0.9351369,58.1928
0.9143345,59.416477
0.7493777,54.26879
0.87847126,60.949867
0.8057402,53.214657
0.8485052,49.348087
0.78544414,52.270237
0.77096206,45.646374
0.6688245,49.22003
0.6873156,48.681675
0.55188173,50.017918
0.59156317,49.371387
0.5165601,50.456062
0.5247594,50.532616
0.4790609,54.737953
0.39731076,53.742912
0.47813243,58.248642
0.3874764,63.536015
0.51707494,64.285614
0.56399983,65.0111
0.68633753,73.57224
0.85589594,72.18527
0.8562912,77.67
0.9430186,84.16779
1.0599881,84.17307
1.2145073,89.27614
1.3542972,91.591705
1.5095888,100.84969
1.5123559,100.87693
1.6178461,108.47976
1.5581112,106.83351
1.7513127,114.16112
1.720143,112.969315
1.6282172,119.44274
1.7539219,120.41617
1.8486688,125.001656
1.8452998,123.651436
1.9248711,124.88717
1.7996495,130.4019
1.8294365,131.43423
1.7992359,124.51144
1.7993448,132.23538
1.6524879,129.33566
1.624152,127.78772
1.5961689,129.89761
1.6975352,130.73317
1.6410332,119.8035
1.5055737,120.47303
1.4858261,121.76483
1.4823182,120.33057
1.39277,115.82127
1.4166659,116.683075
1.4109029,116.58875
1.323414,111.72837
1.2119855,105.84188
1.3052461,103.34057
1.3756512,103.482605
1.2639354,105.26776
1.2934035,100.91434
1.2505604,97.78529
1.1524396,91.61466
1.2390229,97.02534
1.1271001,90.86991
1.0491731,85.30251
1.0987005,86.31883
1.0627266,81.46863
0.93271744,81.54884
0.8910352,83.05331
0.86888003,78.88605
0.7672007,72.377716
0.75693315,71.881035
0.7232236,71.0877
0.73305804,66.70628
0.70890665,65.43693
0.5120606,64.816444
0.70103997,61.10933
0.65262085,62.25619
0.59136194,59.891754
0.6453789,56.363483
0.59884435,55.73485
0.55614746,48.574547
0.438653,50.76946
0.54200983,50.265797
0.5425577,48.400005
0.40821543,46.156807
0.4713338,46.725063
0.33177662,48.90265
0.30328354,48.153088
0.24363784,46.36933
0.21144548,50.666744
0.18274991,49.810528
0.266828,55.79274
0.26033822,57.40631
0.34159267,62.791576
0.21478336,58.660503
0.45231825,67.83913
0.46323296,63.64609
0.5940394,73.39623
0.7972099,75.265884
0.7618325,78.84618
0.9004626,86.07116
1.0307677,86.254036
1.0814505,93.943855
1.2887496,97.32773
1.2347605,105.394554
1.2621177,109.34494
1.3809074,110.95191
1.4315336,115.26151
1.615859,118.95996
1.6432545,122.2886
1.5438069,123.032616
1.540558,124.82981
1.5788646,126.82099
1.6261219,127.42848
1.5322212,126.00529
1.5463414,128.24553
1.4027086,132.59848
1.5547851,128.87273
1.4604661,124.44899
1.4196855,133.39903
1.2551851,129.09517
1.3671397,126.17006
1.2590668,125.92822
1.2635088,122.49285
1.193229,121.94698
1.1558834,119.812225
1.2526779,116.743484
1.1093398,114.34391
1.1010975,115.146454
1.0823653,105.63045
0.9970807,110.221825
1.180787,104.56547
1.0546439,104.63342
0.982598,103.44372
0.96878195,99.888275
0.8833867,96.838974
0.83777946,94.54834
1.0026679,90.368744
0.77722675,92.38986
0.8076851,89.64315
0.8024952,91.84706
0.884745,82.8912
0.7255189,82.20856
0.54133165,81.53359
0.55559456,72.84988
0.575357,72.27081
0.40905276,70.46874
0.49419373,68.05549
0.37976822,67.94959
0.33366838,63.930874
0.38018224,60.596107
0.3732406,62.172653
0.3847222,55.425404
0.31651342,57.590458
0.38386646,55.2319
0.38998243,49.789787
0.3208938,48.99107
0.39198214,49.346756
0.24948697,51.868534
0.25345442,48.575424
0.18767343,49.541195
0.14286952,46.57052
0.04045078,49.441288
0.084100716,52.795593
0.07973325,50.483757
0.019080764,53.052654
-0.04693682,51.530834
-0.012031295,59.839077
0.01980138,56.821438
0.12489047,61.004173
0.004829689,66.2529
0.22746257,66.704895
0.26295492,66.51118
0.42847204,76.27859
0.50984645,77.591
0.5773172,82.19291
0.69535077,89.64544
0.7913323,91.6014
0.96458864,93.554695
0.8976762,102.691315
1.0617146,103.25628
1.2229265,106.36746
1.1591959,109.416534
1.284718,116.50677
1.3305259,116.95981
1.3493764,120.38999
1.2696253,121.82219
1.4033704,124.268005
1.354169,131.24005
1.4386146,127.67188
1.3869123,127.80485
1.3758416,132.00224
1.3748164,131.97083
1.2747129,129.24007
1.2350452,128.18013
1.2830986,126.50562
1.220152,128.3419
1.2376331,125.648186
1.0682492,125.60342
1.1607841,120.55892
1.1066742,124.279045
1.0381899,119.422325
1.0850278,112.326546
1.0237223,113.1552
0.9609692,110.25639
0.83344346,108.048836
0.96358734,107.37688
0.9733687,102.11444
0.94276303,105.09264
0.90889084,96.07823
0.91151047,98.53386
0.81295955,97.210625
0.8293208,92.65388
0.7194259,88.12291
0.8077272,89.72663
0.82277733,88.287544
0.6183309,81.26504
0.6348289,84.294014
0.59398973,81.80835
0.4111986,73.894554
0.4382817,78.61917
0.520688,77.61511
0.43074816,71.53394
0.3319485,65.75527
0.43297088,65.85536
0.39704528,65.197556
0.33926496,61.118874
0.39731705,62.835865
0.34166962,53.02502
0.3317418,57.828556
0.33774942,50.94026
0.28627467,54.408363
0.24481733,54.72733
0.2752975,55.765053
0.23736641,49.545685
0.24563442,50.1348
0.17501162,45.74421
-0.034437053,45.86584
0.05409593,51.771805
0.02663513,48.20234
0.00877202,50.019524
0.017886402,53.324318
0.008446757,54.16654
-0.01892765,57.0811
-0.047811776,56.549335
-0.028077375,63.553616
0.14477672,61.186924
0.3400245,70.2057
0.26663986,74.82165
0.3590397,78.04757
0.55679363,80.5385
0.7699686,84.44543
0.74060947,87.358604
0.85509795,90.86435
0.9644479,98.96875
1.023453,99.162254
1.0804914,103.2866
1.2146748,108.59254
1.3195938,111.73136
1.4087107,111.78876
1.3668981,114.13815
1.3993161,122.53541
1.4300148,118.742424
1.4596322,127.67561
1.5633175,126.978806
1.3780508,125.20285
1.4228033,126.48065
1.318432,130.5894
1.2905344,129.028
1.400974,129.68217
1.4259286,132.50595
1.3672065,128.65283
1.3500618,127.48864
1.2907944,126.12213
1.2488688,124.23173
1.1842625,122.15802
1.2297205,121.23109
1.0824988,122.46643
1.2811966,118.47819
0.9793399,114.95099
1.0399317,110.811844
1.0607463,107.37993
1.0871433,107.29653
1.017188,105.353226
0.9957167,97.443375
1.0026717,99.10333
1.1265178,98.059326
1.0096161,93.82921
0.9821351,94.314064
0.8692665,91.38223
0.96210337,89.867676
0.8623052,83.44891
0.8769047,83.7953
0.7739772,82.12394
0.82420254,75.78349
0.71619976,75.56565
0.7479424,78.011444
0.6808062,72.18282
0.5781103,69.33567
0.6532402,69.381035
0.47013006,63.12263
0.44920686,62.87917
0.4845686,64.95763
0.5134133,56.00613
0.48983365,56.5153
0.5271231,59.375755
0.5045866,55.861835
0.5690307,53.56373
0.53590816,52.102306
0.4873168,46.49041
0.37748843,49.43766
0.51559085,51.185448
0.37306407,49.7095
0.34133288,51.10121
0.29260898,48.96151
0.27623245,47.823524
0.35756087,52.269978
0.25284714,54.05385
0.16721274,56.34331
0.17317383,52.291172
0.15571855,59.134468
0.3505942,63.157734
0.45577443,64.51798
0.45849895,65.75679
0.66017866,75.347374
0.62338847,75.8701
0.8030723,81.30814
0.8886129,82.709885
0.95452666,89.88821
1.1127559,95.47724
1.2421579,99.33696
1.3026724,100.17734
1.3655393,106.63825
1.4923638,107.31368
1.658752,111.0539
1.6296643,119.55576
1.6089551,124.130585
1.6394767,121.12655
1.7020882,122.85365
1.729748,125.03994
1.664848,127.735176
1.7213243,129.82133
1.6814559,130.51952
1.7024033,133.74237
1.7038168,131.58197
1.6768707,133.8623
1.601079,133.04828
1.6248846,131.11421
1.7050247,126.401474
1.5456457,129.396
1.5937444,123.45364
1.3884248,121.81366
1.3621515,119.18115
1.4163781,119.37629
1.3917466,117.73384
1.3607714,117.38135
1.3578094,112.44639
1.2500087,113.59165
1.3494565,104.73465
1.2929327,104.4845
1.2894775,97.637085
1.2527641,101.3275
1.4423467,97.22976
1.3231525,93.47764
1.2070057,96.89958
1.1195228,89.70461
1.2110039,88.50244
1.1427383,85.45829
1.135635,85.16441
1.0383973,82.26823
1.0068309,82.38361
0.911789,78.545
0.9642422,70.11694
0.85476726,73.41636
0.86940575,74.37464
0.8736661,67.13379
0.8243254,64.08299
0.7652888,64.123505
0.84229285,60.267235
0.7756633,64.847786
0.85963064,55.272297
0.70350057,58.18092
0.87377393,50.19948
0.8416275,49.19957
0.7704058,50.792038
0.7446202,51.726704
0.6872728,48.111664
0.6202002,45.108044
0.65776724,45.17174
0.5403676,45.905876
0.57029414,50.588238
0.5102397,45.203762
0.542636,52.049053
0.5358566,52.700806
0.47156236,53.009205
0.45001724,57.57698
0.56740624,60.41572
0.6923755,63.060772
0.6718731,65.59971
0.7802382,67.02765
0.8626273,76.33207
0.9459998,81.00635
1.0586568,81.95246
1.2454023,89.69409
1.3748612,91.04193
1.4777137,97.550156
1.5149231,95.96841
1.5875783,100.410805
1.741098,106.5242
1.8146085,112.37254
1.74397,110.02194
1.7614441,118.994156
1.9105389,118.99204
1.9498894,120.71445
2.0127854,119.92625
1.8084766,123.83378
1.9084457,126.324585
1.9994617,127.8907
1.8411818,128.10172
1.9144981,123.4413
1.8795369,130.10324
1.9375485,131.85054
1.8043827,134.01195
1.8512243,126.8853
1.8170484,125.85265
1.80649,122.25761
1.6620374,120.52671
1.8013306,120.546234
1.6621747,120.39123
1.658458,120.47721
1.611819,114.857864
1.5644413,112.524376
1.4548395,108.136314
1.509865,106.6476
1.5102204,108.849144
1.6068587,104.89593
1.4763584,97.016106
1.4698658,97.91313
1.5514755,97.259
1.4455591,96.56211
1.3416874,95.18327
1.2953155,86.64064
1.3717816,85.92191
1.2224848,88.33156
1.305716,83.73346
1.2386823,79.1651
1.1678019,73.898186
1.0999907,71.26113
1.1029913,75.020454
1.072419,71.36094
0.9110792,72.7144
0.91072863,73.770226
0.9420686,64.52669
0.9320477,61.233166
0.92940366,60.56151
0.89065737,60.246914
0.83172923,56.40819
0.8744829,56.450966
0.9138868,55.225067
0.8816678,51.633926
0.829536,50.336002
0.78983575,51.18432
0.8001725,48.32307
0.77377117,45.050175
0.8032752,44.255547
0.69423103,49.523132
0.61258715,45.49758
0.5330904,48.95057
0.56013584,53.26679
0.5218108,54.91102
0.5573997,57.888195
0.54522353,58.50691
0.63356817,58.870872
0.66485614,68.494804
0.8198549,65.246376
0.82367814,69.960144
0.9795178,75.62941
1.0681716,78.13811
1.1322843,85.193344
1.3241646,83.15988
1.3911796,94.4523
1.5499358,93.986084
1.4885402,99.78815
1.7050709,103.72066
1.7424154,103.0809
1.7970732,114.04448
1.7596425,112.9065
1.8729596,117.579865
1.9824502,122.42274
1.8716654,123.89916
1.9079808,126.17996
1.8759773,129.52498
1.8535485,130.14708
1.8497189,132.27022
1.8318533,131.01855
1.8157345,131.34477
1.934814,129.40236
1.9376194,126.465805
1.7688466,127.702324
1.8190165,127.10541
1.7782761,123.99304
1.7697349,121.96823
1.6119028,122.64556
1.6197337,121.58193
1.6954907,122.82269
1.6034617,113.41427
1.584208,115.12774
1.5259583,113.4266
1.5904435,112.18388
1.4236989,105.26637
1.392793,105.09819
1.3871216,102.02894
1.3735099,96.27741
1.3762437,100.40626
1.3510355,95.80438
1.3549663,92.641785
1.3333532,91.80766
1.3567795,89.050385
1.2735832,91.26423
1.1025003,87.475136
1.2301841,85.30538
1.0129486,79.53108
0.99049866,81.81147
0.9748257,81.28155
1.0116211,71.19018
0.87800425,67.972206
0.83656245,69.675705
0.798421,63.573215
0.7810457,65.534164
0.6737961,63.49871
0.8525408,61.896355
0.83143455,59.61507
0.8605992,56.107822
0.7463678,55.255142
0.79695654,58.704597
0.75278264,50.27104
0.6179661,57.22641
0.68138784,48.080986
0.55909693,46.80162
0.66115123,50.315655
0.5449103,48.30825
0.45314357,44.621025
0.41837978,49.563297
0.44363278,50.76869
0.42153233,52.450848
0.39889207,53.64582
0.40089777,56.53997
0.49748436,57.88851
0.49180907,64.30915
0.55055094,67.75462
0.5654975,66.62542
0.63854265,70.95127
0.79613465,75.39203
0.9070806,83.40969
0.91957957,83.80493
1.1402175,89.708275
1.212087,89.71614
1.2791016,93.74353
1.3818241,100.93638
1.4254154,102.552414
1.5940315,109.67413
1.567687,112.171364
1.6905348,121.217606
1.6595018,115.839066
1.7087586,121.55859
1.6067332,124.93288
1.6842061,127.33532
1.7690969,123.937904
1.730775,125.536995
1.7238986,125.11597
1.6187617,130.09111
1.6838748,138.67899
1.6497971,128.16881
1.5928222,127.420456
1.4958872,131.2907
1.5899103,130.80496
1.485264,124.75352
1.4632446,122.66791
1.3023677,126.07374
1.3751776,117.16446
1.3011079,123.54345
1.4124315,115.60198
1.3132252,115.125046
1.2658747,116.117615
1.2095807,112.573135
1.2026532,103.958084
1.2664349,102.78331
1.1987242,102.53391
1.0499158,98.24639
1.1331351,104.71348
1.1420118,97.28017
1.072607,98.35133
1.0408467,88.68572
0.9305601,89.34957
0.95326346,86.37187
0.8407898,83.71098
0.86464506,83.67975
0.68705577,82.23842
0.6970313,77.19712
0.7132651,76.66912
0.5595936,74.00756
0.6260122,70.64027
0.5545007,66.42409
0.54100317,66.96898
0.57344115,64.97019
0.5244977,60.018345
0.5510015,55.580208
0.5100061,55.968647
0.55514145,58.518703
0.44828278,56.917374
0.45422605,55.14955
0.5225619,53.12336
0.48299044,48.95391
0.43967947,49.27229
0.3634832,48.004147
0.27942178,50.098595
0.26023278,48.745308
0.21341449,46.2962
0.15630129,49.534428
0.07587907,52.138866
0.13900807,50.385605
0.047742493,54.11652
0.0735295,59.367985
0.1797264,61.955147
0.27171582,60.174618
0.18352802,66.88189
0.32513285,70.59654
0.35472122,74.65371
0.5949205,76.60831
0.6328078,74.844604
0.75352347,82.52477
0.85281765,90.274605
0.93314433,87.59406
0.99894893,96.054695
1.1004179,100.49977
1.3280073,107.2867
1.2057313,106.10791
1.2728727,111.86692
1.4413662,119.44346
1.3985807,114.279434
1.4366813,119.35219
1.3431084,121.27434
1.4552602,120.05115
1.4842023,130.0006
1.4602921,130.8895
1.4099181,127.099144
1.4583524,131.32803
1.2958957,129.89986
1.4319397,128.41945
1.2946304,130.25484
1.2654525,127.61331
1.1518499,127.36862
1.219716,126.53457
1.2406685,121.363106
1.1941175,122.527565
1.0259424,123.50191
1.1120504,114.42035
0.9692034,117.16735
1.0120046,116.049355
0.9760603,111.96799
1.0381106,110.09031
1.0267112,103.83301
1.0216384,105.140045
0.9714819,105.030876
0.9491804,100.67777
0.9109109,97.00209
0.8393711,94.7823
0.8141377,90.16115
0.792245,91.76867
0.7824401,89.63044
0.72253084,86.89823
0.6082951,83.70768
0.6266048,84.41358
0.56932133,76.82107
0.5036582,80.88888
0.39411563,74.29923
0.4799422,70.7046
0.37066635,71.75318
0.257298,71.59019
0.3442247,67.2885
0.3559659,66.23918
0.31752872,61.496403
0.43032157,59.17807
0.36968514,54.24138
0.36806682,59.090427
0.3063435,56.086906
0.23708567,54.220005
0.37732708,54.545773
0.23842077,47.551365
0.24519661,46.52307
0.1750079,46.105568
0.11492073,46.38396
-0.024195151,53.04429
-0.02607583,43.19759
-0.0586886,52.814934
-0.089956835,53.565205
0.071064554,49.540726
-0.09906893,51.508934
-0.054718062,58.57058
0.060092304,59.158245
0.1228134,62.304157
0.12218316,61.89648
0.14223902,67.420235
0.275267,68.67184
0.42254785,79.634995
0.58247536,84.26537
0.68593454,91.12297
0.6850233,92.73306
1.0157379,97.70417
0.9992565,93.45634
1.0622764,103.74507
1.1185824,107.44995
1.1959072,109.62656
1.2859505,110.838715
1.2295661,114.03025
1.2450837,119.539955
1.317616,118.97396
1.3386545,124.11924
1.3483,124.118195
1.4343039,124.660034
1.3511363,124.62265
1.4317609,130.09547
1.3981495,131.61732
1.2756606,130.54286
1.4002814,127.868225
1.3353208,124.470245
1.204734,126.16939
1.3330522,125.50465
1.258339,126.48312
1.1130902,121.93856
1.1277264,124.73654
1.063584,120.1948
1.0468531,121.60578
0.9251938,113.23297
1.1019503,113.29811
0.9829097,113.01823
0.9257326,110.96958
0.88675755,107.44889
0.94706047,105.20675
0.8557589,97.807884
0.8935448,97.803505
0.8728083,99.51432
0.8105542,96.0596
0.85341096,94.84815
0.7755226,90.45741
0.72950464,91.371544
0.7430593,87.15017
0.6874189,83.94338
0.6858137,78.94876
0.54428905,79.30272
0.50581414,77.160995
0.5198215,77.506645
0.29522336,71.51732
0.4310437,70.565735
0.3396093,70.76709
0.4478726,65.669876
0.45491806,63.377064
0.47887218,61.917206
0.44882023,57.804344
0.34955364,55.61139
0.3615793,55.64978
0.3765725,54.20415
0.30316368,52.05038
0.37807086,51.673103
0.2536402,52.842587
0.36900172,47.66341
0.26124275,46.473248
0.24802533,46.367416
0.22615781,49.941086
0.11907922,49.694847
0.14677916,52.742714
-0.03397965,51.54576
-0.022245426,51.96017
0.009286555,56.004444
0.18604249,62.520794
0.14286909,57.674362
0.18960841,63.897236
0.25083187,67.86286
0.42688608,69.5413
0.5110447,75.16991
0.617251,78.289154
0.72160846,83.98117
0.8417152,86.16676
0.9365771,90.04451
0.94391996,96.052986
1.1537883,94.660614
1.1910641,107.8145
1.304578,105.928505
1.3267068,109.01424
1.4330995,109.84751
1.4021487,117.6777
1.5102062,121.69626
1.4738292,125.85669
1.4505384,128.64333
1.4931475,126.09405
1.5457509,125.5104
1.5051359,127.12421
1.4752638,130.70615
1.4351783,123.852036
1.3192278,128.26222
1.4876117,130.69962
1.5265763,128.85245
1.4728007,127.04405
1.4579312,129.52087
1.3953804,129.27658
1.4139209,122.2799
1.3695667,124.797226
1.2083555,116.67673
1.2478063,119.27724
1.2303319,117.29921
1.1691908,108.873085
1.1654401,108.28882
1.1364996,109.28074
1.0802522,104.51433
1.1510803,105.08315
1.0968701,102.33057
1.0504738,94.070335
1.1603434,99.58052
1.1269448,91.51963
1.0175327,91.98021
1.0713024,84.543816
1.0384469,89.027596
0.96054447,89.04137
0.92070264,82.10586
0.86860436,79.00825
0.9435796,82.94716
0.76102847,77.26858
0.78358144,74.31668
0.68975806,68.996506
0.62547135,73.204185
0.6403013,64.35732
0.66210914,61.757004
0.65847963,63.132072
0.58532566,58.451763
0.6000356,60.57072
0.6142202,51.777283
0.69942707,60.13377
0.7217311,54.976795
0.5182979,52.52986
0.6621028,48.01372
0.5585913,51.406612
0.62214464,47.114616
0.39404938,51.407223
0.34691185,48.82731
0.3450506,48.41364
0.33691028,51.993683
0.33239216,44.987144
0.3298276,50.03112
0.28205052,53.194225
0.35148758,55.636417
0.34948555,58.010704
0.47209004,60.85033
0.56212014,66.964775
0.5179623,69.95882
0.7115412,71.74098
0.719876,71.368324
0.81043625,80.97489
0.9488725,85.56195
1.1658623,84.57263
1.2149704,94.74112
1.3218757,95.87801
1.4782726,99.57685
1.4480125,103.15875
1.5461006,109.961075
1.6513638,108.537796
1.6201968,118.825714
1.5622503,116.291046
1.6956735,123.94786
1.8618065,118.94374
1.7956396,125.36275
1.8093034,127.76939
1.8158587,127.23724
1.8194258,126.985214
1.7542808,128.3388
1.7338843,126.1145
1.7952571,130.63173
1.7987226,128.1999
1.7464468,130.23064
1.6927831,125.95222
1.6991458,121.44134
1.7765332,125.87067
1.6010882,124.04302
1.5663531,120.162056
1.425848,118.03349
1.5015852,116.89171
1.5073538,114.69397
1.4990734,110.53214
1.4396267,110.21597
1.4934816,110.48949
1.3874358,103.795296
1.4416153,103.23917
1.4640472,99.789825
1.4485121,98.264626
1.3842775,96.16703
1.2657893,94.82874
1.290696,93.175224
1.2095255,88.91854
1.288396,90.05082
1.194053,80.5626
1.1458749,81.778206
1.0896031,79.800575
1.0489374,77.34938
1.0855334,76.431656
0.85701674,70.29431
0.9819451,72.13053
1.0189075,70.15058
0.9594683,65.95716
0.79723024,64.64049
0.99645674,60.94999
0.8925562,58.90048
0.8213188,62.614155
0.8970539,50.75606
0.8941022,54.7766
0.89770657,56.382248
0.79699737,49.85074
0.7360793,44.884415
0.8307528,48.265354
0.70398533,53.85929
0.7979319,47.156082
0.6989667,51.43786
0.5720236,45.32274
0.5420196,48.708786
0.4620171,48.338818
0.4961477,51.86929
0.54993665,54.348644
0.48566213,58.03267
0.6601371,60.05113
0.55202836,60.770878
0.7375306,65.50063
0.80704355,69.54792
0.907435,71.61935
0.94240916,75.877754
1.1001711,80.82137
1.2216805,85.03453
1.3220757,90.55837
1.4505165,92.74406
1.5298157,98.879776
1.6579158,103.924805
1.708733,106.61561
1.8677977,105.32498
1.8868519,115.53257
1.8522047,112.594986
1.9538372,120.7416
1.8807635,125.48842
1.9144142,122.669914
2.0200374,127.68281
1.9847363,127.83897
1.9674431,126.89637
1.8698733,129.51794
1.943497,130.05255
1.9046628,131.18742
1.9547913,121.76174
1.850543,130.96664
1.8209374,130.18715
1.7751032,130.5233
1.8868338,121.03674
1.6929351,126.78482
1.5361372,119.225395
1.6811297,125.48254
1.5850984,123.57574
1.4990861,118.07584
1.5251724,115.17803
1.481917,113.96655
1.4568698,103.85338
1.627161,110.43228
1.5146967,106.93448
1.4888424,101.56125
1.530293,98.407684
1.4578567,104.35927
1.4689028,98.507225
1.4419419,96.182236
1.4234765,89.20577
1.4031163,86.97446
1.2752564,87.81698
1.2757397,85.02041
1.2742679,81.68564
1.2225444,82.15814
1.1827166,79.445175
0.9882582,77.45894
0.90952754,71.309364
1.0332265,68.165016
0.96350795,65.47218
0.8403967,69.73062
0.87624675,63.16534
0.92061687,64.95808
0.89213556,60.892746
0.9704643,55.124573
0.84810424,58.375607
0.87803435,57.054
0.87965053,51.181145
0.8153177,48.923412
0.81966114,50.874687
0.7777205,46.346375
0.729195,49.449966
0.66956323,46.953815
0.72823983,50.763695
0.5356603,44.467968
0.5644259,51.53837
0.5057054,51.683235
0.4538603,54.32423
0.50761116,61.27872
0.51828784,55.13459
0.6677787,61.707954
0.62593913,62.608734
0.73568296,62.723198
0.7826244,70.93642
0.8552235,72.80381
0.91199243,83.9073
1.1515483,84.142624
1.1587452,87.34366
1.3032984,84.3235
1.3696253,95.45865
1.4379762,98.3793
1.6763024,102.204185
1.7741029,108.80153
1.5980275,109.94091
1.8190994,112.09704
1.752903,116.35977
1.8282951,120.24825
1.9137985,119.85108
1.886315,124.77966
1.8655063,129.57962
1.8131548,126.46345
1.9454916,129.50946
1.8730882,126.27561
1.8538704,127.588326
1.8216555,129.59845
1.8090464,134.44756
1.6962373,130.58203
1.7287259,126.82615
1.6643173,129.2076
1.5873829,122.60057
1.6163577,125.85123
1.6102703,120.69674
1.5855408,121.13607
1.4524529,112.79987
1.4095982,117.80548
1.4422888,111.497475
1.3774147,107.1488
1.4214396,108.734
1.416877,108.00604
1.2625078,102.502495
1.3338923,106.03516
1.2886394,98.53831
1.2216669,95.492096
1.270343,95.81415
1.166391,90.82575
1.1840637,91.449326
1.1634239,86.60274
1.3170561,86.66266
1.1372594,83.43727
1.0665265,83.618576
0.9424277,80.02695
0.8498334,80.089386
0.96576655,73.505615
0.9043632,74.26678
0.69959813,65.02837
0.779005,69.88118
0.7426683,63.802666
0.6437046,61.090206
0.6458466,60.939247
0.7087903,63.068798
0.5754519,55.958637
0.6671993,55.652184
0.73824334,54.58739
0.7644678,50.511143
0.6589239,52.473522
0.575132,45.754543
0.57309103,47.877098
0.4993721,48.26388
0.48932385,48.821037
0.347878,45.39748
0.40327743,48.455063
0.30693075,50.27013
0.28883538,47.870625
0.21150464,52.70457
0.23921464,53.41497
0.35074574,58.79703
0.34421456,63.51208
0.47782806,65.14412
0.37958476,63.767437
0.5520605,70.300095
0.5756471,73.63008
0.83282065,79.143585
0.84729743,84.77323
0.9587761,87.09145
1.0979058,84.28735
1.130236,92.07902
1.2414106,97.7372
1.4063672,101.55984
1.5663201,105.40915
1.4475944,112.60012
1.4713489,111.24202
1.4040945,117.153404
1.5797219,119.4091
1.5216584,124.92408
1.5304654,121.47943
1.5813951,127.4699
1.561841,126.9597
1.6025538,128.85608
1.6356409,132.6475
1.5487376,130.4798
1.5937586,128.29846
1.4778713,129.6775
1.4995004,124.74211
1.4722668,128.13489
1.3432255,125.73528
1.4079987,119.84362
1.2996161,121.30116
1.2510154,123.186295
1.220771,116.14419
1.0378621,114.0737
1.1359285,112.018234
1.1113532,110.38392
1.1589246,112.929344
1.0761634,107.46647
1.009333,104.73653
1.0976597,103.47135
1.1037364,105.33297
1.0595769,97.71028
1.0552933,99.52631
1.0344539,95.79986
0.94869566,90.98893
0.91091466,90.38055
0.80921334,85.440926
0.74769855,83.545975
0.6412948,83.561264
0.65826744,78.4403
0.68158174,81.28177
0.48233482,80.871864
0.54867136,72.66768
0.4521726,72.80717
0.55234957,69.70979
0.45273188,65.26189
0.4204907,64.205185
0.36830124,62.90424
0.4281355,60.662064
0.46997765,61.180817
0.42388305,56.40727
0.43478617,52.508667
0.3939058,54.906155
0.3293117,53.342594
0.5155754,50.110992
0.34260306,50.980377
0.28189638,47.504982
0.26593393,50.467937
0.14300151,47.258945
0.12461261,45.708267
0.07960847,48.90389
0.11982956,46.36437
0.050817136,54.376553
0.020638822,56.59241
0.042093806,53.377407
0.005880319,56.434788
0.039559804,60.289536
0.1451487,70.16466
0.21289918,68.83922
0.33932135,71.93912
0.4807621,74.729256
0.517084,82.93231
0.6568437,81.25928
0.8678915,89.82087
0.8719026,91.540215
0.9965322,92.98624
1.0549624,100.19318
1.126684,104.236465
1.2092711,106.75871
1.1559544,115.3508
1.2456099,114.11596
1.2557379,117.506714
1.3687751,115.80201
1.3943554,124.25702
1.2574551,124.99558
1.4019033,123.8226
1.3739508,122.221306
1.4224265,127.68431
1.4184374,130.67754
1.4092165,128.69704
1.3634515,129.80951
1.2918563,128.01193
1.1902063,127.284355
1.2027292,126.7741
1.2819369,126.65627
1.1538014,122.76823
1.2058995,124.42217
1.0453813,124.0866
0.9820861,118.81391
1.0251173,116.93074
0.9647944,117.91492
0.9965448,111.11494
0.91105187,107.23278
0.95696545,107.706436
0.96293515,107.7883
1.0546805,104.739876
0.9454575,101.854774
0.86935693,99.125854
0.8404768,97.66073
0.8134373,93.21879
0.797275,93.78566
0.6570924,89.998795
0.7800315,85.94008
0.7274543,84.638306
0.5367948,78.267815
0.50766194,79.30593
0.57698375,81.076935
0.42707545,72.88012
0.51626295,76.04613
0.41386527,68.39336
0.28142297,72.70814
0.42835012,66.15079
0.36299375,63.517025
0.2875087,58.594055
0.29953498,58.828606
0.33703104,59.169533
0.34373,50.337833
0.33527306,50.986042
0.35747713,53.841347
0.28848872,50.395317
0.15781073,47.911713
0.21833724,48.927544
0.16690652,49.175022
0.22038607,46.71269
0.08193875,49.258453
0.047016907,48.036377
0.034210324,47.225254
-0.09548433,49.51143
-0.05759076,48.66034
-0.040104367,54.322693
-0.04675631,54.103363
0.1371418,59.910538
0.011838496,64.92559
0.115752384,65.083275
0.23657942,67.400894
0.3808895,67.756065
0.41640067,78.14178
0.53545445,78.45066
0.6811993,84.74911
0.75983495,91.11553
0.82511854,93.91861
1.057865,98.99972
1.0158666,96.86108
1.2283168,107.157394
1.2198408,110.18494
1.2447476,114.67972
1.392613,110.81985
1.391927,113.41108
1.4309443,116.61954
1.332779,124.14262
1.4664105,125.287865
1.5043799,126.01482
1.5223697,127.14004
1.4822003,126.9754
1.2685364,126.962135
1.3514149,128.17926
1.3526638,125.75986
1.3327516,127.95989
1.3357034,125.18291
1.2309821,126.69358
1.2168678,130.79794
1.2715826,127.3754
1.1520134,126.33892
1.1125096,121.911674
1.1235101,118.95212
1.0938772,112.0787
1.0853653,115.721825
0.95919967,114.30091
1.0421503,110.614944
1.0061144,104.55831
1.0223222,106.48866
1.0483803,99.90061
1.0168499,97.02543
0.867517,98.04856
0.96410495,102.349724
0.7778416,90.841446
0.9130276,91.43288
0.9091183,86.78452
0.8780115,83.650894
0.7695032,83.1377
0.75919104,86.44755
0.64327174,76.23459
0.6613143,78.38277
0.6019602,69.48762
0.5979032,71.24959
0.540282,70.78367
0.42203203,67.48064
0.4853765,61.848778
0.5373287,59.564205
0.4385552,62.244305
0.4909774,62.814854
0.48616463,57.032303
0.5640108,54.114586
0.50370306,51.25672
0.49039674,55.249256
0.47737128,50.395004
0.4452668,51.725513
0.4088082,48.892303
0.4599505,44.469475
0.32071155,45.57374
0.3890707,43.864094
0.27197927,47.942787
0.11661353,49.241783
0.14225726,52.96636
0.21151942,52.23235
0.13426805,58.9586
0.15919952,55.736076
0.21244766,62.826286
0.29045445,64.68692
0.39487493,67.99044
0.53384936,68.58178
0.5502834,74.8765
0.69258595,73.60545
0.821813,83.6281
0.92814976,84.895386
1.0134473,89.60576
1.0878916,94.97881
1.1492416,96.21729
1.270415,104.37068
1.3324771,108.52598
1.3974651,112.00865
1.4807651,110.58362
1.5952858,114.33504
1.5971059,119.32007
1.5573206,118.172035
1.6475108,126.85151
1.661371,128.45296
1.6721255,126.46042
1.5517977,128.50072
1.5828992,128.67523
1.5841469,134.43494
1.6698233,132.28133
1.5197948,125.25865
1.6307143,131.256
1.6079903,128.86871
1.5180883,127.04032
1.45999,128.59764
1.4794494,123.36738
1.3747975,120.062805
1.3746709,116.99474
1.3433843,116.98595
1.4108337,111.5153
1.3735423,111.48406
1.3497444,113.665665
1.2399619,109.85664
1.3450495,108.10723
1.2674878,101.35176
1.1943355,106.78554
1.3286968,98.10069
1.2850187,101.96603
1.2219777,97.1702
1.1624357,96.79177
1.2769167,88.258224
1.1092666,84.38414
1.0499272,83.57389
0.97143495,82.52741
1.0206275,79.07986
0.9923249,78.873795
0.8695964,79.750305
0.9161258,72.658066
0.8059538,70.22643
0.8424572,68.046715
0.79807746,67.93334
0.6675987,66.84956
0.8238388,62.469658
0.77532876,60.964535
0.8433895,57.335907
0.770994,54.819653
0.84921217,54.873104
0.73253775,51.479744
0.78025514,52.530834
0.6557413,48.029427
0.70120394,50.135754
0.6537066,48.04928
0.55528545,44.977993
0.51563835,52.381985
0.5595525,43.76269
0.47671613,50.953777
0.39729813,47.788788
0.43486074,52.215508
0.35549673,51.938316
0.4079217,54.00729
0.49814698,56.39745
0.52890897,61.359104
0.59714967,63.799606
0.6766286,67.2788
0.7385669,63.967766
0.81038654,74.37625
0.9548142,81.623245
1.0661029,82.04348
1.2447728,85.744484
1.3042831,85.85652
1.500972,96.336525
1.4730308,97.472694
1.550464,102.575485
1.6509696,107.03074
1.661688,115.459595
1.7627451,114.86609
1.7601413,118.48296
1.820901,119.28224
1.9540374,119.5893
1.9094507,125.92731
1.8971461,128.8501
1.8385594,125.13735
1.8314755,127.945564
1.9068455,129.3656
1.8178139,128.08952
1.8189385,127.496025
1.7074018,129.52307
1.7920196,129.89627
1.792708,128.16275
1.8867376,129.79587
1.6809944,127.29261
1.7642721,123.7215
1.5385876,124.391075
1.5349982,121.9422
1.5850412,116.488144
1.5244387,112.80433
1.5394666,109.09159
1.4658717,110.626396
1.4983779,104.87649
1.533071,108.525475
1.3329704,103.66725
1.4169942,102.663666
1.4974899,98.35284
1.4365691,97.69776
1.5391976,92.7666
1.4447277,89.35294
1.350421,84.40237
1.3466873,87.19639
1.290012,83.88242
1.2260752,86.156845
1.1519552,80.99537
1.1200595,78.10234
1.071002,79.61315
1.0709388,76.26812
0.8963948,78.44984
0.88184834,70.72324
0.961916,66.58863
0.8701352,65.3141
0.9935527,63.393494
0.99804294,59.345642
0.89372945,58.695297
0.90513057,56.91413
0.98558736,56.727737
0.9542984,53.226017
0.9337371,48.329777
0.86435115,49.7033
0.79542315,47.369522
0.7922724,53.218746
0.7682709,49.189133
0.69750947,49.18265
0.65997046,48.303513
0.6764399,53.453255
0.57672614,51.25144
0.49679595,51.846493
0.5745637,52.173527
0.44821775,52.14396
0.57235074,58.3958
0.68339956,59.961273
0.7141418,68.81124
0.85352236,65.11781
0.92791414,73.92636
0.9681533,72.860504
1.1489588,79.62926
1.1879333,83.81997
1.369547,85.90926
1.3995901,87.34328
1.4968053,94.172035
1.7241316,97.32573
1.6234237,104.40205
1.7066869,110.00169
1.8428949,111.63082
1.9084065,116.791855
1.8060297,115.4297
1.9123837,121.593025
1.9071803,121.0394
1.9484391,125.68512
1.8938643,127.43963
1.9440377,124.06591
1.9022899,123.32855
1.8821187,130.38573
1.7966385,127.44004
1.9142313,128.45193
1.9450784,134.66904
1.7851616,131.38837
1.8117615,128.31403
1.7978278,124.199425
1.662577,122.25745
1.6951228,122.95701
1.7162683,122.75513
1.6301234,115.75342
1.5159225,117.6017
1.5640173,111.855354
1.5496979,114.60063
1.5532393,114.71619
1.5986853,109.44472
1.4020482,108.47391
1.4240489,101.602066
1.4000866,100.79588
1.3386564,102.64868
1.389383,97.1604
1.323645,93.196
1.4064755,92.32764
1.253699,87.92218
1.2896591,87.13922
1.1898326,87.20285
1.1800597,84.11846
0.997562,76.509415
1.0164894,78.266304
0.9917185,74.979324
1.0068991,71.908554
1.0095059,69.30394
0.8055009,71.87149
0.82013303,66.65639
0.827145,62.78848
0.7940014,62.627705
0.79132044,57.860046
0.7539232,56.869106
0.7859345,58.714462
0.8095758,52.135002
0.74711573,53.166157
0.8512288,55.43912
0.674289,50.692368
0.797747,46.779316
0.73675627,54.25516
0.6050944,48.919113
0.533942,47.4006
0.4075709,49.365974
0.5232767,48.56341
0.4934414,51.473663
0.41929474,49.854267
0.35998917,57.337162
0.320169,56.784363
0.38411832,60.133953
0.5346563,62.63895
0.4979762,66.61559
0.61909777,70.39833
0.6730367,75.62253
0.81942874,75.23166
0.94764686,83.91556
1.0074574,86.49057
1.2394766,90.180084
1.2793353,91.697075
1.3766192,98.558754
1.5038291,99.59153
1.5389687,102.1988
1.6415689,106.83586
1.5760695,112.495125
1.6109284,114.34147
1.7031884,117.863434
1.7000852,117.27768
1.737777,117.90279
1.7433798,125.67257
1.8110424,129.1031
1.7107042,128.02911
1.6094493,128.56451
1.6784992,128.85934
1.6777366,127.63927
1.6782558,132.94528
1.607819,132.24788
1.6580375,125.56737
1.5533966,126.97054
1.5096473,127.18344
1.5296896,124.1035
1.4952377,122.87317
1.3789793,121.3423
1.4279338,115.95954
1.3933829,112.647835
1.3068978,116.75669
1.3000536,109.42951
1.3230622,111.949295
1.308802,105.06606
1.1814793,105.34975
1.1141983,103.44285
1.220924,97.22687
1.1464388,97.167625
1.1076822,99.443565
1.0549706,93.41474
1.1055716,86.00567
1.0444305,87.264404
0.9582059,87.73292
0.9343233,80.84578
0.8041753,80.85773
0.87443995,83.28462
0.7085857,75.34856
0.73486274,74.05807
0.64535856,75.245346
0.6891283,68.91504
0.66398895,71.20275
0.6287595,62.930386
0.512717,64.99785
0.7242763,64.933876
0.4879022,62.218857
0.51932,56.657623
0.57774544,54.736496
0.5792896,56.267174
0.7168804,53.01498
0.5297777,51.47996
0.5013009,47.6282
0.46230718,45.990097
0.3947761,49.246662
0.3870606,48.388313
0.16297379,47.731205
0.24562831,45.21704
0.14692652,48.445988
0.124496095,48.048367
0.14535302,50.526497
0.24579264,53.962082
0.20883183,55.286076
0.15312903,57.927612
0.36191565,64.89921
0.39885986,67.095314
0.3222858,67.50006
0.53979635,71.696335
0.6458567,76.45439
0.6708597,80.66451
0.8444677,84.74556
0.75166005,91.150856
1.0942093,94.92934
1.0725306,97.076614
1.183305,104.01466
1.2822526,104.1942
1.3656042,111.200676
1.4213635,114.31118
1.4677186,116.25303
1.5079409,115.35451
1.4344792,122.62529
1.5753758,127.07915
1.4632404,122.118546
1.5450844,127.17551
1.5599307,126.6894
1.5682422,130.40134
1.3663476,130.88725
1.4587299,128.56737
1.280019,125.13291
1.3676194,129.06116
1.4042417,130.46727
1.4036133,126.50514
1.2898225,124.07945
1.2545484,124.29402
1.1598744,122.181984
1.1674895,119.11068
1.1045831,118.50431
1.0211346,118.54283
1.0845628,114.95207
1.0681365,110.267944
0.995968,110.24705
0.9829761,105.68049
0.9787778,103.15045
1.0059481,101.003654
0.9619238,104.70601
0.89402694,95.61462
0.86864156,96.67613
0.86633134,97.1748
0.9428878,94.48134
0.7733065,93.55395
0.7604495,81.74549
0.7605146,86.03121
0.6430289,89.19507
0.5552087,76.68589
0.5016512,77.172195
0.5142735,78.9605
0.5163363,67.339874
0.36828914,73.10587
0.36265227,70.58541
0.40781823,66.84919
0.37073484,60.8231
0.44919926,60.417534
0.3563537,59.75633
0.41374224,54.659283
0.3440187,57.832993
0.24194771,49.82186
0.3744312,48.43371
0.38071492,44.76158
0.115601204,48.45594
0.3041143,49.949856
0.22579189,46.440037
0.1355358,48.96886
0.028241415,46.17421
-0.02286604,46.566742
0.033411287,50.77883
-0.060293786,52.175488
-0.08531149,52.250504
-0.1636573,51.75804
-0.042531636,53.58117
-0.020961126,59.351334
0.059599377,61.34119
0.13100655,63.69651
0.290163,69.66781
0.45097196,73.93068
0.49149933,78.14393
0.5858318,80.96276
0.6699244,86.775734
0.8068615,88.68216
0.9434703,89.11852
1.0091449,97.544334
1.0538887,105.49371
1.132919,105.09219
1.2542592,108.55802
1.1640842,114.52808
1.3544828,114.127716
1.209474,115.52763
1.2834804,119.89317
1.3956358,125.321266
1.252042,121.242714
1.4130908,124.18415
1.4383854,129.17378
1.4671708,128.52834
1.3499764,132.20938
1.3310089,129.2
1.1543571,124.417274
1.222662,129.2148
1.2542274,127.652306
1.19819,124.73567
1.2208403,124.45739
1.175687,126.64059
1.1647121,124.62284
1.0856333,113.48118
1.022027,110.79005
1.0040075,114.93408
0.8671978,114.81648
0.9969041,111.821144
1.0088042,106.539406
0.96299845,104.135994
0.85766685,101.97705
0.8765457,97.58656
0.919828,98.6207
0.8567184,101.011086
0.8766138,93.03579
0.8366954,93.003784
0.7272759,89.97393
0.7062195,90.07211
0.671026,81.27999
0.6055611,83.21364
0.66655123,80.8742
0.39434168,79.287544
0.4930624,78.38954
0.39877683,75.200584
0.60424346,71.0935
0.38546038,69.11767
0.42526835,64.9077
0.3430935,66.058716
0.40326488,60.6125
0.3390282,57.95992
0.3210135,58.960434
0.3669567,57.77475
0.5318138,53.502064
0.33432725,54.863045
0.31758425,47.188427
0.30471158,54.944168
0.4027421,50.237312
0.2014631,49.018078
0.18467046,51.83424
0.18984322,47.112846
0.05787231,48.51268
0.117077865,45.684593
-0.055768225,50.19232
-0.008519226,53.154636
0.005103719,53.82556
0.05983862,55.254124
0.039067898,55.823635
0.08488578,59.111965
0.18712959,62.361603
0.1351405,68.813614
0.41225365,72.84651
0.46389097,71.742836
0.48169845,78.65938
0.61566764,82.860016
0.7573474,88.30745
0.87135875,90.16035
1.1237608,96.90554
1.047261,102.10304
1.194437,103.435104
1.1360455,105.256966
1.3106855,112.93649
1.4018623,115.48183
1.4443489,115.958466
1.4163027,120.26685
1.5377393,121.960106
1.5858942,126.134315
1.4807061,128.30142
1.4021916,129.2459
1.4771074,131.10132
1.4701864,127.370705
1.5861286,126.67578
1.3824439,128.60991
1.5572191,133.36546
1.4382108,123.91536
1.4145774,127.40276
1.3044492,128.37047
1.3456737,122.823425
1.3409005,119.72481
1.1968181,119.14769
1.1699933,119.99566
1.1726559,112.33403
1.0985692,113.40797
1.0120078,112.00495
1.1661849,108.7535
1.1941218,105.77846
1.1881033,104.77516
1.0911895,98.52854
1.1026365,99.45975
1.1474396,97.78856
1.1051795,100.63201
1.0439627,95.17054
1.0843093,92.23249
0.990081,89.48056
0.8473185,85.09784
0.92052114,88.30366
0.81903577,83.29047
0.8601649,84.66402
0.796755,79.842606
0.5992008,73.97721
0.64121735,78.472694
0.5813043,72.50082
0.6651241,69.38493
0.55579156,67.47058
0.5971676,68.34344
0.5427058,60.77818
0.5309438,59.00952
0.55844283,53.797302
0.53301424,57.91136
0.56613207,52.77209
0.60377437,54.246525
0.61456066,51.970222
0.61611587,45.233864
0.5883841,48.797623
0.43790096,52.13314
0.4893675,49.937935
0.35581723,46.770382
0.2569911,48.23729
0.2945938,50.109756
0.22903132,53.1834
0.18457069,49.741554
0.27232748,55.563942
0.24565643,58.292786
0.31947324,57.794933
0.3362046,63.321663
0.504405,64.95745
0.6038196,65.854836
0.5496561,75.680824
0.6664794,72.88091
0.7822716,79.75618
0.9923479,81.344696
1.1115528,90.23147
1.2712119,92.92811
1.3280121,95.62045
1.3306789,104.858955
1.5417917,107.62364
1.5374627,111.04995
1.5388277,112.97831
1.7058549,115.893524
1.6569064,118.825554
1.8107759,120.902054
1.7483926,122.13721
1.6953901,123.90218
1.7857351,125.350624
1.787252,125.76949
1.7440271,127.86726
1.7013663,126.20005
1.6276131,129.35217
1.7251594,128.6925
1.7993115,132.49712
1.6174272,131.71988
1.657789,127.70432
1.7355806,124.31366
1.5830606,125.02406
1.5093646,121.816246
1.5562774,119.280495
1.4751121,119.00301
1.3391691,116.091225
1.4060848,114.991585
1.3706373,113.85393
1.3653271,111.94904
1.3236508,109.22495
1.410419,102.70883
1.409798,103.1257
1.3910624,94.847534
1.3624208,98.02554
1.3543154,95.010445
1.2984047,93.52955
1.2515312,91.26053
1.2732048,85.037865
1.1002145,85.27732
1.1049938,86.252144
1.0468894,84.42647
1.1719241,77.078094
1.0260444,78.70373
0.96380156,74.50537
0.9499808,71.164505
0.8642037,69.96718
0.8483637,68.57454
0.8444451,61.754593
0.95644784,64.463295
0.83357733,62.365765
0.9115712,58.0753
0.761603,52.86186
0.76201385,55.779705
0.8673357,56.92632
0.80802363,53.3657
0.7854344,48.673412
0.769682,49.439617
0.76854557,47.11639
0.7530385,52.551918
0.62638724,47.34474
0.6439036,51.07703
0.51241904,49.76008
0.5459132,46.215816
0.53714526,48.92134
0.49647564,53.50357
0.54776466,52.18108
0.63900346,55.287262
0.6357043,59.945114
0.5546722,60.13455
0.7219752,67.95579
0.8004182,74.51647
0.90252084,74.5432
1.0001023,72.917946
1.1591719,74.04479
1.2288626,84.31587
1.4144254,89.38616
1.4324943,96.512764
1.5573531,100.11631
1.6071866,99.70355
1.6912123,104.94167
1.7469414,106.80199
1.8810493,114.93869
1.8260715,118.1799
1.8949373,120.9918
1.9369099,122.84515
1.8883203,126.75232
1.9692383,129.06638
1.9939392,126.7583
1.8560622,131.33682
1.9644649,128.8801
2.0038462,133.70016
1.9269308,128.4773
1.8811893,130.11472
1.8040476,126.77672
1.8987377,125.40478
1.8067795,129.98251
1.7394004,121.833855
1.6801748,125.93474
1.6663802,119.51147
1.6235908,120.21416
1.5540986,118.02076
1.5980778,120.992226
1.5577046,110.9823
1.5225317,109.22711
1.6153532,111.209984
1.5111717,105.418274
1.5698882,109.391106
1.4916143,105.07454
1.4525268,99.700775
1.5228364,96.22605
1.3926098,97.22943
1.4183444,96.57828
1.3751839,92.43977
1.3597032,86.34597
1.2426904,90.189186
1.2095714,84.107185
1.2547619,79.59217
1.2191728,76.479675
1.188047,76.444336
0.9224124,78.35709
0.96599495,71.66797
1.0261528,67.560234
0.9502176,65.708885
0.9067169,64.181076
0.96217966,66.584305
0.9118981,64.050766
1.0065774,61.82581
0.98561555,58.391846
0.96203214,55.752434
0.857333,49.64705
0.83522356,53.861584
0.7415687,52.45386
0.7926803,44.84765
0.86480796,51.18615
0.8159647,49.906773
0.72049,52.652554
0.64705765,47.89303
0.6434574,49.689873
0.51718646,46.639744
0.45255303,51.080677
0.63828486,50.209396
0.5176885,55.620396
0.55158967,58.658947
0.70015436,62.32983
0.6109601,64.71236
0.81169426,68.4059
0.90188,68.90362
0.8990777,72.50625
1.0207791,75.25329
1.1259333,82.08021
1.318524,83.9979
1.3936191,89.05372
1.5340297,92.20663
1.4694341,97.07067
1.6163757,102.248985
1.6521566,105.717514
1.6988226,108.77401
1.8508801,112.63017
1.7956425,118.29499
1.8898975,119.34854
1.9854642,120.61638
1.9553947,121.95706
1.9294834,123.75459
1.9623951,127.870895
1.8543528,128.16339
1.8424499,130.50851
1.9173657,126.43506
1.8150575,134.0658
1.824747,133.40651
1.7756374,129.25574
1.7118827,131.49562
1.7535068,129.59198
1.7356188,123.767624
1.6242387,122.35162
1.5477263,125.97505
1.5522993,119.71802
1.4693413,115.683846
1.4559652,118.226234
1.4727556,115.75066
1.3825073,107.773796
1.3879113,110.68815
1.4705907,104.904106
1.3699473,102.60655
1.2718441,103.85156
1.4043627,102.62144
1.3233801,95.26717
1.3254683,95.60903
1.3217508,92.904915
1.1755654,90.05417
1.2576308,88.067215
1.1658549,86.01075
1.0595719,81.67117
1.0515431,84.85734
1.0415224,80.21933
0.8935006,72.551636
0.7787102,77.29116
0.9079453,72.32395
0.82310337,69.33606
0.7054166,67.50052
0.80533165,60.42628
0.7524743,63.654636
0.6935974,56.640118
0.81166875,57.778404
0.7747741,54.862595
0.81658816,51.19802
0.7519128,56.96795
0.6469636,53.915535
0.6075113,47.83296
0.64772063,48.355312
0.52015823,51.96951
0.5822037,49.356083
0.4972604,48.716595
0.3897024,50.52698
0.43517363,50.38217
0.3416403,50.783867
0.35182044,48.4255
0.19634773,51.030476
0.34941664,53.96873
0.38003623,56.908367
0.3746696,60.650356
0.5567993,62.0142
0.5099786,63.410465
0.4623273,66.09254
0.6710178,70.92517
0.84671676,76.213196
0.9537775,84.20447
1.017766,92.23474
1.1277505,93.11572
1.1011959,93.29205
1.311076,100.59835
1.4468572,104.472664
1.5527134,106.15
1.5863302,107.96159
1.5739455,110.87597
1.592825,118.319466
1.6066748,120.37346
1.6727148,124.29483
1.7199038,118.62261
1.6991735,125.58105
1.6235751,130.20625
1.596013,129.09906
1.6115692,126.32382
1.5821061,134.31134
1.5310756,128.17456
1.4547168,133.00703
1.5454326,127.368034
1.5174772,128.12758
1.4681681,120.18013
1.4063747,130.2372
1.4321465,121.46537
1.3441662,123.940575
1.3739241,119.142105
1.3026376,118.815025
1.2234623,113.75385
1.2726053,117.01879
1.1710823,112.991264
1.0392541,105.08447
1.0594488,104.49168
0.9831603,104.18367
1.0427613,97.57681
1.0216535,98.00648
1.0507966,100.2986
0.90542686,91.945595
0.88887095,90.047165
1.0423061,90.48807
0.8439293,90.17029
0.94458956,89.4757
0.86564165,80.00688
0.8934078,82.58301
0.69636863,79.05962
0.66099715,73.75762
0.5747617,75.099525
0.50037783,69.362076
0.5658901,66.830315
0.5063543,65.709496
0.532164,68.457634
0.46690774,62.879673
0.41522762,62.370438
0.4596949,57.117867
0.4451237,54.37633
0.49333462,52.435894
0.39087474,54.018333
0.43795913,49.344498
0.35021657,51.521233
0.34482825,47.823765
0.21403582,50.26678
0.28334302,44.138428
0.27483332,48.212917
0.062347755,52.468315
0.17440876,51.2804
0.13769482,54.298996
-0.0038566603,51.058643
-0.060467627,50.2011
0.0072009284,54.24639
0.013116895,58.643257
0.14129339,61.595318
0.15363416,65.70326
0.32444352,70.56405
0.30033875,68.60266
0.49038494,77.81785
0.54184246,76.43038
0.7300578,84.70702
0.8128158,88.02594
0.9060793,92.59053
0.97934294,94.74867
1.1186545,100.405815
1.1413242,101.242546
1.2166005,115.001724
1.2173634,114.83995
1.3622276,114.951355
1.3491371,114.1192
1.3818603,124.40023
1.3646207,123.265465
1.4818882,121.543335
1.3868347,127.255875
1.3645704,127.20335
1.3687347,133.26006
1.4522346,130.02026
1.3678811,133.7739
1.4205277,129.73117
1.3681527,126.83432
1.2463566,125.63569
1.2768378,127.08818
1.2175219,126.46179
1.2392946,123.46862
1.1367843,125.77909
1.0899309,113.786194
1.102171,116.54183
1.0600787,119.329414
0.96216536,116.572266
0.9885247,114.80534
0.9470219,111.87584
0.79161435,106.8136
0.9747747,103.612144
0.9350004,103.70192
0.90935963,101.57295
0.85176355,99.705734
0.8113792,94.41907
0.7844526,94.27834
0.8307567,87.9588
0.6701246,91.7588
0.8676848,88.37783
0.61385393,84.06356
0.5829602,80.60866
0.51861537,76.890015
0.4682431,74.81921
0.34327754,72.28677
0.44039568,74.42684
0.3776246,67.29545
0.41207936,66.56566
0.26956403,68.381714
0.2977434,58.342415
0.3869961,62.678215
0.28489944,58.98628
0.3619517,57.263153
0.34499323,58.414135
0.3383367,50.45681
0.39526942,56.441338
0.3306935,47.52763
0.3158976,51.633724
0.18021,46.39012
0.20474453,48.746815
0.04343529,47.36333
0.02223858,51.706173
0.020120898,49.523296
-0.05279241,46.79016
-0.012465926,56.092422
-0.096787594,54.61423
-0.08370355,54.297325
0.025625404,57.512524
0.039990265,62.957607
0.038720746,63.7339
0.19726828,66.781624
0.122317515,68.5621
0.3162367,72.70346
0.35533783,77.77646
0.52269226,82.09796
0.65347654,87.35939
0.79837155,83.67363
0.89330184,92.45631
0.98736167,101.23837
1.1334516,99.340164
1.1657609,105.19681
1.1216624,113.43987
1.1665704,111.55971
1.2277504,115.09413
1.3669401,121.208046
1.2871209,117.78121
1.3952987,124.85417
1.4961243,126.64736
1.3862178,125.89084
1.4026469,127.769485
1.3241479,129.02888
1.3941922,127.679794
1.2883252,127.98783
1.3193216,132.39856
1.3155941,124.16131
1.2564924,127.04327
1.1783091,124.50951
1.243033,125.361115
1.1232127,121.1183
1.1425601,122.54136
1.1438258,116.63298
1.086376,120.49642
1.0065744,115.02166
1.0176964,111.84535
1.0199008,111.9762
1.0109295,109.9299
1.0416938,110.05541
0.99912107,105.4632
1.0332931,99.99697
0.9953687,101.306
1.0240483,97.30454
0.88838434,94.74404
0.95050454,92.66994
0.905202,91.12651
0.81233126,89.28485
0.86999685,84.96538
0.7234298,83.5494
0.6625178,85.05571
0.6446596,82.74829
0.6067901,79.39751
0.6100721,71.1991
0.46633226,73.18766
0.49243814,66.93092
0.50174814,65.89558
0.49237043,66.7989
0.5152297,64.131096
0.40541658,58.90449
0.527549,61.2799
0.4619269,55.876556
0.48263523,57.901604
0.48077908,49.991432
0.33656237,53.07094
0.3363714,49.310677
0.30554605,48.732204
0.28670344,47.371864
0.30226284,50.615494
0.14731957,51.20835
0.29434967,51.22669
0.14172181,47.08765
0.11940407,52.110886
0.18386662,50.98678
0.09784533,55.525284
0.06287178,54.189278
0.097061686,60.243504
0.24342938,62.659157
0.31807834,60.243847
0.3197274,68.20191
0.41171443,69.76638
0.47054535,76.383385
0.6404235,78.87274
0.76304126,83.473274
0.8346519,87.615036
0.96337974,93.28893
0.99682766,94.24824
1.2442387,98.6473
1.288328,105.32596
1.3391186,106.614555
1.4626678,110.26398
1.3770083,116.48033
1.4482435,115.773796
1.5874137,121.11576
1.6937923,125.289345
1.6087327,127.29304
1.5402347,125.46442
1.6590804,127.02273
1.6493105,124.5766
1.652189,131.02605
1.5625384,125.27949
1.5867841,127.13592
1.618489,131.7906
1.4191574,131.85602
1.4205486,124.574394
1.4307227,124.41403
1.4993452,122.43205
1.3720014,122.22819
1.2067163,121.31321
1.4171906,121.657776
1.2899777,116.44872
1.2946905,113.550896
1.2948807,111.66252
1.1998549,106.81437
1.2573316,110.81695
1.3239019,108.427185
1.2072563,101.55417
1.2415451,100.92871
1.0766586,95.97324
1.1862288,97.28221
1.2176392,93.44417
1.1547451,95.81753
1.1186948,87.89222
1.0756385,87.395226
1.0583446,84.47435
0.93397635,85.06189
0.9360968,80.85254
0.8402506,79.30088
0.9027304,76.60901
0.90904063,73.85719
0.82010245,68.57153
0.7144751,64.316864
0.8350181,66.726814
0.7576917,64.88571
0.6668682,63.332554
0.70187986,63.512222
0.74910206,59.66476
0.72482,61.346386
0.80074733,53.75983
0.7645305,51.403988
0.6406991,52.286304
0.5841921,52.382797
0.63627416,51.486656
0.6079117,49.215164
0.5423072,48.64366
0.50302655,44.89705
0.42837957,46.85916
0.33032823,48.99094
0.46392465,52.417656
0.39840972,52.577686
0.44663936,49.12911
0.40617105,57.774227
0.33791614,57.3238
0.49937618,60.484024
0.5537637,62.59646
0.6481737,66.37077
0.7104479,69.904335
0.8740031,75.40266
0.96233606,79.794464
1.0019495,82.728775
1.2871077,89.89585
1.4128618,97.058914
1.3569059,95.30817
1.5101268,101.184586
1.5697633,101.7204
1.5990545,105.87933
1.7352431,112.467674
1.8041152,115.19851
1.6764836,115.595856
1.8250887,118.1907
1.7895848,122.94942
1.7857233,121.95297
1.8870509,122.502464
1.8664484,125.7683
1.8963394,129.34808
1.8835318,128.29346
1.8802638,132.1873
1.7905998,127.485664
1.7967343,128.81306
1.900323,132.97954
1.742626,127.59143
1.7388252,123.395004
1.6496226,123.458954
1.5636634,125.43453
1.5675856,122.77847
1.4431733,120.49926
1.5512929,122.3262
1.4597368,115.15267
1.597797,116.532196
1.4036319,108.18342
1.5402758,110.05025
1.4552927,106.19892
1.473376,104.910065
1.4334733,109.118866
1.4320033,96.9826
1.3847889,95.07482
1.3200551,95.22856
1.3399801,91.71138
1.260176,87.505356
1.3366526,86.396164
1.241664,86.427864
1.1496264,80.11614
1.1736643,85.39045
1.0782993,79.88152
1.0374262,75.33046
1.0014462,71.385544
1.0163486,68.07192
0.95901984,68.24019
0.96462744,66.83124
0.88538116,63.858147
0.8979758,61.546574
0.8406939,63.441746
0.9106884,56.93967
0.98003507,58.73458
0.8587111,52.380337
0.86129445,54.282845
0.8440305,51.859848
0.91563535,44.654064
0.71204317,50.83518
0.82174885,50.556747
0.81739134,47.71775
0.69105285,44.88481
0.5612163,53.041252
0.5266929,49.780964
0.50929606,51.69668
0.5493989,52.784557
0.59812915,56.483883
0.5034156,58.94779
0.6171259,57.34895
0.65886426,57.557552
0.611533,67.051605
0.7299023,68.85369
0.8638816,71.911804
0.95415604,73.55829
1.0837183,81.16654
1.1896415,79.95713
1.3762285,85.13915
1.3249164,93.621574
1.4518303,92.58604
1.5231118,97.201256
1.7593647,104.86308
1.7413832,104.60233
1.7184939,109.25513
1.8161612,112.89008
1.9885495,118.49034
1.9988856,119.767784
1.9032824,121.72983
1.896128,130.59581
2.0448172,126.131615
2.0395944,126.80708
1.9549488,129.09567
1.9166669,126.47142
1.9466538,132.52419
1.9199625,127.21503
1.7762369,130.93713
1.926584,125.13432
1.807779,132.48627
1.8382691,125.829544
1.699861,123.9967
1.6505855,122.92142
1.592501,120.547134
1.6203309,118.774635
1.6567473,117.00049
1.6572924,114.6439
1.4546281,116.08611
1.607889,107.54526
1.4664139,103.6466
1.4673116,105.43691
1.4644505,104.246216
1.4504051,101.1548
1.4894873,96.54811
1.3922774,96.01977
1.3876442,98.412476
1.2692851,91.72373
1.299352,84.958435
1.2939432,92.96822
1.1724889,82.35789
1.2281964,82.108574
1.1972407,76.73565
1.087507,74.60344
0.9856445,72.18511
1.0564783,71.69727
1.038401,67.16947
0.75834197,64.882774
0.89931107,63.29554
0.960083,60.21381
0.9424782,63.640144
0.84436977,54.046387
0.87825555,56.82645
0.895736,54.786606
0.8888611,49.800415
0.7945954,54.359135
0.8654745,50.51681
0.82874006,51.391712
0.73819077,49.363087
0.7997678,48.60272
0.6194986,49.665127
0.679941,48.832447
0.62249607,49.684513
0.49837807,49.848618
0.42337266,50.45978
0.50222665,50.04261
0.5208189,55.221542
0.52634466,57.549297
0.50113165,60.37998
0.59627867,65.34198
0.6106933,64.13876
0.69761604,72.81828
0.72902244,75.35875
0.9391467,77.33511
1.0221975,77.898796
1.1408294,81.578125
1.288153,85.83156
1.2957,91.478
1.4089049,99.45129
1.4246178,101.305855
1.5595021,106.233116
1.7633725,110.33582
1.785919,115.63392
1.7549919,116.55652
1.7061008,117.959915
1.8553739,117.721176
1.8196534,118.79622
1.8162057,126.878944
1.8208736,128.1133
1.763875,131.20268
1.7974101,125.04909
1.848064,133.37456
1.77776,130.19804
1.820843,131.13387
1.6529453,126.539925
1.6430495,128.57149
1.6169755,125.610435
1.609349,126.9217
1.5404181,124.30258
1.500443,123.30639
1.5066208,118.83214
1.5119786,114.62124
1.3473356,116.60219
1.3648436,110.46583
1.2557694,112.07762
1.2961563,108.99911
1.2908059,108.27752
1.28582,103.28528
1.2609931,97.793686
1.2843341,97.58281
1.2813474,99.21665
1.182275,95.520706
1.1119059,91.03237
1.0619358,89.076256
1.0029113,89.434006
1.0369986,88.338005
0.9280784,79.28373
0.91500556,81.68924
0.91765517,82.22249
0.8398966,73.847694
0.7473758,73.83834
0.71411324,76.55328
0.7284908,72.69647
0.71852815,68.8608
0.5328484,68.34365
0.702364,62.75409
0.66576964,59.532963
0.5291981,59.8953
0.6278064,56.97167
0.64172626,57.714413
0.6684047,55.801777
0.6483908,50.543106
0.52703035,52.09416
0.5325398,51.39606
0.4957448,46.343582
0.401347,52.794945
0.3355485,47.817238
0.3827679,49.28124
0.17905578,50.54907
0.27225205,52.40198
0.21040396,50.698486
0.110737726,55.70364
0.08899746,53.37447
0.26530448,53.6813
0.19981736,55.12382
0.3258979,64.47921
0.29550356,63.23798
0.5209721,65.73543
0.56268984,74.320946
0.6304692,77.03137
0.70905805,81.77844
0.88654757,87.87396
1.0047516,91.61144
1.1567625,99.2193
1.1774597,94.28798
1.2985018,103.273674
1.2904222,103.97187
1.3845555,111.195114
1.4293243,111.72475
1.4786661,116.86357
1.5928621,116.54675
1.5224968,125.5813
1.4881892,124.72242
1.5847641,127.68093
1.5491282,131.98167
1.5137033,129.81133
1.4788086,130.36932
1.4177402,129.8525
1.4413052,128.79373
1.4183165,127.146034
1.3981483,124.867935
1.3782,128.1455
1.3770744,128.01656
1.299326,124.59795
1.2143023,125.6503
1.2309732,123.79081
1.2214025,118.72017
1.0394905,122.86777
1.0923615,112.65465
1.0045885,117.59732
1.0604186,110.81244
1.0614969,108.98805
0.9736832,106.88048
0.9374143,103.25909
0.94833994,101.11406
0.93805933,103.34862
0.8064845,98.83252
0.9103879,93.52743
0.8448799,91.10743
0.8649632,94.02118
0.9221597,82.90185
0.7547774,83.23924
0.7061993,86.14854
0.57655746,85.55241
0.6830047,82.49819
0.48062384,77.58214
0.44016987,72.132805
0.55507547,68.39677
0.46960354,70.71469
0.4400258,71.06869
0.50148934,62.049454
0.39307788,64.434166
0.43108782,62.764423
0.4020461,58.341484
0.2882361,62.834908
0.3612815,55.278954
0.4028538,52.146996
0.36792475,47.752205
0.28062192,50.318153
0.20016941,46.932957
0.26833642,46.493416
0.17262374,48.621216
0.18229944,48.517567
0.103663325,51.880196
0.055732645,49.205738
0.03494397,47.019154
-0.014856648,54.61792
-0.010793979,52.569073
0.02340983,55.27226
0.11612278,60.350956
0.06792943,61.495636
0.028720465,61.908443
0.12583898,63.741222
0.41012952,68.21483
0.51240075,77.3445
0.46202928,74.403946
0.5534849,87.59825
0.7343652,91.39164
0.81115544,93.99767
0.74160564,93.041214
0.96885294,100.30408
0.95129406,98.61636
1.1157928,106.77433
1.2961122,112.644455
1.2805115,116.318596
1.3056229,114.88852
1.2816086,122.17552
1.4000342,123.01652
1.3614315,124.45383
1.3723555,129.00604
1.4043858,129.00677
1.4175677,129.33406
1.3552715,127.48936
1.3160421,130.14597
1.2310798,129.2101
1.235756,126.07568
1.2075766,130.9009
1.2073125,125.9398
1.0722163,127.14379
1.1865188,121.497475
1.0466248,124.90482
1.0596592,123.15604
0.98229194,117.62891
0.9707633,115.074165
1.0123667,117.97006
0.98683333,111.03413
1.0078084,107.65931
0.9347939,106.386345
0.92821205,107.477356
0.8810372,102.493286
0.9333878,100.62368
0.9611876,96.445625
0.8836164,95.605034
0.8923477,99.21453
0.76182485,94.06964
0.7163108,88.58481
0.79565257,85.77783
0.62265056,82.39178
0.6052299,78.63283
0.6162472,78.08002
0.5382626,76.34068
0.5124312,78.599434
0.47806177,71.76649
0.38434258,74.55603
0.23836912,70.89575
0.39610925,66.109726
0.3539622,68.57442
0.2649977,58.461823
0.41530266,59.151386
0.38749245,60.875534
0.41529417,54.94446
0.37546214,53.972534
0.3698763,51.943005
0.32567018,48.821117
0.3863109,51.77036
0.29710957,52.311424
0.22351485,52.366096
0.16898142,45.975433
0.1624741,47.054333
0.019061105,50.574554
0.0052211992,46.012825
-0.027565392,49.812748
0.020787785,54.67214
0.0026826952,55.19447
0.06484796,54.065907
0.06746509,62.978157
0.10366783,59.86834
0.1880078,64.33708
0.29917547,67.363914
0.33997488,71.84494
0.4065867,77.31555
0.50588375,76.211945
0.6553541,84.155464
0.7664882,90.618645
0.83349544,91.45625
1.0612136,97.765854
1.0889188,103.48704
1.2077256,105.996254
1.2494129,109.5961
1.2907857,109.06133
1.2458777,110.982376
1.3754499,113.56323
1.3410182,114.383896
1.3987795,120.64607
1.4484129,123.66824
1.384563,124.945786
1.3770463,128.13657
1.4586697,129.932
1.3788863,129.64757
1.4442859,127.097946
1.3883454,132.01274
1.4206843,128.85158
1.3446245,128.10304
1.3501812,124.94029
1.2910731,128.45503
1.284958,127.24847
1.2471242,119.284386
1.0713042,118.201096
1.2122217,121.05761
1.1401429,116.84905
1.149233,113.91587
1.1264974,112.016846
1.1740302,105.781876
1.1208091,106.04826
1.0435332,106.73962
1.0246799,101.456085
0.98377544,97.57512
1.0505149,98.62938
0.9774246,94.21071
0.9968742,97.708694
1.0590767,90.88463
0.7846203,88.26726
0.84340966,85.750206
0.7976248,83.75932
0.73933357,81.42926
0.6986274,80.64802
0.7448804,78.0038
0.7062462,75.006065
0.6724633,74.48828
0.67319256,68.39527
0.588862,70.21367
0.6302241,64.48946
0.56716865,65.055305
0.57921344,58.351467
0.4416535,61.04391
0.5214148,57.227352
0.5273956,52.114758
0.53159475,53.677624
0.49772015,51.40846
0.46316582,49.97305
0.5575074,48.6041
0.47053197,48.589645
0.43352938,42.23486
0.35334364,48.49296
0.33931655,46.233334
0.29284638,49.307667
0.34567663,48.867905
0.1815793,49.65994
0.2641327,49.904045
0.27368984,57.983994
0.26109272,58.947327
0.26758236,57.7005
0.33245966,62.30211
0.39965948,63.459114
0.50455946,70.54272
0.6722384,70.76997
0.68150973,74.81108
0.8493367,81.60679
0.85816956,85.01934
1.0492494,86.22632
1.2014276,92.53743
1.1820048,99.081985
1.3552732,98.15671
1.4011438,101.724266
1.4727824,109.19888
1.5091088,113.25736
1.6289178,115.663246
1.5290773,111.07613
1.7060372,115.94489
1.6196071,123.86406
1.7041347,124.2701
1.7370918,126.84812
1.6449367,125.62947
1.6322626,128.46443
1.6682744,127.2762
1.6041849,130.24738
1.652795,126.93775
1.6209664,128.50166
1.5849829,125.808846
1.5503138,127.33119
1.589121,127.84314
1.5852313,123.96874
1.5105071,126.7712
1.4857167,120.10414
1.4786005,120.36774
1.364731,119.170296
1.360803,116.30536
1.4033957,113.61506
1.3345493,105.4872
1.3142762,111.34975
1.275337,106.654465
1.3785934,100.672745
1.3893545,100.12204
1.2845111,97.47301
1.3070227,91.23038
1.1969932,92.58664
1.2419558,91.27702
1.2615621,84.53888
1.1438903,85.198654
1.1283972,88.451195
0.9798108,82.84758
0.9871556,77.42593
0.972621,77.29719
0.91607046,73.2592
0.87754655,70.90535
0.91160625,71.54266
0.84195095,68.1972
0.8185438,65.02236
0.8485447,62.93117
0.8497662,58.403538
0.84392947,58.692543
0.83753914,54.799187
0.7952756,55.36278
0.8045498,52.675713
0.7176044,50.899433
0.78851134,50.172504
0.70196664,49.530125
0.77190924,48.469074
0.65431494,46.685505
0.6206796,46.000164
0.59045386,50.676086
0.57980615,48.253754
0.47540218,48.553356
0.4177023,52.859814
0.5618514,55.149776
0.48510075,58.10582
0.5110488,56.712193
0.68992466,60.954094
0.5741611,64.98027
0.6584447,64.34617
0.7111249,71.467896
0.77600044,75.53037
0.934409,73.32162
1.0669198,77.82513
1.3256558,85.90533
1.2490511,92.27464
1.4671665,97.33606
1.5133688,102.943825
1.5431226,101.69954
1.5529422,108.70223
1.7780541,107.88884
1.8320136,111.78907
1.7840627,118.97842
1.9134777,117.10369
1.907756,119.07139
2.0418546,121.16091
1.9055231,126.74068
1.9608879,126.56209
1.8729202,129.7403
1.9130398,128.25359
1.7936555,130.96188
1.9305912,133.80159
1.9544446,132.37454
1.870913,127.02622
1.7488759,126.31031
1.8539034,125.06567
1.7775106,128.79416
1.6921809,122.62516
1.6316881,123.747116
1.6718327,119.71455
1.516999,118.27912
1.5532521,115.87137
1.5317277,112.00316
1.549654,114.03108
1.4403814,109.943184
1.3489549,104.55358
1.476297,105.50824
1.4754503,100.15485
1.4740385,99.68097
1.4542849,99.2854
1.4208796,96.15788
1.3228247,93.670074
1.3909326,89.34086
1.3093278,92.82436
1.2697848,89.13107
1.2418841,83.255135
1.2682208,83.89818
1.118569,82.75635
1.1131568,79.87535
0.94748527,76.694534
1.0818361,73.3092
0.95136976,66.60858
1.05696,72.525665
0.99099237,66.96148
0.9692485,64.66885
0.85852754,62.023247
0.9061674,55.693817
0.8811321,54.82628
0.93057674,52.193108
0.93923044,54.60573
0.90641624,51.179188
0.9241069,49.184933
0.81623936,49.15229
0.8280088,48.502956
0.70176566,48.993225
0.7319054,50.016266
0.66375923,51.364338
0.638885,45.412548
0.68712825,49.845707
0.5102799,55.70787
0.38039255,54.853626
0.508979,55.810215
0.61635095,57.86571
0.5664877,61.651978
0.75155914,63.667686
0.7336789,66.399704
0.84843564,74.679146
0.8529479,72.44384
1.0223343,82.81186
1.2282414,82.16381
1.3352939,84.842865
1.3347166,93.36242
1.5089006,96.01711
1.5704266,100.82482
1.6364692,102.762695
1.7780552,107.45421
1.8627436,112.46409
1.7855018,116.18134
1.8863276,116.79881
1.8683506,116.94008
1.8999679,126.54373
1.8886033,125.66032
1.8936964,129.15569
1.9719473,126.68216
1.9180901,127.24074
1.8706466,128.56352
1.9178569,131.76672
1.8379523,128.11699
1.9103955,133.67207
1.7537609,127.16015
1.7810203,127.48561
1.7831565,121.32038
1.7268938,122.06421
1.6699425,121.07976
1.6256994,118.23522
1.6174169,117.02111
1.513074,115.45643
1.5180314,113.40809
1.5625257,110.849785
1.3406208,110.45393
1.5053202,105.04299
1.4762577,106.54261
1.3550642,107.25599
1.4409848,100.80042
1.5152105,97.73535
1.3593367,96.87263
1.3425515,89.83106
1.4041188,92.81489
1.2658819,92.60827
1.1802291,86.49641
1.0994065,86.14566
1.1071703,84.250916
1.1191506,81.63275
1.0723543,78.45644
0.9472538,79.44401
0.8633867,72.165184
0.87970746,74.48394
0.8482183,69.93037
0.8147575,69.178375
0.8315555,64.63099
0.6888435,64.84192
0.7954129,59.04965
0.7096372,59.993355
0.810048,55.657566
0.76555425,52.87642
0.6518778,52.12049
0.7376509,52.56153
0.6615696,48.797134
0.72024626,51.400696
0.6134422,47.50958
0.5896079,48.74714
0.5825882,52.62425
0.6030728,48.333405
0.5581934,48.084187
0.4307279,49.908108
0.30987304,50.244686
0.3562102,55.055725
0.3229498,54.246662
0.44172716,55.11447
0.45502678,61.7109
0.5474576,63.995075
0.53831017,74.22378
0.6194252,69.96119
0.7630368,74.573715
0.8419063,79.958664
1.0834075,83.42717
1.1011305,85.82366
1.2695544,91.52071
1.3464047,100.133316
1.390595,105.99569
1.5016234,104.23923
1.6507043,105.16603
1.6136315,114.57887
1.5400407,111.41466
1.7468061,115.3822
1.7165942,118.99801
1.7149897,122.75231
1.5533206,121.50628
1.7359518,125.08038
1.7844979,129.89882
1.6909313,131.02953
1.5937281,130.1696
1.6935827,131.37906
1.62871,130.34677
1.5827457,132.31464
1.5842427,129.65378
1.5671064,125.42149
1.4239317,123.75603
1.4121584,126.18332
1.5227665,119.94969
1.4269079,116.924545
1.3340769,114.99002
1.2832568,117.30792
1.1551939,117.71468
1.2949473,114.50769
1.2345896,108.25382
1.1781253,109.917465
1.1208736,105.94031
1.177191,103.36568
1.0892233,99.16093
1.1406959,94.907684
1.1113819,94.94205
1.0507816,92.98189
1.0686862,95.11156
0.9828123,92.39154
0.9777728,87.54326
0.88148206,83.77019
0.7441578,80.80668
0.7950085,80.95257
0.8199238,83.886536
0.5947805,73.1636
0.66771793,74.08654
0.59733343,71.56896
0.6335741,65.42537
0.5824086,62.120228
0.52280354,62.6996
0.45196918,63.82848
0.5769532,60.64086
0.5161546,58.729675
0.5423411,57.76622
0.4436307,55.76381
0.4092666,55.362396
0.40279785,52.602097
0.37857127,48.809772
0.39011404,47.431747
0.34246773,52.745975
0.35613197,46.069187
0.21179134,47.15002
0.1349153,43.83692
0.16897266,48.111362
0.092800565,50.338425
-0.024122724,52.853985
0.05920947,54.337074
0.073276594,52.77625
0.16012165,55.581383
0.20314927,61.726055
0.17855671,63.593822
0.32892248,70.29374
0.4185691,71.80602
0.57377464,71.98063
0.6807503,79.07634
0.80337006,81.2612
0.86938363,91.45654
1.0130018,91.84033
1.0264794,96.52009
1.1742866,98.03215
1.2413867,107.06403
1.1829833,108.78503
1.2305491,115.61423
1.3452843,115.93272
1.37061,117.24259
1.4768344,121.19333
1.3574402,124.95469
1.437978,127.64403
1.5277501,127.82637
1.3681238,125.21524
1.3979607,127.22226
1.3335885,130.31725
1.3203809,130.35193
1.346221,130.31044
1.2074903,131.44478
1.2586473,126.12827
1.3265293,125.15362
1.20162,128.27277
1.1715236,122.98093
1.1025398,124.93254
1.0621504,122.7286
1.0498042,115.32537
1.0567305,113.09732
1.0143416,113.30401
1.0329483,110.89719
0.9462045,112.91762
1.0398384,106.01475
0.88502693,104.84457
0.90834206,102.06222
0.9217188,102.74179
0.8860842,95.124245
0.86286706,95.89397
0.8330756,91.72099
0.8117125,92.88698
0.8204519,91.25217
0.70564973,88.44851
0.71560764,87.151375
0.61175764,77.11624
0.5490067,76.79624
0.6023191,76.27034
0.50225645,73.18224
0.5444747,71.20103
0.47101364,73.337685
0.36729848,66.9819
0.33985013,64.257225
0.28819433,58.992977
0.31291658,60.093323
0.35470307,57.8858
0.3113673,56.159695
0.3686992,53.85412
0.4284706,53.913174
0.32805696,53.292927
0.29412764,47.830784
0.19176199,48.321167
0.120879695,45.91664
0.12631957,54.571957
0.15096505,46.593792
0.0900695,51.316765
0.05266463,50.51186
-0.02295725,45.887604
-0.010915473,48.866413
-0.013335879,56.01875
0.067020684,49.76655
-0.03781232,56.676556
-0.02557977,61.04368
0.019269591,62.19254
0.21369466,65.22537
0.29710534,75.59211
0.4280718,70.92336
0.49305543,79.62443
0.4917564,81.797195
0.62634623,83.10147
0.79026693,89.160095
0.92981195,94.32113
0.9964023,98.1432
1.1364645,98.80595
1.12288,104.02436
1.1385056,109.74029
1.3037914,115.28813
1.2998487,111.81844
1.3293564,117.54634
1.3210621,122.34194
1.3424143,131.916
1.3243706,126.01997
1.4531752,127.72628
1.2992435,129.33722
1.4517258,126.95512
1.3577482,129.30789
1.2800224,124.61588
1.375761,129.09068
1.2263137,131.62927
1.2391943,128.12949
1.2817358,129.38005
1.1725249,116.62021
1.0884893,126.17018
1.0314342,119.39727
1.1038036,116.70124
1.100549,116.28978
0.96681595,117.89783
0.88748324,109.26907
0.97295713,112.5927
0.8650638,108.617676
1.0147091,108.39858
0.92130053,109.15998
0.9287785,103.88763
0.9447043,98.1727
0.95330167,97.35701
0.8584483,89.65936
0.8967427,93.19527
0.85316265,88.20426
0.8460817,90.17692
0.7544884,86.85786
0.64024127,86.70225
0.67133415,77.40943
0.541969,76.916405
0.60261947,78.398964
0.4988512,72.385124
0.35439008,76.31936
0.45823517,68.595375
0.492756,68.621826
0.43305197,65.730965
0.44357252,63.66647
0.34332347,60.74728
0.29934114,64.15868
0.44169623,58.81259
0.45603314,51.71135
0.43737262,51.129307
0.33493462,54.485634
0.40481567,49.47992
0.30401367,52.443214
0.29604366,48.93976
0.3079988,43.547768
0.11697121,42.543545
0.16356763,44.2563
0.12831946,52.114555
0.045970257,51.29941
-0.0086515965,50.76784
0.08146609,50.799072
0.0683043,55.95035
0.051976655,56.68989
0.07840417,61.176426
0.16939266,64.15863
0.26287192,64.30686
0.37000427,66.558464
0.42264682,76.784836
0.67054844,79.27419
0.6422695,86.87571
0.81555325,84.784966
0.8768895,90.608826
1.0815619,94.92929
1.2214365,98.503944
1.2356744,100.56655
1.2964315,103.226036
1.2829772,109.35997
1.3271563,111.82273
1.4427081,119.03982
1.4800566,121.81653
1.4590914,121.01657
1.5956898,124.81695
1.4965752,126.96717
1.5890405,126.617004
1.5129038,131.64192
1.5339257,124.92721
1.4996477,130.58629
1.5257815,131.14154
1.4441907,131.5867
1.4338764,132.20352
1.3766595,130.23256
1.3033892,123.56601
1.4178853,131.24126
1.4038112,120.90878
1.3325824,121.00963
1.2708046,113.693214
1.1898378,115.16815
1.2039173,115.64131
1.2223717,110.20734
1.1815315,115.06254
1.2675781,107.06161
1.1295967,103.7173
1.1927578,100.22419
1.1782115,102.71053
1.206349,100.04822
1.0742788,98.44978
1.0687443,94.155754
1.1678133,92.211945
1.0064186,90.66033
1.0064313,88.19979
1.0509144,83.17086
0.85793334,81.557594
0.96539974,85.6732
0.7856873,75.6861
0.7987993,77.634125
0.78284115,72.18665
0.76817364,70.594635
0.64472693,68.440475
0.6889769,66.22594
0.63325745,60.35412
0.7464621,63.006836
0.570458,63.630543
0.6884946,57.825127
0.60972726,61.006023
0.6487598,57.357002
0.6056345,50.740864
0.6816443,51.779552
0.6026067,48.337543
0.5746401,51.103348
0.5488993,46.866714
0.42287093,47.242588
0.4461011,50.679752
0.42587566,46.039337
0.39504802,49.330814
0.30854872,53.850906
0.39544004,53.356804
0.3813814,56.45502
0.3288051,55.258015
0.399006,57.84741
0.4022885,60.882786
0.35007852,61.567066
0.5626072,69.69524
0.70486844,68.31559
0.7647711,80.84286
0.9111146,77.51466
0.94485503,89.38168
1.170201,88.84449
1.170276,93.3114
1.2618368,95.43461
1.4359834,97.586754
1.6041577,105.56923
1.5626912,106.89947
1.6525446,109.137566
1.6192893,114.38027
1.7316166,117.73958
1.7477623,116.97462
1.8176328,122.78573
1.7715046,120.42324
1.8647876,126.871056
1.8298647,132.94862
1.8880894,131.4013
1.8021551,129.65594
1.805233,133.31409
1.7751201,130.17786
1.7632419,128.5361
1.6831282,128.22194
1.7374346,124.64312
1.7266178,124.37509
1.5632972,123.42989
1.6560954,122.48844
1.614118,119.816696
1.5164251,119.340546
1.3996699,113.73511
1.5293902,111.654594
1.484688,114.38979
1.3396796,108.65666
1.5012116,102.63432
1.3927097,104.921974
1.4669067,102.08907
1.4333571,103.98416
1.4017886,100.08449
1.3783718,96.35033
1.2391787,93.5161
1.2456152,92.33389
1.2903076,86.13116
1.1144127,87.54567
1.147,84.73107
1.2380555,85.08338
0.99163574,78.022606
1.0111876,78.84859
0.95830005,74.433334
1.0670376,74.948715
1.0043378,71.52633
0.98418367,68.741615
0.8196581,65.82524
0.95682305,66.52696
0.95897704,65.41168
0.82631826,64.122375
0.733241,52.702526
0.89557815,51.98285
0.91982305,52.308445
0.8066327,50.902195
0.8589892,53.64496
0.76686907,52.879753
0.81834406,54.53449
0.66443086,53.987743
0.75337994,52.137665
0.6492521,46.748253
0.5947472,47.330597
0.6558852,49.222805
0.54741883,48.379864
0.5988609,54.041805
0.4985994,55.14666
0.64002985,56.965168
0.5646978,56.531307
0.7495671,60.915768
0.6730092,65.02131
0.7938836,68.91378
0.83180857,70.712875
1.100694,76.087814
1.0971866,83.582924
1.257097,82.71657
1.3115666,88.15039
1.4514892,92.74026
1.4874352,95.04024
1.6997511,101.231064
1.6382347,102.35854
1.7149422,103.2257
1.7577139,113.19029
1.9133383,113.28197
1.9442086,118.689896
1.8805069,123.19942
2.0038252,125.81091
1.8864522,127.71123
1.9954864,126.7563
1.8422173,128.05609
1.8983444,129.6625
2.0349166,128.76183
1.9059825,129.65543
1.8670882,124.90184
1.9655597,128.67926
1.843334,129.40181
1.8732809,125.58904
1.8083693,123.30294
1.8250239,121.29929
1.7834694,122.904915
1.6037823,126.502464
1.6138303,117.36539
1.5571492,116.00429
1.5934733,112.44944
1.5394633,112.11377
1.4558296,113.91202
1.4739295,109.180695
1.4567373,102.58606
1.5022562,103.82281
1.5057989,103.101295
1.4487429,98.80593
1.398578,97.05098
1.504259,94.13432
1.378927,88.013565
1.2364402,87.28419
1.2849659,86.377686
1.2367221,82.87202
1.1973861,78.19852
1.1531467,81.82357
1.0229139,79.07466
1.0382298,78.4951
0.9134231,73.217674
1.1065879,71.91759
0.95044345,62.90989
1.0295795,63.341
0.89384407,56.82291
0.8999817,60.702095
0.8058172,56.614258
0.90023994,59.23733
0.82240194,52.41799
0.9041167,55.824036
0.85073924,51.509655
0.77994514,53.357468
0.71080434,52.552265
0.7770482,46.993977
0.685578,45.099186
0.83675945,50.768364
0.55995506,55.544792
0.6510841,46.018486
0.5162724,46.141205
0.5911177,50.973366
0.5580856,53.39149
0.56161964,53.605766
0.4965269,54.50486
0.54997665,62.354816
0.61262846,62.798126
0.71587574,58.14809
0.7865401,64.59233
0.85613424,70.61739
1.1231184,78.541374
0.9969801,81.66464
1.182385,93.44679
1.3165163,91.6664
1.3435265,94.85918
1.4453835,93.67011
1.6090279,105.61022
1.6403092,104.43712
1.6608144,111.01038
1.8137642,112.102356
1.697911,115.55512
1.7904882,112.4466
1.833942,126.13557
1.8242626,122.67789
1.844672,124.42202
1.8754584,128.66772
1.8157394,127.86883
1.8634738,129.3783
1.8891958,127.076416
1.8382703,126.2609
1.7788016,129.3982
1.7736452,134.06857
1.7396126,129.61229
1.7706788,129.17369
1.6085238,126.67058
1.5365487,125.99026
1.5287311,122.07882
1.5385841,117.7696
1.4355279,115.47595
1.5347981,117.4065
1.4309036,113.307045
1.4415412,116.635475
1.3836101,116.94537
1.3624352,109.48785
1.4054811,102.53753
1.3304598,98.85771
1.3237916,102.691185
1.344054,93.603775
1.2205071,92.78836
1.2079238,93.31023
1.1452055,90.01349
1.0477114,93.44844
0.99641633,86.29296
1.0324318,86.7226
1.032236,82.48346
0.8995654,78.97211
0.87638205,77.16457
0.8282418,75.05156
0.73857975,72.73634
0.74823767,68.73832
0.7954573,66.13908
0.7149585,67.47674
0.6483797,64.030525
0.768246,59.321938
0.59138095,57.19431
0.7393949,56.550797
0.6455567,53.99609
0.66573673,49.09716
0.6157242,49.27231
0.66806287,47.79582
0.5281141,50.646935
0.5560627,50.02148
0.4622518,49.308674
0.30025446,47.229805
0.46882182,54.883736
0.35972872,49.51912
0.2857439,48.020813
0.2948983,46.164646
0.2612883,57.231125
0.37351143,54.376415
0.31406882,60.124798
0.2985694,61.253067
0.41021246,67.06953
0.4292137,63.151245
0.47044978,73.720985
0.5844585,73.02689
0.7018956,76.75016
0.8157745,84.60968
0.995619,86.64013
1.0745053,92.25616
1.1123545,96.22527
1.1669341,98.98187
1.3792527,105.8028
1.4169941,107.786736
1.473733,112.10197
1.5121754,117.2703
1.590947,113.62014
1.527969,123.498795
1.4960614,119.513016
1.5605446,123.59561
1.5265812,126.3936
1.5402112,120.25694
1.6621097,128.63614
1.5719789,132.0655
1.545605,127.62701
1.5522827,128.63422
1.5282166,131.49036
1.5324951,127.98989
1.4563662,130.07047
1.4450972,125.76649
1.362497,124.8971
1.2957106,126.97975
1.2592418,122.775925
1.1461843,121.950226
1.1340106,120.65164
1.0778971,115.432175
1.1621233,108.31999
1.1210932,110.477875
1.0718627,110.85986
1.1168982,104.81876
1.198411,101.58374
1.0311043,102.08338
1.036837,96.594154
0.9827674,97.51188
0.9729854,97.43368
0.9811451,94.585976
0.9264793,89.4044
0.8657119,91.76255
0.78533536,85.61557
0.79839146,84.21911
0.7318094,81.036255
0.69947875,78.64352
0.59785295,76.450806
0.5930571,75.65729
0.5329167,74.30438
0.47658694,69.98552
0.42981,65.885895
0.4570183,65.69068
0.39040473,65.36873
0.39547676,60.436024
0.45356122,61.373158
0.41870257,60.919666
0.39040163,54.873753
0.46515054,50.662376
0.30103925,51.957973
0.31654388,46.946373
0.38309908,46.945957
0.17910983,48.904587
0.24581489,50.7667
0.20531999,50.229614
0.122333825,47.087227
0.013574869,47.54465
-0.033806708,50.44748
0.09959764,51.09479
-0.033708826,53.0765
0.06426061,54.129868
0.053616583,57.24702
-0.027274286,61.650913
0.09634583,65.942894
0.22086655,68.83238
0.38942266,72.77933
0.41568765,71.81648
0.6808807,74.36211
0.6640975,86.84675
0.82222253,83.87143
0.8266199,91.42976
0.9488387,95.82393
1.06533,102.08617
1.1096627,103.32962
1.1481606,104.73202
1.3309585,112.671844
1.2744085,113.790474
1.3685611,114.66262
1.4261949,121.94435
1.4597229,123.21229
1.3300326,123.48244
1.4198093,130.04774
1.375248,125.16106
1.448673,126.85918
1.460198,128.46283
1.2858922,130.3685
1.4128897,134.90565
1.3960993,127.73541
1.24029,130.12682
1.2583497,122.90703
1.1219298,128.3335
1.175921,125.955734
1.0459057,120.467026
1.0724992,120.33256
1.0972159,119.55778
0.983103,115.15809
1.0191876,114.26288
0.92680943,112.427124
0.93396515,107.92399
0.93755203,105.22931
0.9630854,105.75537
0.7830416,101.68343
1.0157324,99.56212
0.7942768,97.85488
0.88634515,94.56403
0.7961192,95.664406
0.7079675,89.86608
0.7173753,93.42047
0.7479252,85.53363
0.5808592,84.906
0.6073947,78.9862
0.6599442,83.24908
0.5531215,80.393005
0.40262136,78.63586
0.5263488,73.04254
0.423694,70.67613
0.32766393,65.43112
0.44237283,65.32692
0.41135386,67.83767
0.4203337,62.978405
0.36650938,57.524895
0.33267653,62.403282
0.18921,56.99367
0.2606889,55.43717
0.42031565,55.127228
0.30174994,57.53769
0.26411086,51.036835
0.27976802,51.572678
0.27013585,48.150887
0.14466166,49.42323
0.033336326,49.516254
0.04553609,52.436543
0.1529172,47.46594
-0.083184764,51.015827
-0.0021918549,52.797623
-0.057181973,57.957714
-0.01544982,58.279552
0.07084673,57.475567
0.066290475,62.22946
0.1895585,65.81134
0.1278141,64.21342
0.3670908,72.746605
0.37008968,79.23551
0.4662501,78.48939
0.548296,85.74323
0.69591665,90.21362
0.9081974,91.048454
0.9162499,96.11162
1.0262569,103.711655
1.0104973,104.65784
1.208877,113.82565
1.310145,115.70026
1.2422292,112.11919
1.3631169,118.943344
1.3139064,121.676994
1.3819283,118.611664
1.3488127,124.20249
1.3846266,130.671
1.379279,129.38824
1.4268359,130.51256
1.4051213,128.09492
1.4299493,133.3733
1.3154652,127.73638
1.3720307,128.08665
1.3253608,129.36977
1.3344498,125.70284
1.3287741,128.15974
1.2493565,123.367294
1.1265444,124.74763
1.1066787,123.422264
1.1147305,118.65249
1.0725197,110.748344
0.9582983,112.753944
0.9945188,114.90818
1.117664,109.9054
0.9780237,107.38288
0.9798915,102.06646
1.0082289,103.21802
0.9989359,96.530945
0.8789094,99.0499
0.96009237,94.40076
1.0301992,92.01855
0.9430968,93.32827
0.87176317,89.03009
0.7802231,88.22598
0.8199318,86.82132
0.70734346,79.73037
0.69242525,85.58501
0.60642403,77.50207
0.5972206,74.42276
0.5344012,71.5852
0.59142417,72.02303
0.3790423,66.226234
0.6051717,67.47951
0.44298345,60.76789
0.5315436,67.56045
0.4661521,56.80339
0.45043766,53.057823
0.44415075,55.454086
0.49294448,49.535007
0.44323757,52.089237
0.49491248,50.959927
0.46152455,51.853855
0.41757748,50.364376
0.35691506,49.77394
0.4086578,50.475224
0.25461903,46.134354
0.18067347,49.51292
0.1891247,47.455284
0.13150094,55.931625
0.23449303,56.58201
0.1851734,54.79163
0.10689035,59.93157
0.32939157,59.73755
0.33462965,62.58554
0.41153425,64.75918
0.43586728,63.23335
0.41791263,75.30918
0.7078559,75.642296
0.84473544,79.18386
0.89590925,83.12045
1.0310779,88.06923
1.0528046,94.57216
1.2068552,96.949265
1.3161154,100.52079
1.4279996,105.35934
1.5401381,108.10514
1.4462203,115.69826
1.5202484,116.23447
1.5379356,116.96948
1.5772809,120.461205
1.653197,122.916885
1.699718,129.41469
1.6741034,126.77214
1.6592472,128.62698
1.6836063,129.5596
1.6468784,130.79092
1.6937418,128.87599
1.5937757,134.56502
1.5834244,128.30531
1.543797,129.29886
1.5322603,123.98311
1.5272968,125.61421
1.4693484,123.94749
1.3685949,118.03703
1.3545347,123.28136
1.41402,120.65998
1.2988394,115.62452
1.318493,115.381645
1.327336,108.515526
1.2441926,110.4738
1.2016916,105.53324
1.2856191,112.32257
1.3167545,101.47061
1.3958665,101.39281
1.1783478,99.990875
1.2550905,97.733086
1.193739,94.73079
1.0799559,89.89568
1.1669415,91.187775
1.0826653,85.312096
1.0439748,88.64049
0.9885389,79.494514
0.9026818,77.859436
0.9364781,75.707405
0.90423816,71.29954
0.874213,69.50717
0.76888216,70.73592
0.82286793,66.4492
0.77246916,62.593925
0.8362422,65.66868
0.76977617,62.734123
0.91535836,57.03021
0.7911265,54.702877
0.70919067,58.23631
