ppg,abp
1.0951374,88.51984
1.1773177,90.94888
1.2692566,97.12763
1.2532932,93.15844
1.3521789,95.7619
1.4061494,92.11088
1.5501312,95.42262
1.5817785,96.19975
1.5629901,97.3456
1.6708494,100.74232
1.5950519,101.48267
1.6920415,100.67373
1.7277604,101.69998
1.6683253,98.764824
1.688864,98.3055
1.7807885,100.11045
1.7634758,101.593575
1.6669445,100.93087
1.7542102,98.12901
1.7647424,97.0173
1.6213417,102.54525
1.6872231,97.07514
1.6811424,100.488686
1.5946879,102.64253
1.5870801,100.58701
1.6162102,98.37774
1.6019917,104.58067
1.5957514,103.05531
1.5729624,95.83024
1.4940499,94.98555
1.5147797,99.068344
1.505298,97.36114
1.4283317,95.82778
1.3855966,98.65312
1.4246591,97.52871
1.388573,95.17348
1.3623495,99.84075
1.3180904,98.319824
1.4545867,93.729996
1.3302956,96.35081
1.3593837,98.18518
1.2944334,90.74183
1.3334786,98.40464
1.3322839,89.07583
1.3599002,90.549644
1.340995,88.960304
1.2868063,91.22489
1.2674108,89.88267
1.2450079,87.78592
1.2216405,91.314804
1.1572883,90.107086
1.161695,87.33258
1.102355,90.90174
1.0864446,87.32718
1.028859,83.987785
0.9976194,85.06075
0.9746049,92.803925
0.9335481,89.11588
0.96825415,85.331
0.8998543,85.46202
0.8811618,83.14234
0.8982626,86.176926
0.9205776,84.33878
0.8126491,86.09875
0.89708555,82.9578
0.84889364,82.066246
0.85005367,82.83442
0.88918,81.92436
0.8873618,84.6378
0.871731,85.03022
0.862686,79.81589
0.7785743,85.12625
0.88898104,82.88896
0.7338205,81.2101
0.7271799,79.50329
0.6209623,77.165436
0.7026822,74.209755
0.63027596,76.58505
0.59307975,77.83761
0.51437485,82.275116
0.5840081,79.31239
0.47834545,80.670334
0.5157041,84.284424
0.51633954,84.02672
0.49543273,85.317505
0.5107243,85.02909
0.4974232,84.074455
0.64836764,81.68547
0.589977,83.01261
0.7432852,86.86163
0.7810121,86.31767
0.87793636,87.514534
1.0172682,87.61683
1.0463796,86.578476
1.1295047,86.23734
1.2131376,89.84738
1.2977799,85.06534
1.4417943,85.30546
1.4437602,91.78292
1.5397693,91.676765
1.6211731,92.883705
1.6726662,94.57401
1.7801217,94.878845
1.7974782,95.12569
1.8492417,95.282104
1.799754,96.34237
1.8943436,99.28952
1.9598602,98.02668
1.8141423,103.4047
1.8987505,99.08523
1.9145869,97.86762
1.9397664,97.16069
1.9604722,104.66624
2.0348113,107.39608
2.0687106,98.71241
1.9433854,104.748695
2.0043805,105.50215
1.8374783,97.371956
1.8735436,101.26649
1.8818504,99.59147
1.8339608,97.97012
1.7759016,99.893585
1.8438792,100.13496
1.747634,98.888596
1.7645417,100.492096
1.7124863,96.45897
1.6499206,102.72623
1.6608944,92.48244
1.6280491,94.88672
1.5865515,102.08657
1.5532485,98.06852
1.5515014,99.33771
1.5177047,97.70248
1.5579672,92.867386
1.5999697,99.53375
1.5287814,94.42696
1.4613782,89.85241
1.5029536,89.46595
1.4584705,93.57447
1.5064986,93.65212
1.3833578,90.10833
1.4003923,93.22456
1.4229424,95.83879
1.4541488,92.01716
1.3106136,97.50459
1.397882,89.57039
1.2561399,87.397125
1.2479767,87.98443
1.2345524,92.507286
1.110036,88.5247
1.126195,92.3961
1.0949426,84.06568
1.0357932,89.11602
0.9512304,90.52698
0.93328947,89.14588
0.98844457,88.14106
0.8853056,86.86989
0.9075698,84.14652
0.9267611,82.77099
0.9635592,86.03208
0.9170201,82.30738
0.8225466,82.407074
0.8935809,80.228424
0.93151546,84.82393
0.90639067,83.25151
0.9249844,82.02429
0.8926236,80.71232
0.8221204,84.639565
0.82401884,78.88717
0.7836835,83.25901
0.73399895,77.52248
0.71906257,79.35071
0.6913457,81.69514
0.6752964,79.10332
0.6214344,78.51785
0.53179884,74.211876
0.6074077,81.63929
0.48989087,81.7546
0.525549,81.303635
0.5051739,80.36326
0.4688536,81.58536
0.49065408,85.63694
0.5194054,83.18471
0.5561392,82.01616
0.58954424,82.76653
0.6199715,89.33758
0.765009,83.67382
0.89200526,85.58894
0.9251644,87.80201
0.9708327,89.68236
1.0454212,89.06367
1.1690651,89.71009
1.2276009,90.14668
1.26764,93.6465
1.3678094,90.199036
1.394454,91.761696
1.6306297,95.482414
1.5517805,95.42694
1.6534923,92.37633
1.7045758,95.3219
1.7484361,98.542404
1.6827567,96.33589
1.6864952,97.753815
1.8407081,93.93691
1.8140261,101.73081
1.7991197,95.92479
1.763927,104.31167
1.81595,102.572784
1.7639526,98.58014
1.8191144,98.32948
1.7895073,101.32083
1.825081,99.89354
1.8303766,96.91508
1.7664094,99.71973
1.7014627,100.317406
1.6768116,104.795975
1.6516814,101.51633
1.6064583,97.687965
1.5952531,100.89153
1.5828556,99.87638
1.5904468,95.1218
1.5126932,99.976234
1.4477979,101.27781
1.4245085,102.07683
1.4823114,99.98447
1.4561496,97.25124
1.3168143,96.26619
1.3130888,92.66137
1.427531,93.33696
1.309673,93.234955
1.2530495,94.529976
1.324909,93.52253
1.2837516,94.42827
1.232296,95.92192
1.3116264,94.16814
1.1706277,93.219025
1.1731046,95.06082
1.1557665,94.53433
1.141547,89.621605
1.0829879,96.65786
1.0863537,89.92051
1.011155,90.48186
1.138623,95.49295
0.98702574,85.21788
0.92443657,87.26887
0.8898572,86.54904
0.8827395,91.5375
0.80561817,88.0513
0.8585637,87.35977
0.7076251,88.484276
0.6803956,85.20824
0.69490534,83.468796
0.6483395,86.37254
0.6376452,85.87489
0.70136595,84.52578
0.49577013,85.696335
0.59187937,83.66688
0.65837646,85.12248
0.5438468,82.78471
0.59482616,82.593636
0.5803359,81.581085
0.58727324,86.00086
0.47963953,78.34643
0.5039833,82.02599
0.47937122,82.61399
0.38946745,81.10155
0.43907386,79.02838
0.34697014,80.21951
0.35042334,81.20084
0.24963924,76.86952
0.3186497,79.32276
0.22081932,77.75047
0.19203058,74.11935
0.13602948,76.58831
0.2023465,84.09255
0.26601496,86.31753
0.17979787,79.99783
0.20518367,84.12626
0.120781675,84.89601
0.14504342,83.548836
0.34882233,85.620255
0.3395554,83.27492
0.34553474,85.984634
0.48554307,82.54878
0.5296141,90.43472
0.588648,84.34496
0.66117704,89.7968
0.7748959,91.194954
0.96017915,92.848206
0.9462568,95.4448
1.0209037,94.35444
1.0593687,94.23205
1.2094892,94.40994
1.2431599,97.85699
1.3058957,96.736115
1.3322494,98.148254
1.3920408,98.718925
1.3743649,95.61286
1.3883052,95.06796
1.4652292,97.938644
1.4332376,99.52478
1.4450945,96.12202
1.4464545,97.60261
1.5239276,98.42954
1.4688017,96.05396
1.5076225,104.27627
1.463529,99.11643
1.4568512,99.177475
1.4783596,99.63651
1.487212,104.28266
1.3485879,99.54304
1.4326245,99.62854
1.3719965,102.242584
1.305271,97.29392
1.4007405,104.75434
1.247393,96.70243
1.2392802,102.012665
1.213445,97.06022
1.2173156,98.99226
1.0624822,103.47245
1.0446506,101.68983
1.1215523,98.73879
1.0971701,99.85296
1.0168885,98.73058
1.0104295,99.5222
0.9968925,97.32434
0.9344992,92.414116
1.0022379,94.606384
0.96492213,93.27223
0.9445971,92.99482
0.9176005,90.30443
0.8893279,95.156075
0.8307345,93.03119
0.8661137,98.698456
0.84929854,91.87734
0.83028245,89.516304
0.7273965,92.04198
0.786329,88.933754
0.7028602,90.30809
0.6958323,92.96654
0.6202416,91.16577
0.5680044,86.49873
0.55907995,89.53445
0.42177966,85.37168
0.5042482,89.56826
0.47755975,87.14271
0.47985214,84.400894
0.37319356,89.25725
0.44728103,84.9154
0.3712596,84.34286
0.33406568,87.65231
0.33927894,82.21605
0.38911542,84.13629
0.32483587,80.66109
0.25244877,80.17006
0.40307483,78.86385
0.26845774,84.00637
0.36233282,86.234695
0.3379134,82.19213
0.30210403,78.59643
0.2538078,81.05991
0.22062284,74.74652
0.2067231,82.265976
0.19517496,81.667175
0.112311974,78.19891
0.16758563,81.20115
0.16207995,77.518
0.0043826792,78.63281
0.003555138,79.03667
-0.050466888,83.49052
-0.028952127,77.75471
-0.047006603,79.425354
-0.051038574,81.98569
-0.052926753,80.067024
-0.03416158,84.9218
0.032984097,87.27815
0.101643786,89.04037
0.10327097,83.26047
0.1558223,88.173874
0.2553089,87.86526
0.44104978,85.92203
0.44143867,87.039665
0.5273304,88.67657
0.6228133,90.063705
0.67798436,89.15071
0.7674697,92.319466
0.9013838,91.1754
1.0622598,93.47645
1.0176537,93.31951
1.1714324,93.63477
1.0998067,95.48994
1.1970998,95.56872
1.1827635,100.66356
1.2027593,96.91649
1.3378222,93.991264
1.3179203,96.59834
1.3258464,97.29739
1.3704194,100.55539
1.2430655,102.337746
1.4398822,100.60292
1.3179398,97.82689
1.3826337,98.22783
1.3483754,101.58809
1.40005,98.64015
1.3110898,106.5473
1.3629481,101.29515
1.32899,102.063614
1.3831223,98.373184
1.2471942,101.19603
1.1900897,99.399536
1.2585783,104.17388
1.3106629,100.596016
1.1451688,100.76903
1.1942914,99.64232
1.2079287,101.90883
1.1084317,97.6221
1.1021271,93.4856
1.0565454,101.83754
0.99916327,95.65944
1.0119513,93.35875
1.0191891,97.9435
0.98216105,94.523575
1.0947958,96.43817
0.9679938,98.08059
1.009286,94.17423
0.920004,92.694016
0.93473303,94.0258
0.8730562,92.96579
0.9559464,94.73656
0.88925105,94.58105
0.8954756,88.20462
0.87151176,92.76418
0.8212893,87.94681
0.85298896,89.59471
0.7097154,92.48536
0.7373292,91.8773
0.6373513,94.47769
0.69842017,89.36047
0.61553353,87.6666
0.535076,88.44209
0.620195,90.68268
0.46162608,84.87233
0.5383688,82.26695
0.38271108,86.7984
0.4273849,83.58743
0.41918957,83.58909
0.48520222,84.77276
0.4391516,87.104744
0.43721306,86.17435
0.47146285,82.95897
0.44025937,83.2906
0.35958907,82.17273
0.4193822,82.415115
0.457879,82.303276
0.41394356,82.898285
0.41859677,79.49352
0.45946977,81.963806
0.24794693,79.541115
0.45436835,80.03041
0.30047533,79.0878
0.29937726,76.059494
0.27856666,81.71089
0.20885794,78.712776
0.19174929,77.05408
0.1241188,79.243225
0.12806115,78.58687
0.11411988,79.90629
0.08090994,83.5715
0.14804353,83.426605
0.13238764,81.81743
0.24923256,83.31116
0.2389835,84.35121
0.27822384,82.00278
0.32966283,84.45852
0.3686467,88.89546
0.3863229,84.98583
0.4303535,87.97495
0.6754476,91.67436
0.7551931,94.67706
0.8750525,89.93231
0.9208813,97.19459
1.0201792,92.29815
1.0219672,92.97497
1.1257832,88.93417
1.3122965,90.76284
1.2858732,93.75488
1.3663166,94.9925
1.4425274,94.78467
1.5904622,97.99722
1.5285974,96.62799
1.6108652,98.82024
1.6206442,93.18756
1.5919634,97.03228
1.5938222,93.483955
1.6485059,101.97516
1.6331509,98.67501
1.639609,101.71944
1.6846563,99.76358
1.71879,92.48654
1.618735,102.051476
1.6767539,102.45147
1.6646235,96.57405
1.6185619,103.504425
1.6278421,102.08907
1.5311096,102.00822
1.5444592,99.28125
1.499656,104.04899
1.4937797,103.442474
1.4962846,99.391525
1.5156614,99.49798
1.493911,98.00599
1.3881242,97.117714
1.4182583,101.126366
1.3315549,95.42489
1.3221847,97.62586
1.3488758,99.51647
1.2678471,93.40483
1.3667784,95.325676
1.4112421,95.32045
1.3585625,92.67833
1.252034,95.90624
1.247895,94.79606
1.248429,92.03058
1.2844917,97.88805
1.2401165,91.72066
1.2734411,88.97217
1.2781414,92.48326
1.2333319,90.97905
1.1402454,89.3266
1.1782779,96.48119
1.1151115,92.43705
1.1001085,87.23073
1.087869,88.146385
0.98002493,86.47017
0.9769964,86.18427
0.9449085,86.160675
0.944861,86.714516
0.89863,86.74932
0.8740971,86.09493
0.75864655,83.41808
0.7590509,84.096405
0.80553865,86.23016
0.7851202,84.94377
0.8343375,79.97191
0.7555902,87.022865
0.7655035,82.444336
0.84187526,85.5645
0.8256878,81.77591
0.82431155,82.50366
0.68846506,83.94147
0.74067044,81.03546
0.7265846,80.56238
0.72408426,79.81519
0.7582042,81.740685
0.6942018,85.052574
0.6837886,82.06652
0.69842756,82.20703
0.63411516,80.564285
0.60901463,76.69313
0.5145787,79.20747
0.4439908,82.8885
0.5373224,81.03504
0.48263597,76.609695
0.42733833,84.260445
0.5047767,85.588646
0.54461837,84.51991
0.5365877,84.596504
0.47217032,84.44631
0.6125167,84.17539
0.62155724,86.76424
0.6222402,91.07515
0.8196641,82.09936
0.8563664,86.06907
0.9750345,84.48669
1.0754746,90.1711
1.1000675,87.32008
1.2539065,87.65776
1.2257981,88.81712
1.3303936,84.672585
1.4384233,93.19943
1.5452663,96.07537
1.5951772,95.86197
1.7101676,92.998314
1.7302046,93.04382
1.7667607,100.9387
1.8276831,100.85132
1.8763704,100.0747
1.837311,97.22764
1.8505766,97.77952
1.9332471,97.85437
1.9614124,97.48322
1.9550877,96.47527
1.9847087,102.11806
2.028573,100.186066
1.9728761,98.972145
1.8922555,101.12602
1.858387,103.75478
1.9251425,98.858444
1.8283479,102.83201
1.860619,101.16547
1.80731,101.590096
1.7956535,100.45318
1.8327448,104.51743
1.7262638,95.45773
1.6955441,100.16322
1.6394858,99.94151
1.6850957,93.89842
1.6201503,99.494446
1.6026297,97.04827
1.610664,99.23417
1.5934004,101.239624
1.5731126,94.63101
1.5780041,97.769226
1.476548,96.27406
1.6200286,92.16389
1.5539733,93.20607
1.4248478,96.69897
1.5725935,90.00668
1.4803506,95.48502
1.4969133,96.71422
1.4384737,92.823364
1.4324709,91.004265
1.3698342,91.02882
1.3115834,91.25285
1.3381711,92.39804
1.2996421,87.46099
1.3834826,88.67826
1.2673664,90.99104
1.2106837,89.18796
1.216013,88.53264
1.1011887,88.47995
1.1576848,82.64424
1.0639435,91.18848
1.092848,85.22339
0.9772172,83.46944
0.9257793,86.53581
0.90895003,88.72148
0.97067887,86.31624
0.99425775,88.2703
0.96095556,84.66624
0.91467357,86.38686
0.94008154,86.43649
0.91105276,82.29855
0.89401037,82.7201
0.8829793,83.45993
0.91090834,81.91227
0.9112096,85.701065
0.90718544,80.480736
0.92310166,80.86734
0.79021627,80.700485
0.8132761,78.26401
0.787356,83.88426
0.7221005,80.59804
0.7192886,79.15643
0.60105795,78.32775
0.56241757,81.15264
0.5940772,83.18031
0.6518271,81.71411
0.47255614,78.29756
0.5498389,76.84984
0.5389162,80.2705
0.455215,79.62155
0.5528543,77.45522
0.5354184,84.86844
0.61768454,84.03498
0.64532214,82.88473
0.7206564,81.51263
0.76787794,86.80601
0.80514544,85.786385
0.92039275,88.80551
1.0888625,89.37064
1.1211464,92.35276
1.2080973,90.05111
1.3120544,89.27052
1.38111,92.14519
1.4544603,91.723526
1.4386818,92.68172
1.5213777,91.75251
1.6926637,90.33694
1.6586885,93.67827
1.655361,98.67031
1.7072275,94.57008
1.8093688,101.07009
1.8379232,96.8842
1.8538077,99.549515
1.8082446,97.88218
1.8741641,99.57452
1.8331944,100.02905
1.8417548,98.38126
1.8851281,99.39161
1.8987116,102.80231
1.8464246,101.765366
1.8131697,96.56247
1.8513258,98.401764
1.827126,100.93506
1.8318944,101.01854
1.7889371,98.888145
1.7759126,98.7196
1.6885409,103.80844
1.671029,102.59352
1.6014026,96.10795
1.5617298,103.06761
1.5828913,97.66228
1.5628458,101.938
1.5526204,94.497345
1.4737883,96.91187
1.4492266,96.2714
1.436524,97.55755
1.4474179,93.88887
1.3662047,97.804375
1.3394972,96.45426
1.3793627,96.10387
1.4004543,95.399994
1.3220453,97.13482
1.3432635,94.337395
1.2285031,91.81412
1.3566207,96.64622
1.2109333,94.561485
1.2852378,94.06516
1.1810367,90.0727
1.2546744,94.12875
1.1330178,87.91697
1.1034516,90.851654
1.076257,89.905655
1.0709301,89.48671
1.0217837,90.41791
0.97412443,93.78066
0.980784,88.266754
0.9023171,91.22346
0.8320473,85.66837
0.8651361,90.80857
0.8128585,84.47062
0.6925193,85.326675
0.6518825,91.89885
0.75860536,85.69278
0.78529435,81.7555
0.7391932,82.093605
0.6330317,80.33581
0.6544005,81.886284
0.5848419,81.010735
0.7054406,81.51428
0.64248925,84.77279
0.52680266,82.5435
0.6432657,79.70904
0.60665774,76.98778
0.46771413,84.86168
0.54521435,84.37904
0.5567365,83.50272
0.45220876,76.74415
0.43594685,78.47345
0.37300658,74.59102
0.3675332,81.2458
0.34347323,83.77044
0.31416458,83.27449
0.3109967,83.0326
0.2444396,79.61394
0.26515326,81.219025
0.17122339,79.302895
0.31142855,82.894104
0.32145905,86.40331
0.34041482,83.69032
0.36369166,85.22615
0.3727077,85.85298
0.39777502,86.141716
0.6511243,84.16955
0.63974816,86.39918
0.7653303,88.65978
0.7253271,88.32887
0.9653795,92.5199
0.96628344,86.747116
1.0717686,92.85486
1.0709825,90.75255
1.2020907,92.05241
1.2856714,94.4209
1.3828086,94.91771
1.4342268,92.04227
1.3906198,96.742676
1.4594865,98.08182
1.4080684,98.545265
1.5560515,100.25056
1.5313021,100.132256
1.519396,99.645004
1.5306734,101.20223
1.5505126,99.55952
1.5461309,103.848045
1.5714283,103.68664
1.526825,98.26117
1.5141193,101.90578
1.5649266,101.76063
1.5149081,101.2028
1.4898216,99.78594
1.3829569,96.04793
1.4054507,101.09247
1.3633443,101.26979
1.4360934,101.864105
1.3646269,96.61067
1.2864227,96.48559
1.4131002,99.71607
1.2598795,100.580925
1.1672404,97.30424
1.2554007,99.39909
1.2039164,93.11256
1.0710112,95.85673
1.039059,96.39634
1.1073258,98.09008
1.0221963,95.77578
1.0686008,100.16454
1.1394274,100.89787
1.0321066,95.42846
1.0138744,98.28262
1.0108436,94.28772
0.9522127,94.85262
0.89074534,94.561714
0.98541284,94.38248
0.9542629,93.19488
0.88936234,88.62577
0.89816093,88.64093
0.8350634,88.83251
0.7637876,88.669
0.72724617,95.16473
0.7089649,90.910866
0.663016,88.196365
0.6730595,90.80239
0.5618967,85.18374
0.56373274,90.57975
0.597009,86.49036
0.42439762,86.91913
0.4443813,84.15328
0.35149843,85.11041
0.49675095,86.39133
0.41353428,86.24897
0.37372723,82.14665
0.46864077,85.940094
0.34806207,80.828156
0.3494173,84.41557
0.36801398,85.98366
0.32395378,80.62482
0.3865265,81.21217
0.30414405,84.228
0.40949035,80.98215
0.29621735,83.19556
0.36153728,81.13083
0.3217487,83.7829
0.22218359,84.39562
0.2937019,77.97461
0.10092877,83.0292
0.19091466,84.76811
0.095575646,81.476456
0.007786551,82.828445
-0.007072745,77.89373
0.021403221,80.67826
-0.103010416,85.24263
-0.03105539,79.380646
-0.11384349,83.037834
-0.026377277,82.01577
0.0027504405,83.73709
0.07283214,86.42602
0.041863047,85.170685
0.15207876,85.00719
0.2129681,86.46302
0.304151,87.664314
0.33970267,84.8621
0.472328,84.404495
0.60935646,86.435875
0.52408904,86.11677
0.78219384,90.45424
0.8062946,86.29532
0.9401444,96.68091
0.92847556,98.143715
1.0227201,93.09511
1.0460154,94.95144
1.1969749,98.44938
1.2207816,99.150795
1.2316259,98.60004
1.2788187,96.06446
1.2909148,96.48528
1.3192173,103.36206
1.3045937,96.0682
1.4107169,98.66579
1.3671802,99.54596
1.3686038,100.74627
1.4422325,103.49453
1.3807027,101.92374
1.405245,99.19525
1.4075869,104.7489
1.3137063,97.72081
1.3781992,103.86269
1.3098148,100.96697
1.1735127,101.61549
1.3155645,99.82346
1.2868944,100.70879
1.1872531,100.76992
1.1624862,100.52537
1.1841266,102.08957
1.1255467,102.015625
1.091825,98.89312
0.99932516,98.05644
1.0327842,98.60013
0.999572,96.80948
1.0124273,99.69611
0.9133812,96.12691
0.9945765,94.58765
0.95196855,97.62326
0.98289514,97.846
0.98126143,95.44818
0.94230396,91.07814
0.95337033,92.594864
0.93941486,96.847855
0.9093357,94.78627
0.9507553,91.41729
0.9316348,91.74397
0.9327515,90.100914
0.8486198,85.1275
0.7752855,92.330505
0.73333424,90.54907
0.72093344,88.52026
0.6913388,87.3298
0.67925465,89.100006
0.66869855,81.87968
0.55702114,88.01208
0.48691997,86.3069
0.5032294,82.19329
0.5097703,85.01321
0.5053943,86.417946
0.457495,83.55828
0.38608462,84.059784
0.3910709,87.435715
0.46215644,84.80252
0.44553867,84.985435
0.42128363,84.39689
0.45156828,82.838684
0.38913435,84.06194
0.3260097,84.485405
0.32024407,81.18818
0.4361818,81.32239
0.3425656,81.8718
0.38181093,78.78073
0.35341954,84.06756
0.32786056,77.08858
0.27528533,83.413506
0.2675255,76.80899
0.26852542,79.95189
0.20554368,78.395836
0.14360714,81.25543
0.09275393,79.93986
0.087543406,79.37899
0.07050739,79.33864
0.10341524,80.66561
0.109575465,80.35319
0.18147771,81.772865
0.12624398,83.65698
0.08540379,83.86615
0.12404193,83.164665
0.11873965,87.27599
0.28982908,85.74362
0.29964167,85.90325
0.48863995,88.481735
0.41176257,88.88415
0.593658,89.02349
0.6856861,87.876175
0.8127919,92.049545
0.8560483,89.870926
0.9502122,90.28102
0.986185,93.793686
1.1069,95.924866
1.2124618,93.76412
1.2981893,93.41256
1.2537891,94.3981
1.321764,93.006226
1.4094228,95.36377
1.4507655,98.50203
1.4777416,96.91634
1.566536,100.74423
1.5925276,97.95577
1.5255967,96.07371
1.5502704,104.24619
1.4839102,99.12337
1.6070501,102.81394
1.5295991,103.86945
1.5667295,102.81403
1.5754496,103.22532
1.5427971,101.4174
1.5608122,101.863655
1.4766443,98.45653
1.4725423,101.9852
1.5100571,98.39268
1.4312578,97.03611
1.4795804,101.70753
1.3541578,102.59463
1.4292933,95.24763
1.3415287,98.467865
1.325344,96.65514
1.3117063,96.854004
1.303699,98.6697
1.2933497,94.29265
1.2524569,94.20619
1.2551842,98.19235
1.3227087,93.37021
1.1571771,95.41081
1.1937058,93.44259
1.168594,94.2515
1.1438128,94.31146
1.1877629,92.92968
1.1730472,95.62027
1.1661496,95.6646
1.2459471,93.68915
1.1493213,86.90149
1.1411059,91.49705
1.1129614,91.20904
1.0401967,90.48565
1.0580899,90.805405
1.0680741,90.487724
0.9599026,92.1223
0.8894745,88.35927
0.96070594,90.01959
0.8441451,90.91509
0.8782355,87.287315
0.8630095,88.23243
0.82936555,83.27563
0.7331854,83.620346
0.70461756,85.53027
0.69624275,86.37696
0.7030483,88.23246
0.7562115,83.90038
0.68986744,81.62661
0.8224723,83.334465
0.67041004,83.331696
0.6585212,83.774765
0.70521855,82.252174
0.7410776,79.52028
0.7028062,80.84546
0.73427564,79.351494
0.69789743,80.89408
0.73400253,79.56605
0.6895211,81.13198
0.67702293,83.20504
0.5893769,83.5394
0.59168893,82.116066
0.6213664,79.440926
0.5072105,82.18299
0.46086973,78.38999
0.46385986,82.697464
0.40221304,78.58362
0.3954285,78.825134
0.34551007,84.5501
0.35324338,82.377914
0.3094636,83.66451
0.44064906,80.63634
0.5811336,80.131226
0.60190326,88.815895
0.60543644,86.68686
0.70284534,83.712776
0.7027822,84.5033
0.82648796,91.30984
0.8368351,90.787735
0.99816644,91.49403
1.1143591,90.80659
1.2039001,90.358986
1.2579278,91.64237
1.3505584,95.32499
1.4347414,89.68862
1.506323,96.402695
1.5838624,95.73357
1.5808932,93.58934
1.6974959,98.46429
1.7645218,94.86298
1.7705992,94.561165
1.7854533,95.006
1.7439348,94.84903
1.8643715,99.00806
1.849825,96.31954
1.8457478,99.1296
1.8485758,101.078125
1.9205899,103.77784
1.930377,96.97929
1.8745586,96.1379
1.790347,105.19789
1.8830469,104.59533
1.9034939,97.86573
1.7957909,100.699814
1.6792853,99.8264
1.7710555,97.477974
1.8207871,97.70756
1.792684,100.743454
1.7351407,96.83664
1.6987582,95.312225
1.5516897,100.80744
1.6450967,99.36103
1.6317303,98.95637
1.5340775,96.94961
1.6040256,99.60434
1.5179957,96.44673
1.546322,101.11799
1.544214,92.18928
1.4827257,98.82286
1.5191092,96.91016
1.4237195,95.199165
1.501238,92.2759
1.5414506,94.865845
1.325654,91.91327
1.5106146,92.56544
1.4027816,94.348335
1.4311541,91.059425
1.3528754,91.2313
1.3596058,90.18637
1.3833424,91.14131
1.244926,86.34935
1.2852503,87.284065
1.231305,88.563545
1.243579,89.83416
1.2126917,85.8083
1.0575019,86.06999
1.0512587,89.219315
1.0343584,86.362526
1.0317218,79.27639
1.0084506,86.93918
0.97418267,89.068115
0.9736531,87.427505
0.99828744,84.089806
0.99236095,86.53707
0.865788,86.62795
0.9018999,83.851875
0.9261584,88.4898
0.8853969,80.28705
0.9254784,87.40183
0.9015744,81.49781
0.8541236,82.06493
0.85199195,82.43572
0.95202374,81.24851
0.90631664,81.36484
0.91022277,77.64403
0.7958848,76.71423
0.8793775,82.69464
0.6994075,80.445915
0.73695296,80.131805
0.6354039,82.530304
0.5659033,78.643
0.65996945,80.08314
0.55985546,84.497795
0.5837488,79.094444
0.43795845,81.643555
0.4525013,80.42693
0.58092314,83.364426
0.5860436,84.31114
0.5121197,84.031456
0.6393277,77.768394
0.6417656,88.009865
0.6824525,86.42546
0.8340567,87.47583
0.8482575,88.529465
0.9766564,90.177055
1.0243071,87.13158
1.1801577,89.9809
1.2706618,90.87622
1.2865093,91.72361
1.3616397,92.78599
1.4694561,92.151276
1.6288183,92.872635
1.6595389,95.790764
1.7214873,100.85518
1.748491,97.79257
1.7782276,94.29045
1.816423,97.23976
1.8096234,96.93601
1.832529,98.02093
1.9238753,97.263954
1.88869,99.11735
1.9673241,104.079834
1.9627135,96.38467
1.9432691,101.42267
1.8820385,106.24104
1.834219,103.94628
1.9159287,100.27118
1.823035,100.063324
1.8544074,102.076706
1.9208934,100.825676
1.8652463,101.33842
1.8739755,104.09608
1.7636685,100.95995
1.7802031,96.688736
1.7360467,97.75621
1.7033465,96.59488
1.6913486,100.435936
1.6153039,99.38378
1.6251321,101.146255
1.608386,95.64024
1.4524727,100.656425
1.5160756,99.01486
1.4785279,96.83846
1.4492611,97.96351
1.5013732,99.386215
1.4785746,95.72881
1.4515294,94.432045
1.4574045,96.071335
1.4125793,94.45188
1.3284076,92.5475
1.3750811,95.047966
1.3690443,93.008835
1.3423405,92.06144
1.2783318,89.83176
1.2682308,92.80752
1.2891881,90.77217
1.258307,92.41391
1.21029,88.31305
1.1180367,88.89533
1.0116757,88.49398
1.1130028,85.99444
0.9967312,88.45636
0.9431386,87.45011
0.8742911,81.69507
0.87488157,86.66298
0.83215624,87.11682
0.8289407,88.232346
0.8250466,84.587296
0.77282214,85.856384
0.77431774,84.4533
0.7866567,86.404175
0.7542118,88.93798
0.7993774,87.06941
0.8217998,85.19094
0.77397287,79.7272
0.70102096,87.32085
0.6630876,78.345345
0.69891644,78.98372
0.66128516,81.06493
0.6347698,79.9228
0.67577374,79.62424
0.55277026,82.46229
0.60135734,78.84459
0.57862234,79.728905
0.46306637,76.32834
0.4727044,82.93375
0.37373614,82.082634
0.39134598,81.09832
0.34899986,82.40541
0.25288135,87.21733
0.3146522,86.639595
0.2430286,82.42882
0.3303522,83.50865
0.18650223,82.52911
0.38635203,85.92483
0.36991134,81.102615
0.40781996,80.29564
0.5396837,88.94139
0.55906206,87.49537
0.6687397,86.62006
0.72065014,85.7693
0.75066704,89.53705
0.8846584,88.14078
0.9357575,85.74869
1.0082506,89.846565
1.1307095,93.83897
1.1518611,93.567764
1.2281733,88.9766
1.3479047,93.42377
1.4179145,97.46934
1.3926513,93.07765
1.4449592,98.104706
1.5405034,96.49709
1.556648,99.94113
1.567412,96.84358
1.6335784,99.60723
1.6207123,98.169426
1.5460625,98.37797
1.678168,99.56251
1.6431862,102.24913
1.5366153,100.565414
1.63758,96.2317
1.6189272,96.33947
1.6016359,101.44645
1.517218,96.96209
1.4593136,101.19999
1.5146208,97.67018
1.4469386,103.62804
1.5065067,96.68225
1.5256158,100.379005
1.4104484,96.96291
1.3962274,100.51448
1.3142964,98.70063
1.2619398,100.15006
1.3892407,95.4237
1.2943709,99.736595
1.26062,92.10714
1.1806098,94.87664
1.1936694,96.491356
1.1509851,96.41696
1.0323614,94.67928
1.1793649,96.16042
1.0752306,95.98339
1.0801369,97.97871
1.0454519,97.82539
1.0084171,95.28399
1.0552218,89.894516
1.0492412,91.83913
0.99172705,91.224266
1.0077068,90.097565
0.9256843,95.84447
0.8373916,95.772575
0.821409,89.680046
0.89897996,91.23085
0.809114,93.01293
0.7011506,84.449104
0.6295308,86.3942
0.6775524,88.40552
0.6088991,84.18884
0.60538465,89.78892
0.5423612,89.51524
0.5207424,88.58374
0.4931486,85.50973
0.52532095,84.28939
0.5004967,82.91287
0.3942922,86.6949
0.37119552,81.51792
0.41147926,79.43191
0.41583216,85.91477
0.37057415,82.754074
0.39241156,78.57123
0.40509886,78.48297
0.3718697,82.78876
0.3556277,85.15996
0.27860126,79.561905
0.42347786,81.18938
0.34645393,77.21364
0.3175156,81.81155
0.29992825,77.577225
0.14886117,81.25099
0.19352782,80.29807
0.14516619,83.0917
0.09996108,79.55435
0.13345176,81.39757
0.03478515,78.8975
-0.006927255,78.366455
0.022581901,80.05571
0.11238697,80.26247
0.06486638,77.99455
-0.0067424667,84.24861
-0.019743243,81.70551
0.049577583,85.179634
0.04124434,82.87686
0.2279667,85.906456
0.22222471,86.844955
0.3082439,90.23075
0.3283689,88.72072
0.5203832,87.179474
0.60197675,88.277565
0.7105623,90.179886
0.75709754,91.91203
0.85101134,87.3241
1.0012146,94.77355
0.88406175,91.98641
1.1418321,94.063194
1.0551416,94.5545
1.0498495,98.320595
1.3147378,100.189995
1.1839731,95.756775
1.2538085,98.33759
1.2714126,98.27557
1.3915316,96.959076
1.3339428,95.69497
1.3825595,99.622055
1.3422483,97.46177
1.3951098,100.19703
1.3311253,104.80603
1.3109164,97.527016
1.2816677,99.282455
1.3073627,98.50933
1.3740572,104.8877
1.3883569,101.26102
1.2903389,106.04652
1.289783,100.18621
1.2409447,101.20424
1.212956,97.692184
1.1458089,98.41652
1.1708734,100.84882
1.1521213,101.46161
1.1073567,101.85779
1.0361259,98.456024
1.0665637,100.54192
1.0316409,101.868576
1.0620811,104.280945
0.92424625,95.141205
0.95766085,95.05436
1.0475047,95.1399
0.9173085,96.27853
0.90302545,97.81467
0.89511365,89.464966
0.8873256,95.97181
0.9730488,95.61455
0.8480593,96.97225
0.92914385,95.85708
0.8422611,90.74197
0.8279486,91.52199
0.83566576,91.19304
0.9229795,96.92987
0.7530291,88.915565
0.72335196,92.054886
0.7860741,88.93945
0.6612959,85.68552
0.567181,87.6711
0.6283647,88.23002
0.60194933,84.014275
0.48935398,89.8557
0.41124257,85.37275
0.470357,86.171104
0.46338716,86.39003
0.39728913,83.93699
0.34016111,84.46372
0.33718327,85.134796
0.340876,84.67206
0.3998058,83.75471
0.42284122,83.930595
0.3195589,86.97516
0.39207375,74.92362
0.43291655,80.190025
0.43523866,82.47368
0.33046946,83.45721
0.35809988,83.713135
0.29857984,79.06329
0.26115498,80.40754
0.22879194,81.825035
0.2701224,78.6378
0.17101903,85.79795
0.20352066,80.16276
0.17457938,79.167564
0.13851465,74.47738
0.050157204,81.49029
-0.028129898,87.40877
0.045340843,80.96753
0.14423296,77.562775
-0.10035409,83.938965
0.06646632,80.30268
0.05887399,78.736206
0.026106082,82.99495
0.11359367,83.72836
0.14848933,82.63777
0.18417668,83.44213
0.35932314,83.84176
0.39865375,84.66803
0.36803365,88.46548
0.5408324,87.6436
0.6368859,87.69026
0.71196496,92.733604
0.7932068,89.19446
0.9159393,88.31553
0.90092534,91.523705
1.1257881,91.97035
1.0789908,91.20619
1.2814516,91.40097
1.2605418,97.80533
1.2776647,95.21595
1.3489403,94.45576
1.3733909,95.89326
1.4899063,95.72669
1.4880317,98.57122
1.4699796,98.79967
1.5183178,99.370735
1.4821994,103.59388
1.4667735,104.02957
1.5293103,97.039345
1.4465656,99.45151
1.4968809,106.11604
1.5252382,98.246475
1.5169959,104.2603
1.4445084,104.34245
1.4829148,99.36347
1.4389652,100.803375
1.3761657,97.77465
1.4060627,98.6307
1.4448687,102.22842
1.3887829,99.397446
1.3140055,98.296135
1.3305063,95.195
1.2508447,97.168236
1.2590709,96.62856
1.1923202,99.14926
1.1826652,97.23763
1.1706345,97.78362
1.1387869,95.83882
1.2426578,100.27402
1.1944308,93.465576
1.1357979,94.2715
1.1812257,96.93704
1.1487685,92.83077
1.1086022,95.87141
1.1758544,90.24301
1.1130065,94.17421
1.0724019,93.69023
1.1244663,92.92936
1.0873362,91.304146
1.0583004,94.40629
0.984145,89.87809
1.0732247,90.19356
0.92160565,92.87227
0.9123016,87.903656
0.9110997,93.944916
0.87925303,90.729225
0.81713545,87.00198
0.8605135,88.538124
0.7728163,87.59703
0.70162195,85.63851
0.70726156,86.350525
0.7359068,86.1025
0.65386724,87.62071
0.70142096,84.61517
0.6537682,86.95384
0.7069283,87.807785
0.700325,85.39325
0.58447355,82.82019
0.64571416,80.07363
0.6074904,80.312035
0.75120395,83.1696
0.6271661,79.961586
0.6435328,77.40172
0.5935963,85.65868
0.5638789,79.600655
0.58672035,83.124176
0.5181394,75.9796
0.49396056,83.42717
0.5703465,83.16836
0.460898,79.094315
0.4581386,81.33626
0.35661456,79.095604
0.4326545,78.997536
0.36475214,80.449356
0.34942037,78.67328
0.31289062,81.54275
0.36411595,83.87935
0.38872784,82.22805
0.334075,79.953445
0.49122608,81.665245
0.5044202,83.20541
0.5699867,82.86261
0.6012705,82.02513
0.7606939,85.94634
0.887065,86.07861
0.85838056,88.38889
0.9692786,88.64099
1.0824862,89.76201
1.1563044,85.15237
1.2890433,92.93015
1.349859,90.2534
1.4099133,91.7426
1.4553627,92.82985
1.5633748,91.27277
1.5393188,100.5625
1.6448935,100.00405
1.674478,93.94451
1.7025169,98.86066
1.7875159,95.627396
1.8373934,96.55701
1.7834274,103.8288
1.7723486,100.40763
1.8514119,94.8552
1.7471945,98.11141
1.824713,99.923744
1.9016411,101.71963
1.8410176,101.66719
1.8118272,100.11311
1.8269048,103.95052
1.8537304,101.29704
1.7994711,96.24419
1.7243167,101.47539
1.8516173,98.5173
1.7960677,98.15305
1.7317398,100.51555
1.652401,100.19297
1.622987,102.2258
1.5849137,100.30217
1.5843705,98.13855
1.5961033,99.882355
1.6248645,99.30272
1.6267947,98.89932
1.5016387,96.78464
1.5253584,100.24985
1.4730219,97.71689
1.5057464,100.82299
1.458331,94.79556
1.3783821,94.81238
1.3913343,90.108444
1.4499253,94.245804
1.404324,91.97097
1.4068029,94.69802
1.3928971,91.46364
1.3025573,92.623245
1.4320614,92.60012
1.3883919,91.89475
1.3113911,90.907524
1.3242106,90.93291
1.2723966,89.08454
1.1941737,84.51788
1.1932724,86.49425
1.0568258,85.926544
1.133857,84.52128
1.089432,88.68514
1.0641973,81.81065
1.0101687,89.346565
0.95065725,85.636246
0.9199431,87.87385
0.93007606,85.48439
0.9343931,84.00299
0.93406534,80.1222
0.93210423,81.99495
0.8674709,80.82893
0.89642423,82.24502
0.8462846,87.60937
0.8705905,83.39886
0.9320594,87.93138
0.9839478,84.325485
0.8408307,78.15006
0.9510771,82.689
0.9072975,82.31338
0.79838467,79.27809
0.8403905,80.550804
0.77898157,81.97302
0.70145404,78.03428
0.7221532,77.555595
0.6418632,76.91844
0.61613667,75.87742
0.58436954,84.37069
0.5936879,82.11031
0.5479536,80.790695
0.50732714,77.042244
0.54547906,82.866806
0.60811466,83.31574
0.48774567,85.80005
0.6012866,83.78245
0.6895069,84.66093
0.6808697,87.9559
0.7300304,82.45684
0.92711514,89.846634
0.7732121,90.579216
1.0800307,85.27519
1.1165801,87.539696
1.2036674,93.36522
1.2691061,88.04468
1.4182196,91.43997
1.4102457,89.85694
1.514851,89.311615
1.5738894,95.60144
1.7405989,96.453415
1.7924994,92.11876
1.8308377,95.168724
1.8269602,94.85809
1.808136,94.000565
1.8283805,98.941895
1.9054663,96.82218
1.901998,98.08759
1.9254228,103.14034
1.9623848,99.48534
1.9884392,104.75753
1.9283965,98.780334
1.9871377,103.154144
1.9825376,103.20442
1.961962,101.179344
1.8734267,99.15687
1.845913,97.40111
1.864762,103.34037
1.8076172,100.56625
1.8017353,100.08356
1.832931,104.849014
1.7847115,101.13158
1.7680818,96.29185
1.7449057,98.659584
1.7355846,98.30725
1.7006505,99.83855
1.6371044,95.928764
1.5594503,97.56241
1.5206233,97.82258
1.489514,97.65983
1.4921016,94.78702
1.5139705,98.08862
1.5205908,94.79914
1.447178,94.48643
1.4516562,93.62185
1.3954512,92.368095
1.4558942,93.5398
1.4312762,95.823616
1.4604112,90.555176
1.4071006,89.52516
1.378744,90.81212
1.3859544,91.29288
1.3693858,89.263504
1.3446751,91.115204
1.2919415,94.32306
1.1783154,89.86267
1.1745627,93.51215
1.130268,88.7907
1.025203,89.08296
1.0995599,87.79933
1.0779749,89.27733
0.98539895,85.849014
0.9710572,87.13978
0.9080486,88.22522
0.8530797,85.506355
0.8714576,84.94698
0.7939413,89.248184
0.8158913,84.88556
0.8788003,84.21831
0.86983836,84.11439
0.824171,87.11912
0.7923666,83.11422
0.7475885,83.88692
0.8397349,80.854866
0.7477258,81.203926
0.85645294,80.09016
0.72285914,82.75851
0.81237674,79.43933
0.73367745,77.204704
0.6744043,80.474594
0.717432,79.04912
0.64811695,77.21686
0.5246381,82.26998
0.4738123,78.60057
0.5386783,79.52267
0.40754977,81.94427
0.43284503,80.707596
0.43916565,81.18731
0.4204238,82.24102
0.4002928,83.73617
0.3705264,81.69799
0.48716113,81.39935
0.36486387,82.69793
0.4990273,85.10395
0.4389408,84.05306
0.51958585,84.03446
0.6690577,88.8186
0.7224503,90.857925
0.8316899,87.02883
0.87122744,86.295944
1.0106192,89.76696
1.1128131,92.315506
1.0629026,88.15831
1.2044169,90.713554
1.2775552,90.93716
1.3708733,91.81625
1.493659,92.480484
1.5790755,95.537155
1.4826459,91.732666
1.5647624,94.28981
1.5331016,97.91049
1.6594527,92.56284
1.6339519,99.11416
1.6612476,97.77669
1.6888793,97.7827
1.6272384,96.56164
1.7049075,99.618416
1.6337274,103.57825
1.6845571,102.53108
1.6898061,101.86183
1.8043815,100.48766
1.6288368,103.69733
1.574796,103.38362
1.556402,103.28204
1.5995374,102.06664
1.6448545,100.259995
1.5589997,101.06919
1.4840726,99.711365
1.4134356,96.267914
1.4589697,99.32782
1.3795207,99.483154
1.3540524,97.73361
1.3295393,103.45447
1.3115373,99.34305
1.2657696,97.162445
1.2429568,95.199554
1.2272618,91.441315
1.259783,97.87721
1.1923952,93.9952
1.2173991,93.421364
1.1538727,93.1272
1.1345692,95.58304
1.1667217,93.005005
1.0469203,96.02317
1.0536879,101.03785
1.0995259,91.06647
1.1045921,91.052414
1.0436449,92.51702
0.9616421,88.42832
0.9774468,92.45507
0.9848038,93.27473
0.8802827,92.86317
0.8899419,86.67044
0.80966854,88.87321
0.8665998,87.10999
0.72174627,88.01118
0.7517607,91.71499
0.7033614,88.109726
0.6891087,87.32759
0.57525724,85.86249
0.5684864,89.065636
0.5010718,86.695045
0.52848977,86.72858
0.50583595,88.96384
0.5339645,84.79513
0.50880384,87.79685
0.48050243,85.70635
0.41657007,83.84353
0.50440884,83.86153
0.49496892,82.294075
0.37003738,79.40727
0.44186285,79.52957
0.46806186,81.10943
0.38507393,84.76095
0.3997714,80.471
0.33281982,80.4005
0.3011236,78.34612
0.2506785,79.68726
0.13171333,77.77611
0.20690523,80.39499
0.10322154,84.73236
0.07115037,74.44849
0.12877576,79.835815
0.013216014,79.17969
0.09193811,80.815506
0.040284473,79.69968
-0.035530098,87.474335
0.12802307,81.32499
0.057390615,82.96176
0.09787083,85.50287
0.13626046,84.59632
0.24492082,81.29169
0.31544432,84.82233
0.40480357,87.55599
0.48346016,87.764046
0.50084347,86.78938
0.6516754,88.34638
0.72432846,88.89408
0.80039024,96.129776
0.94524705,94.25359
0.98743004,94.496
1.0641727,91.77796
1.0834714,96.583725
1.1962847,92.96531
1.2390677,95.93624
1.2153337,94.6905
1.3322746,89.94535
1.2752485,98.69686
1.3854549,95.141464
1.4253031,99.31572
1.3051753,99.365685
1.3686402,98.8037
1.3800257,98.628525
1.3063728,105.10319
1.447719,100.56662
1.3372182,101.34657
1.4447817,97.22167
1.4001356,104.0029
1.4517361,106.889435
1.2802511,100.61208
1.2978562,104.15226
1.2589486,101.92348
1.2478173,98.877914
1.2032925,102.5742
1.2044611,99.14119
1.2190394,104.71501
1.1799535,100.40013
1.1208905,97.28345
1.0862035,96.55879
1.0244488,98.32918
1.0416353,100.795876
1.0680995,98.80796
0.9906552,94.12499
0.9479306,94.88895
0.99858636,89.424774
0.9381286,96.68436
0.90515596,91.79693
0.88983494,102.41488
0.8889327,91.512215
0.92411906,94.64391
0.9341699,92.94119
0.8874553,92.489006
0.837347,90.164734
0.84578377,93.013435
0.8602386,91.406525
0.80110955,91.07106
0.6578127,86.25614
0.77507955,95.66399
0.6914621,90.678246
0.6340388,88.72847
0.5735908,88.42332
0.5899638,86.19746
0.55993026,85.69798
0.39965403,88.17813
0.439111,89.306206
0.46491322,86.065056
0.3701611,83.844666
0.38240105,86.463776
0.3831775,91.37873
0.44140917,83.55347
0.34192264,84.24056
0.27375364,80.46438
0.21449159,80.90892
0.22826134,81.67427
0.33241642,82.2433
0.290239,81.65898
0.41336367,81.281815
0.32532156,79.83986
0.27657834,86.28419
0.27774477,81.5633
0.20383005,80.01973
0.24154815,77.922646
0.2040083,79.638336
0.19954385,81.01853
0.12093411,80.78211
0.11736314,80.31852
0.06830469,79.43141
0.014457154,78.21003
0.0010204033,82.084946
-0.086433284,80.63704
-0.02126328,79.477684
-0.027659865,76.535965
-0.06036048,81.59283
-0.0556208,80.35509
0.041223247,82.09927
0.13325882,85.42383
0.13370204,83.64366
0.2569161,85.61968
0.275674,84.88183
0.33200738,87.244286
0.37044472,85.097755
0.54600316,90.6424
0.6798326,89.33443
0.7110888,94.15603
0.7606242,93.66148
0.79012084,89.72282
0.980893,91.90281
0.9463174,95.998604
1.1572254,93.42103
1.1937702,95.87908
1.2705437,96.70161
1.2912589,93.96118
1.3397118,98.21675
1.3190534,101.40817
1.3736985,93.55222
1.3469254,97.66848
1.4338541,99.81238
1.4654024,102.194214
1.397344,98.81634
1.5375886,106.57998
1.4620696,100.88611
1.5409051,103.97711
1.4790198,98.70852
1.3989362,100.55766
1.4590927,98.23673
1.4788592,100.68795
1.39378,96.714554
1.3849005,102.07409
1.4033482,101.37175
1.2808143,105.57067
1.4060512,96.69496
1.3300459,97.36031
1.2801963,100.99784
1.289671,96.51052
1.1942675,95.05814
1.2106285,98.527885
1.1704342,98.65961
1.2165736,95.63787
1.0800713,94.562195
1.1160488,99.15473
1.0356995,94.50541
1.0551382,96.278496
1.1141841,98.35706
1.0600762,93.36619
1.1259615,96.25331
1.0565798,93.564926
1.0364685,90.54677
1.0571924,91.64982
1.0122889,88.951225
0.9725169,91.02239
1.0303364,90.01602
1.0153687,89.46029
0.98381776,89.29505
1.0287398,93.69333
0.9297283,88.32733
0.7535312,89.736046
0.8251046,87.85912
0.7633148,88.02681
0.7122358,87.00595
0.7475322,86.632645
0.6717677,87.417465
0.6656697,90.2138
0.6315239,88.203476
0.5424386,87.56363
0.5759102,85.43131
0.5859368,85.30678
0.6136399,86.88261
0.4585155,82.961716
0.5276259,82.79819
0.61172646,80.961555
0.62572813,84.90298
0.5724089,83.44337
0.54286516,80.90403
0.49429157,73.94584
0.5121561,81.341515
0.54223263,81.98723
0.6359637,79.153595
0.62738436,81.15636
0.44631124,80.821815
0.48802418,77.900894
0.49154723,79.80329
0.44946942,81.137856
0.37426087,78.36169
0.39812687,78.969
0.2510185,78.65579
0.29022434,74.859184
0.2847811,79.75938
0.21635626,85.074684
0.2420047,79.5425
0.2957654,81.39401
0.26350653,88.06552
0.3852933,84.69716
0.4694817,79.74368
0.51077485,83.61248
0.63366127,82.796814
0.6098746,81.29734
0.6725544,88.584526
0.8179979,88.36517
0.8736514,92.26582
0.9496222,90.314026
1.1732508,87.216095
1.0846806,90.90904
1.2390178,93.34378
1.3176628,91.19475
1.484347,92.626976
1.5242267,98.183014
1.594545,93.80148
1.5866758,94.83663
1.6894984,98.27905
1.6380837,93.59893
1.681495,95.56396
1.767779,97.60559
1.7261591,102.36937
1.783083,96.25334
1.834481,98.32225
1.7801597,103.01295
1.7553672,103.90571
1.8253694,100.34323
1.8989185,100.275505
1.763981,98.67219
1.8640828,99.04502
1.841198,103.32199
1.7421712,101.83307
1.7434701,99.93487
1.7121084,102.89964
1.6528805,101.07531
1.7021234,97.19231
1.6013992,99.43192
1.6266586,96.16969
1.6653954,100.51382
1.4973912,99.10332
1.5659851,100.50255
1.5249654,93.68672
1.5208838,99.83498
1.4745978,101.256996
1.4585947,96.884796
1.486495,92.33442
1.4327534,98.283165
1.4461727,95.28068
1.3973284,94.749176
1.3960993,93.907265
1.4063606,92.917496
1.3682435,94.19514
1.359484,93.804825
1.3469024,89.62253
1.4296248,89.75026
1.4710307,94.320656
1.2466993,91.0354
1.2365557,88.09201
1.2502779,89.50686
1.2314789,87.10607
1.2329779,90.38227
1.1947669,86.22174
1.0952301,89.77573
1.1248233,87.455444
1.0518806,89.11557
1.0397981,90.65622
0.9988777,86.984566
0.9246175,85.89109
0.9565867,87.06619
0.9102601,83.70543
0.91593254,89.20715
0.8422799,82.86873
0.835881,86.89534
0.9267311,82.00265
0.8892266,81.235596
0.93388474,82.802574
0.8048961,83.44775
0.9301509,86.18759
0.89154285,80.28936
0.94234854,80.929565
0.891363,79.39533
0.7583449,83.418434
0.87994164,80.22091
0.82713336,78.89614
0.8328071,75.09689
0.80246425,79.694916
0.6903626,78.45248
0.7105044,75.54522
0.5795098,81.001175
0.4494498,77.404915
0.54770964,81.89777
0.580796,83.92081
0.5230769,84.41929
0.5365373,83.80702
0.44980982,82.025055
0.60397655,83.02374
0.60726124,83.4639
0.61313725,85.56244
0.67438644,84.95235
0.7178895,83.529655
0.87394494,84.4173
0.9621801,86.50474
1.03083,87.08353
1.1318519,89.96776
1.2278396,90.02734
1.3358337,87.4643
1.4313946,90.49415
1.5138863,91.09451
1.5576499,89.39327
1.6593937,91.0223
1.6853514,91.99875
1.8196467,93.30169
1.8656807,90.72707
1.8010724,94.82947
1.9188578,94.77896
1.8440399,97.97542
1.9309474,102.31884
1.9506267,99.35735
1.900286,96.94529
1.949188,97.90608
2.0216048,103.377045
1.9619751,100.20316
1.9451071,106.82625
2.0070877,106.695984
1.8995519,103.4871
1.9565972,103.2519
1.9521863,101.50715
1.9263376,100.49335
1.8763107,99.23226
1.8266698,104.24966
1.856722,104.62023
1.8074645,98.30341
1.7873088,97.44543
1.8275856,101.128975
1.6903298,97.46327
1.6202691,102.527695
1.6712292,101.192154
1.5917919,96.92484
1.5403138,93.73309
1.5803084,98.990715
1.5854952,97.23029
1.5470171,94.58158
1.4413457,96.166176
1.4706779,96.40511
1.4633865,95.67414
1.4943367,94.17396
1.4503089,94.79813
1.4575217,90.879234
1.444998,94.86091
1.4204974,94.59489
1.4439769,90.31053
1.3404388,91.86141
1.4298294,91.34345
1.3300432,93.6391
1.3436112,88.173546
1.2779438,88.99701
1.1644089,86.348015
1.1940843,87.61972
1.2129425,92.79868
1.1744205,85.29944
1.0973309,85.83839
0.98251575,89.39966
0.946364,89.83852
0.94755656,85.08744
0.9227095,87.29618
0.8984211,86.925446
0.88904136,84.00486
0.9441233,86.48419
0.9634605,83.64646
0.7787367,82.7748
0.7923449,81.117424
0.8509983,82.03257
0.7568863,83.445854
0.8097603,79.3349
0.8198438,80.75977
0.8238998,80.7646
0.8223838,80.30323
0.8382246,82.32273
0.7714277,75.684654
0.6934361,78.29627
0.7296016,76.99886
0.62069064,81.69107
0.59456444,80.712585
0.56726307,80.9961
0.54388,82.96586
0.47562966,82.16065
0.42705357,78.541374
0.40043053,80.186844
0.50406826,79.56878
0.377396,82.931694
0.38664964,82.48569
0.4762404,83.22297
0.46750656,88.45863
0.49147022,85.019035
0.58310825,86.165115
0.66343695,83.74096
0.7570477,86.87941
0.8630077,89.23722
0.8681025,85.89429
1.0196075,86.95497
1.0745533,84.13136
1.2085779,89.81669
1.1911923,88.19699
1.348924,91.39509
1.3600743,91.21573
1.42261,95.25265
1.5204207,94.42631
1.6266527,95.04026
1.6344373,96.69846
1.6265836,97.29698
1.7386564,101.66003
1.7134777,98.76487
1.7399925,103.11691
1.7675589,101.819305
1.721709,100.489136
1.7613114,101.78171
1.8017229,100.02997
1.8091346,103.51021
1.7644486,102.71994
1.6806502,99.11811
1.7083058,101.81168
1.7194339,108.774864
1.7072262,106.1717
1.6274836,100.567024
1.644979,102.304634
1.573771,96.13764
1.5328822,100.79392
1.5404605,106.21163
1.4830296,102.39954
1.5020269,100.519104
1.5756038,99.938736
1.4377404,98.51885
1.3890852,98.98685
1.3936006,100.89159
1.4036175,99.57706
1.3376033,97.63376
1.3318594,97.18492
1.2109681,94.77577
1.2828239,94.41768
1.2591791,93.13785
1.2081281,92.44199
1.1809269,95.834694
1.2435247,92.773674
1.158256,94.04211
1.2132554,90.38572
1.1817957,96.15491
1.1849947,89.786766
1.0778329,93.2804
1.003854,92.31472
1.0311948,92.55382
1.0669739,90.1312
0.9577462,92.117935
0.872351,89.404015
0.8167739,84.91071
0.84987414,87.52859
0.8158414,87.92267
0.7747277,86.97696
0.6841149,86.07127
0.68346846,88.601974
0.61652577,87.631424
0.65866965,85.08088
0.55852836,89.76286
0.5236535,86.125755
0.54699767,81.739914
0.6071388,83.34298
0.49308318,81.87691
0.5938016,82.7529
0.44931048,80.73528
0.5997723,77.61552
0.6227953,82.59286
0.5253117,82.82035
0.48313114,75.61977
0.4156112,80.62448
0.4887044,83.95378
0.49730346,80.5037
0.34039468,84.08039
0.34283817,84.5286
0.30179822,81.57751
0.22967242,78.54396
0.19324079,80.90185
0.11726712,76.34846
0.20353816,82.95731
0.12150757,81.39535
0.046659425,81.24767
0.10498283,81.355965
0.14135511,85.98168
0.029815301,83.70358
0.1173729,80.950966
0.11806694,79.958855
0.27371678,84.676216
0.19948804,83.784584
0.32144433,86.36318
0.43255338,87.70343
0.4765263,87.01359
0.5705913,86.38076
0.546315,87.78263
0.7801171,92.89073
0.7641935,89.48562
0.8455256,91.33769
0.9009353,92.59953
1.0636963,88.806206
1.0770363,97.80118
1.1567014,92.84985
1.2456553,92.57847
1.283487,96.53277
1.2292238,97.394684
1.2860427,99.54462
1.4209297,92.812195
1.4820044,102.058975
1.3459349,98.87907
1.4559157,98.92945
1.4887842,97.39801
1.4162381,98.01007
1.4722973,100.49971
1.5022597,107.136116
1.4181042,97.490654
1.4278353,100.88428
1.4089986,105.58819
1.4100709,99.376686
1.3575399,103.45676
1.3074999,99.56224
1.3545948,97.26976
1.2885742,100.020615
1.2440009,97.46583
1.3284072,101.21194
1.2184919,103.16598
1.230421,100.139404
1.0855113,101.65304
1.166315,97.216515
1.0341064,96.7405
1.0295179,91.4302
1.0603654,93.61985
0.92197096,96.44272
1.0054827,90.23482
0.9668801,101.10184
0.9150836,95.45211
0.9188836,95.83369
0.86940855,99.503
0.8985957,92.14871
0.94017416,89.06247
0.8493569,95.809044
0.92002624,92.810295
0.8086466,96.7035
0.80538064,93.674324
0.798729,93.476395
0.76100314,87.91546
0.797763,87.049614
0.69732124,91.575134
0.7528486,92.0656
0.5906568,87.82267
0.61039835,91.95869
0.5237684,85.05828
0.5232547,91.53634
0.5163864,88.04841
0.40615717,88.36084
0.3500433,82.10926
0.4840905,89.020996
0.33852497,84.44902
0.35046548,82.656456
0.34435624,84.10591
0.35283002,80.25647
0.28407878,83.95188
0.40100187,84.139404
0.2674512,81.0267
0.3332269,78.89297
0.24365927,79.376015
0.32677117,81.0465
0.32326394,83.794464
0.27369475,80.52156
0.09828283,77.43866
0.282308,82.10774
0.21022634,85.45768
0.14802684,83.099724
0.2107546,81.959785
0.11479295,78.539955
0.025224179,79.8527
0.090268396,79.708954
-0.05597306,78.38162
-0.06974147,83.873
0.0019905665,81.06598
-0.031665735,81.65774
-0.014497323,81.39129
-0.029296193,81.57237
-0.04438997,81.39214
0.025651617,80.1445
0.10022236,85.58869
0.102867745,87.2659
0.20720433,83.2558
0.27586493,87.33203
0.38177025,83.602905
0.43530554,87.59097
0.49251655,86.227516
0.5756501,88.88823
0.6929165,87.69297
0.80966973,88.0919
0.86952215,92.62322
0.9097655,94.85259
0.97365916,95.45642
1.0456223,98.00742
1.0739506,97.701744
1.2259274,94.75071
1.241138,92.90454
1.2861502,92.37233
1.3060564,99.98364
1.348913,96.40822
1.3915575,98.23219
1.3530371,101.059784
1.4099878,100.16737
1.4267039,97.64997
1.437519,101.694305
1.4686028,100.39172
1.3581178,103.31612
1.4316125,96.772964
1.3860236,102.24447
1.430293,96.50092
1.2813462,102.882034
1.3531363,100.50162
1.2859327,98.79531
1.3176051,100.8411
1.2430921,97.58622
1.2954701,98.76748
1.1714817,99.504074
1.161375,104.63826
1.1761235,94.5393
1.1996706,95.40062
1.0697441,101.165924
1.1199518,93.85809
1.0371287,99.29572
1.0549695,99.25277
0.9925996,94.09991
1.1634657,93.28158
1.0859274,90.46059
1.0227295,92.52841
1.0525845,95.5765
1.1030426,90.042725
0.97526926,93.98961
0.9329132,94.55817
0.9451003,95.751686
0.9492337,92.264366
0.91720474,91.48972
0.9445569,92.64215
0.87264735,96.523125
0.92671424,95.47498
0.8622656,86.483604
0.77204114,90.76969
0.74236584,89.44883
0.77113855,87.38406
0.628385,90.375946
0.68525785,90.78164
0.5426829,85.94834
0.68123055,86.33087
0.6247903,89.87425
0.57766587,89.06975
0.5204932,83.74468
0.5114083,82.11901
0.5490228,81.68972
0.41373903,83.35026
0.5750842,84.68921
0.5138288,81.87684
0.5312218,82.59542
0.5491996,82.41597
0.45335072,80.93433
0.5308586,80.30585
0.49370542,82.28742
0.5282474,81.31772
0.49227658,81.05048
0.4665068,80.955284
0.4785187,85.05383
0.40106347,80.10424
0.3723177,82.32918
0.31412223,82.99783
0.35994583,82.3096
0.21999922,76.21864
0.2817546,78.529236
0.17867582,83.79812
0.17080866,78.413284
0.1925227,82.32969
0.20780668,80.48045
0.16513596,81.456764
0.33825988,83.48282
0.25358772,85.26311
0.3035396,85.91338
0.373269,83.096756
0.3992205,83.951385
0.5202284,83.898895
0.5710501,86.58774
0.6895315,80.76965
0.7945523,92.51329
0.8592924,88.97851
0.8839005,86.17652
0.96153516,90.82314
1.1294205,90.82878
1.2105962,91.02146
1.2837515,94.4658
1.3450681,95.7066
1.3300359,91.60801
1.5089959,99.99862
1.5544101,95.36387
1.644461,98.64296
1.7051934,92.86549
1.5957102,98.95549
1.6651146,99.108055
1.5877705,98.62311
1.7085347,98.89547
1.6789492,98.17993
1.721948,101.18284
1.7196857,98.83591
1.6831511,102.58143
1.7541635,100.58928
1.7297581,100.366104
1.6899579,98.80418
1.7666924,99.89459
1.6636935,104.630295
1.5700836,100.5356
1.5787842,104.13049
1.6853834,100.82758
1.6071453,97.876854
1.4895198,97.6072
1.5147964,100.89994
1.5115104,101.15845
1.4342707,95.16542
1.5355877,97.967964
1.4110537,97.50666
1.5001765,98.21533
1.3538749,98.287865
1.5275301,96.7179
1.284813,94.19827
1.3657088,97.104034
1.4885429,93.65018
1.3190955,89.012695
1.3780056,94.0161
1.3162766,92.88914
1.3579795,93.84819
1.3275217,96.58381
1.308435,90.566925
1.3197591,86.14961
1.27669,90.96407
1.2572516,93.26866
1.2672262,90.77487
1.173756,86.41596
1.1625432,89.03317
1.066493,92.04936
1.1270797,90.127205
1.1062754,89.01422
0.9911876,83.515816
0.9592018,85.9139
0.9857118,85.42741
0.9182146,85.740135
0.83615166,87.87778
0.8466271,87.80927
0.89308923,84.15649
0.8814761,87.55167
0.86711097,86.71625
0.80996954,82.82169
0.86636674,84.8826
0.8699497,85.82004
0.8712122,80.99546
0.8657752,85.825035
0.7941979,84.79928
0.9369553,85.99976
0.8756314,80.74779
0.76752913,85.548225
0.77281755,77.47694
0.7873021,77.160034
0.75565636,80.51096
0.70779306,78.47046
0.6297199,77.90925
0.6133245,79.53845
0.6528596,76.484795
0.5346874,81.37571
0.5476636,78.31633
0.49102017,83.55156
0.49279168,86.27029
0.47453725,84.35329
0.46910515,85.61416
0.52281636,85.27475
0.5373348,83.14521
0.6657705,86.01312
0.66318154,88.790924
0.7874993,87.28075
0.8371247,82.73741
0.8848354,86.34376
0.9955154,85.79575
1.1065247,89.98957
1.1327511,85.68504
1.1911871,88.04015
1.2707323,90.68679
1.4339085,93.4601
1.5219475,88.105995
1.5568146,92.633484
1.646662,94.669624
1.7778758,96.1295
1.7318453,95.29265
1.815477,94.60044
1.8676232,97.0096
1.8373945,97.191185
1.7653431,95.85154
1.8339152,95.58853
1.9412189,98.64627
1.9707602,100.09256
1.9132465,102.16785
1.9913796,97.42233
1.9756271,98.37424
1.9202514,105.5258
1.9128875,100.36095
1.8838362,101.06122
1.9160647,97.96772
1.874746,97.069115
1.9005489,99.42861
1.7538284,100.29083
1.8434347,100.30071
1.7592043,98.67683
1.7792075,99.18379
1.805535,100.11055
1.7972952,98.519104
1.7040825,95.08037
1.7054155,94.50045
1.620684,97.55107
1.618343,99.34358
1.6385527,99.545166
1.5409415,96.62507
1.5749923,96.031
1.5592327,97.66578
1.5425885,97.591225
1.523659,96.52432
1.5412443,94.52849
1.4792542,95.38983
1.5220374,93.8392
1.607154,93.48625
1.4228963,91.217514
1.509832,90.73958
1.4437392,93.51963
1.4283602,91.10839
1.4022874,87.709366
1.370939,94.233116
1.3037351,90.26928
1.3549572,92.56217
1.2511158,89.18879
1.2594749,88.97611
1.1656069,87.074394
1.1366527,89.75996
1.0530964,87.33509
1.0232713,86.80599
0.9748208,85.64143
1.0087148,85.400505
0.88075954,85.7826
0.93103194,80.21143
0.9427788,82.36335
0.92717576,83.69962
0.9794056,85.4517
0.96758556,82.81688
0.89718264,81.487305
0.91441405,80.26903
0.8901044,80.01049
0.8656075,85.638405
0.837445,79.25719
0.85388076,78.69011
0.82131433,81.462234
0.78264606,85.13197
0.7166612,80.87383
0.7697148,76.06304
0.73329055,77.16905
0.60631603,81.58568
0.5462143,80.30318
0.6326567,80.49095
0.50009805,81.25602
0.62423915,78.03814
0.49714446,83.13906
0.4946005,82.035324
0.4947227,79.57971
0.5656432,81.99464
0.5013179,84.65055
0.580328,80.27052
0.6115679,82.38483
0.6088878,86.0875
0.6891792,87.540054
0.8025544,87.94121
0.80727136,84.542725
0.8314975,85.73522
1.0325773,88.37722
1.0772098,93.70633
1.191339,89.20297
1.2175908,87.999466
1.287499,92.33085
1.4282357,94.44871
1.417365,98.299614
1.473805,95.842545
1.541561,95.55339
1.5815514,94.529915
1.7161137,97.48137
1.7250824,98.55887
1.7424877,95.33302
1.7775697,97.34766
1.7782456,100.40436
1.8071207,99.1522
1.7568886,94.81654
1.8106623,103.72945
1.8443393,101.746475
1.826945,100.20333
1.836766,102.954315
1.8247875,105.20178
1.8015951,97.89008
1.7777114,102.70316
1.7004186,101.38326
1.7850921,99.209206
1.738615,98.12408
1.7413161,101.01979
1.632939,99.74422
1.5507772,101.58053
1.5599345,97.42581
1.5927826,99.53685
1.494971,104.27514
1.4601283,101.74926
1.3506817,95.42883
1.4647417,98.805954
1.3619435,98.51971
1.3016876,100.119225
1.3581164,97.56651
1.3537904,96.81056
1.3820102,94.964355
1.3115695,96.95335
1.300412,95.72958
1.2368321,93.04763
1.2400692,93.54189
1.3359797,95.00465
1.1740024,92.734726
1.2042435,94.718376
1.1535721,90.8056
1.1721234,91.783264
1.1215074,92.57349
1.0951233,84.536415
1.003159,88.65772
0.9804913,91.45319
0.9878048,87.04397
0.9369079,92.549065
0.8713554,92.50728
0.8226627,88.97071
0.80974287,87.129814
0.7492328,89.39763
0.70250046,88.56398
0.633794,84.498764
0.7950345,88.16662
0.63693106,86.467354
0.63328207,83.361145
0.64866894,86.66856
0.61883205,86.569954
0.6730729,79.79728
0.6071781,81.66444
0.54763186,83.595726
0.51985925,78.830376
0.5842344,79.829895
0.6451138,82.077
0.5608153,85.27476
0.56118464,82.52103
0.39944422,81.19328
0.45305598,82.88899
0.3629316,78.323586
0.4197022,83.19093
0.3443861,79.77825
0.25898284,85.51199
0.29287514,80.809906
0.18477313,81.19082
0.19058475,81.89298
0.2150569,84.643074
0.15440552,78.94237
0.14411072,82.660034
0.18610322,80.505104
0.13547044,82.67399
0.103426315,82.86595
0.26165593,85.72466
0.29936478,82.238716
0.2787426,81.74856
0.3918618,83.40542
0.47766638,89.25138
0.50175345,87.03855
0.61732113,84.84802
0.7234264,87.46201
0.7000824,89.94649
0.91050184,90.77572
1.0090237,90.24373
1.0639343,93.563034
1.1834438,92.47511
1.0646136,92.50266
1.2398143,92.777
1.2572919,97.73708
1.3456078,97.031166
1.3539369,95.58294
1.413777,98.049255
1.3865634,98.30656
1.4326639,97.6116
1.4439719,101.01442
1.5350041,98.45985
1.4683069,100.47871
1.5169564,97.16252
1.4657856,100.89255
1.4796666,98.37622
1.4992696,102.7633
1.384309,102.723854
1.4294904,100.38516
1.453683,102.54019
1.4377147,99.33586
1.4036802,103.004944
1.3323498,98.94547
1.2315145,101.90378
1.3390872,102.68046
1.2700458,94.93126
1.2435261,102.96114
1.1582112,100.09497
1.2001501,94.14316
1.1343687,97.924194
1.1344253,99.91491
1.0559118,96.71737
1.0830282,97.99147
1.0195043,97.40879
1.0447196,93.19116
1.0330484,93.84976
1.0017506,95.81851
0.8848454,97.084854
0.97760594,91.359795
0.9512944,89.47353
0.9225991,90.946815
0.92609453,93.11086
0.92535055,95.21454
0.8714532,91.5268
0.85090536,88.35482
0.8215856,94.118256
0.7835675,91.19641
0.75152403,92.63706
0.7550477,89.055145
0.6555775,86.3688
0.60141325,86.57728
0.60864246,90.594925
0.56919014,88.67496
0.5886901,87.98622
0.59460837,86.44035
0.4208811,87.52375
0.47800997,84.57546
0.41065583,81.5356
0.41163677,84.74144
0.42373687,88.82463
0.33472914,87.62013
0.3955216,85.90034
0.3186413,80.11818
0.33418396,85.31827
0.40681332,79.713486
0.4529399,81.05956
0.23686832,78.57379
0.2875084,82.452034
0.3188891,83.80637
0.30140576,77.755066
0.2863737,80.39461
0.22122124,83.13818
0.2308771,81.17086
0.18127415,80.257256
0.054451387,83.84916
0.05434742,80.51438
0.13247001,80.2972
-0.012731278,77.92346
-0.09834222,78.73486
0.006873159,79.90484
-0.029216662,80.55439
-0.016903432,86.086624
-0.039255507,81.9398
-0.02435373,83.710594
-0.06379348,78.280106
0.058427393,78.68291
0.0005938983,85.9964
0.21396607,84.477264
0.1586571,83.97904
0.19551837,86.61741
0.37506682,85.81098
0.45522213,85.05477
0.58675855,86.608826
0.60862786,90.99743
0.7161263,88.014626
0.80905074,95.526436
0.8886276,93.763405
0.9135993,93.20968
1.0393641,92.46084
1.0614414,93.712494
1.1295776,96.74599
1.2062446,91.670494
1.181457,101.2154
1.2332706,103.48112
1.2550546,96.507256
1.2632489,100.687904
1.3385805,91.940735
1.3870211,95.446266
1.4422514,103.38123
1.4309202,99.75895
1.3829565,101.75046
1.3985833,104.309845
1.3723919,102.29457
1.3346254,99.92544
1.3938793,96.622665
1.4442422,104.20478
1.3601325,104.019905
1.3651972,104.71329
1.2837931,101.63726
1.2915884,100.156075
1.2790484,101.586876
1.2891725,102.64666
1.1470072,102.047905
1.0864398,95.712456
1.2154298,98.8109
1.1077873,100.65646
1.0793362,98.47457
1.0898451,93.570854
1.0310295,103.300674
0.92833334,95.78706
0.98979944,100.81129
0.9658244,97.83798
0.9621677,93.73634
0.9445217,98.708954
0.99342537,93.60149
0.9277654,92.53763
0.9936386,90.48103
0.9359404,92.53356
0.96350163,91.21767
0.8160825,87.97173
0.95844245,93.491974
0.93111765,97.69778
0.8668216,91.13843
0.8075844,90.96349
0.69391155,89.94415
0.7364773,93.31947
0.6757561,89.440094
0.6342727,89.116066
0.6943157,89.5211
0.5128083,85.55041
0.5312175,89.783356
0.4876352,85.07064
0.50039065,86.75771
0.4578504,88.310585
0.49765527,85.009
0.4384913,89.411995
0.5032896,82.59346
0.46982434,89.20701
0.40854844,85.32494
0.4750475,88.38222
0.4745721,81.2477
0.45797148,80.74733
0.40098864,80.78812
0.45813414,82.60537
0.37373883,82.98424
0.36971357,81.93808
0.4330508,78.71067
0.37387222,85.076256
0.4327415,83.935005
0.40044,79.228294
0.33626676,82.15634
0.23770161,82.55483
0.18978424,81.4087
0.17754762,83.85387
0.053253654,81.75855
0.08178686,79.9934
0.079696104,80.489685
0.12689441,78.403984
0.11670411,79.835
0.13694051,84.983154
0.15275857,78.97072
0.23259476,82.07811
0.16972125,83.811264
0.33053955,84.88194
0.4441394,82.75006
0.4644917,90.69121
0.5839713,86.50575
0.61368537,90.65819
0.71733975,87.80981
0.7875288,88.589424
0.9126411,90.97251
1.0255005,89.89289
1.0717828,89.9887
1.1649325,92.111206
1.2946992,92.39077
1.299026,95.604774
1.3546189,97.93826
1.3633733,94.85498
1.5197817,96.89999
1.5441611,97.22007
1.5964421,94.964516
1.5707089,98.4592
1.6426338,97.790405
1.6580155,96.72563
1.6811949,103.81098
1.5958904,99.73246
1.6811581,100.04285
1.6538111,97.08804
1.6662518,100.68128
1.673796,100.33032
1.6528124,101.4363
1.5858053,105.38325
1.6572436,100.686226
1.6062368,98.77747
1.603942,97.349884
1.4891721,96.44215
1.5546567,104.33467
1.5453805,98.76075
1.5308477,101.188675
1.4998938,99.96069
1.4963553,98.439026
1.382101,102.631454
1.2600212,99.181175
1.3995427,101.90195
1.1880257,100.47667
1.3088691,101.08943
1.35286,98.48606
1.2221787,95.602196
1.4076718,98.84273
1.3477815,95.88855
1.2997019,93.604324
1.3182604,93.784004
1.2779676,97.66931
1.2277305,94.90822
1.2109296,89.86329
1.2517675,92.18724
1.1688371,97.23152
1.2709405,90.323326
1.1802062,95.05456
1.1252096,92.34953
1.1363931,90.93332
1.0960803,89.80037
1.1077493,86.07278
1.021386,86.9479
0.9702432,87.39709
0.87394804,91.08852
0.8664842,90.25908
0.97794026,83.73864
0.8699312,84.4756
0.8633756,84.37054
0.78305465,84.25968
0.77878946,84.630196
0.7699152,87.997925
0.7648024,86.56662
0.76591504,81.210495
0.8518834,83.76635
0.80634916,84.85267
0.75675285,88.93893
0.8732681,80.351036
0.78043026,80.74528
0.810911,83.05672
0.7217988,82.95494
0.6981346,82.85319
0.7490705,80.56228
0.68583775,79.47754
0.67476,77.49608
0.70157254,82.2203
0.6265544,82.51856
0.6211226,78.20391
0.53844,81.093155
0.5293482,80.376366
0.4980475,79.82343
0.39495543,79.41322
0.538594,79.70969
0.49002638,81.11653
0.5435128,81.23248
0.43455598,82.43179
0.5117083,79.80788
0.5719291,81.00371
0.725756,83.61385
0.72209203,85.98969
0.85741323,87.339386
0.8259119,88.97629
0.93120784,89.75601
1.0730661,89.34061
1.1190891,91.9281
1.2190504,88.71618
1.3010025,89.63538
1.3905028,91.992905
1.3017758,93.35884
1.5788398,95.424446
1.5993897,92.664276
1.6308076,91.422066
1.6465389,96.636665
1.8113531,99.32979
1.7947468,97.91608
1.8123553,97.19602
1.8538964,98.82654
1.9400728,98.47683
1.8918073,98.88754
1.878613,97.60603
1.8259904,99.07889
1.9129808,97.58814
1.9597982,99.5993
1.8447582,97.39267
1.9210753,98.80286
1.9403639,101.812675
1.9055293,100.87087
1.9307728,99.83598
1.9526464,99.62195
1.8789445,101.783394
1.7808728,95.624756
1.7887487,97.80232
1.799064,101.792816
1.8025681,99.598274
1.7266974,96.95312
1.5575964,99.83903
1.7140236,97.91744
1.6785984,101.83106
1.5663214,98.20615
1.5493323,101.68466
1.5680572,99.171684
1.4843935,93.814354
1.5840317,97.54684
1.5710995,97.54223
1.5344507,90.70457
1.4584892,92.35322
1.5797538,94.050514
1.5269804,92.89371
1.4278886,90.67589
1.4824269,94.35465
1.4235086,92.87627
1.52285,94.24731
1.404118,89.52762
1.4645544,93.88222
1.4000525,84.42084
1.3154355,91.93792
1.3560458,87.97842
1.2121576,91.6709
1.0882193,91.67834
1.1715984,88.234924
1.2360917,92.687355
1.0509932,86.679054
1.0524099,87.21691
0.99354225,86.117485
0.9664808,86.578514
0.99106276,84.2726
0.978768,82.11639
0.9206076,82.20791
0.938282,86.551674
0.8552863,84.25847
0.96216834,86.1627
0.87849927,84.877464
0.9655799,82.99072
0.934132,79.56477
0.9060983,75.78086
0.882216,78.237465
0.94005156,80.09503
0.8603101,79.328674
0.8922146,78.22927
0.82900685,82.630646
0.74751633,82.85182
0.74594975,80.230034
0.7019271,76.535255
0.6817138,81.7419
0.62129986,78.79438
0.6109264,84.916885
0.57156396,82.90575
0.6072283,80.64876
0.51439744,81.28584
0.61948144,85.03671
0.53852004,81.17312
0.47987604,84.33925
0.5654973,83.25817
0.593284,83.74591
0.71015036,86.86173
0.65238583,86.63563
0.8126352,86.05996
0.84257007,81.79244
1.0085337,87.04788
1.0760387,88.32267
1.1349121,90.027054
1.1709672,86.59633
1.3332324,94.179
1.3603598,93.57625
1.4652299,93.32807
1.4335514,91.151054
1.5705143,91.06994
1.6210718,95.03526
1.7163486,94.05212
1.6926979,97.26134
1.7565328,99.6222
1.7659487,100.28305
1.80115,98.81256
1.8426496,97.25214
1.9261831,101.820885
1.8477368,102.81918
1.9502813,104.51829
1.8882396,100.5041
1.8546702,97.754295
1.931196,104.06341
1.9145043,104.20997
1.8667231,98.25563
1.8374054,104.33525
1.7751131,101.701004
1.8339125,99.66755
1.7534465,102.12223
1.7860088,101.18443
1.695414,100.51601
1.631651,96.012955
1.655152,98.786156
1.5551832,101.332985
1.5218757,100.13296
1.5619265,102.13584
1.5060834,100.34198
1.4821732,99.63244
1.3993187,94.88531
1.4509208,98.776726
1.3803875,96.36628
1.4491484,94.39626
1.3172634,97.28598
1.3284186,95.44064
1.3169199,97.47077
1.3203866,92.67779
1.4048542,99.910446
1.3418605,94.05512
1.2645035,93.15819
1.2593079,90.80878
1.2847943,89.70046
1.1389531,92.24751
1.1585777,96.68426
1.1824683,92.7188
1.1680932,87.8569
1.1134189,92.7994
1.0134332,89.39711
0.97602075,86.80875
0.9476011,92.39293
0.8550997,83.37802
0.8381301,88.3662
0.8987158,87.30929
0.8632718,84.931625
0.7605521,89.91729
0.7200243,85.13177
0.73469335,84.668434
0.7023332,82.41018
0.6709649,81.540276
0.6465243,80.37393
0.64498484,82.83653
0.68812877,82.85314
0.6928314,82.41666
0.70400697,78.32435
0.58629125,76.539444
0.6677609,82.85483
0.6554627,78.71113
0.564817,76.135315
0.572858,84.208115
0.5601552,76.85759
0.6173831,80.601585
0.4373371,83.88768
0.32640198,78.31128
0.43900058,81.963326
0.3394676,80.81651
0.3549552,79.63696
0.31845686,78.62909
0.21690388,80.13278
0.2539222,80.45244
0.27365324,78.20164
0.279461,85.8162
0.21063845,77.12894
0.28690118,80.70224
0.28711542,78.87241
0.41395387,87.553635
0.37394986,84.92195
0.44879255,82.30213
0.58665967,86.32327
0.60406446,88.997345
0.7001424,89.609474
0.7655943,87.64823
0.84467834,91.64435
0.8142939,88.88272
1.0901242,93.33886
1.0286485,94.57566
1.1967934,92.274605
1.2519565,91.881645
1.3382457,92.85121
1.323767,94.763725
1.4303217,91.796776
1.4380493,98.75753
1.3896891,97.42849
1.4823945,96.79054
1.5329859,102.32841
1.5569429,96.93161
1.5303179,100.53651
1.5248157,98.669975
1.539561,100.74351
1.5400798,96.874626
1.5383389,94.84028
1.550042,104.40295
1.475271,102.784515
1.4621972,100.52998
1.4673177,100.70037
1.4939,101.15636
1.5051342,102.08083
1.4199076,96.78521
1.350046,98.186554
1.3299628,96.15615
1.3251404,102.934975
1.3135241,98.41455
1.2439926,104.64092
1.2970049,97.07006
1.1753552,97.1535
1.0572695,97.745895
1.2153677,97.62067
1.0365223,96.30149
1.062789,99.284386
1.1034048,96.56488
1.0816725,102.30774
1.0491716,99.46501
1.0333538,95.954056
1.0592015,92.68349
1.0168352,91.93141
0.99379504,92.55268
0.96916425,92.42426
0.9494954,91.038536
0.91194487,94.09705
0.8824624,93.32082
0.8625429,92.17217
0.83653474,93.439224
0.8071587,88.36794
0.71024007,91.432755
0.7205313,87.97131
0.67438895,87.6734
0.7245747,82.84986
0.6334526,92.14729
0.45576563,85.8287
0.49630687,84.20128
0.5047648,86.17409
0.44509462,85.05993
0.35963035,83.34098
0.42510527,89.45885
0.4592251,88.345474
0.43306133,83.82302
0.3397074,82.796394
0.39852917,85.0171
0.37172177,79.562035
0.38026455,79.91107
0.34702435,84.81935
0.2501596,83.804214
0.43823567,84.67732
0.34071004,81.24099
0.35907277,77.42517
0.2619742,81.41137
0.28329298,80.242805
0.15992746,79.19586
0.11620147,82.79853
0.06719905,82.29242
0.07251846,80.04074
0.105833925,79.881134
0.09768892,80.34239
0.00801813,75.98691
-0.089921035,82.90394
-0.0074282866,83.14019
-0.060879387,82.18385
-0.06353454,83.26697
-0.030513156,86.80652
-0.016120585,83.00204
-0.045779817,83.856125
0.083087176,83.52526
0.17094867,82.04573
0.23438619,86.87064
0.3242944,87.10844
0.44983646,87.306046
0.4247677,88.47764
0.5809138,85.23926
0.5534433,91.46656
0.7791614,89.74984
0.77720183,96.127655
0.91255087,92.11231
1.0097485,94.2684
1.0706862,95.511444
1.1937813,95.75933
1.1203772,90.99623
1.1945612,101.412224
1.286488,94.37992
1.2960614,99.330475
1.2896091,95.74244
1.3145672,96.0995
1.2590084,96.73996
1.362601,101.20926
1.4242193,99.941216
1.3023995,102.410095
1.3682088,99.06721
1.3576031,98.3359
1.4097315,101.6321
1.3562051,100.469154
1.3391973,99.414474
1.3246386,100.261375
1.3442354,103.31458
1.1965442,104.12324
1.2680432,97.83188
1.2020408,101.70582
1.2272303,100.35194
1.232804,100.27597
1.2379268,99.3981
1.1492964,102.33144
1.1084387,98.560165
1.0541928,94.21219
1.0851669,94.969505
1.035691,95.4356
0.9755016,97.00182
0.97580826,96.60414
1.0317347,95.823784
0.9945141,92.02667
0.93283266,97.06386
0.8940456,95.34542
0.8769274,91.772194
0.96637154,94.76458
0.8512856,94.29087
0.8608569,90.63732
0.8894358,91.35678
0.8596632,93.46706
0.76310694,93.89204
0.8417197,87.60691
0.78063685,88.98802
0.7306361,88.15039
0.74326795,87.42504
0.67565244,90.010315
0.78801966,90.68536
0.5889381,85.90455
0.6434067,90.18601
0.49632937,87.78794
0.5607112,87.238556
0.47794175,85.55639
0.36578017,83.90239
0.46071178,83.5978
0.39570522,84.20294
0.4338142,84.1521
0.48541656,87.61249
0.45973235,77.19112
0.3648896,81.87436
0.4255167,82.51889
0.3899287,81.74324
0.39292106,82.794785
0.48520842,83.16799
0.35230035,85.527374
0.38021585,81.87662
0.36495623,80.03124
0.34306878,84.07227
0.28121248,81.453735
0.3661148,82.19035
0.3231262,79.73704
0.31569985,80.41205
0.22294743,79.40754
0.19634071,81.37997
0.17746387,76.07017
0.19958141,82.93736
0.19153394,79.26893
0.12290537,78.29022
0.05671973,84.20929
0.07812797,78.50532
0.03930501,81.93308
0.14270696,85.95051
0.13422933,79.85486
0.23767063,82.48046
0.3175088,87.38201
0.2963613,86.4588
0.40383726,90.127335
0.50354475,81.67784
0.59519255,87.42464
0.6833082,89.88131
0.76844764,89.316216
0.8082062,90.85567
0.9175466,88.88095
1.1066753,91.83383
1.1199511,92.243
1.212753,92.87472
1.2369008,94.33097
1.3273277,95.79625
1.3805132,96.41931
1.4391506,97.78844
1.4441078,95.39161
1.4927212,97.40017
1.5220653,99.83164
1.5505825,97.72666
1.5279646,103.90479
1.5411592,102.0206
1.5832696,96.86725
1.5916698,96.75983
1.6151351,101.16633
1.6072122,102.29119
1.6145229,105.72397
1.5191473,104.62589
1.6006691,101.50669
1.5261173,97.34482
1.5560437,97.235275
1.4836018,102.73333
1.5543998,102.41632
1.4767842,98.720985
1.4955317,104.2155
1.4712006,102.01842
1.3546085,100.795616
1.3253525,96.74889
1.3916876,99.00706
1.2389785,99.94247
1.2494642,98.59328
1.3065796,95.154915
1.1973501,98.87028
1.2143208,95.95984
1.1915753,97.172295
1.1992887,94.997894
1.2584311,92.868
1.264172,93.41029
1.1170886,93.65282
1.1756634,95.204926
1.2307893,95.303024
1.1344615,93.41736
1.1477084,86.48514
1.1624719,87.838455
1.0768666,93.84277
1.008401,92.00504
1.0871496,95.48117
1.0117545,87.52069
1.0244361,88.928734
0.98960835,89.90986
0.9143742,90.46204
0.91619396,88.059875
0.80836964,86.941536
0.81965077,89.07207
0.7578126,90.67377
0.8625046,84.096985
0.7465285,83.04996
0.7451172,85.577
0.7227347,88.48368
0.6956656,88.83508
0.7214245,84.24865
0.69673073,85.437614
0.67513007,88.23365
0.79367,83.87601
0.68691593,83.07101
0.66882265,81.509674
0.5878158,81.29875
0.72508436,83.5482
0.7355251,83.4897
0.69581133,81.515144
0.7192676,85.94801
0.59959006,83.13493
0.5850248,81.9089
0.6931209,83.26398
0.53745127,84.547424
0.47449976,81.984406
0.5193842,80.89087
0.39077505,81.22795
0.44422078,82.587036
0.44472077,78.06313
0.43276176,84.053276
0.34034774,78.85593
0.36929554,82.73095
0.4119537,84.936226
0.4528995,81.191216
0.5887606,82.21341
0.5484962,88.79831
0.7288475,81.88821
0.6960869,86.038216
0.86556154,87.57691
0.8399667,91.05107
1.0670829,88.678116
1.089747,88.81972
1.183353,91.674614
1.312621,92.920944
1.3591508,91.6144
1.4957896,92.42446
1.4934285,91.43814
1.6058769,93.80765
1.6331567,95.82407
1.7489213,95.56413
1.7090225,96.59952
1.7738332,97.844086
1.7248503,94.9041
1.9170406,99.66948
1.7942092,97.352875
1.820463,99.61648
1.8777119,100.67909
1.8570467,98.14457
1.8557388,104.68405
1.8073318,104.42216
1.8881172,96.17017
1.9372034,100.207016
1.8959624,101.949646
1.841264,99.43799
1.8947803,101.762596
1.8584307,104.946014
1.8173399,104.24445
1.8100157,107.08663
1.8494124,103.64292
1.8525909,101.96095
1.6638559,97.28478
1.6835932,99.07519
1.6024815,99.67822
1.6858947,99.61643
1.6966372,97.545166
1.5717636,99.67118
1.5285665,97.4961
1.4961054,91.63566
1.4757409,97.772
1.5627886,96.67161
1.4987706,95.95505
1.5412102,95.2676
1.5338343,92.75219
1.4661404,94.79819
1.4892306,95.06718
1.5036498,97.464516
1.5421911,92.74876
1.4144303,92.286415
1.4691166,91.68253
1.3488094,95.98774
1.2858713,89.77725
1.291531,89.49822
1.2930287,93.20971
1.1942768,94.12889
1.2572707,93.264175
1.20285,89.08117
1.0496933,86.96075
1.071801,88.77981
1.1256384,88.15353
1.0312648,90.03474
0.9327348,86.79952
0.9225975,85.6113
0.8799591,87.84465
0.9274367,87.78392
1.0490084,84.267235
0.9122576,86.23552
0.97495747,82.99625
0.91792566,85.98513
0.91646165,80.43371
0.9635619,78.13579
0.935504,84.271065
0.87168354,86.343796
0.8397725,82.81771
0.8802057,81.564896
0.94473207,78.61022
0.8418594,86.0978
0.9058589,78.474884
0.79537845,82.61895
0.8448742,80.046745
0.6711527,81.91466
0.70685405,80.6582
0.5939751,81.62659
0.54696596,80.85673
0.59238714,82.35019
0.57658386,79.24418
0.5236286,83.82485
0.47008878,81.988365
0.55500126,79.28051
0.45444885,84.423965
0.5834288,79.87294
0.6782674,87.004234
0.7090523,84.390724
0.71477854,85.4551
0.91517246,85.91213
0.8702115,86.2676
0.99529463,85.16814
1.0938483,89.02452
1.2462561,91.82268
1.2891452,88.34526
1.3728918,89.10477
1.3481405,89.13066
1.5171752,99.51328
1.5869541,89.618744
1.6194472,99.13323
1.7110229,94.37327
1.7572187,96.88195
1.7736037,94.70768
1.8290994,93.941765
1.8238939,94.6097
1.8423396,96.14821
1.900134,103.05983
1.9957176,97.986336
1.9107628,102.26607
1.8792562,102.106026
1.9488885,101.24491
1.8319058,100.07634
1.9484628,104.983406
1.8592993,102.21974
1.8338343,97.74869
1.8993124,101.049194
1.9106424,98.75243
1.8810843,104.91281
1.8041621,104.71652
1.8054572,101.57026
1.8529029,98.72062
1.6857853,100.29603
1.7402773,101.19849
1.6684239,97.83443
1.5740498,101.36183
1.6777257,104.14766
1.565953,99.70057
1.4655203,99.46155
1.4956712,95.7137
1.5249974,101.21351
1.4601705,96.98561
1.382686,99.04003
1.4506972,97.6466
1.4215767,95.67686
1.4509485,97.04583
1.4381006,93.124855
1.4069741,98.43184
1.3016089,89.496956
1.3842105,92.47046
1.3098106,93.81595
1.3552483,93.36794
1.2596425,92.36554
1.218449,89.77579
1.1740173,96.59308
1.2146956,86.6657
1.1139123,90.10106
1.0425751,89.609695
1.0284126,89.99429
0.97986245,92.28858
0.94294435,89.84829
0.9177307,87.097885
0.9726078,90.67792
0.8131023,90.99317
0.8288341,88.97728
0.8252823,83.89076
0.80232525,81.649155
0.6940638,85.15979
0.788218,84.07393
0.7429975,81.71852
0.7938228,79.52799
0.7370482,86.140366
0.7068554,78.38492
0.7313834,85.21566
0.6646507,81.753654
0.7197457,85.61573
0.5804553,81.47536
0.7313642,83.93353
0.65762573,82.50214
0.56823957,84.54678
0.61879045,81.70461
0.5526092,82.187004
0.44755417,80.409645
0.5381247,77.85542
0.41376108,79.46437
0.38966447,81.51304
0.3148962,81.27293
0.35146326,81.895706
0.3240791,83.04096
0.277491,81.43209
0.29865867,78.54389
0.31856883,83.246544
0.32687053,81.31873
0.38835675,87.72091
0.39109796,86.094536
0.4867474,84.57679
0.5824644,83.10661
0.7054062,88.44808
0.74680704,84.82344
0.8044917,86.683655
0.91586196,89.38564
0.95927644,92.66791
1.0207597,91.59919
1.2156589,96.8256
1.1543607,90.933754
1.3076384,90.98542
1.3481916,96.94666
1.3289872,93.12815
1.429904,94.348274
1.4613332,99.961395
1.4966868,96.16917
1.4692029,94.00808
1.5359967,97.24674
1.6134561,100.76869
1.6144888,99.398476
1.5755049,99.09462
1.6829153,101.53851
1.6209695,103.55965
1.5196912,104.344925
1.6416991,100.299934
1.6455522,97.48395
1.5797701,100.927666
1.5026972,100.56288
1.618823,100.969635
1.5142503,100.119606
1.4061717,103.66675
1.4428325,96.42576
1.4571762,100.216484
1.3858145,100.858574
1.3209802,102.1556
1.3630344,100.82299
1.3084427,104.653915
1.2960752,95.731155
1.2123389,101.450745
1.1218511,102.00513
1.1453028,95.708244
1.1778798,93.62571
1.1527328,99.03978
1.1358703,93.356026
1.1405841,95.694565
1.0523189,96.6352
1.0797981,95.313545
1.1411729,98.20595
0.9622383,92.45011
1.0425366,93.74219
1.0569832,97.19688
0.97860867,92.78259
0.9543819,88.47875
0.8979263,89.887794
0.9022889,93.40538
0.88667315,90.714485
0.813677,86.94106
0.8530633,93.495834
0.7221001,92.061516
0.69004154,90.94417
0.6769541,87.86812
0.6649797,86.33155
0.5186809,88.38359
0.60663587,85.571335
0.54801875,86.22575
0.46084046,89.65227
0.48834118,82.9081
0.4379109,82.11056
0.4058284,87.5214
0.4329817,83.222595
0.4500162,84.75774
0.43248773,83.97013
0.4384285,80.64196
0.39627096,79.673935
0.38955155,81.637375
0.38324806,83.225365
0.3567808,81.24306
0.3753258,79.223465
0.41956347,81.43687
0.36818445,79.25866
0.33893114,81.26699
0.31110162,81.40919
0.23058851,77.171486
0.1157013,83.01693
0.11126521,80.860245
0.09770634,79.66646
0.083398394,79.86961
0.050356455,77.45027
-0.0028562022,83.027695
-0.01719096,80.14005
0.012626189,78.5517
0.001711671,84.419525
-0.017007124,80.38863
0.101280876,85.97034
0.07729725,78.8542
0.07006916,85.68577
0.1937638,84.69961
0.2181619,85.3688
0.3173798,86.0457
0.46144518,85.02349
0.5447055,87.173615
0.59896046,88.03795
0.65371495,88.76133
0.7735457,93.47294
0.8260419,96.09885
0.8769233,91.7077
0.99315786,91.392876
1.0739614,94.35561
1.0341895,95.39577
1.1574329,95.47335
1.1809607,100.236824
1.2851228,96.53509
1.3072462,103.6161
1.3309063,103.98772
1.3430762,100.76762
1.2829144,96.872795
1.375831,100.790184
1.3073187,99.84672
1.3190308,101.88881
1.4067161,100.01512
1.3594872,102.88256
1.289354,101.04276
1.3251889,103.0597
1.3126813,102.196724
1.2919286,98.49896
1.3012637,101.844536
1.2758871,99.92102
1.2175356,105.20787
1.2157248,98.90032
1.171218,99.857796
1.1125578,98.93448
1.1620426,101.80344
1.0799965,99.9181
1.0544226,105.154884
1.0763595,101.64405
1.0406044,95.860405
0.94862545,97.8726
0.9436424,97.663925
1.0134361,90.569534
0.9556251,97.89846
0.95691097,93.424194
0.9631506,95.88911
0.8811697,93.73386
0.88145417,94.76399
0.90683705,95.99429
0.93087155,92.54781
0.88509613,97.04028
0.7991244,91.25066
0.8857352,91.563545
0.7975679,90.25039
0.83017987,92.505356
0.717015,89.0933
0.8124981,90.64133
0.7014384,88.57239
0.6315639,87.303055
0.5997268,90.54868
0.63287914,87.37874
0.61472434,86.26303
0.54704124,87.7397
0.47076908,90.88033
0.45283893,87.52106
0.48682633,84.64388
0.40265405,82.61896
0.3367756,78.96726
0.4331865,88.35084
0.44014826,92.39445
0.35608405,80.119095
0.35023728,86.98803
0.40624815,84.27325
0.31729472,80.741394
0.304939,81.68287
0.30358812,82.94419
0.36935323,85.625336
0.37495527,79.41358
0.32696214,80.95161
0.2977534,84.28007
0.21293278,82.258224
0.1508574,84.08184
0.20305277,77.058754
0.25187966,82.57897
0.2552326,75.72349
0.09192994,80.56275
0.09014906,81.19795
0.06842499,77.77832
0.010001057,83.90744
0.019337084,81.009705
0.06554906,85.21648
-0.053286493,84.408295
-0.0058545335,82.38726
0.16567501,81.5988
0.027046638,78.252594
0.16249134,84.189026
0.22753301,86.59172
0.25768667,84.09581
0.41222262,87.83685
0.5158066,86.191795
0.46533284,89.21145
0.6654856,88.083755
0.71499616,92.92755
0.8550622,88.15469
0.84359366,87.26541
1.0325034,92.53134
1.1208436,90.072014
1.1782632,92.518
1.2104291,93.25621
1.3418404,95.8705
1.3530291,96.71841
1.4131372,95.5088
1.4227437,96.0355
1.4229133,97.97012
1.4393927,94.5461
1.4639627,100.37516
1.5357947,98.473404
1.4925201,96.78476
1.5187012,100.53722
1.5016519,99.82079
1.5476848,100.10054
1.5020126,100.42304
1.534321,99.93082
1.3458238,103.78501
1.5126032,97.614655
1.4722415,103.1877
1.4442984,99.145065
1.3760698,100.584526
1.46798,99.62976
1.3697017,96.85805
1.4456652,101.910576
1.3548963,96.22931
1.3157247,100.313896
1.3024693,97.7672
1.2709802,101.707214
1.1493644,100.19776
1.1853598,91.85983
1.1672378,98.25475
1.2248099,96.90317
1.0986953,97.035416
1.1655183,93.47867
1.0999545,94.001495
1.1328173,91.51396
1.1403488,93.11209
1.1100487,91.40218
1.1436247,92.01888
1.1259906,93.749275
1.0905235,90.504364
1.1964463,92.308105
1.1448202,90.41473
1.0532156,94.3901
1.0288713,88.69547
0.9976396,91.616615
0.9145894,91.36787
0.94968253,92.16879
0.88291425,89.15534
0.880387,91.32284
0.7866047,86.27726
0.7481797,86.91186
0.80300695,87.20559
0.76133126,91.22
0.7129082,83.79114
0.6241448,85.058495
0.7010897,85.05337
0.61267066,81.856384
0.60724115,88.40023
0.6574365,82.87474
0.6274874,82.36665
0.6568739,85.70134
0.6636915,79.2405
0.59821033,84.7526
0.61035675,85.66678
0.6655681,77.56165
0.5735898,82.77941
0.62452906,77.472496
0.5452284,79.93437
0.5835693,79.69545
0.44490263,79.87413
0.463364,79.39402
0.4637116,77.74189
0.43149352,80.758766
0.4032636,78.659035
0.39983153,78.70182
0.4287232,83.952484
0.34186208,77.0553
0.27634308,81.19871
0.33612126,79.047356
0.3919894,85.05754
0.33004206,80.33946
0.37120557,83.93223
0.40948144,84.74175
0.5184582,83.45171
0.58337545,83.9447
0.654892,82.649704
0.69348204,85.25619
0.76647115,81.362206
0.83736366,87.615204
1.0420133,86.64092
1.0768282,89.411095
1.1435469,91.76706
1.2351577,92.01744
1.2109517,93.737686
1.4471666,89.241
1.4206601,92.895065
1.5671184,96.441475
1.632286,99.20703
1.6675094,94.69294
1.7080342,97.85885
1.7159165,97.36291
1.6846961,98.6633
1.728426,99.73349
1.7700654,97.43951
1.7953458,99.35882
1.841022,97.036674
1.8431016,96.22848
1.7751539,100.41864
1.8238183,95.76484
1.8033943,102.76682
1.8616571,101.58601
1.8309987,101.504524
1.8235079,101.3777
1.7724235,100.10374
1.7277362,100.5403
1.7739855,98.7185
1.7316616,102.88613
1.705773,98.89053
1.6919458,96.20174
1.6345743,98.59291
1.5993179,103.346306
1.6637522,97.03508
1.5864996,99.77551
1.5852624,99.336586
1.5549881,101.27591
1.4611237,94.33581
1.5039253,93.53301
1.5029808,93.88581
1.4855081,99.41388
1.4966335,95.01245
1.431547,94.407104
1.4551874,97.02817
1.4645741,93.032104
1.4744846,92.609856
1.4502944,95.33012
1.41975,93.64876
1.4240509,93.04187
1.3326923,90.14883
1.4136896,90.22548
1.3316349,91.006294
1.3253202,89.0035
1.2821407,90.48923
1.2212847,90.8977
1.1924825,89.04949
1.213233,90.81802
1.1431997,84.87449
1.0712968,90.492256
1.0793996,90.12875
0.9535563,85.28756
1.021678,89.27797
0.997532,86.23344
0.94601375,85.24641
1.0132732,83.11117
1.0095129,80.92892
0.9014716,79.97076
0.989013,87.37022
0.97286576,83.444016
0.92554134,81.176674
0.86954266,81.73306
0.80830795,83.73581
0.93198836,81.484726
0.915576,77.84628
0.89084333,83.48686
0.8742817,80.65048
0.86253726,79.223206
0.7566384,84.436386
0.6754524,80.602516
0.7484522,76.70099
0.6969336,78.98909
0.6650232,80.6815
0.63825345,82.043884
0.589857,80.291664
0.50718695,82.26907
0.5754805,80.38804
0.51785755,82.60675
0.47757283,88.058525
0.57626116,83.985245
0.63319683,81.40819
0.6533633,81.38153
0.6261313,81.391014
0.70464885,80.931244
0.8390053,88.21399
0.879404,86.468575
0.9246418,83.933304
1.0241774,89.33343
1.1298947,83.7382
1.2627372,88.19757
1.2877642,92.73845
1.4945683,92.80101
1.4790837,89.19278
1.4657338,93.7145
1.5744152,91.088036
1.6506348,97.60808
1.7131784,98.207436
1.8045657,98.25565
1.8056588,92.711784
1.904632,94.150795
1.8327174,98.57879
1.9629033,96.033585
1.9823196,94.91131
1.9505179,97.656136
1.9487817,100.33118
1.9549586,104.35055
1.8386096,100.953
1.9764956,101.32087
1.9158578,98.9212
2.012817,100.60048
1.8225408,105.257225
1.8859296,109.800125
1.8858865,104.16153
1.7909727,100.98391
1.8596224,103.23599
1.7947819,101.072334
1.8349565,100.94224
1.779248,100.02901
1.7983106,97.77958
1.6955369,101.56206
1.7268376,97.05367
1.5669641,100.98454
1.5806525,101.92089
1.5624081,101.143654
1.4910482,97.84651
1.4494987,100.2095
1.5054827,95.03443
1.4794365,99.16332
1.4690623,97.65246
1.5511713,96.25106
1.4216385,95.44557
1.3985969,94.3335
1.4352529,92.21624
1.400905,95.574844
1.3487214,95.06815
1.3676885,93.951996
1.2658774,90.947365
1.3319285,95.14552
1.3526027,92.5356
1.1653159,88.573944
1.2087461,95.35973
1.1221792,91.02798
1.0969989,91.69314
1.1456777,87.07412
1.0555263,85.709854
1.0373183,84.552444
0.8938083,84.73485
0.9513871,92.39594
0.96669644,88.95229
0.8948352,82.845924
0.9885747,88.21003
0.8100351,88.71154
0.93125,84.59137
0.84513265,84.1289
0.7875395,83.43344
0.8479752,83.6409
0.86960346,80.70054
0.7962119,80.49
0.7659662,81.04872
0.869872,79.483635
0.7791531,80.09185
0.6634877,80.861916
0.7570081,81.60528
0.71916294,79.88122
0.6566419,81.66172
0.54917836,82.390396
0.6432788,80.984314
0.5532121,76.48626
0.4494342,80.93199
0.55118704,83.91933
0.46670318,79.125755
0.36576226,79.08018
0.33027783,84.951546
0.4541953,81.07026
0.4253684,79.98891
0.44755107,79.96832
0.38529164,82.883644
0.38670027,79.99218
0.43991363,83.995964
0.45275316,82.28248
0.53119653,86.98683
0.7147228,88.16964
0.71291035,89.273735
0.7869553,88.48109
0.93000704,83.91628
0.95332694,88.90364
1.0370473,89.51018
1.1890746,94.2064
1.1779822,93.06109
1.3117645,95.026566
1.3048784,95.80166
1.4168384,92.52881
1.5152185,96.92329
1.5269706,96.22128
1.6141262,96.15892
1.5876424,99.10175
1.6161677,99.025604
1.60847,95.66693
1.624918,98.11964
1.7133456,99.02792
1.7389755,99.27875
1.6146038,98.32786
1.6723475,96.776634
1.7685827,102.48486
1.6725872,100.560974
1.6277441,102.04282
1.6914202,100.08171
1.5586791,96.92465
1.535352,98.24463
1.5242677,104.30184
1.5266861,101.64017
1.5175488,98.13701
1.457108,99.40173
1.4439499,99.51802
1.4381126,100.2916
1.3505372,101.97282
1.3799813,98.01444
1.3591533,102.664444
1.3041835,99.238434
1.3551794,100.888794
1.2684038,98.69766
1.2173158,97.06073
1.2949737,98.45436
1.1599121,95.834885
1.1478707,93.901184
1.1169971,95.648605
1.1562717,93.18754
1.1292179,93.346146
1.0988567,92.41509
1.0850848,93.17311
1.0905218,92.28132
1.0287831,92.64901
1.106451,93.7379
1.057621,91.31938
0.9646878,91.28923
1.0260359,96.353424
0.86417156,89.27623
0.9421624,84.39391
0.77986676,90.39734
0.7766504,86.71223
0.756728,86.6401
0.7069709,91.326584
0.68737465,86.70926
0.6294004,86.87725
0.6149752,86.8611
0.5230248,87.648445
0.52254325,83.2716
0.49826455,86.29874
0.44549057,82.288055
0.49238792,85.28961
0.42337063,82.568
0.41564783,83.83215
0.4947811,82.00847
0.46523437,82.59115
0.36754692,83.86071
0.4404623,83.922676
0.32872033,78.00191
0.44046083,81.92345
0.44622394,78.893074
0.35171655,83.63596
0.24542375,81.16379
0.3122828,79.8011
0.29713595,81.093544
0.3403498,76.14315
0.09668363,78.94407
0.20192814,77.835846
0.10056031,83.437325
0.09900933,81.258385
0.063237965,80.08212
0.01943023,83.99114
0.001957952,81.545204
-0.004020465,83.72171
0.10341447,84.131004
0.07496826,80.175186
0.16700052,86.89051
0.15285319,84.13615
0.3043672,85.69415
0.2896798,82.65155
0.4541569,88.1
0.5188895,85.936584
0.49051818,87.113594
0.6717714,84.64153
0.7977578,91.4476
0.72438836,91.53532
0.9611,90.04195
0.9674357,92.23551
1.0306904,87.541985
1.1205658,97.93789
1.1477091,90.95594
1.1735427,100.8407
1.2462184,98.20114
1.3426538,99.36558
1.3367964,97.48852
1.3016406,97.76007
1.4158026,99.21782
1.3313806,103.46561
1.3996997,99.74021
1.3394383,101.19138
1.4425952,101.341225
1.4733067,98.394135
1.3548882,99.20615
1.3579873,96.2525
1.3878994,98.70326
1.3516347,103.93779
1.337835,103.22058
1.3589475,98.825035
1.2690157,99.65473
1.2320493,100.72465
1.2755663,101.89888
1.2592355,99.2286
1.2001314,100.750435
1.1873057,98.06852
1.0909905,98.0876
1.1115447,100.486626
1.0888699,96.30593
0.9699733,97.11178
0.9865967,98.45247
0.897427,93.51759
1.0398859,97.50574
0.91730565,96.72074
0.96272886,94.94271
0.970252,91.30607
0.9057799,95.471535
0.9247746,94.86583
0.88554525,94.415
0.87804735,98.334595
0.87232924,92.731155
0.8078716,94.01274
0.7960555,90.673515
0.8586845,88.65164
0.72007465,90.13357
0.75617236,89.14923
0.7333811,86.38114
0.6944289,87.831406
0.609793,90.79671
0.6031541,91.03649
0.49474293,87.26107
0.4334643,90.350525
0.48135725,88.06161
0.48801178,88.34687
0.41265452,89.59988
0.3822311,84.54074
0.46773684,86.3777
0.34395808,88.82682
0.387583,82.840294
0.40487194,85.77651
0.37391448,82.5496
0.33356452,79.26234
0.395196,83.82102
0.37853125,77.38136
0.3458291,84.01685
0.38999248,80.51717
0.295915,84.29903
0.27375585,81.21557
0.21673734,84.36549
0.21867223,74.78039
0.24015291,79.39102
0.17191532,80.68554
0.13772455,77.77278
0.12443524,79.65799
0.09818363,83.277725
0.0035408204,79.29333
0.10770327,84.75461
0.015913358,80.97255
-0.020461569,78.0495
0.024614053,80.49714
-0.07462452,81.910255
-0.020298827,84.2498
0.050093118,83.153275
0.053082168,82.225746
0.09733417,80.9327
0.17372087,80.07068
0.20585689,83.80501
0.21897592,90.0054
0.42428428,80.14041
0.41737354,88.20725
0.5654047,92.95246
0.57726854,90.238045
0.70000523,92.38709
0.78495264,91.226555
0.87382185,93.288795
1.0132772,92.16047
1.0495694,92.81137
1.0341411,93.58601
1.1404625,98.36348
1.207106,93.60866
1.3055493,98.00221
1.2817397,96.694885
1.3585964,101.80289
1.3440092,98.15762
1.351368,96.71713
1.4474589,96.6285
1.4330628,100.41928
1.435835,103.57914
1.4529663,102.34655
1.4726903,97.49123
1.4304365,100.86018
1.4645784,99.69358
1.4173089,96.22648
1.3637152,104.137794
1.4558959,100.31309
1.4280293,99.751755
1.3778374,100.86953
1.3706092,98.519646
1.3391353,103.562744
1.2749385,97.825615
1.2983514,96.04856
1.2496551,100.05292
1.1602126,94.22276
1.2270203,100.46779
1.1573887,94.41823
1.2148484,95.27554
1.1148181,96.64382
1.0897874,96.545555
1.092297,96.26771
1.123795,101.19678
1.047625,101.5566
1.0312983,95.53773
1.1337719,91.25391
1.0771217,92.11399
1.094338,93.98925
0.98478013,93.22521
1.0382288,88.54005
0.98309976,92.35886
1.0095447,90.78352
1.0171977,93.13271
0.92522264,93.41858
0.9110123,93.883575
0.91320425,91.7967
0.9405037,93.096
0.8238483,89.44888
0.84429514,89.86455
0.78176063,89.63552
0.7865858,90.10185
0.61527854,85.27743
0.6578806,86.85373
0.64741886,86.44731
0.5620685,84.77942
0.63562495,83.89903
0.6143921,86.477806
0.50471437,85.18526
0.5867204,87.976166
0.5233845,88.7614
0.51037824,83.89898
0.63826233,82.29304
0.58539253,84.56065
0.60658544,82.92881
0.5984122,81.26895
0.60011,82.43541
0.6224811,86.30985
0.5171505,80.26424
0.549723,80.96311
0.43147317,76.81791
0.47730207,80.658615
0.43769643,80.881325
0.49414307,83.94499
0.30210218,77.05953
0.38611066,80.065704
0.3747591,78.8124
0.30151057,79.636284
0.26849973,78.173164
0.29539874,81.89227
0.23279607,86.23401
0.23065794,81.93939
0.27618447,84.21553
0.34196472,80.7448
0.39147505,81.446884
0.360071,89.54319
0.5138505,86.44281
0.5776512,84.47339
0.63788605,88.73947
0.70775837,85.89936
0.8678814,88.25162
0.9332456,90.81431
1.0516572,86.28587
1.1600782,88.29086
1.1980815,94.06954
1.2593211,86.75218
1.3171614,93.569435
1.4179037,94.97548
1.5697947,93.17083
1.5739837,98.48023
1.6437742,96.86978
1.6579909,98.43896
1.6994693,96.79224
1.7835761,97.19775
1.6452504,102.49459
1.7597085,95.90609
1.7826924,98.52415
1.8101735,100.81582
1.7044394,98.021164
1.8047382,101.10526
1.7961882,101.04258
1.836032,100.84851
1.7995164,98.98922
1.7917893,109.628944
1.8467351,100.418465
1.7873268,102.38444
1.7100879,99.76206
1.7381786,101.09794
1.7904378,101.211655
1.6260904,102.35471
1.6044914,101.67239
1.6946758,99.956154
1.580249,96.60506
1.5824156,94.03044
1.4499173,97.69891
1.4932708,95.17693
1.5659324,96.87186
1.5285316,96.06848
1.3874066,99.828705
1.4807576,92.0291
1.3270285,96.0369
1.3611978,93.52638
1.509967,96.98642
1.4496526,93.21921
1.4224186,90.417435
1.4705594,95.93319
1.4255038,93.43708
1.2547737,89.439415
1.3171889,90.96628
1.3314104,92.916595
1.2598445,91.342354
1.3191919,94.77836
1.2202922,87.689354
1.2520151,86.691895
1.1909993,89.67061
1.1540339,90.1811
1.1068776,88.45581
1.1097628,92.313354
1.0597866,90.52226
0.9492115,87.6393
0.9854969,90.49562
1.0370653,89.63248
0.909166,84.1081
0.82857454,84.92727
0.8935478,81.920395
0.85092705,83.17037
0.8398566,83.53765
0.92937994,84.50166
0.981716,86.30159
0.8963238,82.858444
0.8406497,83.11443
0.8417439,81.75229
0.9382606,79.61492
0.8951457,80.48528
0.83192956,82.01232
0.85067034,81.70949
0.8782026,80.09559
0.765948,80.03784
0.79241586,81.52058
0.69526505,75.4745
0.6948218,80.960884
0.6399807,79.23543
0.5753908,78.154976
0.5358952,77.25641
0.5829138,79.83248
0.45970395,82.33392
0.53633416,82.717354
0.58992237,86.1325
0.52577776,81.987686
0.62358093,86.795784
0.640859,80.07916
0.63201535,82.887985
0.67357373,81.69654
0.82202256,85.95089
0.81923217,85.598145
0.95780593,86.23051
1.0247579,84.435585
1.1902964,91.322296
1.2003969,90.06668
1.3469685,86.56276
1.3391707,90.626595
1.509854,94.10366
1.5484601,94.784706
1.6600187,95.82605
1.6808187,96.3404
1.7483661,96.50671
1.8043956,92.84073
1.8424798,95.75017
1.879106,97.23334
1.969561,99.22196
1.9377542,99.768
2.0228317,97.8178
1.9807551,96.74823
1.9285178,99.52098
1.9873917,101.38028
1.9830428,99.903786
1.9091744,99.58702
1.9509751,102.941505
1.9960696,98.36327
1.9150591,102.333244
1.9193964,98.45796
1.9015667,99.974556
1.8776717,104.06851
1.8252076,98.60662
1.7825462,103.27573
1.7383255,98.89779
1.7617035,100.61915
1.7218647,102.107445
1.7176445,99.9483
1.632716,99.32727
1.644018,96.4261
1.6968263,97.65118
1.6294327,100.16209
1.6475368,91.62636
1.5597329,95.24481
1.5140603,98.19359
1.5119051,95.26568
1.5583719,96.23438
1.4853026,94.71314
1.4623435,92.10779
1.4512595,91.13294
1.4301809,89.38024
1.4282956,91.16362
1.4417841,92.06767
1.387533,91.51215
1.3761514,91.220314
1.3741981,94.033
1.3398436,92.13568
1.2727395,88.76639
1.3217,90.66134
1.1396149,91.84441
1.1787286,91.64823
1.1421055,91.526794
1.0446916,86.849205
1.0062902,87.23928
0.97008306,84.84186
0.9459143,83.15291
0.8769099,86.50677
0.82839245,89.22341
0.87534285,85.999565
0.8475086,87.711754
0.92256284,84.940636
1.0181714,82.11207
0.8727003,87.637825
0.8515087,81.44605
0.8210808,83.178925
0.8639416,81.77609
0.808218,83.776695
0.8009036,79.31242
0.85992074,83.47834
0.7490536,79.205055
0.8097974,81.808815
0.7699535,80.09613
0.7113421,79.4789
0.6915312,76.418915
0.60688734,80.935356
0.61999995,78.43693
0.5358187,82.89317
0.500915,80.46928
0.41374388,82.61924
0.46461585,77.772575
0.48231727,83.14998
0.40518862,82.532684
0.486065,85.99334
0.47696123,84.38265
0.4625486,82.32603
0.4580232,84.83561
0.62882584,84.84908
0.61817396,84.09235
0.7092431,83.134056
0.71386683,83.5547
0.83555925,87.56634
0.8722999,91.58348
0.9479134,88.81166
1.0338252,90.95495
1.1990322,91.88193
1.2100382,83.44557
1.3172857,93.74154
1.4091449,90.52973
1.4171729,96.42629
1.5682652,92.40147
1.5338236,93.77088
1.5571111,92.63794
1.6208233,93.90683
1.7416759,95.19883
1.660937,93.99326
1.709245,100.916954
1.6788257,98.26533
1.8386875,92.94903
1.7622646,100.472275
1.7947384,99.1398
1.7403479,107.79121
1.6753187,100.799736
1.7965875,102.9536
1.7055159,101.5516
1.7846658,100.016785
1.7315247,106.107925
1.6815307,103.83288
1.6750071,101.02137
1.6502529,99.0276
1.520572,102.2566
1.4773798,104.138054
1.5361233,101.57215
1.4736292,103.122314
1.5157217,102.48082
1.419486,98.52206
1.4268929,95.583206
1.308586,95.625786
1.3740386,97.70388
1.3329636,97.7415
1.238312,102.45649
1.2102603,101.891975
1.2738965,94.169815
1.1750872,96.21283
1.2734202,92.39368
1.205359,94.4598
1.1530732,93.497505
1.2280375,93.77986
1.1553103,91.943115
1.12596,96.65384
1.1600267,96.27616
1.1506041,92.89076
1.0038924,93.953674
1.0466564,88.36198
1.021375,91.689705
1.0188847,85.87479
0.86818475,89.03169
0.93986195,89.20189
0.78702116,90.751884
0.8246117,86.52045
0.80121416,86.23641
0.6580431,83.02848
0.6806474,84.86177
0.61971533,87.29574
0.5571446,89.30183
0.5468869,83.415054
0.5669417,82.069534
0.41051763,81.45985
0.5008436,78.226295
0.5462275,82.95325
0.5540608,85.243835
0.5388707,85.78857
0.53054416,79.476234
0.45152095,81.44502
0.59603727,81.70902
0.42981395,80.11298
0.4287458,80.34955
0.521523,85.479805
0.34302488,85.510605
0.35708725,82.965225
0.3670207,78.299934
0.3066146,82.47987
0.30802676,81.456985
0.14120615,81.92783
0.32138962,77.118286
0.1321382,83.2816
0.13460846,78.62142
0.0054195505,83.251495
0.13438906,82.49743
0.08553413,84.1023
0.102942064,82.71196
0.14125036,86.03516
0.16185172,82.60076
0.28208068,84.6614
0.1266166,85.7675
0.30338883,85.16453
0.3427216,88.10458
0.48212403,91.537155
0.5970608,85.56325
0.6248879,84.682915
0.7128658,93.94312
0.74088407,87.322395
0.8436764,91.500755
1.0445074,89.0477
1.0500491,92.68765
1.1967725,90.658646
1.169431,92.2602
1.2687651,97.735504
1.2093849,101.03622
1.2704973,95.42933
1.2627462,99.74651
1.2816104,96.023285
1.4045819,102.06321
1.3896278,98.53994
1.5623025,99.0278
1.429373,101.36841
1.4408094,99.26199
1.4290451,98.944
1.4279293,101.722626
1.4341203,100.964584
1.4799556,99.73398
1.4540915,99.73789
1.4115448,104.383995
1.2888188,100.47247
1.2552148,95.20316
1.2949755,101.399956
1.2351217,103.534386
1.2265894,99.12485
1.2267009,101.09935
1.1240665,97.395096
1.1465775,95.035
1.0924989,100.66079
1.0475214,99.92192
0.99960494,96.54062
1.0130813,102.18056
1.081944,91.81395
1.0130237,100.32414
0.9477442,97.37369
1.0328013,97.905914
0.88663155,96.799866
0.8867096,96.3333
0.95950806,91.1834
0.91676813,90.88801
0.8392774,91.96652
0.90947485,97.942245
0.8298844,91.69611
0.95066303,92.88517
0.859459,92.28154
0.760626,93.04624
0.8784404,94.372025
0.79595053,88.56262
0.67490494,90.98996
0.7737625,86.27804
0.69115233,87.267624
0.5755963,90.14765
0.5228962,87.423996
0.5008842,85.1816
0.45698228,87.00021
0.48312134,84.34225
0.35471845,83.575325
0.30226815,91.509995
0.3186765,87.79349
0.36995572,85.86647
0.28406006,85.25369
0.32791218,87.89228
0.31336197,80.71004
0.36794618,82.9492
0.37732998,81.9493
0.2775727,81.32717
0.31169477,80.24315
0.3538896,83.3735
0.35010627,81.476234
0.2627284,81.19384
0.24084142,81.8013
0.14294675,82.514496
0.16609453,85.55277
0.22353826,78.04984
0.123477824,80.56344
0.15323877,80.21242
0.048492644,82.39523
0.06601058,79.16358
0.007543836,79.783035
-0.016180469,81.662994
-0.08965427,84.19934
-0.122085765,84.65611
-0.09942844,82.34066
-0.0355316,85.39672
-0.016418057,80.45271
0.061755963,86.0719
0.10292114,82.70501
0.06256806,85.7503
0.18574469,83.9432
0.21626279,91.17487
0.3338158,87.994415
0.45296347,86.08094
0.45030203,87.969406
0.5476776,91.72682
0.6672855,90.47914
0.79925895,94.55597
0.83171225,91.10898
0.9203334,93.20952
0.95416754,95.132576
1.0390232,93.84781
1.1950555,94.07521
1.1547291,92.53222
1.2417763,98.09267
1.3011941,92.73626
1.3518552,99.93943
1.2953727,98.811165
1.3778875,100.39351
1.3655604,98.416145
1.3670205,95.87142
1.4408469,99.583466
1.3793814,100.91788
1.4373736,101.04359
1.5050162,101.932465
1.4052685,99.128975
1.4311609,103.19021
1.3498294,101.04555
1.4037092,99.293625
1.3081166,99.488655
1.2983173,100.262695
1.2612437,98.852974
1.2732917,102.67726
1.3365782,98.79949
1.2102352,100.65008
1.2407498,97.09565
1.1133331,96.293144
1.1493258,99.59172
1.1734614,97.79439
1.0122669,102.54185
1.0715153,93.83588
1.0549561,100.034
1.006708,97.5576
1.0347209,98.87131
1.089325,94.19742
1.009223,87.311676
0.95774466,93.38035
0.88934416,96.88176
1.0204902,92.64437
1.0742991,94.02115
0.9558787,93.13301
0.8614647,91.91087
0.9753955,90.914345
0.9312701,88.78803
0.965225,87.96592
0.9042484,86.8594
0.8165532,87.73117
0.76573926,91.59051
0.75341153,91.35238
0.8200481,88.8141
0.7908908,86.963486
0.63512206,85.75664
0.6668109,85.15109
0.66264623,84.568306
0.6003976,84.49687
0.5967838,85.08884
0.52779084,83.42136
0.50275487,87.31003
0.4536274,84.293495
0.49753046,80.60164
0.58686715,80.10665
0.4925383,81.31596
0.4791707,85.553795
0.52091104,84.34666
0.5144986,82.61935
0.49849412,85.00198
0.47938114,84.98033
0.47024965,81.32572
0.5404041,77.75088
0.48554295,77.39166
0.47810036,79.053116
0.42781174,77.29072
0.41715705,83.8966
0.29206258,77.76884
0.3367429,77.6962
0.34223184,81.069626
0.17170899,82.6708
0.281348,81.11882
0.23604015,81.106316
0.17653298,80.47415
0.21843114,82.36053
0.28129154,80.18905
0.2145378,83.94595
0.3026606,82.33043
0.29632014,82.62454
0.33616123,85.43864
0.44103193,81.70835
0.4668948,86.043205
0.5680923,83.05771
0.6015247,86.49494
0.750395,91.95465
0.82844394,88.576256
0.89908755,86.302826
1.0258777,90.537605
1.1360868,90.711365
1.2756727,96.89048
1.2447768,94.47753
1.3482873,96.16672
1.4474553,99.420074
1.4228772,94.41357
1.5204232,93.58084
1.5676715,99.67825
1.5987707,99.80793
1.6498531,102.88128
1.644859,94.28204
1.6845769,99.94964
1.6450701,103.086044
1.7108976,97.55638
1.6971099,102.85723
1.7240483,102.02829
1.6852057,98.31151
1.6868981,103.60522
1.7124491,99.35006
1.7127088,98.78057
1.7075444,101.15167
1.6261486,99.17336
1.5703169,97.72241
1.5703382,100.5383
1.62572,99.34245
1.6359094,101.69697
1.5933096,97.33271
1.5621798,100.59271
1.5349188,96.81176
1.5693785,97.19173
1.4494926,102.500084
1.42494,99.719475
1.41332,98.17713
1.4166312,97.603165
1.3313153,103.11798
1.3905052,96.8551
1.3813758,93.724556
1.290917,93.82402
1.3755156,94.970695
1.3640691,95.93064
1.3103577,91.21482
1.3433758,89.43321
1.3506985,92.98243
1.3515682,89.7824
1.3073069,90.40396
1.2642491,88.329605
1.2131804,90.95161
1.18481,91.164665
1.1541293,87.07499
1.1624082,89.57983
1.0839425,93.60068
1.1114167,89.1353
1.029244,86.77092
1.000143,92.03329
1.0793943,86.89021
0.90289086,87.326225
0.913382,87.760864
0.86302274,82.384315
0.92395073,86.34239
0.9360442,87.59454
0.8172734,83.319756
0.8560223,80.16479
0.8320394,84.60664
0.8528387,87.28831
0.86692894,77.83646
0.73421615,81.31272
0.9353026,77.7652
0.8689229,80.79844
0.7653162,80.255424
0.7720572,81.11966
0.8565184,78.19305
0.7677393,80.18931
0.840814,77.37682
0.68703693,83.74196
0.54789823,78.25251
0.63462967,78.21283
0.61217785,76.80025
0.48277235,80.654854
0.57904446,80.61081
0.5281274,79.13844
0.5037152,81.111946
0.5419874,81.646515
0.527422,80.727104
0.58843917,85.15646
0.5064043,83.1527
0.6570996,82.05893
0.6203965,87.40075
0.7279602,85.98378
0.71079755,84.47637
0.7738232,85.66797
0.90391606,85.90599
0.9565681,89.94576
1.045667,91.070206
1.1527851,90.263214
1.230011,90.866
1.3076419,91.908676
1.3720735,91.640465
1.4696969,91.734085
1.6450878,90.58248
1.6069282,93.415276
1.69755,90.98174
1.7986997,94.169044
1.80916,94.47919
1.7961023,99.8086
1.883109,96.78179
1.915003,100.37376
1.8452567,99.1916
1.9923129,98.28669
1.9094788,102.33322
2.0074837,100.382355
1.932411,101.55805
1.9625031,99.124954
2.0113618,95.69719
1.9240165,102.94152
1.9083947,95.06229
1.9441568,102.5806
1.883704,102.95186
1.9695388,100.160545
1.9679787,103.38396
1.7922312,98.75522
1.8071568,100.14356
1.824889,95.25242
1.8209457,94.57127
1.7479739,99.30848
1.7427516,99.70777
1.5579697,100.70945
1.632398,95.17264
1.6236935,98.54325
1.6128467,99.45204
1.5226288,101.52525
1.5693556,98.58625
1.4626427,96.92516
1.5211556,94.87899
1.5481813,95.51567
1.5265979,93.43009
1.5139941,95.35459
1.3786062,95.218666
1.4389292,95.037346
1.4926786,92.04714
1.4608499,95.30905
1.4161264,96.22417
1.3727497,92.62454
1.4556899,95.91985
1.3299954,91.73647
1.3068022,89.59191
1.3229784,88.6304
1.2561349,88.831825
1.218548,87.74093
1.1994288,86.10321
1.1614889,85.71037
1.1065946,84.87048
0.99668217,84.306946
0.9143992,85.94184
0.98445904,86.21981
1.0785178,87.01591
0.9129626,85.05795
0.9311448,83.47964
0.9216195,87.85896
0.97494125,83.35061
0.8894923,82.67593
0.93408865,84.8449
0.894242,84.28313
0.84219253,80.34289
0.896086,82.16028
0.8923927,81.30763
0.8035824,81.73338
0.94136643,76.921745
0.77600926,84.53694
0.7386772,83.93293
0.8078696,82.055275
0.7209219,77.16655
0.7202558,81.69271
0.63046515,84.02861
0.6469892,77.97703
0.64578456,81.948715
0.41285518,81.06975
0.46094573,79.45472
0.54156274,83.10235
0.5014705,79.41557
0.4491215,79.096306
0.5489976,80.00887
0.5769127,80.83825
0.62600076,85.695404
0.58570087,85.57691
0.6258661,85.24429
0.77537763,84.93963
0.814246,83.08968
0.8819323,87.712326
0.9685507,88.50118
1.0279136,88.18438
1.1417676,91.25633
1.226714,89.0573
1.2633399,95.808266
1.3519278,88.47563
1.4666464,90.726616
1.6126968,96.67271
1.5696135,98.15195
1.6767243,92.71335
1.5932926,94.782684
1.7330887,96.93584
1.7445918,96.9397
1.649922,100.17381
1.808421,99.08291
1.7504401,97.07122
1.7792989,99.56676
1.8526037,97.200615
1.7581885,96.92462
1.7681943,100.110405
1.7872924,100.85652
1.7163886,100.61874
1.8321347,102.08661
1.7938883,103.05503
1.7149068,103.57864
1.7358887,100.111885
1.6672606,98.75981
1.6165962,98.99408
1.6099494,103.030304
1.6256729,99.563545
1.6424392,96.504425
1.5966642,101.16173
1.4895282,101.70976
1.4923675,102.49127
1.4592531,97.756676
1.4825237,98.83885
1.3992769,97.472435
1.3325742,101.25551
1.440882,94.113106
1.3328202,95.74027
1.3565671,97.60639
1.3022867,93.710236
1.3180301,96.88875
1.271342,94.247055
1.1939293,94.006645
1.3209021,101.33834
1.324371,94.14469
1.212012,96.832115
1.1765677,91.34136
1.2118249,87.66984
1.2071456,93.88357
1.0990638,90.126236
1.0701733,93.21326
1.0376656,90.27181
0.93581456,91.87724
0.9197244,88.42595
0.8669668,90.76644
0.8197298,88.673805
0.7563393,89.13152
0.7514306,90.885544
0.7594912,88.14755
0.7154034,83.32402
0.62620884,86.51613
0.637426,89.71434
0.7129027,82.7421
0.54445773,86.062004
0.69187427,84.95208
0.5919426,80.07548
0.6949399,80.304146
0.5888468,84.78556
0.5450099,82.7313
0.6188765,82.12486
0.60285676,80.06694
0.55518705,81.046684
0.5500702,81.25716
0.52170306,81.0895
0.49138916,81.41168
0.44588658,78.14573
0.34456104,80.83742
0.38666022,83.09284
0.38380963,78.871796
0.23901787,80.69738
0.16845466,79.4005
0.18175712,81.11357
0.17810284,79.04722
0.20402315,82.01542
0.15574107,82.0122
0.16953905,80.90453
0.17617877,85.82365
0.20607875,85.06774
0.21225673,82.309456
0.27283892,87.45639
0.20572858,84.18731
0.41302946,85.240524
0.38360375,87.01416
0.45197323,81.75592
0.6430396,84.0486
0.68739754,90.744896
0.73683596,90.32401
0.83037484,87.91366
1.0069531,91.65012
1.0750093,94.40481
1.1589233,92.88644
1.2134566,95.42181
1.235523,97.31685
1.2875205,97.34221
1.3752972,99.55138
1.4300916,97.72361
1.437306,97.933205
1.3322474,99.41757
1.475709,91.262314
1.4014715,95.845436
1.5059006,102.46471
1.411677,100.67359
1.4602382,98.49782
1.4394459,99.46893
1.4870558,100.344925
1.3682371,98.3305
1.4928405,104.52128
1.4347981,99.968735
1.4583746,104.248024
1.4334278,101.19131
1.4306048,100.264435
1.3434474,98.72904
1.2397536,103.66858
1.2713473,98.6826
1.3046622,101.879745
1.2536007,97.27058
1.1526729,99.97129
1.1424881,95.60147
1.1845567,98.28033
1.1014403,98.682335
1.0593053,95.51757
1.03542,96.1516
0.94396794,98.470245
1.0334535,98.084274
1.0322434,97.310974
1.0152311,94.968506
0.8908479,94.90148
0.9211878,98.47363
0.9837888,92.50647
0.94022065,94.87013
0.9990227,91.63923
0.9461551,97.51615
0.92147934,94.22206
0.80982715,90.490456
0.8466708,90.0385
0.8832524,92.318596
0.86944735,89.98515
0.8074614,93.20771
0.6473706,88.75347
0.65913975,88.557106
0.5977376,89.79738
0.6378751,85.39588
0.48294142,87.191315
0.5432867,89.84364
0.48769346,88.77925
0.38363293,84.99324
0.3760706,83.46834
0.34104937,84.21968
0.35466054,84.95412
0.3820174,87.043846
0.37520415,76.2275
0.36957577,81.482315
0.2919157,82.13712
0.3040035,82.109825
0.26270118,81.59111
0.3291601,79.85825
0.25924042,81.18939
0.2862555,81.61631
0.34905353,83.87311
0.26955122,83.60463
0.2955866,85.28936
0.1910621,80.040375
0.096017025,81.46056
0.15634406,76.00441
0.13046734,77.12521
0.017113272,82.16579
0.05721405,77.13397
-0.033595886,81.19081
0.041373406,76.345985
0.001658065,77.03951
0.10371114,83.90843
-0.07516586,79.93097
0.0024095038,79.79976
0.10705445,83.95038
0.016225947,82.00257
0.07323336,79.991776
0.08939376,82.738235
0.17772444,88.64902
0.29300538,92.22838
0.2847965,79.81589
0.38874587,86.067894
0.51364106,86.456474
0.65031695,86.77711
0.70590234,88.43691
0.7408073,89.318726
0.878335,90.16753
0.9818777,90.10765
1.0264688,89.93976
1.0391829,92.75871
1.0429529,91.317795
1.2366893,94.01198
1.2636865,96.13834
1.2480239,97.90989
1.2842396,96.649506
1.3614265,95.44007
1.364294,99.23041
1.2828076,100.25318
1.3266648,98.63926
1.4513186,101.212906
1.3328091,103.12589
1.3416871,100.22477
1.3390231,102.229225
1.4603429,102.79208
1.4147002,97.94803
1.3456559,101.262245
1.3433422,100.65961
1.308212,99.35078
1.293852,102.46593
1.3062109,98.406876
1.2332848,100.85887
1.2274688,104.096985
1.1891195,99.16004
1.177426,97.71333
1.0717739,99.916985
1.1422231,98.608696
1.085044,96.863045
1.0276864,94.594055
1.0754651,96.57632
1.0444771,97.96439
0.9813926,99.003815
0.96123004,93.287735
1.0097207,95.997406
1.022585,101.79727
0.8905976,94.121155
0.9816405,93.6341
0.94828266,95.6504
0.9126467,93.525154
0.957607,90.937675
0.8939713,91.81853
0.83869374,92.130135
0.8635752,95.28847
0.8225479,93.26342
0.82831645,93.01962
0.77875626,86.47928
0.7501249,91.164215
0.7419094,87.89352
0.6499785,87.6317
0.6751865,88.60498
0.5933693,88.83543
0.5765763,82.68441
0.5348299,86.670525
0.5593466,87.52118
0.5365949,86.89114
0.5155836,85.4034
0.47089624,87.71654
0.4655498,84.63852
0.5222951,83.3217
0.29765108,82.02086
0.47835976,84.94383
0.42991126,81.424
0.44558394,78.39145
0.48434448,80.77925
0.4653204,81.89806
0.4575002,86.052414
0.36511475,83.39967
0.4122723,81.64588
0.3987127,78.40422
0.31295246,80.89952
0.40763405,77.81709
0.28315562,75.66437
0.23721826,81.1425
0.1996275,82.355156
0.25310627,81.14776
0.085753836,81.00323
0.12502874,76.75271
0.18258955,79.500694
0.16171072,81.806725
0.042957585,82.05702
0.18533187,77.7371
0.25540027,82.37597
0.19119787,85.67568
0.29223922,82.544785
0.3772975,83.40983
0.39699897,81.71568
0.46509668,86.659225
0.5358715,84.56435
0.712855,88.89757
0.6586115,86.65007
0.8348528,84.77758
0.8493421,89.962906
1.0729381,88.44796
1.1443275,88.73462
1.1858346,92.53616
1.1853627,94.22176
1.2408328,97.44979
1.3952212,99.49584
1.3884152,98.3925
1.4576695,93.95741
1.5007477,95.96273
1.57275,95.438446
1.4623384,97.57456
1.6494218,97.68764
1.5972477,94.73709
1.574113,98.73309
1.6576082,103.2838
1.6427976,99.79234
1.6897153,103.47092
1.6540582,100.19803
1.6698341,104.596115
1.6033348,99.719666
1.6753387,102.07388
1.5706402,100.38994
1.676527,101.922356
1.5610942,97.41513
1.5099962,100.25844
1.5172187,105.00836
1.5445176,99.72138
1.523965,97.418205
1.4145033,97.24085
1.400517,98.92411
1.361656,99.92971
1.410734,93.36112
1.355976,99.21902
1.3572857,96.37731
1.3546156,95.33175
1.3106439,98.23711
1.2831435,92.5321
1.2877656,99.32714
1.2307539,94.974365
1.2840408,94.51503
1.2802676,91.11229
1.2208388,89.492195
1.2669557,91.699455
1.2394058,96.57347
1.2192509,94.20508
1.2099041,91.28759
1.2317141,92.32851
1.1436347,87.10459
1.1385032,92.30516
1.1950883,89.90496
1.0785617,84.58628
1.0355728,89.939064
1.0235561,89.73284
0.8926634,87.74413
0.91097534,88.05568
0.8928162,87.05725
0.93039286,87.13508
0.89114827,89.28164
0.8969778,86.65909
0.7841731,82.04058
0.8544776,82.70113
0.84331286,82.38919
0.8030192,83.36097
0.7835718,85.60895
0.7429221,80.94429
0.8129255,79.66012
0.8098703,82.23858
0.80756927,82.09528
0.827428,81.71343
0.8098371,84.75001
0.6722993,81.97315
0.82920647,77.12178
0.705262,82.29629
0.6961157,80.38809
0.65528,84.12176
0.6679343,76.87029
0.6514525,80.29184
0.5680525,82.460396
0.5110367,80.71214
0.45074987,82.25854
0.49495885,81.15011
0.44937873,76.29236
0.3962708,84.29457
0.41602662,79.563385
0.38055772,80.93787
0.56450415,84.32116
0.51739025,88.52189
0.6055556,80.84367
0.5981787,81.743164
0.6936819,82.34252
0.8185394,83.10968
0.8097391,89.44404
0.940383,90.36765
0.9663095,87.10484
1.1105548,90.34377
1.2263129,88.73978
1.370367,92.54685
1.4240547,94.43873
1.5292898,87.80426
1.5233246,96.74801
1.5698515,91.65009
1.733169,91.7752
1.6697061,95.646355
1.7988279,97.45607
1.8297029,97.429
1.818116,96.43056
1.9240097,100.68096
1.8647578,98.34668
1.9136549,99.661
1.9572319,97.89893
1.9225606,98.20987
1.9887062,100.33339
1.9036514,105.624214
1.9802437,106.66821
1.9367709,100.64808
1.9053019,97.08798
1.9830425,101.52624
1.9586504,97.74368
1.9261544,99.36948
1.9041234,100.40501
1.81706,100.74643
1.8649865,104.59532
1.8430405,98.88338
1.7392907,102.08389
1.7816056,101.597946
1.6651051,101.24115
1.6564649,94.86823
1.5936878,97.18383
1.6573966,100.29991
1.5697612,94.447
1.5725101,98.910774
1.5309951,91.226074
1.5720446,96.089226
1.4986743,94.873085
1.4650567,96.74122
1.5498024,97.71845
1.4224769,92.67145
1.5224508,94.45653
1.4666904,98.26934
1.4627225,92.65978
1.4050905,91.12139
1.4610809,93.040405
1.3498119,88.42611
1.3720107,92.696785
1.3513885,93.79268
1.36003,90.71199
1.2983288,88.96719
1.2622172,88.12275
1.1265829,89.43587
1.1264379,89.34964
1.1035093,90.06177
1.1024151,90.67919
1.0630312,84.29483
0.9897049,87.85829
0.9363744,89.035034
0.91093063,85.237465
0.9811045,87.49578
0.90911275,82.21944
0.8622847,84.719765
0.8208587,79.060036
0.92601544,87.08237
0.97605544,87.00877
0.9309038,81.695435
0.9042559,78.79293
0.92838025,78.341675
0.8980945,81.862175
0.88576823,83.75334
0.9340209,82.14342
0.7842333,78.76282
0.87471765,80.23671
0.7399656,81.69805
0.81209916,83.721306
0.74753594,79.044716
0.6827812,79.56601
0.61902,83.3287
0.6350662,80.35957
0.48364624,84.58702
0.5782459,77.903984
0.5898557,81.1562
0.5245087,78.28981
0.5232094,85.13921
0.46369419,81.23091
0.56839037,85.771164
0.6748652,87.16462
0.61167634,84.499596
0.730881,85.83643
0.8245711,84.186386
0.7988002,83.550835
0.88050747,88.8964
1.1222763,86.80463
1.036462,89.72559
1.1883842,88.77851
1.2571416,87.29253
1.3831183,90.32743
1.4372145,88.53929
1.5265477,89.69129
1.532883,88.03243
1.6507434,96.950294
1.6958641,93.878365
1.7586204,98.59114
1.761411,95.39883
1.8267372,99.463646
1.7881006,95.04714
1.8985269,98.53748
1.8798507,100.187614
1.8292658,103.527504
1.9382503,101.30226
1.862061,99.88523
1.8623719,100.117516
1.8670365,104.29159
1.8649479,98.474396
1.8254061,98.800095
1.7957369,100.744156
1.8430105,101.04472
1.6891518,96.65858
1.7747226,99.7656
1.7524037,98.15573
1.7080384,104.042984
1.6656414,98.9076
1.6106935,101.38631
1.5653979,103.67438
1.5877652,95.020134
1.6153624,99.48079
1.497655,99.69401
1.435357,98.26091
1.4525737,95.37634
1.4503539,97.85298
1.4676405,102.67366
1.4118259,96.02715
1.3928481,92.80292
1.4159188,96.51156
1.3861039,94.05198
1.3637145,96.232834
1.2945002,90.863655
1.34982,98.20905
1.3216689,87.89861
1.3039004,92.704216
1.2261289,97.54646
1.3113666,88.876114
1.2315938,92.731026
1.1624562,85.79577
1.157709,94.81199
1.0809718,85.471344
1.0399528,88.257835
0.9736587,89.40739
0.9507477,87.266136
0.8839215,87.91512
0.85959053,87.15527
0.8153714,91.87955
0.8546585,87.25478
0.798674,84.85144
0.6987117,85.78176
0.69304764,87.68716
0.6834561,82.44372
0.73030484,82.60456
0.70568717,84.590256
0.623077,81.03379
0.65296406,81.53708
0.6838194,84.08736
0.67642826,85.601585
0.6735236,82.17114
0.6559402,79.98095
0.6804802,82.001274
0.62314296,80.738014
0.60911274,81.67633
0.5003794,82.665955
0.45727855,78.684685
0.42067927,76.34165
0.48759198,81.291374
0.359842,76.21013
0.37852365,80.04136
0.27941805,83.46436
0.3067642,83.62199
0.16897604,80.29927
0.17380506,80.455086
0.28352088,81.71661
0.18650468,81.76166
0.3257817,86.63718
0.2417311,78.252075
0.22192624,82.27412
0.39262664,82.2717
0.45270202,85.533646
0.47032753,86.05764
0.50002164,87.78506
0.5607767,83.11451
0.64324856,86.71232
0.75965,89.31217
0.825532,89.126625
0.8767321,85.76999
1.0820773,96.51577
1.1534168,94.37828
1.1892476,96.564026
1.1328886,95.60102
1.2878712,97.072365
1.3173919,91.42744
1.4144254,96.57782
1.4719961,99.28407
1.4874874,99.74368
1.5246034,100.594475
1.4463757,100.89467
1.5310823,97.91747
1.6002667,97.08114
1.5342778,103.00083
1.5751798,98.48887
1.458241,99.07317
1.5377034,104.15822
1.5556947,102.66885
1.5756395,101.492325
1.5772351,104.660866
1.4647943,103.09255
1.4062858,99.5512
1.4047726,96.04911
1.438508,100.55978
1.3396122,98.27278
1.3131481,97.62767
1.3054022,99.23278
1.2647353,101.87881
1.2677016,98.0397
1.2068261,102.565834
1.1193094,97.90995
1.2119261,97.81539
1.1424544,99.63471
1.0502986,96.47086
1.1385324,96.28825
1.1066556,99.67104
1.0500661,97.3014
1.0484087,97.54596
1.0731198,96.03799
0.9776934,93.301216
1.0576855,90.92634
0.936772,96.63817
0.9700642,92.77793
1.0160017,95.72346
0.8921516,90.061775
0.8314792,93.38491
0.85227275,87.70867
0.84319186,87.52401
0.8234445,88.04737
0.7841931,91.775314
0.72324234,91.35748
0.693855,93.441475
0.66300935,89.635994
0.5913371,90.26175
0.5421716,89.087456
0.5720784,85.20257
0.5202431,86.209366
0.40406707,90.29888
0.45437068,86.92021
0.33778533,87.72902
0.34287786,81.00916
0.36783436,89.54451
0.31557614,80.35523
0.3540668,84.19536
0.43040556,82.76318
0.3661883,80.09554
0.3968469,87.31164
0.34367225,87.08313
0.30439764,83.07874
0.3715843,81.25136
0.25701225,85.20304
0.22755778,77.19457
0.29263067,77.08344
0.23135763,84.835625
0.20797905,79.60791
0.11963206,78.378136
0.16797552,80.69769
0.07882838,81.08205
-0.0236062,83.22114
-0.011622435,78.45901
-0.052999526,81.661385
-0.036409575,81.96624
-0.055122275,82.8035
-0.037745196,80.638565
-0.081730396,82.51697
-0.04034799,82.01364
-0.014815213,84.7542
0.07950289,82.17474
0.16477254,87.602806
0.25812104,88.1694
0.27854007,88.80468
0.3392893,86.7902
0.47211468,86.048935
0.5335559,86.710526
0.600761,86.32723
0.7115433,91.74062
0.8116355,91.47297
0.89615005,89.96668
0.99814135,95.55823
1.0597517,90.11532
1.1081533,93.46739
1.1235361,95.12946
1.2206454,96.57125
1.195826,97.86783
1.3685057,100.253204
1.328538,99.29379
1.3095381,94.23152
1.3003263,92.72005
1.4104452,94.92612
1.3492684,102.20462
1.2729688,101.50672
1.3809747,100.74322
1.3760077,100.50323
1.3227738,100.913414
1.3616725,105.5031
1.4107764,97.9413
1.2972682,100.555374
1.2550867,101.85172
1.2763461,105.97019
1.2905389,103.84797
1.2983145,99.96144
1.2199998,100.29676
1.1878978,103.700584
1.1651957,99.0084
1.1280042,101.260506
1.1152798,95.974556
1.0990915,95.604576
0.98696876,102.42099
0.9810897,95.62625
1.0237166,96.71707
1.0294033,98.62345
1.0252681,98.30285
0.93038225,94.29839
0.97581506,89.94653
0.9563346,92.54185
0.9931896,93.45624
0.8901342,94.52401
0.940121,90.95694
0.90002984,88.21621
0.8786309,90.43353
0.9258847,95.98297
0.8585663,92.59296
0.895855,92.51286
0.7769847,88.20064
0.8491012,90.42429
0.7664973,93.68467
0.6496945,87.99192
0.7451701,89.61889
0.5921523,90.05027
0.56528693,85.49798
0.5553847,86.62518
0.5408478,88.42092
0.51245725,83.97978
0.49268222,86.56248
0.43016768,84.1508
0.38758957,82.90997
0.35344353,80.9059
0.4305787,80.40496
0.36593363,85.81192
0.41714182,82.24255
0.41985533,80.448944
0.41070697,75.93603
0.35627934,88.014305
0.44311327,83.01173
0.38131443,77.03576
0.31400716,84.6236
0.3935186,78.35267
0.32369992,83.68717
0.31658113,81.28115
0.28508237,80.938034
0.31183732,77.79435
0.2651449,78.94599
0.16523953,81.66537
0.14150946,83.13746
0.21200743,81.26689
0.092617735,80.50621
0.07158089,80.740326
0.057552237,79.36117
0.080462165,79.0622
0.14956549,78.67473
0.10278144,85.87211
0.06865375,82.85372
0.19546534,87.12251
0.10066159,79.78299
0.22535609,84.91561
0.31279498,81.15156
0.3656913,85.07825
0.5233213,85.32082
0.55382544,84.584305
0.6953126,85.17096
0.77291024,89.67488
0.8386549,94.839226
0.94235367,90.128426
1.0753574,90.5255
1.0644721,95.30052
1.1218176,95.33794
1.2400026,92.4559
1.3308991,102.885414
1.3803892,96.81172
1.3863667,95.82466
1.4810076,100.54286
1.5288309,96.01031
1.4786141,103.60308
1.5272063,99.56011
1.6067616,94.04166
1.5056602,101.22879
1.6067052,100.1643
1.5001385,100.333595
1.5572289,99.43201
1.5702789,100.51686
1.5755337,97.93753
1.6051781,101.48805
1.6482223,104.36348
1.5144936,103.519196
1.5434681,101.086945
1.4914777,104.59595
1.593365,97.61887
1.5577481,101.32665
1.3794218,100.375755
1.4224607,95.44079
1.4021541,98.76291
1.319905,97.80236
1.4055104,100.75956
1.2554806,94.80429
1.2770176,97.59723
1.2744974,97.99534
1.245168,94.29306
1.2142121,96.589066
1.2348824,97.88455
1.2610556,97.61562
1.0957156,99.03167
1.2136998,97.28047
1.1349686,92.66022
1.2114018,92.34724
1.2781842,88.56974
1.1226488,89.2279
1.199047,90.15042
1.189051,91.53387
1.0828499,91.491844
1.1627283,92.42135
1.1272525,88.738144
1.039896,88.25917
1.014315,91.084236
0.90180075,94.49193
1.001445,89.28324
0.8770284,89.108345
0.8500472,90.80281
0.82342476,90.09601
0.8053342,86.7598
0.8331491,89.18118
0.7724887,85.3824
0.8537263,85.03456
0.78287464,83.411606
0.75610834,84.05601
0.71424866,81.39375
0.70222056,83.991844
0.68716407,86.15346
0.7128388,79.81208
0.7051872,78.297264
0.70566773,83.64173
0.6498344,81.307106
0.6961787,79.83749
0.67735195,81.61168
0.6799445,79.31426
0.60436434,83.66536
0.6437558,83.24161
0.66896147,79.55056
0.5591215,78.51945
0.5435038,78.38577
0.39107907,80.227165
0.47380736,79.01221
0.51276714,84.49264
0.49595082,80.27514
0.41695282,79.144394
0.37760192,83.64392
0.4127555,84.91894
0.41041762,88.04403
0.46336055,78.92584
0.4487299,78.15047
0.54004776,82.14712
0.58316225,83.63496
0.63668597,82.04608
0.8158024,85.023895
0.8304738,87.20684
0.90739685,87.09544
0.9997044,86.59808
1.0763695,94.43479
1.21247,88.48298
1.3175125,87.6922
1.3476365,89.95857
1.5020441,91.54758
1.517419,86.987175
1.6188645,94.47028
1.6742065,96.92661
1.6126876,92.98395
1.7490271,96.1496
1.7874641,97.40538
1.79641,98.15341
1.8224945,100.5645
1.8345647,95.20732
1.9811215,96.517265
1.8635451,96.521034
1.9924608,104.989685
1.9126332,100.848564
1.8511478,98.11366
1.9101567,95.14752
1.9207296,99.08081
1.8782325,100.37392
1.9110416,100.09739
1.8915502,100.14265
1.8684529,98.535255
1.8341955,103.24011
1.8197026,105.222755
1.781498,102.16764
1.7306095,102.054985
1.7226092,97.45345
1.7173916,98.64252
1.606651,101.02123
1.6578681,99.5749
1.6748607,97.72993
1.5622107,102.32919
1.5760858,97.261055
1.5752118,98.988
1.4758689,100.106804
1.5052398,94.90551
1.5131103,93.891495
1.514104,90.86055
1.495141,94.28875
1.3828335,92.655136
1.3793173,92.20124
1.4767572,95.82405
1.3553998,93.44144
1.4577113,91.63372
1.4524872,96.268265
1.3911155,89.45627
1.38385,93.112
1.3532975,87.43957
1.3612897,88.55415
1.2401154,87.72309
1.2030134,88.75511
1.1344744,88.297195
1.1416426,91.88714
1.1322656,90.38842
1.077981,88.15642
1.0246935,85.27391
0.9649765,85.69803
0.9989193,83.82142
0.9371174,87.58185
0.9129747,84.02981
0.9143111,83.199486
0.9527472,81.41491
0.91625124,84.233986
0.966063,86.08514
0.94582254,84.88035
0.9152487,81.82726
0.966083,85.60007
0.9228055,82.30318
0.9334663,83.84955
0.8570043,78.88561
0.8971494,82.13124
0.93024755,80.67744
0.81264144,73.810005
0.7675516,78.08828
0.6697882,75.389694
0.6492851,79.74528
0.74049366,79.21815
0.7969533,78.0871
0.6443501,75.87451
0.50001794,79.25048
0.5725387,79.868454
0.54005486,86.18206
0.5293466,81.20684
0.5564253,81.62057
0.58176863,80.710884
0.57709986,86.73501
0.6698088,87.86127
0.78016484,83.759155
0.77668667,84.49624
0.86360383,83.45152
0.9099584,89.031044
0.95755875,88.07493
1.1157539,86.54148
1.1869688,86.59819
1.1534462,89.48414
1.3426403,89.81962
1.4311564,89.419426
1.5553417,91.66055
