ppg,abp
1.1240561,76.671616
1.0756633,78.74967
1.0313332,85.202255
1.2728657,87.00873
1.3952491,89.23109
1.3509389,94.05366
1.4512385,95.26259
1.5484282,98.317215
1.5435,99.23222
1.5934273,101.724075
1.6364967,104.35289
1.6596833,110.08
1.6343678,112.60935
1.6070136,113.144394
1.7637693,112.545006
1.6952047,116.14456
1.7620504,116.78468
1.7173314,120.09859
1.7784044,121.41138
1.6974483,118.40348
1.6995723,116.86434
1.7052282,118.70955
1.7408029,117.817894
1.7193146,117.29629
1.6324146,117.10899
1.7527456,119.36632
1.6949501,120.438995
1.6196407,115.69708
1.7163173,118.008965
1.5828683,118.3894
1.4821758,118.00302
1.619848,118.96135
1.5474447,114.49561
1.4890593,111.828354
1.4994732,116.59578
1.4620776,110.69359
1.5626943,110.823555
1.3808142,111.3964
1.4044563,104.38967
1.3592528,106.12308
1.4130453,98.347145
1.4061358,101.85462
1.4549856,98.51069
1.3852729,97.11617
1.5065421,96.576126
1.4405715,94.55657
1.35735,91.851036
1.4325223,90.773544
1.3591015,91.30774
1.3174864,95.84813
1.3489745,84.23372
1.2757692,87.25782
1.3484622,82.52143
1.2341845,83.26014
1.2910539,82.47488
1.3110359,78.732025
1.2759016,78.720245
1.2401787,80.93606
1.1495627,72.59329
1.1945122,72.2528
1.1057528,68.84771
1.0014625,70.344055
1.1032423,70.67645
1.0199987,65.33909
0.924556,64.42768
1.0546603,64.07754
0.9079589,58.117428
0.90453064,64.987625
0.8596649,58.055626
0.8808723,54.168247
0.90198123,57.8985
0.87834585,53.378994
0.78491807,54.956337
0.9080778,48.924503
0.85100895,48.081795
0.86788553,45.11647
0.89050347,50.61282
0.9002071,46.845222
0.82427734,40.47539
0.76874506,40.744957
0.80494803,40.72984
0.85052127,41.638313
0.7603723,40.0
0.8212928,40.0
0.8375087,40.0
0.79859793,40.0
0.8259428,40.0
0.74766076,40.0
0.64716816,40.0
0.667518,40.0
0.6850924,40.0
0.63383603,40.0
0.49366078,40.0
0.5857125,40.0
0.4878138,41.789845
0.53089356,41.27948
0.5471608,45.27828
0.45639464,44.289303
0.5593881,47.304966
0.63695776,51.76147
0.59233195,54.649574
0.6391303,58.116756
0.77607423,53.668793
0.8012134,58.481697
0.8887467,58.420933
0.9232433,66.46197
0.95164543,65.117256
1.1059887,69.69177
1.0639644,70.550575
1.3150375,78.33382
1.3497739,78.116455
1.424849,79.05702
1.4943036,82.357155
1.5707765,87.89359
1.6494848,91.34958
1.7068499,92.30647
1.6521162,96.2502
1.8099262,102.026276
1.7720091,99.5408
1.794692,100.30824
1.8739171,106.445786
1.9025867,107.59475
1.9663122,105.84298
1.9850254,111.75062
1.9877453,114.879326
2.0256789,116.04661
2.0474806,112.57262
1.900596,118.797485
1.9561635,118.916985
1.8987538,121.27151
1.8959625,118.06338
1.9552572,119.88661
1.9511359,122.97908
1.855462,124.78357
1.9727126,124.00987
1.9280443,116.12659
1.8877635,118.386444
1.8704152,124.9403
1.8251504,116.55953
1.7531631,117.807945
1.8957192,121.69792
1.6819226,115.34051
1.7739108,118.726166
1.770548,110.280014
1.6980702,111.65287
1.7469815,111.99968
1.7694286,108.43548
1.5421532,107.69481
1.5087172,104.83983
1.6079217,106.23814
1.4773855,100.85995
1.5478802,100.24029
1.481174,99.11225
1.4844402,99.39621
1.507903,92.88494
1.4027859,94.9657
1.5644007,94.86493
1.4798797,88.49162
1.5569661,92.93866
1.4646388,88.04535
1.3931065,85.99763
1.4377917,86.358444
1.4986371,82.4168
1.350158,82.761
1.2563468,81.483444
1.2894032,79.4983
1.3721389,80.26542
1.21946,73.861206
1.3281513,75.29105
1.1607947,73.855095
1.1643642,69.36272
1.1139803,67.20368
1.1108489,68.91138
0.99127394,66.98834
0.9755764,64.80726
0.9382792,64.013824
0.9489251,57.251175
0.94785786,63.786922
0.9273529,57.85195
0.9153727,54.046177
0.86742866,57.24205
0.9043172,51.5598
0.9475821,49.23611
0.79038024,50.39143
0.9031781,47.010086
0.8448423,43.61579
0.8473865,48.172207
0.8511499,47.42485
0.70129615,41.788967
0.86938405,42.377712
0.7907786,45.158504
0.8432695,40.0
0.844285,40.0
0.7518008,41.086403
0.6442331,40.767353
0.7168967,40.0
0.7265774,40.0
0.62956846,40.0
0.5914884,40.0
0.51623863,40.0
0.4656168,40.0
0.52723205,40.0
0.51885456,40.0
0.5193506,40.0
0.48700085,42.111645
0.38124546,41.24431
0.45402265,41.677788
0.54526395,46.18569
0.42833272,47.347717
0.51334655,49.693157
0.4934896,48.701054
0.60888463,56.18617
0.5272471,53.572186
0.51889586,57.13224
0.6699596,58.287712
0.7058583,61.0918
0.84679747,62.44378
0.81701374,67.21716
0.8927571,73.1358
0.98513305,70.173584
1.1016515,77.13399
1.157907,79.0436
1.2328595,85.513336
1.335807,86.03986
1.3391598,92.31318
1.4793473,86.23415
1.4823333,93.87875
1.5511328,93.662575
1.5627898,100.07617
1.5142381,103.75201
1.674908,103.3842
1.6303271,106.7202
1.6761881,109.396675
1.6999615,108.54489
1.7057118,110.855385
1.6878424,114.0169
1.7084419,113.22455
1.73128,118.150566
1.6373725,116.24712
1.6743486,117.318794
1.7374343,121.067406
1.7208022,117.25685
1.7206234,117.45698
1.6369697,118.34107
1.6526545,124.437325
1.6704773,120.602554
1.6301268,117.15619
1.5437111,121.29885
1.5375193,116.07956
1.4649079,118.12625
1.5713855,115.01694
1.4650015,114.91103
1.4312649,112.260124
1.3707389,112.635216
1.3848047,110.615105
1.391854,114.01861
1.2268015,109.87061
1.2458959,109.742775
1.3567507,106.30701
1.3087269,104.31855
1.2914208,105.4607
1.1857961,103.734276
1.208556,105.64104
1.176267,100.922264
1.1422703,100.65086
1.126702,97.37077
1.1165545,94.45005
1.195959,92.31618
1.0948684,89.67095
1.1903018,91.57071
1.1286111,89.30108
1.0102148,89.24
1.1157914,84.411674
0.97182155,85.38857
1.1205387,79.39225
0.99743825,81.18137
0.96256465,74.62351
0.7830987,77.62952
0.75859,75.50296
0.85241735,73.008484
0.8196242,67.52426
0.7799956,71.084305
0.74705,69.90456
0.71373856,66.43876
0.7178655,62.072372
0.5769656,62.07937
0.5506657,58.44028
0.58218986,63.361515
0.53291196,57.812553
0.53959864,55.99985
0.5328154,51.876583
0.53130484,56.587578
0.49451467,50.305065
0.40457124,52.505455
0.4403461,53.480885
0.42722744,47.83771
0.47856197,41.39364
0.4095021,46.353073
0.39760223,42.24215
0.42657447,43.158203
0.35612813,40.165245
0.29512653,42.396328
0.4414605,40.0
0.33114842,42.504936
0.29249597,40.0
0.28485605,40.0
0.2038336,42.614197
0.20659716,40.0
0.20731845,40.0
0.20426048,40.0
0.14460844,40.0
0.11372419,40.0
0.12167343,40.0
0.06293596,40.4184
0.05122279,41.69632
0.0053125643,40.0
0.038274914,40.0
-0.02139188,40.212395
0.12213893,44.838947
0.029473545,49.016212
0.104043335,48.650105
0.11338558,53.510067
0.10833906,56.38307
0.23130688,62.878876
0.2807659,60.35605
0.40800217,61.668465
0.290577,63.016632
0.5587608,65.20517
0.56829786,69.89831
0.6645148,73.468155
0.8097694,77.74449
0.8037199,81.879
1.009741,78.0155
0.8480538,83.97515
0.9520573,89.5607
0.9198219,94.047104
1.1705947,95.07834
1.1094618,92.06883
1.187704,99.7594
1.2528821,97.145615
1.2620913,103.516495
1.3156402,112.749565
1.2879002,111.047134
1.4070381,109.03814
1.362985,109.92197
1.3560038,109.248276
1.3576488,113.93175
1.4480569,117.1227
1.4025049,116.06686
1.4419065,112.087036
1.4031699,119.773094
1.3551494,121.402885
1.2996818,119.82503
1.2681454,121.45473
1.4149554,123.740875
1.3970896,120.56604
1.2532331,118.62626
1.3546544,119.40575
1.2237979,118.18538
1.2182195,117.35709
1.2122574,113.26153
1.2932945,118.0502
1.3003012,116.18558
1.113731,118.314384
1.0090917,118.18336
1.0858133,109.510544
1.1372361,107.50935
1.0282035,111.31819
1.0538032,106.99978
1.021589,107.29864
0.9496749,103.47734
1.0158944,103.08576
0.96449685,102.32147
0.88806254,99.153465
0.88322324,103.45244
0.8521659,91.76077
0.9544018,97.701385
0.8698507,91.16368
0.95632213,88.67241
0.79091877,91.656044
0.9245108,86.05283
0.79760873,84.08819
0.7049422,84.529976
0.8331605,82.927086
0.77186966,81.94528
0.6869096,79.21397
0.7594732,77.537964
0.6860785,76.944176
0.74132,74.53263
0.66424364,73.92873
0.7554485,74.36803
0.605958,70.75663
0.5753262,69.9224
0.41288748,69.51972
0.5034679,67.41346
0.49648497,63.99756
0.38059092,61.629837
0.33195814,61.92531
0.30857173,56.995506
0.37199524,60.461727
0.349458,54.9865
0.29354566,52.72744
0.35929647,52.49005
0.37609443,48.98792
0.43653163,51.388283
0.3152834,48.335297
0.38613304,44.571674
0.36278522,47.886677
0.42741406,45.02816
0.33987942,43.85999
0.27613148,41.121483
0.43263352,41.447586
0.36497864,40.185635
0.33075374,40.0
0.32851782,40.0
0.19451858,40.0
0.16899246,40.0
0.15102145,41.300964
0.18019614,40.0
0.097182214,40.0
0.09996841,41.862823
0.10316117,41.450005
-0.008601807,42.443638
-0.0040367446,40.0
0.078658395,41.662113
-0.064630516,40.0
0.10016638,40.0
0.02224132,44.20345
0.14831519,44.142155
0.05249936,43.817307
0.07292914,49.031647
0.15623306,52.664474
0.21319795,52.073692
0.31081453,56.61828
0.27911338,55.139877
0.3230577,58.605064
0.47148633,64.63617
0.49271348,68.0047
0.68207157,70.6561
0.67291355,73.23626
0.7559201,77.47433
0.7547511,73.86125
0.8098449,80.67976
0.9990191,85.68077
1.0555176,85.95401
1.1444703,92.68542
1.3038826,90.30534
1.18588,96.68917
1.2953726,92.96739
1.271534,102.29025
1.3646666,99.344765
1.3516678,106.715866
1.505004,109.57402
1.4133371,107.80698
1.4521494,106.35439
1.521219,112.8526
1.5543638,112.163475
1.4627082,118.70505
1.4933882,115.87979
1.4234028,117.89724
1.4587574,116.4633
1.5596858,114.549614
1.5103844,118.70332
1.4886522,119.7583
1.6013796,121.70474
1.4561509,117.28395
1.5550351,123.67496
1.3658721,118.95549
1.4887131,120.97179
1.5073283,116.943565
1.3983171,110.84152
1.3617203,114.05986
1.3345443,119.92704
1.439293,117.95347
1.3006972,110.132126
1.37581,113.84858
1.276856,115.01624
1.228048,110.180374
1.2508785,106.39381
1.1994544,105.529785
1.2431462,105.043
1.1477436,105.962494
1.1066799,103.84038
1.2547312,100.51015
1.1669279,98.82343
1.2168308,95.75305
1.2183858,92.231964
1.2346921,96.37433
1.2605942,90.29782
1.0924293,91.24611
1.1456803,87.10389
1.0987401,88.942604
1.1061723,87.66701
1.150736,85.38257
1.1189263,81.382126
1.0941103,78.294754
0.94833195,76.16897
0.9409632,77.77176
0.9637608,74.43432
1.0327473,77.63627
0.8789516,73.3007
0.81824875,70.03574
0.9097483,68.91342
0.76571465,65.04692
0.8181328,67.19385
0.7643,64.44217
0.7461547,64.35182
0.73226434,60.265003
0.6626267,64.15028
0.5993239,58.45609
0.81330025,53.207977
0.67444724,55.11061
0.68614846,51.362167
0.67668384,52.883846
0.74464947,51.68847
0.6832868,50.79954
0.73735595,49.97965
0.6088293,45.219505
0.6608014,47.743378
0.77758086,45.698627
0.6899099,43.011246
0.75039977,40.0
0.7395868,40.56362
0.683189,40.0
0.6210435,40.0
0.5348182,40.0
0.55249566,41.77996
0.5705508,40.0
0.49898848,40.0
0.40568388,40.0
0.48389485,40.0
0.45682767,40.0
0.519969,40.0
0.41103804,40.0
0.41803193,40.0
0.4318107,42.992058
0.38868695,40.0
0.25819486,45.93247
0.41530618,44.34363
0.35602933,49.206276
0.40607113,50.132362
0.47120085,53.365215
0.43265787,50.204113
0.7025025,57.33931
0.6331617,59.27138
0.77598315,57.651913
0.7480093,65.68258
0.8888671,65.95287
0.9176274,68.63272
1.0266622,72.00485
1.1815331,71.97492
1.2133249,76.705444
1.1607997,75.41323
1.3001517,79.45946
1.4704018,87.3762
1.494007,93.72954
1.6143855,90.2779
1.6296434,90.7299
1.7138871,100.933365
1.6433549,99.7778
1.748857,102.486885
1.7220126,105.61761
1.9051006,109.14664
1.7377476,109.04469
1.8800199,109.38636
1.9261138,108.26696
1.8255723,113.284164
1.8612657,117.18704
1.8349736,119.01976
1.889439,113.49323
1.9768962,117.73225
1.8624305,119.20249
1.9397322,117.18029
1.906562,120.67823
1.8895879,120.29412
1.8216634,124.98923
1.8223147,116.017494
1.928611,120.880356
1.8271762,121.4246
1.7062272,120.77125
1.7207949,116.9405
1.8075798,115.803604
1.6691896,114.71781
1.6501138,113.501236
1.7145784,109.90865
1.6624621,114.68766
1.5901669,110.46592
1.656506,109.870384
1.5898969,108.72583
1.540148,105.41527
1.5919913,103.882935
1.5716391,102.27358
1.6100075,99.31288
1.607724,99.55384
1.4143912,100.533295
1.4626707,96.02119
1.4449482,94.816414
1.4459025,99.552216
1.4908488,92.078354
1.4408671,92.738594
1.4314454,89.565674
1.5807363,86.551704
1.4462787,85.17463
1.4410081,79.03423
1.368749,83.39925
1.362686,82.4444
1.2951779,80.02445
1.3513838,78.708244
1.3801059,75.537445
1.3445518,74.56647
1.1830213,75.967316
1.2183146,71.715355
1.2446656,68.44963
1.0288395,71.23111
1.0672722,69.51055
1.074105,63.433434
1.0954006,63.375168
1.0020179,61.498547
0.97575897,58.973545
1.1102371,59.24412
0.92248154,55.2322
0.9766214,54.85179
0.9955775,56.609222
0.9604497,49.844513
0.9519188,47.095345
0.9157294,51.331146
0.941805,47.49517
0.8777262,42.518356
0.9883797,42.30336
0.9606237,42.43818
0.8524171,41.765873
0.91382366,43.7096
0.8603469,40.0
0.81636393,40.0
0.81212723,40.0
0.74676996,40.0
0.76565486,40.11867
0.8227799,40.0
0.80209243,40.0
0.63952523,40.0
0.7167531,40.0
0.6186939,40.0
0.5622718,40.0
0.60071766,41.066475
0.53063846,40.0
0.4522203,40.0
0.495706,40.711365
0.53403574,49.551674
0.488281,44.349754
0.6382861,48.466156
0.5399928,47.035755
0.7564736,53.836926
0.6505583,54.53877
0.7053792,53.261936
0.7659323,59.43694
0.74098927,59.909504
0.86799854,63.3345
0.9758218,69.0536
1.026592,63.69318
1.1182101,67.548706
1.2453854,75.533325
1.1481465,75.37534
1.3601717,82.9992
1.4315357,80.01638
1.5210506,85.24616
1.5611105,88.37355
1.5587652,86.46949
1.7932465,95.61111
1.6167265,96.3493
1.7613102,100.611755
1.7349234,104.45892
1.8970708,101.381966
1.7482387,106.58918
1.8176637,110.81364
1.8274957,108.35169
1.869535,116.34839
1.9134041,115.356766
1.8634863,114.93219
1.9755597,114.102295
1.9144644,116.27632
1.8646724,121.412155
1.9007379,116.416916
1.8700204,124.14612
1.8829849,117.86804
1.8260759,120.424126
1.7235179,121.875725
1.8511332,115.59061
1.7997814,120.69266
1.751374,117.21393
1.7759018,120.30954
1.6109347,121.48889
1.7298405,121.08977
1.6871358,116.36723
1.6846368,116.781845
1.5695419,117.54792
1.56102,112.09605
1.4776531,113.151405
1.4963684,104.86355
1.5300162,106.64375
1.4478691,105.0653
1.4729434,104.35643
1.427678,105.87279
1.351499,103.51187
1.513455,102.69856
1.3831252,97.26589
1.3418615,96.84769
1.4086637,94.519905
1.3522222,93.93552
1.3067002,96.31176
1.3111081,90.14829
1.2350675,82.550705
1.3741819,87.823235
1.3940383,86.26153
1.3731579,84.69497
1.280902,81.23898
1.2417256,79.127
1.2219425,80.0219
1.1782886,80.77801
1.0774001,76.50222
1.1102437,73.58816
1.0727154,72.01033
0.96655416,75.78717
1.08767,69.38393
1.0053769,67.53345
0.9465626,69.224434
0.8702809,64.85004
0.7822785,62.392834
0.8694288,62.616863
0.7386147,58.70182
0.73296654,60.65861
0.7311288,56.33177
0.66853195,55.59429
0.6936692,51.46534
0.7892525,51.767315
0.7405054,50.352898
0.7338236,49.727047
0.6842572,47.130756
0.62356293,47.71605
0.79093343,48.68114
0.5990032,42.13266
0.6707161,42.847527
0.670893,42.824196
0.68121064,42.278812
0.569392,40.0
0.6166656,40.0
0.5555753,40.0
0.51728225,40.0
0.40707144,40.0
0.54106176,40.25808
0.46399382,40.0
0.31766096,40.0
0.40244994,40.0
0.24816276,40.0
0.32125533,40.250553
0.20558892,40.0
0.20646411,40.0
0.19083117,42.84427
0.20510054,42.358433
0.19325788,44.45126
0.30184954,43.310383
0.25518364,47.994324
0.3000041,49.753506
0.39598542,55.47196
0.3547197,52.876884
0.4597172,57.83968
0.5641507,60.18963
0.60712504,64.18539
0.60691494,65.27814
0.72481084,66.53549
0.81414723,69.65429
0.8516614,73.06729
0.9029416,74.893776
0.9855312,76.2744
1.0201145,78.3838
1.0988231,81.78941
1.0665829,87.78196
1.2200153,86.500145
1.1972533,91.17924
1.3114544,92.46206
1.391977,95.80398
1.3735119,98.09395
1.3820218,103.02318
1.4805508,107.97191
1.516728,107.39585
1.5407108,109.559074
1.5465593,111.46151
1.5025072,111.988785
1.52077,117.12011
1.5040718,116.87495
1.4993643,118.18123
1.5902071,118.27206
1.5463771,121.78131
1.4197251,115.21902
1.5296519,118.78412
1.479293,120.711334
1.425873,120.792244
1.4191351,116.895485
1.4358258,119.08927
1.4722664,123.22041
1.3284962,119.20251
1.364134,119.19098
1.3304055,119.69908
1.3053968,118.46204
1.2018409,115.8181
1.2737027,115.0251
1.228278,109.92924
1.1563617,110.91332
1.0130835,113.010025
1.1716352,107.5478
1.2341536,108.41812
0.98859507,107.98093
1.0725149,103.51762
1.0329396,109.313194
1.0557925,100.60725
1.1140058,98.23296
0.9799219,99.60274
0.94751084,95.7277
0.97313625,97.03516
0.98006904,89.468315
1.0324697,87.140274
0.9379482,91.590225
0.8741651,90.76777
1.010085,86.45725
0.92192525,86.082756
0.8300988,81.68284
0.88957804,82.36548
0.84302735,82.740654
0.78504425,78.34804
0.8008108,76.40792
0.81064326,72.661896
0.6727666,73.98292
0.6707828,72.6864
0.5951029,71.3408
0.59116364,74.2394
0.5689364,66.35973
0.4640331,64.9067
0.5549165,63.903954
0.41278052,62.41804
0.54871446,60.35233
0.44757488,56.34999
0.41196963,59.29355
0.37748048,56.55156
0.41832715,53.080776
0.40784606,54.26224
0.41965097,55.434456
0.36016783,46.07777
0.30795032,53.006313
0.36201552,46.8164
0.44363603,47.544403
0.37917233,44.89663
0.39773083,44.478615
0.4537131,42.21217
0.27817553,41.92819
0.3128266,41.846928
0.23297885,40.0
0.24319953,40.0
0.26434147,40.0
0.19082366,40.0
0.083043404,40.0
0.05335087,40.0
0.046927143,40.0
0.099117905,40.0
-0.02083338,40.0
0.008328302,40.255966
-0.00634734,42.3354
-0.05155985,40.264095
-0.071916066,40.0
-0.024090193,46.15123
-0.07148029,46.28335
-0.080175534,46.982883
0.040428486,45.81552
-0.08648698,49.423958
0.07194194,49.837173
0.13015121,55.872738
0.16654672,56.29426
0.24784201,59.59379
0.2334798,56.75893
0.36622408,64.04638
0.34859732,62.65001
0.42878914,70.718864
0.63359123,71.81768
0.7057067,75.13661
0.75341225,81.01722
0.7852386,82.475525
0.82276374,81.52657
0.86818653,89.19556
0.971877,90.67457
1.1003813,89.4066
1.183482,93.03504
1.1704402,100.41391
1.2195216,99.62281
1.1529614,102.23328
1.3797189,103.269295
1.227417,106.58026
1.2704896,108.89317
1.3948781,110.96433
1.3567262,112.07498
1.3594174,113.442566
1.4061514,113.57006
1.4358411,115.860054
1.4642773,117.53058
1.3744197,118.158585
1.2629963,122.6021
1.3293464,123.18932
1.272411,120.56212
1.274582,123.7965
1.3614725,118.883575
1.201052,118.35068
1.3923942,117.106804
1.2862267,118.396286
1.2913861,119.61343
1.183125,117.4171
1.1420887,117.80667
1.1280668,116.15039
1.0721827,115.373795
1.159945,114.29546
1.1606573,111.47678
1.09225,110.68657
1.1300262,109.47448
1.0220296,106.900604
0.911179,110.12134
0.9898525,105.08311
1.0124824,103.529854
0.9501511,100.39686
0.8428173,103.90564
1.0137138,101.28608
0.93224275,97.84224
0.93873256,97.25947
1.0928557,91.30132
0.9489375,93.62232
0.9895625,94.235
1.0634519,96.926865
0.8965464,86.9623
0.901709,89.82764
0.87773997,87.442894
0.8182497,84.13798
0.8988364,83.44457
0.8954512,79.31593
0.8177806,78.59777
0.9092284,75.904106
0.73581374,69.409164
0.7342441,74.149284
0.7194221,69.55361
0.6330146,68.54817
0.72757286,67.832405
0.61656165,65.14765
0.6060688,64.70536
0.5928097,61.780495
0.49808457,61.522366
0.47474068,57.71609
0.4301679,58.09723
0.60032654,61.09423
0.44466567,51.272408
0.4363221,52.91127
0.48497057,52.284428
0.4006824,55.326054
0.5223802,48.340652
0.5926928,49.22782
0.43208534,46.021305
0.43112954,47.35053
0.5037783,47.97844
0.4551371,40.0
0.35814166,40.9729
0.42022654,40.0
0.44139376,41.377094
0.46208292,40.0
0.24531008,40.0
0.39625174,40.0
0.2932392,40.0
0.3038397,40.0
0.32873705,40.0
0.16949841,40.0
0.30030298,40.0
0.18818638,40.0
0.20929416,40.0
0.19387232,40.0
0.15129142,40.695724
0.17595968,44.194855
0.12079171,42.11709
0.25408173,44.239998
0.11832476,47.381596
0.32694307,44.005985
0.30662996,47.914635
0.3310743,57.774338
0.33394417,51.75147
0.46108237,62.439297
0.58559525,61.462387
0.5931566,64.422325
0.6269765,65.86015
0.71617526,64.20734
0.7392518,71.2245
0.8819924,73.0024
1.0791224,77.13677
1.0171571,80.27546
1.1293304,83.09278
1.2148954,84.4622
1.2731404,88.345955
1.3902352,87.79047
1.4122933,91.57475
1.4515693,96.121895
1.5039248,95.62882
1.4630079,104.55009
1.5236127,102.459175
1.5910571,109.07768
1.6943969,108.099
1.6805716,109.523285
1.695542,111.07376
1.778776,114.77223
1.6193612,116.80036
1.617889,117.42757
1.6548759,117.13531
1.6796921,120.87064
1.7138563,116.11793
1.7143334,119.58578
1.6883173,121.2947
1.6215552,117.77731
1.7003304,120.11343
1.6919483,121.24487
1.6478112,117.38133
1.6252675,123.52335
1.6294842,119.44877
1.5924826,114.33028
1.4878143,117.23788
1.6462395,119.166504
1.496859,119.43132
1.5167693,114.672646
1.5999534,109.759384
1.5150379,113.86748
1.505964,112.7812
1.432557,109.95792
1.4087453,108.62077
1.3743334,106.38453
1.35745,102.541756
1.3514719,100.4414
1.4034032,97.293594
1.3184816,98.82681
1.3305492,97.42995
1.3925552,96.513916
1.3754233,95.880264
1.329277,95.86459
1.3192298,91.07783
1.3102307,94.72578
1.3456652,88.58155
1.3149468,82.61322
1.2813578,84.30805
1.3002355,81.54784
1.3114682,80.03498
1.2186891,79.29944
1.2152259,77.13875
1.2789361,77.570206
1.1688435,73.951004
1.1405036,71.93529
1.0059385,69.71688
1.0514421,74.86622
1.016498,69.53847
0.998328,67.070786
1.032684,69.64827
0.9607391,59.2883
0.8434035,62.127266
0.9536587,60.86234
0.8901717,57.349495
0.8167122,60.06979
0.91790843,58.66404
0.7883115,54.189507
0.87451226,49.051777
0.8702295,53.478783
0.92378634,48.056007
0.8708059,48.416977
0.8490278,45.280937
0.93532616,46.382477
0.80625653,44.86896
0.83744097,40.71972
0.8857695,41.77764
0.8260338,41.669415
0.8190512,40.0
0.8065846,40.0
0.83285713,43.449574
0.7454699,40.0
0.77606815,40.0
0.76548046,40.0
0.61345017,40.0
0.6001066,40.0
0.583782,40.0
0.5530991,40.0
0.62007654,40.0
0.53585035,41.76546
0.54505736,40.0
0.50280684,44.12502
0.6272775,42.5309
0.48348904,45.777702
0.52061915,44.502872
0.5443935,49.648373
0.62162465,51.03562
0.5657729,49.097706
0.712187,53.758614
0.6111734,57.603863
0.8086658,58.13452
0.8737564,63.206074
0.9308877,65.21748
1.0776126,69.486595
1.2405602,69.43909
1.2747009,74.65948
1.3518026,77.5603
1.3108689,80.15974
1.3641609,84.889496
1.5500339,83.404526
1.480414,87.30336
1.669362,91.200005
1.6672903,90.96391
1.6404301,96.57291
1.7806345,96.97636
1.6948589,100.983696
1.7538768,100.184944
1.8847975,109.22265
1.8853993,108.70791
1.8282812,108.33762
1.9394736,113.501335
1.9992291,111.68303
1.938494,117.03103
2.0041811,112.07151
1.962632,116.34042
1.9281614,116.179344
1.8831933,123.10978
1.8948511,121.42376
1.9317085,125.44486
1.9488068,116.30834
2.0005524,116.0213
1.8973787,122.70718
1.8911966,119.47173
1.9022729,119.52534
1.828122,116.359634
1.7206751,115.22134
1.7612097,116.48372
1.8403835,119.223946
1.755118,117.26727
1.6648805,117.86291
1.6950809,115.414696
1.7721668,109.61934
1.7690095,113.31454
1.5570437,109.61949
1.5731672,106.6692
1.4697433,104.362854
1.5108864,103.33471
1.5857841,106.02289
1.5800807,102.951584
1.5142881,100.29408
1.4926269,99.57045
1.5342273,98.094376
1.5032779,95.83846
1.5662762,91.78288
1.5056615,92.33202
1.5020866,88.55195
1.443771,86.88958
1.4068128,88.34002
1.5085495,90.43165
1.3903042,86.06999
1.4833041,83.211754
1.2886875,82.96227
1.3970284,77.736824
1.2170743,77.49105
1.2788423,76.62962
1.2633287,72.4065
1.2146261,75.02561
1.141347,73.09179
0.9736879,70.68795
1.0031703,64.77725
1.0576074,61.263363
1.0283064,63.159065
1.1936339,59.96495
0.95205885,64.474525
0.9418646,56.221924
0.9849949,55.232685
0.95092106,60.171593
0.96268255,54.066956
0.87533575,52.154446
0.85480356,51.14046
0.8063069,45.093925
0.7298775,48.44787
0.904504,44.79108
0.85011244,45.601456
0.82237035,46.687016
0.8681509,42.054024
0.80918705,41.553284
0.73642844,43.318592
0.774441,40.0
0.77775884,40.295303
0.72426885,40.0
0.6769804,40.695446
0.63329357,40.0
0.7617899,40.0
0.6583129,40.0
0.6353901,40.0
0.58245474,40.0
0.46698648,40.0
0.48084614,40.0
0.35254258,40.0
0.5219245,43.148865
0.420441,40.0
0.44702938,42.137062
0.49120757,44.01172
0.46987528,46.881298
0.47818443,45.500736
0.48350206,49.893948
0.47204587,50.092236
0.5065328,51.10646
0.5718423,53.610233
0.6675259,58.918823
0.7645718,60.130684
0.8231348,60.79363
0.86200196,69.03518
0.8761068,69.599174
1.0873811,71.15818
1.0248065,74.15779
1.2077081,80.70588
1.191853,78.606804
1.3733642,81.43461
1.3720963,83.892044
1.4897777,88.08626
1.5175456,93.67043
1.5257766,95.33358
1.5430607,96.66588
1.5867078,95.02779
1.656631,102.171104
1.6385906,102.747826
1.7224379,104.87227
1.8335493,110.76094
1.7024466,111.80869
1.6204638,111.339424
1.7223651,114.28149
1.7151815,115.44
1.8582586,118.75427
1.7551252,117.67633
1.6538795,120.28558
1.6700194,117.70569
1.7312931,118.95308
1.7337816,123.16083
1.7014515,120.02372
1.6374722,122.10598
1.5739514,118.971306
1.7098925,120.04761
1.5044482,121.67849
1.6689758,116.6659
1.5061125,121.897964
1.405408,116.523766
1.5909629,115.94731
1.5471706,112.27665
1.4438397,114.192986
1.3792437,114.89673
1.3828013,108.06707
1.4311048,105.46072
1.3597391,106.46174
1.220435,106.91351
1.3000659,106.33947
1.2869822,104.73408
1.3289571,98.82045
1.1614457,101.870605
1.1724073,100.14248
1.1287749,93.53692
1.1720425,91.416
1.1772828,89.39395
1.0770327,95.48263
1.2197912,88.28082
1.1286354,89.09147
1.1809429,87.67857
1.1365778,84.97795
1.1546695,80.91318
1.0202776,81.954056
1.0677531,78.19323
0.9741128,82.62264
1.0440363,78.28678
1.0210788,77.67899
0.923873,72.292786
0.76947874,72.46396
0.89369464,68.32306
0.8167384,73.60153
0.8469638,69.946304
0.8066001,61.568512
0.6077895,62.176956
0.66172934,63.423336
0.5183275,61.78712
0.61166894,63.07633
0.5836205,54.18661
0.5843374,58.34201
0.54669505,57.542686
0.44138697,56.085255
0.62589574,48.037426
0.4357464,45.660206
0.5419097,50.801758
0.47695166,44.917725
0.4602792,46.47639
0.44554642,46.60136
0.432673,45.91322
0.4547031,45.126415
0.39438617,41.405285
0.5076681,41.85216
0.3649611,40.0
0.3423498,40.0
0.39456543,40.0
0.2811092,40.0
0.26202613,40.0
0.37218338,40.0
0.21937978,40.0
0.20000023,40.0
0.10919363,40.0
0.104911864,40.0
0.049558807,41.115566
0.02159728,42.9875
0.08857505,41.720352
-0.009737663,40.97908
0.027131222,42.292267
0.08164025,46.712368
0.01991714,50.206913
0.083590545,49.488724
0.0729705,52.091564
0.13961646,49.55431
0.20255311,55.52343
0.24320681,59.612507
0.27949607,61.67667
0.37993428,62.699184
0.5457041,71.32791
0.6026611,71.195625
0.547575,72.992455
0.7297401,71.67866
0.83895725,78.5598
0.8322741,77.9873
0.9495651,85.63101
0.9422845,83.713196
1.0190904,86.498955
1.1324979,90.109184
1.1388047,92.89401
1.1196651,100.952515
1.1659377,100.95064
1.2771786,101.62998
1.2262686,101.82625
1.3722131,105.89488
1.3779587,110.3223
1.3230656,107.56854
1.3908896,114.50136
1.403988,113.58134
1.3482057,112.06864
1.3966645,114.912636
1.4018453,118.17163
1.3730994,118.662895
1.3914723,119.346176
1.325801,120.86476
1.4025692,118.02673
1.3521785,115.076096
1.3227159,119.47348
1.3415074,120.512344
1.2515067,119.59935
1.3192718,120.01552
1.327622,120.12782
1.3073765,121.63584
1.2167805,115.542816
1.2200068,118.76591
1.152798,116.129364
1.1146605,114.12678
1.1448945,117.86206
1.0100431,110.55716
1.0365363,108.510506
0.9370674,106.57704
1.0127426,107.75016
0.977846,106.27397
0.99064857,102.4034
1.0019428,99.93059
1.0001181,98.17485
0.93832666,99.083435
0.9800907,96.654915
0.96371317,98.78138
0.94833827,91.430305
0.87077844,93.79281
0.8983778,92.02828
0.98386604,89.57365
0.9484046,87.40649
0.81649655,89.080956
0.75114566,86.7703
0.75344443,84.10575
0.81504184,82.43473
0.7926356,79.60934
0.7302424,78.47583
0.7750694,80.06803
0.67305106,72.042206
0.62096137,72.07249
0.6769282,72.53545
0.5635045,72.623184
0.6030365,64.74121
0.5787556,68.07134
0.37512437,63.753307
0.55027795,64.96174
0.40007666,62.294117
0.33934224,61.145847
0.25496268,58.685215
0.4250585,59.148994
0.31693262,56.808746
0.3894503,50.57601
0.4234034,52.195385
0.35468894,49.02749
0.36342627,52.837006
0.33138266,47.00736
0.3702169,47.795273
0.45658305,46.176662
0.3191469,43.007885
0.32769388,44.10651
0.40119243,40.0
0.29622313,40.0
0.37006134,40.0
0.2712817,40.368313
0.28705814,42.19898
0.18146259,42.86419
0.24557684,40.097267
0.26949868,40.0
0.15417692,41.731228
0.0873434,41.109474
0.050168496,40.0
0.11762379,40.126717
0.057458185,40.0
0.009633928,40.0
0.0021769272,40.81865
0.13996775,44.192345
0.061058518,41.424118
-0.001082775,46.07223
0.0023349852,44.388462
0.09417127,45.695454
0.18681066,49.422512
0.051885128,54.371807
0.1739755,56.527058
0.39102906,57.3066
0.33280888,57.88934
0.35862198,61.147736
0.454519,63.328724
0.5524723,70.12818
0.5748751,71.332634
0.78143686,75.123375
0.69875014,79.82067
0.74095845,75.28915
0.98116183,83.781876
1.0090806,89.80706
1.0300893,88.141785
1.0833524,91.21616
1.0384299,93.4581
1.2770891,91.759445
1.2472663,99.105064
1.3050303,100.25279
1.3257005,101.711174
1.2427695,108.23529
1.4300297,107.86974
1.3452578,111.57388
1.4165193,113.62128
1.4611247,111.87727
1.553268,114.019554
1.450217,120.240875
1.5820637,116.44044
1.4656333,121.89544
1.4303445,117.49038
1.5443112,119.469536
1.3879002,119.448814
1.4906201,117.155815
1.4321702,118.2307
1.4922682,118.96617
1.5045474,117.712715
1.4115984,119.796265
1.4035579,118.72372
1.4162334,117.81421
1.3670675,115.286064
1.378598,118.41442
1.3968533,110.74266
1.1971452,114.989105
1.3166615,109.48887
1.1668173,113.99241
1.2348232,109.40228
1.2244036,111.357185
1.215685,105.79786
1.1713355,105.137
1.20854,100.0509
1.1567805,105.72003
1.1012241,97.649925
1.2145101,104.58406
1.1556715,97.4873
1.0810002,95.534996
1.1266642,94.314255
1.2168946,93.5034
1.0552524,92.77108
1.0868814,90.697014
1.0866585,88.52969
1.0620012,86.60443
1.1521126,87.537094
1.0794307,80.77593
0.99254155,83.11007
1.0684184,82.9697
1.0169798,79.848625
0.9623943,78.07571
1.0669943,80.475685
0.9673545,70.73007
0.8881555,70.26388
0.900992,73.65663
0.83558196,71.72681
0.8928052,70.771675
0.74593884,59.768417
0.650352,64.192795
0.77310765,63.02309
0.8788416,62.87352
0.62810075,55.395317
0.6599515,57.13162
0.66580874,53.28432
0.6652239,52.202717
0.5725101,51.170918
0.6752399,50.107315
0.6394274,51.905533
0.60247594,46.505013
0.7138258,46.95508
0.71420026,44.143738
0.63409084,47.11481
0.65179586,41.040497
0.6459759,41.791096
0.66998345,41.736786
0.5952373,41.084957
0.6921234,40.0
0.4974009,40.0
0.5574106,40.0
0.48009643,44.44251
0.4076162,40.0
0.48401394,40.0
0.5095626,40.0
0.3386226,40.0
0.3740521,40.594265
0.40145558,40.42682
0.2966864,42.409332
0.48569342,41.859882
0.36678532,40.0
0.3372996,41.302166
0.38314748,44.15344
0.3738216,43.934208
0.3839262,48.35245
0.37122646,50.458828
0.5557134,52.068542
0.48996544,49.710354
0.54747653,59.87646
0.73160577,58.3984
0.80034393,64.180664
0.7724862,67.2409
0.81950927,70.30544
0.90821683,69.88039
1.0869668,68.54933
1.1115139,75.13355
1.2144077,78.783676
1.1227244,84.06193
1.3370105,83.86071
1.3966397,89.46032
1.4577112,91.14756
1.574962,90.83463
1.4982289,89.93654
1.6197366,96.93623
1.711849,98.4758
1.7965683,100.38293
1.6913582,102.23673
1.7989498,111.346405
1.7755826,110.467384
1.7987814,115.14724
1.9171999,115.9587
1.8051559,112.29809
1.8263209,120.32401
1.9253329,116.114
1.8716853,119.63724
1.9022363,117.75725
1.8609095,120.03874
1.8090366,117.12696
1.900222,122.22088
1.814823,116.31247
1.8857727,117.41279
1.8240695,122.799675
1.7753038,120.966805
1.8085904,117.8794
1.776717,117.194756
1.7160536,116.50791
1.684048,116.42414
1.6862512,117.9545
1.6216133,115.93778
1.650268,112.771835
1.6578695,108.99594
1.5938773,112.371895
1.6072639,111.54537
1.5074863,107.74099
1.5707439,106.21883
1.4671504,107.295364
1.6663247,103.35747
1.5835655,99.41037
1.5008037,100.04295
1.5257843,98.39775
1.4178166,96.33203
1.4920933,95.41054
1.428077,91.51046
1.3985349,96.20317
1.4483755,89.32963
1.4233643,91.014046
1.4418067,90.76012
1.4542841,86.178734
1.4463522,81.382576
1.3281176,85.61833
1.4199575,77.21017
1.3284934,76.50889
1.3831849,78.679375
1.2824472,80.64484
1.3323659,73.16654
1.2363818,77.66943
1.3181164,68.10458
1.1693192,71.07509
1.1929255,67.137146
1.078927,70.307915
1.0548139,64.704834
1.0783279,64.32843
0.9699953,64.82597
0.9062806,63.72525
0.9507579,61.940094
0.9127227,54.76549
0.93831825,52.91812
0.83332014,55.75502
1.0036798,48.5261
1.0066644,47.625046
0.90350795,53.56471
0.9378772,48.949112
0.9384522,45.76011
0.9712897,42.123653
0.95504683,45.27512
0.9452043,42.924522
0.868642,40.17426
0.7563544,44.89437
0.8103495,40.0
0.91548014,40.0
0.8709342,41.52837
0.80438733,40.0
0.7769315,40.0
0.61524504,40.41508
0.7853827,40.0
0.66196424,40.0
0.52489895,40.0
0.6432774,40.0
0.613364,40.0
0.58326274,40.0
0.47845346,44.83874
0.5852857,42.24645
0.41496527,43.627495
0.52890635,43.013275
0.6251965,48.120934
0.60158294,53.12328
0.70204574,50.31393
0.676889,52.663925
0.7045509,55.77466
0.8151444,57.509415
0.77400106,60.566372
0.89651304,59.347614
1.0086414,65.99743
0.9985234,67.77433
1.2694665,71.54514
1.072613,73.94312
1.3201776,73.09637
1.3952127,81.189674
1.500258,86.011055
1.4913529,82.099464
1.5495578,89.73678
1.6225015,91.13221
1.6692355,94.26392
1.816863,95.06988
1.7385641,100.95877
1.7700753,102.88891
1.8822439,106.283264
1.8026025,105.78351
1.8428138,111.34623
1.8168648,111.16343
1.8537405,109.99455
1.7831388,109.93407
1.878111,114.79474
1.8636034,117.214584
1.8725724,122.42034
2.001571,122.18575
1.8923643,119.26189
1.8746585,116.29927
1.9052219,120.933975
1.8494979,123.90847
1.9189782,117.96029
1.9354676,122.91674
1.7641232,116.41092
1.8334213,118.01585
1.7687321,116.283
1.7723285,114.50912
1.6970676,116.111244
1.6927495,118.67607
1.6381108,116.35302
1.7366483,113.09433
1.6648308,113.733894
1.5146648,110.64862
1.4838493,107.465706
1.4778831,104.38762
1.540458,109.16858
1.3976002,103.89026
1.5401088,106.442345
1.4375892,99.9339
1.4577744,98.92317
1.3997644,98.981895
1.4618005,98.38543
1.3403757,96.50956
1.3993615,94.18761
1.334915,92.65004
1.3949587,89.34695
1.3719298,88.87487
1.3099079,87.58732
1.2295583,87.18604
1.2411311,82.10578
1.165007,81.976364
1.2366779,79.56948
1.2524334,76.79847
1.1946366,79.9843
1.1850855,77.84004
1.1262696,73.69865
1.1043329,72.393456
1.1121999,71.749855
0.97356945,73.16149
0.9603808,71.64131
0.9960601,67.86771
0.9079445,59.895393
0.8146813,63.996693
0.869472,59.659885
0.75247556,59.04234
0.8760501,61.687416
0.7200437,55.98829
0.745048,53.39325
0.75422585,54.76576
0.70725834,52.225494
0.7664778,48.480446
0.67421144,48.618042
0.7656694,49.406044
0.71550125,49.58059
0.6382542,43.753323
0.80895466,44.77914
0.6005238,45.79131
0.6772373,44.065727
0.6254172,40.0
0.64711076,40.0
0.58616734,41.413948
0.56474024,40.0
0.5640548,40.0
0.50537574,40.0
0.41170055,40.0
0.43987355,40.0
0.3378294,40.0
0.3621023,40.0
0.4023157,40.0
0.26769146,40.0
0.31454548,43.151134
0.2021767,40.0
0.27131835,40.0
0.2969626,40.0499
0.2371914,46.986134
0.32060638,47.41478
0.2903867,45.72372
0.32664013,49.66167
0.322528,57.03867
0.41176617,55.1647
0.46880114,59.971672
0.5439285,58.842358
0.5506943,64.82729
0.64107263,63.344704
0.755506,69.66148
0.8026709,66.642395
0.86885804,76.1046
0.9580995,73.66488
1.092517,76.74739
1.0682608,85.0104
1.1663144,83.458824
1.1648021,88.21676
1.2228255,92.82861
1.2183594,91.971664
1.3838437,98.535095
1.3667971,95.82464
1.3563375,98.64552
1.4876287,105.59045
1.4704812,107.647255
1.5271207,107.72836
1.5416741,113.255875
1.5853997,111.72976
1.5400685,113.437065
1.5001932,117.00101
1.4734302,115.200806
1.514036,118.27955
1.5219536,118.4757
1.5005776,116.65204
1.6031641,122.35948
1.6195815,116.29645
1.5646536,116.52545
1.5391953,116.450714
1.5707983,116.574
1.4694482,119.45681
1.3540299,116.92723
1.4108514,114.79945
1.3853849,119.06981
1.2631459,118.48373
1.4021112,118.85197
1.3660679,114.43789
1.365185,113.11247
1.2752246,112.564
1.2815732,114.72016
1.1936792,107.94544
1.2606742,111.607
1.1841471,106.10775
1.0673666,105.35937
1.1106633,104.3367
1.0392177,101.20499
1.0742679,100.17304
1.0442979,100.77355
1.0786463,98.22712
1.0432132,97.38614
0.89777607,98.22989
1.0718638,95.74607
0.94160146,87.917015
0.9534058,92.42205
0.9661405,85.90627
0.9417898,84.65643
0.8087057,87.796394
0.95392203,81.96732
0.9292884,83.29637
0.7823693,81.16982
0.8064094,75.13394
0.7733503,76.751076
0.68459576,76.01935
0.77334785,73.12452
0.7223825,70.7911
0.61362725,70.59285
0.51767284,71.93754
0.5759117,66.52467
0.49885678,62.828716
0.5130521,63.302124
0.3964948,63.60893
0.51156545,60.458298
0.48497504,59.452686
0.27963227,58.752354
0.3871419,51.137714
0.3597193,54.263336
0.39287534,51.013393
0.31960198,50.190872
0.29948053,48.362732
0.28731802,48.54713
0.37846714,45.86344
0.28473136,44.653847
0.34179428,41.658867
0.29522684,45.112354
0.3952427,40.0
0.35838172,42.57226
0.30626488,40.0
0.2165469,40.0
0.19004358,40.0
0.23327747,40.0
0.18045883,40.0
0.2570753,40.0
0.110478535,40.0
0.059700858,40.0
0.104636386,40.0
-0.040847518,40.0
-0.025277356,40.0
0.03990616,40.0
-0.053898115,44.981728
-0.072121724,40.0
-0.035366196,42.16623
-0.035906,44.344414
0.033510566,45.59085
0.06446972,44.860783
-0.06392661,47.33765
0.04197192,52.628056
0.10906409,57.217705
0.060896907,57.81929
0.2317794,59.2268
0.28302056,62.359974
0.3034576,64.586815
0.5247762,66.191086
0.45120454,67.07173
0.52947116,71.94059
0.6751134,73.14594
0.8085788,79.175644
0.8947156,79.18125
0.92719567,87.19934
0.9388744,84.85505
1.0750444,87.78917
1.132034,89.43194
0.9547392,95.232956
1.2062838,97.6131
1.2075765,99.50012
1.2959306,106.55211
1.3134872,104.02813
1.3845936,107.13122
1.3574113,116.009865
1.3510237,111.407074
1.4313557,112.94876
1.4064738,112.85628
1.4278686,116.329315
1.2927306,117.53012
1.3404742,121.738625
1.4391897,122.28755
1.3664616,120.76598
1.3496425,120.09968
1.3694338,118.156235
1.3311516,118.74029
1.3605344,120.529106
1.3275552,125.92884
1.3114182,116.32858
1.3049018,121.91315
1.270134,120.08387
1.152051,118.62084
1.236744,113.33037
1.1851395,117.879654
1.1924781,118.27797
1.1366538,114.322945
0.98892283,113.02312
1.0849379,112.75597
1.0678478,108.6312
1.0878949,105.17005
1.0349767,106.37631
1.0296686,106.32746
1.1384153,104.252785
1.019568,98.229546
0.99252826,102.11709
0.951003,98.25609
0.91256416,94.82924
0.9743323,95.79054
0.85143423,92.59311
0.96060246,87.94912
0.9280503,90.66982
0.94276404,87.40587
0.8954261,87.675514
0.9800683,86.62198
0.73785573,85.733665
0.89524037,80.157486
0.8719353,81.24777
0.7768784,79.69992
0.74748117,76.24538
0.6110346,75.18888
0.75042415,70.61528
0.73185056,73.251495
0.6132346,72.33754
0.5364278,67.71334
0.5574052,66.616776
0.5866286,65.46661
0.5505665,65.84401
0.5663943,60.575592
0.5208109,58.633263
0.56533754,62.534695
0.40981054,53.282845
0.52171034,60.749584
0.4636225,55.219425
0.41637695,52.293655
0.5836457,50.665554
0.43692225,48.131344
0.43473503,49.241753
0.47601846,45.409294
0.46696028,44.048183
0.48221657,46.542274
0.4399445,42.19338
0.47825447,45.8866
0.43762398,44.685833
0.48985526,40.0
0.38872203,40.0
0.36790347,40.0
0.4233154,40.0
0.35741183,40.0
0.30506858,40.0
0.21333738,40.0
0.34545574,40.0
0.30993587,42.114918
0.25358537,40.0
0.13182493,40.0
0.12573993,40.0
0.14050615,40.0
0.19471526,40.0
0.14659937,41.917084
0.21456312,41.247395
0.15346707,42.010124
0.15176117,47.1493
0.21979424,42.60066
0.17945944,49.607853
0.22312562,56.996433
0.3161796,55.82012
0.37850347,61.123768
0.43748906,67.10175
0.60999197,61.90569
0.6551996,69.3936
0.68087274,68.007256
0.878616,67.82283
0.94272137,72.23032
1.0470641,80.534424
1.0051365,80.80877
1.0939256,83.53738
1.2158148,87.29136
1.2892234,90.410545
1.2391924,91.44978
1.3241296,97.07248
1.4549617,95.640915
1.5520484,100.37884
1.4891444,103.183136
1.6423944,104.19499
1.5861409,107.675285
1.6265967,106.80991
1.5752648,110.78945
1.5953351,112.27864
1.653607,114.56597
1.6331114,114.181526
1.6139386,116.43666
1.6511136,118.67193
1.7813361,119.54017
1.6466678,113.582054
1.5831599,118.35935
1.7497745,116.257164
1.7005384,119.83793
1.6880268,116.3047
1.7298579,121.92466
1.6793138,121.11968
1.6207035,118.032425
1.5321201,120.28673
1.572957,119.45256
1.5494914,116.1081
1.5372285,112.440834
1.458557,113.959915
1.4944357,112.41534
1.4479486,112.3443
1.5002991,110.76769
1.2564113,106.41405
1.3380564,104.303246
1.3959454,106.41264
1.4179834,105.6988
1.4043729,102.27702
1.2609569,106.91952
1.2346408,100.323845
1.3379973,96.19661
1.2889072,100.01121
1.2961912,96.38585
1.300546,93.48332
1.308343,92.76833
1.2555156,95.018326
1.3120695,91.0787
1.3396223,87.59642
1.2845408,87.41099
1.3201971,84.4053
1.2451004,83.74508
1.2101831,84.604706
1.2345555,81.24917
1.2694567,78.01444
1.1764189,76.8828
1.1262707,77.20267
1.1484257,71.39737
1.08713,69.46927
1.0155925,68.20083
0.9500801,69.761856
0.9334956,67.666046
1.0185622,66.69773
0.88712126,62.009136
0.92215395,59.725643
0.9554128,59.77192
0.876113,60.777893
0.8579764,58.509315
0.76740104,58.81978
0.7725488,52.100777
0.85779244,52.242054
0.80859256,53.019375
0.77051634,48.45924
0.92876005,46.094616
0.84919375,45.72511
0.78838426,41.82717
0.7645641,41.0742
0.78169566,43.790455
0.837334,42.40226
0.79122806,41.12262
0.80875164,42.661
0.7787744,40.219994
0.75681376,40.0
0.80053896,40.0
0.65780604,40.0
0.55740976,40.0
0.6367432,40.0
0.6332027,40.0
0.6125204,40.0
0.5702087,40.0
0.5153756,40.0
0.5112815,40.60214
0.43187433,40.504955
0.46131292,40.0
0.5586383,40.345505
0.5038261,40.225655
0.55761373,50.28305
0.5746701,49.2927
0.57297087,52.56647
0.63494927,53.382595
0.73123884,56.849464
0.7371111,57.814213
0.88234925,60.104885
0.9387145,63.117523
0.9004795,68.58927
0.9810059,68.90012
1.1809869,71.523315
1.1143049,73.569954
1.2407448,77.82009
1.2941886,78.6094
1.3758653,81.025665
1.530586,85.83426
1.5959668,85.124054
1.7068099,90.11773
1.6655825,92.604805
1.7295082,93.10259
1.6829969,98.87049
1.7930415,100.52928
1.751372,106.98791
1.7505604,108.15772
1.8043181,105.36984
1.9717518,110.94251
1.935366,112.75553
2.1160839,114.093544
1.9045813,115.63701
2.023761,114.66771
1.981503,120.38479
1.9578925,122.57648
1.9834912,119.23786
1.9376103,119.135254
1.9347755,118.14167
1.8766053,120.09928
2.0444708,121.1851
1.9238224,119.95761
1.9286823,120.9214
1.8887361,120.12294
1.809303,120.71534
1.9015051,115.57536
1.8078244,114.61275
1.7915158,116.84323
1.7703822,114.15446
1.7832357,115.74925
1.7560158,112.05381
1.573129,113.53915
1.6239603,106.821815
1.6900225,112.1354
1.6295124,107.30358
1.6002523,102.50596
1.6661301,104.893654
1.5274215,102.14427
1.462242,101.80616
1.5002303,100.35717
1.4679074,97.26615
1.5372938,94.0601
1.5198828,91.75957
1.4660156,96.09271
1.5333232,88.676476
1.5810332,93.92504
1.4283965,88.27943
1.4298494,80.92403
1.3410403,82.70094
1.3150165,83.29592
1.3686976,85.23667
1.3681403,77.57537
1.3517871,75.45407
1.3651062,80.18309
1.1999854,78.5946
1.3281162,74.882195
1.1009786,74.55789
1.2567439,69.62474
1.0914313,70.10416
1.0207132,69.03365
1.1041219,68.098785
1.065956,62.003014
1.0136123,59.638783
0.9503985,59.088337
0.9099013,60.86454
0.90894896,59.410843
0.8951913,50.96496
0.92308646,53.233143
0.7948075,51.704105
0.83142614,52.574364
0.8611049,52.778996
0.9105171,48.35738
0.81837815,49.015533
0.8471353,45.188766
0.9283428,46.303375
0.7690876,45.561546
0.7597183,40.0
0.8663117,40.0
0.88050383,40.011852
0.85195106,43.092873
0.75944597,40.0
0.7388134,40.0
0.7207439,40.0
0.6419795,40.0
0.58769053,40.31135
0.59844977,40.08619
0.6244204,40.0
0.4852316,40.0
0.48077437,40.0
0.44544744,40.36906
0.46496746,40.05274
0.4871188,42.18549
0.49543795,40.0
0.3845557,44.22777
0.49043334,49.81825
0.57633114,46.560856
0.5570783,51.424683
0.6631001,50.98535
0.55520624,54.084965
0.656666,55.04399
0.6966615,58.967632
0.7901872,61.896133
0.953458,64.23869
0.8061613,69.36089
0.9354561,69.05731
1.0734029,69.89843
1.1688129,74.755905
1.2110237,79.64297
1.231588,82.58498
1.38309,87.18419
1.3639216,86.41974
1.5359528,88.662636
1.507881,92.11141
1.4963543,96.28005
1.6346104,99.93768
1.6519455,100.450714
1.5863471,105.48577
1.7541262,104.39182
1.6784194,111.03112
1.7584682,108.31967
1.658423,114.85479
1.6916472,114.62631
1.6527053,113.37299
1.8331273,114.03455
1.7452879,115.83056
1.6515255,116.3276
1.7630267,119.2628
1.7691376,121.60567
1.8172239,118.41364
1.6930057,118.9983
1.8100834,118.70572
1.6032623,117.61946
1.6347946,116.79476
1.6409051,116.23882
1.6463907,119.15027
1.5932728,117.58374
1.504158,118.608475
1.4768888,112.47999
1.4627866,112.79644
1.4420837,114.02439
1.4304482,114.18365
1.4240221,114.079575
1.4875386,109.18167
1.3514913,108.853165
1.3836752,110.30355
1.383369,103.616425
1.3030887,102.5211
1.2185118,97.407845
1.2103144,102.244026
1.3071051,98.63909
1.1448138,102.09844
1.1568787,97.11983
1.2571851,92.068535
1.1766522,96.10453
1.1902649,90.55539
1.1890025,90.73189
1.1566917,86.60667
1.0803357,87.78031
1.1241744,89.21717
1.050032,84.27733
1.0808179,80.80484
1.0329198,79.91646
1.0292339,75.15167
0.81821585,76.15794
0.9907227,74.03285
0.91955894,70.604225
0.857815,73.248856
0.80098265,70.37527
0.8272207,70.508675
0.7654512,69.28305
0.76974285,66.77939
0.7473311,67.35703
0.63978887,61.505424
0.64188355,61.641113
0.6856992,55.148052
0.59915435,59.43601
0.5344647,56.767555
0.5495557,55.427753
0.55468094,54.286385
0.45129144,49.62257
0.54355264,48.23213
0.5408224,50.589676
0.47625518,47.17992
0.5757393,44.4673
0.47328034,42.974426
0.5222433,45.324554
0.49854103,42.855488
0.5607297,41.808586
0.5223694,41.384483
0.4113138,40.0
0.30568388,40.0
0.39465925,40.0
0.31870767,40.0
0.34016886,40.0
0.21504608,40.0
0.31723857,40.0
0.21159598,40.0
0.102378614,41.032234
0.1541989,40.0
0.03527115,40.0
0.02167267,40.0
0.07691982,44.36351
0.17549163,44.96463
0.057761457,42.81122
0.0901201,47.368343
0.13636088,48.878246
0.09525421,50.85971
0.1787842,53.24659
0.1844389,52.57905
0.25573626,56.743668
0.2465899,55.240273
0.37609592,61.19817
0.4058895,64.74766
0.4407995,68.155205
0.6730644,68.75092
0.6673009,73.16284
0.71424586,76.4489
0.7958757,76.73936
1.0101119,81.50041
0.9423014,82.564156
1.0210868,85.41263
1.011834,90.339195
1.1467837,91.33413
1.1211674,95.30874
1.1790774,97.84964
1.2097452,97.01311
1.2809279,102.05912
1.375954,105.73336
1.3111602,108.277084
1.3867254,106.51667
1.2944559,111.114494
1.4115295,114.68748
1.4863688,115.31867
1.4276595,113.16781
1.3215846,115.36593
1.3914976,118.3997
1.4510031,119.40167
1.3721346,119.205284
1.317185,123.086006
1.450104,121.753944
1.4098299,120.21037
1.4563031,121.594536
1.4585837,121.58051
1.3256018,124.10626
1.2336042,119.38243
1.2635727,121.12495
1.2251012,119.81218
1.1494256,117.631836
1.2524585,115.54665
1.2195808,113.30008
1.1524197,113.82149
1.2149361,111.17434
1.1077828,112.518524
1.1512393,108.08859
1.0082237,110.59895
1.0427432,109.40214
0.9394399,107.22156
0.8888534,101.66875
0.8477116,101.74372
0.925764,96.3429
1.0162472,97.30806
0.882881,97.8149
0.9640976,96.771706
0.8611918,92.39051
0.7610771,88.286575
0.8663481,89.02791
0.88498783,89.78395
0.8624296,85.8645
0.87407887,88.704834
0.85892856,85.10279
0.8620281,81.92621
0.6479853,82.39045
0.7769139,83.3177
0.68223715,71.04894
0.6824338,73.756905
0.61567456,76.3299
0.71491206,74.97574
0.63598675,70.01119
0.6060956,72.59399
0.6249761,68.32956
0.39502558,69.75833
0.42320803,66.02033
0.4110048,62.131954
0.34194818,60.834206
0.4160734,59.8243
0.36367017,58.82744
0.43410304,59.14997
0.42157304,54.909164
0.5158127,53.831844
0.3973924,49.757896
0.33003306,49.845306
0.27723297,49.669353
0.34940895,43.48849
0.34050822,44.744114
0.41618252,46.792526
0.3796384,44.179363
0.32145074,43.052284
0.3081197,42.106342
0.21763244,41.368553
0.3686269,41.65327
0.2826653,40.357967
0.27377927,40.0
0.23746817,40.0
0.23732094,40.0
0.1927794,40.0
0.09727505,40.0
0.07104937,40.0
0.06776838,40.255077
0.06120853,40.0
0.021331564,40.0
0.0031208352,40.0
0.04097233,40.453957
-0.003453542,40.366756
-0.003431604,44.90785
-0.02464145,42.470173
0.1571178,49.81104
0.070188895,48.258106
0.1277245,55.086018
0.117481776,51.101074
0.25890926,55.98735
0.20951372,59.20229
0.33969197,58.10444
0.33495405,64.12291
0.4402944,64.626236
0.51612467,69.70018
0.61714894,68.44526
0.59116316,75.91648
0.70311254,76.47243
0.9019464,81.15939
0.9154395,83.33429
1.0955997,91.59339
0.97773206,88.474236
1.0310923,91.981026
1.1161517,93.35033
1.3035766,99.74074
1.2808511,94.43064
1.2762163,105.287766
1.3623711,103.26418
1.4053563,107.289955
1.3555206,110.320145
1.4551004,112.36682
1.4432502,113.69054
1.3821511,115.11326
1.3933797,118.98532
1.4251144,116.41051
1.4440473,113.516396
1.4702785,116.39005
1.5095053,116.75599
1.5043585,123.48065
1.4736913,120.511826
1.4102447,118.378365
1.3462098,118.824524
1.4217097,120.00887
1.3452489,114.76557
1.4243728,114.45348
1.3538412,116.12118
1.3365511,121.51809
1.356056,114.813675
1.3236332,112.547226
1.3158865,116.41393
1.2333531,118.97566
1.1795785,115.82677
1.2516913,115.53058
1.1364263,106.05922
1.1476933,109.21508
1.1593581,106.20367
1.1586056,106.229744
1.0993338,103.67809
1.0604241,100.78476
1.1694015,99.27495
1.0832231,104.01024
1.0837299,98.963165
1.0314893,97.82929
1.0994405,92.53535
1.0804397,88.15403
1.0686274,85.89957
1.0826876,89.6473
1.0998824,88.720215
1.0084313,83.06689
1.0597581,84.9373
1.0085642,83.7474
0.9987234,76.67255
0.9987618,81.34059
0.9490368,78.95239
0.9261164,73.2909
0.9511766,76.48254
0.8536808,76.71142
0.84761333,71.19022
0.85167575,72.79714
0.8729676,67.80001
0.76131713,65.85436
0.70905674,63.787846
0.7576447,61.621536
0.7339172,62.142895
0.6288977,56.248215
0.6127656,60.225697
0.6135069,58.864674
0.76126325,52.837536
0.6474416,53.624146
0.5377075,53.007866
0.6014847,49.31904
0.671786,48.437077
0.6826846,50.64507
0.6675337,46.32821
0.60586095,43.773056
0.5750421,40.0
0.56683564,43.69766
0.620965,43.082993
0.6135693,40.523205
0.63822937,42.667732
0.60428673,40.0
0.46450114,40.0
0.52010405,40.0
0.5523007,40.0
0.5260387,40.0
0.4516632,40.0
0.45957,40.0
0.42291546,40.0
0.4168049,40.0
0.3342133,42.893135
0.29156348,40.0
0.3226937,40.0
0.40193573,40.0
0.39788857,41.27875
0.24670014,45.098663
0.4753159,43.40593
0.3344088,49.610615
0.44575396,50.548294
0.4080031,51.20319
0.5773395,54.809647
0.5993116,54.394436
0.6126808,60.65813
0.7035828,61.84484
0.77498007,65.87486
0.8821534,67.78396
0.8919462,71.81296
0.9923826,75.421135
1.0883363,78.1792
1.3035028,74.76854
1.297413,81.5511
1.4158916,83.34254
1.3996906,87.7493
1.5014381,90.83282
1.5617679,95.5992
1.5797005,92.97084
1.6590984,99.439644
1.6973082,103.39869
1.7329345,102.857796
1.7558542,107.219086
1.8377974,111.02067
1.813343,112.93649
1.8298854,110.64185
1.7557595,113.66622
1.8525524,112.600464
1.8142575,111.69218
1.8511362,111.94438
1.8116428,118.5482
1.8872511,119.48888
1.765289,118.12345
1.8220648,118.040054
1.8512231,120.15249
1.8358922,119.66501
1.7441859,122.03599
1.8147286,122.29528
1.7196463,119.00588
1.766701,116.919556
1.7389921,117.51806
1.7768227,116.05875
1.6732938,119.581985
1.7041723,113.3107
1.6277522,114.99067
1.764339,113.91505
1.5162593,111.73497
1.589292,111.660866
1.5961068,109.31121
1.5462254,112.17989
1.5536596,105.8393
1.5632732,101.62091
1.4885958,105.843155
1.5808301,99.76172
1.4941784,96.59092
1.4340844,99.17354
1.438068,97.20081
1.3900754,98.36728
1.4398137,90.99882
1.4530724,90.97876
1.4910461,89.72105
1.5067173,89.378075
1.3696225,90.680756
1.375348,85.70368
1.3955854,82.55228
1.3759483,81.73187
1.3555907,79.46192
1.3341717,76.23624
1.3299445,76.87891
1.3481014,73.77328
1.1810011,75.80033
1.2246064,69.814896
1.2005209,69.86173
1.04006,69.8324
1.0804604,66.55536
1.0689002,66.27134
0.9999638,64.44324
1.0858219,60.26115
0.96372473,63.308964
0.94860226,62.389713
0.95815283,53.24752
0.9163527,55.016647
0.9408286,53.172443
0.9732506,52.94985
0.8428341,48.3148
0.91393423,50.607033
0.9130514,48.990623
0.9432724,43.315468
0.8909349,44.066418
0.90769964,43.999386
0.8879774,41.90834
0.9236962,44.350296
0.9522126,42.57068
0.8051196,40.0
0.9035462,44.947277
0.8750752,40.0
0.8271043,40.0
0.7311044,40.0
0.75286597,40.0
0.7533368,40.0
0.68557215,40.0
0.6027802,40.0
0.7090145,40.0
0.7298079,40.0
0.6656413,41.281662
0.6432557,40.0
0.5862175,40.0
0.5082971,42.75972
0.43908146,41.371754
0.6563003,45.733936
0.6196902,49.386143
0.6115798,43.79052
0.6718171,53.85075
0.8020388,59.404644
0.689804,56.46614
0.9203987,56.640156
0.9208937,56.85939
0.90092397,63.535202
1.1383517,64.82778
1.0650771,69.37956
1.2594063,69.25249
1.2317655,74.546616
1.342669,76.76553
1.4084283,76.16744
1.4838736,85.148415
1.6534964,90.00638
1.5125837,92.19871
1.6566821,91.30649
1.6567702,96.810005
1.6833177,96.043465
1.8105513,99.15275
1.8748014,106.12526
1.7637589,109.323906
1.892311,107.032265
1.921379,114.75128
1.8697973,113.23397
1.9332328,113.53649
1.8277857,115.152954
1.8729621,118.701836
1.9505817,118.03747
1.8986145,117.80494
2.0129051,120.977264
1.8802174,118.89111
1.8483717,118.933395
1.8033407,118.71559
1.8676362,114.902725
1.898722,120.426834
1.9403739,119.71442
1.8734823,117.63105
1.9348402,119.74026
1.8146086,115.65967
1.8433576,119.985085
1.735795,113.67198
1.6912624,117.71559
1.755646,112.59808
1.6480557,114.338776
1.515451,113.49662
1.6018225,112.70274
1.6431303,113.0977
1.5978417,110.312485
1.4877082,108.430756
1.4065117,103.75897
1.4565197,100.81831
1.4933509,99.92596
1.5190518,103.449196
1.3769475,99.90444
1.4251225,98.0966
1.3926067,94.0692
1.367258,95.557816
1.3900268,92.01564
1.3872948,85.00828
1.2621721,89.936806
1.2814959,88.944405
1.2478828,83.95581
1.3433148,86.51304
1.3756549,86.15663
1.2684122,77.33851
1.2511501,77.11577
1.1684984,78.76333
1.1633213,75.010765
1.0386999,75.08636
1.0875851,73.80961
1.0167817,72.79786
0.9895759,68.51531
0.924919,71.248985
0.93345964,65.43083
0.8529739,65.02828
0.9178926,63.321712
0.7952112,60.725193
0.816247,61.92611
0.7700098,59.766792
0.76245,55.594124
0.8225133,53.987843
0.7622324,50.443325
0.7306402,50.10219
0.85377187,49.37364
0.67253286,51.096825
0.6793541,48.766785
0.6528753,47.20081
0.75164545,47.124035
0.70731044,47.4822
0.7634466,42.24691
0.6820689,43.345104
0.61504364,40.492657
0.5550725,41.907803
0.5631586,40.0
0.571716,40.0
0.599691,40.0
0.44556254,40.0
0.42653266,40.0
0.44307572,40.0
0.45904493,40.0
0.36827755,40.0
0.27461284,40.0
0.3939539,40.0
0.21749528,40.0
0.2179541,40.0
0.23268516,42.663727
0.24578777,45.78363
0.20587282,46.270115
0.36269474,44.171425
0.3415794,51.43035
0.30906504,53.381397
0.34136125,53.91543
0.5076675,55.69317
0.6264824,59.54249
0.56879693,63.89127
0.64473945,63.953644
0.7603414,66.773994
0.7171696,68.70424
0.8726296,72.100334
0.95594096,75.18076
0.9598195,81.03103
1.0769218,81.50776
1.1295848,85.50381
1.2073969,83.560974
1.272466,88.99536
1.4121101,93.18866
1.3002664,98.36755
1.3680706,98.9184
1.5579367,103.91477
1.5662631,102.624084
1.4945219,105.76052
1.6376026,107.637085
1.5858866,109.95191
1.5836546,113.23634
1.5777457,111.168175
1.5828317,113.53279
1.5163444,113.7267
1.5384296,115.73084
1.6182988,118.96733
1.5348887,122.330765
1.4895798,118.34085
1.6347333,120.77242
1.5924577,121.128654
1.5148181,120.82358
1.6211509,117.99371
1.4853272,119.243385
1.5091649,114.31938
1.4236739,115.83594
1.4075179,119.88811
1.3943748,116.51091
1.359499,117.75985
1.3849849,116.51781
1.3048865,116.05543
1.2466375,109.932976
1.3109448,112.01893
1.1909709,111.758415
1.1492478,108.36645
1.1414928,111.998825
1.1787041,108.92569
1.0806644,104.28183
1.0649487,103.33821
1.1047255,98.954704
0.9365599,101.320045
0.99700654,94.17559
0.95904166,97.79538
1.213907,97.81916
1.0982274,91.56339
0.8935173,93.01634
1.0555952,90.16471
0.9798739,89.23482
1.0016687,85.80513
0.97000057,88.565056
0.9714315,82.87499
0.7269073,81.98574
0.85326123,80.91048
0.94343555,79.215836
0.73177755,79.945244
0.73384774,75.77537
0.8733857,75.300735
0.7487205,74.619354
0.6764872,70.12387
0.5285422,69.532074
0.6652075,70.30272
0.58702046,68.120964
0.57217836,65.49522
0.450701,62.539104
0.56942236,60.62804
0.43389148,60.755684
0.40183344,53.85225
0.40158388,55.717926
0.3338552,56.64952
0.44582063,53.145657
0.46047166,48.958668
0.43485028,53.55731
0.31044,51.94939
0.29875124,44.401417
0.3478124,44.217346
0.3369281,44.487877
0.41206327,44.21749
0.30759242,45.782654
0.31418058,40.0
0.27278692,40.20841
0.24314076,42.08121
0.3595341,40.94145
0.22668205,40.0
0.29274446,40.0
0.23544866,40.0
0.1764682,40.0
0.062141225,40.0
0.055641126,40.0
0.041993473,40.0
0.0968463,40.0
0.0057407,40.0
0.016961684,40.0
-0.03917205,40.0
0.03979164,40.0
-0.11741123,40.0
0.0072089233,47.888954
-0.042030342,44.714054
0.0010453063,50.77128
0.0670217,50.44723
0.13817462,52.88039
0.18532717,53.86393
0.19206059,56.660866
0.20760329,64.01568
0.36290285,60.151398
0.33711874,63.544052
0.5720661,66.7974
0.5653678,70.21073
0.69876885,76.929855
0.7469929,75.28266
0.82112116,79.01435
0.9205343,84.594154
0.834264,89.53063
1.0238444,85.49308
1.0534741,89.8891
0.9648843,99.19004
1.1471739,98.28461
1.140634,97.0592
1.1973009,98.76987
1.2322669,105.48379
1.3157592,110.90752
1.3638833,107.36642
1.3640956,111.19399
1.3611476,111.721245
1.2840196,112.42976
1.2892351,114.39437
1.4073004,115.52544
1.3579232,119.21321
1.3119946,120.05923
1.3396802,119.90127
1.3056725,119.35256
1.4630872,119.635315
1.3295503,121.681816
1.358183,121.93773
1.3459293,121.87829
1.3085698,119.81042
1.3049558,120.08216
1.1947416,118.96809
1.1998756,114.37208
1.3149955,117.89155
1.2410347,116.002174
1.1589539,116.14412
1.1746657,114.92668
1.2341095,112.38427
1.1554984,111.50547
0.95656,104.86428
0.95824635,110.59533
0.9235606,105.19998
0.99478334,104.508286
0.9107903,101.84634
0.94035304,102.74682
0.8917685,102.39016
0.9456951,96.21489
0.9580521,96.32683
0.98031414,96.25732
0.96645254,93.15152
0.9115174,93.31073
0.92014533,87.74127
0.8994608,81.61224
0.89480364,90.58817
0.7659831,85.99876
0.8864745,89.082405
0.88577133,84.3975
0.9311541,83.38375
0.7597542,79.33095
0.8989574,78.51695
0.6807997,77.1465
0.7981243,73.3928
0.76491076,73.433205
0.7722499,70.73062
0.57884705,72.68016
0.6345909,71.298195
0.5107994,66.45625
0.5893237,71.93036
0.5898642,60.772152
0.4371676,61.176147
0.4996687,60.44213
0.48769468,62.46832
0.49969846,54.51816
0.5049537,54.219975
0.28784806,55.222343
0.4697367,52.412853
0.503368,50.87651
0.43832937,50.252453
0.51184326,47.894276
0.45575175,47.48505
0.35465485,40.0
0.37649485,41.445614
0.5438332,44.17724
0.4001567,40.0
0.49013335,40.0
0.3879331,41.43859
0.3123852,40.0
0.40471894,40.122375
0.23956123,40.0
0.21617046,40.0
0.3059076,40.0
0.31121358,40.0
0.16920236,40.0
0.23298992,40.0
0.27554312,40.0
0.13144961,40.0
0.07035888,43.68944
0.09394639,42.142754
0.10352593,42.09139
0.14355373,43.41623
0.1921392,45.88408
0.13469997,46.700485
0.2272339,49.975662
0.11219555,46.066616
0.23621358,55.611565
0.2830787,53.02953
0.28696185,55.638775
0.4138715,60.282455
0.5413973,63.89715
0.5753415,68.36658
0.6585922,67.67245
0.6825239,71.970345
0.7732346,70.09578
0.9143022,76.86133
0.8856375,76.708824
1.0723796,81.30036
1.1888455,87.30996
1.1934986,90.16633
1.2071584,91.39084
1.2101266,93.21481
1.3330365,99.389275
1.3829491,100.2084
1.5341005,103.43457
1.515376,100.21066
1.4669019,108.64483
1.5278171,109.937485
1.5876552,116.42995
1.4794853,112.1761
1.5822773,117.427765
1.5400776,115.64627
1.6760689,117.552734
1.6687764,115.985405
1.6960367,120.68527
1.5943172,115.7228
1.6462886,117.61865
1.6073388,121.114006
1.6687788,120.07375
1.6037033,120.2419
1.5780342,126.40686
1.5806332,121.48055
1.6471933,121.31445
1.5744088,116.08136
1.6915177,114.8035
1.4852607,119.18158
1.3427564,118.916756
1.4249995,116.20967
1.403084,116.10717
1.4742188,111.304756
1.4031454,111.303154
1.3923129,108.61323
1.3121612,108.45891
1.4005008,108.93221
1.4020616,106.67559
1.3250989,108.03653
1.3195933,101.59001
1.255058,103.32481
1.2884717,99.27737
1.2767344,91.135475
1.4592535,96.27484
1.2567405,98.845665
1.3817867,90.69238
1.3198199,89.41765
1.2421383,89.73815
1.2946179,86.102585
1.2888554,84.50447
1.298925,85.64024
1.3245414,81.579285
1.18424,77.790184
1.2728574,81.82938
1.2276548,79.19042
1.0801417,77.69455
1.106555,75.69773
1.0992554,75.35291
1.1117815,69.40507
1.0376011,70.32219
1.0015762,73.06021
1.0839695,71.00376
0.8573857,70.12993
0.87970763,66.53747
0.9190023,61.188644
0.8714031,55.426357
0.79569656,59.07999
0.838518,55.54212
0.7941062,53.6192
0.73366326,54.931362
0.850451,55.046387
0.77027667,52.430622
0.7890907,48.496647
0.7307614,50.67314
0.8552068,47.06661
0.7674559,45.425713
0.7794835,47.37185
0.8236331,43.05484
0.8245615,41.763935
0.7163752,40.378056
0.74370235,41.168694
0.7460628,40.243553
0.7702893,40.0
0.7738026,40.0
0.6936169,40.0
0.6553025,40.0
0.6490854,40.0
0.55661565,40.47552
0.64524376,40.0
0.5468572,40.0
0.5668954,41.918034
0.38131493,40.0
0.54546624,40.7042
0.46913975,43.718456
0.4065243,40.0
0.4722227,44.88671
0.48097846,44.73892
0.49924764,44.254707
0.58285576,45.128296
0.6262828,51.33868
0.62642956,51.840614
0.7651606,60.02701
0.7145205,56.072292
0.91616553,59.86477
0.9075927,65.32841
1.0351037,69.90174
1.0646508,69.83902
1.1528821,72.33455
1.2809471,71.77046
1.1945466,76.57567
1.3193223,75.61051
1.4584638,85.191536
1.521373,85.95068
1.5958247,90.30838
1.5678174,90.0503
1.6622956,94.666275
1.7439173,96.83747
1.787095,102.298195
1.7715652,104.56794
1.8056982,104.33488
1.8876984,108.91206
1.7898808,111.2091
1.8245553,111.552666
1.8798288,115.92315
1.9114952,113.2141
2.0073357,115.01282
2.0514152,118.452354
1.9453125,119.28985
1.9072573,118.71778
1.9651755,120.076096
1.9599179,121.24079
1.8923297,117.47773
1.8649957,119.93261
1.9790583,125.10731
1.9191056,121.24926
1.8518592,120.085014
1.8292067,119.562485
1.8413097,114.49427
1.7704866,114.82307
1.8739336,115.85165
1.8155816,114.89813
1.7878724,111.73692
1.7449075,112.32072
1.7684307,114.50717
1.576363,106.52886
1.6016862,110.95397
1.5697011,107.79449
1.5916767,107.411606
1.6312479,106.18716
1.5790819,103.628075
1.588862,104.06134
1.5000527,99.35324
1.5162619,100.68398
1.5014838,97.426125
1.5761052,92.836235
1.5566648,93.01251
1.5270623,97.71888
1.4790719,90.661446
1.5100754,86.23524
1.4971443,89.21004
1.4163849,83.43244
1.4040468,83.693886
1.4229994,76.79368
1.4291817,78.009476
1.340509,82.127594
1.4057328,82.617935
1.2560484,76.628876
1.1020257,72.00109
1.2319897,75.39316
1.1628398,68.15546
1.1848814,69.481094
1.1470786,69.05714
1.0288835,68.511925
1.0683036,68.43649
1.1190099,59.617397
1.1234412,67.478264
1.0031992,57.246616
0.7905828,58.561672
0.9067067,60.52021
0.91842735,54.03119
0.8811934,55.546608
0.83919185,50.26947
0.96254855,47.464485
0.8349626,50.272785
0.8937775,52.132084
0.8336271,42.094757
0.92827266,44.60578
0.85664535,42.68119
0.87410104,43.123474
0.8546819,42.97208
0.86841446,40.0
0.84359854,40.0
0.78972816,40.0
0.7609133,40.0
0.7223878,40.11876
0.68560815,40.0
0.7199689,40.0
0.6709694,40.0
0.52751106,40.0
0.54761815,40.728386
0.5360592,40.0
0.519155,40.0
0.38928956,41.61094
0.45707145,40.0
0.44406083,40.0
0.53565633,40.63533
0.57652646,44.248505
0.45116204,46.446262
0.5020813,48.18016
0.47372454,50.35628
0.5855377,53.51282
0.5574142,55.30431
0.76057136,60.469044
0.68583727,60.74672
0.899069,63.254627
0.88612473,65.62797
0.9583238,71.412025
1.0227017,72.18795
1.0468129,76.51288
1.2527589,74.658554
1.2480069,80.774605
1.2941113,81.239
1.387671,83.14357
1.4877769,88.055244
1.4898797,86.95748
1.5413321,92.866264
1.6917232,97.52306
1.6840338,99.845276
1.638738,102.16767
1.7062134,106.17407
1.781921,104.03709
1.7962618,107.405655
1.838284,115.36275
1.8374556,116.68969
1.8462516,113.79461
1.7324884,119.29543
1.7426125,118.37423
1.9037585,121.07224
1.7751173,116.1095
1.6832285,117.442535
1.8038967,120.19092
1.7065207,119.69223
1.72127,124.57908
1.7354943,120.00069
1.7177331,118.8049
1.6736976,120.51202
1.6459616,121.2732
1.6430583,120.41772
1.6454043,119.49521
1.6312202,119.95717
1.576713,119.68189
1.4636271,117.51464
1.3541614,112.07334
1.4470286,116.77308
1.5268109,111.67544
1.4553752,108.73732
1.3442862,111.14211
1.3143154,111.523346
1.364828,108.914856
1.2733984,100.11612
1.2680383,103.721634
1.2423135,98.89504
1.2430311,102.21763
1.264631,99.27691
1.2759306,97.12648
1.2299922,96.94976
1.2290276,94.92187
1.2396625,89.16656
1.1986537,85.589874
1.0278311,90.59613
1.1778547,87.48874
1.1548924,87.18317
1.1692562,77.70133
1.1304078,81.11928
0.96378636,79.190475
0.9704882,75.644966
1.0270685,79.82161
0.926892,79.591576
0.92493963,74.47795
0.8366095,71.663086
0.78563875,66.55021
0.86086315,66.61194
0.826619,70.60329
0.68557817,65.7126
0.6724521,69.05195
0.69530815,64.98738
0.64472556,55.486492
0.6450194,58.654423
0.6789352,61.034184
0.5144308,51.20212
0.5370632,54.475056
0.5275686,52.453114
0.61337084,52.44379
0.56968313,48.318996
0.5667217,50.97024
0.5143296,47.95574
0.54821444,45.420986
0.46043134,42.92074
0.38091117,40.90601
0.5125668,42.266315
0.46997836,43.2782
0.4060533,41.177376
0.46122143,40.0
0.4033653,40.0
0.3524363,40.0
0.35040691,40.0
0.3326699,40.0
0.36561513,40.0
0.28068247,40.0
0.16804537,40.0
0.1996762,40.0
0.05456562,40.0
0.23621126,40.0
0.16628708,44.21765
0.13416396,41.77062
0.08765735,40.909782
0.035319194,48.518864
0.18981227,41.717533
0.13927767,50.607983
0.1905575,47.307808
0.12515408,52.568607
0.22603992,52.42734
0.3589712,60.620087
0.39869413,57.313892
0.4468082,61.917774
0.5440796,65.167
0.46606055,63.271503
0.71179354,70.395226
0.7601421,71.82164
0.8224514,73.132935
0.80359006,76.12337
0.92056525,80.4523
1.0272058,85.028404
1.0198596,82.06305
1.1836444,91.53096
1.153691,93.51933
1.1180729,95.75458
1.2169858,100.040665
1.3574908,102.95532
1.2930394,103.953186
1.3327125,106.79104
1.3899555,108.49686
1.380704,111.35858
1.4603715,109.52747
1.3946837,110.559875
1.4341984,119.79209
1.3793936,114.5067
1.3872895,118.17929
1.4622456,119.692024
1.5083271,119.966965
1.4622322,118.0125
1.4257758,119.49015
1.364606,119.68633
1.3629013,122.49814
1.3889699,120.195786
1.1654476,121.07354
1.4417166,119.8724
1.2333639,113.95829
1.2564495,117.7295
1.1926097,117.365814
1.247144,118.421906
1.2202942,116.88455
1.156627,111.2904
1.1014364,115.66546
1.0464592,111.5231
1.0380399,107.994255
1.0479238,110.977844
1.0270058,107.559814
1.0903418,104.5251
1.0418428,102.73186
0.98998344,102.24029
0.91276646,102.778114
0.93790954,104.30706
0.9994631,98.895775
1.0045404,97.858826
1.0087712,97.73181
0.89832145,87.99859
0.94050735,92.95598
0.85601395,90.686554
0.88455254,88.297905
0.8724051,86.43154
0.83099085,84.143005
0.8394174,86.06146
0.75846785,83.70908
0.77721524,80.96362
0.67991793,81.73213
0.79197663,76.670494
0.71285486,72.93068
0.6595332,73.28401
0.6455624,69.357635
0.5899718,71.294815
0.57229096,68.96721
0.54401195,66.935814
0.5276066,64.864845
0.51578414,64.189
0.3703951,65.205055
0.339134,60.54776
0.37748492,55.002426
0.26293957,55.36426
0.41432717,54.756184
0.30736297,57.04275
0.358545,53.89366
0.33672988,49.36356
0.35538325,46.54659
0.2931596,47.050022
0.30439484,46.01812
0.38924965,43.38181
0.41369537,47.408504
0.27829435,41.289066
0.26151937,40.0
0.35635152,41.95796
0.17433347,40.2932
0.3280783,40.0
0.2727079,40.0
0.19516268,40.0
0.12322556,40.0
0.18494318,40.0
0.15330507,40.0
0.15448181,40.0
0.0033552558,40.0
0.062245935,40.0
-0.02316675,40.0
0.022300987,40.0
0.008017038,40.92462
0.028743543,40.0
-0.031716395,43.998753
-0.010615807,43.637444
-0.090631925,45.806496
0.018328613,47.695114
-0.016037581,53.187485
0.023198288,48.388626
0.006050994,59.445175
0.20275433,56.02021
0.22167616,58.29719
0.4188088,65.96837
0.42770606,64.397675
0.3692327,66.61459
0.5456888,68.89173
0.6404186,73.18686
0.7102458,76.31931
0.6793956,78.80291
0.8803826,77.70293
0.8875678,86.06103
0.9659725,87.72685
1.0182072,90.77718
1.2004809,94.34407
1.1232468,97.313736
1.2677146,97.64111
1.291765,98.320206
1.2021374,102.55167
1.2579372,103.71452
1.3521053,103.119095
1.3472589,108.82616
1.450037,117.47769
1.4684646,114.43116
1.4747828,114.09817
1.5206815,113.211006
1.4075893,119.79917
1.4931203,113.007645
1.4435583,122.629234
1.43501,118.26351
1.3861792,122.805275
1.3852972,123.86193
1.431017,119.42333
1.4946048,116.213684
1.3726776,117.998825
1.464389,117.391594
1.2720965,119.62501
1.4045957,116.178986
1.3117669,114.54017
1.3033468,118.82609
1.3469393,116.03336
1.3209271,114.92493
1.2060626,115.72803
1.1432799,110.81809
1.1635188,112.24922
1.2111908,106.30298
1.0288248,105.03487
1.1394932,104.17027
1.0538723,103.21505
1.1964271,102.377014
1.0544411,104.249275
1.0799708,101.161964
1.0679579,95.14778
1.0385492,97.16686
1.0698565,95.40106
1.0436859,89.46278
1.0166584,91.21739
1.0960337,89.14033
1.0772895,88.57772
1.0520885,88.38798
0.9907425,84.98468
1.0746216,83.61472
1.1009039,79.74298
0.9701431,81.74164
0.8866648,76.6743
0.94325393,80.60175
0.7991577,76.64716
0.90166056,71.31088
0.88340795,69.77482
0.81757367,69.804596
0.73986083,70.57596
0.64125127,73.10552
0.7535409,68.6597
0.78114533,65.15904
0.66253203,61.01406
0.5798381,63.778202
0.55817306,61.64473
0.54270905,57.79515
0.55099356,59.576958
0.46207574,55.776657
0.5134545,48.68733
0.530519,48.8288
0.6132651,50.704475
0.5916179,48.830357
0.6055464,47.232334
0.58080095,42.527637
0.6597752,44.535053
0.724585,40.0
0.56584984,43.730896
0.5798093,42.14142
0.55006623,40.0
0.44345105,41.50111
0.5758303,40.0
0.48853132,40.0
0.5380234,40.0
0.4669678,40.0
0.3993246,40.0
0.45401222,40.0
0.44892538,40.0
0.31929737,40.0
0.32389873,40.0
0.48176563,40.0
0.30662632,40.0
0.3498245,41.881695
0.28883535,43.851437
0.27331614,41.78265
0.23908578,49.137135
0.39258626,51.591698
0.44926453,46.513195
0.42427537,52.897083
0.52653486,55.88584
0.46529114,52.666862
0.44516316,62.277256
0.7792642,62.626556
0.7343355,62.741158
0.75174236,66.92349
0.8738556,68.72699
0.9419795,69.29313
1.0552585,73.00717
1.1867353,78.25349
1.1932054,80.21947
1.260663,84.17398
1.2920486,85.81002
1.3888323,90.90483
1.4769763,89.32016
1.5450592,94.051865
1.6865869,95.71692
1.6710857,98.14657
1.645373,100.390656
1.7800232,104.13006
1.6939796,106.553665
1.7411467,109.22447
1.8736657,109.516594
1.8778553,113.753716
1.7160673,118.19584
1.8290048,116.25607
1.7419671,112.95932
1.7173867,119.20713
1.7102565,118.66969
1.8613892,120.13919
1.7617197,118.536385
1.8610569,124.05604
1.7827866,120.65332
1.8541268,118.93339
1.7119241,117.11145
1.8217535,120.73372
1.7448746,115.48705
1.806019,114.685715
1.7611701,116.44197
1.7736101,115.75189
1.611199,118.368286
1.6572254,118.606926
1.5230644,113.31552
1.5633525,112.91632
1.5757648,115.44083
1.6051226,108.83513
1.6264985,104.31
1.4849052,111.51677
1.4818461,101.634155
1.5549433,102.07098
1.4258825,105.41732
1.542174,103.380165
1.4554719,97.93781
1.5472326,97.89946
1.601734,94.72142
1.4345256,97.83915
1.4481177,92.96229
1.4602797,92.667595
1.4316034,89.752945
1.3962967,88.88157
1.5312567,85.158104
1.3563106,84.13345
1.340495,82.53679
1.3553723,80.2413
1.311888,80.38306
1.1847681,76.789276
1.2817717,77.15684
1.2901986,75.8397
1.234216,71.400116
1.1845894,74.314545
1.1514971,70.10504
1.0805693,71.26254
1.0127474,67.35173
1.0398049,62.028694
1.1087947,62.36333
1.0485915,63.100445
0.86224097,60.53614
0.9771962,57.284355
0.8338697,58.512424
1.0552775,54.76955
0.9808572,51.68552
0.8782244,49.11093
0.8835508,47.536793
0.8414283,48.38761
0.78415626,48.178345
0.8874287,48.0617
0.950394,49.03667
0.9162923,45.353287
0.9596225,44.850887
0.88689935,40.06341
0.8412468,40.0
0.8326953,45.872055
0.8366751,40.0
0.81337136,40.0
0.723659,40.0
0.7091766,40.0
0.7523704,40.0
0.7119309,40.0
0.640477,40.0
0.5673026,40.0
0.668538,40.0
0.542809,40.408302
0.50222147,40.0
0.6075103,40.0
0.5702494,43.15872
0.5394775,41.868435
0.60989743,43.939457
0.45397067,47.00188
0.6079464,48.692566
0.6135383,53.98527
0.69605184,50.574852
0.7968643,56.16337
0.8161151,57.47812
0.8630176,57.56299
0.9139558,64.79903
1.003862,67.468155
1.0357339,72.29415
1.0486615,71.52981
1.2167457,72.729965
1.228455,76.51734
1.3433485,76.9379
1.4266738,80.20431
1.4303968,86.80374
1.5582125,91.41657
1.5457814,90.9997
1.6904911,94.024666
1.7013986,95.40499
1.7155313,101.457886
1.7987117,99.86692
1.8514692,99.77345
1.8594822,106.86616
1.9217956,111.24657
1.953349,111.48976
1.8786753,115.716255
2.0118492,113.42479
1.984537,110.714195
1.9743795,119.379425
2.0192394,114.93633
1.9167153,117.53662
1.9713308,118.3826
1.9689316,122.28937
1.9158258,118.81489
1.928149,122.24479
1.8568773,116.88138
2.0142226,118.10479
1.9514841,122.61187
1.7512083,121.65731
1.8876309,120.86227
1.8864056,115.84775
1.8222915,116.518715
1.7231683,116.577515
1.7726396,117.71552
1.6517402,116.896225
1.7048138,114.56847
1.67542,108.109314
1.6516986,107.269005
1.5794764,111.695145
1.5271182,107.062416
1.494908,105.95456
1.52727,105.19944
1.4633344,101.80607
1.5092025,102.22316
1.530511,99.36678
1.4590472,97.19033
1.4537641,94.23469
1.343826,95.5018
1.369286,95.73996
1.3685312,95.26554
1.4020773,88.40624
1.3238466,87.25648
1.3306465,89.34975
1.3456187,85.04304
1.3961482,79.795
1.3419621,87.99988
1.2344471,81.39383
1.331274,79.18435
1.234798,72.98253
1.2096465,74.41636
1.1185406,71.15981
1.2111597,67.29708
1.0881878,68.39891
0.8893273,69.755356
1.0723616,66.194046
0.9016145,66.361786
0.8675338,61.538925
0.8404431,63.456017
0.81687355,61.791214
0.82108134,61.50335
0.7925657,57.87607
0.8426259,56.12714
0.85570174,57.035404
0.84187824,50.890453
0.61897284,51.095665
0.73637515,48.04188
0.8044244,45.871902
0.76326704,43.731686
0.7154711,47.46421
0.7215254,45.33109
0.83333683,44.297653
0.6820217,40.0
0.69148546,43.300884
0.7188877,40.0
0.602698,40.0
0.5469469,40.0
0.6632532,40.0
0.57380676,40.0
0.5820169,40.0
0.49011397,40.998444
0.43642136,40.0
0.36707458,40.133385
0.40135217,40.0
0.4743417,40.0
0.36441907,43.665794
0.34370747,40.0
0.23551132,42.174473
0.22340164,41.490467
0.32331803,41.84293
0.28674304,45.490597
0.361365,47.322495
0.4548136,51.834873
0.42643648,51.88004
0.4137329,53.983154
0.48957014,57.379017
0.5225734,57.984535
0.63392544,66.30476
0.7688087,61.43823
0.6935414,66.81521
0.8299091,74.85522
0.8808099,75.44481
0.9074763,77.28996
1.0200495,74.74175
1.1957324,81.31354
1.1228535,85.622025
1.1856794,87.79321
1.3375875,89.74414
1.3040117,94.12604
1.4603169,98.57157
1.4010214,98.35131
1.4674785,101.79005
1.5854053,102.72149
1.531161,104.703476
1.5913448,107.862114
1.6156114,110.36709
1.6060568,110.246445
1.5721104,117.07655
1.5414252,118.67552
1.5351878,114.27543
1.6213917,114.47548
1.575673,119.5164
1.6662258,117.33823
1.5344114,116.66082
1.5612557,121.127594
1.5033424,121.96127
1.5489293,119.908745
1.6015894,120.49873
1.5025256,116.58723
1.4829224,116.25853
1.4137416,123.43546
1.4980687,115.57954
1.4215217,116.077995
1.3457941,114.8283
1.2264719,116.35907
1.3780792,112.66108
1.3174044,114.41806
1.3114356,112.30678
1.2125622,111.16716
1.0843792,107.459854
1.2257044,106.127106
1.1459336,104.86583
1.0778406,107.24017
1.1313851,105.847435
1.1722953,102.83348
0.99482596,96.36849
1.1401544,100.580894
1.0739949,100.20112
1.0482458,92.73084
1.0244188,94.886284
1.047214,90.705475
0.94075984,88.67183
1.0023321,83.65722
0.98945457,84.780655
0.98240465,85.97436
0.9115613,81.75762
0.9182822,76.87094
0.9616574,82.30964
0.817414,74.01153
1.0124898,80.04037
0.78652716,75.453476
0.6901221,76.11168
0.60980564,71.6354
0.7437444,70.67892
0.584674,68.828445
0.58732396,66.2271
0.6335145,69.03407
0.5600529,70.703636
0.3765847,62.63054
0.52627146,61.695015
0.45741117,63.293125
0.41692594,59.636513
0.37595037,55.71851
0.43390647,55.396187
0.38897786,52.29315
0.27072063,50.641464
0.34831882,53.745255
0.3958214,47.93453
0.34648943,45.2834
0.4291055,42.110855
0.1704026,44.518814
0.35119623,42.86282
0.30788594,43.715744
0.29711083,40.747673
0.35545662,40.0
0.24255398,41.393085
0.2814904,40.0
0.31969702,41.292255
0.24412617,40.0
0.29838428,40.0
0.21206875,40.0
0.098502465,40.0
0.15088418,40.0
0.03774196,40.0
0.0080732135,40.0
-0.02578323,40.0
-0.11432671,40.0
-0.010038184,42.19968
0.07963737,41.178074
-0.033745088,43.3109
0.00026610505,44.63158
0.06585694,43.579433
0.027867908,48.803276
0.20908807,48.30695
0.13959903,56.227436
0.18738241,55.307636
0.23705588,57.897953
0.33801228,58.28509
0.35948166,64.129295
0.402525,65.19889
0.6091217,65.83533
0.6500525,71.509995
0.8007297,73.34257
0.7372358,74.75327
0.84512985,82.85826
0.8335876,83.13608
0.9549739,85.65081
1.0152788,89.12092
1.0329822,95.03325
1.1291777,93.544975
1.1183128,96.09167
1.2799263,100.75114
1.1745574,100.71386
1.2078027,106.54666
1.2345833,111.804855
1.2307343,106.75653
1.4036535,114.83542
1.449151,113.40127
1.2748973,118.8117
1.3688408,116.98894
1.3778403,117.88764
1.2987306,120.27218
1.4073182,115.58477
1.2903723,122.84341
1.3428664,121.895004
1.3152496,118.03409
1.2852952,118.05492
1.3126754,116.7013
1.2996134,122.6267
1.3028598,120.39634
1.2360266,118.67938
1.2342861,116.67985
1.2528175,120.40624
1.1649315,120.6321
1.2085578,117.56659
1.1734535,112.674675
1.0403967,113.16072
0.9907659,115.41852
1.1380805,110.15027
1.1512191,108.97833
0.9777053,111.77182
0.99604374,106.49221
1.0045731,105.60795
0.9885789,107.47983
0.9344673,99.21486
0.9300459,100.140915
1.0410552,98.75484
0.90081924,94.32653
0.95817375,91.148766
0.9920768,96.40426
1.0304492,92.8042
1.0787727,91.44405
0.9147521,89.42951
1.0063887,86.21759
0.8530832,88.842125
0.8611742,83.21577
0.750819,84.44532
0.824644,81.255516
0.7777736,83.59657
0.7799071,79.06115
0.7909466,74.28469
0.6550623,74.03038
0.60200477,77.21172
0.5472268,69.26989
0.566686,68.52895
0.6021557,68.60913
0.56937265,70.83394
0.5047286,66.47421
0.48678768,62.85817
0.4522461,62.339165
0.43714672,59.41653
0.42043298,60.405994
0.44684923,56.477333
0.50644946,57.985874
0.43628395,54.643414
0.40883556,50.340614
0.46533725,53.34072
0.33823532,46.963123
0.33150846,48.171
0.40096694,45.004745
0.43197417,41.044453
0.47544527,44.67669
0.3609743,42.62742
0.4263144,45.29828
0.3053579,40.0
0.45164362,40.0
0.39404863,40.0
0.36790887,40.0
0.38709617,40.0
0.3858327,40.0
0.18697798,40.0
0.14481151,40.09959
0.10181733,40.0
0.04131381,40.0
0.12166174,40.0
0.107724905,40.0
0.024526866,41.1025
0.0026679966,40.0
0.06866358,40.0
0.12855902,41.76211
0.05494245,45.694675
0.07825421,44.169796
0.3138309,47.13279
0.26496258,49.29253
0.244096,55.268513
0.25961065,54.668053
0.42059064,57.474625
0.33590025,60.72218
0.4530469,63.080578
0.647724,67.19207
0.6425891,70.58687
0.79857373,70.17365
0.8021111,74.83651
0.8913802,75.69843
1.0013889,82.71076
1.0363811,82.15287
1.1060288,86.44679
1.1685966,83.81424
1.234769,88.269585
1.334937,93.43612
1.3672748,96.724144
1.4590526,98.82566
1.3662702,98.930984
1.4920764,102.06147
1.5267583,111.19694
1.4006608,108.06151
1.583335,108.54696
1.6228443,110.81982
1.6566131,110.595
1.5517921,117.7183
1.676104,120.372025
1.7095333,118.76635
1.6272762,120.00408
1.6901628,119.666115
1.5861185,119.55755
1.5179741,118.40929
1.6654334,119.95271
1.6466883,119.584785
1.5515257,119.0401
1.5772631,121.84091
1.6213807,117.76516
1.6215762,116.244774
1.6297544,118.00556
1.4936422,117.78266
1.5196313,114.360886
1.404103,111.611115
1.5441871,114.94122
1.3639205,114.5443
1.4324118,111.547066
1.3259822,107.74051
1.3015971,108.62502
1.3135654,102.68239
1.1795955,105.18061
1.2864838,108.70627
1.3466964,101.616875
1.2591563,100.507286
1.3788526,102.25138
1.2457263,99.21917
1.1726222,96.414215
1.2641022,97.020645
1.2984921,89.87522
1.162533,94.538246
1.1869301,91.014
1.1672612,87.410446
1.2341696,84.71742
1.1599423,84.09666
1.1410283,80.780106
1.3312262,77.84512
1.2276454,80.80941
1.0928335,77.72017
1.106693,78.939026
1.1119595,73.26591
0.95278764,71.074974
1.0111933,71.20624
0.9914162,69.71874
0.9582881,67.88034
1.0418245,69.67585
0.9331741,64.08683
0.95381457,63.333694
0.8414382,65.383575
0.7692968,61.49189
0.8180772,57.36513
0.8482592,59.37734
0.86165965,57.245068
0.80229086,51.446968
0.80523866,52.729237
0.80043286,50.917225
0.7736203,46.394955
0.8082541,45.469883
0.76230186,44.424843
0.86603075,45.067192
0.7608323,41.236664
0.7877347,43.576866
0.74321485,41.24587
0.7175512,41.261417
0.74486905,42.883335
0.82790816,42.219666
0.7347932,40.0
0.7109107,40.0
0.64531446,40.0
0.634525,40.0
0.591188,40.0
0.57079387,40.0
0.60042375,40.0
0.58208966,40.0
0.5859311,40.0
0.4346905,40.0
0.3898078,40.171436
0.45060083,40.0
0.53325665,43.50459
0.49115607,44.521553
0.36907178,44.836952
0.5376367,49.494255
0.6091835,49.19629
0.6758045,54.00916
0.6390795,53.67308
0.7237464,55.321575
0.74505526,57.252777
0.84377396,62.364132
0.8496347,64.87103
1.0038619,66.20347
1.0728662,68.61008
1.2160652,70.02555
1.1931434,75.993515
1.2941804,77.277756
1.4235135,80.92634
1.4824901,85.337166
1.6062236,87.30471
1.6129833,89.686714
1.6761619,95.99786
1.6919053,97.00554
1.668364,99.74229
1.7578698,102.95485
1.7603791,104.0802
1.716826,104.51364
1.9463004,109.91591
1.8646054,105.401695
1.9768128,111.870605
1.9083674,109.330666
1.916534,112.38422
1.9817736,113.15892
1.9840198,115.308624
1.9476963,120.29594
1.9332851,117.388855
1.9814668,121.26353
2.016128,121.26943
1.9265091,117.510735
1.965992,119.97808
1.8455932,118.13331
1.9222488,123.38601
1.8330613,115.16067
1.8020009,122.57082
1.815517,118.47534
1.7634655,113.73501
1.7869959,119.48137
1.7587396,114.22722
1.7748365,115.37775
1.741646,118.88816
1.670089,111.98211
1.5874398,111.44978
1.6163542,110.87717
1.5873462,111.70038
1.5595917,104.531845
1.5996563,103.13355
1.5579072,104.37977
1.6133918,103.104546
1.5171582,98.94055
1.5018096,96.61402
1.6145616,95.39634
1.4308735,94.16133
1.5033242,92.41666
1.4750276,92.040634
1.4671645,92.61104
1.4391038,88.20812
1.600844,85.770584
1.5086128,85.75493
1.5062255,86.01366
1.3789424,78.51619
1.3273767,79.838875
1.377337,78.26283
1.3459508,75.99128
1.2678216,75.33237
1.2950088,74.51479
1.3114367,72.967415
1.1744877,68.73953
1.0034872,66.6355
1.086922,68.029655
1.0978205,63.996326
1.0826019,62.572674
1.0384136,68.04072
0.961279,63.12503
0.9596678,61.54066
0.9199926,58.09576
0.87814003,53.466362
0.91648525,52.885967
0.87628865,54.017582
0.8659684,52.99088
0.83173615,50.161644
0.94526035,43.516644
0.733307,48.899673
0.9539272,42.8738
0.9721064,43.944847
0.69958067,43.35317
0.9280696,41.24583
0.8453476,44.80831
0.87671745,40.0
0.85379845,43.317116
0.8370782,41.442593
0.8410007,40.0
0.7389654,41.21021
0.71551126,40.0
0.6361679,40.0
0.6229537,40.0
0.6914653,40.0
0.6170671,40.0
0.566569,40.0
0.5753379,42.045105
0.5179254,40.0
0.54931,44.256374
0.55057955,40.0
0.55478257,41.310036
0.56336296,45.25444
0.541493,46.079872
0.5877815,52.544422
0.5716048,50.560516
0.58586365,57.421288
0.69507575,57.457653
0.7115734,60.533432
0.78125113,58.590584
0.8027032,63.527336
0.87249583,65.46026
0.9755957,69.07997
1.1121866,73.99935
1.1502453,74.77059
1.2490313,73.2225
1.3728797,87.08221
1.3450496,84.43751
1.4886541,85.12777
1.5349314,89.9517
1.5666087,95.04504
1.6805671,92.83745
1.5976994,100.09238
1.6345507,95.66607
1.7344769,99.050766
1.6890181,100.50128
1.9056036,110.32556
1.7834753,110.08567
1.7984341,111.4757
1.8265616,116.09543
1.8652725,115.18248
1.7714093,111.64111
1.8881102,116.94464
1.803348,109.42974
1.7854128,120.34326
1.7979627,120.0893
1.8029629,117.699905
1.8274261,122.44695
1.7368861,119.20716
1.7887208,120.69727
1.777936,116.714134
1.7339244,121.87835
1.7425616,120.91989
1.6580982,119.03686
1.5840237,116.968254
1.5841986,116.914024
1.5977235,118.72102
1.5330914,116.1679
1.5501689,113.21408
1.4888304,111.5548
1.5226334,108.17901
1.507087,108.96968
1.4294682,107.06553
1.4490439,103.351746
1.421863,103.12384
1.379955,104.679344
1.2901291,98.809715
1.3346635,105.91818
1.1837053,96.22617
1.2700489,98.25408
1.2613021,96.83972
1.2188911,88.21048
1.221756,93.50633
1.2550292,93.57742
1.1633581,88.32085
1.2132334,87.074265
1.2385126,87.19732
1.2825744,86.00683
1.0418491,79.63737
1.0629991,77.73408
1.0797609,79.08216
1.0464026,80.6579
0.9814053,74.87524
1.0006393,74.773254
0.9003444,70.08591
0.84843105,69.96472
0.7835124,74.613075
0.81582135,67.07013
0.74344265,64.23432
0.6966404,63.517303
0.7073017,62.534023
0.76830703,62.749218
0.6567196,60.20261
0.8035076,55.361385
0.6647804,55.872578
0.5876451,61.568546
0.5662553,54.748802
0.5406377,46.930515
0.6276834,53.5344
0.63170683,50.39844
0.5798719,48.06138
0.4650865,44.654953
0.5747793,46.545486
0.5038691,46.466896
0.52773,44.2185
0.4692209,44.019863
0.41252017,40.097942
0.538532,40.534313
0.41793567,40.78286
0.43268973,41.806595
0.49090654,40.957394
0.37392336,42.52819
0.3589499,40.0
0.30923948,40.0
0.16406171,40.0
0.28015065,40.0
0.22102407,40.0
0.14073266,41.099155
0.16402204,40.0
0.13148947,40.0
0.1743412,43.59452
0.14984003,40.0
0.08126334,41.181435
-0.0095084375,43.565502
0.15694633,48.020977
0.23120241,49.45293
0.29358858,59.076714
0.1692879,56.383423
0.36919245,57.397507
0.43076566,62.291607
0.53002274,60.399796
0.59565896,66.753944
0.55730355,69.7893
0.7694674,75.338356
0.78781235,77.241806
0.7097946,71.82969
0.904684,80.542244
1.0209239,84.96511
1.0577879,82.87967
1.0811235,89.88045
1.1685631,92.603775
1.2122142,95.39061
1.2495755,96.55239
1.2397904,101.22372
1.3308096,102.66854
1.2980376,105.76956
1.272941,107.62509
1.4972548,106.409836
1.4430104,109.58926
1.3815887,112.224754
1.4450366,116.41767
1.4121509,116.97522
1.3770657,114.07572
1.4603112,117.95064
1.4133141,114.03456
1.4476445,122.7216
1.4232131,122.23253
1.4232026,116.83827
1.4054365,122.85069
1.3244617,118.09949
1.3805939,120.82657
1.3066247,117.15057
1.265566,117.056755
1.239294,119.08021
1.3311418,116.87482
1.2031938,116.382515
1.2019433,117.62772
1.206927,113.55518
1.1526512,112.56866
1.198279,113.55358
1.1474662,113.446785
1.1149424,110.87429
1.0621282,108.661224
1.0277236,108.687584
0.8068795,104.88591
1.0047625,104.40468
0.9660582,104.67331
1.0718073,102.07872
0.9421072,100.76684
1.0054387,101.985596
1.0100613,95.9717
0.93738115,91.091156
0.8649738,92.56413
0.85042536,97.84644
0.94873244,90.638016
0.84925926,85.13725
0.8151242,81.951546
0.89262563,86.42893
0.912883,82.42903
0.73927605,80.03228
0.8031854,84.1989
0.8917049,79.881004
0.7480398,78.024864
0.63088197,72.08778
0.6122306,73.38734
0.6224691,72.72202
0.6207172,69.305374
0.51618135,70.0652
0.5058155,62.014446
0.59055674,63.870197
0.45244047,62.377754
0.3971509,60.456486
0.3958456,57.956646
0.3070276,60.462353
0.3618893,56.630405
0.38660893,56.56974
0.2737562,56.11609
0.44896936,51.79225
0.34007627,49.593403
0.36639583,47.63892
0.43989632,49.56133
0.389851,49.61874
0.3200748,44.50508
0.23703137,42.533573
0.31749514,43.533306
0.24249606,42.44909
0.25833175,40.0
0.33854872,44.83032
0.24633184,40.18748
0.25734916,40.821518
0.19903025,40.0
0.12599683,40.0
0.20461275,40.0
0.19226913,40.0
0.054937452,40.0
0.076571845,40.0
-0.022272017,40.0
0.015883423,40.119385
0.082955405,40.0
0.07096528,42.887894
-0.042720087,40.92328
-0.06818134,43.381596
0.072574824,45.509773
0.036482483,43.981537
0.0046407604,53.296684
0.011386131,49.41998
0.07074003,51.845753
0.070631444,54.719856
0.12896745,56.482803
0.32528046,56.55404
0.39072314,63.971096
0.46204084,67.781296
0.42650792,69.2895
0.4977899,69.27167
0.7159959,74.668526
0.6892488,75.6431
0.8180113,80.46625
0.8508503,87.39866
0.9018828,84.95322
1.0382707,92.50802
1.134695,93.04139
1.0263895,92.009796
1.2410462,100.39288
1.2149607,102.93573
1.3191235,101.45004
1.3557266,104.08068
1.348168,107.230484
1.3753676,107.74557
1.3642935,115.03516
1.3238769,109.35824
1.3909351,112.13229
1.5320832,114.64477
1.3783683,117.0063
1.443668,120.57389
1.4344523,117.362015
1.3576392,121.59199
1.4292499,118.40434
1.3843422,121.25586
1.3847239,118.83845
1.4375466,120.45667
1.439846,120.22432
1.3974203,119.968506
1.2948073,119.23758
1.2869974,117.44661
1.3582904,119.353615
1.2971035,119.451164
1.2692226,116.58157
1.3408303,117.96399
1.2020689,119.340645
1.121046,112.62526
1.2136482,107.44144
1.1857158,107.1213
1.1782876,109.105896
1.222977,109.20229
1.0882558,109.40636
1.1345567,103.17707
0.9988264,99.07866
1.1670233,96.44079
1.010839,101.25726
0.9636559,96.074036
1.0308483,96.24224
1.0459832,94.514084
1.14029,93.40999
0.9495616,87.26231
1.0789479,89.48443
1.1527538,92.17069
1.0562412,88.80834
0.97063214,85.43821
0.95297974,79.2203
1.0690279,79.96172
0.9712212,78.60804
0.95167404,82.47942
0.92409146,78.38368
0.91747546,76.929306
0.9440601,72.9153
0.8736391,72.77113
0.74856347,70.21124
0.71000284,70.49393
0.65075624,67.0727
0.76068014,64.84327
0.63473874,61.531063
0.630384,61.269783
0.59592336,60.722473
0.54329836,61.336517
0.6218436,56.91722
0.6017242,56.173676
0.55430573,54.621628
0.62325454,53.87402
0.5596263,49.53452
0.5109279,51.046513
0.6321649,51.70162
0.5436716,43.66698
0.641805,45.535797
0.5181912,47.996452
0.5546611,45.139267
0.5531242,41.737217
0.5097256,40.020077
0.6087112,40.0
0.46306452,40.0
0.5317746,41.50766
0.50112724,40.46959
0.5027715,40.0
0.49048585,40.0
0.30431202,40.0
0.4204074,40.0
0.35392487,40.0
0.28739452,40.0
0.4024206,40.0
0.3531935,40.0
0.26065794,40.0
0.29298246,41.576797
0.23864913,41.930923
0.22996163,40.837914
0.3384775,46.60133
0.38306716,46.730453
0.38398862,52.791805
0.40175194,51.839867
0.4631495,59.202076
0.36833158,58.317493
0.58715004,58.983467
0.57982117,63.091663
0.7802777,63.75079
0.84031993,67.59847
0.94208103,68.76298
1.018255,75.38805
1.0204647,74.02427
1.0856262,78.0735
1.2757789,81.83919
1.306719,81.76072
1.3224747,90.453255
1.4854774,91.89606
1.4415259,95.52748
1.6562072,96.40572
1.5010755,97.88829
1.6802764,98.029594
1.7518212,101.976944
1.7161254,101.2396
1.7185556,108.579414
1.8478787,114.84217
1.7656296,110.0545
1.7983373,114.38478
1.7132671,108.23899
1.8296925,120.37446
1.8074545,118.12072
1.8077111,117.02601
1.8178085,123.394966
1.7634332,122.22593
1.8203665,121.02604
1.7352775,117.8523
1.8149073,122.24048
1.7582743,120.019455
1.7837466,118.48461
1.7185296,117.74585
1.6457596,118.87051
1.7487212,118.190674
1.5977478,119.14274
1.7003531,115.78878
1.6775514,109.445526
1.5718172,117.83473
1.6265693,112.67341
1.4909059,111.53957
1.5163857,112.36132
1.5953541,110.54057
1.5518408,108.8882
1.5243872,105.28567
1.4662724,105.7778
1.4561024,102.92245
1.433915,102.05721
1.4988445,102.702095
1.41666,98.51356
1.453763,96.30308
1.4805764,97.73961
1.4217628,96.64739
1.3995649,95.09173
1.4109843,90.99647
1.3827778,90.55401
1.4578367,88.220345
1.3730518,86.19887
1.3566295,83.80665
1.302327,83.45272
1.3094769,80.92492
1.2924683,82.04957
1.2257642,76.15838
1.2606125,75.576065
1.1873889,73.651955
1.1221343,74.908485
1.1760536,73.958046
1.1870002,71.701744
1.0793568,65.43107
1.1011534,66.79512
1.0816864,66.0412
1.0941226,65.4833
1.0196004,61.514103
0.8963136,63.26344
0.93438536,61.48697
0.955983,52.995487
1.035377,53.690346
0.96942043,56.077812
0.91641825,53.299637
0.820872,52.573555
0.97487885,48.276558
0.86213654,47.38113
0.9000759,43.441105
0.948672,45.29215
0.96885514,41.603367
0.8473094,41.805367
0.9484095,41.488026
0.839036,41.936676
0.88925076,41.808216
0.9343415,40.0
0.7623128,40.209175
0.7697265,40.0
0.7726455,41.680164
0.6600511,40.0
0.6096508,40.0
0.71925706,40.0
0.6318217,40.0
0.6653821,40.0
0.60910445,41.785423
0.6765124,40.0
0.49775928,40.0
0.4750648,41.28832
0.5337329,43.535507
0.60777664,44.218384
0.54110897,48.052383
0.4883421,51.223675
0.6382894,53.379284
0.5736443,54.9483
0.6970388,58.16827
0.84417206,54.25093
0.94038266,61.545612
0.89105487,63.850986
1.05626,68.56254
1.0775646,67.38249
1.1732506,71.58464
1.3142184,75.20858
1.2502483,80.59665
1.2851317,81.73201
1.504454,83.29457
1.5346262,86.64112
1.5539882,93.49013
1.6777244,91.15704
1.7307813,94.08439
1.7804016,103.36725
1.7499337,99.90659
1.8589206,104.6249
1.8988976,102.977776
1.9020789,110.32092
1.8953556,110.64421
1.9224148,111.47937
1.8854972,113.43341
2.0339952,111.1369
1.967536,115.82127
2.0269496,118.8933
1.9186522,117.806206
1.9769589,116.75455
2.001334,122.19566
1.9847091,115.50679
2.0117877,118.696365
1.9225111,121.15509
1.8162998,120.632034
1.8820858,118.15429
1.748855,118.892395
1.7278903,118.00984
1.8593037,121.668144
1.8508786,119.969475
1.7686002,115.7729
1.7136729,120.42415
1.7324197,112.16207
1.6317526,114.38743
1.6511592,114.190094
1.6498741,110.010796
1.6945839,109.00114
1.5515075,106.56539
1.5081432,104.871155
1.5813513,107.79136
1.5788047,99.33016
1.5550573,105.66713
1.5152241,100.70447
1.4786522,101.0635
1.4941608,96.96198
1.3650335,92.77319
1.4742566,94.85402
1.4997715,99.18565
1.4140352,90.866066
1.2870076,89.27797
1.3911254,85.37661
1.3131174,86.04954
1.3428313,86.9261
1.3267918,84.249016
1.2374185,79.84747
1.2578768,81.86547
1.2671996,82.76466
1.2395109,75.51001
1.2210989,73.314865
1.1048464,72.38843
1.0716447,71.75813
1.0653795,68.34535
1.0937563,64.885956
0.9547288,66.42271
0.9626081,64.823975
0.9626198,69.789474
1.0006381,61.884117
0.82848096,61.22236
0.8403186,61.35173
0.9280555,59.225166
0.83994377,56.649265
0.82462466,49.897293
0.89632,51.305466
0.84596825,46.92622
0.7956995,49.549698
0.67033136,47.416195
0.7361784,47.255062
0.7865902,41.98442
0.75670135,46.09287
0.7894297,43.56378
0.72539556,40.0
0.79256827,43.362583
0.60742426,40.0
0.577184,40.0
0.56579304,41.451168
0.5908312,40.157574
0.53972673,40.0
0.53297776,40.0
0.5055735,40.0
0.5201494,40.0
0.39277068,40.0
0.38718086,40.0
0.42504215,40.0
0.37447563,41.637085
0.37848547,40.616447
0.29484293,40.0
0.28632185,40.0
0.33218005,43.87262
0.4262378,44.48781
0.4605341,47.575195
0.3707688,49.572308
0.49059516,49.149426
0.42490593,54.014202
0.5233749,59.633797
0.5990189,62.441467
0.6915993,65.27179
0.8502085,67.983475
0.82708174,66.02909
0.9360393,70.21407
0.96408355,73.01509
1.0991787,75.695274
1.0856291,75.13711
1.1683567,85.78704
1.2479511,88.72453
1.2384541,86.91871
1.4526889,93.82255
1.4520578,96.313736
1.3609926,94.913124
1.5122328,97.992805
1.5024059,100.809326
1.5021621,101.417915
1.55821,103.39678
1.5424117,109.48154
1.572667,109.93708
1.7046595,115.671524
1.745828,113.44857
1.6468803,119.71635
1.6012992,115.57633
1.6769228,118.67705
1.5773569,120.91694
1.6590848,119.96375
1.6682073,122.27732
1.5635716,121.67953
1.5721102,123.57941
1.4910227,120.90174
1.533835,121.33273
1.5108622,123.0807
1.458338,118.1226
1.4805123,117.87268
1.460025,118.27696
1.3352023,117.58277
1.4960529,118.57575
1.3753815,112.48198
1.2349681,116.728386
1.2705194,112.07504
1.303168,111.60105
1.3187574,112.43566
1.331716,106.10114
1.2401081,106.75268
1.180394,105.698906
1.2418582,106.76988
1.1679097,104.00896
1.1417542,101.81163
1.0916573,98.27737
1.1174384,93.1734
1.1584717,90.1177
1.0781621,93.55957
1.1040373,94.263664
1.0468816,89.13291
1.0054058,90.82538
0.96896887,83.7733
0.9358528,84.443756
0.8755602,85.00149
0.94656974,87.25671
0.97788477,84.795006
0.876947,79.06957
0.9867192,76.01904
0.8564652,77.514435
0.79131776,72.04347
0.7787408,68.67309
0.78570867,70.44197
0.69888353,69.031364
0.6000497,71.62957
0.68370676,67.63743
0.5454613,63.41072
0.5810386,66.02262
0.530825,61.72262
0.4828627,60.579205
0.466145,60.870903
0.42469305,57.160267
0.3386048,57.14353
0.40424645,55.65048
0.38905078,52.034027
0.4469864,49.30561
0.49372867,50.469234
0.37877783,51.838852
0.35372826,49.678684
0.3959126,47.076504
0.3723161,43.822933
0.38276598,42.21502
0.21367538,40.518887
0.36424518,40.958237
0.35490647,40.0
0.423185,40.0
0.29619828,40.0
0.26040286,40.0
0.11850307,40.0
0.1772993,40.0
0.24294683,40.0
0.10855579,40.0
0.15172517,40.0
0.121424004,40.0
-0.020803476,40.0
0.013647428,42.20722
0.028213017,40.0
-0.04948618,44.38727
-0.019941127,46.473423
-0.034292642,44.066418
0.05713633,47.20279
-0.092335016,51.49599
0.040184274,45.039143
0.13604608,46.85453
0.24500276,49.71908
0.17443486,54.156815
0.24416028,58.632557
0.3396723,64.42294
0.36850154,63.772915
0.5119503,63.725475
0.5161445,74.837616
0.56154084,73.021225
0.7199947,75.644035
0.8122783,76.113
0.8766314,81.2037
0.90321344,84.206566
0.99930346,89.99202
1.0322427,92.52739
1.0575109,97.94271
1.1198044,96.9129
1.1899309,97.31728
1.1610656,103.4196
1.1497679,102.741
1.2623751,106.21714
1.3215256,105.904655
1.3729062,113.10928
1.3137125,108.60208
1.4161881,115.52385
1.3420666,115.365906
1.2869942,116.40755
1.3617629,114.68133
1.3574834,119.605255
1.3271279,117.24539
1.3578482,121.66066
1.4545505,117.68692
1.3889734,119.56034
1.3740922,118.916176
1.31049,120.71961
1.2357293,118.5605
1.2407675,120.14065
1.3503951,118.035835
1.2656844,118.36752
1.3099121,120.05993
1.0932139,114.86088
1.2218696,116.31358
1.2134297,114.8669
1.1800492,111.552574
0.9865211,115.673965
1.0624143,109.883125
1.0966407,108.57778
1.0268003,106.92012
1.0910207,105.57573
1.0399939,103.71965
1.073485,100.82666
0.9758181,102.97544
0.90921605,96.81318
1.0440481,94.882126
0.99789137,95.91979
1.038149,90.9778
0.83645695,90.83376
0.82913625,90.58387
0.89702934,91.82873
0.7927361,90.27244
0.87416416,88.707146
0.92023957,86.36884
0.79543,84.38842
0.8875374,82.51029
0.8147845,86.54492
0.91633034,81.37665
0.7276466,75.191124
0.6804175,79.82316
0.71827334,77.26918
0.6143907,73.50277
0.5570448,70.58176
0.5932974,68.28916
0.61609465,67.47974
0.6389297,67.82258
0.5148244,64.95219
0.5365318,63.435368
0.4701827,57.522835
0.52909136,59.92021
0.42705354,57.42632
0.3414661,56.79277
0.34202158,50.954105
0.3957237,51.737392
0.36640993,51.16439
0.3074393,53.024887
0.30778563,50.803875
0.43470815,49.914883
0.37291428,45.97028
0.388773,48.17794
0.21072145,46.775307
0.41912135,40.0
0.3470864,40.0
0.33074075,41.639656
0.30789727,40.0
0.3304913,40.0
0.29080606,40.0
0.24022679,40.0
0.23666997,40.0
0.19152273,40.0
0.2606625,40.0
0.16079105,40.0
0.116419464,40.0
0.1830633,40.209637
0.128078,40.0
0.14618392,40.20597
0.08765449,40.0
0.030457547,40.0
0.012374714,46.4505
0.14709502,47.91651
0.20179969,46.83344
0.09461308,51.096107
0.22509138,51.01585
0.23589683,56.590923
0.2910894,56.50584
0.3616943,62.41662
0.533953,62.139053
0.54789597,61.268764
0.65108144,65.85473
0.65634435,68.750435
0.8203372,72.978935
0.77617395,73.55283
0.92981356,80.54418
1.0404946,78.49046
1.0889963,86.18899
0.98594624,84.42431
1.2376267,89.88136
1.2829245,91.93829
1.2206774,93.68385
1.1943783,97.37425
1.3696226,99.20927
1.397701,104.16047
1.4597231,102.83456
1.4976686,110.37107
1.6016713,107.11561
1.6581935,109.22845
1.5377526,119.67673
1.5439415,117.36114
1.6456581,115.6423
1.5990973,117.40121
1.5647551,115.64409
1.6605444,119.3041
1.564032,116.503395
1.6619705,116.88145
1.5479287,117.87182
1.7065847,119.8335
1.4899698,118.36395
1.5820066,119.55292
1.565302,116.42518
1.5586185,121.28989
1.454386,121.14096
1.5114735,118.2212
1.3710595,119.7165
1.4641674,113.32169
1.5206983,116.18711
1.3686249,114.15337
1.3834134,112.69893
1.4069779,111.503426
1.3213712,113.2595
1.3190033,108.348
1.3971747,107.22164
1.2417674,103.794334
1.3478558,105.632545
1.2342159,100.00382
1.3277357,98.019066
1.2518078,97.39618
1.1580722,93.28074
1.2451092,96.060684
1.2443105,93.5567
1.2028667,93.07937
1.2303629,90.12383
1.1584047,92.674095
1.2449319,84.909904
1.2408615,86.37526
1.1628785,82.73961
1.126451,80.53441
1.1154143,84.40987
1.264933,78.05399
1.0901878,79.85047
1.1037393,80.587944
1.0778584,71.933044
0.987456,73.69042
1.0046875,70.49044
0.95449597,69.23567
0.84882224,65.62412
0.9036571,67.601654
0.82163864,68.03854
0.8180758,64.97123
0.8708048,63.377594
0.77965355,57.18371
0.7667961,57.04571
0.7635658,55.301563
0.8826682,53.44421
0.76991343,53.9378
0.7858228,50.12431
0.64041024,51.527817
0.7262207,49.83809
0.7772804,53.823532
0.76762104,44.40449
0.76811415,42.004147
0.79519975,40.0
0.786237,42.255592
0.78515977,40.179443
0.69198745,40.0
0.7027938,40.0
0.7938969,40.0
0.6761662,40.0
0.68485814,40.0
0.6434144,40.0
0.69109005,40.0
0.5986213,40.0
0.6391049,40.0
0.50860286,40.0
0.50243914,40.0
0.3992794,40.0
0.43221152,40.977955
0.46886858,40.137707
0.49532634,42.852745
0.4661988,46.457775
0.49698386,46.400135
0.4763937,45.441704
0.5349165,50.53909
0.51088035,49.86435
0.67582387,54.918118
0.6189189,58.206528
0.6898623,55.826885
0.7621699,62.123386
1.009658,61.083565
0.92113805,64.60504
0.8556125,65.5792
0.9997218,70.91241
1.1828659,73.47611
1.2826571,79.05142
1.3454471,82.68473
1.3856077,81.060616
1.4095286,87.241806
1.45722,85.60776
1.5348316,90.34873
1.5744799,92.68357
1.7008975,97.49579
1.7437923,100.76894
1.796392,102.80794
1.7366253,103.34278
1.8298523,105.62644
1.9118161,104.12385
1.8469566,110.75051
1.9088919,108.46692
1.8651848,116.15701
1.8620212,118.041046
1.9566282,117.322815
1.9561222,111.62896
1.9054325,117.70896
1.9028693,119.12652
1.9436642,117.45561
1.8902785,119.143364
1.938547,122.276085
1.9428793,121.774086
1.8558989,121.371185
1.8523235,121.64368
1.7735974,122.09414
1.8538033,118.8564
1.8409786,119.987206
1.843599,116.05657
1.6569855,115.110275
1.7354636,112.27631
1.744919,117.04266
1.7311007,111.31987
1.697258,113.34626
1.6573645,106.94525
1.5849324,106.89327
1.6122992,109.97391
1.5511683,103.54869
1.461612,104.53629
1.5748724,102.92638
1.575693,99.36963
1.5568261,102.22778
1.5210624,96.4776
1.53522,97.836815
1.423947,95.6703
1.4582342,92.42897
1.4920201,89.60786
1.4366785,88.96794
1.4894633,87.449066
1.5083742,91.9186
1.4954555,83.36981
1.4344414,81.91839
1.4702415,84.96147
1.3846809,81.75786
1.3161591,81.587494
1.3003399,76.15932
1.2880998,77.69514
1.2209721,69.11206
1.3494711,70.51776
1.1619684,66.326035
1.1225946,68.38795
1.087742,64.09067
1.0884386,66.43775
1.0668947,59.28694
1.1141056,62.79983
1.0130047,60.457687
1.0248405,58.353638
0.98649395,58.62786
0.95343846,55.321236
0.9536926,56.413773
0.862806,50.964302
0.90766335,50.750202
0.9947265,47.831535
0.9605862,45.449497
0.93172765,47.428932
0.9167222,48.781864
0.8586965,46.065937
0.94607824,41.640865
0.8982948,44.30189
0.7512741,40.0
0.81135714,43.34381
0.8580653,40.0
0.81975794,40.0
0.6710269,40.0
0.7824912,40.0
0.7392476,40.53649
0.57117695,40.0
0.69920945,40.0
0.56277025,40.0
0.5528478,40.0
0.60575664,43.61447
0.5493107,40.0
0.40421358,42.293495
0.5036646,40.0
0.61883575,45.320557
0.5179204,42.95857
0.62028867,47.90881
0.504762,46.502968
0.58548236,51.788437
0.5304423,49.163525
0.53534025,53.862446
0.7161668,59.320324
0.78410083,60.77558
0.78092736,59.869053
0.9571703,63.52303
1.0992745,65.98354
1.0488503,69.026855
1.1110477,70.83759
1.2600073,72.95526
1.2847773,78.89272
1.3118418,85.227554
1.375127,88.292465
1.4642789,90.29042
1.5277594,91.326355
1.614026,92.08697
1.7155281,98.10465
1.6847183,100.59591
1.6896286,96.27952
1.7236152,103.21545
1.7246376,107.34359
1.7697387,108.56011
1.7440723,110.23341
1.6797563,111.77917
1.7924792,114.73137
1.8390645,114.51832
1.8037364,118.73196
1.8978354,121.5433
1.783456,119.66778
1.8622798,116.825745
1.8249843,119.788345
1.878517,120.44686
1.7972153,119.59711
1.7911062,118.25018
1.828771,120.56667
1.7989764,121.04183
1.752957,120.74912
1.6619397,117.85637
1.6877993,119.175316
1.5918835,118.261475
1.6586121,116.55272
1.5620323,119.309006
1.5975341,115.33781
1.4972142,116.00044
1.4839807,108.47855
1.4207159,111.42481
1.469429,107.24749
1.5450382,108.089294
1.2309676,107.45141
1.4305054,105.199936
1.3358295,103.554436
1.2414287,101.263565
1.3615756,101.93346
1.4012214,97.28005
1.3171183,94.714226
1.2634053,94.4797
1.2547,97.15154
1.3209493,92.86742
1.2269386,91.3037
1.2765647,85.326614
1.0982473,89.87935
1.1195928,83.22919
1.1771346,87.213486
1.2370917,76.520164
1.2052621,79.09787
1.0373753,80.76561
1.0519978,81.98399
1.0331013,76.1175
1.0781817,73.90604
0.96449107,71.969
0.9336493,73.69146
0.77290595,67.7051
0.81277806,68.0558
0.76331306,63.161587
0.81767756,60.516438
0.63649,56.282326
0.6380583,65.588234
0.7170995,59.937813
0.65118164,56.34213
0.5767463,52.609234
0.65119094,55.242508
0.6113425,53.29563
0.52557784,52.686863
0.6189433,50.56703
0.63882893,51.356106
0.5972375,47.40016
0.6257628,45.12352
0.61747944,41.72644
0.6392947,42.451164
0.56291676,40.0
0.67729306,40.318188
0.44063696,40.0
0.5594405,40.55719
0.55833274,40.0
0.42444745,40.0
0.49187616,41.615353
0.38866258,40.0
0.4194102,41.044243
0.23272373,40.00982
0.3249112,40.701336
0.22084711,40.0
0.33492294,40.0
0.2265078,43.921364
0.04247675,40.0
0.19496234,43.852276
0.19738281,40.015297
0.13286406,43.928715
0.27217913,44.843433
0.18383107,48.40208
0.32374403,46.918247
0.1933613,51.98698
0.32993698,51.20353
0.2361947,56.275597
0.38807794,58.74573
0.5257658,57.83819
0.52454674,66.28789
0.53628504,66.35542
0.73419744,66.92732
0.6647511,69.01174
0.850935,77.53986
0.9127289,78.09002
0.9342358,81.33418
0.9851084,80.94751
0.9939545,85.16298
1.156191,89.45283
1.1899507,88.68785
1.292892,94.95923
1.2474136,99.12585
1.3076838,104.142426
1.3587276,104.92901
1.4271374,107.9521
1.3415176,103.20485
1.4090552,110.15224
1.4755145,114.077255
1.4594783,112.0871
1.4491819,113.071556
1.3972346,117.91426
1.4840907,117.00679
1.4598821,117.72762
1.4334419,119.0251
1.3223614,121.34019
1.3944658,120.38862
1.3818053,120.32186
1.3830746,122.39755
1.429131,118.76982
1.3953178,121.83516
1.3774054,121.6797
1.3256079,118.17312
1.2973818,119.6599
1.2569853,115.82322
1.2926484,114.72009
1.1656638,116.38392
1.0784059,116.98127
1.1672823,110.897835
1.2111402,104.731316
1.0417058,109.91583
1.0590128,108.115814
1.1053413,104.38882
1.0510488,106.7258
1.0283972,107.49617
0.955611,100.35078
0.9597706,104.98744
0.9690872,100.21424
0.9824249,100.85776
1.0007759,100.39154
0.94072914,94.29542
0.84764385,94.725426
0.86952,94.47399
0.85436845,86.36263
0.89115906,83.242714
0.81747127,87.22742
0.8064668,86.106064
0.8279456,82.10532
0.7856855,85.06142
0.8019149,82.779045
0.70670676,80.72253
0.73390424,77.36618
0.7202088,75.781494
0.7235551,73.986275
0.54841,74.43535
0.6238626,73.18424
0.57788444,71.54741
0.5471387,68.025375
0.37057874,64.9346
0.5271174,64.424324
0.48759475,60.4285
0.27173695,63.284706
0.37128654,66.08104
0.41976494,56.84677
0.3362378,59.38834
0.34393552,55.06875
0.27927467,51.317917
0.39132327,47.39666
0.27504748,48.33972
0.46402264,53.4921
0.3045897,49.786125
0.27236563,46.130722
0.45797104,46.095406
0.3798438,40.0
0.28509042,41.594814
0.39846808,43.38913
0.24763305,40.0
0.29040343,40.0
0.28481555,40.0
0.2669992,40.0
0.19774455,40.0
0.18670082,40.0
0.085371576,41.62717
0.08518999,40.0
0.1054938,40.0
0.07388886,40.0
0.044756845,40.0
0.13123578,42.293217
-0.049269684,40.0
-0.07389613,42.73334
-0.11649127,43.676014
-0.024558427,48.25291
-0.06428759,46.373516
-0.08308797,43.77467
0.09160924,48.77914
0.19042267,50.883926
0.039703306,50.770382
0.15291959,55.428837
0.26988193,57.331192
0.33971372,57.055004
0.32360798,59.8866
0.5467496,61.46317
0.36581597,68.20959
0.47017017,66.83402
0.6615467,71.522194
0.7358582,77.08934
0.753963,81.0677
0.8955095,84.59033
0.9661772,85.82882
1.1024529,87.15546
1.0777757,89.81709
1.0684988,95.90168
1.1876382,96.740845
1.1706105,96.46736
1.2725035,101.43436
1.2206727,104.03566
1.3367684,108.27581
1.4791307,106.14464
1.3616273,108.93534
1.3396755,110.129585
1.4123201,111.26551
1.4176942,115.86691
1.4925181,118.70086
1.3634533,116.425705
1.4433426,120.5043
1.440748,115.45874
1.3719447,118.0712
1.3086102,122.463326
1.4449751,125.22292
1.4604188,121.635994
1.3431653,118.62298
1.4150382,118.14895
1.2637118,118.82605
1.394034,121.67168
1.2742158,119.90793
1.236697,113.89391
1.2616028,115.98335
1.1650528,114.090866
1.2220335,110.50454
1.2681861,110.80632
1.0998079,108.927086
1.2162178,111.5379
1.1113079,108.04636
1.1310933,104.22186
1.0905573,108.724724
1.0270451,109.322174
1.0838703,101.199
0.98511666,102.36651
1.0945109,93.465096
0.96628207,95.38682
1.0320783,93.92125
0.98336315,94.31425
1.0243039,91.79857
0.9905619,88.7091
1.0307304,88.422386
0.9896423,85.54708
0.88077426,84.55627
0.9704446,80.23238
0.9387535,83.16631
0.95616466,85.12053
0.95095253,80.44488
0.8517881,79.60652
0.78990996,77.990265
0.8562069,74.57689
0.7498514,74.810616
0.8517468,71.874725
0.73456967,67.42659
0.7631803,69.40223
0.626624,67.64785
0.69040024,60.93358
0.6638627,66.320076
0.61829054,61.939735
0.5741691,58.839222
0.515874,60.84956
0.47901413,54.71978
0.5777088,55.101437
0.5398941,50.130863
0.5743012,55.385937
0.46989205,53.133446
0.5847872,50.950363
0.4893301,45.647427
0.58150095,48.45309
0.49801785,46.14572
0.47896165,41.252308
0.555147,41.834446
0.5813272,40.0
0.6162746,40.0
0.54283303,40.0
0.47305053,40.0
0.4886141,40.0
0.46778497,40.0
0.425752,40.0
0.3382164,40.0
0.44999012,40.0
0.2609906,40.0
0.4420148,40.0
0.36612728,40.0
0.25871047,40.0
0.2183659,40.411533
0.15267678,40.0
0.28528038,40.952717
0.15289213,41.60304
0.31674495,46.82352
0.27442846,47.713665
0.37785882,47.538666
0.31390053,51.9112
0.5033252,50.28853
0.47382447,53.550365
0.5369672,54.6053
0.6476056,62.213932
0.7155941,65.76598
0.7454259,62.29734
0.75474316,68.9977
0.89036304,72.52539
0.9292106,76.922806
0.9973152,76.263
1.1678108,81.29988
1.2619818,80.00384
1.2810972,85.48498
1.3584738,86.75385
1.3842663,89.294395
1.5103804,94.10924
1.591031,95.453575
1.5664219,98.92005
1.5754756,100.461075
1.645144,105.68469
1.671606,106.34378
1.754053,108.80232
1.7956378,112.74274
1.7467186,111.07139
1.7495004,111.54241
1.7275722,113.525345
1.749221,117.566086
1.7030623,114.33276
1.8322799,114.57316
1.8165541,124.56667
1.7865359,123.230736
1.7538246,117.795525
1.7266974,119.81597
1.6871886,118.43293
1.7872516,122.544014
1.8983178,120.393265
1.7408388,118.07943
1.612772,115.99622
1.5878193,116.40098
1.6550419,114.687065
1.7526811,118.448364
1.6138947,118.99961
1.5605265,111.82757
1.4920942,107.70653
1.6526725,112.82238
1.5929357,112.08787
1.4004811,112.25127
1.5064636,108.219955
1.4542183,103.46378
1.504949,102.49029
1.5287914,99.44952
1.4779152,98.26943
1.4778078,100.35904
1.4412766,95.68732
1.3410062,95.10043
1.3533831,94.40055
1.3874679,93.10394
1.4411539,90.1354
1.3394313,90.22327
1.384774,89.529015
1.3885263,84.9023
1.4548119,85.86726
1.3775947,78.56129
1.2409453,83.72576
1.2610753,80.61737
1.3411101,80.68764
1.3296837,77.273895
1.2917123,74.60513
1.2281992,77.251366
1.1948394,73.650444
1.2857239,73.124855
1.1833347,68.12568
1.0701776,66.244965
0.97275966,69.333374
1.0015188,62.30399
0.91490847,62.063847
0.88194704,58.772465
0.96760416,56.697216
0.9377469,51.997204
0.84326506,54.554222
0.91831076,54.40128
0.94036704,56.29742
0.83469856,48.678486
0.9466279,47.828953
0.9075248,46.455315
0.8582973,46.44227
0.9717983,40.0
0.8530553,43.768
0.76370674,41.387177
0.86687165,40.0
0.8418335,40.0
0.9472904,40.0
0.8516026,40.0
0.84288037,40.0
0.7916641,42.077175
0.7293887,40.0
0.6664567,40.0
0.6559045,40.0
0.637352,40.0
0.7065728,40.0
0.4848479,40.0
0.57346696,40.0
0.5502144,40.698795
0.5035681,40.0
0.53414685,42.56257
0.51138246,44.44991
0.6062447,48.346733
0.58429205,43.09173
0.5841406,47.32148
0.59265906,50.62259
0.61415154,50.639645
0.723961,55.557693
0.70114094,56.910267
0.9002749,60.58921
0.9551139,61.903805
0.9434116,69.121544
0.97613573,63.278244
1.1969749,71.6761
1.2234724,73.73296
1.3276569,77.7569
1.4908367,76.48255
1.4032878,82.07646
1.4406161,86.83102
1.5814154,85.59901
1.5763143,88.29173
1.6842592,98.56955
1.7497867,96.3796
1.8565519,96.84308
1.8098841,99.063385
1.9155755,104.84019
1.8621341,105.4486
1.8841606,110.27902
1.9421608,109.62506
1.9201243,109.51932
1.9957016,112.990425
1.9066166,115.54789
1.9579417,117.096886
1.9528857,119.44115
1.9488585,115.78205
1.9887204,120.41191
1.8973788,118.61597
1.9299408,121.74102
1.8638188,118.0021
1.8995545,117.42407
1.8274236,118.43644
1.7552199,123.28182
1.8207827,119.58564
1.8117303,114.103806
1.7774385,118.671844
1.7276012,124.932495
1.7178464,118.58117
1.8764379,116.62708
1.7527013,114.01747
1.8758942,110.70947
1.5616437,113.06367
1.6644571,109.87514
1.6188518,106.80727
1.6539242,109.020775
1.4997152,110.8847
1.6485567,104.795616
1.6226869,102.766975
1.5294932,103.684044
1.4698889,99.39661
1.489209,95.59364
1.5414774,100.38446
1.4551842,92.683235
1.562508,94.88808
1.4071867,91.212746
1.3429255,91.17641
1.411101,91.74697
1.324118,87.37531
1.408772,82.134575
1.3664063,83.10466
1.3584903,78.76599
1.4737463,74.96052
1.2152915,80.083664
1.3081583,79.30692
1.2826571,73.33104
1.1105515,69.112816
1.1111932,72.42813
1.1303307,65.86071
1.0298883,72.02824
1.070059,66.944336
1.0024631,66.86262
0.99237543,63.60519
0.9631452,61.899193
0.9313262,61.86528
0.77428895,60.194435
0.93112165,56.919353
0.84823567,58.225662
0.8793309,54.079014
0.7877743,52.56912
0.8327989,51.371437
0.79563415,49.207874
0.7591686,53.12953
0.7282632,49.978485
0.73780423,42.794514
0.8483033,45.386494
0.81009644,45.097267
0.8482284,40.022396
0.74958694,42.310772
0.7924359,40.21385
0.65878904,40.768604
0.7098933,40.790157
0.735951,40.0
0.53720134,40.0
0.6409183,40.0
0.5419366,40.0
0.53865427,40.057938
0.5841893,40.0
0.4134946,40.100025
0.38332084,40.0
0.33659068,40.0
0.33320582,40.983135
0.3847399,40.0
0.38023898,40.61447
0.2888837,42.74386
0.36689216,46.199688
0.32679138,45.302364
0.40760604,44.087917
0.35891393,50.137806
0.5275192,53.765038
0.57267565,55.181847
0.48433498,60.501244
0.7058345,60.57847
0.6640415,62.286243
0.7812054,63.61882
0.9205636,66.58687
0.9661232,72.812836
0.9988982,77.64777
1.1505004,75.76604
1.1247089,82.86847
1.2481115,84.878395
1.3292919,84.542854
1.2805296,92.76087
1.39266,90.96723
1.5081375,92.41639
1.4782506,96.46921
1.4255736,97.96152
1.5652449,104.61095
1.6217526,102.61153
1.6157895,108.50613
1.6916374,108.63305
1.5077028,106.9347
1.5950873,110.29203
1.7431535,111.83458
1.606463,116.67677
1.581956,121.36518
1.6030416,118.59539
1.6264591,114.327065
1.6956766,121.25124
1.6261919,122.95302
1.7047834,118.96585
1.616411,121.13716
1.5520037,117.32994
1.5878314,118.616806
1.559181,122.79481
1.4447217,121.95721
1.4602404,117.73725
1.4865328,118.52411
1.4176179,115.43477
1.346538,115.287285
1.3290651,113.78226
1.362585,111.13435
1.268346,114.87972
1.2891659,110.02003
1.2004602,111.3286
1.1411811,112.00865
1.2963886,108.77127
1.2900485,104.582634
1.1559489,102.49621
1.1992295,103.13995
1.026441,97.27941
1.1683686,99.29046
1.1953783,98.529434
1.0566657,94.99595
1.0324974,95.56756
1.138059,95.99672
1.1058582,93.77659
1.0935019,91.80674
0.9264807,89.53954
0.9888805,86.75867
1.0317239,85.88847
1.0354011,80.276886
0.94416136,80.96935
0.8916889,82.53214
0.958221,77.96989
0.82657987,77.02915
0.77166694,74.11233
0.82192725,70.47898
0.7075201,72.07734
0.7271959,69.22741
0.664476,69.987656
0.59435964,67.197975
0.62042785,65.32623
0.6234376,59.380207
0.57987005,62.490704
0.4645291,56.327366
0.41992706,60.595383
0.4843278,56.340397
0.5083074,56.67667
0.44792575,52.744312
0.46453565,52.059013
0.3132312,47.665524
0.4128526,45.77315
0.5193817,48.953808
0.4280141,48.70594
0.38433486,43.63654
0.55042315,40.0
0.4574889,44.782288
0.3838178,40.0
0.4223954,40.0
0.31935698,40.907703
0.27347755,40.0
0.22387952,40.0
0.15400851,40.0
0.30193213,42.11778
0.24803682,40.0
0.17773093,40.0
0.1826161,40.0
0.11409778,40.0
0.03900066,40.0
0.04986573,40.0
0.016600447,42.236652
0.014809592,40.824898
0.006367235,42.743515
0.009927114,42.081417
0.007707232,41.306904
-0.014720042,44.03425
0.124179475,46.48334
0.1079882,51.295708
0.26181749,55.167778
0.1723471,49.818913
0.15650088,51.882713
0.320557,58.261055
0.32063022,62.821377
0.47216696,63.704086
0.34120977,65.54349
0.63150203,70.96323
0.6878944,75.23043
0.6708278,74.47548
0.76159847,78.232605
0.8499298,83.83179
0.9974287,84.09444
1.0114595,91.11819
1.1455504,91.55008
1.0890204,94.15155
1.1593416,92.6181
1.2292755,98.49497
1.2090732,101.312485
1.3076053,107.87685
1.3069179,102.98825
1.2391732,111.68301
1.3027686,105.52369
1.2719313,110.87373
1.3260635,114.22135
1.271338,111.332504
1.4387805,118.39354
1.4182211,117.46267
1.3585365,118.36397
1.3721102,123.58286
1.3394251,111.773285
1.4148681,119.56156
1.3576584,124.041885
1.3412502,121.90168
1.3905486,121.57347
1.2821902,124.86468
1.2620393,119.47821
1.2373091,118.0572
1.2324735,116.90725
1.2836653,117.16329
1.0902685,117.84219
1.2473999,115.390045
1.0048225,110.42324
1.015713,113.57262
1.0329068,111.01421
1.0248874,111.079094
1.0993564,106.77055
1.0593393,106.914536
1.0267463,105.858246
0.96577936,104.98708
0.97553396,101.73722
1.0455306,102.10495
0.9280852,101.71695
0.9388407,95.48844
0.95025903,97.57986
0.89911395,94.7812
0.92019117,93.67403
0.88482356,91.4078
0.87448156,88.83024
0.85290444,85.73985
0.8177694,84.6711
0.902683,85.20177
0.82720935,82.4975
0.86867523,79.81368
0.75631446,82.581535
0.788327,79.58338
0.76411045,80.89002
0.73922235,75.93855
0.67145914,74.72242
0.67922455,69.61782
0.57288253,69.958046
0.56397814,68.846825
0.5473486,68.98765
0.6095461,65.92393
0.44275805,62.049488
0.46246597,59.67766
0.37062475,57.09614
0.39964256,56.956295
0.41107127,58.175507
0.3214736,54.365097
0.43679503,54.90828
0.28938356,51.567204
0.41099343,53.289425
0.35472134,48.57521
0.40570205,45.353836
0.40222532,51.352276
0.38327554,41.44869
0.51743865,43.089622
0.24839629,45.375416
0.41267252,42.582386
0.37112114,41.727318
0.29537597,40.28882
0.34000304,40.467075
0.288317,40.0
0.19718708,40.0
0.2538815,40.0
0.18435618,40.0
0.20109755,40.0
0.2341987,40.0
0.08842574,40.0
0.13027452,40.0
-0.002458633,40.0
0.103245355,40.0
0.08528683,40.0
-0.058465693,42.738716
-0.0041939816,43.700413
0.045883626,42.04962
0.123019785,41.964153
0.18954527,45.82063
0.09149522,49.854107
0.23431894,52.6147
0.17378667,53.822575
0.32230246,58.490555
0.3438011,59.714657
0.38402188,63.052048
0.47988534,63.963745
0.5917465,66.57336
0.6111789,67.77263
0.78668314,71.44134
0.8836467,77.14346
0.79966265,81.86329
0.98331666,81.85243
1.054365,86.33397
1.1721325,86.145325
1.2484814,93.93352
1.215472,88.189896
1.2533398,96.71493
1.4316148,100.05683
1.428486,98.65936
1.5108433,104.480736
1.4591327,107.20417
1.4316869,104.91726
1.5214883,108.170235
1.4950209,110.77308
1.5100106,111.610344
1.4953227,116.45834
1.5398278,114.27186
1.6163011,116.64602
1.596406,123.35217
1.595755,114.934326
1.5473403,115.95114
1.4787763,122.59171
1.6898453,118.080826
1.5058786,121.96976
1.5737883,120.725555
1.5323788,120.67089
1.5454636,118.11881
1.5827051,117.748695
1.4565974,120.538506
1.4693823,114.8296
1.3086585,116.84681
1.4417886,115.14221
1.5050445,112.75853
1.3339199,111.68578
1.2351444,111.88692
1.2520477,109.86508
1.27222,111.563385
1.2282888,107.54657
1.2602364,105.233345
1.2220713,100.887375
1.20121,101.842026
1.216533,99.30414
1.2997017,95.609406
1.2017831,100.56761
1.178528,98.82865
1.2098459,91.20367
1.1789256,94.198265
1.1243409,97.144745
1.23583,86.45969
1.1035141,89.5363
1.1146207,82.03505
1.2052629,86.197
1.1964275,85.19817
1.1193423,87.03338
1.1566908,79.4168
1.1472601,76.88722
1.0648675,76.89762
0.99250275,74.96937
1.0422575,70.59556
0.99911934,71.32168
0.9887018,72.089195
0.85202396,70.570366
0.8738406,68.88092
0.7749349,62.471493
0.78549516,64.842804
0.8129434,62.604973
0.734788,60.5899
0.7147285,60.526
0.8586633,60.756084
0.7398936,53.05081
0.82985216,54.62538
0.7447891,54.01465
0.7813662,54.07126
0.6898503,47.642555
0.6880841,51.191513
0.7356743,47.79097
0.71703887,43.917686
0.68218094,40.428246
0.66718644,43.847816
0.70894736,40.55085
0.7189428,40.0
0.69729894,40.0
0.6956121,40.0
0.57728606,40.0
0.5885239,40.0
0.69366527,40.0
0.5783439,40.0
0.43858936,40.0
0.5471675,40.0
0.4760025,40.0
0.5151675,40.0
0.37707222,40.0
0.4449409,40.0
0.40995893,42.661278
0.46140078,41.560116
0.39116076,40.0
0.39483187,46.628925
0.47400263,45.2927
0.5447824,50.70272
0.5705319,48.8822
0.62115234,53.32971
0.64013946,53.192265
0.6759723,57.8272
0.63834727,57.57016
0.7860645,58.548595
0.87245107,63.57563
0.93105286,65.8103
0.88378745,69.07939
1.0771286,68.63848
1.2474266,76.45009
1.2289625,76.1583
1.3563277,81.03261
1.5253065,83.32148
1.4538426,86.47906
1.6404059,89.53201
1.5666552,90.797424
1.6830739,96.61046
1.6726213,97.7973
1.73547,103.55897
1.8020335,107.238884
1.8851317,107.0818
1.8755714,106.28156
1.8045194,112.61585
1.88799,106.27426
1.9397738,111.324776
1.9468259,118.260605
1.9002067,116.79067
1.862552,117.862885
2.0086436,118.16488
1.8531935,115.22429
1.9102384,120.28126
1.8115615,120.6015
2.0111074,118.379456
1.8456287,122.384544
1.9423054,124.23964
1.857649,123.77568
1.8125734,122.09991
1.8542461,119.90312
1.7272086,118.06205
1.8317044,114.63622
1.7404635,117.21851
1.7838707,120.23924
1.7281184,113.05939
1.6918118,117.09123
1.6430267,113.79213
1.6401467,116.05022
1.7340695,109.0559
1.616357,106.71217
1.6198119,107.85398
1.4856509,101.50007
1.4450496,99.182976
1.4932302,99.471855
1.6169348,102.52141
1.6755977,100.97695
1.5208845,97.01693
1.5749652,90.6644
1.543148,95.80923
1.4646317,91.3911
1.4866066,93.11133
1.4833114,87.31701
1.4900913,88.65471
1.4035586,86.12827
1.4774272,81.53024
1.4633627,84.82514
1.3566052,80.657845
1.3972775,80.02702
1.3604493,77.96822
1.3458241,77.10552
1.2683729,74.214134
1.2422918,71.23672
1.2324346,69.448166
1.2539499,69.41892
1.2621124,68.3289
1.0876029,69.26067
1.1738957,64.13677
1.1113312,64.293015
0.9908237,63.044304
0.90444356,63.089508
1.0343252,57.549084
1.0754476,54.362736
0.86315984,53.29719
0.8583852,52.953354
0.93876916,51.146687
0.97667336,50.4118
0.94565034,49.81653
0.9348547,48.88396
0.8805154,46.99838
0.8449382,41.821247
1.014067,43.806087
0.96339166,43.593697
0.9259658,43.02727
0.91316867,43.961704
0.87741107,40.0
0.83052045,40.0
0.7310146,40.0
0.8028062,40.0
0.739867,40.05528
0.60889006,40.0
0.65206873,40.0
0.6820471,40.0
0.61011845,40.0
0.67553693,40.0
0.5321276,40.0
0.5467324,40.0
0.4542264,41.87027
0.43833414,40.0
0.54958844,44.384365
0.5598392,46.203285
0.5082796,47.534935
0.54046583,46.682346
0.62513465,49.680145
0.5959182,56.07015
0.75437194,51.377995
0.69902754,56.274254
0.8100045,59.555737
0.8400781,62.747696
0.9633182,67.318634
0.97719306,68.003
1.032855,69.25066
1.2420962,74.66172
1.1981883,76.60713
1.2840571,77.82407
1.4616207,82.06343
1.5355821,86.781425
1.592711,91.46026
1.534841,90.945404
1.6206353,95.36041
1.6646585,100.119385
1.6785183,103.56906
1.6922766,98.79819
1.7827874,105.40389
1.8630548,106.39669
1.8773096,108.51015
1.8833302,113.42667
1.8484,113.73034
1.9402492,118.55345
1.8609239,111.10943
1.9146347,117.636055
1.8174847,118.85527
1.9293073,118.99726
1.9724686,120.072914
