ppg,abp
1.1089053,80.57359
1.1348398,82.877716
1.1779379,85.756744
1.2164783,84.6376
1.2591721,84.21471
1.3415192,89.131386
1.4658056,86.647064
1.5552775,87.85863
1.5568087,88.96851
1.5147147,91.74936
1.5993555,91.35386
1.6161318,94.42859
1.6177956,95.748856
1.6539075,93.69904
1.7029315,97.144875
1.7092096,96.61981
1.6575787,94.84922
1.7377077,99.02881
1.6970336,97.455185
1.7407037,100.10318
1.707795,99.223015
1.6977589,98.95745
1.7018116,98.60604
1.6963829,99.50095
1.7324201,98.81263
1.7314882,95.65768
1.7468598,97.0236
1.6623358,96.984436
1.7056177,96.01006
1.6330647,97.093994
1.6956927,94.756905
1.573999,99.01568
1.5751866,97.36536
1.6289752,93.537964
1.5395129,96.30055
1.5677383,93.50657
1.5883522,96.76945
1.465666,96.09765
1.5179394,97.01195
1.4946738,92.37768
1.4284521,90.35884
1.498449,91.60422
1.4028556,89.809715
1.4000976,89.34496
1.414592,88.46049
1.3358718,87.20904
1.3047715,89.98953
1.3959304,86.95495
1.3599017,86.57693
1.3565819,85.32593
1.3252385,85.197586
1.267252,86.662445
1.352836,83.77951
1.2918712,83.969635
1.3284264,81.96076
1.23065,82.39704
1.2475847,79.20402
1.258653,79.51488
1.1501553,79.35125
1.2221035,81.11401
1.2348534,79.99773
1.1601417,77.06475
1.0579259,79.99744
1.0612488,77.2089
1.0125315,77.06177
1.0436326,76.46586
0.93390435,75.016884
0.88760877,74.33306
0.88173264,71.728035
0.9435702,73.40184
0.8556163,72.06716
0.93954176,72.10924
0.9040933,71.17425
0.901539,70.197426
0.8870914,68.416405
0.8225233,68.29945
0.88103753,67.99444
0.88014156,69.03791
0.83106047,65.24122
0.804691,62.1193
0.8265291,64.5592
0.87159806,65.71266
0.86103463,66.057785
0.7631847,63.22882
0.8379751,61.82919
0.8888216,63.426323
0.81712776,63.217285
0.7688824,64.51859
0.7774062,60.63242
0.70512193,61.68306
0.7412859,61.56501
0.6884614,62.360886
0.6345228,64.25488
0.5311397,60.79034
0.5964567,63.729034
0.6080321,61.762558
0.5723604,62.89968
0.576081,61.602478
0.48912874,62.92524
0.566676,65.48201
0.5829613,70.00485
0.5515643,66.750114
0.5452829,68.545334
0.70041275,66.45818
0.6973933,71.97779
0.65987283,70.18954
0.8048614,71.9289
0.9200309,74.650055
0.9988111,75.01568
1.0276296,75.49438
1.0884984,74.58786
1.1526657,77.590256
1.2847891,78.22566
1.284544,79.3877
1.3274653,79.22726
1.4284488,83.47898
1.5665275,83.64679
1.5554695,83.67648
1.5946572,89.12429
1.6245941,86.3572
1.7197518,87.06459
1.79925,87.79639
1.8291186,91.9131
1.9091201,92.14412
1.8553687,93.8791
1.8752612,95.526344
1.9089226,95.55558
1.9435695,97.365685
1.9771379,95.69658
1.9949895,97.66581
1.9732729,98.02905
1.9768064,95.90763
1.9954122,98.46109
1.9511828,99.21476
1.956275,99.87552
1.9299119,96.11457
1.9732692,99.84737
1.967125,97.217964
2.0061483,97.53515
2.0031059,97.57206
1.8359249,100.82927
1.8378226,98.576645
1.8289415,95.924164
1.8079597,97.64421
1.8307912,97.05039
1.8026965,101.741425
1.740668,95.47683
1.6907141,92.60667
1.6952875,95.11102
1.6799053,94.676384
1.6508038,96.69732
1.6347816,95.807396
1.5300127,90.02993
1.605248,92.73226
1.5987664,94.73163
1.5349144,95.86353
1.5814036,92.34314
1.5086566,89.74614
1.5144233,89.45031
1.5086673,90.78713
1.5245149,88.03192
1.4432135,86.24761
1.5181127,85.935524
1.4256592,85.29032
1.4132704,83.374725
1.3626766,86.47329
1.3924662,86.12996
1.3764416,83.59458
1.3177226,83.69769
1.3033259,80.04916
1.3434638,81.22619
1.3594784,80.437805
1.2680889,79.38932
1.1745255,77.13031
1.198626,79.09897
1.1522001,77.5956
1.0731342,76.90633
1.0532124,75.21406
0.98566335,73.50072
1.0165232,74.37565
0.9876501,74.78565
0.98873496,72.61478
0.9488785,71.48062
0.9085997,68.673485
0.8871124,70.781784
0.847095,71.1092
0.8875348,70.413574
0.84619844,70.08256
0.7877882,68.55293
0.8629127,66.210464
0.8536753,67.268974
0.8406024,67.07319
0.8566601,66.65105
0.7873229,65.89999
0.86072797,64.194534
0.8614119,65.036674
0.765738,66.02739
0.83157486,64.44001
0.7366081,62.10066
0.7728418,62.5632
0.66407216,65.215996
0.7163941,64.626305
0.6175989,64.20063
0.661518,62.635292
0.61397237,65.14123
0.5583985,64.33808
0.51935685,62.204567
0.43358597,65.498146
0.4622762,64.991745
0.39529434,60.368927
0.33788297,66.492935
0.38725623,64.414536
0.35896397,64.13403
0.33583656,68.16954
0.4194535,64.3918
0.5030659,67.802475
0.49749896,66.33701
0.45058587,70.225975
0.48120224,70.685326
0.56140965,68.44874
0.6384771,73.268745
0.72538525,71.25313
0.77652997,74.26462
0.74630344,76.98237
0.86304456,75.796646
0.9795127,79.224266
1.060617,78.01376
1.1158322,80.50839
1.1847912,81.68076
1.2454885,81.45922
1.4411004,81.3973
1.3725693,84.36564
1.3737353,85.03909
1.4819654,88.459076
1.4796089,87.85368
1.5474757,89.22605
1.6682546,90.2178
1.6058685,91.963425
1.6565163,94.45025
1.6380987,94.487976
1.6537068,95.50588
1.6063068,93.55819
1.6964685,95.04297
1.7160197,98.35195
1.6658192,96.748726
1.6424983,94.257484
1.7486656,95.309525
1.7159612,97.64593
1.6783193,95.631386
1.6788903,99.93287
1.567571,98.04121
1.7358464,99.12633
1.6626948,98.25851
1.6059849,98.70908
1.5373864,98.408485
1.4569842,97.37773
1.4971857,98.31779
1.4369911,97.1572
1.3645204,97.82893
1.385948,98.77184
1.3716053,94.69824
1.3705463,96.58013
1.273869,92.46406
1.3747302,95.72317
1.2814488,93.02158
1.2798337,92.37684
1.1999097,94.30477
1.1860471,93.17262
1.2264466,90.91849
1.1843014,90.618744
1.2051312,89.3718
1.1822143,89.266014
1.2018061,87.37279
1.1434488,87.21582
1.0907768,89.12888
1.1302098,85.76536
1.0293633,86.57296
1.0040711,84.99511
1.031757,84.89153
1.0470709,87.41089
1.0480624,82.78542
1.005621,84.25224
1.0164382,82.462425
0.93472075,82.24855
0.8791466,83.84045
0.874024,82.07364
0.91043633,78.719444
0.82178384,78.10987
0.7915124,76.62599
0.7216711,77.2811
0.644934,75.1984
0.6696798,74.77938
0.62608397,73.34615
0.602023,74.30496
0.63620627,77.09047
0.5782579,71.14824
0.543461,69.7593
0.5003274,72.176315
0.47996986,69.67926
0.5313303,70.09265
0.5040314,71.208595
0.49079397,68.4282
0.3861371,69.57737
0.42053714,69.90172
0.4682504,67.95499
0.40592843,68.46839
0.41265976,66.74269
0.44307563,65.870514
0.3568669,63.72394
0.36033753,62.92764
0.4106011,63.474976
0.28123423,63.822304
0.30113357,64.220184
0.31866693,58.89791
0.29668358,61.6279
0.28867313,65.212265
0.23118648,62.837425
0.18195763,61.74407
0.13520782,61.41937
0.11424748,63.974655
0.12973292,62.065193
0.053439464,63.167816
0.01955099,60.483166
-0.014476962,64.97927
-0.056740995,64.112434
-0.033019867,64.27758
0.05834196,64.67966
-0.011580935,64.52559
0.06314098,67.43429
0.06441157,67.300606
0.09952895,67.42164
0.13965154,71.18876
0.18142474,68.84908
0.24177626,74.95244
0.2473542,72.53982
0.37488762,74.28493
0.46636334,74.76355
0.553881,74.74712
0.6006369,75.91693
0.58919907,79.30437
0.66208285,79.08271
0.81378,80.47138
0.8975168,81.608215
0.8969342,85.23237
0.99782044,83.67492
1.0253015,87.338394
1.0278236,90.424324
1.1842468,87.367615
1.2027758,89.261246
1.2518955,91.446396
1.2180057,91.362465
1.2150584,93.94694
1.2523296,92.823715
1.2768086,94.3705
1.3413775,92.31295
1.3440577,93.00448
1.371219,96.776436
1.3706213,97.52345
1.3327063,97.88988
1.3582935,96.78515
1.4177645,98.769554
1.4680568,97.80794
1.3581382,99.85287
1.3362269,99.68524
1.3055761,100.75385
1.4229605,101.846825
1.252938,99.83618
1.2657346,98.86399
1.2636881,101.22367
1.3089384,97.895454
1.2484176,97.49583
1.1618544,98.348785
1.1917442,95.17503
1.1647172,96.199425
1.2010057,97.92275
1.0928942,98.28371
1.0724127,96.216774
1.0487231,91.86827
1.005002,94.7261
1.0143942,93.550095
1.07841,92.01967
0.9921277,92.99626
0.972651,88.08207
0.959499,94.16589
0.9604546,88.55383
0.8325319,87.909515
0.9212688,87.03319
0.95085615,88.98076
0.95525116,86.12667
0.9680103,85.88368
0.8788389,86.82662
0.8193918,85.238525
0.88695043,81.642746
0.8577979,84.24518
0.79925156,84.052986
0.8188227,81.95765
0.8243264,81.480484
0.8507811,79.77756
0.7184452,77.22703
0.7624007,81.458275
0.70283055,77.08416
0.6142328,78.38665
0.5969112,77.79213
0.61359334,76.30157
0.5671478,77.09992
0.4682916,72.627914
0.5592494,74.81126
0.451901,77.26234
0.50400406,73.71203
0.4434147,73.81362
0.38674805,69.47134
0.34084472,72.89433
0.35955566,70.7087
0.43421847,68.36329
0.38982952,71.76298
0.34178546,68.3263
0.30964366,67.02164
0.33588096,68.48339
0.35395104,66.21693
0.36342302,63.162605
0.34501085,66.87134
0.40872696,65.12933
0.340692,63.508286
0.42223027,62.995213
0.28665546,63.13475
0.36928472,63.64774
0.24001954,62.564617
0.24209715,63.42657
0.26771957,61.60245
0.29294688,61.64482
0.19605744,63.033535
0.16244741,63.380367
0.18932238,62.21969
0.19632144,60.951225
0.11671092,67.43275
0.16633847,62.890976
0.08967526,66.69586
0.018391315,63.314507
0.07829413,63.74262
0.015611761,66.271194
0.005083897,68.07876
0.05023944,67.772484
0.13205555,63.11691
0.12831208,70.649895
0.10114137,66.07586
0.15920533,68.20143
0.2623244,74.51217
0.31794775,70.28118
0.33684233,72.810844
0.4903466,73.93433
0.5363155,75.08975
0.64176786,75.031586
0.7968913,77.87646
0.72770244,80.46926
0.8183636,79.62146
0.9262842,81.72781
0.95254326,83.07473
1.1223003,80.08832
1.1069639,85.68983
1.144559,87.25095
1.1449636,88.645546
1.2930743,88.46654
1.3627136,88.68533
1.404295,87.62941
1.4394839,92.07325
1.4219537,90.67289
1.4555796,94.912224
1.552359,96.08261
1.4676634,93.819916
1.5307648,96.03005
1.555579,93.13278
1.5313095,96.46029
1.557938,99.790596
1.5615942,98.706276
1.5882722,98.61505
1.5824671,100.03604
1.5445251,100.18938
1.5421151,100.565636
1.5772369,97.80219
1.5208367,97.718704
1.5492983,101.31599
1.5351248,98.705215
1.482044,99.68798
1.4298216,95.46348
1.4938316,99.406296
1.4625645,97.14
1.3664637,97.38329
1.4525456,99.386765
1.4136181,95.22709
1.3933587,96.840416
1.259006,95.38935
1.3526844,96.65657
1.3190243,96.3909
1.3243436,92.32219
1.2474208,93.705376
1.2845476,90.66556
1.2526231,90.915276
1.1825173,88.76433
1.2427272,91.562225
1.2473308,86.79226
1.275003,88.080605
1.1668984,88.453865
1.2485447,86.68267
1.2721128,86.33604
1.1965845,86.32162
1.1872934,84.048615
1.2177268,81.375854
1.1664166,84.27693
1.1306766,82.41442
1.175634,81.56427
1.0849186,82.22512
1.1050698,81.17125
1.1054521,81.42163
1.0717798,80.20132
0.9913076,78.66791
1.0147957,79.29023
0.98514366,78.42499
0.9711913,76.267006
0.963006,73.7945
0.85703284,74.551125
0.9090808,76.53489
0.82811785,78.072426
0.8301853,74.0592
0.71233624,70.63482
0.80326986,74.786804
0.68517905,68.4912
0.72177476,73.12762
0.8125298,69.9522
0.74131334,66.535866
0.73807776,69.036095
0.6522841,65.769844
0.78327036,65.879684
0.6842104,68.94849
0.6897615,67.538956
0.7816746,63.029438
0.72910136,68.05924
0.7226863,64.6298
0.7128356,64.56585
0.71078485,65.194855
0.73792994,65.46389
0.7650847,65.197
0.6762593,63.46818
0.6458352,62.844135
0.6379498,60.72727
0.6460098,64.07812
0.6040856,59.49085
0.54515445,62.104317
0.45724025,59.79519
0.51395136,61.33466
0.43368652,63.773136
0.40256602,65.50438
0.47213995,65.14711
0.46240762,66.090485
0.43303075,66.41203
0.4580649,64.761795
0.4730627,66.20895
0.41083115,67.85175
0.56808287,67.71197
0.5506491,69.87356
0.65050966,71.17514
0.67005146,70.955475
0.7414338,74.362816
0.7864355,74.884995
0.8393566,72.26221
1.0028592,75.91583
0.9916985,76.61339
1.1440861,78.16908
1.2499248,80.90441
1.1718923,79.74307
1.387184,79.257614
1.3961877,85.101036
1.5419651,83.620995
1.555893,84.52373
1.6461687,87.55601
1.6205449,88.18349
1.7216439,87.32216
1.7845595,89.22506
1.6989208,94.78911
1.7540199,93.14494
1.8483293,88.93576
1.8613461,90.54744
1.8609855,93.46553
1.8949937,93.88437
1.9170101,96.27417
1.8881133,98.486465
1.8748327,94.3365
1.9265915,99.57051
2.0035677,99.16938
1.9538238,98.13204
1.9025646,95.6132
1.8631009,99.85896
1.8891006,97.282585
1.908906,98.98742
1.9171971,100.56722
1.9249808,98.04432
1.8974316,95.275444
1.8831542,97.3072
1.8524636,97.22777
1.852995,99.531815
1.799841,98.09107
1.7586396,97.05224
1.6728511,97.00234
1.7275583,96.79945
1.7617506,93.33984
1.6599777,95.34653
1.6210177,96.162636
1.6544048,93.28865
1.6025188,90.81087
1.6618437,92.958046
1.5443171,91.63766
1.6206975,91.27766
1.5345771,89.415764
1.509827,89.548256
1.5233616,91.68214
1.5457542,87.88166
1.4262502,85.16991
1.5419809,88.804886
1.5147982,86.142235
1.5289894,84.16835
1.5271016,82.6505
1.4398375,83.27535
1.5557787,83.52328
1.3909001,83.76535
1.424058,81.53413
1.4033338,81.1793
1.3500952,79.5825
1.3689163,78.9683
1.2941649,80.54564
1.3113754,78.08101
1.144653,79.90596
1.1936891,78.750534
1.1261396,78.29822
1.0810704,76.67633
1.1328702,74.48675
1.0751946,75.73525
1.0180827,72.0072
0.9968699,71.50203
0.9478384,73.10556
0.89858544,70.32678
0.98147404,73.72494
0.9639766,70.257195
0.92316335,72.132614
0.9511853,68.93312
0.9178161,69.23225
0.89598715,66.48544
0.91824293,68.648575
0.9190111,67.01227
0.92426884,65.47958
0.8451761,64.02674
0.8789317,63.789608
0.86981696,63.998722
0.83230275,65.59681
0.87250286,64.17627
0.81249386,62.060352
0.85791045,67.78891
0.74551183,61.37158
0.7959116,66.0161
0.6443714,61.403927
0.69089955,65.00133
0.6765686,61.614483
0.60211694,64.396034
0.6072145,64.239105
0.5965436,64.27538
0.61992276,61.630672
0.4845202,62.382847
0.51327944,64.04098
0.50843257,62.32077
0.5740832,65.80752
0.4565331,65.12866
0.59484625,65.63078
0.5704804,70.66416
0.61404335,68.866066
0.66179174,68.77395
0.7063679,71.7668
0.7743599,70.98047
0.85893446,71.28372
0.8902495,71.75761
0.93532133,74.26108
0.95772403,76.372025
1.1174444,75.64621
1.2183635,79.16073
1.2638044,78.647255
1.2540569,80.057434
1.4123114,81.34923
1.3369349,83.11654
1.5253311,86.0346
1.5209724,85.63763
1.5303465,90.20664
1.6746886,86.45864
1.6278182,88.470085
1.775361,89.556526
1.7659204,90.15938
1.7202058,90.04118
1.8904933,98.658554
1.8171022,92.331535
1.8657315,94.46657
1.8618628,95.64942
1.824162,96.425835
1.8204674,96.58063
1.8493557,98.14958
1.8102098,100.73494
1.9098068,97.96455
1.862866,97.87328
1.8583224,99.6478
1.8728491,98.42303
1.8249482,99.07011
1.8031694,100.51757
1.8220593,96.87572
1.721431,101.74657
1.7619375,98.28551
1.7289333,98.02981
1.6979538,97.80319
1.6699399,98.91899
1.6150349,95.193825
1.6134099,96.85136
1.4622626,95.70648
1.5902188,92.277
1.5316108,96.54524
1.3971663,97.651344
1.4556437,92.09571
1.3821977,92.78322
1.3260252,92.61695
1.3512355,89.188034
1.396867,93.89106
1.2973036,88.946
1.3624831,91.217766
1.3732474,90.28881
1.2587725,88.78742
1.2959368,86.8324
1.2263595,86.90525
1.1965864,84.96758
1.228109,82.68428
1.2240882,85.00878
1.2345604,85.158615
1.1891034,83.829414
1.2165859,83.153275
1.0823637,86.11486
1.120414,82.66725
1.129344,81.44242
1.1470978,81.82121
1.0389911,82.69299
0.9919084,80.619064
1.0248731,80.33751
0.9631089,78.15336
0.9524449,76.44581
0.8089974,77.143745
0.85261106,76.09022
0.89189225,75.285515
0.7156155,72.94577
0.6654836,74.905
0.7650135,72.44339
0.6815622,70.08669
0.6691583,70.30731
0.7066777,73.88913
0.6144762,69.51114
0.61385995,73.21739
0.6085977,68.52929
0.59879845,67.941795
0.56596416,68.91458
0.6745115,64.99686
0.5414376,66.71128
0.54849094,64.00733
0.56593865,67.06639
0.5224183,65.40326
0.53133976,64.03885
0.55387926,64.328285
0.58637625,64.05994
0.52712256,63.11113
0.43561304,64.48248
0.4810721,62.354527
0.46993256,60.544395
0.4074694,60.864597
0.34342673,63.19435
0.32447705,61.88071
0.2607909,63.427246
0.26855463,63.17959
0.21178725,63.898144
0.1594411,64.12229
0.20299356,64.74569
0.09390603,62.216267
0.16284092,63.225414
0.112071924,64.30258
0.28338423,65.21004
0.13941126,66.22016
0.18037571,68.10568
0.26045942,67.68255
0.22034875,69.730415
0.30822667,71.482155
0.3996521,73.731064
0.42324907,73.17886
0.50277925,73.48796
0.6264107,74.24004
0.66833854,75.71618
0.65431684,79.94543
0.82427335,77.807
0.7589603,79.60931
0.9318198,83.2985
1.0007873,82.28665
1.0519671,83.85478
1.069959,85.741066
1.2549509,84.229004
1.2331047,87.11553
1.211163,89.88268
1.2994125,88.73646
1.3540215,89.25053
1.3624781,91.04888
1.3989276,93.75622
1.4138453,93.35031
1.4717447,94.22133
1.4471631,94.84473
1.4747192,94.105576
1.5031109,96.60773
1.4820033,99.00365
1.3859651,98.36562
1.4134607,96.82088
1.3930229,99.4582
1.398368,97.066925
1.4422841,95.04895
1.3859982,97.694435
1.3638711,97.09426
1.3923995,98.806694
1.4122043,97.72273
1.3760271,97.98857
1.3286357,99.31903
1.3016769,99.800644
1.2384167,99.58607
1.1867135,97.83468
1.2751939,96.73722
1.1571954,94.31604
1.144145,96.858025
1.0683328,97.016396
1.1296587,93.69777
1.0849053,93.043015
0.99491686,94.78272
1.018674,89.91635
0.9803966,95.3133
0.9703834,89.12913
0.9476933,91.41028
0.9645499,89.08535
1.0526509,90.380875
1.0111258,90.93984
0.9783663,89.37858
0.9166793,87.81397
0.9525977,88.50732
0.9600348,87.55777
0.91867435,86.29003
0.8727636,86.29637
0.8453639,87.49658
0.8425125,86.27485
0.9460529,82.75031
0.8166953,83.9316
0.8309943,81.528854
0.75389713,80.72923
0.7473583,80.39575
0.75386006,80.25366
0.6760935,77.15461
0.6470688,79.44533
0.61763155,74.39865
0.48659766,76.40554
0.5696016,76.38964
0.47932205,73.80394
0.49175438,73.49938
0.406234,74.2136
0.38998437,72.15783
0.33564574,72.562744
0.28585738,72.66825
0.33143803,73.193535
0.4192683,70.900345
0.33510318,66.8771
0.29489264,68.64351
0.33359188,65.42143
0.28341943,66.76282
0.37973532,66.24184
0.29354784,67.30938
0.3053812,67.252144
0.32429418,66.52618
0.35581866,63.95084
0.28976902,63.98106
0.29662916,61.6727
0.24847817,64.42039
0.31067973,63.085587
0.2674529,63.455677
0.2866146,63.1968
0.21602742,62.17053
0.23084643,62.548275
0.07928628,62.677605
0.09087699,63.75561
0.14621302,62.530075
0.03729236,64.45061
0.036234245,64.278336
-0.003411453,61.114162
-0.059249792,60.573307
-0.033389002,62.635612
0.009638786,61.145065
-0.09170157,67.563644
-0.042852245,66.06523
-0.018215679,66.827545
0.04596632,68.517845
0.061396334,68.618996
0.08440689,67.51888
0.14774099,69.09015
0.16106036,70.649765
0.25762355,72.89667
0.28073263,71.96929
0.408968,74.84305
0.44982728,75.20679
0.5543042,78.21817
0.6580778,77.306755
0.7236762,78.07207
0.84258056,80.07494
0.85035694,78.94969
0.8727489,82.91058
0.9707884,83.11666
0.9613595,86.833595
1.1097006,84.842834
1.0549382,87.590164
1.1599646,86.64702
1.2447845,90.105545
1.229701,94.85248
1.2893965,94.46586
1.2406588,92.92605
1.3582925,93.84716
1.3558062,96.20219
1.3870888,95.8106
1.3571957,94.959816
1.4199132,98.58268
1.4554615,94.88355
1.4317853,98.21628
1.4630961,97.69319
1.4543698,100.907974
1.4546394,97.0391
1.4772396,98.303764
1.4124297,103.578384
1.3739197,100.57164
1.3860747,98.825356
1.3689623,99.56454
1.3753899,97.467926
1.354755,99.4416
1.3242233,99.3273
1.3652657,96.867615
1.2711403,96.99554
1.1925771,96.283455
1.2974076,94.52838
1.2184757,94.425705
1.092289,94.7648
1.1837736,93.643555
1.0868188,94.38685
1.1011529,89.83217
1.1230224,93.17535
1.1004926,92.03062
1.1002249,91.4417
1.0949671,94.2051
1.0436423,88.592545
1.0055902,89.892525
1.1323119,90.69133
1.020042,87.22568
1.0241202,87.46318
1.0917513,88.71883
1.0660964,85.71656
1.0068364,84.574295
1.0203713,85.13972
0.98763496,83.49736
0.99762785,82.38816
1.0034703,83.46518
0.9935918,85.775536
0.92140734,82.960396
1.005112,81.050514
0.93218446,79.21045
0.86460495,81.15493
0.80473363,78.77018
0.7635787,79.672676
0.84190655,74.50767
0.79390436,77.8757
0.77048224,74.95633
0.68855476,75.17358
0.51752764,76.07803
0.65752846,75.847206
0.62734705,74.49826
0.5228696,71.81691
0.6635605,69.02787
0.5535622,70.33767
0.54240674,70.8508
0.5320074,68.51278
0.6132879,71.40366
0.56404746,67.74768
0.60644925,68.20811
0.59150654,66.06371
0.5407834,66.86645
0.5232684,63.312824
0.5877727,63.0054
0.5830469,63.688374
0.5569522,63.34529
0.55696905,65.481224
0.48090076,63.7204
0.53438294,64.78414
0.5508152,61.391098
0.5521335,63.161057
0.4985394,59.816727
0.43891636,61.1949
0.41164526,59.71572
0.33167768,64.415375
0.31874996,62.53577
0.3931169,64.61433
0.34893328,62.991684
0.33191317,62.320206
0.25250596,64.04513
0.22176588,64.04957
0.29341775,62.870327
0.2501518,67.399605
0.27127162,65.298225
0.3641057,66.01601
0.3231828,67.74021
0.3474035,66.75773
0.4574468,69.76965
0.50721097,72.03942
0.59741807,73.105095
0.68146086,70.5082
0.7325585,71.55742
0.74237245,76.374626
0.9211037,76.150215
0.8928663,78.26732
1.0350419,76.94473
1.0935916,81.35534
1.1885115,81.21566
1.1851059,83.93419
1.3276495,83.47342
1.2986392,82.31507
1.3741362,84.78119
1.4497764,88.3415
1.6201069,86.22018
1.5715625,89.84506
1.7079024,90.35905
1.6942881,92.531334
1.748108,93.49185
1.7420754,96.03782
1.7677089,88.475365
1.7220722,96.52871
1.7950155,96.54173
1.8345221,97.79263
1.7780569,98.622055
1.8317108,99.89466
1.8144019,96.5988
1.8503252,98.78242
1.749388,97.56657
1.7729292,100.09441
1.7765901,98.51631
1.8140898,96.61256
1.829463,97.82987
1.866058,98.39692
1.7593275,100.85652
1.8009452,97.8581
1.6896403,99.3427
1.7650797,98.63246
1.7013648,96.950386
1.7116364,96.50947
1.6524478,94.98007
1.7198151,95.03139
1.6100818,97.79646
1.5674714,94.42924
1.5721517,95.93542
1.4247578,92.597244
1.5860142,95.62785
1.5136307,91.89858
1.4792635,91.158676
1.4861827,93.587746
1.4263097,89.182144
1.4006073,91.28183
1.4568232,88.11731
1.4626238,88.836525
1.4729172,87.9947
1.3866996,87.47611
1.4654568,84.348755
1.4707028,86.0907
1.4129194,82.82087
1.4104129,82.106155
1.3949857,82.29836
1.3423259,84.54509
1.38286,82.50298
1.3552674,78.00469
1.350046,81.49682
1.3028334,78.69503
1.2870857,81.52768
1.2390707,75.208115
1.2074355,79.38792
1.152918,76.990875
1.188087,75.37523
1.1721896,76.799446
1.0546244,76.56833
1.0646422,76.4361
1.0007354,76.86822
1.0007019,75.41636
0.9452448,72.7806
0.9738945,69.46201
0.9874003,72.31188
1.0091442,73.135605
0.9656908,71.09465
0.87722063,67.72316
0.9033971,67.13957
0.92505515,67.004814
0.98961556,65.4936
0.955344,64.784645
0.8857231,66.76972
0.9424061,66.94286
0.87427664,63.764244
0.9316462,63.92945
0.9166325,62.6222
0.8648603,63.668663
0.8489921,63.62225
0.843235,63.47266
0.8553574,61.90665
0.77303606,63.900494
0.76280403,63.444836
0.8767835,61.41117
0.6570857,61.55233
0.6885177,62.920322
0.6343457,63.13868
0.59216636,61.176815
0.56601655,64.66033
0.67175835,63.102715
0.60599726,65.76208
0.56233776,63.945484
0.5565508,65.39104
0.5592002,65.796776
0.5829083,67.29971
0.69632924,63.17091
0.63409,69.60135
0.67698014,70.21571
0.62480974,70.728226
0.74656516,70.52707
0.8427609,73.52146
0.8430044,76.18837
0.88625395,73.27891
1.003252,70.54494
1.1070653,75.45206
1.1951591,78.12347
1.2422259,76.9102
1.2375369,76.6286
1.3965286,80.79637
1.4647043,82.73144
1.5373148,83.66659
1.5447143,85.41952
1.6699333,84.59976
1.694207,87.44892
1.6542374,90.29062
1.7952695,89.63277
1.8292246,90.94363
1.8687314,90.15977
1.8691394,93.104294
1.8976673,94.0511
1.9284037,96.72885
1.9122679,97.13385
1.9275901,94.80274
1.9489197,95.273674
1.911539,98.015976
1.9181699,99.17694
1.9295281,95.86391
1.89629,96.819786
2.066974,95.27309
1.9707668,98.350685
1.8482502,100.66152
1.8957479,99.99399
1.8992047,100.25868
1.8491389,96.46772
1.8222061,98.938545
1.8736794,99.08146
1.8250133,93.79736
1.8394331,97.57211
1.7497944,97.294586
1.7063535,96.02621
1.720289,97.22003
1.6660947,97.1927
1.6646022,92.054214
1.6221792,94.474
1.6414305,94.34261
1.5759,94.704704
1.5341259,93.28047
1.500941,92.453255
1.5632755,92.58671
1.4761268,90.70774
1.5008779,92.68048
1.5046068,91.60713
1.4857997,90.37252
1.3712955,89.11264
1.5116432,86.84579
1.4235704,88.22279
1.361694,87.03021
1.2586514,86.61054
1.3973846,86.652176
1.3252897,85.68292
1.3491074,86.575096
1.3262533,82.15906
1.2461531,82.038315
1.2541637,79.90727
1.2368828,79.53653
1.1436849,81.08733
1.1416404,78.67741
1.1726754,78.6889
1.0911118,80.56021
1.1271721,78.142204
1.0356485,74.56235
0.9902792,75.84919
0.9517917,75.88068
0.9579904,74.31738
0.90460616,72.702065
0.8489779,72.30478
0.83455724,71.86641
0.8231877,70.34105
0.8417066,71.35394
0.78253037,69.358665
0.7760549,70.077866
0.77918833,69.67249
0.70320874,69.033005
0.7309533,69.89353
0.76985085,68.75433
0.7685084,66.15
0.6793305,68.461044
0.72432554,63.629585
0.6889044,63.4782
0.7269414,66.57459
0.68124396,61.55577
0.7139167,62.265392
0.70169014,65.87991
0.7221672,61.860462
0.63242674,64.70893
0.6140822,58.69087
0.5258559,63.029953
0.4935602,62.305286
0.49898517,59.432705
0.45966354,60.20755
0.3588734,60.183544
0.40686294,65.61078
0.37234318,60.858032
0.28892654,63.35698
0.27861074,65.16292
0.35820553,65.66474
0.3314877,63.745365
0.32918155,64.26271
0.34631905,68.54088
0.3389031,67.833046
0.3875583,69.53966
0.41971657,66.19397
0.44502962,69.62372
0.52873415,70.67649
0.5456305,74.570015
0.71037304,73.00794
0.67811495,77.55521
0.801806,76.53116
0.8763457,81.20988
0.8981248,76.06264
0.9794553,79.73307
1.0216517,80.113464
1.0945339,82.586075
1.1472415,79.63787
1.2165151,85.584595
1.35966,81.697334
1.3430954,90.49962
1.3724043,87.62623
1.3865113,88.707184
1.508846,89.243645
1.5313812,91.04968
1.4981344,93.15996
1.5477781,90.46401
1.6083285,92.58787
1.6181233,95.95995
1.5938147,95.70501
1.5948641,97.22142
1.5985593,98.71788
1.5477432,98.844025
1.5595821,98.42347
1.5611576,95.98439
1.6010218,98.05968
1.580764,100.219475
1.5872897,99.52461
1.5282755,96.55058
1.4884987,100.95202
1.507132,99.76518
1.5194741,98.1852
1.5305331,99.18669
1.4629233,94.945595
1.4088341,98.36326
1.4432833,96.26294
1.3779335,99.916855
1.3460377,96.49276
1.307107,92.3001
1.3153173,96.02376
1.2897336,97.77298
1.2167414,95.23293
1.2426937,93.19215
1.1849312,95.02649
1.107337,95.30989
1.1660198,94.4699
1.1628945,91.529305
1.0803511,89.38375
1.0887873,91.63236
1.0546281,89.47841
1.0834166,88.08428
0.99857074,88.05646
1.0070649,89.177475
1.0616125,88.69629
1.0301497,86.68789
0.97930115,88.0623
0.99223804,84.89379
0.9192529,85.63679
0.9149035,79.538124
0.925036,82.81473
0.90547365,83.05388
0.83256805,78.084785
0.8924074,81.348694
0.8952176,77.79303
0.79963756,79.727196
0.7212123,77.62741
0.747396,75.55782
0.7147949,74.67327
0.6395151,74.229416
0.5595125,75.13724
0.6025936,74.402855
0.5539817,75.4593
0.43276632,74.909294
0.5254694,74.60558
0.41972536,72.28398
0.42264688,73.13675
0.5175096,69.065285
0.4554207,69.75343
0.40140876,66.69
0.3047761,67.125984
0.46924418,69.82423
0.36448234,64.68116
0.37574267,68.1629
0.408034,64.58265
0.39191255,67.00151
0.33028975,66.84041
0.2444214,64.98103
0.33426496,63.718967
0.33041143,62.403976
0.29123807,63.148254
0.29207498,62.937183
0.20394205,64.75518
0.22725634,63.981403
0.1990643,61.928925
0.19089504,66.31396
0.13449623,60.15148
0.107082754,61.844032
0.07282454,61.570824
0.100627735,64.19271
0.09818688,63.69792
-0.021517985,64.06268
0.03702514,63.807507
0.027321072,65.252075
-0.14656703,64.59751
-0.028002312,67.03421
0.05009265,64.6575
-0.0034146851,64.92041
0.0058663124,67.80924
0.011152782,67.228195
0.13544372,69.03019
0.15709576,73.00793
0.22715867,72.96262
0.2738979,71.644806
0.35346112,75.68374
0.35419694,76.75644
0.48185703,75.66662
0.53964734,77.674774
0.68094856,78.160614
0.6967278,77.80281
0.8097384,84.18758
0.86277544,81.666626
0.9278909,82.658646
0.91733867,86.380035
0.9754651,87.05415
1.1143224,87.71961
1.1571325,88.56516
1.1861708,88.64768
1.2146958,91.42065
1.2252177,89.96663
1.2458758,93.34498
1.3041772,92.359825
1.358734,95.471825
1.3208898,96.97128
1.3229547,95.12152
1.4038838,98.03649
1.2933049,97.86777
1.3742865,97.45126
1.3547151,99.28823
1.3977485,96.11244
1.3351464,97.74476
1.4234715,96.44337
1.3268821,100.099846
1.3584307,100.66156
1.326061,98.161865
1.255357,99.833
1.3253087,96.08937
1.2717879,96.76933
1.2804217,97.744354
1.3145819,97.982254
1.2888384,99.371864
1.1602005,96.54748
1.2015505,97.9515
1.0674148,96.60739
1.1415572,95.15368
1.1249075,92.33356
1.0533541,94.59944
1.0613725,91.29534
0.9888221,93.50319
0.94990057,89.74141
0.9849611,94.410706
0.9274326,90.69734
0.96902084,89.13134
0.912481,90.413315
0.93976295,89.28056
0.9158962,86.69072
0.9087718,86.526245
0.9346698,86.36759
0.90396047,91.77798
0.92131555,81.54845
0.8650645,83.07715
0.90384054,85.24523
0.8730098,82.78719
0.9206865,84.35905
0.8035341,84.84855
0.7939469,81.72936
0.79975915,80.226906
0.8004053,78.368744
0.7816304,79.39454
0.7178352,78.824684
0.68802077,74.51605
0.6416091,73.29832
0.6025282,76.904594
0.59961784,75.144264
0.5902203,76.69942
0.49379125,73.36451
0.57407373,74.94418
0.4725878,75.11307
0.5559288,73.387794
0.47734565,73.90104
0.40008995,73.69494
0.42163432,70.94628
0.4308368,69.86084
0.4477952,71.40408
0.39962918,71.38511
0.48270807,68.67754
0.3970678,67.18697
0.45532024,66.50261
0.39071864,66.67889
0.41748852,67.1206
0.38775513,65.33479
0.39305264,61.95317
0.46597984,65.304535
0.39738888,64.97885
0.37734905,63.74561
0.3600336,64.20982
0.429753,62.154865
0.24239348,63.83256
0.24846599,62.830486
0.3102767,64.89386
0.16997246,63.181767
0.22038694,59.88274
0.15554146,66.1437
0.18785511,64.90446
0.12842382,64.59554
0.1883737,63.029476
0.1260752,64.15022
0.12810428,63.583984
0.0786132,62.957386
0.12957256,68.734924
0.14742811,66.199875
0.16407928,64.89492
0.1462304,69.60752
0.21571559,67.76281
0.27280095,69.38748
0.23418508,70.44539
0.3820048,71.337326
0.49872825,72.58439
0.5598728,71.736465
0.65777653,71.17861
0.6910541,75.319466
0.76404357,78.71448
0.8856029,78.59711
0.93557286,81.40389
1.067263,82.10628
1.1129949,83.241844
1.1391815,80.60184
1.2537673,83.848595
1.2036067,85.59492
1.2796841,87.48111
1.3239138,88.67683
1.435002,93.17609
1.4595923,89.28752
1.5136237,91.32704
1.4926127,92.404564
1.604435,95.39538
1.5309062,94.0963
1.6017859,99.032234
1.6814722,94.303856
1.6614124,98.32647
1.6226209,96.27946
1.6973516,95.96653
1.7510148,100.14147
1.6772761,102.15302
1.669256,95.71078
1.6234381,97.83428
1.6753999,102.466675
1.662594,97.013725
1.6232896,98.435
1.6245251,99.10288
1.5673598,101.05294
1.5300171,100.485725
1.5367537,98.38165
1.5345824,92.94614
1.5372031,100.740845
1.519007,95.811905
1.4287183,95.273
1.4848914,96.44518
1.4748758,96.50132
1.4804176,94.188515
1.3769172,98.226814
1.3915101,96.15531
1.331861,90.709694
1.306182,93.719025
1.4146937,90.076294
1.3419898,92.11987
1.3032516,91.62267
1.3166863,88.9826
1.2849586,86.31309
1.2925937,85.08084
1.2530776,90.74288
1.3458303,84.60147
1.3655418,83.547844
1.2007157,85.04345
1.2538638,84.78795
1.1864663,83.438965
1.2830585,82.402756
1.202659,82.62617
1.2853019,83.3508
1.1040621,78.993286
1.172263,83.09898
1.1023825,81.90638
1.132883,76.26793
1.0698099,79.2823
0.97238564,77.4839
1.0258813,78.408066
1.0459523,77.60894
0.9850797,76.10068
1.0384232,76.37553
0.94059396,75.07882
0.9208496,75.286575
0.81728184,69.550026
0.8154375,71.82997
0.77796155,70.80798
0.8019412,72.417206
0.8621245,73.562126
0.9064187,71.746574
0.88582367,69.593025
0.80335414,70.48801
0.75391006,69.62329
0.89623255,68.64292
0.8664083,65.87367
0.7440388,69.9799
0.79381144,62.483063
0.76601565,61.53978
0.8513593,65.16755
0.7681173,64.39305
0.7843843,62.89744
0.68800443,61.0319
0.7935057,64.92351
0.74353343,62.27827
0.69036114,64.707115
0.58264804,61.380363
0.645847,62.902878
0.6180114,61.638252
0.61041695,61.464336
0.53461987,59.20211
0.53835624,63.520596
0.51711553,64.65695
0.4335701,61.939655
0.41631922,65.08104
0.4329066,66.03203
0.42792812,66.82056
0.5633793,64.61891
0.52630156,65.52751
0.49428418,69.4461
0.6337785,67.9278
0.64813876,68.09166
0.78345454,72.55323
0.7128365,71.46858
0.76161474,70.507416
0.93001544,73.317696
0.9178348,74.50057
0.99481916,75.53788
1.050029,77.55196
1.1263971,77.924644
1.148203,81.22158
1.2927337,80.53955
1.3553233,82.00971
1.4563438,83.2959
1.5141972,85.06751
1.5543033,86.49266
1.6259762,86.04889
1.7135807,87.735535
1.6664723,89.64129
1.8119965,89.57108
1.8567933,92.663246
1.829121,90.93244
1.8489757,94.37165
1.9339883,94.07027
1.924139,93.52059
1.8908402,98.26462
1.9544635,96.06935
1.9975789,97.21093
1.9229857,99.68746
1.9137567,100.928604
1.964058,97.59642
1.9355394,100.15668
1.9882718,102.605576
1.9452548,98.38895
1.9853796,98.09605
1.9366968,99.68215
1.950148,99.659546
1.8645622,97.980515
1.9023968,99.04452
1.8761576,100.372055
1.8116227,95.337494
1.8043443,98.15057
1.7815268,97.46545
1.8382905,96.08446
1.7141932,97.0479
1.6914344,95.23328
1.6736264,96.33764
1.6153708,94.01702
1.6151371,94.22705
1.586329,93.62327
1.5470679,91.346085
1.5895147,93.243576
1.5799878,88.86524
1.569292,89.824486
1.545493,89.94467
1.4603878,88.45747
1.4970207,89.376434
1.5100456,87.93507
1.5452182,90.56249
1.4918957,87.88844
1.5278897,86.251366
1.4619985,85.62025
1.4299592,85.22189
1.4815724,85.29613
1.4562372,83.73727
1.3746642,82.33616
1.3508102,81.913185
1.4198047,79.25984
1.2933115,81.741295
1.2636546,80.86739
1.2732743,76.356606
1.2282075,77.001274
1.1850623,75.29531
1.2386413,76.31847
1.1435274,77.950745
1.0844314,75.58226
1.01061,74.09257
1.119543,75.600716
0.9625038,75.16481
1.0322359,71.532875
0.91516,73.11856
1.0244951,69.28944
0.89849395,70.374985
0.89953303,70.9154
0.9041038,69.04418
0.85640633,66.638336
0.8930404,67.86599
0.83989984,67.64847
0.8638398,67.8615
0.79270154,66.498955
0.843606,62.175217
0.90069705,64.843414
0.83992034,63.115208
0.8653278,64.26059
0.83668894,64.06806
0.84357405,62.89154
0.7932432,67.22161
0.7955327,64.5231
0.7968924,62.564907
0.7020239,61.76569
0.71202105,60.557602
0.63670784,64.72754
0.5603503,63.289673
0.62588066,64.32666
0.5034031,63.995037
0.5263164,64.19862
0.452732,63.440598
0.5116476,61.258907
0.4491626,65.51237
0.43197846,64.56392
0.5052119,68.571434
0.45543417,66.2146
0.5177009,69.64527
0.53957635,67.150856
0.52104235,71.8274
0.615229,69.928085
0.6413342,70.5608
0.70461255,71.289566
0.7035096,72.694305
0.7795665,71.92696
0.9315546,76.09816
0.9990608,74.70602
1.0654438,76.57342
1.0757713,77.48301
1.1633925,76.6482
1.1836767,81.88791
1.3278049,83.17277
1.305416,82.10253
1.3520477,84.672
1.4499241,84.23331
1.5598359,85.15909
1.6211586,88.185616
1.6530651,89.96212
1.6135463,89.1086
1.7318598,91.51651
1.7448274,90.096306
1.7276764,92.674164
1.7569373,93.21589
1.7783796,98.794365
1.7802536,96.92522
1.8045813,98.06905
1.7106717,96.0515
1.7734141,99.16775
1.7417724,99.351776
1.8445536,97.021965
1.6910737,99.09276
1.893392,98.999176
1.7516971,98.57381
1.7658839,97.75269
1.6714106,99.80534
1.706477,100.04013
1.6305914,93.84097
1.6127907,99.34295
1.5307635,96.54715
1.5756427,98.35924
1.529428,96.232124
1.4888902,96.93686
1.5099827,96.7224
1.4664824,99.72029
1.4408069,94.67534
1.3994437,95.202774
1.4025241,94.416466
1.4036456,92.68494
1.2956547,93.11871
1.3331326,90.74214
1.2663288,86.398186
1.220907,89.785065
1.249909,89.648994
1.252814,89.840004
1.2718601,88.34367
1.2377068,86.13158
1.185384,89.3124
1.2050936,88.277756
1.1873356,86.27583
1.1539595,85.97316
1.1670672,83.79813
1.0937527,82.7718
1.0901445,84.42774
1.0912445,82.16925
1.0471193,82.05423
1.0555719,81.97147
1.0288408,80.315346
0.959582,80.048775
0.90352035,79.13089
0.92024785,77.63203
0.8724532,78.11766
0.8398043,78.16967
0.8489737,76.40433
0.7137997,77.36592
0.7684393,76.376656
0.7362733,72.16865
0.6799178,75.1621
0.6261971,73.310905
0.6666329,71.981094
0.6014234,72.69139
0.620963,74.5312
0.5496628,72.11749
0.52488047,67.934265
0.47535023,69.06851
0.58339256,71.265144
0.60983944,68.08061
0.40134558,65.96293
0.6044544,67.709496
0.5088471,66.127075
0.49158517,65.62651
0.48435104,64.09469
0.49180207,64.741264
0.43140692,62.836567
0.426036,64.05105
0.43415716,60.98053
0.39598677,60.74033
0.44206032,62.001373
0.2624442,64.00229
0.34356153,62.14828
0.26814926,61.781193
0.21744107,63.933464
0.2680531,63.065384
0.23929325,62.235775
0.11588382,64.12665
0.18657218,62.09172
0.067954175,63.49706
0.08264689,64.796684
0.08721346,67.01424
0.062233232,64.40288
0.0019108357,64.09915
0.11241111,65.840416
0.10872843,67.482925
0.09516764,69.92477
0.2417288,67.47169
0.1796703,70.13553
0.31116918,73.128624
0.29485178,72.87573
0.33319733,71.23243
0.4591888,74.97077
0.4853215,74.5656
0.5746073,76.26206
0.770501,76.32136
0.69444025,77.76821
0.8438561,80.58507
0.84234935,81.30767
0.95951897,83.42937
1.0604975,81.4521
0.9508331,85.06221
1.0965774,86.73805
1.1249077,88.37094
1.231803,88.42619
1.2434143,88.69546
1.216458,94.15267
1.2669547,93.124725
1.308439,93.59242
1.4002829,95.37736
1.4023786,95.79383
1.3314277,95.12518
1.3548111,95.42558
1.4354798,98.780205
1.4143168,99.586136
1.4177933,100.16204
1.4379114,98.997955
1.398989,98.07338
1.3888332,95.18848
1.338507,97.719734
1.3078117,98.039955
1.3425285,99.71628
1.2534968,99.158394
1.3131566,95.2618
1.3517826,97.14643
1.3666137,98.72464
1.2421173,97.70491
1.203718,98.03912
1.1781216,94.376236
1.162854,95.234726
1.188357,97.90966
1.1411964,96.398
1.0913218,97.63913
1.111402,97.53682
1.0451692,93.90995
1.0395937,92.86184
1.0374132,93.14264
1.0617068,90.80743
1.0430017,90.12186
1.0180582,90.04144
0.90147734,87.94467
0.93697196,88.88454
0.8797741,86.999596
0.9374535,91.65474
0.8820985,84.36034
1.0062406,90.620125
0.89804095,84.76133
0.8791446,85.29468
0.8329993,83.46445
0.8662604,83.79614
0.8529381,84.61743
0.81061643,83.47882
0.80784774,81.95888
0.8165968,81.21118
0.74895734,79.2988
0.71056205,79.690834
0.6928362,79.67176
0.599762,78.36893
0.6122623,79.066536
0.566886,79.012436
0.52736443,76.77451
0.54879785,77.48137
0.4233429,73.78479
0.42578208,76.83333
0.46086925,72.19867
0.4073161,74.46692
0.4112711,71.3381
0.4091204,72.50382
0.4195284,69.79968
0.34223548,71.00372
0.39409524,68.95059
0.39718184,68.00523
0.33658695,69.39117
0.36505184,68.46432
0.31005123,67.08681
0.3195931,66.94749
0.30454645,60.68065
0.3361697,66.94243
0.36074993,66.40832
0.26732638,63.469364
0.17563197,63.111526
0.3177397,65.049805
0.30191788,59.205856
0.19045965,60.11426
0.2767824,61.505157
0.25321296,63.68477
0.20795256,64.57033
0.1096318,58.917
0.06479829,63.074215
0.08958772,66.77175
0.03833856,66.33926
0.06597259,64.49496
0.009577656,61.24939
-0.019288834,63.485096
0.014901832,63.781525
0.009237911,64.77394
0.0010105995,65.17125
0.007245395,68.51176
0.091437876,68.184494
0.027521571,65.79121
0.027417812,70.12559
0.14338288,67.97188
0.15568896,71.999916
0.21330233,70.64697
0.29536262,72.33321
0.41180953,73.435074
0.42685392,74.76754
0.5150846,74.59446
0.5545126,78.26767
0.6862839,79.08496
0.76106197,76.78676
0.8828553,81.84259
0.8034471,82.00993
1.0105454,82.102684
0.98822236,84.13344
1.1390249,85.07007
1.1354605,85.798485
1.2160681,86.11738
1.2748355,90.518936
1.2508575,91.38928
1.3921324,88.7587
1.411688,91.3988
1.3514551,93.62476
1.3065884,95.51396
1.4400721,94.64162
1.4673859,93.93796
1.4506614,97.67198
1.4160736,99.84899
1.5422667,97.381935
1.5649692,97.048325
1.4881622,97.05323
1.5294758,97.31323
1.4753929,100.366005
1.4716759,95.68363
1.526656,99.81963
1.4660283,97.175186
1.4093521,97.3295
1.4716892,95.60256
1.3912005,97.771225
1.3112987,98.172165
1.3490107,100.637764
1.3246468,95.751305
1.3562274,96.32062
1.2909414,96.34399
1.2975596,96.37128
1.322505,97.93871
1.2988054,94.66027
1.2361612,94.73415
1.1755857,94.05324
1.2460366,92.55443
1.1683693,91.8192
1.1374048,92.052055
1.1230979,91.44457
1.1203071,88.708015
1.0697192,91.07854
1.1534678,87.97835
1.1690433,87.26483
1.0991299,90.745125
1.1566019,87.69269
1.0818181,86.26805
1.136345,82.62666
1.1150131,84.07834
1.162648,84.79995
1.1096375,83.91516
1.0894967,81.317245
1.0175909,81.12923
0.9607619,80.419624
1.0207651,82.73819
0.94893885,80.435005
0.9268012,79.05199
0.9896369,75.97365
0.9265466,78.630196
0.92387605,77.870384
0.83498216,77.25969
0.8052472,77.61072
0.7815826,76.52517
0.77550215,71.685196
0.77273583,71.89484
0.6970465,72.498024
0.685842,71.12684
0.73168164,69.64872
0.63309187,72.56386
0.64717233,71.18284
0.7133218,68.95465
0.6540605,68.393616
0.68360835,67.43381
0.6415938,67.39789
0.6576796,66.45949
0.7027343,69.43055
0.6921148,66.026474
0.65687144,68.289505
0.66882324,65.41501
0.6290151,61.696007
0.6696224,66.31618
0.61155635,64.5287
0.6523669,63.9101
0.60531723,65.83997
0.5514295,65.259705
0.58757097,60.5215
0.5928305,67.30739
0.5011648,61.888874
0.51767945,59.846806
0.5815332,62.07119
0.3662753,63.55727
0.39128622,66.03878
0.34969637,61.38919
0.4524507,65.13546
0.41840225,64.83778
0.30874142,62.81674
0.3882687,64.54246
0.34512076,65.86281
0.40185475,65.10285
0.3683905,66.878555
0.4229757,68.988235
0.45520917,71.3429
0.52650267,67.60221
0.5798647,69.56189
0.62720484,71.54716
0.7382913,72.229744
0.75888616,72.92174
0.86716694,72.87958
0.8710125,76.47337
1.025065,81.28471
1.1071078,78.59329
1.1143979,80.58374
1.329164,79.90723
1.2696868,82.15481
1.4000014,83.859314
1.3970377,83.146484
1.5651209,87.22265
1.5562363,87.74477
1.5653735,89.593094
1.5705996,86.650345
1.6638656,88.40455
1.7145665,92.492584
1.8304455,93.58788
1.7641,95.15963
1.8178824,94.28893
1.8468004,95.886055
1.8669748,97.797295
1.900667,95.66203
1.8960252,95.63503
1.9147234,97.29561
1.9169112,97.29628
1.8436867,98.48122
1.896495,97.6446
1.8666854,98.56301
1.8818109,96.7499
1.877085,100.99177
1.8711412,99.7123
1.7997403,99.04358
1.8626902,97.05027
1.8264803,99.633675
1.7872384,96.773544
1.7585964,97.96232
1.7796028,97.82083
1.6368588,98.13032
1.70764,97.79592
1.6665415,97.004745
1.6369029,94.938805
1.5920378,96.42811
1.5583527,97.20848
1.5850056,94.25659
1.4966074,91.953476
1.5498877,95.307884
1.4732467,91.899376
1.5391989,92.370605
1.4953768,89.67279
1.5755427,92.287834
1.5453446,89.98914
1.4613496,89.33593
1.5365787,88.157394
1.4806513,83.98217
1.4811088,86.851715
1.4856881,83.54803
1.5044756,87.11829
1.4319925,81.39344
1.4853698,82.611305
1.3910471,81.608154
1.3871961,84.513466
1.3345258,80.219185
1.3689984,79.264854
1.3510756,79.020966
1.3098773,82.66859
1.271626,75.92852
1.2430466,78.69441
1.2838386,74.67834
1.133078,79.330536
1.1215612,74.8735
1.1020046,72.82368
1.1215615,75.36751
1.0434258,71.61621
1.065136,71.641945
1.0190561,72.18916
0.97158104,74.048676
0.9261242,72.61137
0.98815954,69.63385
0.9460081,70.02601
0.9465692,72.58527
0.90184855,68.42829
0.90148634,70.59178
0.9864607,66.792816
0.9315119,64.23889
0.9591066,66.28416
0.8863849,65.38149
0.811699,64.7795
0.891784,64.92845
0.857104,65.22936
0.9063978,64.24728
0.92708164,62.19339
0.80693996,61.042027
0.8668873,61.859203
0.7566469,65.4285
0.77639586,63.519127
0.81218183,62.89046
0.6422561,61.875687
0.6462462,62.509415
0.65896523,60.585102
0.59177715,62.51065
0.61626583,64.99807
0.63164526,64.39661
0.5098762,61.206
0.6188119,64.67567
0.5112567,65.64929
0.51726645,64.276306
0.57382935,65.90533
0.59114736,65.53718
0.6540142,71.197784
0.643781,69.573425
0.72617275,70.39961
0.8082917,74.30114
0.90332407,71.77036
0.84363234,71.351395
1.0696089,74.54161
0.9517071,76.896706
1.1307625,73.91667
1.1535112,80.17208
1.1997596,79.112236
1.3153976,79.93327
1.4458838,83.80419
1.3894243,81.55593
1.5179796,82.97229
1.5044458,86.65134
1.6067537,89.241066
1.6833693,88.34354
1.6794815,88.45337
1.7816558,87.58924
1.7694162,91.78161
1.7519531,91.67459
1.8045028,91.98936
1.8316455,92.32494
1.873887,98.35991
1.8611989,94.99443
1.9128261,96.96246
1.9116246,95.44952
1.9900602,98.873
1.910654,99.89291
1.8882099,97.85628
1.9521991,97.92617
1.8479583,95.827385
1.8979965,100.227646
1.818797,99.071526
1.8177383,99.74871
1.8182087,96.77673
1.7974226,99.22344
1.7096654,98.29221
1.8065212,96.36664
1.754789,100.045235
1.7302942,97.67861
1.696283,99.5242
1.6706957,96.335945
1.7285188,94.82527
1.5896196,94.54409
1.6190739,95.22735
1.5223783,95.09071
1.4794614,93.858986
1.4852309,94.22742
1.4664745,91.90629
1.4466089,95.6344
1.4750212,91.90422
1.395058,93.44072
1.4236292,91.213806
1.3816545,92.14017
1.3986729,86.81518
1.3323781,89.37387
1.4172074,87.64732
1.3669481,88.1982
1.3790066,87.01288
1.3575048,84.86733
1.2401867,87.396515
1.3258832,83.55773
1.3040509,82.04039
1.2670306,83.31667
1.2512529,82.61893
1.2035698,84.10491
1.1351886,80.55622
1.1591866,80.36733
1.1110766,79.8267
1.0228753,78.526794
1.0464138,79.171425
0.9792211,76.63335
0.94980544,78.15235
0.9497586,76.76422
0.9232552,74.93797
0.8500087,73.537605
0.7957756,74.01347
0.7673024,72.13981
0.71953475,71.38409
0.711856,70.85522
0.67058253,73.38931
0.656084,73.36074
0.71347094,67.87646
0.7097051,67.8437
0.6717431,66.627754
0.75564873,68.72409
0.6757148,67.01621
0.66011596,64.57047
0.6646142,66.38123
0.6855133,64.64466
0.6742799,64.98793
0.6176224,62.349632
0.62111634,59.89392
0.6415378,62.393353
0.56986684,60.650524
0.57218385,61.22425
0.6038072,62.393406
0.5436658,63.543312
0.44965374,59.256973
0.38701254,63.908417
0.29031414,59.759365
0.3022755,62.168682
0.33454794,63.419575
0.29150054,64.682594
0.2224367,60.758278
0.3120316,61.855633
0.33114102,62.65389
0.2317253,66.4919
0.27304626,61.183216
0.20203467,66.78513
0.25119308,67.13113
0.21595222,67.94466
0.22765234,67.953094
0.40661234,70.05607
0.40360385,72.96211
0.38047114,70.64452
0.5383134,74.49003
0.54813063,73.81726
0.6511832,74.9217
0.7023225,77.25532
0.8350529,79.19935
0.86524534,76.061775
0.86630076,77.6264
0.894928,79.12115
1.0266695,84.211365
1.1198803,83.05608
1.2393806,83.89315
1.1996573,85.948364
1.2936645,86.412285
1.3997711,86.72577
1.3689241,88.694435
1.4520861,93.20343
1.459412,94.969185
1.4692463,92.21457
1.4695002,96.714066
1.4928427,93.61661
1.4628137,96.304726
1.5086339,98.8221
1.4449153,95.528145
1.5721016,98.260475
1.521819,94.93951
1.5020816,94.10835
1.4889529,97.18902
1.479372,98.58944
1.462282,100.06463
1.3794519,99.61826
1.4032245,100.21936
1.5230979,98.69981
1.4819409,101.47584
1.441443,99.27338
1.3895067,98.05064
1.3706453,98.255005
1.3895893,97.46748
1.335037,100.575134
1.3138069,96.720665
1.259398,93.71361
1.1937261,99.21774
1.1852672,95.4954
1.2033396,95.5272
1.0515001,95.37896
1.1158696,91.058136
1.0966111,89.81745
1.0717942,93.55237
1.0646253,91.31643
1.0241443,93.678566
0.9751579,90.095
0.96076626,90.01464
1.0256572,88.71815
0.99973506,86.43092
0.879623,87.98789
0.98437864,86.715965
1.0223082,87.27596
0.9068083,86.126076
0.9335846,86.07002
0.94526774,87.49472
0.88709164,83.462875
0.87028384,84.868546
0.84642446,80.79886
0.88744783,82.405205
0.8272965,81.85507
0.8156856,78.70139
0.71950334,79.49496
0.73763114,78.51545
0.714666,78.49273
0.6967245,79.810486
0.60575026,75.99607
0.51845,77.87842
0.5950239,73.87113
0.48686606,74.93023
0.4449598,75.3664
0.48790425,74.17041
0.40411758,73.84496
0.41396406,70.67521
0.4005588,72.11476
0.3449991,70.47793
0.32434592,70.67434
0.30445933,69.074814
0.3569623,69.018684
0.31156397,68.08593
0.36844096,64.09808
0.34136778,67.028114
0.38630274,68.25727
0.37568215,65.61484
0.303041,64.45548
0.26177576,65.76518
0.3488206,63.44487
0.28482622,62.54566
0.33403865,61.626305
0.22218856,63.215942
0.24803014,63.534008
0.18033978,62.500095
0.11687557,64.99933
0.10873646,62.1488
0.07133572,64.44412
-0.04607841,62.323616
0.02216758,60.657024
0.06515025,62.43719
0.034500096,62.793114
-0.059917063,63.425503
-0.072963536,63.29121
-0.037925027,63.245693
0.0055627963,65.75436
0.07594259,66.89833
0.07905344,69.68367
0.049483504,67.85792
0.06005747,68.33374
0.05965861,70.608536
0.08790141,70.71486
0.22993691,70.85525
0.21338977,71.67906
0.31995854,71.2479
0.36545452,73.38034
0.46579742,76.92791
0.51889217,77.142395
0.58127564,77.22807
0.6607067,78.24028
0.73508424,82.17279
0.80543673,82.086525
0.8940896,81.23763
0.87577116,84.2931
0.9800655,85.80919
1.0451331,85.41542
1.0734017,88.56336
1.1660953,85.53149
1.1475918,87.19447
1.1699637,91.89924
1.3253655,90.78672
1.3123469,91.782
1.2818067,93.09432
1.3912413,95.96352
1.3921244,95.72648
1.3776251,94.81751
1.4036592,95.059654
1.3610933,96.81322
1.4610903,97.0988
1.3213044,99.1173
1.3992435,96.51308
1.3298349,97.51332
1.3539594,97.96649
1.3895068,99.84219
1.363721,99.19655
1.3188224,97.5974
1.2988402,98.618774
1.3361491,100.550354
1.3397937,101.22024
1.2585697,96.39025
1.2732816,98.65838
1.177107,97.581276
1.2477757,96.23878
1.1961526,95.45826
1.2126833,96.96629
1.1672689,95.81916
1.119909,97.61302
1.1556942,94.9499
1.1435808,94.32786
1.0550336,92.52516
1.0306154,92.71788
1.0719515,91.20153
1.0041674,89.34986
1.0268592,89.07896
1.0582588,87.2471
1.0605959,88.64822
0.8898031,87.501686
1.0084043,88.08695
0.9434784,84.41555
0.9957765,85.7465
0.94504726,84.450066
0.9298537,83.96543
0.91982365,85.73826
0.99567056,84.869995
0.8875548,81.44605
0.9087004,81.08309
0.9100615,80.36267
0.80399907,79.37968
0.87395173,79.160515
0.867349,80.7581
0.78371966,77.14977
0.73670834,77.434586
0.7355183,77.5494
0.6446774,78.415215
0.72439134,75.948944
0.579723,75.85615
0.6138422,73.69994
0.62568736,76.01163
0.56276953,74.5638
0.49291012,70.40338
0.56180495,72.950905
0.5496369,71.04371
0.5293201,69.529274
0.52072877,70.96015
0.48123956,67.776405
0.48100138,62.138676
0.4761126,69.86652
0.52189064,68.163185
0.49571583,65.43427
0.5660134,67.24335
0.47186288,65.27815
0.5231312,63.197044
0.5289298,65.17563
0.5056443,63.91706
0.5158087,62.136124
0.51563936,62.014698
0.52343285,62.90138
0.42520514,61.05453
0.37758324,63.801285
0.37746194,63.69105
0.4299825,62.949707
0.261422,60.37714
0.29293948,62.292614
0.31220084,62.998997
0.23830819,63.52854
0.13088,63.60815
0.18444121,60.45924
0.20734043,64.31053
0.20845753,67.02178
0.25224602,67.508385
0.26029223,66.87469
0.2566032,65.90533
0.32097885,68.403946
0.36558983,69.96802
0.3291123,69.2268
0.45497993,70.87523
0.3882943,76.24184
0.60146964,74.27224
0.58315057,73.49755
0.6564279,73.40712
0.7429286,76.57843
0.811875,80.90989
0.8845377,79.77265
1.0404301,76.162025
1.0847365,82.431496
1.1401726,80.64098
1.1062723,82.40313
1.2665647,83.52
1.3285763,86.74506
1.3937042,84.46573
1.4347657,86.249466
1.5251621,87.638176
1.5818226,92.03939
1.5626748,93.71312
1.6230302,94.16247
1.6249354,91.15837
1.6810514,92.76691
1.6429802,96.14357
1.7315022,96.97093
1.6874884,95.946075
1.7679678,95.7388
1.7909853,97.993614
1.6812041,98.91574
1.7037098,96.5184
1.6827509,100.67052
1.6955782,96.84568
1.7434207,99.35465
1.7514628,97.968925
1.6836275,100.394806
1.7239178,99.82835
1.6755137,96.93378
1.7107332,96.85342
1.5974743,97.10132
1.6870105,96.44227
1.5980742,96.76232
1.5979241,96.13576
1.5771817,95.88129
1.5187243,95.31162
1.5912671,95.35261
1.4585867,93.521904
1.4599333,93.03467
1.3939401,93.203545
1.4976934,93.38797
1.4824357,94.018814
1.4433928,93.22713
1.3724493,90.230255
1.4246861,90.50999
1.3644558,88.225075
1.3987125,90.64149
1.3576487,87.3574
1.4194186,90.8923
1.4241325,86.41598
1.3873615,88.55701
1.3587,85.439064
1.2793767,86.35834
1.3688043,86.3542
1.3726169,85.342804
1.2710526,84.88766
1.349519,83.36304
1.2201556,82.73265
1.297216,77.89433
1.181462,78.884995
1.1986226,79.53709
1.2216657,79.99555
1.1855792,77.61077
1.1424087,78.54398
1.1094021,78.53234
1.0532175,75.66905
1.098256,75.69643
0.9973672,71.72361
0.92620414,74.432884
1.0273921,74.617935
0.99239224,72.23144
0.92505795,71.34245
0.8789803,68.65264
0.8681547,69.985374
0.8857925,71.66601
0.8949186,65.261635
0.86189264,72.07746
0.88134784,70.17249
0.8520214,66.036476
0.8492522,65.54891
0.9040399,68.55763
0.93048596,65.8527
0.83532214,64.433395
0.8748852,64.987885
0.8419567,67.46454
0.8366015,66.09148
0.6829779,65.12923
0.8660048,62.270744
0.8321871,64.445854
0.7577237,63.09688
0.79398876,61.355938
0.66279864,63.254887
0.6526416,62.257797
0.62563694,61.79811
0.5700984,61.237312
0.672919,60.256317
0.6147033,62.314445
0.5723147,64.591644
0.5900316,63.779636
0.5552308,62.85862
0.61800635,63.377724
0.57006794,69.01613
0.5591833,67.19722
0.5295578,65.50852
0.6044753,65.41249
0.63561696,66.37308
0.63905793,71.336845
0.7010955,70.30775
0.7446418,70.803535
0.84581006,72.73594
0.9558032,70.16714
0.9159186,75.47305
1.1038744,73.76375
1.1666107,79.74084
1.222953,79.75654
1.3620808,80.21191
1.456828,82.01196
1.437159,81.65782
1.4922678,84.9965
1.5958114,88.49415
1.6102363,84.627686
1.571044,85.03283
1.7188182,89.51543
1.7571657,88.72019
1.878236,91.629715
1.8488375,91.2155
1.8493247,92.17779
1.9681643,93.99621
1.8949182,91.14842
1.9530607,97.095985
1.8950589,95.130615
1.9932954,96.01227
1.980572,96.76554
1.9040767,96.851234
1.9735721,98.28604
1.9481759,101.15589
1.9751527,98.684326
1.9917406,100.19635
1.8865272,98.55556
1.9047751,99.18903
1.9879947,98.85186
1.8940446,102.71548
1.8854293,99.01401
1.8746635,99.80959
1.8824505,97.596985
1.8062946,97.8581
1.8361691,96.503944
1.8564061,95.916176
1.7722503,98.907394
1.743516,96.44341
1.743256,95.66015
1.6844205,92.582726
1.6257225,93.41678
1.6882838,97.62651
1.5360495,94.94781
1.5881912,93.49055
1.5234861,94.14338
1.558026,91.22093
1.5070835,89.79693
1.475695,88.62623
1.4612424,89.9606
1.4441286,90.41409
1.5285758,87.8392
1.5192603,86.31836
1.5245689,86.53504
1.4539199,83.85149
1.4180746,82.65501
1.4546869,84.926895
1.3898282,84.371895
1.4200624,82.177734
1.343219,82.79584
1.3974296,82.41674
1.3076209,81.46062
1.2084827,82.50665
1.1536299,77.96866
1.2225435,79.88113
1.193021,76.21251
1.180945,75.242226
1.0953382,77.719345
1.0997336,74.43857
1.0037576,75.97707
0.9840086,75.81194
0.95278406,77.07418
0.9043405,73.516235
0.9307919,72.80233
0.89595395,73.30035
0.8710246,72.86319
0.8418126,71.75748
0.8913004,70.29563
0.7897341,67.91906
0.8431308,66.57916
0.8183346,66.03787
0.8067872,66.209694
0.7648662,67.811905
0.7967736,66.21331
0.7948171,63.696613
0.8077107,66.47838
0.82273453,63.980343
0.7549671,64.88655
0.72833145,60.992878
0.76525825,62.930084
0.7219749,64.01248
0.71119314,62.226395
0.68527937,61.12581
0.63544965,64.61884
0.5993739,58.553196
0.5971255,62.529644
0.59986174,61.859547
0.50523025,63.99169
0.5199438,63.10897
0.41223207,62.00885
0.37626648,65.57915
0.5063313,66.07882
0.4553462,60.868217
0.38277215,66.080185
0.4068449,67.66198
0.48928133,68.318405
0.41305563,69.22108
0.4148438,67.13608
0.5117014,66.91837
0.55428004,71.88569
0.5899369,68.78306
0.6654542,71.62896
0.69017136,74.89247
0.7688008,72.69804
0.80349565,76.226364
0.9320129,77.77295
0.93399036,77.744354
1.093093,74.99247
1.1311586,81.64008
1.2140242,80.49899
1.2899624,85.506226
1.2911861,85.11561
1.4426657,84.33197
1.5171827,89.632484
1.4974835,89.70916
1.515575,87.114876
1.546925,91.883705
1.6627522,91.359566
1.5979123,93.38007
1.6663866,93.27881
1.6062438,91.44364
1.68111,93.41735
1.7002485,94.39951
1.6869392,96.74056
1.6853237,97.57776
1.6213232,94.26043
1.740814,97.178406
1.6899873,96.69214
1.6882477,98.816635
1.7190715,96.90884
1.5422537,99.581795
1.6875488,96.843666
1.6512787,97.13827
1.6349282,97.61586
1.5219891,99.69089
1.6388732,98.46809
1.4960177,98.59783
1.519993,98.592545
1.4960797,100.4926
1.4830151,96.47969
1.4293069,97.89727
1.3711329,94.446945
1.3797495,93.780075
1.3837963,92.359764
1.2780861,95.27602
1.2820083,95.0546
1.1730876,92.45016
1.2111765,93.29321
1.2937592,94.88495
1.2704533,89.09396
1.2205032,92.058136
1.1814494,93.027306
1.1339517,90.867165
1.1482198,87.86065
1.0947441,90.678825
1.0608684,85.09777
1.0737913,86.62239
1.0561283,87.51127
1.0821186,86.377365
0.99643475,84.69862
1.0571777,82.75358
1.1035422,82.29614
0.95482266,82.43919
1.0012058,81.96837
0.8980885,81.54824
0.8769918,81.240845
0.9111121,79.81264
0.8476805,75.86857
0.8245925,76.94241
0.8146462,79.58793
0.8365663,74.774574
0.7084555,78.18937
0.6856648,75.95392
0.6295131,75.59715
0.6042037,74.59782
0.5993801,75.04148
0.5095613,71.81214
0.5501938,73.191086
0.39827567,74.92673
0.45488888,67.480934
0.51171005,67.83048
0.41207922,68.98476
0.47182405,69.41906
0.4445179,70.06077
0.48966283,71.65692
0.4507936,67.3471
0.49424174,64.43822
0.4550855,67.3707
0.45108753,64.93764
0.43074203,67.31067
0.42448232,67.21917
0.32509503,65.606606
0.4236793,63.404743
0.38164297,62.67695
0.3418418,63.63778
0.27329192,64.84738
0.34146076,63.74602
0.223006,62.863625
0.20389225,60.231445
0.115203954,61.449646
0.1997541,58.275528
0.1135203,61.293148
0.105738826,63.130455
0.004069074,66.78958
0.08094215,65.3162
-0.033832073,63.663
0.0011089317,63.347088
-0.012544148,67.631836
0.025421713,66.67236
0.022169886,65.65116
0.08686548,68.17349
0.09804901,66.88608
0.097580224,68.41854
0.24497345,69.11721
0.1936794,68.56839
0.2722147,71.544014
0.3276574,73.25796
0.42391995,75.48443
0.5633277,76.72039
0.47722092,78.99444
0.61358446,79.49033
0.7191705,76.31264
0.7575365,79.486115
0.9003991,83.70608
0.9387525,83.73703
0.94548154,83.15174
1.0885556,84.015465
1.0422423,86.99767
1.1669337,87.7575
1.243817,87.65912
1.1953338,88.97787
1.303237,93.10459
1.1640855,91.187584
1.2868804,90.38936
1.2775521,92.70299
1.2941209,93.60673
1.4168178,94.071495
1.3213216,96.051
1.3745306,99.97449
1.3511783,97.781364
1.4485465,100.31286
1.3716193,95.99863
1.313551,95.90769
1.3780919,100.74375
1.3597676,94.51462
1.2962146,99.51623
1.3266959,98.52977
1.3237233,99.382935
1.2802393,101.086716
1.3296498,98.00078
1.2446599,100.233635
1.2254765,96.7318
1.209265,95.47004
1.1054742,99.338806
1.1763948,94.93781
1.199917,95.333115
1.0931932,95.92524
1.1123899,95.199234
1.0597608,95.47263
1.0650985,94.49565
0.99826545,90.80009
0.9860367,93.732445
0.941865,92.203575
0.9704816,92.46818
0.99870396,91.30936
0.943613,90.468315
0.9491693,91.79575
0.9194424,89.16139
0.9099791,92.07343
0.89501995,86.34569
0.82489353,86.5687
0.8678441,86.96518
0.9213975,88.56024
0.90845853,87.754616
0.9165659,83.75231
0.885211,83.359695
0.8511683,83.400314
0.7880684,82.8425
0.7880812,79.15138
0.8093666,80.91391
0.78925115,80.786224
0.69278383,78.52304
0.63360465,81.36128
0.5823338,76.061104
0.6521659,79.4188
0.5804539,76.938034
0.5462739,76.9783
0.55699974,74.44259
0.47718745,74.62521
0.43684015,74.18983
0.39800268,72.02947
0.40558156,73.01512
0.44823292,73.72082
0.40534332,72.35015
0.39452797,74.11041
0.3585987,68.667175
0.39975157,70.619965
0.38799033,67.90153
0.43839034,69.48861
0.40968797,69.75763
0.34519595,64.35633
0.3561716,64.64432
0.3883479,64.37664
0.3227407,62.90664
0.37288308,63.893967
0.39794755,64.19886
0.34745193,63.04317
0.33803773,64.29327
0.22535649,63.985935
0.2684298,60.315018
0.2573344,60.487144
0.2088145,61.066936
0.21230432,63.8951
0.15794203,63.30088
0.18050255,60.20868
0.117438644,64.55866
0.07149598,62.759224
0.0684468,60.503613
0.037718765,63.06063
0.12407811,63.398403
0.054546874,65.04373
0.09906545,61.55585
0.10341116,64.86373
0.11010495,68.959984
0.0876715,65.296555
0.14709651,71.10153
0.2660427,69.10052
0.24197897,74.22605
0.27633038,68.90526
0.3723485,73.794
0.49486876,73.31436
0.5060734,74.52645
0.65875745,76.126076
0.7034735,77.40687
0.76576823,77.46843
0.84910935,80.87392
0.97185075,82.68003
1.004732,82.6715
1.0981662,84.53192
1.2276522,85.12838
1.1719363,85.14207
1.2562323,84.107376
1.2878745,89.55003
1.3628179,87.782135
1.3825688,90.189224
1.3628925,90.45423
1.4471906,94.454475
1.5522754,92.7559
1.5421597,95.03801
1.5321035,92.95308
1.5302974,97.57516
1.5637769,96.69088
1.5658993,95.734375
1.6197819,95.90169
1.5425038,97.33769
1.5516642,97.062836
1.6381657,97.52598
1.6116203,96.860825
1.5657502,98.47088
1.5647309,99.47856
1.5308001,99.047165
1.558477,97.54921
1.5106127,97.76065
1.573078,96.486916
1.5201342,94.26678
1.4964901,99.6913
1.4582175,97.068596
1.4873817,97.017204
1.3460697,96.43242
1.3729051,95.22731
1.3287061,96.23976
1.3904061,93.20981
1.3820987,92.942184
1.3394961,93.184074
1.2817512,94.27332
1.2908468,92.84536
1.2210357,94.22631
1.1493007,90.26321
1.1942874,89.61322
1.2401912,90.65161
1.2426594,85.46126
1.2299644,89.547295
1.2229133,86.927734
1.2236212,85.21428
1.2116941,85.656044
1.1990045,85.242516
1.2083886,84.24251
1.207197,83.85156
1.1036273,81.568375
1.0644889,84.76891
1.129515,83.08766
1.1156399,80.97592
1.0729495,79.715675
1.1250272,80.41685
1.0519439,80.11328
0.98041993,80.49244
0.9828483,76.43261
0.92031646,74.11801
0.88616514,78.7766
0.9557966,77.475525
0.83694905,75.17673
0.8517632,74.169876
0.8568836,75.11314
0.83756,73.73295
0.87600607,71.064575
0.74099314,75.783875
0.8403757,72.18958
0.7423595,69.179726
0.7622945,73.2813
0.7574761,69.23378
0.7518997,67.0352
0.6309399,65.664345
0.75429344,69.52447
0.77070016,69.08676
0.74850357,69.50433
0.7260207,64.38282
0.73564583,66.206375
0.7332841,66.81927
0.72643375,63.57816
0.7440018,68.29619
0.7441766,62.511135
0.7640091,60.422836
0.66509557,62.142532
0.6211504,64.11697
0.6400339,62.442204
0.60761076,62.006516
0.55798066,63.055088
0.5729824,60.979847
0.5361519,63.262066
0.4656858,64.81597
0.5082281,64.46349
0.49424824,62.26386
0.498333,63.437572
0.39394268,63.586575
0.40793177,65.08062
0.45332092,68.179535
0.45456403,69.6741
0.48652977,67.28908
0.5493802,69.03945
0.45945194,68.89664
0.60049236,68.264336
0.66835654,71.18351
0.74962616,72.436615
0.83100647,74.42525
0.91304725,74.693794
0.97122276,74.99532
1.0067235,75.34614
1.1135663,77.4058
1.2535583,80.97657
1.2715183,81.39502
1.3673186,82.34215
1.4399612,83.48037
1.4363675,87.434166
1.5081742,87.75258
1.5684569,84.39891
1.715012,87.00662
1.7020814,87.87403
1.7903395,91.319
1.7603849,88.71473
1.7740295,91.20859
1.8195535,92.69009
1.848342,91.92824
1.9096973,95.7001
1.8946575,97.87871
1.9535707,94.36879
1.9244313,94.83298
1.9812694,94.2753
1.9494302,97.26134
1.9372703,99.19395
1.9456902,96.14661
1.9640427,98.81773
1.9593178,99.890236
1.8571662,97.16107
1.9657183,97.34505
1.9448677,98.90003
1.917488,101.90408
1.8654677,98.84482
1.8406258,95.99087
1.7918029,97.039276
1.8475865,97.516396
1.7951154,96.860466
1.8005627,94.2374
1.755333,93.43366
1.7318461,97.856834
1.6767913,94.28018
1.6913353,94.878784
1.6215702,94.73985
1.6587405,94.62077
1.6317763,93.252594
1.5822204,93.69093
1.5654334,94.13345
1.5249177,89.18434
1.5033594,92.58195
1.47097,89.28348
1.5454282,90.1834
1.5435824,85.148636
1.4547076,89.515144
1.5031092,85.56148
1.474775,83.58786
1.5232267,84.278984
1.4534743,85.22408
1.4941499,85.20247
1.4641492,83.03698
1.45211,82.315384
1.3885443,82.175385
1.3767998,81.22796
1.3698628,82.36823
1.3532444,82.17374
1.2976509,79.98285
1.2578714,77.48692
1.1817565,79.99879
1.0938141,79.4773
1.141049,77.279274
1.1469113,76.675156
1.0426126,76.707245
0.99621683,73.29525
1.0589995,73.27372
1.0289865,72.801895
1.0630498,71.11895
0.96572834,72.25132
0.95296335,70.91529
0.8841281,72.30968
0.9324901,72.55627
0.97886467,69.79586
0.87354344,65.849
0.9056015,65.55473
0.8356618,66.33152
0.91935956,64.58043
0.90518343,66.12389
0.8970014,65.62441
0.853201,64.84448
0.8428885,65.70223
0.93330175,62.041176
0.8507583,64.261375
0.8168204,66.631744
0.8338182,64.76076
0.7667788,64.84834
0.790031,66.42412
0.7212729,64.45195
0.68577486,62.615677
0.6191834,62.575077
0.58675015,62.124535
0.63034976,63.10618
0.54887354,63.675472
0.5754247,61.039547
0.5769674,63.084126
0.5104872,66.45693
0.52703226,64.74028
0.53649634,64.368095
0.5875355,69.22785
0.5684988,64.87414
0.5958748,67.088776
0.5378388,66.56372
0.6796056,71.275406
0.7336949,70.98563
0.7049613,70.03729
0.79483795,76.14427
0.9068025,73.95847
0.8743866,75.74996
1.0483838,76.39613
1.0670928,77.533875
1.1144953,79.382225
1.2655362,79.25035
1.2934365,81.40735
1.3533777,80.99791
1.4060953,84.36576
1.4587469,83.59577
1.5549328,83.043
1.5399895,88.302605
1.5997547,88.577126
1.6429545,87.82558
1.6872938,91.97093
1.7653176,90.22546
1.7509358,92.17117
1.7106171,93.16213
1.7557942,95.34432
1.8556578,95.17542
1.8151761,93.661285
1.8135717,95.02855
1.8881977,95.43154
1.8829175,98.19643
1.836916,98.88028
1.8400377,101.36171
1.8109939,100.27182
1.8124387,102.12443
1.7611046,94.859314
1.8240957,98.51613
1.829195,99.325615
1.7441365,98.039536
1.7305045,100.389175
1.7627147,95.48284
1.7174114,98.24706
1.6587706,98.59789
1.7214959,98.44207
1.5534807,97.98744
1.5391176,96.81059
1.5610801,98.21824
1.4942482,95.9627
1.4666963,96.12738
1.419359,93.714615
1.462987,96.64684
1.4453846,93.80427
1.4992646,91.94054
1.3660501,91.63972
1.4109434,91.036736
1.4342828,89.38359
1.3201236,90.97607
1.2926854,90.54521
1.257744,86.19534
1.307696,90.18086
1.3200103,86.986336
1.2844719,88.799126
1.3214765,84.74474
1.2287874,84.16108
1.2464317,86.4735
1.2649244,84.7456
1.2621328,83.11834
1.1675915,84.60212
1.1226652,78.65117
1.133503,83.38898
1.1061567,80.89285
1.1034633,78.22147
1.0753753,77.718475
0.98678774,76.39521
0.9591859,78.55564
0.95649976,77.14547
0.8729419,76.5197
0.86813897,75.652596
0.74106973,75.00276
0.749908,71.86714
0.72754204,72.54735
0.68597305,73.84234
0.66426456,71.63829
0.67390645,72.75149
0.61353254,68.23327
0.56386304,71.748405
0.6057416,71.26189
0.601698,70.52817
0.63733447,65.25765
0.5852943,69.70946
0.529778,66.78695
0.5893726,66.07825
0.62358296,65.837105
0.5729899,64.2815
0.4289187,65.17371
0.5650537,65.38835
0.5375934,66.27757
0.49918002,62.580124
0.46833998,63.219303
0.41995785,63.695915
0.4989576,61.194397
0.40544564,57.77941
0.36055756,62.184067
0.31694952,63.029564
0.32851392,62.48684
0.3362135,62.491745
0.29810125,62.138596
0.12312648,63.670895
0.14415395,64.91193
0.15273929,64.13622
0.08249592,67.506516
0.2113193,64.9057
0.17019719,62.322865
0.1945034,64.797
0.15078233,65.39909
0.12746218,67.596565
0.24387884,67.75375
0.25501254,67.03293
0.3022557,69.63098
0.3246921,70.26897
0.4612605,72.827965
0.5295994,75.43569
0.5780058,74.2065
0.674682,72.9223
0.72335356,79.012215
0.8438917,82.12678
0.8690638,79.45957
0.9199682,82.00711
0.9896235,83.893364
0.9645237,82.90215
1.1819735,84.34459
1.1438261,84.904816
1.222187,87.213104
1.2479097,87.6145
1.3141186,88.681786
1.2829479,90.316086
1.291473,92.27535
1.3539451,93.79707
1.464568,94.452095
1.4304732,97.29735
1.4393332,95.6631
1.4079868,97.58141
1.454574,95.35365
1.5023024,96.120895
1.4573224,99.4691
1.4138166,98.47036
1.3803494,98.94625
1.4071431,98.850075
1.3633693,100.65813
1.4822408,100.249504
1.3756394,99.466896
1.3431809,98.310844
1.3753623,100.02941
1.3062503,97.73784
1.3399851,98.319405
1.3406316,97.108406
1.3103614,96.435616
1.2766805,99.17171
1.2489676,97.11365
1.2138572,97.89825
1.2275953,99.70063
1.0992924,93.61031
1.1311879,96.06864
1.1313002,95.070206
1.0456266,93.000275
1.0843312,92.729904
1.0823375,92.68316
1.006705,92.31777
1.0310006,93.98619
0.97598386,88.38186
1.0132601,90.47037
0.96988535,90.92736
0.99222344,87.94689
0.96457446,88.09189
0.9567899,87.24337
0.9331131,85.54582
0.8706222,85.353424
0.93137234,84.239655
0.94400084,84.884895
0.88409287,83.37214
0.8816493,82.13248
0.87988466,81.95756
0.7642177,80.50758
0.8353792,82.10703
0.8091038,78.80061
0.6758856,79.648674
0.7301147,79.32154
0.6551953,79.357155
0.61973035,76.69522
0.57775956,77.159294
0.5006902,77.58083
0.42937666,73.32394
0.45635363,74.548
0.39283505,73.49293
0.4281288,72.74272
0.37732124,71.54439
0.3685521,69.960846
0.3678724,69.542656
0.35610703,70.85412
0.29802078,71.182434
0.37983894,66.13917
0.3371837,67.681076
0.3579862,67.59836
0.37760633,67.77283
0.3066577,66.98995
0.32186896,68.23157
0.33594185,67.26665
0.37117162,66.329735
0.34161904,65.844635
0.30966777,63.65869
0.29932147,61.811543
0.24301565,63.32586
0.2363369,64.84922
0.18104792,61.852474
0.17532657,64.48832
0.22742221,60.88388
0.13931696,60.18333
0.0881298,63.515026
0.06324013,65.120605
0.030962517,60.319176
0.10312196,61.7807
-0.04004555,62.94076
-0.075706735,61.58618
-0.07529332,64.64938
-0.042445496,62.7558
-0.09174159,62.152752
-0.04420122,65.97471
-0.0030968185,67.96777
0.019555628,65.81227
0.070145026,66.181206
0.14370987,69.74527
0.14820677,69.34648
0.21001656,70.0995
0.24726294,71.980644
0.32821506,76.18825
0.3984893,75.22795
0.4332409,75.03689
0.4572085,75.907524
0.7311497,74.89184
0.69933397,81.24326
0.70788956,81.18814
0.80812573,84.18167
0.87428445,84.63651
0.94649047,83.080956
1.0138865,84.87134
1.0820782,84.25923
1.0671321,86.99228
1.2407236,90.691826
1.2337871,90.64015
1.2654468,92.06696
1.3746387,90.572815
1.2599552,93.805756
1.4053258,94.768135
1.3182404,94.10141
1.4248269,93.90692
1.4261919,96.99256
1.5115845,95.1661
1.4629933,97.47174
1.3937219,96.031944
1.3824767,99.38563
1.4176003,97.92029
1.4628859,98.06708
1.3841295,102.31451
1.4378597,101.254745
1.3838418,98.03826
1.4323914,97.90586
1.3258733,103.5393
1.3716305,98.656425
1.4112232,96.38685
1.2301464,97.91824
1.3045131,95.154686
1.3220576,97.42474
1.2203786,97.6583
1.1954602,100.643974
1.2331434,96.83013
1.1389354,97.81254
1.1296376,96.62775
1.0605729,92.661766
1.1251601,92.529045
1.0749297,92.12191
1.1123316,94.23272
1.0941126,92.94929
1.0999727,88.399635
1.0847086,90.33186
1.0708585,91.08286
1.0827061,88.14724
0.997889,88.97719
0.96562105,89.42798
1.058926,86.683754
1.0596437,84.11189
0.9717604,84.01315
0.94390917,84.19351
0.9731685,84.5306
1.0245825,81.47814
0.9507156,78.85863
0.96983117,82.277756
0.96898055,83.78289
0.98908156,80.61746
0.88718486,80.581
0.8416877,79.22837
0.843073,78.416855
0.8383855,77.7878
0.72125566,79.494354
0.7866057,76.32288
0.77829564,76.17631
0.6562388,73.68791
0.6782641,72.83887
0.66360563,73.11363
0.66893625,75.28402
0.6458474,70.47941
0.64032733,70.41934
0.54410625,69.143
0.57094055,66.93506
0.54095274,70.83505
0.5303954,68.75527
0.59717983,67.77644
0.594606,65.516365
0.52804244,63.581917
0.56589437,66.60565
0.5502368,66.10756
0.60669696,65.707
0.5925387,61.283985
0.5647556,63.321003
0.56902593,64.98409
0.5395589,63.41817
0.4888665,65.36959
0.46076143,63.453323
0.527799,64.07914
0.47005677,62.029274
0.42136705,64.23672
0.42266658,61.66914
0.3388762,64.8998
0.3993126,63.341328
0.32268915,61.335903
0.2868935,63.365475
0.29954928,64.314835
0.23134238,63.05224
0.20860219,66.268654
0.26587057,66.4931
0.26158762,62.409115
0.31085154,64.98426
0.28607213,67.28042
0.37165096,67.285164
0.35883084,69.321556
0.43300328,70.743126
0.49547294,68.92422
0.5674496,70.743515
0.61976767,70.96579
0.63260525,75.56771
0.74827003,75.92793
0.77432,76.82579
0.8912922,76.59946
1.0123206,80.056206
1.0384711,79.52633
1.1305014,80.99231
1.1570317,82.31621
1.2784718,82.80354
1.3395981,83.64017
1.4746827,85.2096
1.4689393,87.63145
1.5353038,85.70719
1.5521019,89.35156
1.5970165,88.94695
1.6445988,91.317116
1.6553231,90.8305
1.716594,91.48106
1.7275852,93.42124
1.762442,96.58759
1.791094,96.80004
1.9082623,98.65248
1.8407927,95.37079
1.8909171,99.70008
1.8461804,98.56855
1.8644,100.164696
1.786292,99.24248
1.8079783,100.26612
1.8478419,101.32608
1.8763502,101.087524
1.8608348,99.05537
1.7517346,98.70678
1.7637687,98.37568
1.7904961,100.6958
1.7199363,97.45989
1.7284323,98.84303
1.7131337,97.592224
1.6884367,95.92644
1.6364968,95.25222
1.5855212,93.87198
1.6112602,97.00144
1.5578413,94.41646
1.588876,94.447266
1.5016687,93.56838
1.5209414,93.27116
1.478248,94.30234
1.4858376,91.706894
1.4980158,94.38997
1.501212,91.21113
1.5054929,85.30647
1.4788334,90.946625
1.4416726,88.51981
1.447521,91.11543
1.4042499,86.37871
1.4149209,86.30117
1.3205899,86.48473
1.3720428,83.32594
1.3602825,85.68172
1.3800747,81.564255
1.4560452,81.08732
1.3656431,83.021866
1.3090597,80.499794
1.2682246,79.297775
1.2738718,79.29717
1.1943218,78.01374
1.3063226,78.46267
1.2490088,78.142044
1.2090214,77.71348
1.0812165,76.213486
1.0511782,71.21716
1.1085385,75.04753
1.0252489,79.91207
1.0609282,74.009254
0.9383014,73.06041
1.0160203,69.30215
0.9629723,72.97098
0.94925356,72.11158
1.0352808,71.318954
0.8371744,74.648994
0.9348941,69.29005
0.925867,71.67368
0.9160573,68.61794
0.911589,66.70144
0.94087255,65.85069
0.946591,70.01572
0.9276091,64.79516
1.003962,66.252785
0.8771053,65.8917
0.8866541,64.59624
0.913211,62.403984
0.8181806,63.980778
0.850536,62.96344
0.80096054,63.04793
0.71206284,59.207497
0.7747704,62.830746
0.7051155,64.58801
0.6687494,61.273045
0.66693467,60.908043
0.6488207,65.356636
0.5425972,62.646755
0.6999587,60.99642
0.6036382,64.26244
0.61161125,65.319786
0.5325527,63.96866
0.47039637,65.63029
0.55419207,63.835705
0.5877695,68.69985
0.5863855,65.47126
0.5914626,69.077835
0.6804421,69.44777
0.67258847,68.47562
0.7532668,72.555016
0.7840241,73.11653
0.85814625,73.01123
0.92150724,73.23283
0.962895,74.83641
1.0656046,77.024475
1.0920122,80.195694
1.3149174,76.93154
1.3249775,80.999435
1.3769362,81.23114
1.4313469,84.23372
1.5885684,83.65029
1.5641041,81.93485
1.6289505,85.7813
1.741525,86.83355
1.7270977,89.49413
1.8075095,89.26632
1.8096917,92.6957
1.7966762,92.31371
1.8688148,91.8559
1.8485583,93.95832
1.8862205,97.71142
1.8779944,97.33099
1.9000047,98.22049
1.9367764,96.889496
1.9982091,97.66495
1.9745845,99.662094
1.9261717,98.55611
1.8925986,98.46916
1.9677536,97.17936
1.9053763,96.73115
1.8647925,100.55451
1.8762542,98.35808
1.8871684,98.94185
1.8920567,99.98181
1.7379378,97.79514
1.8029451,99.1209
1.7843294,98.48622
1.7539155,97.54214
1.8030907,97.81796
1.7444758,95.51793
1.7645737,95.96881
1.6286029,93.77676
1.5646509,97.41901
1.6569759,96.74287
1.5612254,93.67715
1.6443833,91.71733
1.5300415,94.08216
1.511204,93.87168
1.5199841,92.46845
1.5901208,88.97527
1.4223363,90.6377
1.5333712,88.86188
1.4262279,93.965866
1.4591233,86.225006
1.4342314,87.395515
1.4087113,87.24014
1.4258571,85.626045
1.4333686,82.93468
1.3289397,84.98901
1.4352458,85.24567
1.2566563,85.29995
1.315234,85.058395
1.2893612,82.627266
1.3105402,79.67022
1.2712554,82.64697
1.2358162,82.903244
1.2075528,77.76197
1.1775303,74.963684
1.1067699,76.50706
1.1193491,74.05176
1.0838557,75.85055
1.0054997,74.44636
0.9687845,73.26812
0.9052636,75.81382
0.91761166,72.1662
0.85487807,74.71715
0.8612102,74.06944
0.8893447,72.351364
0.8235942,73.84264
0.84012824,71.14365
0.7142211,71.20992
0.78167915,68.64657
0.8204606,66.45619
0.78813016,69.73657
0.75385654,66.73298
0.7423098,66.46127
0.77145976,65.47629
0.7429477,66.200485
0.7523859,62.298504
0.70366764,66.50994
0.7073448,62.148872
0.6361398,66.707985
0.72194916,65.68881
0.66914743,64.291985
0.56257427,66.72048
0.58233744,64.32546
0.53521353,62.464615
0.5250763,58.949486
0.50305885,63.526047
0.45750365,64.183266
0.41277072,61.946938
0.38687184,65.528595
0.42569607,60.497795
0.29242164,61.963818
0.32851243,63.16719
0.31729808,67.30627
0.28648886,66.29866
0.2835838,68.19506
0.34654397,65.20273
0.35494542,65.45779
0.45572266,67.97051
0.49400935,67.16593
0.4281625,68.52225
0.5475653,70.079056
0.5442204,71.74219
0.70014644,74.22578
0.68525684,75.67652
0.7983599,73.05575
0.86033374,74.65444
0.91090536,77.28726
1.0154724,83.0949
1.1199199,78.81179
1.116117,79.57676
1.2364663,81.65485
1.233267,84.5292
1.3429167,85.947014
1.3530061,89.33777
1.3669271,85.446785
1.4793354,86.85765
1.4152348,88.87814
1.5406277,92.5847
1.5278292,92.8797
1.5197258,93.81012
1.5902518,91.76405
1.5923976,90.477516
1.5501364,96.27395
1.5997157,95.91288
1.5585817,94.94012
1.6401176,97.19863
1.6308758,98.07748
1.6359897,98.62398
1.5971527,94.99437
1.606169,99.783325
1.5071731,99.49471
1.5513711,99.11334
1.5473415,96.857475
1.5598848,99.438515
1.4794816,97.45486
1.4746981,100.38825
1.440215,99.63358
1.4300127,95.20378
1.5155869,98.32301
1.3673892,95.94538
1.3316724,95.86235
1.2947005,97.20836
1.2579461,95.94301
1.2740331,97.12655
1.1930598,96.22989
1.2261695,94.21208
1.1132988,92.65369
1.106648,93.28937
1.1689247,95.536514
1.0956941,94.90062
1.1255516,90.94345
1.2032948,91.56235
1.0424625,90.6198
1.0702304,87.10082
1.1250402,90.074356
1.043698,90.30869
1.0041137,83.00295
0.9685845,89.0866
1.0479558,85.82767
0.9837885,86.45291
0.9410732,83.57701
0.9279848,84.33072
0.86702245,84.889084
0.94648355,82.605286
0.84562874,81.96415
0.75454044,77.818855
0.77766883,79.62831
0.8756938,79.33533
0.75372225,78.74507
0.7704113,77.466225
0.7182953,77.045876
0.67934376,74.51034
0.65807146,75.86003
0.56098866,76.15977
0.54187924,73.38697
0.43893886,73.44312
0.47852817,74.30715
0.36425722,74.3033
0.41943046,75.28439
0.35554925,70.82184
0.44473952,70.42194
0.43195897,69.35343
0.415487,69.46464
0.37680128,67.105316
0.36471334,67.95033
0.44196752,68.555466
0.3307519,64.52852
0.31918386,65.78009
0.3683815,62.24635
0.367348,65.22651
0.35610217,64.03337
0.30184504,64.836876
0.35604066,62.682327
0.31015074,62.349236
0.24005711,63.221413
0.24700785,60.4774
0.21819939,60.586525
0.13916159,65.15816
0.17852846,60.615334
0.061428495,61.122684
0.18833132,63.810127
0.022859877,61.94793
0.022922168,61.001846
0.0268534,63.30683
-0.056429133,63.886055
-0.08779403,62.27567
-0.03333678,63.509933
-0.07691668,65.38017
-0.09847861,64.61912
-0.047840122,70.30227
0.07164655,66.9841
0.06536627,67.74893
0.094883814,69.41509
0.19521222,70.952934
0.22481877,71.56178
0.2579872,73.74452
0.29854438,76.62472
0.4822232,73.57047
0.42851597,75.56065
0.57869464,76.53514
0.6548107,78.88178
0.737652,81.66562
0.7739459,80.56829
0.85707855,82.02933
0.9050025,79.90273
0.95380217,85.33944
0.9666012,86.94612
1.1112509,87.66922
1.1396201,88.12634
1.2368648,93.50532
1.1812552,90.158615
1.2675799,92.46748
1.2732297,91.944595
1.2992004,94.98518
1.2898407,91.67183
1.3597922,93.593544
1.4200666,96.13158
1.4389979,96.30386
1.420415,94.801544
1.4400142,97.94673
1.3893423,97.37574
1.3880861,98.60439
1.4201483,97.30959
1.3674448,95.290344
1.3250884,99.15192
1.3173515,96.16412
1.3478093,99.9669
1.2685425,102.12378
1.2989237,99.85804
1.2945482,98.85163
1.224956,96.4604
1.314442,98.01468
1.2261764,101.56033
1.2229588,100.18791
1.1620598,98.241135
1.1187018,95.15719
1.1585286,96.0135
1.0956637,93.22126
1.0534596,93.31258
1.0969803,93.23756
0.98965853,92.93528
1.0029008,91.1816
0.99514043,90.76586
1.0059924,91.460144
1.0154887,91.78795
0.9437588,86.681786
0.9826413,90.29127
1.0393863,86.54588
0.93250346,86.24583
0.8955557,88.39899
0.92605793,85.58579
0.8937011,88.52543
0.93007946,85.320724
0.9348858,87.03123
0.8406301,83.92472
0.9187923,86.609344
0.90141463,83.465294
0.8716546,81.09001
0.76837516,81.87964
0.71335673,81.265396
0.79054064,79.40838
0.7511744,78.63464
0.70192075,78.68408
0.5803118,77.504845
0.66044706,76.194336
0.70184624,78.46673
0.5466198,77.6933
0.5256083,71.35188
0.49014315,75.1135
0.38728616,72.42444
0.4678078,72.732414
0.42280784,73.53563
0.47549987,72.31559
0.38319612,68.78092
0.37893036,72.68366
0.44443202,69.87401
0.42897636,70.11235
0.4186072,66.11609
0.4128383,67.83227
0.39522547,66.76686
0.4314159,67.79711
0.40590546,66.88768
0.4455129,63.294334
0.3932281,63.403225
0.346397,65.17389
0.3851097,62.016983
0.31572312,64.81425
0.3757124,64.76594
0.34809643,61.39584
0.414287,65.15976
0.30189776,61.68588
0.28811648,62.08316
0.23065464,62.64553
0.22262457,63.502506
0.23181996,62.504833
0.13404018,62.638382
0.10749652,64.09975
0.1287703,65.28791
0.11135325,61.5507
0.14566942,63.686516
0.12778206,64.14168
0.124379024,66.673134
0.1731026,64.67829
0.19398087,68.25396
0.20044488,65.118675
0.20656157,68.362274
0.28225857,69.248985
0.37688744,71.38395
0.46051198,71.08944
0.48221505,75.137474
0.57347614,74.69687
0.6851352,75.20393
0.6687293,74.03447
0.78742284,76.263016
0.86805636,80.000725
0.946866,79.26224
1.040189,81.38377
1.1244743,81.11874
1.1875207,81.30113
1.2506644,84.31821
1.336231,86.047485
1.2991683,87.066
1.4297667,86.77846
1.4702532,89.838356
1.4496137,93.33961
1.4555271,91.47804
1.5590149,91.54574
1.5534259,91.410416
1.5897709,95.04662
1.5729946,96.9562
1.5549839,96.64774
1.6035357,98.48238
1.658139,99.61304
1.6683098,99.214714
1.6442728,99.99179
1.6665192,98.994896
1.6557994,96.56487
1.6487145,97.95714
1.6617737,99.5331
1.6655511,97.018776
1.5970076,98.4086
1.5587697,98.25554
1.5642177,96.00451
1.5626626,98.95054
1.5378401,98.52657
1.5365943,98.37481
1.5960275,98.04382
1.5905126,95.66724
1.4782712,96.53552
1.4687116,94.74576
1.4180348,95.43602
1.4649194,93.7804
1.3436139,94.00942
1.372053,95.12111
1.4214588,93.78594
1.2952001,93.16706
1.3063071,90.27296
1.3560814,90.33736
1.2865009,90.38198
1.2823384,88.45533
1.253807,88.08718
1.314916,88.87236
1.3473406,87.69887
1.2984353,88.53716
1.2233216,85.40082
1.2372929,83.31988
1.3166792,84.35867
1.229173,85.23433
1.2488668,82.37623
1.3181678,80.32039
1.2035986,84.38669
1.2021084,81.55285
1.1769907,83.519
1.2056253,80.59394
1.1218964,79.8774
1.0687482,80.679665
1.1197991,82.05229
1.0426006,75.53434
0.99320334,76.0918
1.0169859,76.560234
0.9322851,77.72932
0.8682082,71.52165
0.8936791,74.18964
0.8559624,71.061134
0.9454147,71.560394
0.72069377,70.41785
0.79263324,70.03401
0.792781,70.56322
0.80584913,69.41562
0.8506139,69.37673
0.8120557,69.52695
0.80075294,70.287254
0.77240866,63.591198
0.79372007,66.74714
0.8298895,66.5759
0.7891084,68.1274
0.7725143,65.63972
0.821585,65.818146
0.8483633,64.674515
0.7919289,65.61586
0.78857404,62.4352
0.80485916,64.59416
0.7558473,59.24757
0.7656142,61.31506
0.6988732,58.926407
0.6798894,63.32213
0.5738512,61.841774
0.59630924,61.84016
0.5689646,63.287582
0.6404483,59.44373
0.48702088,65.13306
0.5581836,62.111206
0.46956873,64.39916
0.5114291,61.3995
0.5266092,65.61927
0.5594461,66.1366
0.5725503,66.37904
0.5515185,66.64707
0.59796274,66.18271
0.65493923,68.27909
0.712262,72.65241
0.7318962,68.218376
0.83256507,72.64589
0.9823053,75.59879
1.0029529,74.422424
1.0399123,74.47841
1.136922,76.68281
1.1783035,77.36954
1.2357594,78.08455
1.4012188,81.925674
1.3789849,85.42185
1.4449214,85.22521
1.5555123,85.20097
1.5652109,86.0727
1.7122949,85.52726
1.775724,87.79779
1.7822362,90.90598
1.7699316,89.1679
1.8280182,91.616875
1.8236442,91.87273
1.8125474,94.78775
1.934154,91.56616
1.9533125,94.86707
1.9112773,93.43331
1.9680524,96.82949
1.9428957,97.37114
1.9113437,96.41903
2.0451694,98.11127
2.0681994,96.50135
1.9202884,97.95755
1.9086818,96.668236
1.9416914,97.883286
1.9745256,99.9616
1.8981155,100.43045
1.9962573,95.76133
1.9449294,97.84766
1.91938,99.51147
1.8487362,100.21707
1.852596,97.789085
1.8072474,96.29361
1.7599063,97.97212
1.7289616,97.16385
1.7474996,96.33596
1.6890384,97.46829
1.6958753,95.68556
1.6494008,94.87661
1.5704999,95.68261
1.5414544,94.763176
1.5764302,92.786934
1.6350731,89.85197
1.5438521,91.33355
1.5536168,89.16459
1.5833871,87.75741
1.5106564,90.291336
1.5383044,89.190125
1.4422961,87.654785
1.4412273,87.49978
1.4179827,85.03752
1.4806334,87.22333
1.5097047,87.78287
1.4246571,82.66186
1.4389436,83.94268
1.3998742,81.48793
1.439348,78.22372
1.3025525,81.58202
1.3656534,79.7939
1.3130622,81.36835
1.2830698,81.26788
1.2456905,77.320984
1.269808,74.80687
1.196695,76.817894
1.1369109,78.558105
1.1380106,74.937904
1.1399399,75.171745
1.0379286,76.6276
1.11763,74.43758
1.0641738,70.850555
0.9658359,74.104195
1.031571,74.229
0.857784,71.187096
0.9097421,73.04676
0.8779533,68.30635
0.80402297,68.05916
0.8961584,69.32241
0.87300885,67.763214
0.93337655,68.44759
0.8434789,66.44793
0.92796326,64.84227
0.86856323,65.87682
0.8849856,68.794655
0.90878636,63.83479
0.8243983,63.304337
0.82781637,66.338455
0.82883257,64.506325
0.79551315,62.156887
0.7454215,64.12251
0.74237114,63.93669
0.79962677,62.950256
0.6076569,64.15363
0.6492693,62.31754
0.64551175,63.42518
0.62416255,60.836784
0.49322248,65.277466
0.48711932,64.61537
0.47872117,62.947613
0.48740858,65.68437
0.4694977,61.70356
0.5038186,63.1208
0.45807326,66.59846
0.4585919,66.307274
0.4867111,64.963806
0.5602019,69.28515
0.47709316,67.36161
0.6003644,70.74553
0.7035572,68.98203
0.76608795,69.08014
0.7296368,73.71006
0.86123765,73.47504
0.8524103,73.418846
0.9742137,76.99024
1.0761002,79.33479
1.1157446,82.3551
1.144591,81.13215
1.207316,82.609924
1.3804468,81.312805
1.4232031,85.1651
1.4258623,82.2495
1.4540371,85.74586
1.5087767,85.17162
1.5701023,90.26816
1.6450975,86.92242
1.6470276,90.13453
1.6769662,94.07054
1.7772675,92.95998
1.5851439,92.89686
1.868025,95.36976
1.7039019,97.88368
1.7695025,93.907715
1.7241166,99.32173
1.7652744,97.03825
1.7301081,99.93988
1.7716506,99.45578
1.7638336,96.712746
1.7385868,98.6612
1.7213805,98.162926
1.6900312,97.62449
1.7917081,101.24311
1.6936444,95.25516
1.6798203,97.80962
1.6045988,98.20719
1.6121383,98.237526
1.6356852,97.45911
1.5624124,98.49433
1.5543923,98.80413
1.5021594,97.80143
1.4706595,97.18422
1.3755194,95.869736
1.4730088,95.284836
1.3540289,95.42544
1.4049622,92.36324
1.2859294,95.4235
1.3593172,93.30402
1.2986988,94.72114
1.2908823,92.51572
1.17555,87.82984
1.2998413,88.49053
1.1876493,87.00982
1.2249708,90.1461
1.22077,90.39521
1.273196,86.45209
1.1488355,86.36425
1.2031895,84.9068
1.1778467,85.33185
1.0993607,85.83132
1.144212,82.087814
1.1403763,87.19355
1.1279273,82.18456
1.091353,83.17065
1.0137547,82.78558
0.9713211,79.4032
0.97255105,77.101166
1.0002161,80.34064
0.9271984,80.215996
0.9165829,76.62845
0.8910612,77.00529
0.75810134,75.23342
0.7596278,76.16185
0.7390653,74.00397
0.6649229,75.1177
0.7149213,75.83845
0.61110926,72.62001
0.57818496,71.25477
0.5331828,69.788734
0.6010412,74.50414
0.526837,71.30348
0.5882337,70.907104
0.48673064,67.27031
0.51660275,66.84142
0.53520846,67.88885
0.5327603,66.865005
0.47228885,64.42746
0.49176267,64.916435
0.487468,65.50376
0.5206556,63.118088
0.4836607,63.723072
0.48431525,66.313446
0.4535268,63.961132
0.4050825,63.13064
0.45609367,63.191017
0.45493674,62.882137
0.3343203,61.86267
0.28800917,59.98483
0.28560138,61.16395
0.26823738,63.54005
0.23747398,62.68736
0.19207466,64.5444
0.08513353,62.154575
0.067519456,63.151535
0.07720746,63.86218
0.06387018,65.528694
0.0644152,64.142715
0.11806663,65.79842
0.07209942,67.63145
0.11186846,67.91016
0.08675666,68.636375
0.16403289,66.42763
0.16218826,72.964935
0.2528245,67.43889
0.28430736,68.831314
0.2576154,73.83095
0.4017814,74.20415
0.46004024,75.87952
0.47010654,76.0978
0.6378195,78.898674
0.7081802,78.57765
0.709652,77.43309
0.8122961,82.37421
0.92347324,82.39095
0.91045225,82.45828
1.0569488,84.62902
1.0745568,83.91148
1.1215135,86.13878
1.2001514,89.09587
1.2346146,85.93517
1.1831328,89.25873
1.2276253,89.605896
1.3104212,91.82163
1.3628948,93.629295
1.3968467,96.48861
1.3549504,95.01261
1.4508938,94.4168
1.4041919,96.3335
1.4326144,100.384186
1.3595973,95.01933
1.4263687,98.13354
1.396147,97.14069
1.4889393,98.07456
1.4141482,98.19231
1.4194754,99.645515
1.3118495,100.183784
1.4123225,99.32428
1.3083452,96.364235
1.316631,101.85447
1.310667,97.41917
1.2752213,99.181496
1.3480805,98.37991
1.1724309,98.125465
1.2506707,97.782265
1.2142763,96.627426
1.0939676,98.31659
1.0629538,97.87902
1.116731,94.01638
1.1137203,93.7977
1.0707382,93.63544
1.0683609,92.35466
0.95403403,93.207924
0.9800764,93.0992
0.9886435,93.142105
0.90138537,89.83956
0.99841017,90.72075
0.98246086,91.23336
0.91629064,90.25931
0.8621516,86.77731
0.9617931,86.87283
0.92222965,83.44834
0.89550555,84.92822
0.8807061,85.05555
0.92858887,85.01504
0.8358213,82.553085
0.7503254,82.217636
0.8684097,82.15828
0.75035155,81.523865
0.80353636,80.069664
0.6777448,79.10352
0.7281128,83.473114
0.68248963,79.42491
0.60134274,78.76315
0.63538545,78.495735
0.5708677,76.19512
0.49336606,74.36733
0.5311155,74.40594
0.5207765,78.21446
0.44884938,72.13773
0.44536516,74.573875
0.41546246,73.60618
0.43524212,71.9461
0.3807439,71.89401
0.35086268,73.28662
0.34442538,73.22774
0.29182887,67.01362
0.31614125,68.14331
0.29986653,67.42019
0.32009754,66.49067
0.31797147,68.11124
0.37552926,66.870804
0.30567977,66.49836
0.35903132,63.707256
0.3365349,67.98925
0.33091623,65.64381
0.25975353,63.351128
0.40208498,63.891273
0.24084647,61.007904
0.30533335,62.850826
0.15500492,64.1122
0.15107672,62.251522
0.16458137,63.687202
0.16825926,61.53996
0.06635443,62.388775
0.12060823,62.235992
0.034308393,62.86875
0.024562271,62.63426
0.021375233,65.9887
-0.047602974,60.914925
0.021856995,62.72421
-0.05062405,63.169178
-0.019815108,65.60151
0.11271066,65.63634
-0.00503196,67.01325
0.16731596,67.87226
0.083070986,69.19758
0.16655101,66.51155
0.21358101,71.57474
0.19087017,71.78996
0.24999696,73.25236
0.39757395,72.70705
0.47981128,78.346954
0.47263628,78.117256
0.6021639,76.91987
0.62422013,78.95244
0.77275944,79.98003
0.8258935,81.9169
0.9152654,79.029305
0.9643351,82.71127
1.0336437,87.34943
1.1016943,85.77967
1.1151445,86.3029
1.1640505,89.63775
1.2884393,88.33464
1.2909663,96.53146
1.3908204,91.41975
1.3327003,93.12678
1.424421,93.00015
1.4344125,93.21016
1.4741579,94.87751
1.4301668,97.74869
1.4798667,99.07017
1.4995468,96.95715
1.5329821,98.01691
1.5357033,94.8966
1.511108,96.26547
1.5671817,101.720726
1.4357214,95.85325
1.4884117,98.221375
1.4974846,100.46976
1.4533507,99.55789
1.4382101,98.28832
1.3831451,97.97728
1.4237953,100.64886
1.3371685,97.36973
1.3801371,98.686584
1.3543983,97.19224
1.3061697,97.19334
1.3539724,97.089035
1.2776458,97.71423
1.2891462,95.54258
1.2984506,93.09937
1.2193608,95.41316
1.1582774,93.335915
1.1909499,92.517876
1.1795511,91.290634
1.1099174,90.783005
1.1518027,92.71341
1.1483014,89.1973
1.0611951,89.46251
1.1440307,92.11065
1.1203933,86.62885
1.0501575,87.37377
1.0827571,85.10587
1.1187961,87.79614
1.1555033,83.81323
1.1344255,85.29417
1.0623783,86.359055
1.0471479,84.68444
1.0659814,82.8026
1.0843732,79.81607
0.97440666,85.5278
1.0109543,80.16456
0.9895019,79.39363
1.0308367,78.51471
0.94673043,79.70088
0.8308601,79.23828
0.824955,78.54224
0.8989375,78.69053
0.8536007,75.86328
0.7859896,75.1829
0.82064956,75.95419
0.8151249,75.32706
0.72575396,72.82729
0.7782798,73.36223
0.6612676,70.06695
0.6594186,70.48226
0.69741666,73.135414
0.66391903,70.30271
0.6685608,69.99795
0.71419895,69.2562
0.6607467,67.109344
0.6831176,66.3152
0.6869086,65.52527
0.6742665,67.88268
0.6972219,64.485634
0.6707498,68.230194
0.71501523,67.423065
0.646599,65.09269
0.7088276,65.15528
0.63929343,63.833817
0.6800658,61.603283
0.6510991,63.532784
0.5660788,60.733418
0.55001134,65.1076
0.4745567,61.342304
0.48333037,64.09282
0.5036465,59.319412
0.46144015,66.46647
0.3759898,62.637123
0.42584097,62.758995
0.40729338,61.123554
0.36612108,64.05779
0.28384107,64.713394
0.36952743,62.68433
0.38493624,65.19336
0.34355843,67.23785
0.39185062,68.93115
0.3816704,69.06681
0.4513424,71.83157
0.5829267,69.04314
0.54769623,68.79339
0.6123301,71.22384
0.69330317,71.326675
0.826722,75.99499
0.8569623,76.69368
0.9157226,74.23174
1.0093566,78.435
1.0725085,77.18526
1.2562407,78.84158
1.268567,82.36951
1.4120395,82.87417
1.3228924,79.73432
1.4108555,83.158226
1.5239403,85.50556
1.6063337,88.245384
1.5236185,87.11036
1.7211832,91.24021
1.6742578,92.577675
1.7511839,91.06525
1.7336035,91.53152
1.7695512,93.21563
1.8663518,93.80181
1.8799007,97.385124
1.9239275,95.013
1.9865776,92.729805
1.8760543,96.34271
1.9039397,98.30428
1.9195771,96.99117
1.9160537,97.39172
1.85368,98.61079
1.8359988,101.742455
1.8529454,98.20334
1.8874816,98.42344
1.8170387,96.29623
1.9320463,102.93721
1.8394884,96.83706
1.8594983,100.63429
1.7828605,98.83307
1.771507,99.59044
1.7364168,97.53739
1.7325473,93.982
1.6432351,94.766815
1.7348275,95.522675
1.6593511,96.79019
1.7092571,94.10452
1.6229179,91.39295
1.5907063,92.317406
1.564502,92.352516
1.6138074,90.214455
1.618234,90.24548
1.5100769,91.13196
1.5587617,90.66953
1.4797822,89.13349
1.4910847,91.60623
1.4598339,87.69354
1.513176,86.69141
1.486192,87.57658
1.4994804,82.19006
1.4546999,86.12807
1.4513716,84.55547
1.4256327,83.05091
1.4151217,84.04321
1.388466,81.76326
1.4050695,83.834984
1.3215717,82.397095
1.3443031,80.67538
1.284327,82.11694
1.2565153,78.74481
1.2806731,80.55501
1.2962235,78.44767
1.1628097,75.88562
1.1571991,74.969864
1.063069,75.84863
1.1549276,74.47482
1.0682565,72.22789
1.0216669,74.976265
1.0039797,72.45615
0.981866,71.54596
0.9490038,70.79514
0.8894,72.85871
0.9670612,70.38048
1.0005122,69.151924
0.9356033,70.48881
0.88796854,68.08629
0.9573976,67.840706
1.0517814,67.329155
0.9134447,66.62903
0.95886457,65.710915
0.88349384,65.416374
0.922855,63.05265
0.8570139,61.57115
0.9254815,63.033077
0.8789102,62.11512
0.86059076,60.994865
0.91875505,62.15213
0.8038193,62.339474
0.74080616,62.98101
0.7492447,62.634235
0.7730675,64.92423
0.6521798,63.486103
0.74518806,61.66923
0.5984418,63.78167
0.56465304,62.028507
0.5510948,63.22178
0.6325211,62.105743
0.55258983,64.7788
0.5227042,64.35794
0.45286778,64.50817
0.5407308,66.47294
0.5376581,67.80934
0.6501678,69.08398
0.61640006,69.7645
0.67834866,70.17167
0.6561701,68.37487
0.75233734,73.09883
0.85673916,71.61827
0.8983017,74.60739
0.945701,77.06013
1.0574006,73.45084
1.1330394,75.99701
1.1649101,79.89899
1.2336015,80.26015
1.2271317,78.64794
1.3807213,80.78169
1.4493179,82.74315
1.5591779,83.21003
1.5351865,84.95969
1.5529618,83.40305
1.6646463,86.547386
1.7737955,89.43642
1.7845222,87.9393
1.6688843,89.4447
1.827724,90.624664
1.8835788,90.15645
1.8822868,94.84449
1.9507332,94.58901
1.8038652,92.35443
1.9629986,96.37565
1.8799279,95.59391
1.8606923,95.3325
1.9311028,97.876564
1.9438956,97.01951
1.8363916,98.56621
1.9335037,98.5917
1.8664862,99.73579
1.9056904,97.8831
1.944296,101.716805
1.8366115,99.11578
1.8834594,102.36834
1.7641177,99.67346
1.7387065,98.146484
1.745602,96.983635
1.7015457,98.756256
1.7265279,96.58685
1.6413765,97.18091
1.6174977,95.23144
1.6428663,97.041016
1.5978394,96.61619
1.4999592,94.09712
1.626399,94.72994
1.5286772,92.10972
1.5237955,92.601204
1.4725639,92.11901
1.5241214,91.388855
1.4506228,90.26914
1.4151086,90.51709
1.3595353,89.28857
1.3800205,88.839874
1.4596627,89.64605
1.3415922,86.40239
1.2571411,85.599045
1.3696365,85.829544
1.3652341,83.76525
1.3615104,86.49486
1.3156693,85.73976
1.2903295,85.621574
1.2444402,84.54258
1.1807498,83.581055
1.2093688,80.6109
1.1606172,79.19592
1.1810575,81.36639
1.0750258,79.267494
1.0644749,76.77086
0.97524965,76.00754
1.0500017,76.807755
1.0030432,75.79956
0.90215933,74.25255
0.8324761,73.849785
0.9090358,74.543686
0.776488,74.591255
0.8124706,74.41346
0.8689708,73.03826
0.73546505,70.73945
0.7276594,70.22938
0.73233163,73.088425
0.7265818,71.03854
0.6962727,67.799706
0.68249494,68.48604
0.73727757,65.98322
0.73485225,68.04162
0.6748197,66.17083
0.7124728,62.499138
0.7243942,66.00061
0.6166262,63.76195
0.6296598,62.5322
0.62743264,64.396
0.5570121,65.12157
0.6854068,60.78399
0.5661217,64.98563
0.50124377,64.30999
0.57028306,63.54452
0.56207216,60.28006
0.44127622,61.685253
0.41076368,60.775772
0.38390127,61.613136
0.34304288,63.407547
0.30014277,63.807796
0.23393726,60.91513
0.25902236,66.91617
0.18494245,65.04416
0.19557843,65.12099
0.23269512,63.890045
0.18266195,66.25208
0.21477154,66.67082
0.274669,67.56085
0.40462628,65.83531
0.2441407,68.12958
0.40562505,71.52068
0.49782082,71.661736
0.48384413,73.63541
0.53644323,73.25625
0.62764084,71.23694
0.78094715,76.14083
0.8150988,76.96192
0.87209105,76.249626
0.898921,79.225624
0.9692296,77.710526
1.0687275,81.91126
1.0581294,81.9448
1.0776767,85.350716
1.2051193,87.08841
1.2747563,87.527626
1.3391191,86.822914
1.254691,89.75176
1.4261668,90.90693
1.4214993,91.11327
1.4727553,92.19993
1.4379233,93.41685
1.4986702,93.6192
1.5752594,95.713646
1.4518677,95.437996
1.5464805,96.27192
1.5500933,95.44209
1.5735805,98.24526
1.480664,100.485596
1.5304883,99.750565
1.5185837,98.12883
1.5120853,100.13712
1.5313277,100.5111
1.4096601,100.52197
1.4482197,100.99686
1.4741769,97.40428
1.419485,98.88628
1.449231,102.09294
1.3313177,99.68542
1.3850924,95.15163
1.2791601,95.475426
1.263821,97.30506
1.2590975,98.63989
1.269432,96.018616
1.233809,96.474686
1.208878,98.67486
1.169345,93.06605
1.1765834,94.813225
1.1959828,92.77688
1.1202179,89.28985
1.0518188,89.10347
0.94499755,91.59278
0.981668,91.78665
1.0228382,91.473976
1.0308982,91.490105
0.9633043,89.787865
0.97370577,86.63572
0.94909126,84.479
0.865803,85.536575
0.9869566,81.40533
0.958925,86.264725
0.9175197,84.756645
0.86644936,85.42814
0.82884246,83.24358
0.78981006,80.88372
0.89267486,82.8707
0.7877197,80.87058
0.8022651,81.28055
0.7180686,79.483665
0.7027314,79.22568
0.6651743,79.20483
0.608876,77.82973
0.5775547,77.351944
0.6290351,77.8533
0.595342,77.4469
0.5183598,76.22273
0.5090776,73.82202
0.42130893,75.62098
0.4661876,73.467834
0.41545567,71.874664
0.37026623,71.93888
0.3810613,68.83471
0.29549038,70.67747
0.3970383,68.32955
0.2600434,72.01192
0.42927995,66.7218
0.36223003,67.971016
0.299217,67.62317
0.33793524,64.98408
0.3087932,61.628048
0.33029625,66.086655
0.30126384,62.52992
0.33975264,65.59181
0.32261944,65.59693
0.2842524,61.699467
0.24211437,62.341732
0.19351813,61.716015
0.19506662,58.810886
0.17729561,61.590214
0.077373676,59.914974
0.10810336,59.632565
0.10374731,62.025204
0.0656029,60.623497
-0.028702263,63.671005
0.037633818,60.41517
-0.014890753,63.47601
-0.005565108,67.925575
-0.071208246,66.46209
-0.08964142,62.22644
-0.015088472,65.69125
-0.03386167,67.62545
-0.013431075,67.42621
0.03770605,69.03296
-0.0071959705,69.49795
0.116644435,68.82677
0.21102895,67.45746
0.20259339,73.50309
0.32410344,75.02885
0.22980215,72.299194
0.4429142,74.84064
0.46703202,78.87826
0.59405035,79.74844
0.6598913,79.08771
0.78427696,80.13998
0.7821368,82.977036
0.8519753,83.47107
0.9444218,86.166626
1.0220535,85.35733
1.0468698,84.93144
1.0764563,88.05844
1.1245824,88.3236
1.1323291,90.81595
1.207781,89.75515
1.2895912,88.997375
1.2847288,89.16312
1.2957406,90.3865
1.3591048,96.61818
1.3982506,95.383484
1.3312314,93.7048
1.3541378,97.109146
1.3792175,98.82155
1.3355387,95.108795
1.4461424,97.6847
1.378607,96.16255
1.3593007,100.137955
1.3655689,100.13813
1.3885361,97.954865
1.3871152,96.92263
1.3260813,100.99645
1.2580582,100.55761
1.3190216,100.81874
1.3183334,98.48984
1.297888,97.53156
1.2303745,99.83681
1.3027688,96.24029
1.2245845,96.747116
1.1291456,95.58468
1.1376355,97.54216
1.1810015,93.65408
1.211429,97.48302
1.0710728,95.22921
1.1077002,93.17317
1.0481209,90.02361
1.1046802,95.65461
1.050355,90.827385
1.0307931,90.0552
1.0219431,91.62072
0.9699326,90.40778
0.98365873,87.5339
1.0101546,89.0925
0.9788556,88.65599
0.9418387,86.37647
0.97660005,85.60355
0.97155327,87.5078
0.89742744,81.92455
0.9141393,85.79824
0.92037237,83.59828
0.8644929,81.489
0.92086303,81.228424
0.86877024,82.24693
0.89024365,81.05769
0.91691417,78.840935
0.83506745,81.572716
0.76692814,76.83138
0.7893508,76.17472
0.67993605,77.75207
0.6522708,79.90266
0.6528565,80.299904
0.6477513,76.99061
0.6463618,74.2169
0.54826105,73.96471
0.49862874,69.897644
0.53031826,74.624306
0.4580366,69.796844
0.51402044,72.898994
0.49512812,71.97002
0.5091598,69.69464
0.49733403,69.38443
0.5044974,69.29333
0.47270387,68.05075
0.54145086,66.96742
0.4691482,64.51917
0.43763357,65.46066
0.44309354,65.84789
0.4284161,66.79351
0.504331,63.086727
0.5181421,64.44573
0.43676332,65.26472
0.46245342,63.24985
0.4578949,62.440865
0.4479429,59.806248
0.37286758,62.953594
0.44376498,63.30024
0.3492935,62.280735
0.33346483,64.54856
0.25467455,64.72784
0.24445707,63.897335
0.23010208,62.47745
0.25214744,63.275047
0.24596399,63.79098
0.23438406,64.29421
0.09915312,64.903305
0.22152203,66.89493
0.22490345,67.28712
0.21342653,65.7294
0.25328952,68.38765
0.32183096,66.72549
0.3446078,67.59627
0.38591677,71.10901
0.45687664,72.38841
0.5108168,70.8085
0.5156531,73.323975
0.6291458,77.242226
0.6936532,71.954285
0.79109937,75.96481
0.911471,76.01143
0.97906405,77.6598
1.0977168,80.128784
1.1599132,81.44377
1.1539378,84.701706
1.3415551,83.16385
1.3428373,84.71319
1.3067199,87.08962
1.3696795,86.826004
1.511409,91.027145
1.5938337,86.915794
1.5313289,90.886826
1.5910585,92.289696
1.6270171,91.07266
1.6281147,95.5017
1.6602895,95.82615
1.6359755,96.56763
1.6961021,96.0967
1.6677257,93.41647
1.6725404,99.14162
1.7764268,94.7274
1.7813661,100.16226
1.7690213,100.82211
1.7635916,97.02991
1.7390608,96.89398
1.7939059,99.65147
1.6681285,99.298134
1.7252629,98.871376
1.6740248,99.28244
1.6473873,100.18861
1.593365,97.787636
1.7077788,96.98093
1.6289659,96.06716
1.6073642,94.75381
1.5519544,99.868904
1.5899302,96.81647
1.5220584,95.605354
1.5203116,96.42552
1.4977571,95.77729
1.4774209,93.85634
1.4510218,94.58294
1.433134,91.78937
1.4034933,93.53083
1.4062539,89.00738
1.4897022,91.22448
1.4446744,89.14803
1.3479828,88.88838
1.4251387,92.08217
1.3577312,88.11205
1.307165,87.1867
1.3236033,87.083305
1.3594251,88.80086
1.3118849,84.81563
1.3549126,87.64983
1.311128,83.77214
1.3237404,84.749794
1.4358513,81.627594
1.3117385,80.96312
1.2530739,82.91395
1.2395658,80.420746
1.2577722,78.39167
1.1607068,79.44304
1.170146,75.852295
1.1025815,76.00069
0.99795336,75.07054
1.1004204,77.68187
0.9978328,73.81251
1.0195162,74.58846
0.9334369,73.8945
0.94791114,73.820335
0.9214388,73.19271
0.8571759,71.29951
0.80985045,71.35212
0.8981474,70.91224
0.92124647,70.96042
0.7960831,71.15963
0.87734014,68.8161
0.88988054,69.913666
0.8102818,69.94558
0.92916554,65.87769
0.8678679,67.45471
0.9117969,64.81804
0.8134301,64.21217
0.8681567,66.29505
0.8458623,65.82803
0.9051852,63.208916
0.8413603,63.12034
0.8257058,64.98838
0.8360978,62.752815
0.82767844,60.79764
0.74254936,63.00391
0.6854525,63.8635
0.6601686,63.2916
0.6496028,61.077896
0.61788654,62.11408
0.56347764,61.62983
0.59527487,61.660057
0.5739085,63.180946
0.52791655,64.97146
0.5877196,64.6621
0.50514066,62.325108
0.54427564,66.115265
0.5620288,65.00793
0.61832833,64.93843
0.68043005,66.62367
0.65443814,68.02767
0.72553444,69.200615
0.7123724,70.7976
0.86624706,72.14062
0.8012798,74.36487
0.89313275,77.42513
0.9770362,74.16532
1.0329386,76.26435
1.1919945,78.07731
1.2227356,79.11299
1.2665677,80.10432
1.3573036,82.09824
1.4892981,82.10206
1.5160221,82.67352
1.5754333,84.20515
1.5994242,85.87428
1.660425,87.589615
1.7125669,89.532326
1.7473294,87.85285
1.8177743,88.03834
1.8609366,90.62515
1.8746176,93.79124
1.9179163,94.23767
1.9839481,94.7004
1.956662,96.08936
1.9005054,95.644554
1.9458133,95.00476
1.9344236,96.18247
1.9425408,100.79375
1.9889702,100.60383
1.9481977,98.460884
1.9220836,98.06432
1.9455997,97.25256
1.9305935,99.84829
1.959585,96.59137
1.9272516,98.26733
1.9241557,99.18436
1.9224844,98.04854
1.84096,96.92271
1.8418725,98.772095
1.7240772,100.58656
1.782566,96.49136
1.7082362,95.940056
1.8328834,97.35723
1.6796523,94.89778
1.7242253,96.5417
1.6801968,96.002426
1.6762681,94.47728
1.6248791,95.9227
1.5997888,93.30225
1.5899408,91.049576
1.5266368,95.2545
1.5695919,92.61052
1.5533047,91.255615
1.5049243,90.01036
1.4972085,88.289185
1.465916,88.7957
1.4999397,88.52929
1.5146531,87.90523
1.4656863,85.5622
1.4091709,84.172195
1.4045155,86.92243
1.4057975,87.269196
1.4537797,85.54361
1.3993974,83.02434
1.3978529,86.22521
1.29268,80.80929
1.390896,82.13053
1.2559103,79.88581
1.2719944,78.23826
1.2283642,76.34748
1.1685772,80.53402
1.1657012,75.25621
1.1170474,79.303444
1.0742698,78.01042
0.9844995,76.79051
0.9547188,75.96487
0.93601763,75.616905
0.9851386,73.14293
1.012944,76.45541
0.96871614,72.28514
0.87926054,71.77251
0.8658416,71.73061
0.8210756,72.04291
0.8753969,67.08417
0.8201386,68.86648
0.87274873,67.62719
0.8054578,66.145935
0.8589921,71.45252
0.73394847,64.46637
0.854205,69.472755
0.84644467,64.50013
0.779782,66.568794
0.7241654,66.11768
0.7886934,65.27577
0.74557555,64.363945
0.72487426,61.014935
0.7213313,63.079525
0.67015177,63.809647
0.5923646,63.3249
0.5864537,63.04057
0.6381565,61.240887
0.5656544,63.030876
0.5008233,60.763214
0.4517901,64.09936
0.45744002,65.589005
0.45827723,62.363724
0.42574704,63.809677
0.42105225,65.68815
0.36064485,63.201347
0.3196186,66.97437
0.34808734,65.799644
0.41478562,65.06679
0.41041598,66.96815
0.48280653,70.387764
0.5158583,70.083
0.5296561,70.67345
0.5456601,70.47248
0.6346896,75.927536
0.73300177,71.713554
0.84069675,81.7435
0.96398634,76.4827
0.9352498,76.4115
1.0425425,78.04107
1.139098,83.00121
1.2775667,80.920135
1.2266245,81.40963
1.2653342,85.938324
1.4016212,84.683525
1.4067183,87.28249
1.4990183,88.33156
1.4996369,90.08
1.4794309,87.79931
1.5519707,91.17969
1.6454418,91.66919
1.6583761,92.55977
1.6511528,94.396034
1.7600796,95.68972
1.6403432,92.64812
1.7141407,98.91977
1.690318,96.54944
1.6859986,96.54627
1.6895088,98.42294
1.6810565,97.40258
1.6306916,97.41605
1.6737982,97.18621
1.6400366,100.55109
1.6491836,100.55556
1.6045738,99.29617
1.6035678,98.22052
1.5554856,100.15971
1.6520647,101.06816
1.5534873,97.91916
1.5337806,97.832756
1.5020099,97.33423
1.4686639,101.452385
1.416002,94.78791
1.3616569,98.45436
1.3905672,96.72706
1.3726444,92.237915
1.2982529,94.92302
1.315751,93.078125
1.3038775,95.42429
1.3368613,90.97932
1.2697221,90.66142
1.2153609,93.117256
1.1164252,93.17596
1.1756424,88.6329
1.1958578,90.65312
1.1455809,89.95555
1.1140155,87.01477
1.1422087,88.08196
1.0639296,86.7909
1.1036178,87.09479
1.0479888,82.589
1.0584959,83.8771
1.0086968,83.43044
1.0219306,84.88692
1.0358418,81.561554
0.97829884,82.96936
0.9669887,83.0366
0.8919045,78.72691
0.9601116,79.428986
0.8569338,79.31814
0.8003938,76.6958
0.75484157,77.473305
0.6945743,77.33655
0.7863663,77.486336
0.6694878,75.42121
0.63270575,73.10365
0.6708471,73.90515
0.6337015,74.36886
0.54014796,74.133286
0.5760174,73.64586
0.49088517,73.466
0.41685382,72.881386
0.45415434,72.9582
0.47037387,69.911255
0.46659404,70.333244
0.4398755,69.17942
0.44109386,67.73272
0.43422446,67.41603
0.41074666,66.9336
0.5045616,63.757698
0.38747066,67.54683
0.45259973,65.59674
0.43943465,64.03997
0.35841313,62.740673
0.3702815,63.97738
0.3506965,63.598305
0.3017381,63.779503
0.3099608,59.579727
0.25806075,63.119637
0.32029513,60.46073
0.21466023,62.37203
0.1583678,64.351006
0.12310677,58.552162
0.11399456,63.86185
0.05221813,58.894333
0.062075157,61.323437
-0.01591987,62.640133
-0.06688668,63.54389
0.048445966,64.584366
0.05650682,64.4678
-0.07137519,66.060455
0.049608864,66.01142
-0.0016816398,65.25049
0.13493684,67.25349
0.12906198,67.75966
0.1930006,70.88441
0.20076308,69.69036
0.27955604,71.49419
0.3233619,76.25549
0.4406158,72.222
0.46929118,75.9833
0.55790454,78.68935
0.6540449,78.91047
0.7296299,78.22787
0.83453524,82.752014
0.865696,84.23204
0.8774204,81.25544
0.96792525,82.45285
0.982072,84.413666
1.1101266,87.23829
1.1931167,89.21921
1.1267127,87.53008
1.1511616,89.48884
1.2402799,90.503296
1.286131,93.31878
1.3261383,94.44591
1.3429267,96.13024
1.3583986,95.0636
1.3540622,94.79822
1.3465614,98.40507
1.3482302,98.10402
1.3607641,98.495636
1.4288353,97.02635
1.3078718,101.13413
1.403298,98.77262
1.3756101,97.92785
1.4133074,99.5755
1.3293114,100.552376
1.3198198,98.48834
1.3846065,96.87926
1.2839397,96.50363
1.2505203,97.50747
1.2662493,97.067795
1.2501781,98.44561
1.2298403,101.12949
1.0952014,98.73413
1.1705284,96.706566
1.220887,96.289795
1.1307776,92.8034
1.0682055,94.60585
1.1045994,92.65948
0.9941791,95.84022
1.054926,93.22524
0.9853898,95.57601
1.0049996,88.84594
0.9460182,92.029
0.95590425,90.597755
0.8779259,89.610054
0.9609163,90.01154
0.95218146,90.440834
0.91383964,88.73704
0.8466365,86.27777
0.94490176,87.5028
0.8790983,83.652145
0.9052353,85.702126
0.93745404,85.19281
0.82691884,84.75728
0.819974,84.35108
0.8683824,79.40452
0.7250123,84.92402
0.6996268,81.43195
0.74990064,76.623
0.6626864,80.27935
0.6450154,78.02547
0.66254514,80.26302
0.6487783,78.84823
0.5874938,78.30343
0.5389085,74.38491
0.55517656,73.44461
0.4529383,76.23931
0.4660202,74.349785
0.42210072,71.06375
0.40697348,72.39622
0.43057433,73.781364
0.4019403,74.41646
0.4588734,72.93202
0.34062907,70.98106
0.38075128,68.695625
0.37768984,66.64367
0.38194337,66.620316
0.4132748,63.776867
0.3136343,66.1939
0.29632974,66.75259
0.43778944,66.12046
0.35959285,64.27578
0.4019384,65.685524
0.34016684,64.320076
0.34690824,61.864414
0.29725876,63.915016
0.23446594,63.38007
0.34732202,61.704693
0.23176841,62.794
0.169065,62.79164
0.14311409,61.951828
0.16172963,60.40182
0.16021848,61.981594
0.13689902,62.52917
0.08325125,63.176743
0.012814868,62.862137
0.06591174,64.723434
-0.008595115,66.51735
-0.036678664,65.676056
-0.010503239,65.82517
0.11068866,67.44609
0.043825224,70.06065
0.13987504,67.82457
0.07820162,66.33754
0.20358069,70.19413
0.25110513,67.08988
0.31937686,69.0276
0.3340254,71.13374
0.45856726,73.09949
0.45341116,71.89512
0.53357476,76.37398
0.6449553,72.83218
0.69203603,75.71413
0.82758856,78.16976
0.81617373,79.23087
0.860123,82.02415
1.0598481,80.26373
1.0118078,86.61385
1.09666,84.51619
1.2322227,85.031204
1.2548256,86.0545
1.2856311,86.32219
1.374514,88.62232
1.3313184,91.799835
1.4474897,94.118126
1.4033862,93.99524
1.396835,94.60334
1.4679246,92.18207
1.5684779,92.55676
1.4718136,96.85932
1.574252,95.645645
1.6002611,97.52462
1.5564216,98.26289
1.6048596,95.91826
1.5748681,98.287155
1.5314164,96.002464
1.5270913,99.11791
1.5261741,97.29122
1.4859537,100.879845
1.6316767,98.8078
1.5756088,97.08731
1.5092946,98.876
1.4604748,97.754814
1.4775256,98.07416
1.4614165,97.12194
1.4149828,99.592125
1.4583069,96.83837
1.3633958,98.91555
1.4072471,95.6472
1.3691547,96.61079
1.2502934,96.51615
1.3073894,93.435455
1.2581395,93.82764
1.2807249,92.049286
1.3069484,91.84368
1.2515074,92.05112
1.1994556,88.083275
1.1831597,91.53066
1.2032062,86.20781
1.2401408,88.42164
1.190107,90.03172
1.2376747,88.111755
1.1242609,86.90733
1.1697645,85.53896
1.2433783,86.77447
1.1846361,85.504906
1.1131533,84.866196
1.1952221,86.63604
1.2479438,82.588425
1.1683346,85.6039
1.155257,80.60105
1.1091889,82.56889
1.072486,79.96703
1.0278912,78.32528
1.0155673,80.86006
1.0065104,76.53051
0.9644004,78.08827
0.8964982,75.525856
0.8941307,74.25209
0.85059696,75.81736
0.80525756,74.3828
0.79522663,75.51509
0.7168741,74.423225
0.85419816,74.02642
0.7393093,72.169815
0.70458996,72.328865
0.7119044,71.0004
0.6875609,68.50278
0.75597274,69.38082
0.7017372,68.87902
0.77727884,68.6418
0.6853801,64.65544
0.6970489,66.712555
0.6822262,66.88132
0.7135736,63.53279
0.7815392,64.08399
0.7159895,64.69265
0.75033194,66.52559
0.72557724,65.44052
0.6907018,63.610428
0.6696575,62.511875
0.70204586,60.967068
0.6578904,61.914974
0.65233064,60.398247
0.53165096,60.272243
0.491813,65.31076
0.5504496,62.793465
0.5269234,59.731224
0.4125206,63.37828
0.4888301,65.69398
0.46479812,61.634506
0.3687141,61.059895
0.33842307,62.057537
0.36374876,64.739265
0.44298965,68.42942
0.43386847,65.252304
0.46906415,67.185234
0.5064,69.701164
0.613577,70.492325
0.56673634,71.7388
0.6480339,70.37567
0.72634697,73.168526
0.78334427,70.34708
0.8143391,73.93035
0.9390986,75.62046
1.0307366,74.63106
1.0783582,75.65791
1.1338693,79.0941
1.2702117,83.76831
1.4027573,82.37482
1.4045557,85.04293
1.534722,82.59742
1.5824842,85.10855
1.6004572,87.99053
1.671961,88.21241
1.6309379,91.1045
1.6706935,89.500755
1.7251561,90.4701
1.7949371,93.08608
1.87964,93.99128
1.9330704,92.76141
1.923171,93.621155
1.8381587,95.59612
1.958783,97.0395
1.8749396,95.43655
1.9204439,97.07753
1.9478401,100.49912
1.9274868,97.83949
1.94974,97.976715
1.935445,97.731766
1.9304878,98.53321
1.8980205,95.9786
1.8987238,100.67989
1.9295886,99.66467
1.9749302,102.767555
1.9224546,99.40808
1.8666884,99.37576
1.8679092,98.49975
1.7736568,96.907616
1.7073026,100.007324
1.7704693,98.95561
1.8093622,96.3453
1.657512,94.64689
1.7131779,97.39229
1.7282678,94.16061
1.6356134,95.62946
1.5730085,95.239746
1.5291752,93.884125
1.6325475,91.675026
1.5652486,90.559265
1.6440548,88.745834
1.4739292,88.907455
1.5069346,87.26059
1.4898201,86.536415
1.5125765,87.24781
1.5223567,84.98945
1.5104036,85.72361
1.4923832,86.63572
1.4264615,83.74939
1.5385308,87.04082
1.4140615,85.23056
1.4926455,82.18168
1.4323733,83.11794
1.3972167,82.18127
1.3451108,76.66029
1.3119167,83.7773
1.2549583,80.24661
1.2668521,77.50187
1.3142622,77.918465
1.2240787,79.66338
1.1427003,76.92116
1.1602832,76.1916
1.173619,76.770195
1.0795498,76.44701
1.0772479,72.54637
1.0185851,71.34315
1.0469612,74.85005
0.9323604,72.648476
1.0234575,72.1322
0.9456469,72.334984
0.91646266,68.20869
0.94663984,70.027985
0.9640134,70.996056
0.9921735,68.79054
0.9214469,65.4633
0.9171272,68.085686
0.9476185,65.8647
0.8750227,62.645092
0.862755,64.30422
0.92714083,61.61942
0.89029485,65.27497
0.87033796,62.373688
0.9092963,61.41163
0.8713426,64.629425
0.7865153,61.379658
0.7136508,62.95036
0.7097909,63.156925
0.7569807,61.89272
0.7297204,60.780598
0.7118513,61.644745
0.61555517,63.776962
0.6131214,60.461803
0.63668114,63.847916
0.52232504,60.89129
0.47708958,64.951675
0.49605438,63.041668
0.4963244,61.588905
0.5031291,62.431763
0.517591,66.09481
0.45215103,66.08377
0.49836433,66.77436
0.6126239,69.62595
0.68818927,68.41156
0.72251356,71.49119
0.7431331,70.08659
0.8403716,73.57717
0.92659444,72.551765
0.8929863,73.69759
0.9918094,77.38533
1.0696038,76.791275
1.139935,77.32225
1.2064301,81.88752
1.3004826,81.06394
1.3698438,83.001114
1.4888996,85.664185
1.5312941,85.69196
1.5972501,86.84577
1.5092002,89.17509
1.5562346,88.52198
1.7005752,86.60017
1.6630577,89.78994
1.7444183,89.20379
1.8065779,90.9768
1.7993175,92.215935
1.816937,91.967926
1.7972926,94.878685
1.7875187,96.60277
1.8312488,96.944214
1.8448147,98.33863
1.8491101,97.41743
1.8752227,97.26133
1.7812263,98.75389
1.8135737,100.266685
1.822949,100.10997
1.841103,101.02315
1.7716544,97.72552
1.8307247,101.80595
1.7608831,97.99599
1.745281,99.41914
1.7153431,99.27841
1.6397133,96.5775
1.6894335,96.99312
1.7242854,97.19243
1.5807543,96.91194
1.6031835,97.36
1.5218046,97.87903
1.5044794,98.29877
1.4452459,93.209175
1.450886,93.15913
1.4886159,95.43909
1.4512634,92.62567
1.4093485,92.185
1.3294226,92.36719
1.3617355,93.79683
1.3869398,93.962585
1.3928859,90.49338
1.277667,92.3441
1.2651464,89.36583
1.29535,86.30155
1.3303512,87.296005
1.2434634,89.30436
1.1670183,86.26013
1.2054455,83.123825
1.2288744,86.10213
1.2206987,88.805595
1.0972295,81.742714
1.1898452,81.53309
1.0843068,81.59249
1.0982572,81.3746
1.0404258,79.80601
1.0425899,81.35816
0.9720808,79.77097
0.95649654,75.73996
0.94937307,77.89459
0.87040764,77.466225
0.9054559,77.74264
0.7873949,76.9505
0.8605027,74.744255
0.7110998,78.0821
0.76479024,73.87073
0.6656284,73.070526
0.63417804,75.41167
0.5967706,68.35261
0.653931,69.70851
0.538586,69.27454
0.66924524,66.78085
0.64212984,67.48678
0.6066274,66.81232
0.5984755,72.67813
0.62849605,65.63096
0.5477452,65.60377
0.5146099,63.046806
0.5418504,64.67604
0.4931679,63.34459
0.5175625,64.56985
0.41924676,62.685352
0.44826865,62.130375
0.55887973,64.3725
0.44629142,60.02908
0.41768777,65.90536
0.3762748,61.869453
0.3403191,63.79844
0.3316232,65.88624
0.30433238,63.045986
0.18692268,64.50104
0.31749183,63.57437
0.16314788,66.07569
0.122143134,66.625916
0.12974821,62.428078
0.10481786,65.873474
0.16362654,64.76995
0.14919566,65.30529
0.18985486,64.59384
0.15763535,70.972916
0.13314375,67.32667
0.23264207,69.41074
0.25128385,70.95146
0.2675379,71.60367
0.39666027,70.48421
0.44699436,75.12541
0.46769586,74.060844
0.5410961,77.17247
0.63920695,74.66184
0.7429324,76.99361
0.81180805,80.860115
0.9048093,81.93827
0.9323009,81.266365
1.0207163,83.20436
1.0034573,82.276764
1.1491923,86.259895
1.2333374,88.364555
1.1648829,86.18982
1.2145542,90.579346
1.2553016,92.306
1.3140899,90.81594
1.3343005,87.803856
1.3990352,92.17947
1.3670703,93.61819
1.3955154,96.80381
1.4511898,94.31407
1.4349309,95.83687
1.3940177,97.313095
1.5078412,95.03369
1.4090517,98.16218
1.4379627,95.319496
1.4944097,97.547554
1.4178473,96.632904
1.4244709,98.32866
1.418435,100.60163
1.3874505,99.69078
1.4085784,99.59493
1.4109267,99.30519
1.2955362,97.221306
1.29273,97.53257
1.3134427,99.38244
1.1870891,96.01558
1.2473953,95.11461
1.2063826,97.53572
1.248886,95.4686
1.1716781,96.97023
1.173697,96.32416
1.0746604,94.61313
1.1024934,93.38127
1.1183805,91.610344
1.0734894,91.21502
0.97191155,93.88751
0.9757991,93.88351
1.0193458,90.490875
1.0001129,91.328094
0.8817933,88.0369
0.9127306,86.39797
0.9558265,88.35927
0.9299825,90.598274
0.9336879,87.44764
0.9837036,85.56986
0.8761916,84.46841
0.79303175,86.60994
0.84309983,82.605446
0.8546778,83.29857
0.87543446,82.7385
0.8534619,82.10014
0.73291296,83.89295
0.7568354,78.98158
0.7314637,79.722206
0.66765785,83.62611
0.6723319,80.61615
0.6694447,77.00188
0.5785844,74.2867
0.6248291,76.787186
0.45687366,76.24163
0.5580304,77.859344
0.5306786,74.81141
0.4884153,74.804375
0.3429796,72.438416
0.4797898,73.41904
0.41667747,71.32575
0.37874758,71.94403
0.3715134,71.44959
0.2947007,70.26181
0.36165652,68.6738
0.34726128,69.244156
0.3822538,70.6534
0.34251466,68.9
0.39714697,66.287834
0.3143719,62.75038
0.37291574,61.918633
0.34844297,67.34692
0.2260278,65.56454
0.22665061,64.9074
0.291409,63.37989
0.15795358,64.043205
0.23184776,60.47257
0.25357032,61.76173
0.29034182,61.942413
0.16889986,61.813465
0.16521834,60.766407
0.1423096,63.494118
0.17745669,63.605873
0.050464995,61.889122
-0.011623617,63.816677
0.036955893,62.011185
-0.0005580546,61.566452
-0.030043721,64.24139
-0.04973047,64.70526
0.007799869,64.50842
-0.008441861,65.67282
0.0043449067,69.28516
0.04704498,70.81897
0.047519755,67.39265
0.14395042,65.4041
0.12769245,73.30381
0.17813294,67.08983
0.2237235,75.059326
0.13591379,74.221565
0.447325,72.86936
0.5192187,76.31664
0.46590492,76.57693
0.6000603,78.89671
0.7468912,79.16352
0.77555877,80.36287
0.8899033,81.47472
0.8801616,81.39317
0.94703925,83.6711
1.0967882,86.48809
1.0722623,86.633514
1.1352373,88.25988
1.1283474,87.69564
1.2248006,90.58482
1.2588544,88.364815
1.3011551,91.137474
1.3027687,93.790855
1.366981,92.89454
1.4640361,96.21199
1.4574965,98.53894
1.4711033,94.52484
1.4643089,95.82138
1.4040186,97.50334
1.4384166,97.39271
1.467446,98.132355
1.3997524,96.33396
1.3779134,99.41946
1.4831781,99.17515
1.3588235,101.22107
1.4680015,96.96785
1.3065909,96.44066
1.3891175,100.598564
1.3619872,100.90023
1.3261682,96.28556
1.3519528,95.41787
1.3255724,96.17983
1.2624266,93.579666
1.2473327,97.961075
1.2855716,94.48126
1.1907744,96.99736
1.186462,93.378975
1.1438531,92.7976
1.1489944,95.14613
1.2292916,93.93255
1.0802869,90.983826
1.1508079,95.80839
1.1076763,91.01994
1.0995047,91.47103
1.0350935,90.362206
1.0778002,91.69619
1.0440302,88.66627
1.016703,87.89399
0.98845226,84.60459
1.0006882,87.152176
1.0564841,88.2061
0.94550115,84.30476
1.0193859,84.31239
1.0919579,83.31192
0.9435816,81.350624
1.0278882,81.947975
0.94329673,79.11665
0.94406325,82.20687
0.93367475,80.35347
0.87216705,79.15316
0.95069134,76.97225
0.8497495,80.9481
0.8138638,79.026955
0.85854745,79.26407
0.717237,75.882645
0.7295883,71.68278
0.7331004,76.93439
0.69918424,70.504105
0.66108984,76.03386
0.6330849,72.53015
0.5857355,74.14986
0.5853444,70.19527
0.59834796,71.01165
0.59465337,67.74302
0.54357654,67.144
0.6072105,69.618904
0.568131,72.16703
0.58474725,67.23099
0.54752314,66.65974
0.5151363,63.164207
0.60209984,65.97743
0.63289666,64.238174
0.591599,66.67219
0.510557,64.70465
0.5474806,63.2389
0.5692969,62.08305
0.5146667,63.28941
0.49319842,62.418648
0.57417697,63.620422
0.54943657,62.447083
0.403349,63.292828
0.42626488,60.860752
0.3611,66.47912
0.34428865,61.75461
0.3692822,61.586536
0.31597242,65.70592
0.29892957,64.89906
0.3757453,65.98226
0.2651026,64.226715
0.22298189,63.283394
0.3065497,67.05898
0.30277535,62.69844
0.30945575,68.04538
0.3326233,66.98736
0.37524307,69.672905
0.4160081,72.485306
0.48369354,72.3445
0.5049645,71.258736
0.6152257,71.138306
0.7086813,74.88832
0.7888884,72.39632
0.8599262,74.673035
0.9823178,78.81376
1.1129302,78.500435
1.0108882,77.96928
1.139782,78.26378
1.2402046,82.418304
1.2470038,82.88896
1.3971465,86.062515
1.4410518,84.783936
1.4596369,85.98272
1.5881126,87.03523
1.6433433,91.46864
1.6460375,89.46724
1.5647765,93.23064
1.6614791,92.617096
1.7133151,93.26597
1.7081108,92.403725
1.7666249,95.47407
1.7970415,96.165054
1.77922,93.47185
1.7904061,97.869865
1.863474,95.364525
1.8002031,96.16865
1.7725282,100.17069
1.7791806,99.253
1.812186,96.81392
1.8158035,98.66425
1.804392,101.05535
1.7933497,100.36718
1.7581024,99.438225
1.6415949,96.94859
1.6785718,98.238335
1.7929864,100.24653
1.7659664,99.03065
1.7439009,96.069534
1.694352,97.24441
1.5719066,99.86466
1.6583154,96.03297
1.5769917,93.67456
1.6443478,93.38918
1.498015,92.440956
1.5664774,92.20704
1.535389,91.04393
1.4711657,93.92521
1.5168647,92.39961
1.4443365,88.34043
1.4697444,89.51802
1.4475759,87.699646
1.3880323,88.627014
1.4268422,88.06778
1.4005095,86.54665
1.4120226,87.51549
1.439869,85.856735
1.4530311,84.997795
1.3700737,86.51722
1.3788273,83.69874
1.4070597,85.420425
1.3677431,83.52411
1.3392664,81.77756
1.2560893,82.19008
1.3820353,79.61203
1.3066165,80.33623
1.2853254,77.13149
1.1779397,79.40107
1.1763742,80.406555
1.1621959,76.335526
1.0856413,77.69238
1.0449604,75.90651
1.042351,77.76178
1.0651131,73.6096
1.0488973,75.00697
1.0082403,75.060974
0.9597869,73.11654
0.95375264,72.14267
0.94884163,70.57706
0.96969956,72.61811
0.8962016,69.253784
0.93328846,71.4078
0.95453036,66.94394
0.97430325,67.16419
0.8975365,70.92035
0.9427187,66.46207
0.93818593,63.464355
0.9411143,65.66625
0.8415403,64.66119
0.9307338,65.13893
0.8700097,63.730446
0.90784913,64.00158
0.8774694,66.21579
0.8682092,63.481373
0.80308074,63.795452
0.7636623,63.749405
0.8408392,60.52096
0.72217405,62.06752
0.622091,59.380463
0.65309817,59.506542
0.5624828,61.59811
0.64014536,63.79046
0.5455029,66.4739
0.58938265,62.817204
0.5423174,62.169846
0.52346694,62.705418
0.5961672,64.76637
0.4946721,62.65095
0.5380437,65.93036
0.5770468,66.520096
0.61764485,68.79615
0.6907562,70.26158
0.76641107,69.54065
0.7316237,69.66409
0.7959991,69.26451
0.8738582,71.733
0.88571906,76.5867
0.9799544,75.28842
1.1699153,75.63764
1.1413785,77.636505
1.2153158,76.32745
1.3366575,80.72024
1.3893186,80.29403
1.407368,85.05773
1.580827,82.80773
1.6286395,87.341576
1.6477501,86.435646
1.6884611,89.39137
1.735889,89.81264
1.7763913,88.87608
1.8068211,89.35811
1.852674,93.44119
1.8697606,95.05197
1.859261,94.094444
1.9256777,95.181175
1.8650753,94.86123
1.9859555,98.73686
1.9555488,97.65257
1.9063467,96.210915
1.9561654,96.8172
1.9625014,97.90347
1.9102596,101.45168
1.9826933,97.567924
1.9702562,100.64467
1.8959159,99.697014
1.879389,99.83637
1.9103917,99.162025
1.8611921,101.57107
1.8282362,98.22847
1.7837064,97.24365
1.7981545,97.72185
1.835492,97.19261
1.7687333,98.6483
1.7136548,97.30678
1.7096772,97.427086
1.7180744,98.45377
1.6199093,95.955055
1.6326864,94.12714
1.5565202,94.45946
1.5950388,94.52543
1.5166309,93.17843
