ppg,abp
0.9449418,93.687454
1.1405689,102.42163
1.2351588,99.804184
1.3533255,107.970436
1.3458872,110.16789
1.4929268,120.91027
1.5021548,122.791534
1.4616292,125.077034
1.6181167,131.57568
1.7212551,134.56577
1.6241338,138.68413
1.5819993,145.19923
1.6941605,142.57413
1.6774096,146.7601
1.7495822,142.56273
1.7510505,147.31744
1.6518857,154.95714
1.717239,151.28271
1.5866107,148.53986
1.7324834,147.79997
1.6758173,147.77477
1.6571107,146.74657
1.5980438,143.85753
1.5789971,147.47403
1.5481511,141.21304
1.5506,141.03043
1.5182351,139.05907
1.4960462,137.68524
1.4278136,137.69843
1.3744186,131.55338
1.3689442,131.98445
1.4882288,124.98077
1.2745005,125.395195
1.3895602,119.60912
1.2925675,121.041016
1.3679906,109.48675
1.3363632,110.22814
1.2720683,110.12894
1.3559234,105.54995
1.2886904,105.22557
1.2597477,101.616745
1.2898043,101.49886
1.2788376,94.343765
1.130844,94.26068
1.107115,90.18541
1.0506438,90.856674
1.0837704,83.26778
1.0335715,80.22054
1.0400416,77.96821
0.96793085,75.562065
0.8771497,72.20488
0.8611024,66.41871
0.80090034,65.29342
0.82624316,67.79073
0.94266933,62.43191
0.88990706,57.002407
0.9275138,56.52553
0.78358716,50.663055
0.7454203,51.145172
0.882609,48.03246
0.8746036,51.304913
0.775657,45.646942
0.9099644,41.12683
0.83813596,40.276897
0.78128356,40.0
0.7667068,40.0
0.6897624,40.0
0.6311984,40.0
0.8007079,40.0
0.52899677,40.0
0.5897078,42.317905
0.55851847,40.0
0.60241127,43.255093
0.50438625,43.532772
0.45955414,47.01034
0.4160352,48.82668
0.435004,49.857815
0.53529197,55.29807
0.62990695,58.522785
0.7822511,62.610153
0.84770334,66.92163
0.9407394,71.05928
0.9096758,82.47258
1.1023648,80.733505
1.2002199,83.91797
1.2852981,96.087814
1.3978368,99.42075
1.5229785,102.24312
1.5304391,105.85077
1.6696774,109.28785
1.7217041,116.15271
1.760998,120.78755
1.785612,123.02133
1.86453,129.39722
1.8461711,129.09795
1.9257615,134.3746
1.8571918,137.5568
2.037043,140.3668
1.9481014,141.70554
1.8969613,142.34521
1.9293034,147.37213
2.0335035,150.84967
1.8453113,149.01778
1.9233708,150.63727
1.9020898,150.857
1.8721753,146.7356
1.8448942,148.79694
1.78365,145.14088
1.7962922,143.73691
1.7112278,144.09251
1.7811096,142.10461
1.739601,142.3542
1.6284572,135.87363
1.6619452,137.00272
1.6301363,130.9459
1.5616131,127.682846
1.6506768,125.85665
1.5208979,122.6279
1.4868518,120.299706
1.4899089,122.10127
1.5499672,116.2271
1.4420346,112.22421
1.4472876,106.941574
1.458387,108.62777
1.4735599,106.125725
1.4804264,101.27454
1.4782028,102.71687
1.3539455,93.49384
1.362478,89.05847
1.4144657,89.30682
1.2534802,87.17901
1.2112472,83.292534
1.1959026,83.889305
1.1069988,80.73667
1.0536631,78.9018
1.1076151,70.475746
0.92242044,71.64608
0.91481405,60.920876
0.925293,66.711914
0.95355123,61.30342
0.9036836,53.07086
0.9343729,56.12133
0.919932,53.607056
0.9366203,52.47336
0.8828753,46.198837
0.922458,46.17191
0.96798617,42.33273
0.95581007,43.735107
0.7917523,40.0
0.79795843,42.304173
0.735453,40.0
0.75016254,40.0
0.7790336,40.0
0.68327755,40.0
0.65306294,40.0
0.5645049,40.0
0.511712,40.80519
0.5613053,40.0
0.542204,42.59488
0.61291504,43.895294
0.5927587,47.99454
0.648608,49.917614
0.63219875,52.611305
0.64633954,55.778206
0.6614067,57.754032
0.7482595,63.193176
0.8612381,74.49008
1.0225167,73.61651
1.0461353,78.82524
1.1717354,84.58313
1.2296605,88.15566
1.4179335,96.53643
1.4698122,99.55567
1.5288583,105.42338
1.5177629,112.23354
1.7798743,120.5425
1.6963743,121.12292
1.733724,122.14664
1.803298,126.52975
1.8637224,134.68039
1.7794086,133.00296
1.8352629,138.54681
1.8445953,142.4298
1.9191931,140.9073
1.9014324,147.14842
1.8791122,151.54922
1.9055101,147.81935
1.9367809,149.1196
1.7821608,153.30247
1.7662655,148.07387
1.7929252,149.31668
1.7946981,147.33746
1.6667805,148.05788
1.7208668,147.15485
1.7201601,143.12697
1.7175589,140.6594
1.643169,138.38081
1.5277722,136.60063
1.4696715,134.83156
1.5090724,131.46973
1.4080544,130.85052
1.3816195,121.85483
1.4745346,124.72397
1.4109683,119.62466
1.3835316,115.0017
1.389168,114.46089
1.4442037,112.08216
1.3618599,107.44068
1.3956699,105.166176
1.359963,107.70012
1.3161888,100.1009
1.3474205,100.431984
1.2042944,94.53239
1.2474837,95.97876
1.087893,91.413475
1.154293,85.23712
1.0469909,83.89135
1.0583856,80.15709
0.9373639,76.87442
1.0063686,76.95662
0.8924203,71.49773
0.7727853,71.1245
0.76056767,68.78779
0.7123207,62.992493
0.81974256,62.050697
0.7992131,57.86676
0.6769204,58.664993
0.80265194,54.586136
0.70026237,47.782837
0.7218243,48.50692
0.6372086,47.07983
0.72260064,44.423634
0.7210988,44.180645
0.6072319,41.864437
0.63832694,40.0
0.567677,41.992706
0.51778597,40.0
0.4977619,40.0
0.4165099,40.0
0.4163647,40.0
0.336844,40.0
0.36774042,40.0
0.31525147,40.461124
0.2553093,40.124958
0.24186884,42.264236
0.27621517,45.38272
0.24888372,46.64278
0.33657306,53.344498
0.38549963,58.04418
0.428624,61.42489
0.5964998,66.81667
0.60352767,70.70828
0.69848883,76.83024
0.71327555,80.22681
0.93412054,86.784584
0.9186376,89.99938
1.1241522,95.89011
1.1364766,100.10923
1.2352701,105.177376
1.271225,111.07838
1.3356539,112.95468
1.4430274,115.58067
1.4180012,122.95338
1.4844187,128.54529
1.5152026,131.98145
1.6136034,133.89258
1.6230136,137.57474
1.6459899,140.78674
1.5418653,142.7751
1.6276114,150.33788
1.6455286,149.51677
1.6270885,151.84732
1.6448777,147.88043
1.5680209,150.16006
1.5167856,148.78017
1.476796,148.37286
1.5272883,149.58481
1.4091814,152.93512
1.3480746,145.69572
1.3556453,148.1098
1.326135,136.0981
1.3270544,141.8674
1.3110106,136.5618
1.2612293,134.98047
1.2060994,134.16817
1.1773379,130.2977
1.1359075,128.04034
1.1116802,123.471596
1.0815014,123.2524
1.1424485,121.602
1.0499041,114.782974
1.0580881,116.00547
0.99261725,110.02808
0.99878615,100.67645
1.0201787,102.404816
0.9964776,100.52838
1.0422095,97.94558
0.9411033,96.37007
0.88865787,97.07595
0.9185346,87.72533
0.8445287,90.70546
0.8085464,88.62492
0.80441916,83.028015
0.6891097,79.68398
0.6806245,74.80966
0.66515,77.049126
0.48601443,71.15156
0.58749396,69.40794
0.4409109,65.472084
0.4841637,59.86284
0.37486434,61.331425
0.4723823,54.11822
0.4382223,50.67484
0.4471888,50.429268
0.42268246,48.661983
0.3867883,43.628567
0.44441053,47.70262
0.43530378,47.516132
0.38645086,43.42779
0.2754431,40.0
0.34857705,40.0
0.27202463,40.0
0.2069126,40.98674
0.14489695,40.0
0.14792357,40.0
0.10985506,40.0
0.1539472,40.0
0.04618492,41.24905
-0.021888142,40.0
-0.038853787,44.54939
-0.01184295,44.730038
0.04607485,51.011642
-0.009843569,51.679863
0.09631112,55.979893
0.26222247,60.859444
0.17893182,67.69282
0.3601784,69.47377
0.37007776,70.46282
0.4747793,76.1785
0.5851343,82.783806
0.62253666,89.746254
0.7872514,94.50638
0.9343607,97.694435
0.9590952,102.26784
1.0707034,110.03228
1.16064,115.96627
1.2044904,116.591774
1.1787554,122.142075
1.2432921,125.86763
1.270106,133.97089
1.3496354,133.2461
1.2387478,137.36726
1.3215418,142.8541
1.3392609,141.51167
1.3777484,144.04807
1.3701953,144.4439
1.3718269,146.74619
1.3387047,148.46513
1.3659295,153.04141
1.3183438,145.75597
1.2966447,151.38367
1.2506992,144.8242
1.2460333,150.83975
1.2344495,145.7449
1.2235005,144.39864
1.108994,147.20807
1.1529344,140.78671
1.0571046,139.97487
1.017807,134.44896
0.99826187,131.61487
0.9828904,134.17313
0.9764017,127.35958
0.9068839,121.388565
0.9746035,120.27901
0.94933355,120.96156
0.92827415,118.43999
0.8996367,112.34005
0.8843832,114.198456
1.0014387,110.23095
0.8432135,106.41036
0.89273477,104.08932
0.8141264,99.57804
0.7490309,97.113976
0.7270001,94.54755
0.74235725,92.87309
0.7008551,86.57901
0.6867935,90.07597
0.46743166,82.98821
0.47190988,80.47053
0.5504836,77.68135
0.46167713,76.154274
0.43379334,71.87199
0.38188553,68.80106
0.39968824,66.93194
0.37625217,61.15663
0.34121594,62.789154
0.36859506,55.00637
0.32641956,52.384136
0.38753238,51.245903
0.169368,53.310253
0.32272792,47.325836
0.4186796,49.64827
0.3691038,44.937004
0.31306407,41.36709
0.2763978,40.0
0.30491483,40.0
0.23513317,40.0
0.13156672,40.0
0.09882526,40.0
0.15730122,40.0
0.098143555,40.0
0.041892514,40.791824
0.038019393,40.0
0.0127389915,42.877617
-0.08554875,40.197662
0.0063670995,42.848827
-0.03632989,50.67766
0.03655585,54.633255
0.018414566,55.698032
0.11217576,60.37727
0.25483677,62.634323
0.23244527,67.11651
0.45440415,72.48068
0.5101305,75.72788
0.5586799,84.29465
0.6848072,89.18967
0.7756998,93.79006
0.9023053,99.31907
1.0410649,98.60211
1.1131244,107.76059
1.1877744,109.05751
1.309883,119.0533
1.3662889,120.37004
1.2801735,126.588234
1.322483,130.5668
1.4632372,135.50426
1.4070116,133.0823
1.3697579,140.47607
1.4747193,141.75818
1.5085237,142.96095
1.415877,148.0281
1.4552085,148.55928
1.4991854,150.34181
1.4265164,145.55705
1.4931092,148.87195
1.4051929,149.97902
1.4040684,153.17366
1.4599994,146.03764
1.3504522,146.98288
1.2903287,146.30986
1.303488,147.5029
1.2941334,140.91241
1.284757,138.98132
1.1924922,137.87396
1.1902404,134.66881
1.0625402,132.63095
1.0450838,129.08746
1.0350572,125.96783
1.156158,125.266945
1.084666,120.720055
1.0870713,118.80889
1.086466,114.75669
0.9960951,110.93316
1.0468217,107.30952
1.115145,105.70947
1.0108579,105.46312
0.9265134,102.981094
0.9229046,100.34297
1.0093138,97.28077
0.8868329,91.79241
0.8819695,86.32084
0.8275263,87.290474
0.7916204,78.37506
0.7467157,77.82403
0.7196408,75.41071
0.7136054,75.91365
0.61223584,71.3877
0.61326313,72.5503
0.6911153,67.06899
0.5243559,65.46463
0.591276,57.592815
0.5747884,57.54187
0.5552027,54.291386
0.60046875,53.209755
0.5642163,54.878353
0.6365493,53.14376
0.6042374,43.35462
0.49209455,41.92012
0.53683305,43.895123
0.5268167,40.375576
0.4575999,40.0
0.48923758,40.0
0.410604,40.0
0.43361843,40.0
0.36995998,40.0
0.28635588,40.0
0.3212563,40.0
0.24475174,40.0
0.2652982,41.84889
0.28749084,42.794113
0.20816351,46.784023
0.2595985,44.753452
0.287283,51.15243
0.29856825,57.402435
0.3976537,57.552795
0.51283705,60.63263
0.5428184,67.344215
0.6016812,66.30399
0.7514102,74.940704
0.80605257,82.35425
1.0054735,88.15519
1.0385718,94.98561
1.1289711,96.56154
1.2223305,102.67213
1.2759433,101.88014
1.4035294,109.10248
1.4354464,112.46118
1.5444791,122.38395
1.6130818,125.95451
1.6548864,128.53966
1.7292352,133.00623
1.6680763,139.26527
1.7747365,137.50279
1.7696607,140.95647
1.7315311,144.66798
1.7296096,142.68521
1.8002312,147.24132
1.7189158,152.2375
1.8164538,147.74669
1.7166672,150.4498
1.8234533,147.3152
1.7186275,146.69737
1.7041241,143.37724
1.6700907,150.79738
1.559198,145.29312
1.6422275,143.60577
1.5903045,141.51785
1.5409309,139.13472
1.4949521,137.48505
1.472184,135.2901
1.4118545,130.183
1.3914831,125.798004
1.400868,131.96191
1.4463384,122.650894
1.422078,122.377846
1.3609706,116.25334
1.4103054,114.605415
1.3454953,112.07071
1.4703667,109.58417
1.3287,106.01542
1.3780121,105.12276
1.2693872,96.489426
1.3663105,96.96163
1.2600157,94.50939
1.2212511,95.14922
1.2006861,91.1226
1.1896337,87.258316
1.094765,83.258865
1.1386143,79.93153
1.0626646,75.67062
1.0595943,76.37571
0.8968746,71.10725
0.983753,71.75669
0.8951047,66.08615
0.88947237,64.38581
0.844096,62.13577
0.92521995,62.291634
0.8879316,56.235485
0.9015465,53.04976
0.8415301,51.2115
0.90604407,48.60882
0.8972867,43.394093
0.86910117,46.649105
0.8708847,42.46176
0.7912045,45.155735
0.7938641,40.0
0.8042724,40.0
0.6604671,40.0
0.637408,40.0
0.6007029,40.0
0.6312899,40.0
0.5368295,41.38615
0.4709544,40.0
0.59233665,40.0
0.48275387,45.651546
0.4001963,43.552948
0.5340593,51.589775
0.6120496,51.728874
0.61717045,55.40575
0.7170222,56.084366
0.7908545,64.99111
0.71842206,61.83048
0.87330556,73.797935
1.0139272,73.04885
1.0999823,77.901184
1.105423,83.13377
1.317294,89.143524
1.3996351,93.234375
1.4764665,98.84506
1.5560362,103.21178
1.5759431,110.94617
1.6078002,114.66512
1.8025057,118.0366
1.7986604,119.5044
1.8743439,128.92282
1.8685832,130.71655
1.8663816,133.12465
1.9331175,139.77641
1.9621377,139.01036
1.8414642,142.26761
1.9146078,146.03502
1.9038296,150.06308
1.9788936,151.18575
2.002757,150.24248
1.9057167,150.24452
1.9906366,149.86652
1.9172306,149.2132
1.8773539,147.81282
1.9299561,143.87363
1.8063314,144.68935
1.8686138,142.69788
1.7850925,143.01192
1.6988426,139.73274
1.6191405,137.32407
1.6598462,136.42331
1.5438079,132.85045
1.6367431,128.20644
1.5531781,126.166954
1.4744426,125.06763
1.4956594,118.92173
1.4757172,117.61903
1.4954482,119.53774
1.5251161,112.17865
1.4687502,114.90057
1.4885371,107.51841
1.3578148,104.799095
1.5800841,101.08227
1.3661072,99.01775
1.311891,93.743835
1.4189595,95.70374
1.4094583,92.12593
1.3486546,89.3127
1.2145361,84.65634
1.12209,82.61021
1.0892911,82.9356
1.1715323,74.24546
1.0848026,77.54208
0.9976694,71.37866
1.0236381,67.94872
0.9625384,62.82669
1.0006176,62.685383
0.94042885,60.65345
0.8308915,54.803963
0.9307228,55.20529
0.9297428,52.16425
0.9341083,47.61008
0.86989844,42.963047
0.940635,40.68304
0.8113979,41.875065
0.8955487,40.0
0.86062974,40.008896
0.7758094,40.0
0.7986176,40.0
0.6477328,40.0
0.68352014,40.0
0.68269044,40.0
0.5836569,40.0
0.53383845,40.0
0.5131163,40.0
0.43468204,43.71127
0.5920672,41.417538
0.46622333,48.237453
0.5773286,47.20152
0.6008381,48.529526
0.6097461,55.149677
0.6273101,57.289818
0.77428585,66.28079
0.81475157,65.807724
0.8313065,74.94811
0.99843115,79.009346
1.1048511,84.9498
1.2400708,88.24171
1.3120514,92.71904
1.3958439,100.8283
1.4446484,103.65541
1.5615112,107.48643
1.6799581,116.61485
1.6644617,119.21776
1.6706853,121.584175
1.767939,126.04068
1.7214336,133.53636
1.8294835,140.00786
1.8199013,138.12993
1.8178293,139.71457
1.8956046,141.69623
1.8521574,142.929
1.7683107,146.22308
1.8561035,147.00896
1.8621848,153.23845
1.7887394,148.82857
1.823614,152.01752
1.8021741,147.91527
1.6587999,148.17107
1.6737974,148.75206
1.7167815,150.0973
1.6278783,144.66777
1.6292232,138.33334
1.5768734,135.69836
1.5650464,141.5388
1.4484786,133.49146
1.4481989,134.53603
1.376341,127.169266
1.4423375,127.41551
1.3324325,126.68323
1.3897818,122.9498
1.3034476,122.111465
1.3523005,115.83505
1.346256,116.37437
1.3666061,113.69795
1.3463118,111.32637
1.3504614,105.63158
1.2304133,104.13597
1.20871,99.82293
1.2465699,97.80093
1.1828691,94.81534
0.98551387,92.82556
1.0530152,88.63813
1.0415391,86.70983
0.94206053,83.3024
0.94733006,83.82775
0.89685595,75.35695
0.781214,75.97987
0.83199257,72.67777
0.80176437,71.54765
0.67002535,67.27715
0.7464635,66.874855
0.74026066,60.26755
0.6333108,60.473396
0.6145674,55.51395
0.58219457,50.52109
0.72247404,48.667572
0.6417994,47.36271
0.67884153,47.48584
0.6105057,40.0
0.5665773,41.368107
0.6045439,43.702393
0.65364945,40.0
0.56581074,40.0
0.5571027,40.0
0.4326651,40.0
0.41155708,40.0
0.30911765,40.0
0.34805834,40.0
0.28410155,40.22994
0.26966643,40.0
0.2370383,44.646156
0.1915692,45.556255
0.24320544,47.90064
0.18268329,51.716797
0.2505793,51.95318
0.38691443,58.500694
0.45631942,61.521255
0.5328704,67.62681
0.5530538,72.88506
0.7257368,75.886185
0.7496598,76.634384
0.9492113,87.636345
1.0389534,95.0392
1.0243238,92.89528
1.2102929,104.70442
1.26586,106.82679
1.3070488,114.30536
1.4352957,118.6393
1.3701837,123.54061
1.4555777,127.26644
1.5117028,130.41257
1.5165927,135.09943
1.5412151,137.37746
1.5382979,138.44592
1.6068336,145.07104
1.4781926,143.73946
1.4970788,148.26663
1.574726,146.28392
1.5518332,147.11862
1.5235832,151.10138
1.5051152,147.65425
1.4613279,149.59322
1.4103302,146.44452
1.4781059,143.7071
1.3629856,146.37187
1.369211,148.08995
1.3645747,142.3258
1.2579205,139.61407
1.198219,138.54094
1.2825572,138.15831
1.1186666,131.89258
1.1622399,132.35312
1.1405588,129.72601
1.0701116,127.75139
1.0150226,126.61464
1.1970975,120.70557
0.960387,115.89517
0.9059317,110.88216
0.99242026,116.957466
1.0672494,107.019745
0.9562799,108.14456
0.9747903,105.18705
1.000891,102.89622
0.91099745,96.27988
0.743257,90.703606
0.8004871,92.47042
0.71714085,90.16336
0.73580855,87.258675
0.7487094,79.14203
0.6445261,80.608635
0.57558256,76.92578
0.5265998,75.21072
0.5338157,73.16789
0.4760496,71.92994
0.51172346,69.686134
0.47692552,65.399086
0.4401449,57.855328
0.370552,53.833443
0.3617628,57.934505
0.32472104,51.320908
0.35597023,47.87366
0.33402717,48.600086
0.36915812,46.536358
0.3686146,46.083687
0.31858492,46.04413
0.31106973,41.238144
0.3143143,40.966084
0.28350297,40.0
0.15995353,40.0
0.1870493,40.0
0.07929664,40.0
0.07451219,40.0
0.008957893,41.31399
0.009178724,42.07955
0.033658836,40.334686
-0.048461523,40.0
-0.0044198767,43.80779
-0.023246322,51.365917
0.00844086,48.97514
-0.021787839,54.45064
0.061075903,60.076977
0.15529247,62.772987
0.2478217,65.49
0.2694162,72.33625
0.42443162,75.70208
0.50335765,81.27481
0.64805895,85.52868
0.73593426,88.49279
0.8475113,96.47692
0.94528025,97.10909
0.9827456,106.22558
1.0652976,108.873505
1.1129223,115.30172
1.2523413,122.75796
1.2418661,125.671326
1.2527815,131.47696
1.306859,130.59
1.3588562,136.40198
1.3541281,141.40773
1.3925894,145.83615
1.371876,146.53535
1.4408042,145.79541
1.2990364,143.73262
1.3485625,147.32005
1.4066639,151.4547
1.4319869,152.6477
1.3908331,152.87148
1.2811302,148.48856
1.2170701,149.50906
1.1678208,149.12346
1.1786469,145.83052
1.2524788,143.70378
1.1173872,139.57555
1.160319,134.40016
1.1305946,135.61208
1.0521754,131.42642
1.0231684,131.99066
1.0115236,130.62161
0.9242097,125.5057
1.018815,122.01667
0.9586849,123.128456
0.91376686,118.80771
0.9258783,114.79792
0.80888826,111.94782
0.86717576,110.26375
0.8821969,109.08636
0.83272135,100.795906
0.96135455,101.05408
0.79353577,95.98531
0.8225627,92.7036
0.59633946,93.91028
0.81992686,91.04541
0.6036547,84.0112
0.6337529,85.31035
0.59901416,80.59618
0.57744217,78.12093
0.45399758,79.14617
0.52201986,70.902664
0.40515745,71.26208
0.30867115,62.720432
0.30284733,66.69669
0.28253886,62.04255
0.40832016,58.248215
0.36203066,56.480164
0.30403385,55.137505
0.36848938,50.410717
0.39136517,48.405827
0.35341933,50.021687
0.29413047,43.053284
0.37211412,40.0
0.3319041,40.0
0.29467764,40.0
0.281996,40.0
0.26272315,40.752975
0.24841952,40.0
0.1765969,40.0
0.16083018,40.0
0.123104975,40.397617
0.065430805,40.0
0.0072712735,40.0
-0.0072106975,43.23579
0.013236522,41.1834
-0.05832833,46.27013
0.04451833,52.168167
0.16476734,52.093174
0.02508198,59.95919
0.17370974,63.15875
0.24814628,65.261246
0.36656752,72.174095
0.46902344,73.30003
0.66418004,81.64534
0.73125654,82.921875
0.8356715,88.21023
0.97938085,96.21054
0.96682423,104.95664
1.1073395,102.724724
1.1673985,108.75385
1.1881989,113.99825
1.288844,117.65839
1.3234357,121.95466
1.3404038,126.96666
1.4224162,135.24655
1.4884645,133.9229
1.4438556,136.91267
1.5899897,144.81349
1.5559891,144.5554
1.488134,147.77354
1.4312304,146.78699
1.5275118,147.24486
1.5327704,148.46976
1.4617786,152.49129
1.4052515,149.0668
1.4150267,148.82104
1.3917645,147.63106
1.5145627,147.18083
1.2633812,145.35487
1.4064541,139.79825
1.331707,141.96863
1.3402863,140.37831
1.2491179,138.90816
1.2036306,133.50774
1.1722732,134.17648
1.2077216,127.51527
1.1243067,134.05653
1.1447618,124.48671
1.1852118,122.217026
1.1564677,119.421684
1.1186881,115.5709
1.034035,113.16109
1.1287165,108.32394
1.1079243,107.08169
1.0932355,104.39789
1.0486277,101.85266
1.0768381,101.354485
1.0616542,90.75178
0.9561372,97.308235
0.98664117,92.5122
0.88177085,85.497574
0.8423045,83.588066
0.86077005,78.62987
0.79995286,77.44623
0.74032384,72.95428
0.7511293,73.636635
0.6724297,66.49266
0.6660752,68.175934
0.6028396,64.255714
0.64186805,57.925453
0.6978102,60.389076
0.5476861,52.718525
0.5769488,53.31083
0.6294303,50.720806
0.5912606,51.518528
0.640386,45.84516
0.62952906,45.111557
0.54573023,42.22698
0.6133414,40.64561
0.6680314,40.890705
0.5548855,40.63416
0.6125385,40.0
0.5463621,40.0
0.4654132,40.0
0.49071193,40.0
0.391136,40.0
0.39600953,40.0
0.25910836,40.0
0.3113511,42.852093
0.3036013,47.603157
0.23038442,42.94729
0.35355726,49.33567
0.41030538,52.81177
0.40653354,58.34146
0.5649419,60.673534
0.527364,63.455254
0.6969845,70.44902
0.69564325,70.723366
0.7934837,78.32342
0.99833155,84.94642
1.0352694,89.604645
1.1321994,94.6683
1.2158235,99.533844
1.2682027,99.70203
1.4191004,106.138306
1.4871991,116.5182
1.4785839,120.52358
1.5827051,123.096275
1.7286266,123.181046
1.7203562,135.43993
1.7978961,132.28459
1.7931117,137.9565
1.722701,141.86066
1.7685336,142.96452
1.7869551,146.3966
1.8133023,145.64832
1.7773453,143.6829
1.8047292,147.86678
1.7734162,148.50548
1.6642336,150.5222
1.7637892,154.47945
1.717911,148.72734
1.7073361,146.96007
1.7356614,145.92029
1.6031059,144.41107
1.6166837,142.2431
1.5502161,141.34476
1.6378443,140.98314
1.5287566,132.62978
1.4910784,130.5676
1.4677708,130.86943
1.41868,129.04518
1.4035118,128.7222
1.4167211,121.93186
1.465468,119.475975
1.4126271,118.37116
1.4096639,114.49375
1.4544314,114.31726
1.340343,109.65865
1.3660145,106.884674
1.4065665,104.6588
1.3292587,96.46564
1.3305619,98.33903
1.2507852,95.15614
1.180101,92.01253
1.0776924,84.268234
1.2189932,86.130196
1.1422974,85.729706
1.1100813,78.969666
1.1416256,76.836845
1.0557265,71.24843
0.9453874,71.71343
1.0109875,74.43289
0.8832359,63.570732
0.9498674,62.455215
0.8924226,57.80016
0.92636293,59.69788
0.92960083,52.689026
0.9142945,54.009228
0.7973924,50.32418
0.8801431,47.111256
0.8349022,45.104435
0.89156294,43.31952
0.8322983,40.0
0.81701565,40.21064
0.7590816,40.401443
0.82276356,43.248287
0.67041427,40.0
0.76337236,40.0
0.686712,40.0
0.6013126,40.0
0.60795325,40.0
0.5886378,41.94366
0.4838021,42.660248
0.5199994,46.327263
0.46808112,42.5935
0.5560703,50.207314
0.648423,52.081055
0.595005,51.274433
0.74585176,59.500553
0.82105374,62.42222
0.7935147,64.877365
0.9272869,73.06744
1.0758585,78.11884
1.1481903,85.18857
1.1649498,87.19261
1.2739255,86.646904
1.4127142,102.61267
1.5200833,102.68564
1.6204987,105.96823
1.6329665,112.79486
1.7128804,118.77004
1.7834897,123.63125
1.8293929,126.70394
1.8276731,131.73503
1.8771293,138.19153
1.9580225,139.41574
1.89053,142.64873
1.9985406,142.14725
2.0189059,143.21793
1.982972,147.12355
1.9574583,150.56407
1.9590925,152.34709
1.9386886,147.48384
1.9004388,147.1747
1.8703587,146.37573
1.8654201,143.89369
1.8159004,148.37216
1.890247,146.35797
1.8346589,144.50467
1.7921758,140.57692
1.771362,134.7044
1.647051,137.98865
1.7203808,135.06975
1.757515,132.59375
1.665236,130.04036
1.5821168,125.64246
1.6217508,127.84631
1.5022169,120.74348
1.5417786,119.098755
1.4728829,114.7122
1.5803809,118.10404
1.511531,112.49705
1.4791405,108.776505
1.3901954,101.35152
1.4074084,103.777084
1.4375815,100.74261
1.344831,99.020134
1.4335763,92.81015
1.3431782,89.011215
1.3095977,86.931305
1.2536305,89.4933
1.2165076,90.69186
1.1671635,76.13533
1.0091273,77.78449
0.9977267,79.71359
1.081885,74.508286
0.9779449,68.85526
0.89342535,68.50606
0.9455106,60.52107
1.000818,60.837517
0.82687795,55.016235
0.9763161,53.55477
0.88462764,50.719902
0.95434546,53.342247
0.95702106,47.10845
0.81229,45.12667
0.88789684,45.086437
0.8538189,43.14008
0.7644077,40.0
0.8219336,40.0
0.7086836,40.0
0.73128694,40.0
0.68976444,40.0
0.6933402,40.0
0.58646846,40.0
0.51752424,45.225067
0.4612957,40.0
0.44171563,42.362587
0.43656382,44.233795
0.3738321,45.438156
0.5265925,45.13241
0.5180691,51.71192
0.54530513,57.10325
0.54339564,58.00711
0.68307614,63.377605
0.7763387,64.637245
0.93314403,73.62809
0.8643779,75.06629
1.0156438,81.779915
1.0690806,84.94196
1.2938355,90.40505
1.3450567,97.173676
1.3697764,103.8683
1.4847493,109.14484
1.5678179,108.81407
1.6210766,116.64984
1.7625252,123.44964
1.7296547,122.75293
1.8344165,127.8857
1.754719,129.40489
1.7800827,133.94057
1.8154427,142.72516
1.7880048,140.29974
1.7679598,143.15044
1.8274366,146.0241
1.7888302,145.46577
1.7490141,146.55656
1.799128,146.7183
1.7487468,153.17186
1.7412364,148.36034
1.7248826,150.03284
1.6945087,146.80312
1.6059246,141.96703
1.6374103,148.89188
1.660622,142.71846
1.464049,140.01036
1.4991542,137.97844
1.4736875,134.78398
1.454692,131.9338
1.4252651,132.0677
1.4043272,133.69995
1.4064347,125.616974
1.3380351,125.276855
1.2872682,120.054474
1.2434795,119.43965
1.282629,118.04673
1.2321482,111.673645
1.2657851,108.13859
1.247736,103.87278
1.150081,101.67878
1.1195967,97.55079
1.2312626,96.26076
1.0576329,95.40383
1.0831704,92.7494
1.1142267,88.60301
1.0212264,84.97016
1.0679954,80.77687
0.96177876,81.40674
0.8536696,76.93522
0.8817876,73.91278
0.8220376,75.927315
0.6929965,68.44044
0.8012272,65.383125
0.67481697,63.41028
0.695743,62.92088
0.6814367,59.081448
0.6645383,53.001442
0.57632047,54.70325
0.696283,43.747246
0.64951473,49.465458
0.6297645,45.858006
0.59017247,44.582363
0.5702725,43.975426
0.5909628,41.110233
0.5804402,41.83098
0.5285302,40.0
0.452425,41.9443
0.3219348,40.0
0.39357626,40.0
0.31827804,40.0
0.2529231,40.0
0.24139734,40.0
0.26447576,41.144833
0.15486617,45.265564
0.10738978,46.26091
0.26252994,45.82464
0.13083924,52.499325
0.18699618,52.119236
0.45404097,58.482685
0.38485628,61.753635
0.41729,68.36347
0.5592258,71.42293
0.603879,74.38037
0.7157829,78.17842
0.8484086,86.5095
0.8942592,88.68121
0.96420246,94.62501
1.117906,104.4312
1.1121498,104.782684
1.2520896,115.599724
1.3135675,120.72245
1.4017344,117.77911
1.3457034,119.464874
1.5606569,128.71138
1.4228483,134.73878
1.4894389,133.24002
1.5703756,133.13051
1.4734776,142.33817
1.4769902,147.9317
1.619892,148.99548
1.48424,145.62129
1.4873012,150.6044
1.4342421,149.2477
1.5259091,153.30904
1.400434,152.3837
1.4888704,151.87428
1.3239412,151.19786
1.4140311,149.05345
1.3495535,144.44125
1.2977316,146.23787
1.3406891,142.37314
1.1910849,139.51878
1.270259,137.8231
1.2021487,138.3541
1.1263052,128.14746
1.1138924,127.44208
1.0776143,128.55531
1.0556245,123.243164
0.9608224,120.21051
0.9407825,119.81886
0.93947303,114.21794
0.9481276,109.38363
0.95354736,107.38688
1.0212029,108.32276
0.9754143,102.73739
0.914485,105.51165
0.8940684,99.28825
0.82051504,94.906845
0.6951241,91.717186
0.7499874,88.84596
0.76120716,86.54091
0.5961941,85.18569
0.707718,83.35815
0.6743898,80.25656
0.5944779,74.93269
0.58386487,75.96201
0.48477384,71.48889
0.3839629,67.46374
0.43718365,64.33453
0.37448737,58.976467
0.3922965,56.875145
0.408453,57.96954
0.32015023,53.913975
0.41544408,51.593937
0.32354793,49.047844
0.34153908,46.660553
0.32723552,46.850048
0.3960323,41.112427
0.37095106,40.0
0.26118585,40.97274
0.30971348,40.0
0.26613933,40.0
0.13506797,41.100006
0.06236984,40.0
-0.013434654,40.597893
0.11004165,40.0
0.095415786,40.0
-0.067719474,44.22219
-0.0026260847,41.986977
-0.018360507,46.933544
0.013709863,44.274525
-0.085455276,50.275272
0.060537793,57.107143
0.026609,51.97255
0.18131994,65.43576
0.24957956,67.218864
0.31244358,72.13215
0.4460817,72.911934
0.5420742,75.25895
0.66962725,84.81024
0.6696949,88.528725
0.7874795,99.668
0.8586544,101.8578
0.90588665,103.52202
1.006565,108.1
1.1057671,114.98784
1.1963263,118.320526
1.1863841,122.29237
1.186638,127.443054
1.2777936,131.22148
1.3333902,133.86948
1.3363928,138.29366
1.3727129,138.7086
1.3751001,144.04004
1.3074589,145.76913
1.3083292,148.28687
1.3353492,146.23224
1.3818027,148.47781
1.3716707,148.01405
1.2832448,151.01118
1.2885473,149.26862
1.2722602,146.72212
1.2547885,151.24701
1.2015593,145.23784
1.1914556,142.56036
1.1879743,146.08008
1.1144335,139.9137
1.0150237,138.24252
1.0997903,132.46204
0.9921959,131.5772
0.96915185,124.44315
0.96594614,128.37016
0.95625,123.74622
0.92401737,120.86226
0.96908385,117.39603
0.93111897,117.113106
0.87345016,113.90541
0.8934027,108.02784
0.8459716,106.9809
0.9396151,105.11175
0.8411929,101.95279
0.8871378,92.21461
0.79924905,91.38523
0.7529901,93.69959
0.7511893,90.520546
0.7019159,86.73011
0.6890958,84.16927
0.64545107,82.91795
0.51137596,84.19025
0.39947847,73.61346
0.37031847,73.9344
0.5062777,74.09296
0.4153651,68.48619
0.4066681,67.197426
0.41722852,62.890026
0.4182106,58.772312
0.3901615,56.769814
0.3465161,56.547466
0.43245932,50.623646
0.3330719,47.321953
0.33641702,46.309605
0.3111536,47.81118
0.38740465,42.928844
0.44529048,45.062153
0.23576644,40.0
0.2820446,40.0
0.30952755,40.673943
0.26624155,40.0
0.16041084,40.0
0.13327968,40.0
0.05812705,40.0
0.12811686,40.0
0.05587929,40.0
0.06534258,42.853977
0.10852736,43.66034
0.0024362095,46.457462
0.07068182,50.245235
0.0516331,54.52059
0.11268021,56.22029
0.23886827,64.31803
0.24077398,66.30856
0.34299505,68.38982
0.45577782,70.11245
0.5467717,74.79524
0.6392428,82.67714
0.7936668,91.45279
1.010704,94.9566
0.9641368,101.775
1.0962923,107.85386
1.1281016,106.4091
1.2105719,109.703896
1.2786136,118.69112
1.4363832,128.3285
1.4083003,126.927765
1.488372,130.97809
1.458337,137.53192
1.4843283,137.18542
1.4439491,139.79996
1.527862,142.72498
1.4849637,145.6884
1.5254158,146.22044
1.5770819,150.41898
1.4637804,147.53447
1.5204748,147.26532
1.473888,151.42784
1.4396982,144.37498
1.487831,147.51205
1.3564421,148.14928
1.4290075,151.02744
1.3500144,144.41277
1.4089957,143.28767
1.3150219,138.90245
1.3054059,140.73099
1.2785337,137.10277
1.273235,131.02177
1.3415715,130.23732
1.2453285,127.33729
1.1356984,123.71899
1.2069138,122.652306
1.1221358,118.53699
1.1392751,113.10481
1.180867,114.06209
1.1075532,111.01314
1.1571876,109.94927
1.1345861,105.20617
1.1399027,102.969734
1.069518,96.86836
1.0517387,98.5325
1.1216615,93.08226
1.0633922,90.42104
1.0040022,84.00292
0.90594006,81.39643
0.8476407,81.34571
0.8692752,80.27418
0.81799144,80.44732
0.77231675,75.57396
0.6978884,74.07135
0.65587676,67.676605
0.66067713,65.060394
0.6179026,63.242367
0.6440901,61.284252
0.67521346,61.00539
0.66244894,56.18236
0.731805,52.562565
0.71080726,52.356644
0.61502606,47.177235
0.64765865,43.511223
0.61163247,40.465595
0.53618467,41.56491
0.589933,42.3038
0.5656602,40.0
0.46162814,40.16843
0.46875373,40.0
0.48528746,40.0
0.4646433,40.0
0.39161134,40.0
0.33956957,40.0
0.3946717,40.0
0.36146218,40.0
0.34300348,42.48469
0.26831082,43.629364
0.37884483,50.701645
0.40804997,51.537716
0.42474148,53.165962
0.4306664,61.56585
0.6576639,66.07482
0.65162957,68.51092
0.82273126,71.65314
0.8530232,73.75053
0.9502873,82.39004
1.0434356,84.53191
1.1512871,89.491745
1.2928306,97.06662
1.3979213,103.3653
1.4789615,108.22153
1.4247198,113.37947
1.577473,118.819534
1.639745,119.89667
1.6982508,122.634186
1.7504627,132.38695
1.7652177,133.69955
1.7344064,138.53401
1.8242093,139.89107
1.8072193,140.79868
1.8392345,144.84766
1.91091,148.10687
1.7529526,147.05605
1.881753,146.79926
1.8638896,149.83394
1.7832384,150.51967
1.8245281,149.80994
1.8236831,152.15938
1.7042403,148.88452
1.7621174,147.87886
1.7329957,144.40047
1.6887524,142.18639
1.5955825,138.09126
1.6032559,136.2838
1.5335939,136.4667
1.602475,130.7533
1.4743912,130.25348
1.4970556,128.0431
1.447051,130.51347
1.401749,126.06069
1.4977906,123.343765
1.5153832,117.66861
1.4981291,114.27854
1.4961028,112.92775
1.3607149,105.7995
1.4012853,105.08966
1.3737086,103.14789
1.3573416,102.28862
1.346882,95.644035
1.34695,95.765724
1.2903538,93.59903
1.2379192,89.11949
1.1782496,86.63887
1.190157,80.49533
1.1047655,78.885666
1.1222262,77.68661
0.9778156,73.38067
0.9848406,70.8798
1.0072372,70.06668
1.0272354,69.38502
0.9338225,59.977783
0.96243477,62.170246
0.87446404,55.748768
0.9251472,54.445766
0.8230109,54.801243
0.92411846,50.970238
0.8285236,45.08877
0.8523376,47.280884
0.9157552,49.116737
0.8980401,45.062756
0.9046263,40.64979
0.92529345,40.0
0.80636644,40.0
0.83124906,40.0
0.66289544,40.0
0.7327377,40.0
0.6646937,40.0
0.57192343,40.915787
0.55173314,42.016228
0.50558615,40.950855
0.5629984,40.98536
0.5510334,42.49299
0.5024164,49.30223
0.5622425,50.58346
0.61442524,49.40697
0.6879419,58.343334
0.78617936,62.004593
0.7631657,66.859825
0.9754427,72.60773
1.0116478,73.70441
1.1601465,76.57306
1.2135633,88.5531
1.2834287,89.75157
1.3441403,93.11917
1.4297776,101.165215
1.6168984,104.81532
1.7120806,111.9661
1.7105527,116.77804
1.7927277,122.737
1.8756683,125.10613
1.8495847,129.77576
1.8946948,129.62035
2.0459487,134.11748
1.9914176,136.44586
1.9211956,141.13684
1.9735665,148.50867
1.9838734,145.85812
1.9247189,148.58524
1.9331938,149.98825
1.9301454,145.72655
1.9593002,148.47878
2.00122,147.91792
1.8698391,149.0951
1.8315932,149.63368
1.7570556,148.41412
1.8037981,144.91306
1.8328753,142.96779
1.8184257,141.25696
1.7073827,141.55617
1.6092942,134.18791
1.7060056,134.7503
1.651641,133.60449
1.606265,131.37
1.5680922,125.28781
1.4458485,126.223
1.5002335,121.52741
1.5159229,116.96878
1.5922674,114.714775
1.5244355,113.51288
1.4376687,107.378654
1.4945945,106.01144
1.4359407,106.20365
1.4654889,100.491684
1.3488746,97.99835
1.3124552,96.0032
1.3585159,93.06145
1.2956624,87.24178
1.1546941,90.630394
1.1276662,82.16168
1.0973028,80.11225
1.0995654,80.09527
1.0270742,73.83897
1.0310595,75.18203
0.98293746,69.96143
0.9937936,68.344376
0.92597044,64.727715
0.9409518,61.875202
0.91499907,60.892414
0.7864421,57.18453
0.8225132,51.454014
0.7840567,50.31871
0.8694892,44.963074
0.86175036,47.544834
0.8432866,41.29312
0.9353687,42.801792
0.83470553,42.250717
0.80716836,40.0
0.7183998,40.0
0.74458444,40.0
0.61039436,40.0
0.59489703,40.0
0.6226722,40.0
0.518886,40.0
0.46623522,41.36291
0.5499904,44.323513
0.48692536,43.009617
0.4755068,45.188583
0.44709542,45.883366
0.43415433,50.033886
0.5004293,51.62093
0.5409271,60.415577
0.64085335,60.32552
0.6420464,65.59989
0.782788,73.48358
0.92646533,73.13323
0.8853784,80.19077
1.0455365,80.4269
1.2370471,92.97266
1.1717508,94.55438
1.3370731,101.15734
1.4609177,106.17989
1.4919355,112.33945
1.5488324,116.40308
1.6268407,121.48456
1.5484881,122.663574
1.6789956,126.114815
1.758799,131.07513
1.7470849,133.32533
1.6537807,138.01968
1.8154263,140.51692
1.8188666,139.96284
1.7845532,147.24426
1.6975261,148.25946
1.8588624,144.42366
1.7860177,149.34674
1.7964919,145.72557
1.7049669,145.11
1.7089016,149.24384
1.6443241,148.90016
1.6166638,144.16954
1.5659153,144.66615
1.5833508,146.1263
1.5721331,144.16008
1.4514711,138.21608
1.4262184,137.43884
1.4162848,136.57184
1.4302592,133.33005
1.3696074,131.536
1.2715853,130.17099
1.3281616,125.53828
1.3293551,123.78858
1.2395445,120.67405
1.2444547,119.46689
1.2358954,114.45596
1.1803871,106.94116
1.2873785,111.036285
1.176591,102.251755
1.165382,102.54964
1.1287591,99.727325
0.99444693,97.03268
1.0592004,93.87819
1.0068226,90.233826
0.93820804,81.23204
0.9487781,82.943054
0.8994099,80.27449
0.86517996,78.64466
0.77213323,76.91564
0.77955705,73.91258
0.72036606,73.57027
0.59505564,66.6579
0.5612313,66.70117
0.65046936,59.723713
0.6125111,61.63373
0.49994418,54.20002
0.6030682,54.306835
0.5351092,50.470955
0.6088638,48.86121
0.51211053,47.756454
0.5686867,47.137947
0.52037156,46.612118
0.5441036,42.926125
0.4581626,40.0
0.49405637,41.71583
0.4350319,40.0
0.4277108,40.0
0.39998055,40.0
0.39280227,40.0
0.27286994,40.00205
0.21119018,40.0
0.19933434,40.0
0.2174078,40.0
0.1390349,41.514866
0.09545992,46.66686
0.13046953,47.255554
0.19575141,52.38243
0.236235,54.365932
0.30640623,60.657696
0.39281607,63.788105
0.43613282,66.90915
0.60148096,72.59519
0.708678,78.364334
0.753583,83.51818
0.79181427,90.837654
0.87949324,97.00691
1.0345275,101.36389
1.1088265,107.60027
1.1576103,109.3402
1.2214506,111.88335
1.3061583,119.507614
1.3636103,123.71545
1.3746582,127.87714
1.4355458,130.34846
1.4222386,136.3969
1.4542501,136.51263
1.4018301,139.42122
1.534516,146.08592
1.5454707,144.03899
1.4478233,147.70415
1.4688047,145.96329
1.4868987,147.09465
1.4146519,146.02754
1.4744471,148.06758
1.3492588,146.96172
1.4795233,147.1105
1.319519,148.08194
1.3975782,146.33527
1.2911098,142.27235
1.2376199,139.17288
1.2252483,137.59818
1.1348528,140.04515
1.0748885,132.7896
1.1798649,133.88165
0.97161853,130.25238
1.0927746,126.46409
0.9975486,126.40365
1.0071399,125.89069
0.9862805,118.2881
0.95834875,113.75345
0.98130536,112.137314
0.9762808,110.136
0.9265285,107.67018
0.88582027,109.94228
0.920507,101.3621
0.8710987,95.87955
0.88860965,99.93818
0.7782391,96.988235
0.81232977,92.38678
0.7450484,89.2129
0.67422247,86.320335
0.5639798,81.439156
0.5717297,78.91621
0.5728356,78.935715
0.53251034,78.92309
0.4368131,74.80709
0.5138927,74.00214
0.35257676,68.85312
0.33507153,60.12512
0.26818275,59.207592
0.33791572,55.03518
0.31645715,54.87087
0.41260573,52.514168
0.40112007,48.64475
0.28676334,44.471672
0.2590899,44.519802
0.2743376,43.26949
0.3096977,45.70895
0.28170073,46.905186
0.2235209,40.0
0.3049353,40.0
0.16391303,40.0
0.08011244,40.0
0.08659763,40.0
0.02847027,40.0
0.04574708,40.0
0.017551003,40.0
-0.07045756,44.496838
-0.06264825,41.136837
0.0030260482,41.56443
0.038082253,48.775974
0.03578474,51.2432
-0.014435992,51.023018
0.043802373,59.35454
0.12530094,63.229652
0.34113175,67.542274
0.35823032,73.064926
0.50080645,74.10678
0.5755145,78.705635
0.6698091,91.38623
0.79959923,91.62379
0.75847405,98.83327
0.8253739,103.2478
0.99033976,107.6253
1.0630609,111.18309
1.1580024,120.30338
1.1152288,122.6767
1.2199578,128.07962
1.2568641,133.45094
1.2239065,137.4979
1.3113679,136.62672
1.3986559,140.50528
1.332254,142.79285
1.3817307,143.05681
1.3563702,146.14438
1.4155234,148.3305
1.3883193,148.7818
1.3771691,153.66547
1.3432024,144.58647
1.3116796,149.86644
1.3202991,147.95532
1.2003547,147.69765
1.2952396,145.86902
1.1835095,144.05957
1.1544499,138.31395
1.1640633,138.34512
1.0675226,142.61473
1.0310256,136.44049
1.04742,132.7195
1.0203398,132.71324
0.9998743,130.95607
0.9783087,127.85727
0.984565,121.68479
0.94949067,122.96411
0.973151,115.15563
0.9362365,115.773415
0.96691257,113.53269
0.95397377,106.88979
0.91747355,106.948814
0.88927823,105.85999
0.909955,103.761246
0.94325536,98.50304
0.85910827,95.22823
0.772789,94.52176
0.6784915,86.59691
0.8024276,82.10472
0.6865868,87.94144
0.6031179,78.949875
0.48292148,77.15442
0.5515488,71.18866
0.4561669,73.16279
0.4495701,70.019516
0.43924204,67.54551
0.3904262,63.418613
0.33906266,56.597214
0.49011904,55.03558
0.5442625,56.676563
0.4028054,53.552814
0.33872852,50.58923
0.33216646,51.76131
0.352748,42.179165
0.34620363,42.4668
0.30633897,42.18045
0.4017209,45.42784
0.3371778,40.0
0.38421628,41.562622
0.28235796,40.731888
0.26882154,40.0
0.12755072,40.0
0.12966429,40.0
0.16407247,40.0
0.103157304,40.0
0.04892641,43.686043
0.09671847,41.94385
-0.007254022,41.483345
0.059529576,48.71113
0.082957365,47.891846
0.11125805,55.262188
0.20901239,60.00738
0.3278141,68.69494
0.3673656,64.57599
0.5023131,72.58119
0.62524045,74.53314
0.6331155,79.19737
0.767833,86.729935
0.87123233,95.460175
0.95087713,93.65938
1.1227237,101.90886
1.1175501,107.64528
1.2639387,114.731926
1.3367139,117.89837
1.398158,123.54908
1.4972204,127.83514
1.498784,130.61282
1.4905457,132.25075
1.5020823,132.17273
1.5704807,139.42392
1.5231345,145.10773
1.5832001,147.92804
1.4545732,143.95093
1.5329292,147.1631
1.5405494,151.79347
1.5288352,146.00835
1.5165198,147.69951
1.5020213,147.84407
1.4888749,153.0355
1.430828,151.08955
1.4760995,145.93341
1.5327094,145.18806
1.4225862,142.99995
1.3653622,141.85861
1.4323249,134.84045
1.2904154,136.3751
1.3681139,135.80814
1.3184062,131.85544
1.1884402,130.161
1.205037,124.93292
1.149649,124.595375
1.2307484,121.84455
1.2590897,118.28492
1.1755118,116.31918
1.065581,110.226326
1.1925322,107.84866
1.1874151,107.6886
1.1498075,102.94334
1.1126844,100.25099
1.1387825,101.88552
1.0207316,100.53216
1.0164795,97.79333
0.95752513,90.45446
0.978907,88.056
0.9587574,84.80373
0.89522654,83.304924
0.8324068,77.92775
0.8564182,74.16186
0.77164876,73.937645
0.8060537,70.005936
0.79463184,70.62785
0.62073994,62.99515
0.73938286,59.45673
0.7263811,58.408306
0.7461093,59.458454
0.71377885,50.93813
0.6662107,46.545753
0.63974524,44.940525
0.7082306,46.328274
0.70605576,46.12848
0.60110474,42.830784
0.73742557,40.0
0.652549,40.903957
0.6333885,40.0
0.6075557,40.0
0.47716597,40.0
0.46076402,40.0
0.47848704,40.0
0.42422995,40.0
0.40420812,40.0
0.41189322,40.0
0.34573922,40.0
0.4188124,44.127304
0.33423984,46.06305
0.3928561,50.57985
0.47532064,60.24985
0.52925825,55.796093
0.6685656,65.72933
0.6422271,66.25485
0.77647775,69.54528
0.8166457,79.98908
0.9530858,80.855225
1.0831671,84.32172
1.186249,89.26556
1.2690777,93.442566
1.4583569,96.38637
1.5302807,106.47506
1.5758686,109.32796
1.5381775,113.76236
1.6124667,121.83184
1.7158504,126.47604
1.6848522,127.34696
1.7760348,131.28474
1.8310041,135.68428
1.8063425,139.46678
1.902528,144.05635
1.9460809,140.43388
1.9470289,142.01096
1.8389306,148.99939
1.8733667,152.23398
1.9167429,152.01251
1.9388872,151.10577
1.7237604,145.96797
1.8157842,153.24725
1.8421326,147.94273
1.7959486,149.03851
1.704186,144.51982
1.6440465,144.52728
1.7093585,143.58037
1.6288527,140.07326
1.638181,135.03818
1.5257671,134.9956
1.5616391,129.94853
1.5412728,129.03189
1.4720049,129.7444
1.4442693,120.68466
1.4267216,118.792656
1.4937761,117.458015
1.4087104,119.410736
1.5305027,112.38133
1.4411535,113.26201
1.3912088,107.79861
1.415593,101.54855
1.4329606,104.45055
1.3025905,99.70374
1.3240184,94.784805
1.4046417,96.95857
1.2510209,89.303055
1.2400097,85.07425
1.2468601,82.90262
1.138043,80.68139
1.1257147,77.80308
1.1016386,76.75485
1.0461732,72.495674
0.9638185,67.56213
1.032129,67.20152
1.0024594,64.11268
0.92854255,64.18333
0.9262386,58.617466
0.96454555,59.148975
0.9460688,54.274445
0.9368467,53.23267
0.85127825,47.637844
0.76893765,44.054886
0.96052265,41.602043
0.92160326,46.371994
0.7567958,40.0
0.83267766,40.0
0.7972489,40.0
0.8107655,40.0
0.7556804,40.0
0.7148624,40.0
0.71311826,40.441074
0.64561254,40.0
0.62218755,42.125404
0.5994236,40.0
0.5595958,40.0
0.47946593,40.0
0.5450076,46.828438
0.6436279,51.1771
0.6164112,55.363407
0.6476194,56.94462
0.7383551,63.151863
0.7270598,69.417786
0.8594914,68.176956
0.9887016,73.984184
1.0578616,75.95703
1.1772456,83.98374
1.2861218,86.32022
1.3930566,94.70512
1.4500722,101.89632
1.5532895,104.515434
1.6819592,115.09264
1.7731706,116.15368
1.8238299,120.509735
1.8917968,124.176155
1.8042692,129.06233
1.8345245,131.49583
2.0031464,132.406
1.9670024,140.6904
1.8819801,142.30733
1.9283125,144.36166
1.9704844,147.13474
2.0023606,150.90625
2.0025606,146.97299
1.9214082,149.58748
1.8832943,150.01646
1.8757068,148.04567
1.923164,141.86829
1.8802426,147.6098
1.8212707,144.84158
1.8081527,144.57082
1.8390076,146.52652
1.6716701,144.42908
1.8037591,140.46133
1.6002022,138.79565
1.6142097,136.57713
1.6878593,135.19809
1.6292478,130.93736
1.5494219,121.88436
1.5770574,125.76881
1.5579733,120.50682
1.467065,116.706375
1.4017333,121.12968
1.5272161,117.01914
1.4163414,110.95019
1.5330886,106.5177
1.4316448,106.98563
1.410676,102.76016
1.2634168,97.580696
1.3126351,97.7927
1.2695066,94.230865
1.2335864,84.3717
1.2730862,89.038055
1.1617552,84.33787
0.98815775,81.848595
1.0884525,80.55358
0.99326617,76.77351
0.97825146,70.90153
0.92226607,72.14657
0.99464005,71.84602
0.7996207,65.233505
0.9242443,61.895954
0.8119809,59.973206
0.9122781,57.868954
0.8090399,56.687786
0.7948958,47.982872
0.91718,47.781918
0.8397529,49.123528
0.90233034,40.842194
0.8014036,45.41076
0.838608,41.841366
0.6762763,40.0
0.7380448,40.0
0.6763626,40.0
0.628238,40.0
0.57348484,40.0
0.55097944,40.0
0.50942373,40.0
0.45246458,40.0
0.49012592,40.0
0.375607,42.553364
0.40323263,40.0
0.34893546,47.606144
0.45793462,47.527424
0.56924057,52.39929
0.5015391,54.14201
0.5607964,60.30235
0.6462438,62.66632
0.756124,72.152664
0.8144548,74.64237
0.9557308,78.7049
1.0261787,85.65184
1.0059718,89.307495
1.1694078,93.298256
1.2674847,101.72977
1.4433136,105.70463
1.4901463,106.94276
1.5306789,111.21515
1.5203638,117.0557
1.5588412,121.213486
1.6819189,126.679565
1.6393774,127.233406
1.7350839,134.9557
1.7506424,139.0842
1.6946701,140.67683
1.770381,142.83742
1.7432086,147.61732
1.7613294,146.37616
1.7528166,148.49733
1.7588223,151.88872
1.5986278,149.78601
1.7390157,151.00322
1.6667135,153.44159
1.6080887,146.68555
1.6046973,150.4328
1.5187497,146.66621
1.5087103,145.31729
1.4209347,139.16748
1.4385178,139.50269
1.4202857,137.04768
1.4026012,136.9674
1.3354857,135.56686
1.3010536,125.98848
1.3553305,126.44921
1.2028259,127.094475
1.2838844,120.55478
1.2622566,122.18308
1.2076585,116.11254
1.230184,113.34898
1.1401526,116.55611
1.091243,107.93293
1.076042,106.023865
1.1483382,103.787575
1.0969048,98.03225
1.1355412,96.75161
1.0301375,95.674355
1.044903,93.627106
0.9406355,90.88036
0.8755694,86.757774
0.80957705,84.2635
0.741618,77.18173
0.76612693,78.40703
0.6834732,76.96189
0.687692,74.349
0.6616133,71.230385
0.71183944,61.45271
0.60225207,63.371014
0.55893946,61.9345
0.5270901,57.271507
0.6359971,56.71691
0.5042638,52.985344
0.53131807,50.293453
0.605363,51.324368
0.5380407,43.73806
0.5337104,46.87059
0.47413826,41.34376
0.49034896,40.278732
0.5178123,40.0
0.36039594,40.0
0.36592856,40.049362
0.34548736,40.0
0.31939715,40.0
0.19849537,40.0
0.12359071,40.0
0.20188987,40.335674
0.13704741,40.0
0.089393124,45.57447
0.14696053,50.445156
0.10453086,47.613262
0.068064064,48.441986
0.18062072,57.078632
0.20336133,58.5607
0.33269864,61.13522
0.48334005,72.211105
0.50114465,69.93069
0.4909145,76.7669
0.6678248,78.81443
0.8552953,87.05344
0.8556256,93.1223
0.9391266,95.91974
0.9981709,104.47386
1.1843932,109.62555
1.0505651,114.074104
1.2692331,122.62399
1.2740773,120.43494
1.2765076,124.21559
1.3626889,125.876724
1.3617474,134.96748
1.4767071,135.74521
1.4709442,139.33296
1.5166087,139.29863
1.4912019,139.9398
1.4753681,149.08798
1.5116946,147.07837
1.4106898,147.87526
1.4408419,150.66263
1.3608065,146.73962
1.3984541,147.20804
1.3216372,151.07033
1.3134537,150.25772
1.3015308,147.66692
1.2742893,145.25687
1.2382146,147.84575
1.1372863,141.34943
1.1929355,135.55418
1.1296493,139.99731
1.0734072,133.92505
1.0735852,132.43161
0.9383084,122.67372
1.0204437,126.65851
1.0279194,125.29558
1.0148234,119.146645
1.014446,117.71071
0.8912365,108.99345
0.916046,108.84942
0.9420755,109.9839
0.99160105,107.24632
0.9088668,103.64726
0.928285,103.936806
0.78924984,98.16718
0.8353491,90.6355
0.7828587,89.14065
0.70445466,87.17496
0.6088595,85.63603
0.62441456,85.06386
0.6005189,80.96721
0.5623452,77.01496
0.5695318,72.48986
0.49102387,76.334114
0.41238517,69.2521
0.3102182,66.67673
0.3691864,65.10618
0.34756255,60.556694
0.42423564,57.230045
0.27921087,56.096798
0.31236452,55.577423
0.30479363,50.840706
0.28129342,47.430225
0.2428647,43.472897
0.31295332,44.11486
0.3456101,40.96437
0.27007377,42.951324
0.24047548,40.0
0.24479707,40.0
0.20440842,40.0
0.08830925,40.0
0.0687905,40.0
0.063639164,40.0
0.021846088,40.0
0.0011246671,42.322216
0.0071410085,41.400616
-0.0138222985,40.0
-0.029250849,44.13306
-0.07201386,45.840164
0.024314357,51.991573
0.08840276,53.269268
-0.05560924,51.733894
0.16766343,60.40898
0.16249306,67.24846
0.32415482,68.89262
0.38436133,78.47506
0.476538,83.56424
0.5979644,89.40647
0.7138047,90.92827
0.84897137,95.16677
0.83714503,102.126884
0.91074294,106.88646
1.0254488,112.86929
1.195448,117.67169
1.2069545,120.57404
1.3052821,122.23127
1.2550496,127.68285
1.3692126,129.76294
1.4080426,137.98732
1.3709507,142.81322
1.4404639,136.62329
1.2640562,140.79416
1.501969,142.63153
1.4428655,145.03421
1.337799,145.47932
1.3353868,151.62315
1.3502258,148.79753
1.3808237,147.8685
1.3036697,147.23254
1.3204234,148.34372
1.2201765,145.82541
1.2471496,143.71349
1.2615021,141.07645
1.2169734,136.28926
1.1641004,140.29031
1.0791686,138.57889
1.1643384,135.64078
1.1425291,130.13196
0.98607177,129.17075
1.0745438,128.0046
1.059624,123.89332
0.92867386,121.49797
0.979746,115.3052
0.9516171,111.37995
0.98532045,113.08015
0.9860801,108.568924
0.9815873,104.862404
0.9611671,104.57292
0.9078099,98.023155
0.89724135,98.37183
0.8098445,95.81196
0.7689255,91.74807
0.712537,90.72284
0.6874983,87.0814
0.72491854,85.90328
0.67630905,78.61402
0.63369864,76.800674
0.5472983,76.23055
0.5966213,73.116875
0.60968703,69.452065
0.5063734,66.39137
0.417633,65.07098
0.3865049,63.11005
0.46352646,58.181744
0.3545566,55.69564
0.54602253,57.101864
0.3971216,52.903618
0.36878496,47.611122
0.42801812,46.82998
0.360429,46.584137
0.42382923,42.11183
0.48393285,40.0
0.28846577,42.553284
0.32072222,40.0
0.30540773,40.028706
0.34010947,40.0
0.21950087,40.0
0.2355474,40.0
0.1727793,40.0
0.11934086,42.722282
0.13184473,40.0
0.098739244,40.0
0.03859317,45.439335
0.07779944,49.617596
0.103059754,49.935265
0.1712605,56.1167
0.19521819,56.819965
0.3232567,58.24088
0.38062993,65.23287
0.45630315,72.884514
0.5629527,73.64201
0.6809768,80.13259
0.7585915,86.63628
0.91757774,90.68855
0.9437765,96.46486
1.0128223,97.64567
1.1623433,106.30201
1.2695929,111.92097
1.3450848,115.24865
1.3352991,117.668106
1.421767,126.20176
1.4598415,130.11826
1.5497398,127.90057
1.5650053,136.5822
1.5285856,141.14334
1.6394169,144.87025
1.6610383,142.46852
1.6000106,145.87044
1.6314809,152.74396
1.5987726,149.57243
1.5262134,147.6698
1.5824151,149.48836
1.59562,145.51152
1.595916,148.4288
1.5849847,147.77167
1.5264368,145.02754
1.5137674,143.5037
1.391878,144.73187
1.4890292,140.46693
1.4261388,138.23024
1.323626,136.50616
1.2521385,137.32654
1.279057,130.68166
1.2007222,128.99245
1.304565,128.9114
1.3221574,125.161194
1.2444215,118.77629
1.1128933,119.738174
1.2216734,112.1963
1.2236348,110.24367
1.2930357,109.76725
1.1941977,107.32638
1.2157514,108.11715
1.1294198,102.133865
1.1750793,99.04045
1.1787682,95.41612
1.0975592,91.45296
1.0482624,86.69671
1.0809116,89.458435
0.91765034,82.323456
0.98293024,85.16905
0.96861,81.24281
0.90924966,76.13085
0.86675125,74.51412
0.84886914,74.66764
0.7391414,69.92845
0.72527826,63.280098
0.6759928,62.544296
0.73894256,58.561512
0.7564491,58.206722
0.69497365,56.151146
0.79316425,50.860554
0.77773815,51.879066
0.7487246,48.0072
0.7622553,45.231583
0.80180556,40.473846
0.7444337,41.383503
0.696501,40.45975
0.6845057,40.0
0.61038023,40.0
0.6182206,40.0
0.4397838,40.0
0.46994025,40.0
0.4359732,40.0
0.47365808,40.0
0.4064453,40.0
0.43173072,44.32833
0.4115742,43.84469
0.52838457,48.26525
0.46802607,48.310406
0.5034345,51.948193
0.60815537,59.966476
0.66413057,61.512943
0.6679939,68.23096
0.79761565,67.56505
0.909578,73.913345
0.95802915,74.76694
1.0676892,86.559204
1.1584533,91.979675
1.2021452,95.42438
1.3227715,98.695335
1.4543984,108.10168
1.4882166,110.517334
1.6024064,114.943756
1.6784474,119.036545
1.7488163,122.32877
1.7788051,130.85123
1.7973214,132.8916
1.8457378,133.97609
1.8330221,136.90404
1.8892832,141.1787
1.84214,144.2737
1.8309884,144.2899
1.8598558,143.05327
1.9082254,143.67169
1.9221342,144.03328
1.8372377,144.79001
1.8674595,146.98785
1.7877821,147.07324
1.8007457,151.40504
1.7586405,145.08614
1.7602663,141.36194
1.746895,138.1077
1.7208635,141.40955
1.6705825,141.08879
1.697693,134.73984
1.5387695,140.05185
1.6589919,134.80634
1.5722169,127.91402
1.5694385,128.70148
1.5458534,124.97744
1.563582,125.50175
1.5476382,118.00652
1.4414043,115.85601
1.5051576,115.207245
1.4538819,109.76588
1.4842155,110.47668
1.4607459,106.598656
1.4325926,104.87871
1.4817501,99.765015
1.3708123,92.99908
1.4165498,89.760254
1.2818947,95.27746
1.3523723,88.0067
1.3173226,84.519264
1.203463,80.00755
1.1080971,81.731865
1.0974245,74.48577
1.0616801,74.47955
1.0779241,74.43412
0.9796072,69.5945
1.0635648,63.953087
0.9403579,64.30752
0.89214027,58.11008
0.8795986,58.890633
0.9459506,57.940254
0.90195173,51.08536
0.95204175,52.4336
0.9541215,48.288177
0.9697509,47.181835
0.8957896,41.114075
0.86990076,40.342323
0.87108845,40.0
0.8862075,40.0
0.83095783,40.0
0.761718,40.0
0.65948164,40.0
0.7073378,40.0
0.7695434,40.0
0.6114608,40.0
0.65972954,40.0
0.5122907,44.256317
0.5311443,40.0
0.42862222,46.481354
0.55041254,47.02377
0.5839748,49.19477
0.72581285,55.535587
0.72647196,59.722343
0.7589062,63.917526
0.8370958,65.87253
0.8138777,72.11673
1.0785542,79.996086
1.1834239,81.05271
1.1809294,81.91287
1.3099718,89.81589
1.469621,94.36209
1.545236,105.94954
1.5776381,108.00776
1.7633656,113.092155
1.7172369,117.80869
1.8563322,117.95639
1.8930315,130.11917
1.8423823,130.04686
1.8038173,135.99953
1.8503084,137.27066
1.9563918,134.87366
1.977442,141.34369
1.9064214,146.84952
1.9744046,146.59251
1.9547038,147.29788
1.9910665,150.84615
1.9511057,149.28412
1.9679041,142.47318
1.9000657,152.29869
1.8271163,149.4474
1.9103367,151.08833
1.8638234,144.86696
1.819502,142.94742
1.731184,142.16089
1.7449683,143.87453
1.6529751,137.50714
1.5618899,137.71143
1.5512156,132.16304
1.4881611,130.54054
1.5118072,127.81228
1.5127972,127.707565
1.5679079,119.145065
1.4003949,121.309746
1.4456453,115.98969
1.4213248,114.32069
1.3240042,111.54181
1.3693378,113.07904
1.3595777,103.31308
1.3403435,101.032616
1.3664823,96.027405
1.2730312,95.231
1.3029407,92.33147
1.1906857,89.43466
1.2234563,89.26812
1.1701187,83.32113
1.0538476,81.94572
1.1606512,83.42107
0.9570535,77.995224
0.97122264,76.40102
0.94310266,70.35848
1.0012867,74.11624
0.89681745,65.545586
0.8997777,59.177307
0.8297184,61.384647
0.8245046,58.995487
0.85767114,56.2189
0.7625926,52.05483
0.7478684,47.086395
0.7478564,50.189713
0.73783493,48.350906
0.75476116,41.868893
0.8208985,45.911083
0.7279599,42.528534
0.7432241,41.33263
0.62127817,40.0
0.66879314,40.0
0.6194977,40.0
0.5194448,40.0
0.4990709,40.927013
0.37527484,40.0
0.38609883,40.0
0.40566233,40.16763
0.34717634,40.701828
0.37927204,45.712193
0.34441704,47.783962
0.4301468,50.468956
0.38688147,53.84865
0.45261034,56.52653
0.6093263,62.768124
0.67245203,66.37465
0.687181,72.884254
0.8374035,76.46116
0.9515075,81.71989
0.97369754,84.08873
1.135694,90.97607
1.2656468,93.59891
1.3438363,100.985115
1.3245697,110.795006
1.5420258,111.745834
1.5300404,117.34265
1.5917287,119.396645
1.5727146,124.799484
1.7458543,128.777
1.6273537,133.88393
1.6826098,134.22682
1.6788529,140.6064
1.6964135,145.32938
1.671487,142.22934
1.6993192,144.90228
1.6764653,145.54457
1.733926,145.13582
1.6982869,150.2237
1.6634682,145.91203
1.6534998,149.4944
1.6905547,146.80779
1.5693425,146.51306
1.5126626,147.25131
1.5220616,145.65921
1.4990833,145.32124
1.4290048,142.71973
1.3683493,139.72594
1.3198913,136.62823
1.3977132,134.35602
1.2622255,134.09148
1.2499036,131.5537
1.239755,128.42847
1.1247317,122.19613
1.2757863,118.7081
1.1493577,120.22984
1.1357701,116.84301
1.1263143,110.49102
1.1141882,110.829
1.1834906,106.65419
1.1974257,105.20056
1.1096125,99.02581
1.0263944,99.97723
0.9507117,96.534744
0.8945727,90.83028
0.92740536,91.29933
0.8482558,85.98157
0.7904547,83.83205
0.79428023,80.80434
0.74253386,76.6381
0.79012465,76.58567
0.6410987,71.85235
0.538039,71.07269
0.5542515,65.41714
0.51675665,65.97091
0.40528738,57.688583
0.5054152,60.51405
0.46149927,58.225414
0.52033097,53.50672
0.47204897,48.048805
0.45216227,48.429554
0.49975327,46.736786
0.41224268,44.026012
0.4828137,44.564823
0.42549852,40.0
0.40273777,40.0
0.32175735,40.0
0.3335494,40.219025
0.319991,40.0
0.34600538,40.0
0.17927788,40.0
0.11238843,40.0
0.13371938,40.0
0.12122057,40.0
0.026982008,42.015987
0.053688213,43.231876
0.08897153,45.324844
0.019596817,47.942333
0.1081673,55.965935
0.22689435,55.48069
0.28306785,62.86867
0.34497836,66.86095
0.364699,68.72414
0.5558122,75.47679
0.56152254,81.53083
0.6850067,82.80776
0.75256914,87.14711
0.86793077,96.75063
0.9190174,100.84873
1.0368397,106.76965
1.1334374,108.28268
1.1815482,112.45112
1.2457688,119.62065
1.2960775,126.998795
1.3267586,128.0444
1.3490407,129.76091
1.4395527,139.61821
1.4368563,142.42116
1.3955857,140.50513
1.4408737,145.29831
1.3191758,145.48668
1.3452082,144.13968
1.4667443,148.46716
1.4534104,144.85518
1.4862485,152.61432
1.4366443,146.26448
1.3438032,147.4039
1.2484797,148.7448
1.2391812,143.9731
1.2146585,144.24567
1.2120101,143.58694
1.1987623,140.28003
1.2281693,138.84514
1.0635207,134.54744
1.0511698,139.31702
1.0301124,132.30714
1.0124835,125.707054
1.0500897,125.11551
0.95793843,127.37185
0.90341645,123.068275
0.9419271,118.76947
0.91134626,115.27101
1.0231109,117.07132
0.9137887,110.71106
0.8513393,104.05069
0.86029756,104.41339
0.83291674,97.57053
0.838161,103.393364
0.9050958,96.21054
0.78225183,93.22726
0.69685376,89.149506
0.6185778,89.58102
0.5393238,84.67415
0.61923355,79.63612
0.6079063,81.56113
0.47367617,76.89053
0.50794137,71.66036
0.45731685,65.68203
0.4414294,67.75636
0.3920187,67.68129
0.39256722,62.69679
0.2419321,58.31484
0.35176423,53.891003
0.33857545,53.833633
0.32213745,48.50649
0.29012468,50.78913
0.38053316,45.118786
0.34378728,48.41945
0.3320172,40.0
0.18501039,40.0
0.3003584,40.0
0.17893337,40.512535
0.24205758,40.0
0.12220369,40.0
0.16172357,40.0
0.07448514,40.0
-0.04003191,40.0
-0.08145525,42.834843
-0.0332449,48.255405
-0.09710354,40.83999
-0.08956777,44.95787
-0.036171533,46.038082
-0.07165266,51.72186
0.061171412,52.777473
0.043315448,59.05177
0.11307681,60.599445
0.2980569,60.92418
0.27789083,68.141266
0.3616077,73.576256
0.46893236,81.31482
0.59673285,84.588684
0.66363513,89.47678
0.8493398,93.86154
0.84875023,102.236206
0.96436465,98.68529
1.0438404,109.044334
1.1626486,113.6418
1.1674879,117.22818
1.1399738,120.38306
1.2470691,126.41302
1.3727565,129.75064
1.3538523,133.20822
1.3707153,134.60081
1.3809584,136.09506
1.4687129,140.41081
1.3458831,144.521
1.370892,146.68216
1.431109,148.35347
1.3592452,148.44446
1.3928415,146.57903
1.4384098,147.58856
1.2674488,149.75958
1.2619686,151.44783
1.3765708,144.88287
1.2537819,145.55193
1.2277343,146.27492
1.2364204,145.2754
1.1989287,141.14214
1.1776326,139.5511
1.1522589,135.24236
1.0700388,131.1839
1.1203488,133.0992
0.9389443,130.41194
1.0870973,127.93428
1.0554031,118.39395
0.982178,117.60517
1.0155791,118.20403
0.96862507,115.44413
1.0038319,109.52448
0.89849293,111.0165
0.9287969,107.60718
0.80727637,105.402275
0.9323807,96.04816
0.92965347,96.919525
0.9176035,90.65982
0.8020768,94.0588
0.73422074,89.01484
0.7952817,84.96871
0.8203585,82.77642
0.8269367,80.0474
0.51760435,72.96062
0.58724403,76.03397
0.56304187,70.60526
0.5559822,71.010925
0.4761615,67.19592
0.49624804,64.292854
0.4796465,59.17573
0.38150448,57.712696
0.44810846,56.79493
0.4296203,51.203606
0.46262285,51.39888
0.4088893,44.41039
0.48227826,41.383385
0.42588657,42.591587
0.41314358,42.221756
0.40652898,41.24911
0.3991743,40.0
0.38999104,40.6005
0.32740954,40.0
0.22569317,40.0
0.19951868,40.0
0.22717312,40.0
0.1477,40.0
0.048965033,40.0
0.12533902,43.99867
0.17755203,43.067055
0.11738902,47.023247
0.16482703,47.834167
0.17690113,50.7975
0.22610314,57.011406
0.32142848,56.670685
0.4102897,64.60487
0.5367048,67.4326
0.60234004,76.023994
0.69137436,73.06057
0.7165625,85.66243
0.8013668,89.113945
0.95343614,94.69965
1.0374482,97.21748
1.20418,102.6404
1.2597163,108.71692
1.311634,115.823296
1.4413502,120.22693
1.4880768,122.62735
1.4784286,127.068275
1.5441144,128.68826
1.5940078,134.54208
1.6373627,139.61287
1.5637212,142.03398
1.7186066,141.11604
1.6361465,144.50224
1.7372513,142.7259
1.7346455,143.38039
1.5599308,146.19357
1.7439117,148.06197
1.5829316,150.34859
1.5965737,147.93288
1.5604519,147.23041
1.5595573,147.47438
1.5115788,148.32954
1.4682468,141.69708
1.4983509,145.13232
1.4946116,139.63097
1.3961905,141.88428
1.402941,136.52646
1.3526579,131.62755
1.3793848,123.60996
1.2825034,129.24765
1.4113824,126.93234
1.1872197,126.52666
1.3306717,120.88093
1.3104339,118.75515
1.2993162,109.99258
1.2281536,109.416916
1.3018298,107.36588
1.1558526,107.994316
1.1879979,100.596886
1.2029389,96.344925
1.1951689,97.947586
1.1776613,96.56738
1.0724441,90.82832
1.1021888,90.692024
1.069128,87.91827
1.0025496,83.289635
0.9717895,78.46212
0.84313256,80.72499
0.9429503,77.504036
0.8733369,70.23408
0.92052907,69.0273
0.6735387,64.905945
0.70591575,62.541965
0.78470635,59.90114
0.7176331,55.561474
0.78909034,60.873215
0.75025666,49.771976
0.72422457,52.071865
0.81475556,48.751244
0.7188031,45.507355
0.7170105,42.17772
0.77746993,40.0
0.68488085,43.360474
0.73215103,40.0
0.71870744,40.0
0.604652,40.0
0.59580433,40.0
0.55923414,40.109222
0.6050337,42.40536
0.5298362,40.0
0.44418365,40.0
0.4545077,43.642914
0.37533495,44.597984
0.42421034,44.987297
0.6033225,50.66662
0.4915754,50.957943
0.55516165,52.797127
0.60904366,57.4477
0.6903653,58.65341
0.6587618,68.52439
0.94322175,72.08368
0.8831686,75.365204
1.0040762,81.07422
1.1576134,83.28543
1.256786,95.062035
1.3437651,100.54356
1.401756,103.06102
1.4861068,107.264404
1.6223384,113.47448
1.7453578,119.7323
1.6950089,122.79641
1.727053,128.48004
1.7704856,129.50375
1.7859117,131.10889
1.8740417,136.23027
1.8102441,141.83177
1.8975885,145.88608
1.9779193,145.29384
1.9764915,146.99692
1.9329337,149.68434
1.8981056,145.99295
1.9038366,152.97496
1.8862696,145.50574
1.9059355,152.35048
1.806385,148.06953
1.8384112,149.83887
1.8386056,149.81009
1.75375,144.22266
1.7779086,142.77081
1.6955782,147.17531
1.7073357,141.35385
1.6499771,136.24023
1.6150056,132.17723
1.5808902,129.64047
1.5904502,130.04259
1.5558251,128.47844
1.541783,125.70505
1.4481097,120.8375
1.5292449,118.38107
1.5639114,112.220215
1.47121,114.255585
1.4940517,111.21469
1.5287224,106.13448
1.4062986,106.245705
1.38626,100.09076
1.3524865,99.08575
1.3248612,102.61059
1.2261537,94.77348
1.3163586,87.925285
1.2486435,88.234436
1.1953621,81.14796
1.2023278,79.660416
1.1186223,77.89097
1.0981898,76.96906
1.0391814,71.26136
1.0269581,66.765564
1.0010539,61.38778
0.86971474,64.14294
0.93645614,61.843376
0.9117726,62.656742
0.8321171,52.940834
0.9460905,51.42104
0.9771022,52.61167
0.9058849,46.6256
0.8848558,45.96393
0.8734057,46.49962
0.84618586,40.976242
0.845237,40.0
0.88188934,40.0
0.8170303,40.0
0.8054005,41.11692
0.7236767,40.0
0.6526459,40.125538
0.6719215,40.0
0.6775175,40.0
0.6597212,40.0
0.53868467,40.0
0.49445105,42.928753
0.6052189,44.60848
0.6367663,46.559185
0.5996968,46.52219
0.59954804,51.817844
0.6103472,58.023716
0.7189228,61.535534
0.8046864,68.12288
0.9399279,71.71636
1.004466,76.9678
1.1548505,81.77446
1.1571473,86.062454
1.2846634,87.32622
1.3773319,99.701004
1.4601662,104.7967
1.5216284,102.82675
1.6658299,106.45153
1.6831107,114.25942
1.7132728,120.07185
1.8164783,125.36843
1.8919163,128.75047
1.7756406,131.17786
1.9130639,133.86021
1.8894132,139.91125
1.9292786,138.2072
2.0009668,144.78325
1.9744878,146.03938
1.9190564,141.57967
1.8894986,151.64847
1.9465787,149.86415
1.86437,147.59685
1.8016286,149.48418
1.7793441,151.05258
1.8321385,146.78625
1.7238914,144.49266
1.7243003,146.8113
1.7538874,144.84085
1.6770164,142.64354
1.6427325,137.51599
1.6549063,135.22942
1.613566,137.8762
1.6424798,129.86974
1.4749935,130.36183
1.4935694,124.903854
1.550618,121.74757
1.4815644,121.92289
1.4782256,116.5425
1.4830246,113.90076
1.4797183,111.58472
1.3705572,108.56096
1.3337326,106.30057
1.3516012,107.4786
1.351462,96.969345
1.2569017,103.23753
1.276184,97.686455
1.3348883,93.496605
1.1911635,87.7899
1.1183337,87.84651
1.0282837,90.76294
1.004481,83.66086
1.0379049,73.92961
0.9452497,73.17519
0.927692,75.5794
0.84838164,69.610634
0.9186923,66.2633
0.8204266,61.58657
0.7776029,65.33234
0.82900727,59.427345
0.7455792,55.9363
0.7597346,53.565258
0.7522691,51.191013
0.81948996,49.13949
0.79338676,42.276096
0.7620062,44.528618
0.7699203,42.690105
0.752169,41.83825
0.71235013,40.0
0.52585524,40.0
0.6292304,40.0
0.58036524,40.0
0.47297937,40.0
0.4700939,40.0
0.47220513,40.0
0.36080378,40.0
0.43619937,40.390186
0.34892035,42.996067
0.27707654,48.663174
0.30249515,48.706295
0.38107067,50.09271
0.31961015,55.791786
0.52605724,59.907166
0.50748104,60.74938
0.515373,62.29498
0.60266256,67.11518
0.7138236,73.40234
0.8397413,76.93058
0.9149619,84.48454
1.0249832,92.979935
1.0731773,97.44694
1.2214406,99.51447
1.3310288,107.35728
1.3145941,112.57662
1.4464602,114.72452
1.5386168,119.91018
1.6562724,126.98601
1.6463008,128.64664
1.571039,133.38489
1.6584569,136.23294
1.6492705,133.49557
1.7008307,140.25043
1.7047021,146.48994
1.6889664,144.178
1.6248393,149.35123
1.7491167,152.2167
1.6176912,148.69394
1.5698541,152.41484
1.5839915,149.29872
1.5586491,147.37509
1.569825,148.37256
1.4977845,147.12372
1.528199,145.09975
1.4090303,143.18094
1.3362119,136.88084
1.3883716,142.96432
1.3345631,136.61636
1.3145752,131.75699
1.3222946,130.8606
1.160918,129.66432
1.2188296,124.90379
1.1485244,122.84078
1.2016699,123.50948
1.1523178,117.51928
1.1867313,117.81159
1.1708126,112.72415
1.0785435,110.913765
1.0737603,105.4872
1.0829955,100.98735
1.0010227,100.9926
1.005711,95.3255
0.9027156,95.641426
1.0398625,93.97489
0.835184,92.976204
0.8298989,88.12799
0.8368297,85.99319
0.8264987,82.24599
0.6600178,81.30254
0.78845173,77.68036
0.5782258,73.10783
0.5952522,69.18047
0.47242063,67.46363
0.5893422,65.73034
0.40956506,64.03123
0.4744065,57.799843
0.48278052,56.831043
0.4352077,49.56351
0.44810256,52.47989
0.48498443,47.24359
0.45639753,45.60244
0.43744582,49.020657
0.47893667,42.747498
0.3516063,42.1137
0.3854662,40.0
0.37555552,40.65853
0.32599035,40.0
0.35326746,40.0
0.23529568,40.0
0.17100427,40.0
0.064061105,40.0
0.026300102,40.140163
0.12181982,40.0
-0.026185554,41.636913
-0.065019235,41.430695
0.04135176,47.65475
0.08037643,47.26859
0.1607561,51.73003
0.13519917,55.346203
0.20502071,58.664356
0.2421001,63.41265
0.3137602,73.158905
0.3812568,73.186424
0.4870057,77.85692
0.5947062,85.43094
0.6222293,92.78937
0.8327798,93.23773
0.8925142,94.914894
0.95289195,102.24558
1.1463884,107.79464
1.1959075,111.9647
1.255922,119.68202
1.2060033,121.284706
1.3599308,126.166435
1.2989944,135.15857
1.3175907,136.08696
1.4147601,135.17824
1.3598183,142.02849
1.4942265,146.34009
1.3855702,146.02322
1.3978865,146.33257
1.3554734,143.7407
1.3841522,146.80275
1.3188844,150.04266
1.290583,151.65874
1.2072176,145.04532
1.3037901,150.5366
1.3356057,143.93176
1.2356765,142.81421
1.1350366,146.42953
1.0631038,143.07071
1.0909542,136.7476
1.1368009,137.20116
0.9940164,136.63147
1.065734,134.53543
1.1070242,133.34068
1.0243425,128.9739
0.9426517,119.36785
0.95805526,123.76461
0.94280416,119.42421
0.9021252,117.19181
0.96215343,112.31084
0.8433736,111.78851
0.9297213,109.41705
0.9099794,105.98654
0.98074424,100.12291
0.88163424,99.70185
0.7679797,98.05525
0.72232455,97.70866
0.785776,95.36587
0.70708495,86.373436
0.6712704,83.298096
0.6440326,81.79288
0.49571866,78.01681
0.4557145,78.05141
0.46774122,71.99598
0.3466077,68.49241
0.4535876,68.07621
0.36360914,66.375206
0.3635093,63.277805
0.37183127,57.802708
0.2677026,55.67386
0.3349215,54.541676
0.37046912,50.31705
0.38403887,45.537086
0.26522192,51.38048
0.3376682,47.202606
0.2786548,44.95431
0.3332465,40.411167
0.306608,40.0
0.22924674,43.442726
0.26842427,40.0
0.23443258,40.0
0.07473091,40.0
0.106785685,40.0
0.080038555,40.0
0.030578403,40.0
-0.08213585,40.0
-0.023529928,40.0
-0.034584474,42.771626
-0.08247802,41.466892
-0.084752515,48.184525
-0.0026722867,53.83051
0.034685735,53.1466
0.03887897,56.703003
0.17535865,61.277477
0.29783514,66.52298
0.33458602,73.80961
0.4087289,77.33718
0.5852565,79.04211
0.6498287,88.628845
0.7598952,92.052475
0.8382497,98.36381
0.96306056,108.37818
1.1073589,107.88216
1.0796458,110.40896
1.1603622,115.90651
1.1526686,121.93956
1.2092798,125.88361
1.3964434,128.77412
1.313149,135.65154
1.2773404,138.8602
1.3205822,136.58308
1.4071822,139.53342
1.4056628,144.6644
1.4093447,147.25078
1.3758216,146.55702
1.4249173,148.18245
1.3363171,148.04163
1.371302,149.45479
1.411256,149.08653
1.3340673,148.48125
1.2935162,145.9084
1.3143942,143.36812
1.2803248,141.63614
1.3310554,140.86032
1.140031,139.9951
1.1346811,141.61954
1.195235,137.86404
1.0970542,135.06812
1.0566964,130.71579
1.028549,127.33263
1.0513113,125.30099
1.0338451,118.35189
1.0080558,119.61173
1.1084999,117.496376
1.0903467,119.63398
1.0025706,113.17642
0.9485415,106.971466
0.94840586,105.07642
0.93831867,104.34287
0.8834489,98.122055
0.9959182,95.67612
0.9931499,96.01214
0.8527815,95.21523
0.81825507,89.57314
0.703824,85.48143
0.65982705,83.87731
0.68929857,81.740776
0.70608455,78.312126
0.6143918,78.86142
0.60657644,72.32233
0.53547573,70.69989
0.5483497,66.48447
0.5030419,64.69423
0.49058077,67.095406
0.42619544,57.98149
0.4915258,56.820038
0.44996086,56.67437
0.58526987,50.29998
0.3549663,50.233913
0.54512995,44.408882
0.539352,45.73371
0.49294072,44.913895
0.5443811,40.0
0.50720674,40.0
0.46386304,40.0
0.42630592,40.0
0.36696863,40.0
0.2637476,40.0
0.23354231,40.0
0.22797467,40.0
0.28439367,40.0
0.15543349,40.350384
0.16497909,40.556797
0.233188,42.494797
0.1591051,47.29483
0.20861042,51.04215
0.2878648,54.86565
0.34302548,60.789227
0.41483083,62.942158
0.47360587,69.95986
0.5588416,72.52973
0.785541,75.41096
0.828784,79.57614
0.8422472,84.16159
0.99735373,95.973114
1.1257348,97.91786
1.1568227,101.413216
1.2098294,108.095924
1.28007,110.3456
1.5538759,118.669235
1.5109456,120.55579
1.5599227,127.06451
1.5796291,131.8661
1.6134793,137.55998
1.687526,138.3752
1.7182871,140.65512
1.6954777,141.00533
1.689232,143.22604
1.6228118,145.48865
1.6888695,144.82217
1.6770918,149.57837
1.6854799,148.21808
1.7590934,149.79553
1.6979028,146.38237
1.6218303,151.01776
1.6042908,147.25945
1.6011657,147.0658
1.4700532,144.95483
1.5023317,146.2842
1.5253936,141.71712
1.4484552,136.1718
1.4779716,139.48775
1.3489212,136.42583
1.4112363,132.09807
1.395091,125.51409
1.3283525,126.98277
1.424752,120.36178
1.3393341,121.414795
1.2688885,117.05969
1.290349,114.91611
1.3790975,110.94237
1.3355261,109.14135
1.2514776,105.51998
1.3011696,105.46232
1.3718334,101.03586
1.2098885,100.814545
1.1633239,96.23692
1.2545046,96.072
1.1780752,92.07581
1.2002997,83.446236
1.0852348,84.34327
1.0800216,76.273224
1.0485628,81.8637
0.93655926,77.73989
0.9257559,73.16277
0.9274709,65.5641
0.8232401,70.65175
0.8169365,63.222107
0.7951938,64.13365
0.80271506,57.71048
0.8487704,54.988743
0.7668774,53.25442
0.73356193,51.96271
0.8130912,49.206497
0.79250944,50.929146
0.7984483,46.36494
0.756885,41.60769
0.7864509,40.0
0.7951067,40.524845
0.7513039,40.0
0.5996526,40.0
0.6189597,40.0
0.6477162,40.0
0.6035135,40.0
0.5429336,40.0
0.5601964,40.0
0.4571872,42.227196
0.52444106,41.172337
0.5136427,40.0
0.4820803,48.516182
0.46290618,48.671703
0.61078024,55.451397
0.6748421,60.908073
0.63785183,61.139915
0.7479661,63.582474
0.81693953,67.84692
0.89776874,74.87057
1.060275,82.05035
1.1555659,85.15226
1.2601069,92.66957
1.3601481,91.87733
1.3769492,102.13842
1.5567232,103.11366
1.684006,111.69382
1.7388718,115.50645
1.7254728,116.92343
1.7860485,126.18488
1.8195827,127.59394
1.8305025,131.65771
1.876931,134.55148
1.9466033,135.80148
1.9330617,141.0354
1.9364492,143.92442
1.9356414,151.18854
1.9983159,147.9948
1.9408494,151.8066
1.8943281,148.84962
1.9043071,148.20291
1.9220842,147.70288
1.8525405,151.94148
1.8212991,150.30615
1.8299092,144.5191
1.8063049,144.77182
1.7953537,145.70056
1.7115719,143.2136
1.7241979,141.02779
1.7282933,134.6084
1.6004252,137.55943
1.6637421,132.33089
1.559317,131.4181
1.6383724,130.61569
1.58908,122.07863
1.5925617,120.54217
1.4244294,117.75931
1.465989,114.61044
1.4324988,115.36513
1.4775367,112.84987
1.5681123,104.31419
1.4544247,103.09802
1.4846026,104.48126
1.3935437,94.79477
1.3620934,98.00532
1.3794901,95.69582
1.3579118,88.26412
1.209189,87.54107
1.2530286,86.11248
1.1930425,83.682846
1.0757029,83.42836
1.0424032,76.46111
1.08571,73.21884
0.9770642,73.46642
0.98757315,67.99831
0.97814834,63.70536
0.92323184,60.711098
0.84376484,61.524025
0.8980783,55.492126
0.9446241,51.70977
0.9195299,52.89142
0.9595155,50.493748
0.9069867,45.43872
0.9622593,40.0
0.8387482,41.200825
0.9024172,43.0184
0.859381,40.0
0.8503296,40.0
0.8211442,40.0
0.6968384,40.0
0.70159423,40.0
0.57064265,40.0
0.62027955,40.0
0.6078393,40.0
0.5708601,40.0
0.5882976,46.137806
0.53385484,42.99406
0.49420872,46.166634
0.4441568,48.444366
0.60563195,55.65256
0.6031896,56.60153
0.638817,62.708954
0.7250079,61.03095
0.8415059,67.19123
0.9345509,70.39781
1.0517745,80.6167
1.2160966,85.951904
1.2195637,90.018295
1.2523086,89.030266
1.3287718,99.07829
1.4517686,104.09963
1.6032959,109.956856
1.590142,114.83797
1.6762797,115.7541
1.7658442,119.26773
1.8188552,126.75855
1.8272626,128.88948
1.9617598,137.43571
1.8785365,138.44852
1.9561387,145.41965
1.8252488,146.45216
1.9050568,146.17258
1.9014121,147.76538
1.894186,148.45346
1.9000769,149.70818
1.9149125,144.60767
1.8659545,147.51962
1.8261937,145.29134
1.7587026,149.28986
1.7256731,148.69531
1.8062803,148.53014
1.6394696,147.74532
1.6072229,141.94957
1.6588001,143.05524
1.6258547,141.9115
1.5276413,138.61423
1.5240619,134.0083
1.4891256,129.01434
1.4906785,126.6007
1.4486295,126.360306
1.4385804,118.34487
1.4334277,118.553375
1.3969988,114.23715
1.4049671,117.554016
1.3407885,111.618866
1.3748316,106.585106
1.3598723,106.17232
1.3256726,104.9525
1.2440637,99.49336
1.2503617,93.373634
1.2433753,96.28919
1.1614448,91.61628
1.1788836,87.595955
1.1465505,84.52154
1.0806812,89.81769
0.91928977,81.04935
0.9658602,77.79009
0.86649173,72.02577
0.762817,75.14132
0.8282409,71.70615
0.7466448,63.570385
0.81366855,64.424255
0.7982628,62.56782
0.8220639,58.090553
0.68005866,53.05816
0.70130813,46.68461
0.69491893,49.998768
0.7410776,46.830814
0.72708035,41.91565
0.72802055,41.488247
0.59250987,42.153507
0.63951707,40.0
0.65458465,40.0
0.5901208,40.0
0.46934548,40.0
0.5515912,40.0
0.55336255,40.0
0.3860181,40.0
0.35130787,40.0
0.3129505,40.0
0.18525061,41.468548
0.3180249,45.997208
0.3591898,48.014164
0.30037814,46.28059
0.3514269,51.294178
0.34796456,56.123753
0.3655257,60.013256
0.44982827,61.3353
0.5635083,69.77281
0.72530645,72.159485
0.70620954,74.82558
0.9456738,84.23817
1.0024931,89.60336
1.0083961,92.03773
1.1226584,96.739334
1.1393169,105.314445
1.328768,106.85434
1.3594974,109.80048
1.4362273,117.111946
1.3972864,121.22398
1.5198498,126.55227
1.5980192,131.86903
1.6015494,133.00175
1.5812675,142.60365
1.608541,138.69254
1.6840234,144.16928
1.5968401,145.36623
1.6424716,145.52701
1.6125728,146.51338
1.6213078,146.41116
1.6262605,148.08951
1.5910757,151.61952
1.5614729,148.79413
1.5332519,151.30905
1.4687514,148.63362
1.4119616,147.58698
1.3524617,143.43106
1.3347844,142.55043
1.3232454,141.96895
1.3070492,139.62735
1.2401416,133.54248
1.1545458,133.80104
1.1845106,131.65488
1.1888108,126.686195
1.1749614,125.56946
1.1624845,124.838005
1.0724823,120.13044
1.0215878,118.998634
1.047183,114.38059
0.9957416,110.425476
0.97512573,108.61371
0.97997093,106.58248
1.0293216,101.49589
0.9525303,101.57547
0.87952596,96.50827
0.91322154,95.73986
0.8550054,91.46796
0.88822144,87.63681
0.79424775,87.332855
0.79492027,82.55484
0.6818383,81.70441
0.6702395,77.007416
0.6722195,74.78478
0.618007,74.74118
0.45807278,71.09677
0.51526713,69.87447
0.3748733,60.08406
0.3977419,61.284637
0.47062504,53.27563
0.3340121,56.399616
0.3960094,54.292343
0.4141904,52.06139
0.41132045,45.468395
0.44986168,42.897743
0.38142622,42.489075
0.3842846,40.415188
0.41593418,42.554348
0.34294245,40.0
0.23824637,40.0
0.2824066,40.447025
0.19807227,40.0
0.18383156,40.0
0.13285422,40.0
0.10713654,40.0
-0.073280536,40.0
0.042921405,40.0
-0.054147027,43.17167
0.0022921213,50.094322
0.0040635304,47.22019
0.1064421,52.443886
0.0951259,53.537422
0.1440497,56.36511
0.18679622,64.002426
0.2495978,68.463196
0.4266281,74.05203
0.48560077,76.62959
0.5857206,81.64848
0.6523667,89.77213
0.70085496,92.91658
0.82595795,94.033714
0.94489527,106.83683
0.99007076,107.61582
1.1086631,109.53729
1.0823176,115.08565
1.2542726,121.90263
1.3276898,125.45956
1.3161199,126.59205
1.3485957,132.40607
1.2986488,139.76628
1.2782512,141.18976
1.4172993,139.65247
1.3415809,141.63084
1.3790216,144.14044
1.3708463,147.86853
1.4108837,150.592
1.3530102,147.26735
1.3643613,147.10298
1.3342235,152.00204
1.3226026,150.86247
1.2660071,146.49625
1.2713794,145.375
1.2261738,144.22617
1.2195972,141.02263
1.1140859,139.58429
1.0391574,134.54832
1.0604079,136.14857
1.0382643,131.42296
0.9635438,129.56471
1.0187457,130.06569
0.97806466,125.65769
1.0017599,127.38241
0.97812545,116.61733
1.0128726,116.706215
0.9057087,116.44261
0.90434164,112.11866
0.9670951,110.22073
0.8688766,106.994965
0.8310134,104.95437
0.87492263,101.56065
0.79746747,100.38321
0.7939473,96.253006
0.7591879,91.48965
0.83880484,94.27048
0.6636804,86.00467
0.67260337,83.29755
0.60982585,79.43535
0.47992703,77.71498
0.43641883,76.44757
0.3413471,71.13201
0.4277204,73.050934
0.38461378,70.22759
0.39922404,64.40566
0.34461486,58.75423
0.43280175,58.60042
0.2633658,56.68159
0.4255309,52.64705
0.2449542,49.683743
0.3277946,47.135113
0.35783535,44.509346
0.4359025,43.49222
0.34787178,44.637005
0.31500328,40.843513
0.2166256,40.0
0.33634013,40.0
0.16568287,40.220943
0.23945384,40.0
0.03033028,40.0
-0.010903422,40.0
0.0880963,40.0
-0.022595312,40.0
0.05361951,41.617386
-0.04067695,43.393185
-0.089274086,44.86123
0.015310441,46.716854
-0.0068681035,53.614662
0.07587399,53.528133
0.15906458,57.096474
0.12655948,63.77423
0.26777583,62.787857
0.3809927,71.41873
0.46188405,76.64493
0.5333901,79.82856
0.7386496,87.81142
0.794918,90.11613
0.84885633,96.214134
0.9225995,102.902855
1.0440574,107.0947
1.099713,111.41826
1.1715834,112.46703
1.200853,118.06474
1.2937764,125.39632
1.417948,133.90521
1.4311421,132.92265
1.3249438,139.18623
1.447901,137.05441
1.5132276,139.8343
1.424205,146.28627
1.5024326,149.14487
1.4756905,150.72012
1.4768537,148.39078
1.539951,147.88525
1.4067875,151.39769
1.3715101,150.09724
1.4142321,154.00383
1.3631494,148.401
1.385404,146.18912
1.3289112,144.1333
1.3086307,144.29343
1.1942605,140.35664
1.2568294,138.04034
1.1810529,137.50005
1.0476755,131.27937
1.1393181,129.68571
1.0558803,128.85428
0.9902895,129.35709
1.026084,121.11419
1.106745,126.23863
1.0599362,114.10495
1.0206758,120.8237
1.025677,111.020905
1.0619146,107.20133
1.0900908,110.15198
0.9819677,103.71943
1.054291,97.43792
0.91933,99.0982
0.96109664,92.866066
0.9477822,92.99189
0.8864504,85.03723
0.8963048,90.24844
0.7496717,86.4274
0.72416395,86.3213
0.67075217,75.138565
0.5605268,75.640366
0.65118194,76.978096
0.5681414,74.87954
0.6145875,64.48157
0.61466676,63.051876
0.55464065,62.785828
0.61360633,61.050488
0.5963077,56.993942
0.491542,53.083485
0.57998854,50.149616
0.5324279,50.29691
0.5566735,44.860703
0.5050981,45.36486
0.57449365,40.0
0.47705254,40.0
0.42408788,40.0
0.48082632,40.0
0.4104244,40.0
0.46295142,40.0
0.36290187,40.0
0.29419696,42.430927
0.32648563,40.0
0.27969667,40.0
0.24893108,40.0
0.14176486,40.0
0.2759789,42.035534
0.21418501,46.80836
0.32152802,49.475502
0.30919936,53.792046
0.42367727,57.47312
0.4127036,60.41178
0.5215868,66.48602
0.61067384,66.85882
0.69909585,74.55787
0.81316876,80.65244
0.8228781,84.619446
0.9719944,86.03231
1.1112493,92.05344
1.2680067,100.033714
1.2895615,106.46845
1.301353,110.190575
1.5089135,111.031586
1.5251317,121.50261
1.5741407,119.978035
1.4986329,126.05015
1.6237442,127.620186
1.6384801,136.88293
1.6404531,142.00446
1.7662488,141.02794
1.7409066,141.55473
1.7821747,144.10825
1.78219,144.05157
1.7564337,147.39899
1.6918552,150.78627
1.6609434,150.35931
1.7008723,146.21272
1.7059749,149.72977
1.6630911,146.05162
1.7129564,144.12592
1.6158326,148.1842
1.601378,145.12294
1.6060752,139.5817
1.5594242,137.97064
1.5765147,141.94658
1.4382023,135.058
1.4437584,134.23488
1.420999,127.114365
1.3637257,124.84453
1.4992129,123.70463
1.4081308,121.5366
1.4238094,114.56906
1.3291005,116.0706
1.4610478,113.16614
1.3479877,108.75369
1.305287,105.02001
1.3171554,108.753204
1.2982609,104.206696
1.3174678,100.209885
1.2716757,100.0498
1.2424042,93.6475
1.2145952,91.91001
1.1680657,88.56847
1.0808452,87.087456
1.053567,80.694626
1.0776374,81.059784
0.9531271,78.287056
0.88108975,74.00036
0.8409348,67.92238
0.86790574,67.529854
0.7940649,62.650356
0.77307737,63.24373
0.8476856,59.588306
0.90158594,59.20651
0.8930213,51.888523
0.8181565,50.797886
0.75541174,50.762592
0.79310644,51.234318
0.73978645,44.131504
0.8811315,41.7604
0.8531003,41.60172
0.799701,40.0
0.8584258,40.0
0.69111437,40.0
0.7093512,40.0
0.70452565,40.0
0.64137906,40.0
0.5053277,40.0
0.54122096,40.0
0.59667605,40.0
0.5257895,40.0
0.46479052,44.89403
0.46209496,42.836105
0.5202015,49.91237
0.5747723,56.454933
0.69811326,53.21839
0.683266,58.064617
0.76387167,62.519966
0.8557517,67.873505
0.96243644,75.99723
1.0082715,81.12663
1.1475406,84.32176
1.1901994,86.93592
1.3750155,94.47176
1.4585478,98.960976
1.5052978,100.23228
1.6512102,106.02769
1.6933084,112.74875
1.7280747,119.063705
1.7895507,126.33736
1.8264081,125.785614
1.8046623,131.36867
1.8735634,135.8628
2.005476,137.45403
1.943252,138.44382
2.0572429,137.31195
1.8815979,145.99721
1.9843718,147.76031
1.9887196,148.65634
1.8845156,148.31604
1.9658995,151.09209
1.910433,148.29584
1.9248574,146.83307
1.9262474,147.71622
1.8574643,146.36221
1.8528347,147.16455
1.7921754,143.93095
1.6841806,142.39125
1.7394426,137.94484
1.6956412,137.9956
1.5736214,136.79703
1.6451122,134.44994
1.547801,129.44339
1.596454,129.54706
1.568929,120.53671
1.4516174,125.365776
1.5244333,120.27829
1.5340685,118.225845
1.5940467,113.25067
1.5168313,108.711044
1.4570911,107.13305
1.4295926,102.97297
1.4676564,103.210594
1.4309385,103.28324
1.4033806,98.61163
1.3514079,92.866875
1.4301902,87.62886
1.2894804,83.695915
1.2538185,85.046844
1.2122647,80.52271
1.1372954,83.8628
1.195906,76.77997
1.0159073,75.92939
0.93687534,73.1259
0.94243366,69.6683
0.93274856,65.79543
0.9300385,64.38007
0.9812686,60.108475
0.9215869,56.019314
0.9105113,54.239403
0.89519596,57.057594
0.9405425,48.972645
0.8872926,44.259018
0.95912194,46.7274
0.8485712,42.949623
0.8553984,42.800636
0.77917343,40.0
0.8405608,40.0
0.80904055,40.61425
0.8489971,40.0
0.72904825,40.0
0.5798239,40.0
0.6376297,40.0
0.59537965,40.0
0.51249117,40.0
0.5140309,42.86936
0.55167353,46.442524
0.5047545,45.164356
0.4993878,49.277084
0.6013379,53.39046
0.5745622,54.647816
0.6006643,61.3252
0.75004387,61.92417
0.85441107,64.728325
0.9471145,71.4544
0.9609948,78.44434
1.1281697,84.18783
1.1228831,84.51113
1.2816464,90.11017
1.3465406,97.70185
1.409058,108.04293
1.4721233,107.757835
1.5738118,115.13465
1.6439693,120.63091
1.6596816,123.48566
1.7253588,124.69135
1.6881231,130.88245
1.8409449,139.11281
1.775825,139.24854
1.8140482,139.86394
1.8416628,138.08192
1.9070536,147.08185
1.9375534,145.20464
1.9560703,152.49919
1.8563745,150.69528
1.9155577,148.7161
1.8262851,149.44772
1.844592,150.9881
1.728339,147.62389
1.8223181,144.5602
1.7256656,148.52289
1.6770508,145.12605
1.6674491,146.16252
1.5711312,143.92596
1.5906053,138.90028
1.439041,136.95207
1.5578748,135.0853
1.4021469,129.13168
1.3919152,128.82312
1.3570884,126.73229
1.406072,124.46388
1.2812954,122.08588
1.3151742,116.84837
1.3453394,110.96308
1.2462413,110.33585
1.4032873,108.770004
1.3881252,104.561104
1.2675827,102.43061
1.2512313,98.20708
1.2380341,96.14396
1.1820832,95.92676
1.1667697,90.06369
1.0664558,90.57521
1.0964744,89.1132
1.0240356,86.29993
0.97561514,79.17461
0.9786773,74.9502
0.8387924,75.16417
0.816148,69.77881
0.82666403,68.951454
0.8069068,68.701935
0.7513145,66.05935
0.7970128,57.806484
0.6350472,59.28676
0.6867958,55.75719
0.69672173,53.671894
0.7512843,49.549824
0.70538527,46.803696
0.6283981,41.918587
0.6819492,43.283855
0.63091594,40.0
0.62318915,40.0
0.46546742,40.382927
0.5947699,40.0
0.5237169,40.0
0.44858196,40.0
0.5035948,40.0
0.43030086,40.0
0.25852364,40.0
0.27032894,40.0
0.23816238,40.0
0.30081457,42.93131
0.20476274,47.5755
0.2212116,49.527523
0.24360558,51.34177
0.28869832,51.322037
0.39783323,54.92841
0.4754795,62.88541
0.5360638,66.36804
0.58558244,69.822044
0.6906921,73.12025
0.7018462,82.77915
0.7951255,86.12834
0.9302708,93.89532
1.0526227,98.12246
1.1392258,104.287575
1.254327,108.15899
1.3052735,110.6675
1.4638113,117.584305
1.436133,123.838196
1.4740186,123.46795
1.4429933,127.6408
1.5196854,130.31775
1.5086795,134.26689
1.4890963,138.2764
1.5881503,142.31464
1.5994142,143.22856
1.5709968,147.65475
1.5861406,146.54291
1.4867344,147.78516
1.4310876,151.60637
1.5092564,149.19534
1.5309244,143.2833
1.4285964,150.35013
1.4738272,146.02908
1.4099319,147.48741
1.3276834,142.49246
1.4303126,145.47643
1.2847552,140.36385
1.340855,142.10724
1.1972775,134.59898
1.1667236,135.31349
1.1594949,128.21104
1.1540831,131.85933
1.1396921,126.10757
1.0775528,123.17917
1.0906484,117.869484
1.1046295,116.36363
1.0076452,113.6301
1.1028728,112.73202
0.93361306,110.809235
1.1083621,103.472015
0.9541945,108.0584
0.96066886,101.373146
0.931499,95.930534
0.9025414,94.21201
0.8963697,91.23834
0.9203447,92.59407
0.844049,85.72354
0.65219396,84.4812
0.78145003,81.06352
0.6284438,78.69812
0.52094644,78.119225
0.540526,73.25536
0.53287363,72.55816
0.42199376,65.250885
0.38190204,66.225945
0.56335115,65.41201
0.36318144,56.38692
0.33946195,56.358418
0.43625048,55.48152
0.36467177,51.752796
0.41734216,51.927124
0.36637333,46.772007
0.33129525,43.072525
0.37200186,43.481358
0.28224936,40.702747
0.26391044,42.53051
0.19436613,40.0
0.23101656,40.0
0.21174087,40.0
0.20809215,40.0
0.079216614,40.0
0.04860189,40.0
0.029726041,40.0
-0.04892044,41.65465
0.04876479,40.225277
0.028583035,45.551468
-0.083034396,45.022285
0.014211527,55.79505
0.06885424,54.45935
0.12827432,55.837276
0.13815966,61.752808
0.23122215,65.236824
0.3415916,74.86763
0.34123328,75.97831
0.5257657,82.77479
0.6878527,84.203354
0.7222804,88.49963
0.78272027,94.22395
0.8905567,101.30439
0.95151424,105.817184
1.0459543,108.80258
1.0691469,117.14611
1.1569147,116.90883
1.2509458,124.99812
1.2936255,129.67584
1.1998612,131.19646
1.3777692,135.80734
1.3621467,140.668
1.4661399,142.68158
1.3175888,143.1622
1.3249977,142.89333
1.3862405,144.20793
1.3729788,142.16727
1.3938894,151.9974
1.4286023,147.99577
1.3375702,149.34193
1.2849514,145.86644
1.2661401,147.98422
1.2101883,146.46043
1.2059914,147.31557
1.1944909,145.53273
1.075146,140.2527
1.2071259,141.34805
1.0820117,140.96492
1.0330515,133.76605
1.0176426,132.50894
0.9263279,131.3178
1.0263264,126.81056
0.9536503,122.842705
0.9114634,122.411736
0.90438724,121.026855
0.9895253,117.883965
0.9524913,112.50272
0.9444219,109.958534
0.8831489,107.87952
0.8960539,105.290985
0.83059037,100.57851
0.7776797,99.34647
0.8168419,94.51322
0.8351121,87.12693
0.66593486,92.16526
0.6172944,87.93395
0.67780906,86.96107
0.55615705,83.164406
0.52025974,78.439354
0.51619077,79.17949
0.4831724,71.03131
0.43787923,70.99487
0.37066445,68.69494
0.44946253,63.003353
0.37871245,60.602726
0.2977365,63.96353
0.31358662,54.567738
0.34258357,50.94585
0.2994729,53.41973
0.18629389,47.956017
0.3567032,43.80341
0.25475004,45.043953
0.3333953,44.04139
0.2986395,44.578854
0.32852685,40.0
0.25630197,40.0
0.21868907,40.0
0.19201368,40.0
0.17105746,40.0
0.17162699,40.684322
0.081987485,43.040916
0.07030862,40.0
-0.015486678,42.167995
-0.013996139,40.413334
-0.013463896,43.080986
0.07442863,46.947666
0.045174077,47.672874
0.03644822,51.838017
0.1493602,58.272648
0.11967233,62.98633
0.2566828,64.95751
0.35285544,66.45187
0.40417144,79.401115
0.52690274,77.092285
0.58389467,82.481224
0.735597,88.23063
0.77244514,91.35879
0.95238125,101.622826
1.1208699,105.68424
1.087655,108.703445
1.2031105,113.57871
1.2306873,119.73761
1.3272061,123.8099
1.322694,126.86505
1.2629153,130.36804
1.3810767,131.51173
1.4398013,138.83391
1.5060768,145.7923
1.4793642,144.56613
1.4719025,145.19049
1.4551708,146.48827
1.4846208,148.5429
1.3891908,147.24228
1.4835637,150.79012
1.4389676,150.6087
1.3472308,150.28513
1.4234157,146.28862
1.3662024,149.54979
1.4434937,144.47037
1.3796024,145.96613
1.3047955,141.21262
1.2554797,138.48546
1.1869737,135.22726
1.1178209,133.6409
1.1468948,134.46414
1.2189125,129.63463
1.0989317,128.97649
1.179838,126.5274
1.0801126,123.9695
1.066648,117.695206
1.0496058,113.40988
1.0591965,116.49892
1.0741664,111.9318
1.0019165,110.61189
0.95074,103.40671
1.0375818,103.04931
1.0642192,99.106316
1.0175663,100.01764
0.93983394,95.3259
0.9291482,88.575966
0.92912114,88.09841
0.88303375,84.9642
0.902444,78.06243
0.72074443,82.81275
0.7093007,76.32458
0.75640607,72.5325
0.6281288,69.400955
0.7116584,66.53522
0.6393693,63.83394
0.5945145,64.65103
0.5352269,62.702835
0.69664276,58.340305
0.5909753,55.43863
0.55994487,50.77929
0.43067616,51.887295
0.650412,48.022034
0.54498947,46.984707
0.47770482,40.0
0.46299994,44.02731
0.55628514,40.044197
0.55353,40.0
0.4425959,42.037502
0.39052454,40.0648
0.5228682,40.0
0.4418961,40.114975
0.4379008,40.0
0.22211942,40.402397
0.19192357,40.0
0.3038541,40.891182
0.25379553,41.557934
0.29596078,46.830246
0.19348887,45.901466
0.2506981,53.850216
0.334344,55.204735
0.5106521,60.35293
0.4729558,63.044067
0.5809062,69.639084
0.76538074,73.065544
0.82168937,77.65149
1.0311778,84.970215
0.9953171,87.39394
1.1303972,93.62398
1.215754,98.20038
1.3029646,104.382416
1.3838189,107.922966
1.4096478,114.46887
1.5226984,115.80071
1.6022881,121.53624
1.6024672,124.84578
1.6903963,131.34837
1.7711111,132.38916
1.6815704,134.21463
1.7414974,136.67752
1.7228667,143.34264
1.7853029,141.45103
1.7497171,146.00185
1.813342,151.52051
1.7966585,148.18001
1.6687021,149.54285
1.8937974,151.94582
1.7513616,147.98813
1.6636014,150.72592
1.6831026,148.50862
1.7336379,145.30392
1.634703,144.27036
1.6300731,143.06093
1.5254441,142.46593
1.5219849,138.29393
1.5197251,140.14357
1.4819764,136.12498
1.439583,128.00417
1.4863876,126.66071
1.3664247,121.52855
1.4901264,123.81831
1.3627787,123.17143
1.4212356,117.12651
1.4071236,118.41373
1.273218,110.728165
1.4112109,110.95557
1.3100944,106.88822
1.3511577,103.20018
1.2785057,102.40925
1.3353617,96.24512
1.2062252,98.79207
1.2267778,93.62438
1.194946,88.17587
1.1543895,92.82035
1.0439341,85.21053
1.0983791,80.660324
0.9471625,76.50474
0.95783406,74.07314
0.9488921,71.322784
0.91926354,71.97948
0.97867334,68.92912
0.8737768,65.675446
0.8744332,60.387905
0.85937685,57.747646
0.82362163,55.779522
0.8945001,52.526386
0.9259536,50.18434
0.8632788,47.092686
0.8726172,50.560616
0.86985576,43.05915
0.768611,40.0
0.8652085,40.0
0.8098879,40.0
0.7793988,40.0
0.79247236,40.0
0.6241246,40.0
0.6815698,40.0
0.5466212,40.01534
0.61464006,40.27888
0.6528149,42.392574
0.49495846,40.0
0.49581012,41.86566
0.4725209,46.48195
0.5389201,47.367153
0.43153998,49.873974
0.6229866,52.131817
0.64487416,56.9821
0.69934094,56.13195
0.80013925,68.03909
0.90286374,71.27324
0.9501561,72.15879
1.1162441,80.90066
1.1630399,86.28122
1.2569737,88.591805
1.4381516,96.50321
1.489181,100.82382
1.5393088,110.22207
1.5681522,113.779106
1.6301749,116.26468
1.8121984,120.782394
1.8191882,126.69602
1.8532203,125.46
1.9071705,133.76353
1.9577214,135.07008
1.9901587,137.53104
1.9440413,141.96663
1.959392,142.05511
2.0124855,144.98578
1.9061103,150.94345
1.9568034,146.63376
1.8304353,150.29741
1.9619648,147.60384
1.9136592,153.60854
1.945482,147.64449
1.8017718,148.52536
1.875665,151.4627
1.8347439,143.04613
1.7758547,147.02371
1.7554189,142.01498
1.7724844,138.4857
1.6578902,140.70348
1.6463281,133.89392
1.6083544,131.6212
1.636062,127.56804
1.6560656,127.31231
1.6379768,126.4324
1.5919902,122.81848
1.4968209,120.329254
1.4746548,111.36342
1.4509894,111.064
1.5484288,107.41649
1.4785022,106.25714
1.4546179,101.78538
1.4503945,103.39283
1.3269138,99.72951
1.364801,94.29369
1.3709092,89.967545
1.3411397,88.90513
1.2933034,87.78973
1.2532078,85.64252
1.2005196,83.15641
1.1239315,75.55658
1.050702,78.66989
1.0315397,70.32057
0.9927227,72.1013
0.8582817,68.71055
0.95341617,63.401855
0.95160586,59.951496
0.94482046,59.55605
0.8994517,54.522343
0.9324023,57.59555
0.9126623,50.759094
0.8383208,47.256664
0.8979345,42.609207
0.8156837,47.945595
0.8457251,40.011543
0.8756363,43.44374
0.8505431,40.0
0.7874635,40.0
0.7731604,40.0
0.7029094,40.0
0.64002687,40.0
0.69650126,40.0
0.59422624,40.463173
0.5759116,40.0
0.45961404,41.4153
0.4580454,40.0
0.49705902,43.305164
0.471549,47.091248
0.61014766,47.459698
0.54223716,53.777065
0.6021098,60.655067
0.60408443,62.40264
0.6893356,64.764946
0.8279018,71.88142
0.88611156,72.344246
1.0526937,80.08995
1.0572985,84.90752
1.211867,92.94305
1.3154312,91.32699
1.3416481,100.03796
1.4341397,108.93098
1.4970582,112.14289
1.6359485,117.91887
1.6702207,119.58642
1.7334453,123.007744
1.6882572,129.51549
1.699941,132.2655
1.7779231,133.32956
1.8278083,142.69405
1.8561131,141.86597
1.8730569,144.99626
1.7974275,143.84518
1.913281,148.64098
1.7289178,150.23064
1.8073334,145.64638
1.6777102,149.2371
1.776598,151.23622
1.7004936,145.69153
1.7651896,146.3534
1.6556382,144.58527
1.5862937,147.51547
1.6346351,144.81813
1.6128764,144.14781
1.5999454,141.8325
1.5629337,133.86174
1.3831202,126.6879
1.4793737,132.55908
1.4178063,129.58769
1.3525252,125.30073
1.3819569,126.48776
1.3432667,119.74407
1.3026793,118.43147
1.3513983,116.20946
1.4077042,110.70797
1.296529,109.02168
1.2885466,110.33043
1.2141793,103.19094
1.2014629,104.97451
1.1437591,99.73032
1.1429619,97.129005
1.0905591,96.19601
1.0718371,90.60197
1.1124301,85.20067
0.9978752,83.910194
0.97400075,80.36602
0.9115707,78.17643
0.8986468,79.68953
0.7644084,75.51479
0.7915507,73.803276
0.7380231,67.43386
0.6596205,66.610634
0.7131099,64.59427
0.68535185,59.249466
0.65217537,55.64421
0.65652937,56.97172
0.7101338,52.21944
0.6283636,49.263626
0.58659273,45.41771
0.5904873,44.972744
0.5882839,41.14294
0.6259393,46.400814
0.53490597,40.0
0.5287326,40.02319
0.4960551,40.0
0.48539644,40.0
0.3836619,40.0
0.31774577,40.0
0.3445973,40.0
0.28792682,43.311016
0.23856081,42.226273
0.136505,43.243828
0.22477156,42.117416
0.23291525,46.174984
0.20843032,48.126163
0.28733596,52.29407
0.32711476,53.16788
0.46489486,59.690857
0.37964937,63.83101
0.47603172,67.1093
0.4957382,76.03829
0.7449342,77.71423
0.7526,86.56543
0.9242282,91.32422
1.0323932,95.88287
1.023881,99.10911
1.1492925,105.40789
1.2624521,106.82939
1.2694168,114.958015
1.4094299,120.13255
1.3449866,123.981636
1.3934219,132.51656
1.5570749,129.8313
1.4391633,135.48074
1.5200764,135.29349
1.4829577,138.02351
1.551025,144.48756
1.5719794,146.22888
1.5797888,146.5224
1.6118474,144.67828
1.5064715,146.48967
1.4758582,150.18582
1.4458631,145.91441
1.3881899,151.33728
1.4847872,149.36826
1.4132953,145.90837
1.3373648,147.87814
1.3004563,142.5867
1.2577109,137.1042
1.2625477,139.11479
1.2558286,140.24867
1.2194843,139.66531
1.1557779,133.80089
1.1632211,128.57462
0.99723846,129.4315
1.0453024,123.784515
1.073858,124.69254
0.95952684,117.830986
0.9945846,118.194984
1.0469172,111.07461
0.99579704,107.180016
1.0793186,108.31042
0.85855865,105.46121
0.92274725,102.35062
0.9202174,100.2524
0.84402514,95.08471
0.9073104,95.351456
0.82587934,90.194336
0.67055994,88.43784
0.8204206,84.73053
0.64142895,81.448135
0.5369482,77.072914
0.6172408,74.62561
0.49974483,73.740715
0.5792012,70.20596
0.3602461,68.82974
0.4164203,64.171196
0.47402656,62.75842
0.4238585,63.32206
0.44509786,57.144577
0.41913134,54.305145
0.36493927,53.140774
0.30109665,49.800423
0.4295987,49.992466
0.4045614,42.748775
0.25016636,42.54752
0.3895766,41.843475
0.32986212,40.348705
0.33134785,42.272503
0.30317318,40.0
0.22638096,40.0
0.13934475,40.308746
0.11302448,40.0
0.04031051,40.770668
-0.012176587,40.569073
0.029138198,40.0
-0.07116784,42.137
0.023412291,40.471127
-0.005667068,45.93171
-0.06834107,47.63969
-0.07886161,53.64923
0.18783808,57.087067
0.14155276,57.839237
0.21324039,62.033157
0.3427802,67.511444
0.3324367,76.27471
0.4467195,80.670746
0.6413553,80.52216
0.6946197,90.252426
0.8161144,91.68649
0.8484606,98.89479
0.883222,101.22153
1.0855036,108.65341
1.063765,111.842606
1.1556628,118.63258
1.2746557,119.79009
1.288206,125.641335
1.2797061,130.39496
1.3577323,137.1825
1.336833,137.8753
1.318263,141.73082
1.3810438,141.23647
1.396667,148.1691
1.3667194,148.07939
1.3317323,149.32515
1.3560265,146.37221
1.4511406,150.53331
1.2081633,147.98648
1.3346752,145.39062
1.2892411,145.61539
1.2446098,144.32031
1.2414379,145.82463
1.0954278,144.52179
1.1992348,146.22643
1.1084827,137.01509
1.103439,141.05792
1.0769521,137.80789
1.0710434,130.60092
0.9006776,132.28575
0.87806845,128.8592
0.9231765,123.99936
1.0336848,121.99484
0.9670059,125.02232
0.9027415,122.46488
0.95485365,116.89274
0.84666204,112.476814
0.8528318,107.395874
0.91545033,107.20402
0.81596327,105.6887
0.90800714,97.9876
0.8867985,97.64234
0.7671926,90.20156
0.7927574,91.8819
0.7071171,86.54803
0.69826823,85.65863
0.7095688,81.92241
0.5290169,80.199905
0.513597,80.25755
0.49971843,73.901596
0.48999375,69.71116
0.4298608,71.69423
0.3504718,68.90249
0.37356108,62.256676
0.35749203,61.19299
0.46463192,58.70371
0.42375305,54.70124
0.46719941,51.266953
0.29657492,50.96676
0.34404144,50.292072
0.5082552,40.833256
0.31209278,41.729214
0.2984078,42.330822
0.30119348,40.0
0.31103972,40.423122
0.24962173,40.0
0.24076048,40.088314
0.1564022,40.0
0.09963679,40.0
0.07091614,40.0
0.063897625,40.0
0.012811668,40.051147
0.06186003,43.301918
0.025686812,40.36348
0.052025955,50.160397
0.07698942,47.821587
0.055820428,47.573193
0.10122147,52.024235
0.2527155,55.784954
0.15823321,60.37737
0.28864154,68.12693
0.473722,69.28145
0.4590017,77.246925
0.711324,81.406975
0.71458155,87.99152
0.79851985,92.92899
0.9361009,98.57147
1.0115719,101.789
1.1131861,105.1434
1.1430001,114.528
1.2760556,114.70337
1.2910318,123.86882
1.3560835,125.708855
1.3818009,125.02087
1.4575686,128.3797
1.5016488,138.40218
1.4731253,138.88438
1.5301538,144.10892
1.4427637,147.06706
1.5054964,147.04193
1.5812527,149.03557
1.5992632,146.3244
1.4979007,151.06511
1.5030065,150.57327
1.5558453,145.79175
1.4606491,146.70396
1.4044609,149.94298
1.4610233,146.05621
1.4826531,147.57811
1.3871055,139.35745
1.2934177,140.99294
1.2424048,143.89838
1.2693073,135.1215
1.2950323,137.15192
1.253455,130.69336
1.2014319,132.27242
1.2059109,128.3657
1.2244304,120.60907
1.1802151,119.99975
1.1403685,120.991806
1.0638583,114.97875
1.0855902,112.61257
1.1169237,106.1893
1.1694659,108.36826
1.1073096,99.629524
1.1242541,99.30015
1.0311666,95.93752
1.0756888,96.55814
1.0313127,96.02851
0.9653072,88.5326
0.92284954,85.618454
0.8591172,85.578255
0.8644207,79.43205
0.77160776,81.16358
0.7543765,72.01854
0.7548412,72.26531
0.64809495,69.46617
0.63711053,68.96919
0.6708164,63.664024
0.6025284,62.219967
0.59484905,58.50419
0.5786888,58.50599
0.5972147,56.205097
0.64541256,51.085278
0.59590435,50.540497
0.5704057,42.94226
0.6112771,44.590656
0.61794245,40.0
0.59972346,40.0
0.5740076,41.446785
0.5573488,40.0
0.6052579,40.0
0.470616,40.0
0.4279711,40.0
0.28583464,40.0
0.3370906,41.97492
0.33105245,40.667477
0.30763215,40.0
0.33292696,40.0
0.42685568,48.718655
0.32485667,47.358974
0.30169243,50.997967
0.43580592,54.411583
0.443943,58.245605
0.46368074,62.973293
0.7194091,67.529686
0.7264367,71.04308
0.81318754,75.866
0.88010615,82.04427
1.0792258,84.301476
1.1190029,90.75524
1.1967978,94.193436
1.2336421,102.610146
1.4250418,103.13193
1.4707052,111.1916
1.6163629,115.45563
1.5404857,118.22315
1.5984263,122.503296
1.5628234,127.556946
1.7474948,135.51279
1.7378244,132.0464
1.7743337,139.06789
1.7579612,142.29503
1.9084312,142.7561
1.8311156,144.49944
1.9190754,144.0628
1.8235079,145.57912
1.7685298,150.3782
1.769292,153.24652
1.869344,147.66386
1.8480217,150.67596
1.7668264,147.79002
1.6919756,147.35944
1.6982572,146.0034
1.6978121,141.94923
1.5583493,140.44579
1.578431,140.4545
1.5611087,130.23193
1.6021832,135.8707
1.5530137,134.814
1.5185378,129.81862
1.5040314,127.4631
1.5143772,125.03995
1.3706454,123.557045
1.486371,121.116425
1.4461998,110.50091
1.4677287,112.96548
1.4474484,111.24543
1.3723502,101.62758
1.3465226,109.0467
1.4441535,101.1387
1.3054601,98.36355
1.4045379,92.44145
1.2601116,91.69978
1.2389665,89.18141
1.2329426,84.72004
1.0848211,86.97324
1.196009,83.15783
1.1258239,79.49416
1.0152879,73.939415
0.95798165,74.78463
0.982733,72.8554
0.90065956,71.278366
0.964423,64.43065
0.9506396,57.612797
0.87107795,62.011368
0.9189871,54.122295
0.91251004,59.223213
0.907491,50.85157
0.98217475,47.47225
0.9407667,48.864788
0.8414452,41.59866
0.89586705,45.514362
0.9123508,41.370876
0.82879436,40.203613
0.7767562,40.59949
0.7777437,40.0
0.73986155,40.0
0.7427675,40.0
0.601484,40.0
0.6037352,40.0
0.60249317,40.0
0.5527939,40.0
0.47048065,42.235863
0.52755684,43.936462
0.56144166,48.177155
0.52023673,48.260963
0.58401674,53.24703
0.70534056,56.298897
0.7833142,56.379295
0.85805815,67.49466
0.95815074,69.58212
1.0273858,70.7532
1.1278801,81.8215
1.1421993,85.351135
1.20589,89.64209
1.4431527,95.864586
1.4252383,95.296455
1.5573226,106.05228
1.5926408,107.23414
1.7250329,117.5824
1.8637229,121.06976
1.7750812,126.83048
1.8592427,125.2355
1.8322833,135.71138
1.8931452,137.76598
1.9761094,137.64127
2.0345562,142.55412
1.8937523,144.63797
1.9575055,145.08981
1.877025,143.60085
2.0093703,149.46478
1.9708691,148.73991
1.9646906,150.42915
1.9487681,146.73366
1.8813844,147.42357
1.8681605,143.50328
1.8300607,150.45705
1.7941941,148.74605
1.8133436,148.0152
1.7958038,144.5114
1.6588467,141.73386
1.6295179,138.5468
1.702199,136.54836
1.5714214,136.76244
1.55586,131.8414
1.548955,127.32096
1.5322349,127.29053
1.51833,121.65712
1.5411165,117.43096
1.5397801,118.120125
1.4298487,113.456474
1.4475743,110.761024
1.4706388,104.9737
1.4034101,104.222466
1.4981827,101.21504
1.4596848,99.7887
1.3921942,93.77906
1.2283279,90.15638
1.3364158,90.34882
1.2571758,89.21692
1.2131385,86.04252
1.1164689,82.39538
1.1279296,81.09211
1.0025159,75.958755
0.98684263,75.08638
0.9366788,67.18663
1.004379,69.832985
0.97733074,62.169743
0.9771509,61.268753
0.76495695,57.795498
0.9658273,53.3944
0.96830934,55.944458
0.8096397,50.164635
0.80504024,52.835262
0.84720784,48.31786
0.823251,40.0
0.8147114,43.90758
0.8363561,41.28551
0.8327597,40.0
0.7273534,40.351223
0.7636044,40.0
0.718172,40.0
0.7655578,40.0
0.6124757,40.0
0.54578435,40.0
0.5646407,40.0
0.42498294,40.0
0.45121005,40.0
0.47045305,45.222797
0.549381,50.857845
0.4385664,45.663174
0.6335462,53.42261
0.5555098,57.075
0.6408027,61.486103
0.677453,63.993694
0.8026297,67.58685
0.8478029,73.23046
1.0424546,75.98211
1.07272,82.28641
1.0605351,88.74014
1.220526,92.482414
1.271477,98.08497
1.3708789,108.321945
1.4960731,108.03112
1.6451528,115.09047
1.4798249,120.57955
1.6259625,123.65627
1.7106329,127.510574
1.7979473,129.73512
1.7731456,133.44296
1.7792112,141.67282
1.8926811,140.63727
1.8480779,139.14589
1.8727676,150.96997
1.7454532,150.65262
1.8125975,145.94588
1.804694,149.12924
1.6893272,147.83012
1.8033931,150.33727
1.7712588,148.33408
1.7397968,145.03471
1.7459755,149.502
1.62732,145.09656
1.5298544,146.24403
1.6368119,139.62921
1.5583966,139.04012
1.3681566,138.95349
1.4790707,140.88661
1.4756186,135.16841
1.4121302,129.66495
1.4132401,128.79617
1.396254,125.58373
1.3602618,122.26032
1.2584064,122.43529
1.2168454,116.2751
1.2555797,110.84739
1.2724378,107.73879
1.1752737,110.1263
1.1496686,108.5625
1.2495723,105.7127
1.1070874,100.296074
1.0444008,101.123245
1.0707817,90.85766
1.0925416,87.38272
1.0107995,85.64438
1.022735,86.3411
0.9450968,83.95094
0.84120846,84.317375
0.81122875,76.93695
0.8157058,75.26878
0.74748766,69.79787
0.73074675,65.80578
0.59021086,68.50199
0.6561615,58.797356
0.66077274,57.81917
0.62547225,56.037888
0.5705387,51.400597
0.54522777,52.465588
0.6144366,49.16528
0.4803286,48.363106
0.6816466,44.40824
0.5987305,43.71678
0.6243291,44.95976
0.51128244,40.0
0.4776161,40.0
0.5253454,41.76095
0.48034286,40.0
0.2772098,40.0
0.38604417,40.0
0.33284494,40.0
0.21121402,40.024574
0.23143977,40.619617
0.16328326,43.45852
0.15748176,44.355347
0.18141243,45.58772
0.15240717,47.498825
0.11233576,52.373222
0.28587642,58.53856
0.25901166,57.75187
0.4164562,58.51002
0.5152271,63.49706
0.6194465,70.65791
0.5583592,76.209145
0.7614823,80.623184
0.83175486,87.717995
0.9539256,91.61931
1.0087472,96.875305
1.1256075,102.296074
1.0570645,107.401955
1.2677515,112.56488
1.2728955,118.452255
1.3951187,123.52699
1.3909851,127.25303
1.4648508,133.69847
1.4665418,131.89738
1.4767696,136.55798
1.4563118,140.2075
1.5614967,144.97476
1.5469234,143.70718
1.5055715,146.78423
1.5667087,145.4859
1.514663,148.46918
1.4127382,150.63002
1.4108924,152.24155
1.3586828,148.45253
1.4666364,147.10202
1.3946193,145.83247
1.2833034,145.51959
1.3574799,147.0709
1.238481,143.90178
1.2253509,141.81721
1.254835,139.06659
1.1310656,136.43922
1.0947609,131.75772
1.1499908,133.48717
1.0465193,131.90941
1.0166057,123.01693
1.0493718,121.645966
1.0207105,121.116646
0.95313406,120.22821
0.98526686,116.30559
1.0421823,111.60823
0.9454078,111.61277
0.9271477,104.61208
0.94526076,100.89026
0.8837267,99.61342
0.7974584,94.86898
0.8616511,95.52236
0.8848328,92.78073
0.7643709,90.08401
0.7087631,89.99745
0.6153626,84.93869
0.6282832,78.53936
0.5866577,76.26098
0.53282577,76.43423
0.44066805,75.20082
0.4268282,69.69653
0.45675173,62.555565
0.32652158,64.33292
0.3258972,60.629734
0.375167,57.69128
0.39538926,53.12047
0.44008464,50.621967
0.28382784,49.93988
0.4073729,49.169834
0.31831792,45.190586
0.32260334,45.253708
0.39646354,45.496193
0.3127762,40.0
0.2694713,40.421886
0.22204037,40.0
0.19807655,40.0
0.13122886,40.0
0.1357403,40.0
0.12968928,40.0
0.119306915,40.0
-0.08064495,40.0
-0.03469469,41.8204
-0.038758166,43.09255
-0.013358636,44.04486
0.0005635201,47.031525
-0.030561736,53.824642
0.034749467,56.574265
0.07934789,57.672096
0.10841341,61.539482
0.17668414,68.38757
0.31706524,71.68268
0.40897894,75.88935
0.57495195,82.40493
0.72028947,88.12831
0.7135099,88.59596
0.8338796,95.0932
0.93614686,101.405205
0.9409302,108.4203
0.99664384,107.318016
1.0894433,113.97053
1.2563022,119.19831
1.1595467,122.92201
1.2885878,132.2234
1.2853878,135.2361
1.1628064,134.15083
1.2445196,141.10196
1.3533365,141.22368
1.3042942,141.79427
1.3190718,145.36627
1.4432764,153.67055
1.3958882,143.6492
1.3596172,148.67676
1.3379904,147.05809
1.353053,147.98715
1.3709543,149.53723
1.2501082,145.54892
1.2427431,151.83725
1.2322415,144.18417
1.1692071,145.56642
1.256915,145.60797
1.0942618,140.07608
1.134658,137.38208
1.1298096,134.32494
1.0017765,132.39966
0.985098,128.26045
0.9500598,126.83916
0.93750906,119.52079
0.8792653,120.14515
1.004403,117.188
0.98057145,118.05387
0.7710388,112.79145
0.91934377,106.92536
0.79586226,108.63361
0.8246312,104.4545
0.80111533,102.9105
0.91794294,97.57802
0.7996856,100.026634
0.7197894,96.13666
0.7303559,90.241264
0.6916636,84.3684
0.6285057,83.6706
0.62651396,82.85493
0.6304215,79.360016
0.611219,76.59147
0.4779593,68.64476
0.5002821,71.07807
0.45545462,65.79832
0.5180802,63.962112
0.4431158,63.67089
0.31137437,56.983727
0.40105292,53.4659
0.40296394,54.613033
0.4367177,49.40722
0.28373098,44.983227
0.48671028,49.740177
0.43886763,44.846367
0.3467624,43.227184
0.3823408,41.828297
0.2940494,40.0
0.38341263,40.0
0.26503146,40.0
0.20917779,40.0
0.22986223,40.0
0.16723177,40.0
0.06271577,40.0
0.06474937,40.0
0.092964,41.114304
0.011074363,40.32658
0.072174616,46.423412
0.050031714,47.097706
0.124392875,50.20423
0.17903563,55.166134
0.14793955,52.985016
0.24098362,60.52064
0.33115384,68.997536
0.4975836,69.85766
0.46941778,78.437744
0.6852523,80.75567
0.730694,86.09408
0.8750926,89.51382
0.95470333,97.94194
0.9851881,103.99306
1.0251682,110.40781
1.2409978,105.73295
1.2889581,116.59182
1.2678454,121.16637
1.4575765,121.32743
1.461174,129.44102
1.5157322,130.77692
1.531066,133.95619
1.497258,138.7352
1.6600571,142.57077
1.5204651,140.4578
1.4699771,141.75148
1.5756234,151.47176
1.5666654,146.82288
1.568188,145.48454
1.5350251,144.14864
1.4842255,152.30481
1.5671417,152.38196
1.5491365,144.59248
1.4685344,149.02583
1.4258612,146.47896
1.4154193,142.12473
1.4135634,139.32538
1.3999994,142.76509
1.2958465,143.331
1.2928667,136.18771
1.2267898,131.98137
1.2384659,131.3482
1.2337887,130.20459
1.2261533,126.57831
1.2395989,120.74327
1.1890383,120.27784
1.1317914,114.703285
1.1797408,111.986305
1.1103956,111.5033
1.1272072,107.99198
1.084007,105.53522
1.0753882,102.64012
1.0972247,101.31695
1.0922415,96.71408
1.0559899,96.956055
1.0788027,90.0631
0.9614455,88.19377
0.9173398,83.477356
0.8498996,82.96017
0.8989847,76.54683
0.75251055,76.9867
0.80166566,74.155365
0.71153224,69.57312
0.6728601,68.00702
0.764124,63.608856
0.64923614,63.070118
0.76693267,57.59139
0.6872376,53.518894
0.66241336,55.09523
0.68513733,51.81796
0.67646116,49.49869
0.67361444,42.985394
0.7516616,47.880795
0.6885712,41.135696
0.70977265,41.592617
0.6730828,43.60571
0.5437188,40.0
0.56313497,40.0
0.6265111,40.0
0.45948014,40.0
0.43742102,40.0
0.45106325,40.0
0.45502415,40.0
0.4011211,40.0
0.42187807,45.010605
0.38326207,41.945415
0.34820446,44.64461
0.39299017,45.586353
0.48913363,50.680393
0.54330206,56.197407
0.540789,62.802494
0.53875744,64.161095
0.67023164,70.95957
0.799422,75.31665
0.805541,78.2681
0.9791856,85.161736
1.0879294,88.64319
1.2457854,96.33421
1.333057,97.00942
1.3467757,106.81374
1.4996767,110.08031
1.5268495,115.2166
1.5166588,119.92163
1.6250936,123.11655
1.7076937,131.23535
1.7713017,131.9556
1.82327,135.78902
1.8520796,135.20383
1.7722546,139.11548
1.7660167,144.27257
1.8110126,145.1136
1.8830942,149.779
1.7932107,149.15576
1.8551354,151.87001
1.9291255,150.1471
1.750148,150.79272
1.8134545,149.09409
1.7441424,145.76285
1.7535727,146.28603
1.7391204,144.42781
1.7089705,144.85997
1.6551774,144.05482
1.6376228,141.3755
1.5416759,136.49869
1.6820973,130.23494
1.5253885,134.38716
1.4811718,130.45871
1.5371649,123.85425
1.4520934,128.25067
1.421971,123.24326
1.4972377,119.66384
1.4202849,115.97899
1.4383317,114.99854
1.4816337,107.87218
1.4663646,109.735405
1.4051414,104.6612
1.459383,102.74807
1.2797072,100.11102
1.3926495,95.78973
1.2300978,93.73444
1.3014163,91.19334
1.2754698,85.265686
1.1133621,85.437
1.096706,86.33165
1.106804,76.6644
1.0830938,76.939
1.0063585,77.17983
0.992144,68.788864
1.0073683,67.8147
0.9994801,68.12328
0.8435772,62.55418
0.87993485,61.733532
0.957907,54.409473
0.89065856,57.048145
1.0062659,51.275047
0.9749892,52.52601
0.97419447,50.90982
0.86045045,51.29243
0.93838495,41.02707
0.8993578,42.351803
0.8654989,40.0
0.88174593,40.0
0.7938926,40.0
0.7050309,40.811295
0.7467963,40.0
0.64536273,40.0
0.58230627,40.0
0.6251308,40.0
0.6399973,41.055145
0.6005019,40.681087
0.48615754,41.08502
0.60265017,44.22082
0.5774437,46.6147
0.5846082,57.741238
0.6680849,54.4875
0.69821215,61.299652
0.79774845,65.18765
0.85923713,65.046486
0.9964398,74.13823
1.0084887,77.61423
1.1029589,81.41881
1.1377612,89.10969
1.3350333,92.31868
1.4966664,99.249245
1.499611,103.7636
1.6936533,108.95271
1.7046248,110.728386
1.744385,119.15024
1.7777797,122.079445
1.8251212,124.78882
1.8388137,132.63353
1.8837054,136.07684
1.9322985,135.66681
1.960349,139.81169
2.0172622,141.61095
1.9720381,142.99251
1.9944664,142.6563
1.9372448,146.11082
1.9536598,150.22357
1.9248451,147.28865
1.9628693,145.95078
1.8916614,153.07538
1.9275807,146.71228
1.8854669,145.66702
1.832266,148.13692
1.7282493,140.47838
1.7699445,141.62318
1.7061222,145.45602
1.6419371,140.367
1.7400835,135.1293
1.6135297,135.68509
1.5997572,127.27539
1.5802889,129.80331
1.588945,124.47998
1.5334808,124.258125
1.4531015,116.777916
1.5092887,116.220856
1.4268792,115.884514
1.4072953,110.64851
1.4877433,106.487274
1.3720386,103.01605
1.4086088,99.99227
1.4350405,102.27271
1.2480514,97.18952
1.2804058,94.97942
1.3581204,93.25799
1.1945801,88.251854
1.2219892,90.64965
1.1223059,81.9183
1.167349,80.12813
1.0899339,77.766426
0.96669126,74.743004
0.93137807,72.64712
1.0346956,71.07327
0.92697895,65.02202
0.92737323,61.8524
0.93411654,64.817726
0.7782984,56.957455
0.9336464,55.36185
0.89856476,49.318855
0.85737455,50.668003
0.8761796,48.74117
0.86363435,49.791447
0.8072859,43.786602
0.7526116,41.74167
0.891475,40.0
0.70542103,40.0
0.7563632,40.812443
0.7949022,40.0
0.59728116,40.0
0.58838254,40.0
0.53551394,40.92738
0.47204316,40.0
0.51907223,40.91889
0.55101603,40.0
0.34054825,43.75222
0.41084713,44.792984
0.53064317,43.312817
0.45192567,53.045723
0.5059382,53.279213
0.52006525,62.320442
0.6082201,62.765324
0.67735857,69.43344
0.7946668,74.282196
0.8835705,79.55847
0.93839943,76.987045
1.1018844,85.279625
1.2234979,92.5915
1.2576721,98.5703
1.3294646,106.48379
1.4214547,105.57238
1.4600652,111.720024
1.598435,115.321815
1.6019486,119.26084
1.683168,125.89586
1.7618771,130.86877
1.7404906,132.06099
1.7884189,138.3195
1.7812924,139.69728
1.7579441,140.5164
1.8272457,146.19537
1.7382529,139.47588
1.7343792,149.37238
1.7518976,149.10672
1.6897472,147.97247
1.7188195,152.0088
1.7172195,149.20366
1.7638474,147.24191
1.6556247,153.49615
1.6744945,148.45901
1.5903587,142.57451
1.5832204,142.59221
1.5032479,145.46725
1.4510146,139.78658
1.405878,136.14331
1.4032408,135.40512
1.3092061,131.23427
1.3927485,126.86719
1.2649511,127.17195
1.349076,123.453896
1.2775413,119.17514
1.2252297,116.2408
1.1993988,113.57256
1.1826164,115.53509
1.1111143,110.37449
1.1631963,102.16732
1.0601726,100.825645
1.1419225,101.58379
1.1788272,98.5043
0.96812963,97.09892
1.0617467,93.54289
0.9936764,89.34259
0.93108326,86.62855
0.9680009,82.32475
0.81320566,80.1903
0.7573997,78.71074
0.69439024,77.53666
0.7116415,70.93364
0.7218115,72.57013
0.55338126,68.157135
0.62579805,66.322784
0.7095332,59.44725
0.60940015,57.032932
0.5864524,55.485626
0.61321175,55.391556
0.54352427,50.149895
0.56562734,48.745056
0.5898513,45.50325
0.5241109,43.489666
0.6177313,41.900333
0.5439744,44.80829
0.42042378,42.44902
0.39732412,40.0
0.36573038,40.0
0.3735349,40.0
0.27421203,40.0
0.26326707,40.0
0.15135714,41.15869
0.22722784,44.545464
0.059500467,40.0
0.25181624,43.91012
0.15448335,41.126175
0.11693912,47.875874
0.2564837,45.901344
0.09350291,52.948845
0.2553579,56.683876
0.3353423,60.49311
0.4417569,66.601524
0.5214778,71.60933
0.49960682,77.990486
0.6608261,82.40091
0.82220054,85.573006
0.79495543,89.9699
0.9259963,97.20128
1.0005126,99.71241
1.21829,108.43677
1.1801636,113.107956
1.1487204,118.14785
1.2609572,125.760635
1.3813882,120.213135
1.4116526,127.906395
1.4819896,131.08205
1.4238905,135.40082
1.3969148,141.14581
1.3948102,141.56903
1.3432813,142.44131
1.4232597,145.29692
1.4655937,149.18079
1.4813328,149.89095
1.4218596,149.92091
1.4439188,150.36475
1.4425676,147.86044
1.4138252,142.52594
1.3547609,150.90935
1.3323874,146.94135
1.4274333,142.53616
1.1502547,142.99352
1.2908367,139.57938
1.1771964,135.99368
1.2007854,138.64044
1.194119,131.77415
1.079182,129.21155
1.0580748,131.05835
1.0180575,129.00728
0.95146304,132.7433
1.0473784,124.72122
0.93097407,117.147575
0.96453035,117.401726
0.9388726,117.06946
0.8865673,109.40988
0.91130096,108.666405
0.93970937,102.229034
0.8572495,100.471375
0.84897405,99.551346
0.76866215,97.12475
0.791415,92.22307
0.735339,90.62836
0.78651816,91.06275
0.6015929,87.93982
0.57909817,82.29768
0.52206594,78.2743
0.47701693,76.668724
0.46112382,70.459496
0.47266454,70.21801
0.39670706,67.9729
0.3666957,64.525856
0.3686545,60.96685
0.32513368,61.206795
0.32914346,56.343876
0.261281,55.37192
0.36150923,53.085876
0.33680287,52.637093
0.38654858,44.72816
0.32897866,43.957165
0.35906494,46.55654
0.3598836,41.4742
0.24863063,43.058117
0.21161377,40.0
0.25105137,41.955196
0.16007712,40.0
0.029848699,40.0
0.10012523,40.0
0.07493755,40.0
0.0448907,40.0
-0.09118746,40.794754
-0.0028612434,40.080547
-0.059071522,46.80503
0.012293887,50.604637
-0.030046161,50.313587
0.044526745,48.994736
0.030711664,57.84448
0.14640316,58.725986
0.20773438,66.68481
0.24453796,71.03876
0.33615482,76.62659
0.42112154,77.94015
0.63844097,81.78632
0.6402796,88.15235
0.7898619,94.99509
0.93992805,100.79385
0.89613074,109.31945
1.1047002,107.57737
1.2324872,118.62113
1.1891944,119.56528
1.2095001,126.20713
1.285324,129.4505
1.2744048,135.73625
1.3196326,132.79706
1.3197645,139.58197
1.3552667,143.34468
1.3872716,143.69353
1.3787618,144.65816
1.4437917,147.60056
1.3680667,147.92024
1.361117,149.44557
1.3460635,147.54791
1.3581953,150.15465
1.3046788,148.27057
1.2046554,145.65247
1.2927428,144.67737
1.2158527,146.94585
1.3326364,145.13002
1.152501,143.56331
1.0899802,144.20506
1.1649008,138.34
1.2086228,135.41528
1.0511581,134.64827
1.0767971,127.66275
0.972356,128.1633
1.057244,125.02752
1.0448009,119.55108
0.96205926,115.81459
0.9442014,111.428825
0.9755335,111.01173
0.9345277,111.83365
0.91796654,111.36413
0.83481634,105.9718
0.88131917,101.572845
0.8178247,98.960075
0.93617094,93.54156
0.81191546,89.87241
0.7334433,91.55298
0.7279547,87.52555
0.74250925,85.55321
0.71852016,81.98539
0.59174323,80.09771
0.5792808,81.316925
0.43631476,76.17497
0.48095945,72.315506
0.4241715,68.96047
0.4565753,66.39328
0.46498364,60.30832
0.48812243,62.676826
0.45619857,55.3495
0.3613984,54.416454
0.35746756,49.130695
0.41699857,49.143646
0.3922169,47.562794
0.44826674,48.161777
0.3541863,43.161095
0.47026208,40.86357
0.4058962,40.05919
0.3919289,40.0
0.31042057,40.0
0.23649335,40.01653
0.11783067,40.0
0.112329565,40.0
0.14955549,40.0
0.14805156,40.0
0.1047117,40.0
0.027091328,41.56358
0.09391266,44.167156
0.123106815,42.274677
0.09988385,46.98669
0.1599612,54.639603
0.154154,55.995235
0.25561097,57.80083
0.39080742,67.41019
0.5040744,69.44668
0.4265145,75.73971
0.6258227,76.70909
0.7558113,85.702385
0.8039281,87.81381
0.9212924,94.974434
1.0205873,100.118614
1.1490952,104.38832
1.1920502,104.68252
1.2118598,116.30355
1.3141849,118.2576
1.4699353,122.51761
1.3939042,125.72327
1.501763,129.10661
1.58059,136.04619
1.5230186,140.49872
1.5886256,140.9274
1.6545676,139.59843
1.6498991,144.4693
1.601053,146.39337
1.6281887,144.22159
1.5435913,150.7423
1.5975266,147.49011
1.5386153,150.16632
1.5038285,150.79868
1.5404276,149.08983
1.5378562,144.25345
1.4710217,142.55382
1.4366359,142.0487
1.3955938,142.89581
1.3753197,139.335
1.3932531,138.53761
1.2799689,136.71114
1.316466,132.39398
1.2770886,132.66129
1.3147137,125.76076
1.2638557,129.27792
1.2122923,126.431755
1.2354094,118.95866
1.1300098,115.298
1.2430978,113.90691
1.1264083,112.49748
1.1376011,108.03024
1.1877751,107.19942
1.1789209,100.57635
1.1110961,99.619865
1.02116,97.99476
1.1452417,93.89874
1.0609217,90.35093
0.9874464,85.323006
1.0456172,86.00415
1.0660325,84.032555
0.912603,77.848366
0.9452096,80.999886
0.7655478,71.22335
0.70656055,71.27522
0.81867015,69.43941
0.7719448,63.212738
0.76577157,61.73334
0.6936295,59.94235
0.7040263,55.700596
0.74293137,55.04373
0.7698891,52.779064
0.66685677,50.618748
0.7489388,49.11146
0.69603014,48.30108
0.6843715,44.455025
0.63596207,40.47315
0.6785608,40.462837
0.65705144,42.46643
0.6737533,40.0
0.64654094,40.0
0.5536137,40.0
0.62456876,40.0
0.49909392,40.0
0.45487338,40.0
0.3220114,40.099632
0.45931655,42.163757
0.44911414,43.46266
0.3679669,44.77495
0.42823288,49.293842
0.44747588,48.85565
0.47976938,53.12505
0.54930353,62.665073
0.6523939,62.173203
0.6923097,70.31562
0.70565915,73.49693
1.0194956,75.906815
1.0183375,78.33544
1.1375663,84.17282
1.2458189,89.747574
1.3541936,97.2307
1.3302387,104.29018
1.4678081,106.59919
1.6105336,116.234314
1.6218417,118.3747
1.5452135,119.83722
1.738596,126.03569
1.7772733,132.54205
1.8416661,134.46236
1.8633198,138.88396
1.9188514,137.78708
1.9674344,144.35132
1.9106762,142.76157
1.877283,147.44121
1.8855038,145.35112
1.9312526,152.6976
1.8986619,150.40648
1.8752091,149.18909
1.9491396,149.00941
1.7855035,150.42949
1.699603,147.80415
1.713566,147.84315
1.7763587,144.7166
1.7042007,138.01732
1.750144,141.49959
1.6206458,138.34306
1.669087,136.18358
1.6259812,133.60922
1.5385472,132.31395
1.5503252,126.952194
1.5569395,127.813644
1.4297742,125.61022
1.5317149,120.71299
1.4842409,114.29496
1.4833196,113.2312
1.4621071,113.17685
1.4933159,111.92262
1.5045894,106.30242
1.4875048,102.682915
1.427148,98.72266
1.4217386,99.009026
1.4542618,92.31161
1.294815,90.77356
1.2913061,86.52695
1.2769665,89.449
1.1933613,83.87361
1.1606925,85.89608
1.1033858,79.69225
1.1540594,74.14199
1.032545,74.79808
1.0235999,64.54399
0.9332615,63.175888
0.9856571,62.104244
0.88988245,62.493607
0.8792348,61.319183
0.883833,57.061028
0.91192305,52.950287
0.9523501,50.59024
0.9234671,45.67515
0.86121565,45.453423
0.9016097,40.27446
0.8371387,40.0
0.7836069,40.0
0.8468952,40.676853
0.7275407,40.0
0.765491,40.0
0.7960111,40.0
0.6515245,40.0
0.6078989,40.0
0.6146296,40.274868
0.58668405,40.77178
0.5414465,40.0
0.5786951,40.747513
0.61686337,44.176956
0.58177274,48.91959
0.5640761,49.61115
0.6401583,54.058514
0.68061495,54.742363
0.78680724,63.206184
0.78887373,66.220825
1.0427941,71.24965
0.990563,79.030785
1.118294,78.158485
1.230267,79.8153
1.3549424,91.874695
1.4998317,95.29134
1.4652407,97.05944
1.5992819,105.329
1.6233116,110.53834
1.6376325,115.12703
1.7900243,122.3161
1.8103241,124.8156
1.9024715,128.47636
1.9350771,131.04048
1.8825629,135.8337
1.9242867,140.09258
1.9345751,145.77705
1.9230958,145.78831
1.9536289,145.75731
1.955467,144.62903
1.9142232,148.12137
1.9137604,147.06099
1.8593236,147.87071
1.9054931,149.02226
1.8156818,149.08511
1.7886038,148.17322
1.8456762,146.13428
1.7076195,145.49245
1.6916541,139.99446
1.7364959,141.43748
1.7401719,139.81747
1.6604009,141.8413
1.6187911,137.761
1.5813615,130.5931
1.5548153,125.82038
1.4678497,124.81122
