ppg,abp
0.97653395,104.499596
1.1325022,109.40207
1.203306,108.77006
1.3514957,113.00176
1.4054755,113.881454
1.4619381,121.1996
1.5785197,121.353806
1.4862896,127.22302
1.4986706,129.19579
1.6826001,133.08641
1.7307401,135.41408
1.7444383,138.82816
1.7750971,134.84016
1.6834687,143.65686
1.6709445,141.03506
1.7127388,139.67166
1.780573,144.70483
1.7076374,145.57516
1.6872525,143.41931
1.6945273,140.83131
1.6700534,145.73157
1.7516586,143.29935
1.6678896,145.21379
1.551375,138.648
1.7656785,143.1478
1.6664206,141.23953
1.586508,142.4186
1.5688237,139.29997
1.5386442,141.78093
1.4034411,136.84543
1.4881755,137.54137
1.4197127,132.53688
1.397399,126.66002
1.4080083,127.94056
1.5036911,125.846176
1.3428006,126.32477
1.3251572,119.90541
1.3360152,120.60156
1.3857219,120.873604
1.371933,116.433815
1.3442104,113.132225
1.2693775,117.9807
1.3433673,114.94135
1.3755922,109.08638
1.1783258,112.24967
1.3229598,107.16751
1.2253413,106.11852
1.1957468,102.02839
1.2264628,100.9107
1.1688575,97.68901
1.1181229,99.82197
1.0655563,96.44899
1.0665904,92.89346
1.0460253,96.37736
0.95449287,90.502426
0.94992626,90.03863
1.044924,87.99785
0.8814743,86.62883
0.8115489,82.00209
0.93585277,83.210335
0.8812789,78.78856
0.8129296,76.40399
0.82588136,77.57859
0.87119025,76.44884
0.85892826,71.356964
0.9197975,70.62952
0.9150192,68.09467
0.81049603,66.98509
0.84791374,66.179665
0.78994966,67.453255
0.794455,67.92739
0.76104754,66.418724
0.710268,62.12022
0.6822907,62.48157
0.72898734,66.05934
0.65280545,63.658092
0.5971409,62.379807
0.52694505,68.50409
0.5190186,64.62041
0.5677886,64.12779
0.5414122,68.8271
0.47299066,68.32137
0.5464611,70.768456
0.56804717,72.07161
0.63942534,76.46452
0.64585745,78.67943
0.6869696,74.57275
0.60459566,83.885414
0.8303768,88.65004
0.92240787,89.14943
1.0299447,95.40471
1.1269704,92.04382
1.110621,97.64014
1.2921349,96.59587
1.3188658,105.010025
1.3391944,105.010254
1.523181,113.67375
1.5810487,115.28833
1.6645519,120.49313
1.7001563,121.29348
1.7679235,122.79265
1.8547053,127.78458
1.8573116,129.86995
1.9838825,132.81528
1.8593026,135.43716
1.937127,138.30293
1.9394672,138.57124
1.9942548,138.67236
1.9591041,142.70886
2.021081,141.41817
2.0015173,144.69957
1.8641274,146.28525
1.9075449,146.53847
1.9649936,147.56265
1.9256879,145.89757
1.8491601,143.02795
1.9236406,147.51996
1.8076034,142.3646
1.8300391,145.16469
1.8772867,143.61633
1.7731612,141.60797
1.6875527,138.53719
1.6484609,134.62587
1.665477,133.37872
1.7059531,135.62337
1.5952121,133.94765
1.6423244,131.09366
1.5973389,130.52954
1.6186854,126.70121
1.4838724,124.48113
1.5284103,124.584435
1.4451851,122.08617
1.3886015,118.30687
1.5512643,121.64722
1.4279583,117.5637
1.5202326,115.68887
1.4799874,113.08156
1.4387355,111.83596
1.4186069,110.03985
1.4115001,109.64805
1.2539827,103.9148
1.3012923,105.153755
1.2278322,101.749504
1.2213302,99.30647
1.1838439,105.08765
1.1343395,94.85263
1.1223166,97.29687
1.1102383,91.23921
1.1153705,94.435585
1.017696,85.86912
1.0507609,91.09362
0.98193175,83.27337
0.96095186,81.87647
0.9888934,83.5371
0.847243,83.99266
0.83677024,79.1118
0.99751544,76.17832
0.954212,73.41339
0.8666988,70.29018
0.9459968,72.26069
0.92204845,72.88607
0.94169146,68.73177
0.86699265,61.71008
0.8346556,68.47435
0.8506673,62.251884
0.68814856,61.936733
0.8145034,68.75084
0.64551175,65.13832
0.7675,63.763397
0.64009297,62.087223
0.6299907,60.411777
0.56686425,64.441635
0.6141674,66.73455
0.4851899,64.38499
0.33399665,66.18162
0.44506118,68.34013
0.5106883,69.98579
0.49911427,73.16734
0.5911928,73.2083
0.62863195,79.12189
0.7253046,81.63249
0.69261044,85.10995
0.83772343,84.34966
0.8750626,87.91682
0.956026,94.81616
0.9870752,94.09053
1.0765406,100.166664
1.2654579,105.271965
1.2787089,109.083244
1.4147817,113.04018
1.476363,110.69106
1.5664356,118.143394
1.6127617,118.547424
1.5924194,122.5182
1.6877781,126.15387
1.7547655,128.36438
1.757623,128.78473
1.807144,132.35452
1.7650857,133.78242
1.7763141,140.8489
1.8576223,139.63586
1.8505505,142.22609
1.7834419,139.20949
1.8889551,144.32292
1.8290465,141.34857
1.8492488,145.58678
1.8161163,142.98396
1.7895042,147.95638
1.7470645,146.10934
1.7104146,148.95094
1.6494781,146.63483
1.6732551,139.61722
1.6169136,143.50395
1.5391284,141.70047
1.5830845,140.37172
1.5150133,140.13908
1.6162986,135.90459
1.4854656,136.23613
1.4610529,133.92267
1.4129536,132.78476
1.3446199,131.04251
1.3139133,127.80719
1.3510739,129.23235
1.2848974,126.13501
1.2561184,120.97158
1.253962,119.766624
1.2391467,120.636
1.3680476,118.0215
1.2725741,117.88629
1.2528276,111.569984
1.293957,110.41516
1.1531477,109.64116
1.1162206,110.87393
1.1357011,106.22165
1.1870614,100.20925
1.0199482,98.88106
1.0456772,100.07862
1.0226771,98.1118
0.9654615,98.00765
0.96350396,90.56523
0.8287062,95.87178
0.7617716,87.78185
0.7400957,86.9158
0.6894273,84.33195
0.8307203,81.75939
0.7108517,84.964554
0.54295284,84.5913
0.6620203,80.099846
0.56048584,79.00503
0.6514987,81.30393
0.61512923,77.20721
0.50546294,72.550385
0.65245056,72.724754
0.47653025,72.44584
0.6189433,71.294334
0.58931,66.98816
0.5717879,69.036835
0.5449745,65.19085
0.4601512,64.70906
0.5787307,68.69145
0.4986844,65.61685
0.42247814,64.51649
0.31442752,63.252174
0.2763974,65.98169
0.22869276,63.12698
0.2997705,64.699524
0.28769326,64.32021
0.15776785,65.63277
0.21570522,64.83139
0.16655514,69.13802
0.2113948,67.835655
0.20693411,67.41225
0.309897,74.23666
0.25931135,80.616425
0.32666895,82.499115
0.42174414,85.848694
0.45894098,84.93423
0.64825845,90.15123
0.58569545,95.55887
0.764485,93.45577
0.7991048,98.77538
0.9312464,107.940315
0.98318475,106.37363
1.121616,111.5357
1.190943,113.225624
1.119529,115.01778
1.1075144,121.621475
1.2774179,124.27941
1.2796301,126.07531
1.3854834,129.99025
1.4100716,132.74922
1.5166222,134.70457
1.4681417,133.36298
1.5090427,140.21965
1.613351,137.01161
1.4781997,140.51923
1.6441084,140.20897
1.6009932,142.06871
1.5068665,147.47723
1.4790154,141.61736
1.3942121,149.91028
1.4153075,139.61809
1.3228105,141.92825
1.3495977,142.35931
1.3000662,146.4425
1.3847423,143.29176
1.272502,141.16428
1.2781897,142.33667
1.242674,139.16486
1.185462,136.77477
1.1050861,142.28572
1.183041,137.14023
1.1431794,136.2649
1.0240854,132.69518
1.1801716,129.88313
1.0740428,129.72797
1.0156833,126.50411
1.0125682,123.54651
0.9839307,125.56261
0.9821404,120.831116
0.93458635,117.582214
0.91532993,116.20556
0.9754607,118.723404
0.9455133,116.301315
0.83529365,112.01516
0.881045,107.44897
0.87645316,106.09482
0.85355484,104.92185
0.78524476,104.65036
0.7787203,104.72951
0.67927456,101.58342
0.6377626,93.45734
0.5940932,95.71044
0.6150561,94.63811
0.5550561,96.13336
0.4669267,89.74098
0.42617562,88.42625
0.44022506,86.406494
0.35406533,89.144646
0.46597973,83.91404
0.4267646,80.29701
0.35178772,82.03619
0.42315084,76.85437
0.3205103,76.12024
0.33813754,72.5972
0.4021788,72.38481
0.29177624,73.42334
0.26418343,71.14251
0.29953617,69.27037
0.34856397,68.58246
0.28844774,66.869156
0.3696971,61.754063
0.2854582,64.475494
0.13840246,64.582634
0.23139346,63.648796
0.17703755,64.179016
0.148151,61.935165
0.10184421,60.405186
0.019822642,62.831184
-0.008648247,65.036896
0.007324717,63.636948
0.03719822,68.42787
-0.024006983,70.64923
-0.11772199,64.74829
-0.062415987,70.54456
-0.014872377,74.6883
0.017391961,82.000114
0.06523541,78.76941
0.11415437,84.38206
0.25939637,86.33434
0.284655,89.394714
0.4134586,92.41851
0.42211622,95.72939
0.53988904,98.52548
0.66316086,99.94056
0.7817209,104.41526
0.84650385,108.40321
0.8877441,114.445885
0.97301507,114.44272
1.1086922,117.19618
1.1647239,117.635376
1.2116266,125.170525
1.2334702,128.45966
1.2478411,125.15787
1.2895364,133.40488
1.2270284,133.33011
1.358781,134.0596
1.3434027,136.59491
1.3768941,141.8898
1.4579264,138.59315
1.527705,141.35263
1.3806831,143.83607
1.3767612,143.96361
1.3516865,144.25555
1.3913985,146.29268
1.2641741,141.26152
1.3427379,144.5195
1.3174788,144.60487
1.2934618,140.11444
1.337323,142.67377
1.1758786,143.58028
1.154761,136.95784
1.1764445,138.10495
1.1736448,139.61224
1.091118,135.77888
1.0778829,134.9238
1.0338539,136.6952
1.0836209,131.23244
0.9841452,129.72485
0.9988052,126.67438
0.96694434,121.820625
1.0315542,126.39611
0.910996,125.451706
0.9599329,121.128525
0.8891638,116.94539
0.9292134,111.61408
0.94871855,113.685844
0.90847915,115.68618
0.9127764,113.081894
0.88293666,114.44485
0.8707611,106.620186
0.8392537,108.29869
0.82705224,106.41329
0.75136083,99.42311
0.7614968,102.25765
0.6895324,98.59974
0.67042685,93.579834
0.6139765,95.79846
0.5744629,94.0557
0.47792453,91.513115
0.47637692,90.22324
0.49049798,89.89151
0.45198214,86.72019
0.4171168,83.06349
0.43216774,85.04532
0.4681712,76.50165
0.44806,76.38614
0.38198155,79.39849
0.38364902,73.31407
0.41609418,73.09057
0.42832258,66.84167
0.415348,73.51176
0.4046064,66.43569
0.4096044,74.3401
0.2723722,65.699165
0.34587774,67.82297
0.30325425,62.88187
0.25684366,63.14827
0.26993516,63.21299
0.29149082,63.245995
0.2111224,59.67743
0.25402862,64.30519
0.12173437,62.722435
0.090412,68.51009
0.17094934,63.938187
0.15825629,67.004196
0.1293533,68.220856
0.14712341,69.62376
0.10404228,72.96782
0.1525509,74.08064
0.17655754,79.18787
0.28126675,80.66548
0.28994465,87.43796
0.31419367,93.53874
0.47110194,88.897705
0.5324528,91.17554
0.64625895,96.57744
0.75800335,98.20425
0.8646826,99.403786
0.91474974,102.999245
0.9850174,110.11646
1.1706887,105.090355
1.2994636,114.162895
1.2414132,116.236565
1.3236955,121.18271
1.3711807,121.37712
1.4609146,124.31254
1.4661651,129.72626
1.5331517,134.47746
1.5312761,136.81032
1.6021215,138.68773
1.5968695,137.69243
1.6312643,139.60947
1.5642966,141.16702
1.5241023,142.67345
1.6395683,140.48221
1.7082474,142.12302
1.6029924,143.15593
1.5751609,146.6061
1.6579757,141.24594
1.6298504,144.88142
1.5530461,143.98863
1.6452559,141.47806
1.5239652,140.83392
1.4140996,145.62746
1.4313457,139.26976
1.541276,139.25208
1.4720856,138.62994
1.3343971,134.89618
1.2894422,133.92157
1.3418528,130.56769
1.2927413,132.42017
1.240896,131.21387
1.4180032,129.27597
1.2682333,123.61854
1.2420348,121.666214
1.3416634,123.452965
1.2821012,119.945724
1.263023,116.851
1.1795913,117.12315
1.2154888,114.402885
1.1455734,116.69522
1.1407363,112.76228
1.1430913,107.618095
1.1315279,107.77389
1.1277422,105.79391
1.029169,100.37084
1.1057788,97.19178
1.0735486,99.525505
1.0471864,97.205444
0.9691587,96.25876
0.8391636,94.49417
0.86194414,91.451836
0.76878,91.78226
0.77318573,87.53472
0.8166608,87.10738
0.7942587,82.68961
0.7795097,82.21649
0.738446,83.84679
0.71664417,77.40836
0.7759384,77.36005
0.6862023,74.621544
0.7812209,75.8006
0.8182205,75.007454
0.7704865,73.69013
0.7654964,69.13205
0.7989972,69.13936
0.7088418,69.22774
0.6729488,66.20823
0.6225404,64.731926
0.6486156,61.318558
0.68862516,65.74425
0.55246913,62.344566
0.62879664,62.28008
0.51637715,63.472164
0.5458021,64.68406
0.5081935,62.17282
0.38382226,66.46912
0.43788123,64.85443
0.42269546,70.82449
0.4683172,72.27086
0.48895225,71.5061
0.45764062,70.659935
0.5940875,75.84013
0.51475185,75.84352
0.61332923,79.91796
0.67011803,85.61433
0.6893907,87.2624
0.81901336,86.80971
0.8888345,94.29902
1.0127091,97.90169
1.0685244,98.89571
1.1698987,99.708534
1.308781,102.255356
1.3948451,109.10602
1.5013855,114.57536
1.5038409,114.069855
1.7116315,117.94135
1.6508318,121.43867
1.7416788,123.687
1.764346,125.84564
1.7599368,130.58614
1.8758101,133.90671
1.9097574,134.74934
1.8933082,136.43182
1.9838387,141.6944
1.865983,135.64694
1.8501912,142.25574
1.9620703,142.7194
1.884552,140.78548
1.8638233,140.20189
1.8423775,140.75922
1.9372661,143.56013
1.9324194,140.9134
1.8614976,145.43823
1.8387251,147.12637
1.7549789,143.83858
1.8446267,140.24109
1.7138503,139.82489
1.7110345,139.70271
1.6165551,138.19376
1.7075523,134.78712
1.7422637,136.88367
1.5591795,132.18817
1.6979452,132.12248
1.5466669,130.90208
1.5467731,130.79555
1.5486661,126.471565
1.5559801,128.05959
1.5123363,123.16267
1.5493315,118.5103
1.4557427,120.656494
1.4591978,117.3318
1.5257455,117.68759
1.4563702,113.551285
1.4760972,109.17151
1.4455035,107.97737
1.3752472,104.42863
1.3473836,103.36569
1.2683185,102.011475
1.3283447,102.79131
1.361423,102.07543
1.2749656,99.02777
1.25922,96.13839
1.1363362,96.93422
1.063773,93.93685
1.073262,93.74089
1.0717498,92.401566
1.0374384,92.60926
1.0484768,84.96877
0.97265905,83.50104
0.92166024,84.12562
0.95045906,80.63624
0.94029814,74.944405
0.9232177,77.166916
0.93032265,75.97986
0.8853717,74.10233
0.9216001,73.98552
0.9093234,68.32331
0.8906826,68.90858
0.934053,70.845116
0.86559945,67.1808
0.8714585,65.89116
0.7339167,67.02747
0.7929155,64.83987
0.77641356,68.53433
0.7585689,65.07293
0.6541219,64.126656
0.77244085,61.846527
0.6115927,58.316113
0.55546737,64.27199
0.5770158,69.073204
0.548366,64.55737
0.5228806,68.470985
0.5079989,69.39108
0.5727044,72.21708
0.5173231,77.295555
0.6483201,75.45054
0.734748,79.64766
0.7751133,79.17275
0.8068057,84.898796
0.85430276,84.85109
0.92546046,89.02256
0.991629,95.00011
1.0418923,99.95176
1.2572812,100.924225
1.3425813,103.48526
1.4041396,110.78344
1.4749444,109.073425
1.5164346,115.6909
1.6718072,115.04296
1.6681533,118.25739
1.6717893,127.06245
1.778352,128.23239
1.7902045,132.12051
1.8997539,133.96783
1.886015,131.47995
1.975697,133.88559
1.8717359,141.91649
1.9235644,140.62686
1.9188263,139.83315
1.8778023,141.5089
1.9078611,141.66908
1.9171385,145.45117
1.9157618,140.81578
1.8672773,148.40942
1.8813335,144.61182
1.8012431,146.64598
1.7306439,144.61626
1.8557583,145.01303
1.754042,143.27162
1.7222292,141.26059
1.678052,140.70605
1.7009221,145.04764
1.6880556,142.39752
1.5813762,138.2294
1.5764205,133.44547
1.5127006,133.87569
1.5086935,129.95256
1.5717337,133.74597
1.3934535,129.34647
1.3770237,125.51348
1.4039172,128.16373
1.3582019,122.21422
1.3296732,120.2638
1.4270334,124.12162
1.4495277,115.68712
1.4769833,113.41146
1.4444653,113.330444
1.2684114,109.407715
1.365709,113.39003
1.2728179,110.58252
1.1599164,108.03647
1.2197716,104.45597
1.1313742,100.24002
1.1978487,100.62557
1.1728034,95.671165
1.0740279,94.360985
0.9553271,93.94915
0.9624182,92.891624
1.0244678,93.26165
0.8723125,91.12854
0.8085944,87.75333
0.8202123,89.123924
0.7671963,84.56166
0.688651,84.537224
0.7787684,80.62434
0.8301299,79.17519
0.71539724,77.4645
0.7673675,73.44389
0.76749074,71.42804
0.83774966,74.08768
0.7501209,68.676476
0.74643046,65.06955
0.76334316,63.076344
0.7718714,69.18987
0.66644806,67.97835
0.57339305,61.790794
0.6479953,65.57752
0.5484717,67.29813
0.46707815,62.440594
0.54718727,63.53718
0.44909233,64.9029
0.32690898,67.90984
0.40906203,61.315384
0.2483407,64.96669
0.28904337,66.86652
0.29851645,69.451744
0.33536106,68.10589
0.2742882,68.5809
0.2900523,72.93418
0.38689917,78.806915
0.4444985,78.103
0.48007393,83.270744
0.5786706,87.681595
0.60377014,85.06292
0.68968123,91.33994
0.7808072,91.60265
0.9074461,92.65435
0.9388889,100.009865
1.0626653,106.03522
1.1046767,111.30845
1.2401341,112.05997
1.2665386,112.88854
1.4504465,119.56394
1.3624356,120.18428
1.5148656,124.425674
1.4094363,123.35513
1.4670196,130.22404
1.5424414,134.43901
1.6021911,136.348
1.5574331,136.2795
1.6082745,139.10571
1.6015997,139.6949
1.5857757,143.22217
1.6220098,141.59921
1.6207402,145.9888
1.6136677,142.95328
1.6038384,145.89839
1.5746126,144.08429
1.5620705,143.25899
1.56296,141.68228
1.5185211,143.97389
1.5288514,144.05957
1.5407736,139.28223
1.3593798,141.1995
1.382079,138.69922
1.3814601,140.71045
1.3273379,138.34918
1.1997572,137.92346
1.2745314,138.57167
1.2563053,134.91457
1.2087092,131.48601
1.1461112,126.00836
1.1170226,122.593925
1.1390247,126.89916
1.1339552,123.108604
1.0479412,122.564865
1.0048493,122.0954
1.1076995,117.67696
0.9943593,117.15838
1.0182552,117.43541
1.0602697,111.439095
1.0840796,111.002754
1.0296826,107.47146
0.92451614,111.19138
0.88222945,103.39295
0.9139728,103.57693
0.8942885,102.26714
0.8148635,101.78038
0.85355276,98.3392
0.6736975,98.10586
0.6888092,97.31772
0.6296822,94.1945
0.6123268,93.27947
0.56937987,87.278046
0.502075,90.91701
0.44265065,88.53144
0.44357654,83.12106
0.4334227,84.29733
0.47181848,78.95922
0.39247116,79.002045
0.47635993,76.014336
0.39710838,74.66193
0.4235509,76.303
0.29768103,72.209335
0.42321557,68.79834
0.3886338,71.19283
0.37768483,64.647064
0.28279603,66.682846
0.3392724,65.71759
0.30706394,63.241207
0.32315668,64.430405
0.24410293,62.605545
0.13444868,62.413784
0.1373911,63.114414
0.075769976,61.92785
0.06839814,64.59663
0.02043867,69.220535
0.02422862,65.06263
0.085837536,66.58611
0.01463814,68.79505
0.020913249,69.43147
0.045420688,73.00481
0.10108473,74.407814
0.14697626,77.89848
0.11399909,79.30814
0.25282103,82.41906
0.24636808,83.34133
0.30724972,89.440605
0.4491579,92.59861
0.47864097,97.85077
0.5801373,100.09872
0.7087348,103.00616
0.8102754,105.27366
1.0027604,109.411545
0.96855843,113.99635
0.9767395,115.631035
1.1210393,120.23436
1.1160914,117.88123
1.1998086,126.39668
1.2105052,124.79823
1.2708306,127.530396
1.2449006,133.61708
1.3829808,133.95653
1.2450669,135.62373
1.4086471,136.37283
1.3508036,144.09807
1.3942598,141.70872
1.3557179,139.39355
1.3446902,139.90875
1.3339094,143.74411
1.3960971,143.96024
1.3346581,145.27112
1.3943202,144.58292
1.3530972,141.17848
1.2739836,143.06514
1.2131101,141.59172
1.209065,139.38625
1.1878747,142.16107
1.1212462,143.95038
1.1928021,139.32727
1.1239043,137.21735
1.1839237,136.01894
1.0402372,137.10022
0.9237677,132.36092
0.9126505,129.351
0.9270296,128.77512
0.92388844,123.688644
0.98368484,129.55478
0.88156545,123.435326
0.8916868,119.931885
0.8469529,123.41859
0.9621934,117.57474
0.8886317,113.27185
0.94023037,112.754425
0.8829978,109.05015
0.84258443,110.67336
0.8484692,109.22944
0.9302767,109.24772
0.7592326,106.38205
0.72263116,102.785034
0.69773597,102.05472
0.6608638,99.011696
0.64913833,96.61925
0.59661305,94.99632
0.5004738,92.96655
0.56343937,95.95303
0.5662208,89.28054
0.4322031,88.31334
0.4411898,82.947586
0.39561364,84.69431
0.43062034,80.7999
0.33297846,80.33421
0.39538753,80.04794
0.36294612,78.354515
0.41957158,75.00592
0.23311675,74.70386
0.31398085,70.35929
0.3775393,67.9506
0.33527908,69.67355
0.38323492,69.75403
0.30337018,65.73048
0.4039387,67.635704
0.3156312,63.337997
0.19104609,63.102886
0.15379007,61.487938
0.19152775,64.90018
0.1889482,66.24147
0.030539807,62.518223
0.065051496,59.78019
0.036059927,64.04913
0.029746471,64.85479
-0.062304728,62.12582
-0.0062950808,68.07435
0.040582333,68.95529
0.023026042,68.44091
0.014370498,74.91074
0.12109384,74.386734
0.20543163,76.85272
0.20634976,77.568115
0.21319653,81.96904
0.37699616,86.29509
0.4125346,87.31133
0.56037664,92.806076
0.575947,98.27867
0.65365654,100.44681
0.7786214,102.08112
0.8718233,105.987206
1.0329475,108.0772
1.0516999,109.03955
1.1430336,115.98393
1.1927062,120.36403
1.202519,121.79047
1.2613757,125.09639
1.3934504,127.78303
1.359307,133.7072
1.4717116,133.41031
1.407001,131.54445
1.4959905,137.36368
1.4600443,142.40714
1.4875324,141.14738
1.4547164,142.84976
1.4521767,143.16496
1.4701227,144.17967
1.4411238,144.16508
1.4518045,141.20506
1.5179437,143.5826
1.5079585,143.46242
1.4694433,143.81184
1.4228555,143.40446
1.4389045,143.99046
1.4120592,139.82361
1.3402492,139.46785
1.3212007,138.39926
1.2669749,138.72575
1.22167,136.02957
1.2479801,136.81674
1.2500393,133.68694
1.2047559,131.65256
1.1786342,130.86444
1.1795309,128.66821
1.1756862,127.789444
1.1294758,127.88099
1.1852863,121.82169
1.1279913,120.96946
1.1426698,119.35084
1.1557372,117.08985
1.1164267,119.00552
1.0479554,114.333855
1.0922017,116.30874
1.1145264,105.660965
0.9933813,109.05383
1.0307695,107.30205
1.019472,107.25566
1.0000138,104.88918
0.8889606,95.97122
0.92095953,102.81181
0.9184637,96.472336
0.8651998,96.108215
0.7847106,93.86787
0.70846844,91.40164
0.66763455,89.48518
0.8127641,90.641846
0.65007067,86.23939
0.6774626,87.68814
0.6715387,82.54569
0.6819674,82.51213
0.5764552,79.10297
0.56552947,74.34501
0.6435128,74.47901
0.5377483,68.15335
0.61945355,71.74944
0.62479854,73.20344
0.6233475,70.88444
0.5793403,65.92574
0.5335685,66.45845
0.5664434,63.384083
0.6985176,64.91286
0.58986044,64.74291
0.47199234,63.81829
0.4977478,65.389565
0.44607863,66.65531
0.41390476,60.855022
0.36539665,66.29649
0.3195001,64.475655
0.31391466,66.28033
0.25170818,69.53356
0.38857648,64.4963
0.31264248,67.99414
0.30012205,70.649605
0.32091266,72.145134
0.3249558,76.901596
0.5132642,77.997734
0.51344496,82.61594
0.6366602,83.53763
0.71392983,87.504654
0.7237126,91.6928
0.8957121,95.422516
0.88302827,97.28656
1.0422645,97.054634
1.1258891,105.7434
1.2551726,106.28653
1.3122206,107.13327
1.3959324,110.842995
1.5083431,112.38699
1.4763995,121.32731
1.619649,120.21452
1.6470636,131.28233
1.6715286,128.72792
1.7148141,128.46577
1.7719821,134.98708
1.8316524,139.86539
1.846687,138.55472
1.9127389,136.08263
1.8092993,139.52182
1.8746078,140.34921
1.9370418,146.69653
1.8524845,147.64653
1.7732916,144.56259
1.7948954,145.14894
1.838111,143.1211
1.7573184,144.20424
1.8116282,142.17392
1.7302371,145.23647
1.6938561,138.82884
1.66841,139.24524
1.6802907,138.6249
1.5977513,139.1312
1.6129565,141.75763
1.5477256,134.76115
1.5502636,131.84877
1.4916373,135.19681
1.4664196,131.82892
1.5669118,131.81926
1.5541619,129.06346
1.4225361,126.98879
1.4825668,126.82899
1.4199746,121.50597
1.4170332,117.348274
1.4289217,119.03863
1.4679208,118.46484
1.4501823,117.846275
1.3980511,114.205315
1.4226272,108.94695
1.4658356,109.865234
1.3470758,108.84197
1.2617679,107.37459
1.354001,105.57647
1.2584169,104.12018
1.2748463,98.535645
1.2454202,103.15631
1.1196966,96.747185
1.1003064,96.528114
1.0694187,92.95453
1.0351126,90.209175
1.1015849,86.69174
0.9539238,87.21201
0.92083406,83.26513
0.9773247,84.95956
0.94292045,80.88169
0.87750524,80.5407
0.9178133,76.582504
0.87335443,76.704605
0.83447516,78.58682
0.89010745,71.42066
0.98028463,69.77586
0.9188339,74.02065
0.8585268,68.18786
0.9043891,66.06544
0.8257809,62.15367
0.91016006,66.99188
0.85780257,61.14172
0.76486033,64.19897
0.72317487,62.7562
0.6714651,58.791004
0.6377303,61.564087
0.68441707,61.89465
0.68361586,68.70375
0.5900148,64.76075
0.5005394,65.29076
0.5588123,64.20092
0.53613573,67.8829
0.4919742,68.966385
0.54258966,75.12072
0.6787881,75.581894
0.6151389,80.002045
0.7053627,75.399864
0.70800745,79.15543
0.9302814,84.082184
0.94174856,86.328804
0.91884375,87.00111
0.9387091,95.02094
1.176479,95.93415
1.2085725,103.58853
1.4352823,101.745155
1.4636731,108.64241
1.5474387,109.71648
1.6084307,112.66835
1.6870556,115.20245
1.7263811,120.69189
1.7006944,122.61587
1.8120445,125.55884
1.8682406,128.12112
1.9391937,133.43022
1.8855224,135.73592
1.8743281,134.69725
1.9604647,137.35551
1.941541,137.37741
2.0199804,140.95816
1.9672614,146.59521
1.926367,145.48766
1.9463445,140.80673
1.8818036,143.5861
2.034059,141.68243
1.8686355,143.59688
1.8788289,141.89032
1.9249145,147.92897
1.8294898,142.93867
1.8927625,141.286
1.6823072,140.17386
1.8369657,142.58907
1.688086,138.83057
1.7259493,142.29585
1.6689273,133.07135
1.5519148,135.74586
1.6116364,132.46782
1.6806072,128.92595
1.6245388,131.78876
1.5546231,129.3701
1.5092355,125.59635
1.4867481,124.97781
1.4178215,119.020515
1.506133,117.06666
1.3674594,116.548584
1.4975188,118.06366
1.3869703,117.47417
1.4377676,113.61809
1.4287881,110.396385
1.3914933,110.40091
1.3997176,107.11057
1.237787,105.30801
1.3319432,103.669395
1.215327,101.3495
1.2018679,98.44172
1.1380546,97.95033
1.0890341,98.55765
1.0382326,93.05519
0.9749833,90.80214
1.0138899,94.57594
0.95546216,86.41177
0.894503,87.2233
0.8911066,85.188675
0.7871729,87.05674
0.8393949,80.76736
0.9591117,78.56736
0.77404404,75.766624
0.8370784,74.72487
0.8650591,76.51963
0.8195616,75.2959
0.8623985,70.88588
0.83148515,68.01633
0.76557904,69.36254
0.700393,63.582672
0.72950685,65.482124
0.59338856,66.12226
0.7125979,65.891
0.8451927,62.612312
0.65887207,63.139153
0.6304421,63.701275
0.5168829,64.46142
0.47828394,60.173695
0.49032477,60.433975
0.4470947,65.77993
0.4173199,69.58534
0.37271196,68.12091
0.40357304,70.31171
0.40586475,72.254036
0.55033225,68.42245
0.5287128,73.385185
0.52821034,77.59433
0.5941107,82.16823
0.60633737,81.32075
0.6980404,84.476204
0.74081427,89.95777
0.8777649,96.446915
0.88337934,96.54418
0.9938184,102.032684
1.1388369,102.8694
1.2478911,106.654526
1.2911386,110.29559
1.350391,112.761345
1.376192,117.64375
1.3998148,120.41878
1.565726,119.309944
1.5576013,125.01861
1.5251812,128.91325
1.6382797,131.76729
1.7075489,131.32318
1.742674,134.1857
1.7991201,136.89226
1.7964083,137.49774
1.803114,141.76949
1.7285573,141.32773
1.694835,141.58371
1.737753,144.61514
1.7002939,146.20296
1.5916702,141.02707
1.7036638,145.4192
1.6515806,144.29395
1.6590836,144.52103
1.6323187,144.61177
1.503181,143.02344
1.5478464,145.32597
1.5313742,140.89487
1.4197694,140.94589
1.4582012,139.65471
1.4731827,143.50023
1.3863469,135.05896
1.2742505,133.1382
1.1858788,132.13748
1.30745,136.2028
1.2289665,130.62718
1.2261423,125.14903
1.2086818,127.180336
1.1770817,124.71026
1.198843,123.12353
1.231701,120.90149
1.1972209,116.348885
1.1602138,116.77365
1.230835,115.84437
1.1589665,112.50536
1.1503754,110.62368
1.1151716,107.769905
1.0336056,104.38435
0.9604841,103.965836
0.9813657,105.08914
0.94698656,104.844055
0.8784651,99.25743
0.8663361,97.0394
0.7759536,93.39326
0.7965458,93.87336
0.7108901,95.01266
0.73724234,85.37984
0.63333833,89.35566
0.60234624,87.06136
0.5548462,87.040215
0.5467763,84.619125
0.5136144,81.79274
0.5184805,83.82009
0.4854129,80.42166
0.631608,76.67306
0.5720632,70.46027
0.46429563,72.22825
0.5732642,73.4787
0.42809278,65.84752
0.4994486,63.047943
0.5461589,64.5797
0.4191805,66.01999
0.38464814,64.14377
0.36196384,68.680855
0.30187348,61.081573
0.2299941,63.043354
0.2109351,65.10636
0.1940389,61.887768
0.17374131,59.54871
0.12817566,67.19226
0.08665434,66.50583
0.10199237,61.996975
0.12149412,65.87346
0.0857668,68.27478
0.06360648,73.59896
0.05758545,76.80189
0.09700303,74.47908
0.14054956,75.89789
0.30809623,81.30056
0.33557257,83.94245
0.41946733,85.79281
0.46881163,84.151695
0.53230244,93.69352
0.57788837,99.45856
0.6951093,98.5033
0.7744937,99.83843
0.8972552,106.09153
0.9405981,109.14134
1.0009669,114.03887
1.1422575,114.86403
1.1544093,124.66098
1.2635053,120.15984
1.2739528,123.1428
1.2971017,129.24791
1.4151382,130.3651
1.4308629,130.21933
1.4042212,135.76439
1.4832506,136.51262
1.4391406,140.97124
1.3690228,144.2593
1.3815309,140.1418
1.4100132,143.42706
1.4793773,145.47206
1.2918268,146.27881
1.4207438,149.28584
1.4121639,144.05168
1.3340614,143.66403
1.3111389,146.22168
1.2740663,142.3139
1.2405611,141.54039
1.242963,141.82832
1.2943964,138.1633
1.1184618,141.45494
1.1582464,139.69402
1.1170304,135.97157
1.1486909,137.42903
1.0547427,130.41527
0.9885571,132.25414
0.97996414,133.55487
0.9891988,125.64969
1.003258,125.28573
0.95289546,121.64063
0.96740097,123.71758
0.9274821,123.2391
0.8830668,120.10884
0.92929476,120.37714
0.87181866,114.80657
0.88570064,114.7425
0.8885128,109.02817
0.86899066,113.18836
0.7777525,108.87085
0.790847,104.629555
0.74028116,104.3511
0.77975506,100.85383
0.6611593,102.00829
0.59059423,97.67558
0.6152794,98.53491
0.6217355,96.267525
0.47031683,92.05063
0.5410472,93.204254
0.4496121,89.55539
0.4481545,89.51238
0.39358592,87.02694
0.3587889,86.02649
0.38496396,83.52136
0.3397391,82.299095
0.32275864,74.5561
0.38081023,77.99142
0.24583913,75.27951
0.272009,74.315895
0.26339197,70.88
0.3652553,69.64975
0.27564943,70.59758
0.35113162,64.89746
0.27820143,66.482
0.21845385,64.10935
0.31019914,68.724625
0.17920718,62.53623
0.22313192,62.153
0.14171454,63.774544
0.11144953,63.87986
0.021105137,64.60109
0.026871158,64.89767
0.05545553,69.3223
-0.024505984,61.59321
0.011173886,69.770775
-0.05862468,64.074104
0.049988028,65.97792
-0.010727902,72.64062
0.054700598,74.84984
0.12795681,76.168884
0.058351,79.40118
0.07325346,78.59639
0.23109992,83.17065
0.3042077,91.236534
0.3948692,87.29044
0.4182971,89.52958
0.57297844,95.497856
0.61882335,98.55009
0.6822414,106.072624
0.80698985,106.21921
0.9126882,112.75451
0.933002,116.83029
1.0697547,115.78004
1.105916,123.65083
1.2393149,124.09559
1.1656663,125.98838
1.2692587,124.41038
1.2879407,131.97647
1.3597658,135.40611
1.3314936,134.84941
1.3586007,134.67044
1.3952072,141.7826
1.3265733,138.35416
1.4118072,141.65778
1.3574411,141.25069
1.3695151,143.57204
1.390298,145.86719
1.3629847,145.07156
1.4611585,141.34166
1.4320378,143.76024
1.3766603,145.12837
1.2733153,144.47964
1.3000897,143.97018
1.1698222,144.14206
1.2402649,138.31189
1.2518508,136.96706
1.220993,139.6974
1.1967095,133.64482
1.1811839,134.54692
1.0633763,134.71045
1.1178493,131.20032
1.079557,133.207
1.0951912,128.15245
1.1204615,125.88226
1.036104,126.344894
1.0785266,128.2675
0.92625964,120.2537
1.0664831,116.72674
1.0786709,112.70784
0.97929096,115.83906
1.0383818,109.60705
0.87766236,111.388245
0.9722517,111.45251
0.82961065,106.42499
0.8686374,107.01235
0.87075377,105.04659
0.77134496,102.41654
0.8163086,99.15035
0.82753676,99.80673
0.8121726,98.311745
0.7396059,96.52712
0.7318851,94.53234
0.63869494,94.0121
0.5414292,88.98069
0.5259297,81.99556
0.56170845,85.21387
0.54592466,85.07262
0.46043593,86.30362
0.56092775,76.58832
0.5438394,81.39807
0.4746222,73.19219
0.51852995,73.104416
0.4952812,73.24979
0.5469128,74.38799
0.48531586,69.61998
0.49971712,70.359665
0.46987596,63.10141
0.503389,66.99696
0.42652372,64.85678
0.4940164,67.50193
0.4297342,61.16972
0.3877402,66.63557
0.35571146,61.10876
0.2742721,59.650375
0.2769431,67.53164
0.14768374,65.904816
0.14701535,63.62142
0.2298812,65.86354
0.2316171,66.212
0.17182723,64.81551
0.26091468,66.173904
0.17266558,73.15526
0.255643,74.49408
0.3180261,78.35738
0.391507,78.175735
0.43203577,78.92418
0.53414714,83.223816
0.56552196,86.842865
0.6606184,91.73826
0.80782086,95.33985
0.8309815,95.77074
1.0058105,100.54325
0.9934228,106.00349
1.0901971,104.84814
1.1844589,105.59095
1.2210498,113.382
1.3293974,115.45928
1.4938627,117.934715
1.4942547,124.98166
1.5579603,125.2405
1.5991843,130.34087
1.622354,129.80202
1.6431752,133.85568
1.7052662,135.06203
1.6894531,139.2694
1.7138951,142.54086
1.6493855,140.2498
1.7324531,141.2144
1.7836081,140.83177
1.7128664,139.89415
1.7870451,144.97145
1.6814905,141.80801
1.7610723,141.99316
1.7066643,144.11688
1.7692716,143.77309
1.5582743,142.30043
1.6453063,144.21709
1.6278731,140.05486
1.5337529,143.19664
1.5926703,140.06403
1.6045289,135.47763
1.4863945,132.21895
1.4373863,134.46272
1.4069182,131.90385
1.4028387,132.55371
1.4050028,131.20103
1.3891091,127.90848
1.3791256,123.503075
1.3756874,124.42421
1.2679019,121.728836
1.1991221,120.9325
1.3358805,121.22838
1.3749443,117.24422
1.2790389,117.75143
1.2828503,115.540215
1.2752368,112.051834
1.346127,106.48909
1.3085091,105.265434
1.2397919,110.20387
1.2796829,103.4698
1.1850028,98.360214
1.1323452,99.31766
1.0692081,101.3935
1.0085304,99.33706
1.0378705,95.95339
0.99741685,88.83009
0.9216836,92.12071
0.903257,87.9621
0.90685695,85.353775
0.8216942,85.30305
0.8713637,83.45641
0.80761105,79.586754
0.90811974,77.58723
0.7936268,82.070496
0.8135537,78.580986
0.94550765,71.81429
0.84833485,72.25548
0.8759453,72.16723
0.82709277,72.454185
0.9161594,67.29289
0.8219153,70.53658
0.78588957,68.37546
0.75966144,68.747025
0.80066293,63.690052
0.8197401,60.203785
0.75252134,64.43489
0.613091,61.97464
0.6255927,63.281654
0.6261195,61.714943
0.551235,63.259148
0.49483395,66.22613
0.55605924,65.804245
0.44555798,65.31076
0.6021489,72.398636
0.5483743,71.13207
0.593254,68.69027
0.5291264,73.13783
0.6030587,73.53099
0.6161264,80.547134
0.7030443,81.4524
0.8957037,86.87508
0.81810063,87.87123
0.99283063,94.43519
1.0914195,90.63682
1.1870639,101.21711
1.3444697,97.09038
1.4121575,106.448296
1.535229,107.68821
1.5738881,112.012764
1.6073623,113.26498
1.561324,119.10353
1.7994267,119.94981
1.7811581,121.377846
1.8663949,122.717445
1.8493893,130.68713
1.920989,135.09406
1.8404171,134.90712
1.9428613,133.00726
1.8878057,138.3031
2.0618966,137.31064
1.9967617,141.27837
1.8780376,144.01726
2.0444498,141.47945
1.9480964,144.41563
1.9843583,141.94939
1.8903623,143.41522
1.911028,142.22318
1.8556862,141.27576
1.8855885,145.17084
1.820259,146.09454
1.9106747,141.71301
1.669752,143.49652
1.8048414,145.09117
1.7759453,137.63045
1.7511861,136.0481
1.6449447,140.02478
1.6402866,133.98094
1.6586444,131.19737
1.6527421,130.24315
1.5435715,130.66321
1.5770948,125.95228
1.5292042,126.69307
1.472811,123.22244
1.5322602,122.84
1.4748936,118.21684
1.5404826,121.27502
1.444751,116.77823
1.4525518,110.45445
1.5061953,111.30842
1.4772599,111.24699
1.347128,112.33203
1.3825703,107.63226
1.3067999,105.73346
1.2954786,101.44612
1.201657,103.1981
1.3330775,100.50846
1.2584844,98.210625
1.2444733,94.15511
1.0710622,94.496284
1.0800991,90.96124
1.0440339,89.14897
1.0138785,87.19001
0.93564075,88.93279
0.9969723,83.457825
0.96412027,83.51571
0.9229284,80.91038
0.86227465,82.81427
0.90522486,75.73059
0.81198144,71.20233
0.9228518,75.36856
0.96283734,72.35129
0.8830964,71.57504
0.942282,73.13023
0.8794079,69.05845
0.92655355,68.21383
0.8660465,68.143074
0.8162821,62.69974
0.8239102,63.042133
0.76602924,59.159077
0.692493,61.41638
0.6560794,65.89998
0.5993627,65.636086
0.60926807,62.40043
0.47074294,61.51412
0.5176416,64.09744
0.4881918,67.88697
0.46923056,68.49381
0.5075777,66.5722
0.48960406,68.05222
0.61563843,72.16084
0.6108516,76.48892
0.61113113,73.837
0.6674297,82.98092
0.6217607,85.125084
0.827168,87.76932
0.8644062,88.533226
0.95558476,93.27542
0.9981793,94.71214
1.1442752,101.18052
1.1845703,102.51164
1.3601236,105.27999
1.4150372,108.250244
1.5228796,113.96144
1.4913964,116.39988
1.6000338,114.84327
1.722399,123.870125
1.6031644,122.71959
1.7112664,124.37861
1.7321882,129.66937
1.7182097,135.776
1.711778,135.76164
1.8506461,133.64156
1.8356012,139.44525
1.8116401,137.85464
1.8250555,140.43161
1.9102081,139.56804
1.9309872,144.04185
1.739071,142.85768
1.7606101,143.15477
1.7702794,141.76785
1.7203261,143.76651
1.727171,143.42259
1.6890471,145.02643
1.6526419,144.47906
1.7624338,144.3267
1.6923007,141.64519
1.6401196,141.55807
1.5719478,136.64587
1.4471148,138.87814
1.4363623,134.72127
1.4509374,131.88184
1.5070919,128.49257
1.3945057,128.45255
1.3552456,129.86108
1.3579822,129.97249
1.3456458,124.354164
1.3794667,121.46429
1.3153832,122.276306
1.3230867,118.91068
1.2430092,119.23562
1.3012366,114.763664
1.2410046,114.630196
1.2716386,114.650406
1.2117313,111.3111
1.164987,110.348236
1.2081652,107.16226
1.0827484,104.95943
0.9837682,102.809006
1.0046378,102.399475
1.0050653,99.70184
0.895087,99.93825
0.93974453,97.5727
0.84433204,92.21699
0.8379074,92.14189
0.84258133,95.4988
0.8369525,88.77859
0.74504393,88.80196
0.628407,85.05421
0.6687721,77.58395
0.58894277,81.99132
0.62024635,82.10643
0.5694105,76.563644
0.67104405,80.12573
0.5704223,76.7815
0.5826267,70.22483
0.645984,68.193214
0.5567049,65.29263
0.5416768,67.78649
0.5969934,68.20361
0.59144413,67.39553
0.49242684,67.46451
0.5432456,66.28576
0.49118018,65.86171
0.43432292,65.11996
0.31445968,63.39732
0.3160068,60.288673
0.29406387,66.878105
0.22584282,63.764095
0.25681362,64.150925
0.20514232,64.068405
0.1283417,69.4686
0.24850129,71.026215
0.091435246,68.01963
0.1251619,76.45383
0.20563015,79.055084
0.27349,76.49685
0.4162129,81.78092
0.47193718,83.964066
0.46670812,85.51965
0.56375366,90.55437
0.7322692,90.65366
0.70028573,98.672905
0.8441295,99.82938
0.94721764,102.884796
0.9921406,104.7679
1.03271,110.27439
1.1265261,113.95161
1.1848365,115.77134
1.2637032,117.31093
1.3622588,123.86002
1.3813624,126.33511
1.3968794,127.31599
1.4586635,128.27632
1.5229235,134.57489
1.4885312,138.14067
1.5479705,136.24709
1.4869647,138.56856
1.4729372,142.82672
1.5427932,143.44676
1.4775729,147.47925
1.5247265,145.2377
1.5725698,143.95427
1.4758974,144.53375
1.424031,141.91739
1.4617118,146.1586
1.3404754,142.60832
1.3841583,138.7378
1.3057042,144.44585
1.3702285,139.88478
1.1667917,142.50723
1.2798868,143.1637
1.1458305,137.99364
1.1913106,138.00836
1.1885034,134.37851
1.07939,131.57507
1.0642381,135.82578
1.0984656,127.01894
0.9624133,131.81844
1.0240277,126.56894
0.9528814,128.60118
0.98667276,123.62956
0.96205586,118.49306
0.9777928,121.44339
1.0075623,114.8251
0.94645804,113.681244
0.93091714,114.19262
0.8617431,113.289
0.8680284,111.732346
0.8822583,107.3381
0.85858554,106.59346
0.6883904,103.328766
0.68112296,97.28072
0.741637,101.667725
0.6747775,100.09082
0.62042683,93.45433
0.58125424,94.99318
0.5182527,94.40912
0.49147624,90.639465
0.42833892,88.1475
0.45040783,84.053894
0.5096862,88.8543
0.3056979,81.48497
0.3070339,80.40702
0.33121827,81.748886
0.29400307,72.22379
0.32422432,75.084526
0.40412813,79.55502
0.31434244,71.1297
0.37937695,70.794655
0.4133195,67.781265
0.26378873,69.01952
0.3531226,63.621387
0.27025416,68.34416
0.28591126,67.7359
0.20301344,61.802685
0.24549982,66.3566
0.18273239,61.354115
0.16454975,62.765755
0.12212936,61.510494
0.0495464,61.09804
0.016802972,65.99727
0.056514017,62.976215
-0.07631346,69.396774
-0.06733918,67.156425
-0.14282568,71.62525
-0.07383255,72.7448
-0.013731746,72.49602
-0.056872237,69.36789
0.11727386,76.610306
0.015749445,78.68362
0.10785577,75.12802
0.26294845,89.2551
0.3672507,87.81302
0.34250534,92.65485
0.49047327,95.31591
0.56930333,98.189224
0.66050047,101.05893
0.7834249,102.311554
0.8404097,105.28139
0.9452994,110.17771
1.0443577,116.869675
1.009775,119.95173
1.1467187,118.10593
1.1904465,123.915695
1.1874177,129.1034
1.180111,130.2613
1.260221,131.88089
1.3497103,133.23354
1.3071948,139.89761
1.2828746,137.93597
1.3997532,138.8158
1.3419636,139.81792
1.384711,138.4743
1.3449609,141.62769
1.3687203,143.81395
1.3811413,144.42545
1.3928447,141.61115
1.3044504,143.72697
1.3060902,147.81865
1.265798,142.10542
1.2318116,143.3444
1.2107661,144.86388
1.2538396,139.906
1.2082505,136.29625
1.1900207,141.10136
1.0594914,137.92308
1.1064993,133.61926
1.125811,133.37212
0.9975826,133.32759
1.0140928,133.57095
0.9796237,129.29802
1.0095317,128.3702
1.0364945,125.85501
0.9244763,119.7185
0.9741735,121.06219
0.95199174,116.03934
0.92390776,116.17597
0.9510638,115.032135
0.9351684,112.87164
0.86246663,115.96684
0.89327836,111.30662
0.9027734,113.265205
0.9286924,108.3086
0.8859204,108.1076
0.8095362,108.728874
0.7591484,103.471
0.7986479,98.80671
0.66417485,101.997826
0.5725406,97.30971
0.6334495,96.32551
0.524346,98.53257
0.5127923,91.88186
0.5528114,86.80096
0.545399,86.23794
0.4715872,83.37783
0.43601444,82.19975
0.47999522,80.65981
0.48327532,80.612434
0.44207314,73.29131
0.39863545,73.310745
0.37965783,72.61228
0.42605522,74.110374
0.40006068,73.03019
0.4380687,71.846504
0.39992422,69.677704
0.37322825,67.96901
0.40268195,60.542133
0.30018643,68.57033
0.38618973,69.47254
0.31738514,62.220078
0.28843677,63.528393
0.19468766,65.67265
0.20532292,64.07652
0.18113077,60.29927
0.16388604,62.496246
0.028283497,64.229645
0.059163127,63.397118
0.18138489,69.7243
-0.016685724,67.65391
0.038600065,67.94487
0.09986007,75.95196
0.10205016,73.92887
0.18305205,80.40646
0.37111032,79.0203
0.34173173,80.951385
0.42882508,88.823784
0.5418581,87.90905
0.4545257,90.361595
0.6003904,96.36563
0.77024096,99.55408
0.8964047,102.57881
0.96845615,108.58643
1.0505385,108.44794
1.1549021,115.15616
1.1719353,114.005005
1.3081353,120.431526
1.4028786,121.37261
1.3609256,124.45342
1.3673522,124.70207
1.4761351,129.0858
1.4560302,132.35005
1.4994817,133.48027
1.5571939,133.41257
1.612861,136.88177
1.6341931,141.7664
1.6775211,144.83441
1.7022778,142.54428
1.5787057,143.76
1.5406033,143.032
1.5988345,140.88666
1.5387901,143.44553
1.5062315,146.45609
1.4696822,145.26584
1.4789406,143.70828
1.4029517,143.05804
1.4376796,138.21783
1.3860322,140.56497
1.4560255,142.56932
1.4519913,138.77077
1.3491371,135.46991
1.3272117,137.16061
1.3451172,136.35365
1.408375,133.5372
1.295342,133.18608
1.3375795,127.882805
1.2798935,126.616516
1.1924913,125.57137
1.1931156,126.17484
1.190547,121.80456
1.3348562,117.57831
1.1705515,114.41715
1.2324578,114.825745
1.2278618,112.99306
1.2283361,107.9447
1.151067,108.453964
1.1652036,111.43995
1.2379748,102.771454
1.2190336,106.82149
1.1346855,106.67979
1.0559232,101.26955
0.9485348,98.402596
0.8727835,99.80883
0.93301415,95.75653
0.9477688,94.31533
0.88461185,89.570625
0.85280126,91.3375
0.8470421,87.74075
0.7896125,87.70892
0.752683,84.879364
0.69467133,81.539024
0.76371413,83.949974
0.7875701,77.14134
0.83431786,78.95818
0.6533129,74.142845
0.6641741,73.78251
0.79707223,71.02923
0.753195,69.57655
0.69701225,68.589584
0.7360478,67.16958
0.75675446,63.355064
0.6863618,67.7181
0.6907808,65.70105
0.6953223,64.81598
0.64392585,67.24673
0.63534,68.799614
0.6803579,65.20059
0.5330508,63.668568
0.5582714,63.15916
0.48956516,63.764942
0.41033787,61.46456
0.4677969,68.44239
0.42028752,64.738106
0.34931415,65.97521
0.4763864,69.09905
0.38894078,77.28247
0.43752748,78.809135
0.55566865,77.10166
0.6185532,80.19719
0.6005464,82.14576
0.7288386,86.37569
0.7944589,91.609825
0.93314475,95.83137
1.0265635,95.04577
1.1123183,103.74686
1.2537298,101.53131
1.3871776,103.81269
1.4025751,108.87229
1.466473,108.42158
1.5584545,112.68015
1.5966462,119.65568
1.6941655,120.2766
1.6460179,122.16631
1.7740479,128.2934
1.8191177,133.93015
1.8309468,130.55728
1.8283404,139.91695
1.878372,135.2416
1.9522312,138.05017
1.85678,138.68353
1.9159173,140.48967
1.943626,145.65219
1.8865827,141.85664
1.8686746,144.25578
1.9739604,144.44981
1.9752374,146.92409
1.93227,147.86836
1.818493,145.76662
1.8038822,144.53639
1.7726376,145.71252
1.8359393,142.24957
1.7731465,141.73798
1.717998,137.17752
1.7331234,136.82614
1.6834011,137.36952
1.6773217,138.63202
1.6791619,132.78802
1.5637734,130.71317
1.5080421,130.0276
1.5617276,129.79427
1.5139227,127.90288
1.4722809,123.99601
1.5177202,122.367744
1.4984308,123.57809
1.4806079,118.97957
1.51586,116.09304
1.5819321,116.713936
1.405361,109.91483
1.5192577,112.46407
1.4786305,109.233284
1.4153076,106.355835
1.4279553,105.20428
1.4339552,103.082825
1.2995452,101.392006
1.2122303,99.955
1.2251487,101.20959
1.1789757,97.04955
1.1507851,94.47589
1.0766784,96.49948
1.020066,90.767
1.0200931,92.27266
1.0323145,89.03767
1.0394313,86.415115
0.938843,83.717026
0.9585554,82.09437
0.9883428,80.250015
0.999781,75.98778
0.86146677,76.69887
0.96196604,78.461586
0.9889968,71.331474
0.9748279,73.75279
0.8271131,69.48918
0.9232678,70.23176
0.93108964,71.27436
0.94651216,61.74604
0.8515767,68.23151
0.79990023,66.46826
0.83619493,62.063496
0.7875946,61.44659
0.62864184,66.5942
0.7170095,63.51041
0.67192525,67.05251
0.64227784,63.15476
0.5289059,62.755493
0.55384725,65.49843
0.5286804,68.759
0.5100468,68.19615
0.54213315,70.18262
0.6019045,68.44493
0.5620689,77.4707
0.60211295,73.62203
0.65273744,77.61774
0.724722,82.62307
0.75631994,83.69684
0.8235577,82.571495
0.92361903,88.51648
1.0355484,91.23148
1.1556879,97.07298
1.2035632,95.412575
1.2722528,101.784355
1.4341784,106.644806
1.4331357,109.258865
1.659931,112.904205
1.5696528,115.42317
1.6599721,122.74472
1.7690989,124.51523
1.8543931,121.84689
1.8585072,131.05006
1.8453052,134.4067
1.9065242,135.5208
1.7950262,135.49081
1.8577969,137.38484
1.89648,139.36404
1.9342651,141.43306
1.9165949,142.80891
1.9460931,142.1154
1.9232907,145.73184
1.9320729,142.83548
1.9448681,145.03322
1.9112881,142.62846
1.8394533,145.71747
1.7741811,143.01031
1.8256898,144.12003
1.711495,144.86366
1.7724621,140.08308
1.6999717,142.59753
1.6547534,142.76672
1.6458229,135.88904
1.5782275,134.65115
1.6582236,132.70761
1.6172773,129.89998
1.5929878,130.56415
1.4644699,130.06981
1.4699153,129.06116
1.4247757,123.90783
1.4782724,123.270645
1.4348658,123.52522
1.436987,122.01505
1.4634205,120.859436
1.4331272,116.85481
1.442068,119.14261
1.289687,116.18197
1.1968479,109.97048
1.3628591,107.140625
1.362099,106.33515
1.27208,106.07819
1.2644292,107.10312
1.2080338,100.2625
1.1081583,101.76708
1.1953171,99.62143
0.9806976,99.69514
1.0871141,93.88178
1.0029569,97.15173
0.730435,94.63818
0.82738507,91.4494
0.8192631,85.407715
0.8943914,87.71404
0.81704646,85.75141
0.808558,84.25245
0.7233027,81.73014
0.75802165,76.17486
0.7984426,74.9279
0.7701526,80.01764
0.71313703,70.22169
0.7622565,73.77719
0.6970303,69.42164
0.6935823,69.35501
0.6562783,65.34671
0.64176667,67.18218
0.68976057,65.924515
0.67455095,63.22253
0.61211914,60.762264
0.5684488,63.715733
0.5697903,62.05088
0.45417652,61.215836
0.43829674,61.184624
0.42977077,63.52385
0.32449418,66.017
0.28756684,64.26272
0.2772909,69.8639
0.33085167,67.49285
0.29814088,71.61183
0.38583001,72.36715
0.34016362,75.9891
0.3643656,77.64793
0.40915266,84.51934
0.45897305,80.847046
0.6317268,83.87444
0.6128622,85.975266
0.6442606,88.25098
0.67762667,98.600426
0.85927,97.1981
0.94352984,100.703636
1.0337843,97.08692
1.0623698,109.82796
1.1867508,112.33218
1.2414325,115.998314
1.4248238,113.79421
1.3283043,116.75076
1.4882593,127.418625
1.4862059,128.30325
1.5880579,129.74332
1.6306593,130.72116
1.5930818,133.76721
1.5043547,138.11751
1.5552241,140.45407
1.5412006,141.41747
1.5577235,139.9273
1.6044357,143.55656
1.601128,145.79404
1.6776859,144.21777
1.6919947,146.19002
1.6271039,149.06871
1.508666,146.11055
1.545688,140.14323
1.4614545,146.5112
1.5664363,141.69003
1.359478,142.7312
1.4078083,142.14964
1.3530843,141.22055
1.3407803,141.72261
1.3636374,143.6888
1.1967939,135.08804
1.224463,137.40915
1.1648386,130.2164
1.1939627,131.97014
1.1395898,130.1539
1.1493621,129.86143
1.1629146,125.64078
1.0381845,123.14193
1.1177993,122.966774
1.1121522,119.1396
1.0446973,117.26329
1.044479,116.10005
0.9945474,114.85392
0.9740979,112.0766
1.042435,114.03818
0.9955106,110.298134
0.9868266,103.282555
0.92861634,106.58407
0.8472246,103.80276
0.82302445,100.913864
0.81944543,100.02648
0.7697802,102.23677
0.76757246,97.18727
0.71194094,93.15645
0.5784994,91.15988
0.6113926,91.97803
0.559459,84.9073
0.5260349,87.15327
0.5557009,88.49872
0.43424368,84.26338
0.4225694,82.515175
0.42926872,81.96903
0.3796765,79.74994
0.49085084,77.79012
0.439804,75.41572
0.3182142,75.58042
0.4028323,68.460495
0.38397482,68.815674
0.5082421,69.74695
0.28829467,68.453865
0.3573094,66.48383
0.4322598,65.256
0.3201502,63.62661
0.22281916,64.55125
0.24636705,62.715946
0.24694583,66.132545
0.13197604,61.97413
0.15966724,63.521164
0.10296167,64.204636
0.08885547,65.69525
-0.0685942,67.03409
0.030232096,67.79107
-0.029939203,70.35234
0.06581799,71.33902
-0.0032334297,69.928246
-0.031647794,76.20401
0.0958296,77.4183
0.14639261,80.53706
0.24325791,81.93104
0.2722103,83.48384
0.2971334,88.92927
0.4255948,93.36496
0.5343195,94.75977
0.5596444,101.64752
0.7775265,100.80987
0.7821827,105.04366
0.85809964,107.46485
0.92304885,110.96652
1.0314871,115.00308
1.1506059,122.12001
1.1783227,122.22732
1.2311796,124.08525
1.2407608,126.17462
1.2398591,128.98955
1.3423537,134.49211
1.3244935,135.85623
1.3756329,139.23886
1.3389444,138.50845
1.3699198,141.50885
1.3668476,139.11046
1.4319135,143.19402
1.213686,142.90227
1.3120651,142.53543
1.3409765,143.75829
1.4344673,146.17035
1.2920151,145.32626
1.3153943,147.64688
1.2970684,147.10287
1.2575041,141.67747
1.1930503,141.54828
1.1817981,139.08746
1.0271838,137.95059
1.143784,137.41138
1.2235408,141.04482
1.2272673,132.20132
1.017634,133.64412
1.0146917,133.6393
0.9929822,131.30424
1.0116359,130.21756
0.9431146,126.57766
0.9848411,122.22288
0.8840334,118.44227
0.8748229,122.34413
0.9008847,118.99222
0.8206912,118.65416
0.929281,116.904945
0.8699171,114.15462
0.855847,111.668144
0.77927774,115.1855
0.82515174,105.15293
0.8386053,108.178505
0.79999894,105.57844
0.7270109,105.6788
0.6844091,101.199974
0.6561596,95.819984
0.55541795,98.298325
0.4971693,93.91709
0.5237542,91.881195
0.5597158,89.15772
0.46907583,89.56235
0.51702154,90.9968
0.3612541,85.104744
0.4169853,81.81429
0.37961775,82.36237
0.37595782,77.203896
0.43167818,78.55021
0.4214739,74.52756
0.40787917,74.294624
0.3040486,73.13208
0.39645648,71.24735
0.41688183,69.67689
0.3367043,69.89244
0.22932671,69.29715
0.30163264,68.07404
0.34564888,65.59181
0.20742857,65.69793
0.22372797,66.4423
0.26763266,68.87941
0.2073777,64.45688
0.27669862,66.73167
0.11363412,61.908768
0.10467636,61.799534
-0.0016682879,61.842056
-0.005382158,64.80483
0.05865983,66.68772
0.041271698,68.88428
0.023576247,68.24779
0.029451609,71.520485
0.06492128,70.51798
0.09776709,70.01414
0.11739679,74.599495
0.2101452,81.252464
0.2860747,84.938614
0.33996046,85.89505
0.45531306,89.66506
0.52278566,94.11299
0.5903408,95.52968
0.69634557,100.51392
0.7694193,101.67117
0.82827246,107.06
0.94629604,109.17192
1.0560379,111.35239
1.1797345,117.8501
1.1638552,119.540184
1.231035,122.94251
1.3053514,123.479614
1.357304,124.06973
1.4401057,134.39111
1.4542549,132.10167
1.4261168,134.89188
1.4652679,136.17519
1.5074993,139.21469
1.4240319,141.99199
1.5509331,145.22952
1.5708994,139.7079
1.5783008,146.00763
1.4706008,141.78717
1.494481,145.57115
1.457164,146.79074
1.5253295,144.66708
1.4679064,141.26038
1.4079676,148.03651
1.3711991,142.62184
1.3276206,142.17676
1.3494507,136.96382
1.3790854,140.91849
1.3633281,136.97813
1.2519453,134.94824
1.2264245,138.07727
1.1117733,130.68788
1.120842,134.48674
1.0800017,131.39255
1.1587813,126.46832
1.0775014,125.44722
1.1908642,121.568436
1.1896944,121.363815
1.155817,124.05991
1.1002332,117.32199
0.97543955,116.98233
1.1173393,118.19067
1.1164875,114.21836
1.0954252,114.53524
1.0861864,107.45614
0.98581946,107.55239
1.0855548,102.75742
0.970769,105.09435
0.9950329,103.66248
0.9024043,103.310165
0.99859387,102.21511
0.9445063,98.83793
0.90835845,98.743454
0.8781261,92.018845
0.694608,92.48836
0.72936386,87.62124
0.724568,89.45059
0.6903829,83.50057
0.79797447,83.03239
0.6850273,81.70196
0.62170166,79.551216
0.6314107,76.74354
0.5376674,78.602234
0.63032705,77.81371
0.6978056,73.818184
0.5856877,72.91606
0.5907971,70.360634
0.6117122,71.51554
0.5660286,68.356514
0.5477374,69.90672
0.65190524,64.61867
0.5328036,65.04893
0.4852002,65.23692
0.5657817,61.464558
0.4806533,63.35244
0.45364994,65.04094
0.42655373,60.594986
0.43159032,63.939648
0.3059983,61.985485
0.34268624,63.84452
0.4785129,64.6177
0.23576018,68.424355
0.33461368,67.082016
0.39563742,71.56418
0.39849412,68.4401
0.43851715,71.36739
0.40352458,75.92864
0.50323004,81.90814
0.6390029,82.23429
0.6628284,85.22436
0.76718026,86.95169
0.8864344,96.217926
0.9280231,96.37532
1.118224,99.27326
1.0838392,105.483406
1.2353001,104.5391
1.2826699,108.569176
1.3594244,111.430145
1.4936492,118.23318
1.5309511,119.504524
1.5659639,120.12993
1.6273378,128.49783
1.734845,129.86743
1.7146243,132.34216
1.7675115,134.13322
1.6976886,134.4428
1.7757115,133.96234
1.7471573,138.65596
1.8079711,141.29814
1.9050913,142.9581
1.8226022,143.89929
1.7856046,145.10847
1.8340286,146.46068
1.8209627,145.5012
1.8240347,146.22804
1.8429959,144.00204
1.7364019,143.68248
1.7071937,141.7008
1.711359,140.67876
1.6814771,139.87933
1.6996309,142.68486
1.700013,138.92714
1.6599444,134.45453
1.6668745,133.54672
1.6095151,132.81087
1.5646151,134.75249
1.5241867,131.7082
1.5480652,126.21912
1.4895937,127.34044
1.5838139,126.36266
1.4104943,122.990456
1.4495622,123.77074
1.444498,116.53963
1.5052066,116.47523
1.3737452,118.26592
1.4556484,111.5164
1.4229645,113.23371
1.3947059,112.432594
1.3379633,110.30618
1.3517951,106.75668
1.2814881,103.42046
1.2928724,106.064316
1.3097992,101.90291
1.2178417,97.54163
1.2213882,95.269394
1.1626985,97.3236
1.1152799,95.23252
1.0307803,95.67566
1.0284364,94.350365
1.0189098,85.20225
1.0621233,86.775795
0.9022121,87.55511
0.9791516,86.40002
0.96484107,81.04065
0.93278587,79.57657
0.872096,79.79919
0.8827624,79.57917
0.91749305,77.91418
0.8526098,76.75767
0.8511863,74.08466
0.8931782,72.195885
0.9475704,71.59992
0.8617965,65.98578
0.91309744,65.6846
0.8851958,65.21628
0.8865149,64.50224
0.8364961,64.12569
0.8496329,67.524086
0.6805928,62.2643
0.6732761,66.58694
0.699076,64.23507
0.58463395,64.35774
0.56177807,67.24364
0.6188011,66.89905
0.52528226,72.76551
0.5731763,64.84259
0.554723,67.93857
0.5336419,72.12275
0.5960473,70.5968
0.7167724,80.18504
0.6762393,76.842
0.73919666,84.77606
0.8278025,85.97933
0.8528348,87.60806
0.9900668,92.838036
1.1281973,96.22407
1.2725153,93.82441
1.302798,97.792145
1.3934982,103.2601
1.387432,105.71305
1.4854769,111.2353
1.5869781,113.46779
1.674778,119.901215
1.6470919,120.96647
1.72326,126.20372
1.8132385,123.672646
1.9576468,127.87825
1.792363,132.1738
1.9672875,133.52052
1.921158,138.19037
1.952513,137.50317
1.9425895,138.78174
1.8988142,138.68867
2.0222561,138.98747
2.0671678,143.70468
1.9264982,142.48492
2.0848925,144.32855
1.9590577,145.80357
1.8937542,144.14046
1.9375694,141.7526
1.8668054,145.23943
1.8484656,142.8727
1.7722187,146.05597
1.7615358,138.0134
1.8015088,142.87114
1.7232777,137.95157
1.7289153,137.38428
1.6024904,138.71016
1.6750091,131.22462
1.5994234,136.3777
1.4660456,130.62454
1.6072296,127.9896
1.531755,127.71474
1.5204165,124.72648
1.5617446,125.83185
1.4391448,123.51664
1.5523365,120.563065
1.4062277,119.82547
1.3648396,113.828125
1.4231647,115.83314
1.4419857,110.66284
1.334933,112.58383
1.2845263,105.81649
1.3889818,107.01641
1.3285892,103.17527
1.267183,103.909065
1.2970244,101.322495
1.2140787,100.710014
1.151877,98.23292
1.1606133,97.55103
1.140565,95.92628
1.0741814,95.44593
0.9840963,90.08162
0.9300389,89.48492
0.8728356,85.83806
0.8959458,83.83974
0.8358816,82.64414
0.9349657,77.71962
0.88963574,81.82554
0.8656138,75.580765
0.87040806,73.712105
0.8586736,72.18393
0.8608836,71.714455
0.8170931,67.19378
0.7586828,70.882614
0.80634165,66.921776
0.79690814,68.18182
0.7893169,66.41032
0.7312392,63.396523
0.7179797,67.2638
0.6430969,61.97065
0.63705117,66.180084
0.6132318,60.249268
0.5284752,62.308804
0.505669,65.19708
0.4990803,64.69841
0.47623995,66.22915
0.4183767,64.03201
0.36102208,70.22797
0.37649363,66.163414
0.36946803,70.58908
0.44998473,71.18433
0.56697243,77.66086
0.5087066,78.49642
0.58433753,80.89587
0.6672244,79.64664
0.6854831,83.81264
0.7327855,89.36921
0.8794165,95.81153
0.87144256,93.234825
1.0400271,97.66546
1.1417505,100.1396
1.2104098,105.74162
1.2586778,106.13063
1.3757325,112.59948
1.4151282,119.53161
1.4718943,116.472305
1.5027649,124.35461
1.6372395,122.3662
1.6485045,134.32632
1.642817,130.51953
1.7125406,133.09457
1.6971954,137.09651
1.7090218,138.51123
1.8145375,138.2854
1.6892644,140.66069
1.7304862,144.18753
1.7107986,139.63551
1.6482934,141.51604
1.8135189,141.79428
1.8123671,142.7354
1.6753161,144.97755
1.5919242,144.16666
1.6206436,144.92395
1.5192561,143.27014
1.5639812,144.6672
1.474399,143.96458
1.5241637,140.82224
1.4894047,143.63084
1.4215211,140.54253
1.4580019,137.29
1.4193254,131.62709
1.3752451,138.44673
1.2618952,133.18115
1.3352518,132.11139
1.2791251,131.16792
1.235552,127.136375
1.210885,125.84295
1.1720506,124.96655
1.2010353,119.61248
1.1093774,122.838196
1.2312781,118.79856
1.0971125,116.6419
1.0902588,114.34652
1.0800669,112.16557
1.0461079,112.94919
1.1128721,110.222694
1.0470648,109.49018
1.0398728,102.9283
1.0575011,100.257965
0.90682733,98.332115
0.8762773,99.37431
0.8887845,100.377205
0.7309144,96.49332
0.8288811,93.12486
0.6819768,93.68264
0.66628546,90.56629
0.71314764,88.25914
0.599524,90.46512
0.5912662,86.832016
0.6316784,81.08968
0.56280994,84.49609
0.5157184,80.582054
0.59158605,76.04668
0.4459792,74.57092
0.47586414,72.216125
0.57472974,74.6205
0.46290037,75.57031
0.5155958,67.702774
0.46213818,64.23691
0.47694567,65.97811
0.46626875,62.321487
0.33365926,62.380302
0.3726995,61.59062
0.32237375,65.37397
0.35096535,63.64685
0.32168382,62.34702
0.16090035,62.747078
0.14729287,62.793243
0.23075084,63.01028
0.030188294,64.949165
0.12511565,67.90171
0.08981401,68.58709
0.13561887,68.478294
0.10162349,74.37121
0.09256738,70.04544
0.119020075,71.812805
0.1620455,78.30827
0.16564398,80.78845
0.30401912,82.77074
0.36835444,89.0754
0.5455855,86.56857
0.53009516,93.638275
0.6524948,94.76513
0.607818,98.240395
0.74502045,104.83769
0.8951721,109.14173
0.92738086,113.63621
0.96119034,109.644936
1.0919328,119.381516
1.2060624,121.61374
1.1558888,121.634636
1.3636124,125.834885
1.442253,126.22282
1.2463685,128.87167
1.3764569,134.52722
1.3445594,133.87004
1.4504744,138.64136
1.5163498,137.07516
1.3904669,140.58383
1.4138664,138.93561
1.322266,142.03535
1.4274296,145.20886
1.4035789,140.94336
1.3889772,144.5157
1.3343298,142.87859
1.4090017,143.0232
1.3468134,142.33466
1.328344,147.92389
1.3280365,143.4666
1.3240167,139.22064
1.1690539,142.25797
1.2099594,138.48308
1.1794939,138.96588
1.1452463,136.81325
1.1329701,138.11935
1.0073103,134.33649
1.007565,136.07213
1.1245466,129.95473
1.0039182,125.47029
0.98656845,129.56349
0.9576464,124.07653
0.9126691,121.61278
0.9392792,119.56523
0.91329634,122.392685
0.8824632,118.486496
0.91071916,119.681984
0.8713437,114.851746
0.863484,110.06906
0.7404637,108.63102
0.77906233,105.17447
0.815818,104.3326
0.6995336,108.41796
0.72858894,102.376045
0.69978213,99.83044
0.57537365,101.91117
0.6738072,93.50041
0.5494778,98.33638
0.49854916,93.47393
0.46351248,93.5928
0.4904714,89.16751
0.4072094,87.24609
0.3537774,86.828606
0.32584015,82.96221
0.3177854,80.98325
0.4008886,79.37287
0.310211,79.35383
0.33359686,76.79105
0.34208632,75.97215
0.42077512,73.74792
0.31903666,72.122665
0.32286087,71.71567
0.2514056,69.96319
0.28992236,71.79736
0.25072482,69.761
0.30796874,63.212627
0.25973716,68.8991
0.3196988,67.71784
0.1519699,63.407406
0.12102788,63.255844
0.10426819,64.91828
0.1167171,65.13259
0.06916835,65.95401
-0.031190641,64.61418
-0.050931115,64.32949
0.008341338,67.30797
-0.051225197,68.61863
-0.102273844,67.967354
-0.018818246,69.53774
-0.0959989,70.93693
0.00046769463,76.98683
0.0851532,76.61773
0.15680438,81.76297
0.22347264,84.67821
0.32447347,82.70613
0.41663268,92.119576
0.4571716,93.17413
0.5236557,96.61857
0.64098597,101.87683
0.75545347,99.225174
0.80807364,105.89066
0.85076874,109.794464
1.0353913,112.56438
1.1411158,114.2867
1.0717785,121.7086
1.2639905,119.74176
1.2797345,125.48339
1.3334298,130.15317
1.4274983,129.02028
1.350548,134.74893
1.3921014,133.9524
1.4749981,138.90385
1.3353862,138.11287
1.4116695,139.86023
1.4806741,142.15416
1.3773515,143.40526
1.4371531,144.07779
1.3568866,145.32133
1.3842134,144.24086
1.4262116,144.28168
1.3353468,146.04514
1.3387837,144.98143
1.3138129,146.39241
1.3794113,144.12544
1.2509036,142.22868
1.3504324,136.84412
1.144596,144.65237
1.2005385,135.59286
1.1762048,134.98148
1.1695907,132.89864
1.1375532,132.93715
1.120217,131.68208
1.1599358,131.30168
1.0523517,129.04585
1.0508289,126.67696
0.9911118,125.7161
1.0625541,121.35927
1.0459205,125.55618
1.0811155,122.4035
1.0451056,120.27988
0.9741827,113.06789
0.97567034,114.29653
0.9833432,113.59183
0.99171084,109.582954
0.94186854,105.44835
0.9052837,109.47208
0.86255646,105.806946
0.8701373,101.48353
0.8569393,100.02977
0.829526,92.59144
0.70260197,98.46918
0.6967638,94.81212
0.69157314,95.3254
0.6147616,87.653336
0.5681218,90.00586
0.588141,85.383
0.56981784,86.69777
0.5403639,83.96765
0.5241275,84.194405
0.5486153,82.90512
0.5128253,76.67167
0.4539003,76.08234
0.5598017,71.2061
0.53801763,74.01116
0.5053409,69.51715
0.47731528,68.60692
0.5358948,69.92347
0.6215937,67.34039
0.47672084,66.84733
0.58150065,63.39492
0.41663823,61.196926
0.4237897,67.21268
0.3693418,61.963722
0.3193198,63.616196
0.38031226,61.767532
0.20969906,66.86456
0.30870843,65.83204
0.1967643,63.404655
0.31886438,65.81736
0.179564,65.75797
0.16842528,72.76578
0.257982,70.64411
0.26397797,73.02648
0.21678555,72.5658
0.27098933,77.83912
0.3629272,79.24764
0.45481083,80.36476
0.4996892,85.80468
0.62541074,89.77341
0.73766965,91.26981
0.80899805,91.54913
0.8230197,93.45459
0.9763802,98.12433
1.0879555,104.935036
1.1889836,110.277664
1.1712571,112.19099
1.2313523,112.60664
1.4060832,117.73395
1.4618046,118.089134
1.5499616,125.086716
1.5337596,129.51512
1.5948548,128.37213
1.655869,133.41235
1.66696,134.74107
1.6700823,135.89445
1.6264629,136.27335
1.7334836,140.16356
1.7005963,141.64671
1.6648804,141.74701
1.6678288,144.54301
1.7183894,145.68459
1.7305346,145.52325
1.6872181,141.12979
1.7011466,142.62027
1.6141101,144.49168
1.7275873,142.08505
1.6933665,142.97339
1.727737,143.15926
1.6602045,138.94243
1.5934346,141.45221
1.5201243,141.11263
1.5417837,137.83974
1.4947845,133.73921
1.4485779,134.96475
1.441952,134.55434
1.5522001,132.97823
1.30675,127.887825
1.4277567,126.45595
1.4016743,123.40985
1.4176633,122.604675
1.328883,119.426834
1.3807771,121.06194
1.3759217,119.07039
1.3819107,116.301094
1.4064404,117.69298
1.3106892,112.62399
1.2570707,109.089676
1.340697,110.2271
1.2119724,112.98932
1.2056607,109.00923
1.2344389,105.869644
1.192094,101.461914
1.136833,100.53459
1.0538017,98.02837
1.0807741,99.4662
1.0906092,93.83243
0.88101816,90.65947
0.9826834,92.50302
0.92704535,89.70988
0.9812834,88.45701
0.90204376,80.98814
0.83955854,85.46536
0.75739735,83.06277
0.8577874,82.84339
0.91073555,77.3233
0.83074504,77.67766
0.8465861,68.19721
0.8391934,74.36423
0.84199864,74.15594
0.83774024,70.72133
0.83998084,61.091972
0.8420837,67.22219
0.7913657,66.44969
0.7809785,69.1512
0.77140445,64.47551
0.78748083,67.32524
0.6971879,66.79001
0.74384415,64.073616
0.7188975,64.41712
0.5967315,62.35338
0.4896778,62.49118
0.53043574,67.20821
0.50479597,65.90283
0.5236412,71.8254
0.42737007,70.902405
0.5238287,69.49159
0.49361834,72.84359
0.5413292,72.52221
0.6442381,77.72897
0.6482171,79.09849
0.7088321,81.62894
0.80602616,85.085266
0.87379646,88.69104
0.9769567,90.86117
1.070827,95.17547
1.2095193,96.91359
1.2690384,101.51544
1.3452175,105.41324
1.4433342,107.73393
1.5227165,111.893875
1.533052,111.230125
1.6333904,120.6376
1.7149994,121.89292
1.8119243,122.08551
1.8035842,131.82999
1.9810638,128.19116
1.8163396,129.6889
1.8320988,131.21188
1.9228702,131.96129
1.9052033,140.61098
1.91147,136.48674
1.9259627,141.8422
2.0217464,143.66632
1.9582592,145.9091
1.9575973,147.40334
2.0076575,142.47353
1.8684627,142.84502
1.9673915,142.78032
1.9106055,149.31511
1.8560972,143.88985
1.8257456,147.1417
1.7834884,143.49803
1.819842,140.84674
1.8146187,140.64902
1.7136242,138.60423
1.7288872,137.1928
1.6663659,138.27415
1.6267877,134.1668
1.5797356,130.85101
1.639182,127.9342
1.589663,129.8941
1.5347493,126.560875
1.5265675,126.78178
1.432559,121.841774
1.4856229,124.066505
1.4818337,123.10972
1.4760724,120.072296
1.4825723,117.590256
1.4569838,109.558174
1.4985197,111.49032
1.462466,110.32651
1.445079,106.052025
1.395759,106.79479
1.3102783,107.238754
1.4148072,105.349075
1.2710367,101.58791
1.1644214,95.89678
1.1365799,97.71076
1.1836071,95.71917
1.0537524,94.814224
1.0782324,96.37904
1.0088292,89.94155
1.0528866,89.402435
0.95665175,83.174255
1.0451202,82.57995
0.932326,78.73004
0.95519537,83.08961
0.8991466,79.78604
0.8821194,81.020386
0.8141908,77.26806
0.9483115,73.77813
0.9637942,71.20773
0.88729817,70.97417
0.8533069,69.484344
0.8694363,69.54402
0.89312166,65.75695
0.82543945,62.76548
0.86792165,65.29954
0.8503496,63.98576
0.7713805,62.999115
0.71124303,62.18123
0.6732755,64.969345
0.56161404,59.83482
0.63651013,65.9396
0.50514054,63.714844
0.5184851,64.94974
0.54330343,66.32962
0.50134516,69.06912
0.48353398,70.774376
0.55041856,72.332794
0.50684154,77.10154
0.5679926,77.42732
0.5402214,80.33052
0.7441688,81.47234
0.79246485,84.30186
0.7780833,90.864456
0.897616,88.60043
0.99141693,93.89778
1.0816157,93.053444
1.1180503,98.37968
1.2765943,101.137375
1.2461588,105.8651
1.4025278,110.73193
1.4823707,112.47436
1.4282001,114.25859
1.6335169,118.77037
1.641461,121.75654
1.6546224,126.60841
1.7473252,125.15589
1.728847,134.0286
1.6386797,137.2014
1.8366803,133.83267
1.9141643,133.7373
1.8099248,140.16026
1.8858896,135.92537
1.7864006,139.073
1.8445448,143.75787
1.782162,144.09686
1.808693,141.34555
1.8516994,143.18396
1.8057867,146.9678
1.7958385,147.1099
1.7018191,144.98308
1.7003095,147.12834
1.789842,141.5498
1.610582,141.91534
1.6079693,140.70316
1.653011,138.49574
1.5942233,135.7399
1.5251932,137.65883
1.5416857,133.33958
1.3632002,135.03328
1.4048693,131.231
1.3517956,132.1341
1.4005373,129.19774
1.396535,122.0003
1.3216329,125.470566
1.3414723,120.81477
1.3523355,122.941826
1.2850544,122.46154
1.3032181,114.91599
1.2680275,113.51279
1.2535652,110.932625
1.1166378,109.924515
1.3050303,109.18613
1.1880856,107.5365
1.1722746,107.09449
1.1657367,106.27111
1.0540799,103.092964
1.0627685,99.116196
0.97039175,103.46483
0.95804566,97.85459
0.9672922,96.4569
0.86744875,92.38653
0.8392744,91.14077
0.7905052,93.59657
0.7568179,87.27852
0.7003566,87.52535
0.7695715,85.490364
0.6506879,79.28907
0.5309733,80.14282
0.6808225,76.334465
0.59318566,77.0156
0.5998948,68.79418
0.5680221,75.06078
0.62415355,73.12058
0.56673104,68.65731
0.6110327,71.04768
0.61321,67.708725
0.5932304,69.46059
0.53764045,65.057816
0.5136732,68.27856
0.39958426,65.65233
0.38750753,60.97618
0.42870936,64.43895
0.35964435,62.976093
0.30731207,63.191917
0.3006191,67.37221
0.2569275,66.70624
0.20060351,67.26493
0.19707042,68.46266
0.22649378,70.693985
0.23242232,74.074165
0.21645346,72.20212
0.19639637,73.313255
0.23995917,75.89141
0.24118803,78.77301
0.42301762,81.4301
0.37226304,82.228325
0.47132632,90.17296
0.5611206,94.231346
0.6374562,90.498215
0.7372221,96.2992
0.86357754,98.19824
0.87008405,107.22834
0.97667235,107.81858
1.062981,109.42508
1.1636888,111.8188
1.271057,113.96162
1.2784653,117.10705
1.3260703,129.08061
1.3812238,124.003975
1.4550126,127.47904
1.3899269,132.26955
1.4528786,135.34361
1.5561544,134.45753
1.5553118,139.97577
1.577012,140.04216
1.524774,136.99687
1.5597695,139.71397
1.4046988,138.4196
1.4451071,145.2273
1.4715974,144.48022
1.5291824,145.61363
1.4140515,143.90063
1.4444252,142.33153
1.4444723,144.91743
1.3856779,141.38031
1.3617338,143.38916
1.257857,142.81895
1.3212718,139.63081
1.18727,140.24127
1.1983362,137.26231
1.1535542,140.30597
1.156518,133.1497
1.1702828,131.52026
1.1332384,132.36458
1.0761429,129.6181
1.0922712,126.96387
1.0401931,122.82099
1.001816,126.39092
0.93968886,122.14964
0.920013,117.41065
1.0475698,120.42791
0.99833715,117.821785
0.91273487,115.78628
0.88497126,112.58886
0.9323726,111.24547
0.9426937,110.11307
0.8843259,105.3721
0.83171034,109.87848
0.8705294,103.35534
0.79606605,99.5634
0.8218021,96.40953
0.71155745,96.80221
0.6608228,96.31298
0.59719074,92.57849
0.55592304,90.926254
0.50196004,90.83057
0.49256274,90.770386
0.48394552,90.81242
0.41649762,86.87267
0.41287968,83.33998
0.27288547,85.57944
0.31283545,79.69622
0.33128825,75.842834
0.3725035,76.9768
0.35744813,75.87753
0.35569263,70.48396
0.3488807,74.9344
0.37031972,70.412735
0.29222658,69.9486
0.2757617,69.59334
0.31157804,70.70651
0.28970858,65.03921
0.20020103,63.905937
0.12380248,62.25446
0.13260686,62.32949
0.17606759,67.449455
0.04471217,60.855907
0.1516603,60.55418
-0.054021996,60.864983
-0.017697802,65.99353
-0.15738523,67.13465
-0.060017705,61.590023
-0.042117584,71.806015
1.6747063e-05,71.678215
-0.11623745,71.981064
0.07866789,75.88567
0.040730055,78.85115
0.071535625,78.86926
0.23409893,83.447266
0.24591714,80.97533
0.22556882,90.48742
0.32691318,89.01004
0.4514379,94.626366
0.6206948,96.36749
0.69736016,97.99943
0.7558208,105.74758
0.81576276,107.383675
0.8407904,114.52866
0.9314733,110.024345
1.0128345,114.14679
1.0859758,119.584206
1.1138265,119.320206
1.1984471,127.51361
1.2425433,129.37416
1.2694741,133.60931
1.3152024,131.53026
1.2779459,136.90547
1.2936985,137.34094
1.3695378,139.97484
1.3697608,138.07367
1.4281312,141.57574
1.3712431,144.04478
1.4119618,143.62495
1.4163377,145.39903
1.4354876,142.86142
1.3178418,146.67137
1.3474687,147.02338
1.3336068,144.76498
1.3050216,146.96432
1.2252022,145.10158
1.2407255,142.62363
1.1933118,141.24242
1.1083515,140.42049
1.04192,137.92963
1.1157285,137.14496
0.97806543,136.90865
1.0620053,133.85841
0.99109113,132.92491
1.0192628,126.27097
1.0034126,129.01727
0.97300816,129.04349
0.95964736,121.01373
0.97494566,123.23192
1.0149624,122.1511
0.9238624,115.63485
0.98755735,114.51051
0.94574666,112.76983
0.87037206,112.513565
0.8669528,109.181915
0.8710233,111.3691
0.79140437,107.51352
0.81126446,107.22644
0.8276254,107.541626
0.7435333,102.71659
0.6936542,102.55632
0.6900532,99.69845
0.6141109,96.03162
0.66854036,95.361694
0.579176,95.615875
0.56513065,88.99243
0.5131688,86.63389
0.5631683,88.858795
0.51140636,85.069855
0.44788516,84.83192
0.42909163,83.45431
0.38756317,80.079666
0.43078876,78.719315
0.3712074,77.101135
0.33877817,77.87942
0.40475374,74.407555
0.4836147,70.7989
0.41462204,71.12031
0.5046881,68.56007
0.40828305,65.686295
0.43111795,64.75966
0.36646608,66.56443
0.2913348,65.70765
0.33308944,59.878517
0.2781534,59.913593
0.23810047,61.954006
0.3108165,64.729454
0.1801497,66.20629
0.16304015,62.774315
0.11575322,62.133068
0.14285167,69.020805
0.111566454,67.44065
0.04637136,67.626686
0.066046394,66.86416
0.060262516,72.98841
0.14553791,73.81995
0.17626372,74.18053
0.30603674,79.07581
0.36762184,77.60438
0.45660228,85.14466
0.4984467,82.891335
0.68249536,92.543945
0.7437972,94.51429
0.7356637,96.34433
1.0083406,101.676834
0.9861654,109.546196
0.9977894,109.06619
1.181308,112.11538
1.2010175,114.44433
1.308199,115.45006
1.3854275,123.53239
1.3028295,126.293335
1.4100807,130.49391
1.4499235,130.06233
1.5399821,130.86163
1.6166021,132.11009
1.629247,135.72952
1.5247347,138.15244
1.6193172,143.22282
1.5881773,139.18977
1.6650887,140.3662
1.5641711,142.90425
1.6583536,141.15285
1.6000936,143.5994
1.6314658,139.99355
1.5753375,144.67975
1.5274391,147.7564
1.5846086,141.54996
1.5730805,139.85286
1.4960697,142.7644
1.4200709,139.09698
1.485146,143.23633
1.4174372,136.7296
1.3437995,133.8587
1.3667734,133.47949
1.3559351,132.48642
1.3969061,133.92734
1.2703435,129.93384
1.2343458,129.18446
1.2877271,129.6956
1.281479,125.34547
1.2392437,126.032364
1.2702674,119.60082
1.2168907,117.029564
1.2401043,122.40055
1.225979,119.99523
1.198847,115.67513
1.2413517,114.78939
1.2670141,110.49932
1.0880648,113.51941
1.0758622,110.6289
1.1297891,100.873184
1.0781987,103.99875
1.1738858,104.423035
1.0520061,100.094246
1.0334915,98.72801
0.87040615,92.6674
0.9928038,96.36422
0.8202321,90.73896
0.8562791,86.99993
0.7876662,90.83927
0.78318,83.3243
0.7939493,82.50312
0.7650263,79.963905
0.8008607,77.65724
0.71919996,78.1459
0.7256992,77.43195
0.6930822,71.824356
0.71418846,75.62979
0.7287734,74.21797
0.6403359,71.79792
0.67079544,70.16699
0.73625934,71.52951
0.6885323,68.11073
0.734495,65.88095
0.65806514,67.12047
0.6266364,66.291664
0.55871123,64.93357
0.60359484,59.87187
0.5090261,65.79678
0.5149576,61.825672
0.51611674,63.98394
0.44172215,65.68714
0.51019037,63.533413
0.48727846,64.10226
0.42206505,68.437775
0.47198465,67.06636
0.5076009,73.57377
0.3926837,72.33796
0.52693534,71.47022
0.5950719,76.64893
0.58799547,77.94662
0.6772203,81.60525
0.8220214,85.020424
0.8185685,86.73545
0.86614627,90.99474
0.93680257,99.09037
1.0892826,95.825195
1.1687108,98.59177
1.3571168,105.0114
1.35811,111.86641
1.458308,110.66337
1.5301659,112.04494
1.5945085,116.515945
1.6208501,124.376945
1.6847645,121.71016
1.7757552,130.06575
1.7776179,127.63879
1.8306485,131.12164
1.9089799,134.31718
1.9689527,136.02055
1.8567542,138.496
1.9034817,137.0457
1.8467582,140.1395
1.8845818,146.04698
1.967565,143.38658
1.9514418,144.53418
1.8154362,144.78065
1.8218433,146.21104
1.8379675,143.26628
1.8336933,142.47874
1.8873495,142.62921
1.7406738,144.4076
1.7245438,142.56561
1.761753,137.98366
1.7621853,137.20052
1.7153674,140.71677
1.6712801,140.34264
1.6711494,135.7895
1.6198584,136.22697
1.5797253,130.85376
1.5361202,128.57726
1.5175552,128.1002
1.6143415,125.41806
1.6082834,126.591995
1.5903144,121.92807
1.4140896,124.28823
1.546038,118.795876
1.4537728,118.29127
1.4676079,110.56886
1.4539983,114.14724
1.4351016,111.18509
1.5277486,113.77549
1.4680812,107.196785
1.4164927,102.52755
1.3748498,103.5019
1.2349232,98.79655
1.2730167,100.175705
1.235577,95.046425
1.2554922,100.584274
1.1682868,95.28076
1.1989332,91.26471
0.9830462,91.820015
1.1131936,91.39059
1.0034708,86.9426
1.0789788,93.376
0.9530195,80.050674
0.89211565,81.42978
0.9606686,86.65813
0.8802596,77.82514
0.93541396,73.20942
0.8708826,70.962036
0.9229793,73.82603
0.91296774,72.283
0.959661,65.737656
0.9420033,69.19706
0.86513156,65.66778
0.86461055,66.66892
0.87888753,65.62132
0.85833156,63.031025
0.7325256,65.10196
0.81471455,63.657238
0.8271398,62.488113
0.6466144,68.26705
0.5567715,63.15317
0.5995754,62.297173
0.53855836,64.327614
0.60940254,63.159588
0.6235483,66.20745
0.5820395,70.95092
0.6042847,71.065704
0.6063671,67.67854
0.48108402,69.96107
0.62053096,74.675606
0.69603735,78.268845
0.72803533,79.542885
0.84230584,84.40273
0.8607612,88.036446
0.9896807,84.90916
1.1098449,93.05054
1.1691481,96.60309
1.1666584,101.36413
1.2961591,101.14076
1.3862867,110.62126
1.4842502,110.91744
1.5583938,116.004
1.6468593,117.16803
1.6402696,119.779434
1.7194765,122.733696
1.6926285,128.63248
1.787294,133.67279
1.821612,129.33226
1.8324432,130.51408
1.9212066,137.96912
1.9626558,142.16261
1.9147245,135.16435
1.859398,148.67052
1.9887744,141.92596
1.861564,140.57773
1.8794487,143.37805
1.8477772,146.28699
1.856384,145.68
1.9104185,143.5134
1.8630524,142.5811
1.7837319,143.33522
1.7851222,139.94423
1.7011853,146.69968
1.7150602,144.60034
1.7398158,142.2947
1.6918087,138.63802
1.5647893,135.92407
1.7952057,137.45485
1.6661483,132.53217
1.4788699,136.60368
1.5214459,131.30925
1.5527573,129.97195
1.4306945,127.24227
1.4431094,127.85224
1.3847156,124.38996
1.4069238,118.96287
1.4563471,120.168564
1.3643636,120.93302
1.4428402,115.7368
1.5054712,118.241066
1.4621294,113.58455
1.2807372,109.729065
1.3254404,107.76328
1.2898582,107.6844
1.2824532,105.71734
1.2342849,104.10535
1.1894752,99.56626
1.1080042,99.01696
1.0866381,97.7669
1.065773,99.5762
1.0618426,91.9927
1.0039473,90.24465
0.9827399,89.83488
0.8816226,86.27882
0.8668986,92.361275
0.8475058,83.467094
0.8073646,81.00958
0.7714069,81.83554
0.72900236,81.77642
0.7858261,80.81258
0.723141,75.96172
0.74336076,77.78408
0.77556336,70.13348
0.7398472,72.22538
0.7643014,72.59821
0.73541975,64.48705
0.6556933,67.69974
0.7150833,62.66618
0.5677319,66.86213
0.6326391,63.430103
0.59886676,65.18687
0.6073275,62.8303
0.5133729,65.917305
0.47258034,65.853226
0.3831952,65.39311
0.43486452,60.746315
0.37013265,66.47034
0.4308662,67.55874
0.32675755,64.10036
0.28714895,68.50524
0.24225876,70.43812
0.35403246,71.01414
0.33698857,75.00993
0.34910128,73.95478
0.4561902,80.69657
0.41123047,85.286316
0.56459695,85.001976
0.6181668,86.46442
0.7267777,87.54067
0.69356734,95.54515
0.86731076,98.155365
0.91066253,99.31691
0.97908497,103.74036
1.0123422,109.71242
1.2724748,108.56815
1.2290899,111.8475
1.2953006,118.21558
1.3691846,123.71606
1.4620355,124.112915
1.4262147,129.59712
1.6293828,129.88544
1.5051607,130.73488
1.6163822,135.14363
1.6186589,139.1347
1.5986627,137.54411
1.6547505,143.99072
1.6891472,141.19762
1.6078801,142.25203
1.6270968,140.02777
1.5957046,141.51561
1.565903,140.82204
1.6052005,143.21567
1.5858144,143.62897
1.5330273,143.95146
1.4730496,145.54965
1.5059845,146.9241
1.4446304,139.55792
1.414448,142.58609
1.3489773,145.12907
1.3519297,141.801
1.3028532,134.03578
1.3564558,134.095
1.2272516,132.33618
1.1615303,134.45398
1.1846168,129.74348
1.1775329,128.28313
1.1189638,126.6354
1.125309,123.93808
1.075222,123.56896
1.0836945,125.35816
1.08361,120.885605
0.9970425,118.281456
1.0676835,119.62572
1.0621927,113.83084
0.9500849,111.67893
0.9559075,108.788315
0.933457,105.8635
0.91078204,107.373314
0.92945457,103.604485
0.91136384,106.68964
0.83465767,103.488815
0.85931045,102.953156
0.751702,101.20468
0.59183675,94.218285
0.623738,99.4252
0.7037303,89.306335
0.6764895,93.96406
0.44372672,89.0695
0.5708058,86.68459
0.47119948,87.49689
0.45686665,87.7189
0.42609996,77.08504
0.46923283,77.73423
0.4390573,78.841835
0.47594616,79.04394
0.41751504,73.82533
0.3221366,73.810295
0.38203323,67.21101
0.37591147,68.23811
0.37484607,64.73295
0.36083284,64.14915
0.37154937,66.899086
0.36125877,68.64734
0.2775918,65.39794
0.26878533,62.66847
0.25642052,65.21842
0.20751858,63.206898
0.17212355,60.57842
0.09828315,65.685265
-0.014383934,59.09418
-0.000835744,64.31616
0.13463536,64.62027
0.055031195,69.34773
-0.095569156,72.459335
-0.061156157,73.84827
0.018794606,76.03818
0.07821513,75.00442
0.0692495,77.366684
0.09641227,79.76072
0.13087648,84.07566
0.28356993,87.52344
0.39840212,89.096214
0.4065492,93.75945
0.5659022,97.46966
0.6574703,96.18555
0.7071765,99.85192
0.81348914,102.60395
0.9137631,110.82296
0.94350874,114.72235
0.9824734,119.1938
1.083025,119.31106
1.1173977,117.84758
1.2110417,124.525314
1.1091267,123.41681
1.250094,131.25803
1.3099444,131.98503
1.3063484,134.62498
1.3512439,135.79799
1.3091452,138.32784
1.3299351,140.9384
1.2959675,141.34766
1.340638,140.79466
1.3006228,141.68124
1.389135,148.03366
1.3715687,144.95253
1.2910798,144.13742
1.3905162,148.0254
1.2855875,142.82562
1.3379543,141.95631
1.2474285,143.6463
1.198322,143.77559
1.1708539,142.86847
1.1295553,138.16537
1.0393264,138.38539
1.136267,137.5647
0.9757254,138.5426
0.94831085,134.5988
1.0733033,132.04941
0.9193655,132.34904
1.0582658,131.38022
0.9059954,129.39276
1.0224309,122.504265
0.99617904,119.86167
0.95016974,120.35965
0.847839,125.38265
0.8435471,118.42355
0.86139274,116.672806
0.8701244,115.29705
0.9131185,109.21433
0.8013158,109.90847
0.8046766,105.43233
0.8718343,105.552
0.7145968,103.58402
0.83575153,104.09876
0.64039797,99.55486
0.67327917,100.72182
0.67540354,96.6724
0.6316205,98.72334
0.54520243,95.27463
0.45789126,93.71126
0.51617706,88.14844
0.4198481,91.28338
0.30541652,83.91036
0.46700388,80.67107
0.21586949,82.88561
0.37557936,79.148766
0.39148867,79.766014
0.3881546,80.987206
0.3165546,77.724335
0.32442784,77.50267
0.36583847,68.5155
0.3382649,68.45838
0.28170112,68.04256
0.3983787,67.70223
0.31531748,65.79098
0.42218962,65.36349
0.27400488,70.59951
0.27775058,67.49659
0.27404875,65.7761
0.17911227,62.254494
0.09547076,66.25474
0.08834683,59.264927
0.008730797,66.19663
0.10759437,65.588264
-0.04605323,61.81567
-0.02065888,65.95375
-0.06193394,66.6416
0.038640074,67.28189
0.015851263,69.91033
0.051741116,71.86966
0.0059464895,75.814026
0.15474145,76.5952
0.20536287,80.32827
0.18791813,80.12039
0.30418763,85.165215
0.5611631,87.545555
0.4733566,90.60766
0.6575131,93.75449
0.63358974,98.31857
0.79638934,108.13689
0.8207532,104.4348
0.96215856,105.19619
1.0540333,111.64245
1.0974156,115.792725
1.1759741,118.39499
1.2562338,121.46354
1.2995147,128.66403
1.3591422,129.98526
1.3847923,131.8943
1.4982692,128.72342
1.4087065,137.89168
1.4198807,137.82965
1.4018707,137.76506
1.429225,139.52585
1.4304178,142.66946
1.5863903,145.26468
1.4375614,143.32419
1.5566803,147.66254
1.529004,139.29579
1.5229677,143.69629
1.4425495,143.99838
1.4234293,142.90457
1.3779632,145.4244
1.3791703,142.40228
1.3307223,142.02846
1.3844333,138.68237
1.2928658,139.16016
1.289365,141.41698
1.2979918,136.36446
1.2235667,133.34163
1.2456319,135.9577
1.2639419,129.59428
1.2246319,127.24527
1.1186327,128.45155
1.1220115,124.80877
1.1472139,127.64435
1.1791394,125.66675
1.0801657,119.27381
1.1546891,116.612915
1.0778434,118.41554
1.0835421,112.93486
1.006915,115.15461
1.0041116,110.51642
1.0801299,106.54645
0.9738878,110.71648
1.048605,104.84951
1.0090233,103.42412
0.9390619,103.97008
0.85877556,101.40227
0.86487275,100.915855
0.951467,95.07235
0.8510478,95.33718
0.7874652,93.90165
0.7890649,90.1456
0.7405799,91.32908
0.67484426,86.60787
0.67177635,88.8635
0.6619057,86.08418
0.6002678,85.70554
0.5936008,79.42905
0.66295856,78.293015
0.57850915,80.083855
0.7024892,77.25524
0.6474502,73.72656
0.6168479,75.9184
0.5810674,65.31419
0.6434836,68.8743
0.6026944,65.38848
0.5761078,64.73747
0.6591132,66.91889
0.5169996,63.523617
0.50964624,66.43465
0.4557924,63.45901
0.5160629,65.730484
0.499672,65.41048
0.3698029,60.808025
0.44271648,63.82962
0.34534988,63.67979
0.3663029,67.325836
0.3209012,66.06679
0.31252167,68.636086
0.26585048,67.77682
0.34737605,68.438866
0.3753057,73.8989
0.42753598,79.39513
0.42572516,78.953835
0.51221657,80.661766
0.5367149,82.13801
0.6265981,88.18817
0.7651579,90.3115
0.8095003,88.61213
0.98916215,95.93999
1.0483004,104.885445
1.1609513,104.82728
1.214175,108.418655
1.2450192,109.586685
1.4619465,115.444214
1.434499,114.667755
1.5256716,121.895004
1.6080754,122.26302
1.6299641,128.3772
1.697229,129.38113
1.6981893,130.65523
1.7974049,132.3632
1.754889,139.09825
1.7673552,139.4723
1.7894024,134.78145
1.7642648,143.03351
1.8848907,141.62747
1.8699768,140.98589
1.7235799,143.17456
1.8427097,147.72798
1.8605344,146.48576
1.7525963,140.92548
1.7933078,144.9646
1.8251398,147.23001
1.799058,143.85219
1.7926593,143.04424
1.7738367,148.08507
1.6191673,139.13892
1.6713337,137.50537
1.6925426,136.51624
1.6592286,136.2142
1.5423373,132.5288
1.5706846,134.45354
1.4994876,133.90416
1.5064203,131.04944
1.4392842,124.16311
1.4496415,127.211555
1.465938,122.50987
1.5063553,121.981224
1.4566984,121.48627
1.3935198,119.3081
1.3704731,116.19799
1.4429784,117.275444
1.423269,116.03116
1.3814081,110.26604
1.3195243,107.187126
1.2951416,108.22705
1.3405778,105.9676
1.2503198,102.41761
1.2780803,103.699585
1.2607329,101.04216
1.2146175,99.24604
1.2072176,95.04866
1.1614554,95.74937
1.1153474,94.582054
1.0516692,95.276955
0.9967267,88.18254
1.0097872,86.223145
0.9426303,87.1895
0.9491455,84.67988
0.94730884,78.30705
0.89879686,76.55293
0.9241684,75.654144
0.90260607,76.6315
0.919015,76.82483
0.96735245,77.29227
0.87041295,70.48318
0.95107144,74.14284
0.87087774,71.298065
0.92995465,66.25014
0.90409666,67.31052
0.8455138,69.58179
0.825743,61.200768
0.8131014,64.831825
0.7650974,63.52421
0.7380217,61.642376
0.76111144,63.330257
0.65463907,61.124405
0.55292296,64.836365
0.5940348,69.83425
0.53658336,69.08002
0.50649875,66.59627
0.58651364,72.61971
0.49951974,68.53758
0.6034828,75.117516
0.51836216,74.19181
0.6238921,75.86291
0.6357789,79.61995
0.7759608,84.037926
0.8391483,82.13017
0.98719674,89.00071
0.9849413,94.74294
1.1132263,95.14412
1.1772293,95.50585
1.2466185,99.35607
1.3184226,103.72486
1.4260427,108.61946
1.5793343,106.20698
1.6144696,115.57802
1.622395,118.86238
1.7102165,119.03726
1.7092043,124.79136
1.8927938,128.97382
1.9539397,129.64043
1.9099615,131.2839
1.9499111,133.30812
1.9051822,135.50587
1.9416533,136.99796
1.9083236,135.88383
1.9224224,140.1641
1.9791138,144.981
1.885359,148.65866
1.9994817,143.35118
2.051802,147.19446
1.9842085,143.68413
1.9356534,144.14061
1.7652692,147.25931
1.9364463,139.87456
1.8126013,145.22229
1.8677068,143.23735
1.8305228,141.89691
1.7973405,138.39348
1.7095011,138.13423
1.6406058,135.29028
1.6161608,137.57991
1.5579115,137.12749
1.5907762,130.77495
1.6223993,132.93837
1.5903674,126.83819
1.5759435,129.81262
1.5449194,128.75572
1.463976,124.84099
1.5713581,121.74373
1.5519658,120.02982
1.4152117,117.94451
1.5251602,114.10237
1.4776739,117.06916
1.4321877,112.99608
1.3404723,112.5948
1.3111567,110.47966
1.3158716,106.3847
1.3705491,104.827484
1.2177383,110.43483
1.2734914,100.277885
1.1217875,101.658325
1.1268594,95.07949
1.1334102,93.34882
1.0758286,98.71422
1.0189161,94.511345
1.0169802,92.762825
1.0392869,88.10675
0.8947816,86.84921
0.98764485,86.84655
0.8212692,83.26232
0.81014866,80.27651
0.8058836,80.42427
0.82717454,80.0278
0.75952893,78.91776
0.7743262,74.412674
0.84506285,78.7228
0.7987595,68.002556
0.78427863,73.41565
0.86813074,68.40309
0.7487469,65.03877
0.7625331,60.440132
0.8661037,62.68971
0.69610125,65.70748
0.76133806,61.48232
0.5899234,68.355835
0.5386699,63.095657
0.6084471,62.506775
0.5014383,64.340096
0.60656816,62.999527
0.43664783,65.86583
0.40239292,69.08812
0.40447554,68.514656
0.45690975,72.9121
0.39575708,72.22423
0.3736127,75.7051
0.4089582,73.14392
0.5282614,76.545296
0.55287975,83.30379
0.5604524,81.862785
0.6236377,85.670395
0.68107814,91.575066
0.8287047,94.8123
0.856943,96.524635
0.9812519,97.47377
1.1510453,102.38224
1.0949185,102.852715
1.2726194,108.56285
1.308712,110.98743
1.3893045,116.62542
1.5049769,117.31793
1.5192744,118.21796
1.5560888,121.30014
1.6329699,125.39362
1.6612412,131.2382
1.7552327,130.31621
1.7417006,136.90698
1.6981397,133.18015
1.7438916,139.06812
1.7282567,142.89331
1.6291589,142.35416
1.7079084,143.82628
1.7394986,141.44365
1.7276075,142.25015
1.7139436,143.63298
1.7392583,148.0259
1.698789,139.46294
1.6465582,142.9734
1.6897764,145.06537
1.6197122,145.56834
1.5532156,142.03749
1.4962802,143.33296
1.4696343,141.6384
1.4977152,135.65733
1.4444565,137.71487
1.3517542,134.7245
1.3426567,137.3093
1.406173,131.47241
1.2360498,128.90073
1.2388614,125.952255
1.2399219,121.49683
1.2487233,119.42018
1.2612722,122.279144
1.191337,117.469536
1.2118917,118.512054
1.1857898,116.059685
1.1306521,110.5449
1.1271478,116.82811
1.1285632,109.79029
1.1026499,114.10185
1.0613594,106.573654
1.0816936,103.88942
0.9798372,103.63889
0.923194,104.68039
0.9667482,97.304054
0.8666224,96.82645
0.78684646,93.52727
0.79872566,99.38578
0.78113407,95.38533
0.6915549,91.25051
0.6944139,93.83241
0.7153423,85.13795
0.6682825,88.67076
0.578683,85.97662
0.5311899,80.45285
0.60401654,81.99906
0.6289298,79.74276
0.52890545,76.90265
0.4251561,71.4825
0.48822558,74.356026
0.5326452,72.88847
0.5356252,70.87262
0.56237173,69.54924
0.37503877,67.592316
0.39564747,66.22024
0.4460696,64.19797
0.40212423,62.930347
0.3699664,61.503273
0.35893878,62.906013
0.3302633,63.805477
0.2427901,62.1139
0.24449435,62.921406
0.17144601,62.472168
0.18553862,67.90992
0.11479498,66.89367
0.12750627,66.55785
0.14356299,66.68387
0.03645265,69.52823
-0.021452311,70.95966
0.056714557,75.38529
0.10658941,73.59627
0.0908077,78.06886
0.18587607,79.13777
0.3540802,81.02504
0.35890213,88.266556
0.53874916,90.14233
0.51136464,92.41106
0.5738806,94.22232
0.6354168,96.62953
0.8348536,102.67195
0.88359076,106.82531
1.0085368,107.219635
0.96153176,112.16059
1.1121861,115.55298
1.1525348,117.6003
1.1525159,121.07983
1.2683574,121.1214
1.3333074,129.74187
1.3029957,126.83642
1.4034607,131.9548
1.4002168,133.80544
1.3847286,133.85779
1.464892,136.88434
1.4030135,143.00977
1.4190458,140.53659
1.3654836,143.03526
1.4023625,141.96559
1.3930506,145.04594
1.4842705,144.40868
1.2906618,145.36276
1.3858685,142.06133
1.2869178,144.48924
1.2584327,142.41498
1.2773527,141.1425
1.3110557,140.37636
1.1937504,138.00237
1.1781697,143.27997
1.1101491,141.60988
1.1883184,137.7535
1.1384028,133.74937
1.0507631,132.81989
1.0188462,127.28847
1.0328985,129.34137
0.9808697,129.71072
0.88608146,126.722206
0.9559494,126.83389
0.9093866,122.67439
0.9207773,120.50682
0.92867845,120.99345
0.9134927,116.710976
0.9911923,119.39444
0.9198305,115.24913
0.8296813,111.91343
0.7769967,108.261345
0.9116184,106.12408
0.7688674,105.11575
0.76783305,104.62606
0.71347535,104.02724
0.63178015,103.27501
0.7236497,99.7739
0.5544196,102.95573
0.54802895,93.02643
0.60252553,94.44888
0.5565217,90.26777
0.41123596,90.29798
0.44025815,86.8521
0.35337198,83.9073
0.2996383,84.66931
0.41179547,81.071526
0.41700217,80.201454
0.31774086,79.479706
0.35623115,73.31803
0.29961377,77.5422
0.42235485,72.6133
0.34999865,75.39106
0.29419598,69.92762
0.22690545,71.58509
0.4056966,68.00649
0.21182427,68.1052
0.29116216,64.84086
0.27675608,66.49681
0.21433984,65.08575
0.17229912,64.32002
0.18062235,56.35007
0.080492705,62.449413
0.019377872,62.950066
-0.02501249,64.36198
0.0118402345,65.49807
0.006223537,66.50022
-0.087065116,68.4348
-0.06914653,65.66978
-0.096847184,69.248886
0.010379711,72.74627
-0.018130422,74.27728
0.04758246,74.83915
0.10687207,80.04026
0.08104388,82.56945
0.25758758,80.0446
0.2842387,88.11246
0.40295464,89.69227
0.516223,92.29004
0.5298145,97.64885
0.61222833,99.03165
0.8309623,103.80654
0.8510594,103.86208
0.9003943,105.87195
1.0218607,110.80999
1.1131377,115.749054
1.1843805,119.91186
1.2375436,124.16633
1.1942909,121.768814
1.3583966,128.6524
1.2439128,131.04433
1.4239275,134.42317
1.3423973,138.33594
1.3675472,134.28238
1.47575,137.3729
1.4205925,139.29568
1.446873,142.17932
1.3890036,141.99872
1.3859334,142.06612
1.3970003,141.9466
1.4441854,144.82828
1.2568657,145.06818
1.3374509,146.13858
1.3351039,146.09575
1.3053021,143.70172
1.2721696,140.91594
1.3060113,141.01614
1.282987,140.72038
1.1940515,139.05457
1.303566,137.83545
1.0759196,133.8471
1.121615,134.29933
1.1935953,133.69008
1.1612842,132.38582
1.0206455,131.89775
1.0827199,128.76305
1.0246664,127.68206
1.0476855,124.16788
1.0206395,120.591255
1.0523078,114.60967
1.0042851,117.86391
1.0035448,116.65762
1.0627742,114.05043
0.9439586,115.254814
1.0305585,110.86368
1.0404042,108.304924
0.95610887,105.05397
0.8978822,105.73863
0.771844,106.44376
0.87012726,103.323944
0.81007373,98.05893
0.7940355,98.42736
0.65212935,100.42612
0.78135204,95.11556
0.69089746,94.23845
0.6406024,93.17042
0.56368464,89.869194
0.5681294,85.05405
0.4731832,87.47013
0.55548394,78.63069
0.56858975,82.68693
0.5443995,78.97381
0.57103986,79.48792
0.5923159,74.341156
0.47975236,74.30542
0.6145348,69.88487
0.53668433,74.349205
0.5068936,67.74508
0.5775979,69.04263
0.5132007,66.61669
0.41429934,64.555466
0.47462705,61.417774
0.47756588,60.741978
0.49005133,63.59256
0.37832135,66.71533
0.36457372,62.699127
0.29834914,67.6302
0.2259988,66.41515
0.23930696,62.072975
0.22224593,63.84685
0.2402848,64.80528
0.19266738,68.493225
0.18679842,66.711815
0.14562877,70.49807
0.18530989,71.263596
0.26292896,73.58476
0.29125428,77.62511
0.33127677,77.47108
0.40810612,76.093735
0.37826183,86.77947
0.6236617,85.35717
0.7028953,90.514595
0.7635321,91.47244
0.91653097,97.59468
1.0081363,101.02578
1.1455456,104.29824
1.1078447,105.71632
1.1919583,111.41714
1.2810247,115.38259
1.3216045,115.8141
1.4806824,119.33219
1.4953384,118.89698
1.5068942,125.42042
1.6006353,130.67857
1.6268023,133.27856
1.6656495,135.80003
1.6177785,136.29054
1.5920105,137.87617
1.7269504,138.31459
1.6887913,142.50539
1.7345082,141.04868
1.7220987,144.26642
1.6788375,138.91525
1.6977754,145.47655
1.6989496,145.57166
1.6578548,146.84973
1.5894667,143.41884
1.740019,143.96959
1.6093888,141.35251
1.5981596,142.18031
1.6544428,142.12949
1.6252828,137.38898
1.467896,141.16194
1.5168611,136.70445
1.5556396,133.05623
1.4822994,137.17906
1.4617386,128.94067
1.4053843,131.16763
1.4104177,128.49261
1.3212771,132.0285
1.423259,126.98055
1.3877364,122.09706
1.37663,121.64779
1.3886335,123.208206
1.3327281,117.727905
1.3483346,116.34667
1.4177797,114.92773
1.3780997,110.51555
1.3018233,110.86365
1.2228518,105.38377
1.1971138,108.51593
1.2768453,101.9805
1.1877958,101.787445
1.2162906,99.65635
1.0697933,99.42217
1.037721,97.0223
1.1527312,97.067505
1.087823,91.300064
0.91463923,93.73105
0.91084814,86.54645
0.8584372,84.825134
0.89042985,88.89004
0.9235763,88.72639
0.8993426,81.593
0.91208255,83.84344
0.84471285,80.16321
0.87418884,81.82416
0.8806436,74.56898
0.8192396,76.1313
0.8054317,70.95398
0.9146792,70.158714
0.7839577,69.67645
0.8551635,71.508705
0.7918416,70.1455
0.77027905,65.32018
0.78671294,63.49282
0.81029236,63.901016
0.7334977,61.905853
0.7304089,67.85914
0.6260113,65.35254
0.5670372,67.11319
0.5893841,63.992428
0.5645214,65.744156
0.5162775,68.26401
0.53538835,66.657166
0.527788,68.2453
0.458997,65.73215
0.4373636,71.415054
0.5588492,72.07727
0.5545424,79.29285
0.6679099,80.73667
0.6778091,83.373184
0.77924097,83.65903
0.9082597,91.305984
0.91888875,87.230484
0.9172009,89.57135
1.1408097,91.38264
1.111356,98.169304
1.3030107,102.947845
1.3587191,107.244316
1.448762,108.28123
1.5710933,115.22057
1.4747591,118.25372
1.7330469,114.70951
1.704647,121.77215
1.8914313,121.57752
1.7936643,122.23692
1.8595666,129.51846
1.9171096,130.9867
1.9519229,135.39778
1.9976469,132.72552
1.9187169,138.47455
1.9448491,142.84703
1.9429207,142.93839
2.007721,143.8993
1.9781631,142.23239
1.9797016,144.43492
1.847325,140.94817
2.0190098,147.2475
1.972197,145.29893
1.8917329,145.77554
1.8393267,146.61462
1.8383383,141.56378
1.8470074,139.18016
1.8902422,138.45439
1.7961555,140.27371
1.7011964,135.56807
1.7327886,133.91643
1.7010158,135.11134
1.6565791,137.9364
1.6538951,130.79927
1.6413146,128.45486
1.5449171,129.8224
1.6115619,127.20135
1.533438,127.3709
1.5269575,119.42169
1.5199662,120.15957
1.5260305,116.21793
1.5681337,116.760666
1.4288785,113.85737
1.4393016,111.368484
1.4741292,105.98139
1.460956,108.983986
1.4205102,112.219185
1.386339,107.54214
1.3720716,108.58508
1.2539409,105.83532
1.3318458,103.318184
1.2154994,98.77109
1.220138,96.71927
1.1451793,98.17197
1.1803937,97.72024
1.1094767,91.93609
1.0238491,87.89864
1.095518,88.074554
1.0148183,86.67792
0.9916385,86.57723
0.8422855,82.10069
1.0514065,82.3749
0.92092603,78.6893
0.9116553,79.376144
0.9295484,73.33823
0.93076175,75.84114
0.9091055,74.0322
0.87811613,76.51197
0.80809313,71.998955
0.9097188,68.66834
0.85040957,67.28547
0.9058026,66.32557
0.82151306,62.67043
0.7831552,58.4235
0.78245133,63.01703
0.78971916,68.23961
0.64240456,67.262634
0.58437216,64.00563
0.6193596,63.679394
0.49983558,60.810745
0.49887866,67.21781
0.51033735,65.578735
0.4593982,69.84051
0.39666754,68.151695
0.50007695,72.31675
0.5441685,73.572525
0.5350978,74.38477
0.6090838,77.47695
0.74787325,77.766716
0.73291755,83.077385
0.65147644,89.480965
0.80754673,86.48761
0.8739461,91.47062
1.1022065,92.54488
1.1582209,98.159225
1.1991814,99.495735
1.3443906,101.439415
1.3195182,108.17249
1.4137789,110.569855
1.4868276,115.21557
1.4900838,120.335304
1.6094712,124.65449
1.7681035,124.54765
1.7751828,124.38478
1.7694802,131.29889
1.7722032,132.13002
1.8049719,137.37976
1.9145933,141.87944
1.799094,137.90358
1.8454039,140.1984
1.8321095,142.87233
1.8646452,140.58757
1.7985528,145.52977
1.7831614,142.01704
1.8450223,139.54832
1.7504573,143.74164
1.7789168,141.1921
1.7666488,144.6746
1.7620901,145.53374
1.6874237,142.69078
1.6566544,143.3377
1.6148065,143.47589
1.5821822,141.17502
1.5262308,138.7479
1.551445,140.09065
1.5339423,134.3151
1.5394425,132.29153
1.5450591,132.49828
1.4926581,132.54839
1.405309,126.98375
1.4665558,125.74689
1.4148151,124.565216
1.4109057,122.588776
1.2641687,117.90402
1.249492,119.61673
1.2706648,122.505486
1.275942,116.638855
1.2562982,116.93721
1.220065,115.00524
1.0991081,112.625114
1.1974651,110.07505
1.2100621,104.963585
1.2070388,103.9066
1.1547722,99.81904
1.0660877,94.69429
1.0000335,99.84943
0.99243337,95.69472
0.93183154,95.376495
0.83438784,97.5407
0.8308621,93.95835
0.770388,89.37834
0.74574864,89.156555
0.65858406,84.02721
0.59021354,86.34543
0.6849907,83.8022
0.6338916,79.77184
0.64860475,79.73903
0.64413685,78.16318
0.5837082,76.699585
0.56206435,76.8029
0.58360004,70.301636
0.5508711,73.456955
0.56128055,73.46947
0.56847364,67.72
0.54317284,69.39877
0.50062764,67.93722
0.49789384,65.83306
0.5332433,67.34225
0.5298141,63.127274
0.39064443,59.58437
0.26239574,64.828804
0.3642485,65.76495
0.2358701,60.677605
0.3311699,66.14551
0.35833564,65.71046
0.15848254,68.68995
0.1487317,71.01005
0.1613633,65.93973
0.17752247,69.946465
0.23527336,74.41266
0.23177835,75.3315
0.27152666,76.07073
0.28935587,80.09597
0.4237802,86.1063
0.50331324,89.06617
0.50524473,89.37443
0.6404141,92.85651
0.6734724,97.378044
0.8449469,97.52288
0.8907735,105.14699
1.0776776,104.596695
1.0562123,111.3239
1.1199391,114.43213
1.1866716,117.14432
1.3101898,118.64155
1.3897502,122.64525
1.2168999,125.74042
1.3668557,129.87048
1.4644775,132.24944
1.4980662,134.35477
1.4279082,141.04796
1.4288064,140.18127
1.4433206,137.90254
1.5289061,143.69333
1.4917709,142.0265
1.5358589,144.51942
1.4562428,139.34016
1.4343379,145.61424
1.4034052,147.68031
1.4091178,144.17313
1.4531971,143.27196
1.3531051,141.29607
1.3903259,141.00604
1.2557936,143.22433
1.3422974,142.73155
1.3008834,143.47801
1.2880586,135.64038
1.1639367,137.28534
1.2092911,137.08678
1.0139811,133.52855
1.1740538,133.37343
1.1197543,132.02539
0.98067063,133.70477
1.0165689,127.58742
1.0627595,124.23396
0.99658424,125.13063
0.9879809,124.81137
0.99556273,118.01072
0.9092831,123.64319
0.9056164,118.94794
0.96648467,113.33754
0.9727376,114.553375
0.9810453,112.00308
0.77937263,110.580124
0.8498904,106.95386
0.8263897,104.72712
0.73999953,101.64441
0.6854191,101.088486
0.6450508,101.44166
0.65370125,102.35768
0.6320918,95.23856
0.6271057,95.88933
0.6185354,92.46745
0.6057317,92.68556
0.49281412,86.76876
0.38322103,90.4319
0.43609276,85.935936
0.40005904,85.20725
0.36729527,84.00786
0.46192163,86.2114
0.35462275,77.92851
0.32432616,74.95561
0.4182379,74.105774
0.35314304,73.25667
0.29014742,71.968765
0.27377537,70.48254
0.37639308,73.246994
0.3356107,68.04101
0.22771095,65.14401
0.36585316,66.35022
0.31012654,69.607376
0.21359582,67.47336
0.19356005,66.193275
0.16954054,64.36582
0.080152296,64.03167
0.038180687,59.60033
-0.023297815,63.064495
0.05106607,63.47468
-0.07745691,63.80635
0.02902614,63.538837
0.08078294,72.68662
-0.08850841,72.37074
0.016388208,71.439156
0.024342664,77.28175
0.021850416,77.28758
0.10318446,83.164444
0.15784173,80.58934
0.18114117,82.786575
0.24481201,87.49009
0.3397014,89.343376
0.4711541,96.07615
0.544827,98.130806
0.6318074,101.60656
0.69155735,105.47925
0.87257165,107.81684
0.9035864,109.76651
1.0649761,113.10873
1.1324352,118.75302
1.1200858,120.056786
1.1631408,120.601845
1.2752362,127.663414
1.2924873,128.95174
1.3106655,131.51831
1.2655241,137.70596
1.3160369,138.62521
1.3057663,137.6995
1.3652395,145.454
1.3748268,141.89413
1.4426918,145.45088
1.2908976,145.98915
1.4224228,142.63391
1.4641657,141.78267
1.4442538,146.38864
1.3727956,144.70323
1.32823,147.31535
1.2880639,139.00708
1.2091526,143.212
1.1775466,145.34346
1.1633207,145.295
1.1628964,139.4386
1.1208087,140.43204
1.1317691,139.7081
1.114098,136.31027
1.0593213,135.94673
1.0400304,133.10548
1.0090356,131.2313
1.019232,131.18146
0.97072893,125.773224
0.99872935,128.27098
1.0057719,125.350655
0.97480327,120.29227
0.88420546,120.51706
1.0519216,120.36813
0.9334773,115.635605
0.9127637,115.50861
0.8909041,113.90503
0.88152224,110.47352
0.87518144,109.69821
0.89455545,110.31339
0.80794734,103.714645
0.784473,104.174965
0.79736596,104.09574
0.7629599,99.70486
0.651597,96.74118
0.70641196,94.929535
0.5964935,94.397385
0.6204071,91.82891
0.62553746,87.59216
0.55778134,89.617805
0.4543543,85.3853
0.4224234,85.97045
0.40379047,82.81334
0.3580973,81.89347
0.46821404,75.55083
0.37170023,77.28677
0.42801958,75.76749
0.41088563,75.39552
0.45085898,73.56196
0.32031572,67.81508
0.45255533,66.52129
0.44200772,71.84137
0.39135733,67.1727
0.3970769,64.50232
0.39662504,67.613976
0.38907248,58.200565
0.33746156,63.50516
0.34323844,63.41371
0.23070124,63.02659
0.20449887,62.914173
0.24472149,62.267784
0.12630172,66.933304
0.10683839,69.275444
0.1642197,68.58712
0.055457897,63.72555
0.10731572,67.440956
0.09690903,69.300575
0.19302706,73.37347
0.082359724,75.39377
0.28761724,77.69103
0.22691733,80.600586
0.30114144,82.7381
0.34826976,81.55067
0.46927592,92.16231
0.5259249,91.14107
0.6766948,95.07159
0.79934204,99.79623
0.88511044,99.91612
0.99059725,107.884346
1.0359361,110.30065
1.1184866,111.470215
1.2413323,114.902306
1.315317,118.84281
1.2727789,119.93824
1.3498183,122.57332
1.4043059,128.83447
1.4960726,127.69872
1.512725,132.25044
1.5345619,135.8891
1.5954695,136.34586
1.5717996,135.82085
1.4618142,145.2148
1.6112956,142.665
1.6335273,144.19664
1.633435,143.05234
1.4988934,146.76231
1.6445074,146.69379
1.5907798,144.15114
1.6314182,145.40643
1.5488207,145.51385
1.4615685,145.19472
1.5658882,142.34091
1.5581666,139.93489
1.5064245,140.68655
1.5029734,137.28282
1.5023296,138.06113
1.363536,136.82944
1.359465,137.29178
1.3433678,136.3325
1.3858012,133.85796
1.2667276,126.964455
1.3283204,127.78908
1.2965324,127.08775
1.3029059,122.63094
1.2224402,123.505104
1.2111878,123.222725
1.2541115,119.696724
1.2114605,117.27508
1.1585765,116.111084
1.1866429,115.33453
1.2124299,113.89076
1.1119505,109.0483
1.1436838,111.67184
1.1873946,107.712074
1.0546082,103.72479
1.0972972,102.08874
1.1684594,100.957436
1.048761,101.56307
0.94663346,97.50936
0.9010828,97.75657
0.9798292,93.66469
0.8827886,91.76534
0.8896512,88.263054
0.8180919,87.76221
0.72258127,84.57039
0.8418143,87.19258
0.7006487,86.23868
0.72457546,82.24763
0.8144058,77.520874
0.81709325,74.870026
0.73255306,76.01159
0.8187304,73.074684
0.6450724,72.29405
0.733161,67.80126
0.7175192,69.64423
0.76801395,69.82288
0.69268954,66.28827
0.76246625,66.70348
0.69332093,61.399452
0.6793616,68.041336
0.6643642,60.555264
0.6184106,65.377815
0.54977643,60.659916
0.50754917,57.356014
0.5026415,61.39702
0.42810306,65.192184
0.50415474,65.863434
0.43012565,68.14736
0.3497581,69.34921
0.37080425,68.34588
0.3513064,73.84226
0.4841121,75.5738
0.54931504,78.21997
0.5161294,76.91204
0.6946399,80.3955
0.7085608,80.68092
0.7613611,89.00912
0.85101426,88.23567
0.9737339,93.47675
0.9821815,97.91425
1.1527792,96.79524
1.1874874,102.79017
1.2799673,104.63779
1.4948126,107.56048
1.506931,112.08101
1.5558611,116.8464
1.574874,119.939064
1.5822482,122.445175
1.7400349,123.47543
1.8843877,129.34291
1.7961031,128.21584
1.8913229,132.03091
1.8599663,134.8693
1.8966948,135.01044
2.0171227,138.99031
1.9121667,138.39368
1.9702835,141.95512
1.9274585,142.2814
1.9311182,142.71564
1.8572645,137.45752
1.9603692,146.1435
1.8899286,146.21674
1.8051496,143.66405
1.7519604,143.58934
1.9105959,145.65814
1.8172736,141.59955
1.7829275,142.93982
1.7431421,142.03444
1.752991,137.49605
1.7750123,141.51514
1.6621965,136.75835
1.593736,137.66124
1.604837,127.972824
1.6306735,132.53542
1.6620206,130.71513
1.562787,129.3742
1.5045688,124.96279
1.5584002,126.26122
1.5500371,123.36453
1.5046846,120.791214
1.541437,119.436
1.4706042,116.47333
1.5122254,118.02327
1.4748135,112.97258
1.4382434,112.922775
1.4953107,112.150986
1.3932328,109.657036
1.3584402,104.403564
1.371717,105.02119
1.3448663,105.02893
1.2881521,100.474
1.3054687,101.004875
1.2209167,100.676544
1.0887002,94.26036
1.1306099,95.89281
1.0339797,90.5408
1.118064,86.53322
0.9788526,91.356766
1.0771519,87.14848
1.0323784,85.77612
0.9791659,85.64395
0.9130773,80.68324
0.95447963,77.03068
1.0290297,79.22337
1.024354,80.27429
0.89158344,72.984955
0.9798213,68.54662
0.9445298,69.913536
0.99924964,69.584755
0.9727794,71.16481
0.84301186,66.69155
0.8503746,65.251785
0.807859,64.357994
0.8326299,62.812157
0.7170339,65.35428
0.72361225,65.84678
0.726661,63.19446
0.69156575,68.22532
0.6501442,62.26459
0.6493269,64.032585
0.4666615,69.30873
0.56964964,64.161934
0.5112694,67.69867
0.59004885,74.42572
0.5705988,70.437
0.5540677,68.86234
0.592684,74.88798
0.70126414,76.561775
0.8396587,82.14773
0.752714,82.87031
0.8581421,84.48365
1.0189474,91.6617
1.0720924,93.6393
1.0984596,95.20128
1.209836,102.16609
1.323135,100.83955
1.410276,106.89236
1.4420058,106.58708
1.5252483,109.96344
1.6407658,114.83926
1.7227181,122.39838
1.6742641,121.71108
1.8787661,124.42728
1.8737441,128.64561
1.8066849,130.35559
1.8576506,134.32895
1.9362164,129.81929
1.9227741,138.42055
1.8732287,138.02708
1.8858093,143.19992
1.943792,140.45699
1.9339092,139.75807
1.9375336,142.87125
1.9248971,148.64284
1.8958031,142.81233
1.8080682,148.84438
1.8664411,144.72115
1.8609778,145.76129
1.7587504,140.99994
1.8290752,140.69997
1.7117373,143.5474
1.6854614,144.47241
1.7109829,140.86456
1.6850805,136.37277
1.5732967,139.01756
1.5188305,136.65501
1.5439129,132.84665
1.5841411,129.82553
1.5183322,130.4493
1.5016109,128.43881
1.4513524,126.39943
1.4097335,125.697655
1.479098,124.135544
1.3231226,123.13458
1.4381202,115.88376
1.5393187,116.19189
1.4309189,116.77543
1.2913395,115.95465
1.31179,112.86572
1.284387,112.13933
1.2550814,108.705986
1.267572,104.59768
1.2898821,103.68324
1.2412845,99.34538
1.1456087,99.45046
1.0533557,95.036766
1.014974,97.7082
1.0897976,93.356895
0.9760419,94.088776
0.88979465,92.54614
0.88493687,88.1658
0.91213083,86.518654
0.75011003,83.968956
0.74287677,84.73351
0.7635535,81.49542
0.81854105,78.62672
0.7527963,78.08918
0.6400512,78.73887
0.73777056,77.47317
0.7888567,74.341156
0.80245495,69.31283
0.6504536,70.29095
0.5993253,70.72964
0.6791102,66.50301
0.70643204,66.2294
0.67726356,63.808674
0.6879822,65.25797
0.47365472,64.81566
0.574026,59.690838
0.51548356,64.219986
0.5094423,63.000336
0.39474764,67.00624
0.28065294,65.920166
0.36694828,65.5527
0.29678595,66.167915
0.26847833,65.648254
0.19425166,64.26891
0.32087952,69.437675
0.31956285,71.85318
0.2725819,73.020164
0.3654226,76.04964
0.44188327,76.52395
0.616138,81.940285
0.5234412,84.35863
0.6923035,89.855415
0.64241266,89.28855
0.7266574,94.57448
0.77244085,93.29189
0.88456,100.54576
1.0355293,105.07312
1.009221,108.865204
1.2423707,107.16534
1.2575946,115.12536
1.4498738,114.040695
1.3543146,120.55629
1.3908528,120.2393
1.5788538,126.06729
1.4784462,130.93587
1.5545217,129.02032
1.6125047,133.77403
1.6112238,135.33188
1.6421617,139.9557
1.5937175,138.48784
1.6724175,139.7096
1.5688609,143.72977
1.608303,145.12683
1.5165417,140.50201
1.5333047,145.09732
1.5174536,145.0603
1.5721357,145.08347
1.5910327,143.54118
1.5538278,141.65784
1.4673786,146.39676
1.4221466,141.50862
1.4357316,140.98625
1.4582684,143.94295
1.2617688,143.45944
1.280009,139.14548
1.2806276,135.91003
1.2490394,136.36754
1.2768162,132.22427
1.1748242,131.64502
1.0968778,128.50009
1.1415638,128.09456
1.1761373,126.9609
1.0673368,123.103325
1.0554628,126.067406
1.0324663,118.41003
1.0546714,122.90981
1.0058331,116.46716
1.0939798,118.1318
1.087585,111.97074
0.9241664,111.3886
0.9339052,109.0854
0.92337245,105.0768
0.7960854,103.794014
0.7902424,101.61678
0.8044383,101.704895
0.73027533,97.63485
0.80549884,102.131966
0.75575286,95.58814
0.7018685,92.334404
0.64756066,88.42061
0.59458554,96.666466
0.49435422,91.15689
0.42982322,85.116554
0.5355834,84.53489
0.3928288,80.31988
0.4628751,82.249794
0.46154675,77.733696
0.3653371,78.49172
0.3961264,75.20973
0.38513055,78.85007
0.4410713,72.31556
0.45637557,74.62798
0.39557648,67.080376
0.4523975,67.47083
0.3935682,66.751526
0.35664448,67.42056
0.29705486,68.93196
0.30286396,62.738003
0.21588437,67.40325
0.18336318,62.057426
0.14549631,64.06466
0.09025108,61.8358
0.11640589,67.20068
0.11468918,65.54141
0.12116544,64.59455
-0.0071752295,67.43019
0.056063488,64.40827
-0.032870907,66.67685
-0.05507992,70.237976
0.07685493,72.843056
0.007702573,72.754875
0.042221516,80.01653
0.06465345,81.914375
0.16834478,84.423004
0.32030493,84.02341
0.2880706,88.58293
0.52844805,89.45438
0.56258285,92.75451
0.6188062,99.922516
0.67871577,100.95094
0.8403836,106.365685
0.9320269,109.196175
0.96778196,114.6792
0.96088123,116.04656
1.1790608,119.06288
1.1799402,116.82742
1.2044219,121.67343
1.2247998,127.61819
1.2008718,127.53893
1.3240439,135.50441
1.3014374,134.58734
1.3819919,137.62311
1.333898,135.97699
1.4441792,141.01929
1.3201828,145.22601
1.4034402,148.0126
1.4369498,144.99347
1.3585298,144.31229
1.3678985,139.40271
1.4046855,143.74522
1.3437284,142.65855
1.3086748,148.58263
1.3153398,143.691
1.2576362,142.02036
1.3035072,140.2233
1.1880612,142.85341
1.1842418,138.95103
1.0930212,139.01056
1.1977698,138.0792
1.1549511,137.307
1.0719398,133.14684
1.0336853,137.18028
1.0249553,129.27832
0.9374023,127.72909
0.97729784,126.63569
0.92004037,125.78739
0.96317965,123.895454
0.90173644,119.695335
0.873549,120.74438
0.90822375,119.025215
0.8485871,114.50872
0.8576746,114.198586
0.8911576,112.306984
0.93406415,108.2456
0.89765745,105.58812
0.74869096,109.908676
0.7281618,108.12206
0.84335434,102.41532
0.7065805,96.24283
0.6591192,100.133316
0.5740974,101.792046
0.6559275,93.713005
0.5337029,92.87102
0.55799127,92.538124
0.547249,92.54526
0.41079956,89.14434
0.3727068,88.23748
0.5217033,85.78586
0.27819383,81.21139
0.39603692,82.216995
0.336143,79.63226
0.3871044,76.91894
0.28579497,77.94497
0.37288052,70.36931
0.3086833,73.74987
0.36609247,73.88101
0.32732734,71.21055
0.40307635,66.9152
0.3454109,67.785034
0.2923434,62.664658
0.2892185,65.8561
0.34183705,62.98615
0.2706151,65.45162
0.06666801,65.96433
0.15662894,62.805256
0.1110087,65.706436
0.10157623,64.37066
0.11325995,60.065792
-0.07335459,64.82399
0.026166676,64.56115
0.016220206,66.8189
0.05008152,67.99361
-0.048293944,70.538475
0.116234034,74.772835
0.051315222,76.41409
0.11534835,76.27522
0.2029993,79.73155
0.25346053,83.42653
0.31645948,88.21225
0.41052532,86.66861
0.52652496,92.94033
0.6363168,95.91664
0.6728978,97.871025
0.830955,100.39766
0.8229008,106.991196
0.9688545,107.94704
1.0179989,112.58474
1.1210902,115.10463
1.1415422,116.40871
1.2305837,121.35001
1.2744069,122.97848
1.3695419,129.8251
1.3241209,134.79071
1.4480659,134.36658
1.4278637,136.10727
1.4063269,134.64175
1.5116055,138.52193
1.4852053,139.06245
1.5110878,141.4353
1.4995437,137.44783
1.53325,142.99916
1.5645037,145.03806
1.5055685,144.25732
1.3909256,143.01715
1.4157603,141.50015
1.4821608,146.25249
1.4170681,146.95163
1.4334779,145.17259
1.3394405,140.9982
1.3168807,141.8321
1.3001759,144.7526
1.3412491,139.533
1.2396333,136.4195
1.2986062,133.48787
1.27182,130.80714
1.2793381,132.13718
1.2218714,131.9011
1.2432851,126.462395
1.2309672,126.26655
1.1189432,122.13404
1.2120124,119.13878
1.1056483,118.07176
1.0456386,122.08605
1.2045279,118.720764
1.0507132,113.98408
1.1270076,116.66385
1.0702081,106.09977
1.1389878,111.275734
1.0583022,109.78977
0.9438023,105.741135
0.9401973,102.708755
1.0120249,103.555214
0.96966124,102.11632
0.91221464,101.011345
0.8882239,96.325745
0.7865634,97.812614
0.84596556,94.17786
0.701134,94.99352
0.7045004,96.97482
0.74792814,87.34479
0.69406295,86.14653
0.75088483,83.2791
0.6563524,82.34651
0.632636,77.8692
0.6707539,76.586975
0.6338674,76.0388
0.6446649,76.4686
0.5437991,74.44872
0.6120907,68.67435
0.6335607,72.618416
0.66595155,68.24608
0.542284,68.54682
0.77103025,65.84022
0.5792627,65.044106
0.60952914,66.47504
0.44618538,61.57728
0.46514663,62.22768
0.46451902,64.76479
0.46175128,63.228607
0.45380786,62.987053
0.4269118,67.836174
0.41135055,63.723843
0.24854109,61.393246
0.3354924,70.564064
0.32648942,70.16175
0.35135952,70.19945
0.29474914,71.191864
0.2996558,70.32284
0.3381412,79.557365
0.4278491,79.31262
0.53378487,78.64998
0.5646143,84.27078
0.7681856,83.01689
0.71399045,90.80836
0.86964387,93.75942
0.8907027,97.10907
0.97894377,98.53924
1.111525,103.500656
1.2182162,106.66978
1.4044626,111.96167
1.4007758,111.00485
1.4146903,118.21509
1.5289056,121.25479
1.6196768,120.86388
1.6852355,124.83371
1.6860716,127.67115
1.7799187,130.4924
1.7696763,134.19197
1.6807667,136.17322
1.8470794,140.78618
1.7709639,136.9849
1.7888228,139.96399
1.8006575,139.47997
1.8110938,141.13647
1.8364582,144.34622
1.8724948,142.25082
1.7450329,145.69395
1.8210894,143.66425
1.8489254,146.19855
1.7322971,142.69177
1.6973809,145.40369
1.6939533,142.57262
1.7612587,141.07733
1.665509,141.83536
1.6890548,141.6354
1.6378412,136.40437
1.6495568,136.41977
1.593717,136.05923
1.6431718,131.43742
1.48513,129.22476
1.4669467,129.17715
1.4445045,129.47824
1.5161599,127.10351
1.5069759,121.976036
1.446143,122.496796
1.4459696,121.40076
1.4242735,120.14565
1.4339632,118.6752
1.4275724,118.39312
1.3748609,113.33281
1.3680853,113.626274
1.3941475,107.03672
1.3076662,104.36601
1.4283528,103.12013
1.2996311,104.00737
1.3008137,102.924164
1.3131187,102.24381
1.1893375,98.462364
1.1246648,98.23028
1.1286459,99.46195
1.1262943,92.09327
1.0666327,90.223915
1.0539924,90.54611
0.97278106,87.489784
0.90312415,89.01673
0.9166922,82.34955
1.0091829,85.630745
0.91271293,75.245346
0.9581962,80.41329
0.90637666,78.454254
0.900333,75.22699
0.82798004,71.7225
0.9213182,70.96744
0.90646046,72.97874
0.8722882,72.464
0.92677945,65.96513
0.89418316,66.5559
0.84631544,64.93315
0.800215,64.54419
0.79087347,64.926125
0.7319625,63.149952
0.7493568,60.926453
0.739998,64.12359
0.69562143,65.97671
0.6467615,66.00386
0.65173376,66.39177
0.6018379,65.82568
0.46084246,68.78677
0.5524841,68.05691
0.5609549,69.90971
0.6145329,75.05667
0.5385267,73.716736
0.63437164,75.69189
0.7628248,77.68353
0.7928173,81.06733
0.84751105,82.15388
0.93729174,84.03637
0.96702904,90.89875
1.1127753,93.89601
1.1908172,96.76502
1.3337814,100.98532
1.3351008,99.50583
1.4278456,107.48028
1.4833921,107.50247
1.52381,113.684944
1.6999675,117.84652
1.7435529,117.40623
1.7004746,124.08605
1.7889268,125.81841
1.8424263,127.302185
1.8620455,129.71678
2.0287497,131.33606
1.9425159,135.86711
2.0029604,139.96391
1.9503187,137.669
2.0482237,140.62167
1.8543802,144.02017
2.0110104,145.91629
1.9632145,141.90477
1.9565479,143.25026
1.9301028,142.45557
1.8999425,144.12636
1.9829757,144.34203
1.8686309,144.79442
1.8626106,144.93568
1.8142103,143.80882
1.779014,143.44595
1.7277808,140.88016
1.7729429,136.36743
1.6027427,135.11314
1.6644676,131.99161
1.6168057,136.44624
1.6641133,131.02536
1.5576812,131.6828
1.5451956,129.8393
1.482575,127.06942
1.5498393,124.12262
1.4332634,124.72065
1.5299143,119.51259
1.420589,120.13227
1.4828988,119.5069
1.4435291,117.54441
1.3788341,117.44306
1.375039,114.4177
1.4124664,112.04179
1.4192139,110.30003
1.3848317,105.070595
1.3761543,105.80913
1.2977256,102.27736
1.2292669,103.555565
1.2013952,98.12388
1.2277853,95.84473
1.1090984,93.95615
1.0789101,95.94097
0.9983212,92.49458
0.9904224,91.65091
1.0159626,91.2214
1.0153672,88.809715
0.96715105,84.97233
0.8972017,82.69576
0.88002205,80.67901
0.7665338,80.4434
0.89536077,76.30997
0.84412366,78.21745
0.84272146,72.93382
0.8720765,70.942505
0.817554,71.67051
0.84601253,69.95116
0.9060961,70.74106
0.7467823,66.45537
0.8557341,61.8059
0.78210163,67.6765
0.742341,61.249565
0.67577684,65.80347
0.6682947,65.04135
0.6136244,62.12211
0.57962984,65.099625
0.4964414,62.696938
0.45389053,66.02096
0.5004621,64.07861
0.5115865,67.94105
0.45775026,63.909286
0.41477758,68.598465
0.37483338,70.21829
0.4274427,77.76689
0.4069349,74.67587
0.4898908,75.679756
0.55494803,79.53285
0.59327346,81.93856
0.7771773,85.99134
0.8040854,89.902245
0.839667,92.72178
0.99307907,94.947105
0.9728961,94.619286
1.1545169,102.12542
1.2066585,106.66446
1.2455635,108.30159
1.3682314,110.16095
1.3176723,117.217316
1.475615,117.9455
1.5883644,120.75933
1.4623793,126.148254
1.6137172,126.05643
1.6319268,132.38437
1.6537147,133.46219
1.7148169,135.35403
1.6463968,135.17934
1.7385999,138.88559
1.7740064,136.7647
1.7860565,140.6527
1.7093087,142.67673
1.7489495,142.21236
1.7446501,145.0914
1.6716311,141.793
1.7711918,143.81894
1.7166922,148.88051
1.6494896,143.61061
1.6173782,144.7682
1.624249,141.52428
1.5788256,141.46765
1.5323237,140.50665
1.5386652,141.45189
1.419548,139.02731
1.4577159,137.264
1.410915,134.68925
1.3479004,134.50186
1.3450541,132.20013
1.273746,133.51608
1.2151577,128.93854
1.2374718,127.24278
1.2704048,126.1404
1.2580913,124.79947
1.1521044,123.006226
1.1741071,120.54208
1.2674681,117.05947
1.143465,116.31013
1.0722305,115.15459
1.09016,114.28809
1.0312809,110.30108
0.9938456,108.889435
1.050563,109.9851
1.0242658,104.38358
1.0753953,105.91013
0.9292795,105.618195
0.80473447,100.8992
0.8237934,99.14832
0.8418057,96.78125
0.7262741,96.14345
0.68234706,97.553604
0.67675847,90.808685
0.64020574,90.12382
0.66678005,86.52851
0.5687786,84.546265
0.6911875,88.30825
0.4918125,82.33322
0.5492428,79.41823
0.52165353,78.2423
0.5149271,72.78666
0.54605836,74.55739
0.50541717,69.390755
0.44981518,69.82874
0.49599373,67.8855
0.4943358,69.9335
0.49893624,63.825375
0.37262258,70.94457
0.40843216,67.04705
0.36288053,62.28345
0.36674234,65.95136
0.24922962,62.781845
0.25337645,64.755936
0.20514323,62.619217
0.20105144,67.382416
0.15731487,64.59483
0.0512923,65.37354
0.09408228,65.63359
0.07688336,64.085304
-0.016459763,70.20745
0.023443883,69.198875
0.102097504,69.31224
0.13015209,75.7793
0.15967585,78.05287
0.23303841,79.87713
0.3404919,84.96669
0.37865654,87.7429
0.4776958,93.07013
0.43042624,95.71289
0.7250566,95.86351
0.6670542,95.013275
0.894161,101.989235
1.0152366,110.59564
0.90879977,109.470634
1.0603083,112.13168
1.0971503,114.88562
1.0773863,121.501015
1.1809402,120.69847
1.2306832,125.421646
1.3546264,124.407646
1.2208636,130.62038
1.4005331,134.32838
1.3866495,134.13745
1.4382039,134.34174
1.4428147,141.4753
1.3765737,144.28282
1.3993179,142.777
1.4336115,140.31863
1.3219172,144.7337
1.3712349,143.49707
1.3163644,148.93736
1.3441389,141.7497
1.3441006,147.8533
1.297841,145.31702
1.3584172,144.2691
1.281516,144.54459
1.3395141,146.42322
1.2218287,144.94905
1.2024554,143.03618
1.1375201,141.81056
1.1355953,140.49944
1.081329,135.49162
1.0672102,131.62292
1.1006856,133.96373
1.0547596,130.96394
0.9725857,129.34029
0.986383,125.197975
0.91865015,129.04268
0.9408625,120.97829
0.97083616,123.05589
0.87315613,117.59581
0.9984745,117.75724
0.88176745,113.23478
0.95621556,112.267845
0.7924556,112.48658
0.90457505,105.98163
0.8486887,106.98728
0.74384457,107.07535
0.8074403,103.5891
0.79084927,102.18646
0.6723739,99.03119
0.6519272,97.57974
0.5717164,93.03535
0.5843963,93.65985
0.51778114,98.49739
0.53963774,88.926506
0.50277025,90.89367
0.34840325,86.64332
0.3815294,86.33993
0.31744602,81.442856
0.35859683,83.99722
0.37421575,78.597374
0.42896292,78.4306
0.34186852,75.46058
0.39351973,79.52479
0.349764,76.38029
0.3721869,70.90021
0.34697545,71.60662
0.3105654,68.27876
0.31806788,64.42576
0.28942394,65.17826
0.2587899,65.776054
0.26329812,64.39979
0.16782281,64.64641
0.20655105,66.80804
0.10247454,62.83965
0.09133336,60.844353
0.008969514,67.516014
-0.00410567,65.59397
0.0138644045,63.885487
-0.061291512,66.857574
-0.032752503,66.31038
0.024646688,63.52553
0.019219816,66.68102
-0.010045377,71.89078
0.035810307,72.117714
0.06312608,72.146324
0.17838791,72.91118
0.2483416,80.64655
0.17968844,81.46673
0.27802715,85.116356
0.36984575,88.595085
0.3730094,89.62424
0.610727,96.61411
0.6486156,98.89244
0.7644871,99.00093
0.8167488,108.48791
0.8851296,105.34613
1.0417801,118.28763
1.0334285,112.10794
1.1640903,122.12256
1.1329259,121.19217
1.1761775,123.37589
1.3013682,125.24537
1.3042004,130.27832
1.2999457,134.1337
1.3200357,135.3663
1.3310893,140.6961
1.4114664,138.73746
1.4003472,139.30081
1.4889281,139.91425
1.4936405,141.3992
1.4412394,145.68692
1.4961028,142.3985
1.4103767,145.2884
1.3731053,146.2482
1.3657713,142.12495
1.3280835,143.94437
1.2553022,145.45421
1.3307161,148.24199
1.2749972,137.10675
1.2274082,140.48775
1.2276707,141.43929
1.2164738,140.25218
1.080115,135.01376
1.2267238,136.60332
1.1383263,132.89127
1.0964656,130.22128
1.1282864,128.03833
1.0611334,127.7013
1.0325443,127.18231
1.0406209,123.597725
1.0834407,121.588875
0.92557365,118.62567
0.9816877,118.25818
1.084629,116.22049
0.97939783,117.38476
0.8792134,114.28662
0.9344312,110.097275
0.95319325,107.45502
0.8913958,109.10832
0.8985886,109.428566
0.8460826,102.79554
0.95324236,104.82239
0.8202723,101.04001
0.7564779,97.91285
0.7161943,96.888016
0.6429316,96.6875
0.6256143,91.207954
0.6755105,93.07639
0.60061175,91.31523
0.6110733,87.60704
0.5492909,86.04158
0.5181016,77.80057
0.5219592,81.49956
0.46066922,83.17287
0.57802075,81.766014
0.49440664,75.28825
0.43263108,75.9386
0.493891,73.123535
0.47416118,71.06069
0.48509234,71.08461
0.616313,70.14907
0.5000751,70.669464
0.48648047,66.49151
0.50577086,66.239716
0.48342168,68.66366
0.53461105,65.25425
0.36439252,57.843204
0.28821114,62.79991
0.22972538,66.137955
0.37173796,66.38497
0.25071883,64.40485
0.24100317,62.99004
0.15340976,62.54588
0.16099966,64.3002
0.19117393,69.49767
0.24500401,71.25999
0.1676043,69.89571
0.21198782,75.78577
0.34398934,80.51957
0.30710667,76.82613
0.4130363,83.08953
0.47054622,84.05901
0.57179,87.34324
0.69749707,89.70306
0.6947166,95.690216
0.84657466,95.16624
1.0461074,98.137184
1.0625763,107.267044
1.1290361,108.16232
1.26843,111.187874
1.2998675,113.811264
1.4266349,115.73597
1.3912661,118.92348
1.3758929,126.6379
1.4581488,124.51762
1.5777764,133.49648
1.585472,134.73778
1.5948178,134.03577
1.7135869,133.96228
1.6614807,139.15714
1.65023,136.49815
1.7041172,143.68773
1.6095703,141.958
1.6185255,146.00902
1.6958008,142.77277
1.7396996,144.64175
1.7178276,148.8976
1.7319381,145.56548
1.6836841,147.12436
1.5912195,147.26529
1.6046637,141.94539
1.6347524,139.46617
1.6174549,144.27864
1.6558162,139.13614
1.5317032,144.11127
1.5422837,136.53336
1.4582975,135.59021
1.4782912,133.03743
1.4253416,133.44049
1.4253235,128.3844
1.4968506,127.67987
1.4625174,128.91238
1.3646493,125.43639
1.3329647,125.99261
1.4154598,121.71435
1.3013644,122.412186
1.239139,120.66608
1.2865008,116.81202
1.3936467,114.604744
1.2536039,115.17308
1.347221,110.63795
1.3566619,110.246635
1.3159506,104.69726
1.2403355,108.122955
1.2510382,104.65869
1.1178699,103.61858
