ppg,abp
0.9727288,84.4396
1.1975179,89.13861
1.2959905,88.35721
1.3130524,87.11239
1.4068778,86.741905
1.4077622,92.22038
1.5053345,94.50063
1.541937,103.11097
1.4956621,99.98791
1.6619288,95.54104
1.6424034,95.06585
1.6657085,101.61437
1.7081386,97.215355
1.6971672,99.33735
1.7675912,100.99402
1.7826988,104.37335
1.6775776,101.37839
1.6389544,102.63322
1.6375781,101.79841
1.761731,99.04531
1.5725452,99.90521
1.7791127,96.73263
1.6339465,102.37747
1.5587233,97.009834
1.6457119,102.60215
1.5192692,102.960014
1.6181247,99.63735
1.404871,97.738914
1.4375814,100.83139
1.3095896,99.63111
1.4357826,96.98019
1.306025,97.94294
1.359426,93.71506
1.3499485,90.87267
1.3506278,95.900734
1.3412535,96.39954
1.4143256,97.61065
1.380088,93.436806
1.2715814,86.12446
1.3766916,83.95116
1.3200874,86.97458
1.3349637,83.19289
1.1878825,90.034805
1.223217,86.89163
1.2603958,87.623116
1.2070448,81.94623
1.1113478,83.04074
1.0106299,85.51543
1.0355562,84.26712
0.87998503,83.01497
0.9686709,80.97742
0.9528069,83.148346
0.94972104,75.09832
0.81647706,78.88212
0.82868236,79.09847
0.86021596,75.53748
0.85601926,76.68959
0.8338313,69.66279
0.80721927,78.59235
0.8247487,71.86121
0.81331104,75.26161
0.75919014,69.511665
0.85408,68.059944
0.7522411,72.5216
0.75060487,71.05931
0.7904142,68.74123
0.7286964,68.95016
0.7600072,69.011024
0.67674565,67.063194
0.6245668,70.74991
0.6277639,68.96475
0.54804826,68.42257
0.53558344,71.03604
0.42554724,73.28515
0.49061805,70.09419
0.43500087,69.48058
0.5129847,72.48903
0.563685,69.48934
0.52909416,74.61925
0.60951316,76.40044
0.67612195,73.55075
0.7280482,75.368195
0.8907896,80.465996
0.8868468,81.191315
0.9816305,81.15981
1.1037221,79.06882
1.1949126,84.05259
1.2796321,87.75096
1.3969674,84.35237
1.4649628,89.52503
1.5734334,89.520226
1.6902323,92.92779
1.7047113,96.22853
1.7386659,95.574776
1.7527659,98.11863
1.8360138,98.17602
1.8787528,96.60044
1.9449061,95.98501
1.9235609,100.71152
1.9173069,99.46032
1.9281664,98.12043
1.9606308,106.33751
1.9446627,103.00193
2.022634,100.290146
1.9309542,103.338585
2.0236952,102.23117
1.9166234,98.892456
1.9633203,101.66222
1.8616502,101.501755
1.9341722,103.116684
1.8112127,101.19148
1.821179,100.589714
1.7439017,97.615616
1.8216414,102.7512
1.6634316,99.80642
1.5945944,99.88174
1.654109,94.8717
1.6210445,93.76563
1.5129868,99.08857
1.5490975,95.199234
1.5669755,99.85529
1.5722257,93.91972
1.5255247,90.47019
1.4884945,88.407234
1.4670655,88.22436
1.4844874,93.01827
1.4311405,88.803474
1.4680401,87.77043
1.3719817,88.77707
1.4148145,89.8035
1.4202765,92.046326
1.3614339,87.00169
1.2903361,82.442795
1.2194637,87.166725
1.2856972,83.25962
1.1667113,81.92729
1.0956432,81.44641
1.0856779,78.75142
1.0623229,77.69715
0.99891025,78.087166
0.9482417,76.66935
0.95306706,76.76051
0.9948645,79.48669
0.9663028,78.96225
0.8928956,71.46712
0.9204759,72.08519
0.8797641,76.77255
1.0039722,71.84972
0.9307596,72.37964
0.92479104,70.230705
0.85044605,70.163895
0.88943803,70.80558
0.9078702,68.06017
0.80891067,63.010162
0.87433046,69.29412
0.71916705,68.0501
0.7014824,69.65786
0.6481439,71.860466
0.7354432,65.53959
0.55800265,72.633
0.5181762,66.711555
0.5788495,73.35355
0.5460577,68.03682
0.5479332,75.901245
0.5492367,73.50553
0.4904658,73.037125
0.61507356,74.41152
0.5685428,73.91971
0.6879196,78.290535
0.80497885,83.08886
0.818027,79.998535
0.89419645,83.826035
1.0756607,81.15692
1.1599088,84.556
1.259658,82.12961
1.3672166,82.330795
1.4603175,84.06023
1.516613,92.16013
1.6278805,87.30487
1.7045782,91.401955
1.7316107,93.61749
1.8160179,99.59733
1.7861737,96.09575
1.8075726,98.35475
1.8998692,94.80011
1.8112546,99.82885
1.8651112,104.00944
1.9180075,95.860306
1.8705809,97.46831
1.7797298,100.952065
1.8810549,99.09675
1.9079204,99.511
1.8918463,97.30147
1.8228629,106.04322
1.7571723,105.31911
1.7459239,99.276146
1.7717053,99.611885
1.6729252,99.79704
1.5578669,96.896935
1.6400037,101.2853
1.6113747,94.46916
1.5835822,97.50659
1.6175416,100.61077
1.4941666,96.27354
1.4409536,94.338615
1.4999559,98.04104
1.3862042,95.42003
1.4190034,95.79991
1.3745742,100.07329
1.3738018,94.19502
1.3766875,93.7087
1.3366079,92.77131
1.3004168,91.52182
1.3221878,88.40846
1.3220205,89.86681
1.2499785,89.74106
1.2702463,87.61386
1.2339691,85.84941
1.1774851,86.25959
1.1241024,82.054115
1.0635225,83.133286
1.0497073,81.33654
1.0263695,81.848206
0.9645923,83.62586
0.95441353,83.37273
0.8729397,79.88752
0.7670809,79.231674
0.8342607,83.36044
0.7261175,77.56936
0.6221392,72.38497
0.70197076,79.99174
0.6941865,74.31988
0.7424836,69.255196
0.73295724,76.25828
0.69571096,70.217026
0.65112716,70.9698
0.67205566,68.70267
0.6696002,72.2697
0.6115208,67.81949
0.64010197,71.87323
0.52167976,68.34299
0.52544427,72.19212
0.4816815,68.134026
0.42115676,68.43531
0.37062037,63.1442
0.36948285,72.82669
0.38413453,69.12625
0.29631367,69.74812
0.23917376,70.1833
0.27167603,70.72305
0.23657744,66.89252
0.30073097,68.52463
0.24130413,73.163994
0.32771423,73.380684
0.34466657,74.213745
0.48998356,79.17961
0.47511262,78.40174
0.5474909,81.702446
0.7113249,78.46393
0.7366357,80.10887
0.7774602,84.47847
0.9996631,84.98228
1.1053975,89.93759
1.1973983,82.699776
1.2450259,89.46947
1.2261147,88.9842
1.2890024,94.94696
1.344376,90.37255
1.4473995,95.25597
1.504686,97.662605
1.5017712,94.02642
1.605245,95.52804
1.5508944,99.2202
1.5956422,101.435005
1.6433253,101.61924
1.5906523,97.868454
1.6102483,98.54723
1.5681945,101.95893
1.53555,103.95595
1.4533741,100.56986
1.5176865,100.41481
1.4793495,106.73368
1.5042328,101.58278
1.3719823,102.782715
1.4142314,99.333664
1.3089415,97.566986
1.3472453,100.50171
1.3345381,99.41219
1.254436,101.39196
1.2249645,100.49064
1.1990421,95.558075
1.1696509,98.75235
1.1919773,92.97102
1.0928388,93.235306
1.0333796,91.66379
1.072493,93.11992
1.0649188,90.37787
1.0555577,89.281944
1.0457985,91.74837
0.94428205,90.85116
0.96070343,92.67393
0.9245225,89.83568
1.1174207,88.46839
0.9721539,84.992424
0.931425,90.74284
0.98941064,88.65558
0.8278666,84.33995
0.8290613,85.35119
0.8006416,85.73333
0.6665199,86.85979
0.67502666,78.58828
0.56038445,77.634224
0.6164646,79.59636
0.5404021,74.45243
0.42404944,77.95367
0.43342882,76.41393
0.4598341,82.59883
0.3813983,72.83989
0.34485903,78.62786
0.4047061,69.908714
0.3926302,70.26621
0.44271293,73.41322
0.45549774,73.668564
0.43552542,70.67258
0.37790948,69.33823
0.32811257,70.04263
0.37590703,72.47013
0.2933995,68.98208
0.3114076,66.88026
0.34308797,67.667114
0.2577656,65.4612
0.09962121,69.34475
0.06322359,71.60912
0.063170575,69.92711
-0.031172533,71.555725
-0.0060057053,68.060425
-0.09109739,70.10248
-0.069218926,74.359215
-0.017898435,73.84708
-0.06862026,76.0339
0.03520307,78.05079
0.039179217,68.663475
0.12589233,77.12645
0.23559347,81.27271
0.29351613,73.40238
0.4242874,78.63426
0.51045275,83.05352
0.6001291,84.07869
0.7031679,85.47253
0.7935772,84.51309
0.8659167,89.685295
0.87813586,91.66385
1.076093,88.1008
1.1204691,93.00936
1.1959065,95.11965
1.1588603,90.53209
1.1844077,96.144264
1.2086769,98.28748
1.3383611,95.90755
1.3719959,100.80485
1.332859,98.99907
1.2858986,102.67033
1.3026863,100.38419
1.326067,103.02864
1.3712839,98.414444
1.386504,98.42697
1.3264874,101.42063
1.4235749,102.411865
1.2836739,103.48029
1.3139935,101.19203
1.2672657,102.30897
1.2786629,100.2238
1.1145906,98.87835
1.1583847,100.89193
1.128093,93.50167
1.0783958,99.88397
1.0763012,98.66152
1.0792757,99.867256
0.9795055,98.920265
1.0313936,100.39618
0.9652605,95.26497
0.9995691,94.58046
0.9721353,96.015434
0.87253624,94.268
0.86687976,92.289055
0.8879326,94.635216
0.8653438,89.39612
0.9311156,91.715744
0.8911248,90.29333
0.79738957,92.404015
0.79249233,88.3586
0.73593235,87.45423
0.8764937,88.95432
0.704955,85.54907
0.6569122,84.885666
0.6734844,82.24115
0.63821006,81.61441
0.5980119,81.417465
0.5843825,85.40444
0.46818188,80.736855
0.5095955,83.00884
0.40126857,79.354836
0.3164786,78.487335
0.38803753,76.75276
0.36063653,77.44159
0.39609194,73.22732
0.42541814,79.25592
0.3371646,79.63349
0.3424644,71.787895
0.38356823,67.42531
0.3699784,73.67157
0.2794734,69.9317
0.37206542,71.191986
0.28580174,68.73058
0.22352687,68.83607
0.20036358,67.274734
0.2814463,64.2444
0.1784899,68.49535
0.17202136,67.03716
0.13010336,70.44088
0.033786062,71.36314
-0.047694817,70.36854
0.01400321,70.482704
-0.0003179291,72.43961
0.023603758,71.3143
-0.057301722,68.85426
-0.050907686,77.23982
0.026436156,77.49727
0.091868825,75.52943
0.21006776,79.48091
0.22340271,69.62837
0.26877022,79.0651
0.4558583,79.158554
0.46651694,81.75845
0.5933769,79.923225
0.7290959,84.70114
0.8519888,84.36569
0.9711357,87.14927
1.1227008,88.486755
1.0991668,85.32836
1.1469588,89.80921
1.2095875,92.19273
1.3120074,90.749016
1.3237493,93.91592
1.3391372,93.0863
1.4118972,95.63783
1.39159,101.66789
1.4346644,96.63902
1.5521889,101.01875
1.5532161,96.83674
1.4861774,99.84773
1.5203674,100.79405
1.5765526,102.838425
1.477822,102.189156
1.440885,98.724236
1.4357665,102.39171
1.3819015,103.06038
1.4728123,101.90853
1.3929416,101.40557
1.3872808,102.02784
1.3200003,99.423965
1.3101541,99.0022
1.3032179,100.624725
1.3617517,102.701515
1.1917549,97.249695
1.2870324,99.44185
1.2083739,90.43968
1.1260432,94.4034
1.1447953,96.7832
1.140109,95.64219
1.1056105,97.17269
1.1631877,92.941185
1.0872893,94.03131
1.1213974,89.57119
1.0589783,91.84171
1.1091213,88.18587
1.0503333,92.802025
1.0147883,82.60343
1.029372,85.32848
0.9764988,90.17473
0.96683025,81.26001
0.9133778,89.79364
0.91224915,81.68627
0.83104277,82.66464
0.82957226,77.98474
0.71236604,79.768135
0.7567613,77.51703
0.66195655,80.60296
0.7599646,80.03605
0.65376586,74.92625
0.5518489,79.0403
0.61843634,78.31563
0.63339716,73.45094
0.5786827,76.45055
0.54016834,70.7043
0.6106287,72.93378
0.58899456,68.32569
0.6428502,72.33807
0.6491617,68.87653
0.58453506,74.481575
0.595623,72.81818
0.56313443,69.42661
0.57231015,65.77542
0.45239508,68.182785
0.46309456,65.727905
0.45186207,71.42183
0.35796818,68.730644
0.33505124,68.596794
0.3208221,69.680595
0.31888875,68.75746
0.28752583,71.86432
0.2822184,69.697205
0.29077646,71.4953
0.37122792,69.99986
0.3375898,73.09317
0.42814904,73.29215
0.47493824,75.147964
0.42409274,75.12432
0.6244843,77.36984
0.7467785,77.533104
0.82537067,80.13235
0.93640053,84.66527
1.0241995,84.495384
1.0765115,80.91508
1.1594006,83.20794
1.2498655,88.30371
1.3923888,86.161674
1.4427246,93.98258
1.4940258,92.42524
1.6163532,90.13107
1.6582818,96.70129
1.68186,98.04636
1.6605175,95.35933
1.7133849,97.61466
1.8272971,98.476074
1.8909212,99.1998
1.7894548,98.13454
1.8199784,102.74798
1.7818458,104.30296
1.7488649,100.170166
1.7321874,101.52778
1.7162731,98.384674
1.7216655,103.51713
1.7633218,105.93382
1.7146778,105.905396
1.7285501,100.69567
1.7377164,103.75979
1.62697,100.28434
1.5481714,97.22162
1.6794895,95.651474
1.584829,99.49289
1.5507311,96.94487
1.5759915,99.90671
1.4927053,96.558914
1.4702692,97.33183
1.4457626,96.33487
1.4302504,92.62475
1.4247737,91.816765
1.5263977,90.76101
1.4152735,88.99068
1.4524658,90.773506
1.4014238,88.64349
1.3859081,88.142654
1.3580983,89.87578
1.3320011,86.1583
1.3696009,90.43257
1.2742643,91.46916
1.2530756,82.59208
1.2634599,80.933784
1.2369043,84.377655
1.0858063,83.60241
1.0640725,78.56972
1.0630485,86.58632
1.0193887,80.268745
1.0118921,75.19375
0.88107365,75.89792
0.989699,79.78141
0.9402477,76.63161
0.8672761,76.68784
0.99370253,74.9719
0.86550987,74.530205
0.8579047,71.48792
0.8544831,71.10169
0.7879139,73.80077
0.8618679,75.450455
0.84005195,69.70623
0.9034126,67.6038
0.9117069,74.30581
0.837109,69.411415
0.8934608,67.9293
0.8275507,66.36327
0.730672,67.87475
0.71128726,72.55556
0.63798773,71.18636
0.6043267,64.696495
0.6107536,69.483055
0.6143849,67.62024
0.52379364,73.61603
0.5615529,70.20714
0.5250925,69.89905
0.59015393,71.339485
0.61179674,75.94902
0.5597049,74.58723
0.624123,77.26228
0.7471967,70.495056
0.8862443,80.012314
0.79776376,79.83771
1.0514294,80.25922
1.031314,82.23667
1.178299,79.84858
1.3458215,83.49709
1.3823854,84.32112
1.4294037,86.05724
1.5979644,89.2988
1.5807853,93.95981
1.6955034,92.58467
1.741274,90.075325
1.7158428,92.47907
1.7918346,93.58889
1.8688133,93.47959
1.8940824,100.10212
1.9272043,105.17955
2.0356188,96.373924
1.9228531,99.624825
1.8359057,100.85534
2.0034046,104.60173
1.8770673,103.85445
1.8959837,96.359535
1.9224601,103.830025
1.9469913,101.2737
1.924392,105.39089
1.9046619,105.916565
1.8451792,99.66536
1.8674972,101.53772
1.8172385,97.799416
1.7394168,101.08947
1.7659132,102.55116
1.7354797,100.53406
1.6393621,100.65589
1.6202911,99.25205
1.5972737,97.4151
1.5687685,97.92995
1.571095,94.02754
1.5082523,92.06841
1.5297861,95.60161
1.5399325,93.78935
1.5579147,93.42812
1.4802155,86.92232
1.5497416,89.87275
1.527772,91.168594
1.4893829,87.26551
1.4133062,92.06582
1.3754739,90.05858
1.3254441,85.57534
1.4233638,84.1194
1.2441199,85.06245
1.2047236,85.97142
1.2398623,83.29262
1.1600232,80.085
1.112205,86.88818
1.1157804,79.416534
1.106473,76.59564
1.0110209,79.91917
0.96566194,76.873245
0.99568564,77.59594
0.87729585,77.47018
0.94693696,76.69189
0.85476506,72.79709
0.9704646,75.411285
0.859392,70.7859
0.84177256,74.04318
0.88490933,73.32719
0.8631855,72.881424
0.8784171,69.21227
0.8375673,68.92582
0.734694,66.089645
0.76166546,71.57499
0.7593159,68.688255
0.6837716,71.91999
0.6255724,69.11841
0.6958318,65.604256
0.5966908,66.41405
0.49265704,67.62911
0.50575715,72.48319
0.44500038,67.27866
0.45487458,71.48
0.57484245,68.302124
0.48755836,72.83337
0.518951,71.23978
0.50950307,75.32109
0.58035827,71.61028
0.6342758,75.55165
0.6630566,81.31113
0.7554741,80.501816
0.915122,77.24651
1.014885,80.70853
1.0405719,86.43438
1.1604645,85.0725
1.2414317,86.64239
1.35069,84.45269
1.442672,91.00724
1.5234427,88.886116
1.5770458,89.51974
1.6564802,94.09703
1.7579279,95.1488
1.6508269,95.5105
1.7440306,95.988205
1.7929184,100.85981
1.7425133,96.93193
1.9279575,96.53344
1.7537478,96.9705
1.7531006,103.6992
1.8572177,95.7364
1.7621284,102.546585
1.7578585,101.53464
1.7665076,97.95945
1.8293298,104.70679
1.7685919,104.58447
1.7107716,99.97393
1.6865238,98.64708
1.7064185,96.46366
1.6003338,99.66019
1.5027306,101.07851
1.5029187,100.70492
1.5234207,101.37739
1.4898196,97.10865
1.3206475,99.85449
1.3872337,90.41445
1.3665842,96.45104
1.3709688,97.724396
1.3054215,97.11348
1.3525232,97.90743
1.2870319,94.5793
1.3506936,91.804535
1.2566777,90.412605
1.2299451,88.32316
1.2599692,86.92775
1.293625,91.58082
1.1975394,89.63626
1.1319757,90.12822
1.1397462,84.020325
1.0922967,85.57341
1.0514741,81.52861
1.0889103,82.981766
0.99154717,80.324135
0.9267796,85.58466
0.8142012,81.883446
0.75381017,80.45131
0.7180971,79.85691
0.7764818,76.91878
0.7428942,78.16728
0.6606951,75.89903
0.59796506,77.79765
0.67041355,73.64239
0.6459163,77.85402
0.5889045,78.04546
0.55351037,68.44819
0.60368985,74.19323
0.6277953,72.875946
0.5894796,69.30249
0.4959371,69.34063
0.56590164,73.84149
0.5561997,70.92119
0.5566108,71.48388
0.44087535,66.337105
0.41400665,67.724075
0.39061493,70.86344
0.34956783,69.146645
0.35606647,69.4805
0.22421193,69.91455
0.13346678,69.98888
0.1536908,67.691795
0.12209577,74.14397
0.12282692,75.48003
0.13336466,71.52668
0.20629005,72.45886
0.23545496,75.08982
0.31048688,72.54088
0.3759148,73.38177
0.41924164,74.753365
0.4807455,78.421875
0.6284928,77.27402
0.6035424,88.16443
0.78369945,83.591354
0.85486126,82.264824
0.8863363,86.977776
0.98445666,88.47957
1.0506663,86.847725
1.16543,94.75435
1.2813253,92.5476
1.367843,94.688866
1.4213933,93.173874
1.3218917,95.149605
1.4313486,100.45788
1.4281297,98.398125
1.445471,101.075554
1.4880464,97.60953
1.4103607,103.81262
1.4773992,103.667046
1.5427024,101.91357
1.4675417,100.69282
1.5610253,104.0126
1.5250556,102.57636
1.4384663,104.25007
1.4010413,103.16037
1.3676548,105.13162
1.4342674,97.5503
1.3619006,104.08744
1.40113,102.50986
1.2786499,101.611336
1.2543932,95.680214
1.2391059,101.58882
1.2030272,97.91123
1.092125,105.129555
1.1303921,95.2167
1.1201938,103.14734
1.012852,91.44193
0.9976699,94.9404
0.91711175,93.8555
1.0274361,89.869255
0.98295397,95.147705
0.90528023,93.19722
0.91204494,90.858086
0.9030869,93.19356
0.96164334,92.02696
0.8203398,86.20382
0.77452725,88.24512
0.8751708,86.86396
0.7532102,83.987656
0.73734057,87.957466
0.70562214,83.75017
0.70943063,84.116646
0.6858036,83.684784
0.6270572,78.993484
0.5173505,79.89552
0.44772267,78.50025
0.4810553,82.02469
0.43758258,78.40297
0.39773563,78.9051
0.38092333,78.201675
0.2995006,73.44634
0.29514506,78.5725
0.34540123,73.723946
0.3673319,73.63092
0.42167333,70.734665
0.2784564,69.63884
0.37592763,73.53079
0.36713755,73.05147
0.4043981,77.31578
0.26247627,70.65442
0.28130084,66.98066
0.30764553,70.93077
0.17383613,71.7314
0.22287148,68.1699
0.10736011,68.54419
0.088421814,72.78514
0.07447849,67.475624
-0.001074276,67.70638
-0.036030505,69.86302
-0.026612518,70.054
-0.053879388,68.84285
0.0074908547,71.35
0.038187124,67.804756
-0.021760412,70.80191
0.09906733,78.02263
0.08796083,77.16202
0.21968473,75.89595
0.24918003,78.63354
0.4109025,83.19669
0.39934066,80.7937
0.5411164,80.37441
0.6679735,82.616806
0.77199894,86.26815
0.89956266,85.86213
0.9267636,87.34029
0.95879406,91.37315
1.1047449,92.380356
1.1080377,91.501595
1.1837614,94.247475
1.1678083,94.2931
1.357837,97.40968
1.3553098,96.44053
1.3462155,97.60178
1.3115183,100.91707
1.4031234,103.14727
1.3637191,99.90071
1.4178162,104.70263
1.4039711,101.0907
1.3689364,97.809135
1.3546331,101.71642
1.3412539,104.36947
1.3288847,103.11871
1.2834817,100.86887
1.2840136,99.854576
1.2494507,97.71454
1.1756868,99.8727
1.142626,97.53267
1.1947877,99.04348
1.0898826,96.8058
1.1153369,97.932205
1.0827979,96.97341
0.98175555,99.52192
1.1279631,97.33908
0.9510252,94.63155
1.0061451,93.27156
0.9506519,96.18076
0.9674878,94.64276
0.91908866,96.938675
0.9249227,92.79354
0.8894875,94.18314
0.84700793,89.90716
0.902485,82.10615
0.80031055,87.12151
0.87862647,90.580574
0.85212475,88.980354
0.7660147,85.897224
0.8532499,85.84043
0.80348825,85.74103
0.6422191,86.42946
0.672625,84.16242
0.6385648,84.03427
0.5933992,76.40627
0.50857174,80.60602
0.52304405,76.71981
0.45620617,78.117744
0.38019812,81.90107
0.5007497,75.54418
0.30921972,73.17348
0.4166165,77.020386
0.4067274,72.704575
0.39348707,74.31212
0.34582996,70.28092
0.358491,70.67009
0.37034252,71.82649
0.38044408,71.07088
0.3479379,69.38092
0.4141959,72.544075
0.35772085,69.24242
0.29750666,68.31286
0.36392424,68.07643
0.25916854,67.06483
0.19321668,73.185265
0.22628257,66.53479
0.17660223,73.587975
0.07259008,71.61596
0.08774242,69.685905
0.0876258,70.90809
0.059934244,70.06986
0.1589675,71.76764
0.08711781,75.3678
0.1455439,71.29045
0.1509816,68.63508
0.26275384,78.24831
0.28350043,77.10835
0.33022484,80.72813
0.46792257,76.377815
0.5905224,81.93765
0.75530195,77.03393
0.7366604,83.09122
0.8340437,87.864784
0.96500176,85.45223
1.004664,88.549965
1.1293652,89.06477
1.2263356,88.72624
1.3039329,90.55361
1.2701851,92.21733
1.3978467,98.46834
1.3986038,97.202545
1.5458153,96.88161
1.5885577,99.74668
1.550993,99.29679
1.4748589,103.514984
1.518439,101.1369
1.5493405,102.53897
1.5342768,104.40432
1.6318966,105.629684
1.5760136,102.55573
1.5678076,99.648865
1.4758818,98.60943
1.4799422,104.11728
1.5818012,103.669586
1.4963012,102.33923
1.5555198,100.51627
1.4755896,95.96162
1.4102012,99.201
1.3910297,107.489365
1.2848158,100.78598
1.320791,99.6165
1.2400471,101.818535
1.2427381,95.676575
1.2497996,95.67881
1.2315968,93.54815
1.3418095,99.24398
1.1804211,96.35547
1.2369578,89.34191
1.1744033,92.762245
1.1757969,92.95974
1.1747512,91.272446
1.1476758,92.27256
1.2208132,85.63435
1.1076223,86.4515
1.0774757,82.88988
1.1700557,91.804184
1.0186969,84.99625
1.0595986,86.43396
0.96711916,84.426765
0.9297239,85.31604
0.9519454,81.00293
0.7946502,85.08319
0.86617315,84.00218
0.7925521,85.40307
0.72189754,79.51172
0.7735288,80.600235
0.76481575,77.69226
0.72043216,75.80753
0.6823504,73.03882
0.74256885,76.84699
0.6734386,73.6537
0.68294334,72.631874
0.65284795,71.803185
0.62351966,72.551544
0.7457272,72.29392
0.6535667,74.68111
0.66979307,67.462326
0.63689715,74.71032
0.7209293,69.80619
0.6659174,68.92196
0.5192382,70.19423
0.53598243,68.36595
0.53803,66.07964
0.50606847,64.766
0.4113131,66.30045
0.40760145,69.5266
0.42511952,71.85943
0.32507208,71.755135
0.39521855,68.059326
0.4661089,69.626816
0.36973125,69.636375
0.49705833,70.999756
0.47954485,75.9701
0.5839668,78.81367
0.73267955,76.741325
0.7703496,80.49082
0.85953844,77.56509
0.97624874,85.20906
1.1186073,87.69355
1.1233435,85.22251
1.3137724,86.960266
1.2978553,81.676155
1.4579931,89.03675
1.5640672,89.111946
1.5822551,97.724236
1.609218,94.83839
1.7672821,93.54007
1.6679772,92.439064
1.7761012,100.28582
1.8009567,94.242165
1.8320434,101.006615
1.7982582,99.5636
1.822976,101.37304
1.933367,103.82694
1.9016604,100.230705
1.9025391,100.91625
1.8380443,97.58077
1.7999,100.848206
1.8818778,100.86056
1.8004607,97.072556
1.8104792,98.69534
1.756606,99.41268
1.7384907,100.803345
1.8008595,100.07749
1.650174,100.847435
1.7380328,100.30226
1.7192354,100.43165
1.5972966,95.02299
1.5401638,97.60056
1.5706582,94.684814
1.5506166,98.4751
1.5727167,96.14802
1.4936295,92.723465
1.4809228,96.11923
1.5507607,93.79657
1.4081542,92.517944
1.4886557,87.997696
1.4343544,92.353485
1.443911,87.94333
1.4361764,91.47751
1.408691,86.96196
1.3395216,88.65876
1.3113517,81.29893
1.3806031,85.29461
1.3641425,80.105705
1.2299314,82.83674
1.2452604,83.42364
1.1520083,81.79458
1.1097775,82.602455
1.0871378,79.761986
0.96198714,82.69811
1.0886068,75.60993
0.883459,81.717674
1.070465,77.080605
0.96459377,76.11858
0.9091563,75.32084
1.0194968,76.98734
0.97630906,73.00148
0.9228396,75.40749
0.8636695,73.68215
0.8811007,71.711006
0.892188,70.26038
0.9126082,72.69243
0.85499626,72.013176
0.87576836,72.763824
0.8967491,70.733154
0.8949601,70.15176
0.76756394,71.05935
0.8088576,63.842506
0.63600254,70.51587
0.75429964,72.12096
0.65526414,68.55818
0.58653086,64.62629
0.6552097,67.43306
0.6158863,69.629326
0.46832883,74.362816
0.5548092,75.63222
0.5806585,75.68681
0.6381056,73.6418
0.6566632,72.907166
0.71525323,73.31942
0.6853558,80.384865
0.8978523,77.61631
0.9513207,77.83605
1.0625486,83.26293
1.1514355,82.21628
1.3269024,84.93298
1.4364121,85.72292
1.4381881,82.739105
1.5753274,86.144356
1.5559139,91.77044
1.6686035,95.36318
1.7857298,95.62893
1.7248243,92.41595
1.8730713,91.63884
1.9016477,98.56181
1.9031907,99.44155
1.8853525,100.25331
2.0529025,99.60085
1.992596,99.07262
2.02988,103.66949
1.9549918,99.891594
1.9395928,100.434135
1.9909608,99.18863
2.0119214,100.234
1.9180884,101.40764
1.9323883,101.93856
1.868079,97.90228
1.772767,105.08696
1.7582583,99.325775
1.7060237,102.608025
1.705292,102.38626
1.7729717,98.14436
1.6547585,100.72053
1.6673179,94.71941
1.5437366,97.175385
1.6037962,101.1221
1.4903665,100.973785
1.568132,96.52005
1.4285824,94.062126
1.495314,95.05172
1.5301365,89.422676
1.5190761,93.738525
1.4678577,93.033905
1.3879272,88.59303
1.4019356,92.6784
1.4429755,88.397026
1.3833145,85.27202
1.4056821,90.903625
1.2927,84.8984
1.3299003,88.74679
1.2042271,89.83826
1.1964738,81.289536
1.167355,85.93706
1.0418699,86.16377
1.0761708,80.451775
0.9466916,81.12604
0.9508055,83.32723
0.9949985,83.049255
0.9268939,82.01675
0.87100744,75.034454
0.91942436,81.344925
0.8400634,78.84342
0.84612155,72.93893
0.7687687,73.52806
0.8302477,69.79612
0.824085,74.38026
0.84821004,74.010124
0.844531,74.57064
0.72747916,64.88453
0.82094294,73.32779
0.72513086,69.80477
0.77337414,77.10693
0.6984904,68.75599
0.6733271,70.65806
0.5860715,71.40467
0.60251296,64.37704
0.49880144,67.78151
0.5023886,72.42316
0.46135956,66.61337
0.31056982,69.613785
0.36404666,67.03538
0.33067775,76.32268
0.44285014,69.40607
0.4793558,76.03907
0.3961561,70.90105
0.45554543,70.505775
0.6543115,75.73518
0.6403786,76.71498
0.6788326,78.637085
0.761606,78.67143
0.97950816,86.56271
1.0467108,78.89164
1.0621717,81.27769
1.1571438,87.92258
1.2873691,86.98342
1.2979587,86.93953
1.3542956,90.474075
1.4433888,89.173805
1.5887989,91.80064
1.5903066,91.22354
1.6531215,94.04188
1.6397035,98.78499
1.6584637,96.23255
1.7169894,95.814285
1.7019401,101.09783
1.7914982,98.609406
1.7305614,104.3398
1.6691717,103.62378
1.7221286,102.70969
1.6747406,102.19895
1.7003754,103.179634
1.7211294,100.51399
1.6278464,102.11554
1.6450993,104.51908
1.5595745,104.399765
1.6084994,97.335014
1.5733756,102.048584
1.4433527,101.27151
1.4724705,100.99715
1.5293674,100.52911
1.3508785,101.19776
1.361665,96.42682
1.3536576,99.459366
1.2404625,92.36624
1.2072352,97.99247
1.2211397,94.89472
1.2516013,93.08193
1.2930572,92.771126
1.1355586,96.29997
1.2064254,88.51824
1.1513128,95.75236
1.139149,89.83016
1.0978351,87.53142
1.1554275,94.039566
1.1227318,86.37092
1.1096811,86.34287
0.98832524,88.14393
0.9533394,85.71439
0.8368655,82.60893
0.82142365,87.7935
0.88761103,86.89187
0.8002744,79.405846
0.7456849,84.86391
0.7187708,80.79148
0.62103593,78.44764
0.66021925,80.13138
0.5750529,79.808266
0.5014263,76.108116
0.48731557,77.309006
0.544742,75.40133
0.56117743,80.007225
0.5296998,73.556305
0.4751292,72.854645
0.41614026,70.655556
0.52455825,74.26464
0.4747225,73.06838
0.4926223,67.48515
0.4617924,68.3606
0.4085117,69.13849
0.3275721,72.8295
0.2979001,67.04054
0.3545575,70.59134
0.31919366,72.83748
0.25821546,69.861206
0.16136926,71.42707
0.15540668,70.49944
0.1613437,71.32843
0.16543354,72.978745
0.11947734,68.59501
0.13918692,71.9552
0.04811714,72.4779
0.16415402,70.83801
0.22032662,74.38426
0.21703433,76.29997
0.37617895,76.531586
0.3631646,83.321205
0.51581925,77.42831
0.4957785,81.482895
0.61704046,84.814354
0.7145549,84.53062
0.8740413,85.0162
0.8797105,82.30477
1.087985,90.72897
1.0543258,88.84472
1.146215,93.610664
1.2133071,92.165695
1.3531423,87.959724
1.2352952,96.692314
1.3700776,95.56083
1.2903551,99.93703
1.4786868,98.13692
1.4836314,99.3433
1.3891501,101.03189
1.3767141,101.76861
1.4620334,107.653595
1.3821404,101.99176
1.3921376,99.986755
1.4143926,99.48739
1.3757855,98.98899
1.4058756,100.98132
1.3633872,102.26168
1.3389667,101.68124
1.2847185,108.17237
1.2698678,103.665344
1.2582815,104.82394
1.2260666,96.698395
1.2257518,102.292
1.102301,99.004196
1.0350486,96.56347
1.087532,98.04764
1.020034,94.69786
0.9544758,95.33507
1.0441159,98.83391
0.9842159,91.32627
0.8516428,93.50261
0.93788606,92.91319
0.94910485,92.85387
0.8688299,89.33865
0.9022781,88.928535
0.87437373,87.6832
0.8452139,88.38783
0.861308,90.08922
0.86196375,85.94853
0.7224851,86.877625
0.807943,85.24351
0.67407113,84.92594
0.6386059,82.75067
0.6842194,84.85794
0.49712914,79.531235
0.48025778,80.01327
0.5426531,80.57238
0.46870407,84.32987
0.37368026,78.25926
0.40175167,77.99625
0.35055438,76.792595
0.3970714,72.98717
0.33672062,72.67236
0.34881637,71.68324
0.3354329,75.02532
0.31044495,72.73705
0.28147098,74.47313
0.24555737,69.39238
0.38761792,71.82616
0.31029257,71.11279
0.24349244,67.91131
0.16114913,64.92621
0.21923134,69.45517
0.24624695,72.63903
0.1827622,72.2231
0.16091055,67.76358
0.016815592,68.14434
0.043432478,68.32166
-0.010435077,72.05443
0.010943148,71.81219
-0.118443556,67.49964
-0.100329064,74.50781
-0.04974798,69.585144
0.021396669,76.59802
-0.0023079265,72.09368
0.018456023,74.68415
0.1134314,75.69064
0.11383902,76.52536
0.2683082,76.7665
0.3639649,77.776
0.45570827,81.35696
0.53266406,77.74291
0.69151783,81.17561
0.66218376,86.21101
0.81229585,89.85662
0.98346984,84.66591
1.0358082,88.98159
1.0812272,92.11321
1.1228213,94.09033
1.1832913,95.39187
1.2700831,96.33991
1.3295006,100.96377
1.3674914,100.383484
1.3262509,94.23923
1.3988918,101.31316
1.4060447,94.821144
1.3319979,99.443474
1.4420803,100.562836
1.3779746,100.97257
1.416093,104.63222
1.3633782,104.95033
1.3127071,100.70331
1.3702756,99.79296
1.3259028,99.4277
1.378585,103.08879
1.2940089,98.2892
1.2026536,101.88131
1.2331164,97.508064
1.1743045,99.561455
1.166096,98.341324
1.1098149,100.38173
1.1346877,98.51003
1.0772846,96.77863
1.0709321,98.63842
1.1194215,99.8398
1.0449421,96.13825
0.97439474,95.56642
1.0515422,89.77672
1.0048985,95.098526
0.95372134,91.80125
1.0046014,93.80403
0.98007494,90.90155
0.9658823,84.65684
0.97115993,88.859184
0.9942046,84.82872
0.91016775,89.91449
0.8056756,85.341934
0.8381366,83.38102
0.8201924,83.902084
0.80764824,86.071915
0.7310147,76.86835
0.6299977,84.662796
0.6463187,79.01622
0.6018406,84.45088
0.55818206,74.64915
0.5105819,81.07599
0.47124365,77.363846
0.4861027,74.21973
0.4978709,76.94428
0.3932397,78.28132
0.4590163,71.59778
0.38240066,71.02383
0.43043727,74.63128
0.4473731,73.9371
0.4521434,74.85287
0.48439625,75.43265
0.49322382,68.867096
0.4665242,70.005775
0.46846405,69.434074
0.31291187,70.95402
0.3809923,69.85732
0.35331807,68.41051
0.23120365,71.606384
0.2719345,66.50897
0.24652012,71.93271
0.19377728,67.26364
0.16366823,68.79935
0.12916297,72.025314
0.21099891,71.89548
0.15898964,74.634056
0.17596391,70.77469
0.24978226,73.1525
0.22904217,73.146225
0.27421948,73.43441
0.33835745,76.414536
0.45805386,82.0119
0.5067919,80.564255
0.6472944,77.81268
0.7205382,82.01901
0.84842724,85.70677
0.9286646,86.55311
1.0120028,85.36079
1.1174049,86.96291
1.1160381,89.4791
1.3360493,90.5346
1.3585311,86.49311
1.4715338,94.48886
1.5230219,96.36947
1.6078824,95.19784
1.5890695,93.423645
1.5931345,96.92169
1.5276513,95.480705
1.5916315,98.66226
1.6192411,100.92892
1.7286456,100.714226
1.5217305,104.26552
1.5962424,97.816444
1.6444846,101.10867
1.6509849,101.77883
1.6045239,101.53552
1.6265895,99.75471
1.5908831,99.26865
1.5705534,105.96091
1.5549799,99.375
1.517966,97.47831
1.534112,102.796875
1.5160877,101.305626
1.4770395,94.92024
1.457147,103.23965
1.4221165,97.88174
1.4268488,103.14598
1.3196375,95.44768
1.295477,95.953125
1.2825637,94.55868
1.329653,94.19585
1.2913054,90.84186
1.2082331,90.32519
1.2594385,90.38599
1.2562765,90.54762
1.2918162,90.275665
1.1995885,88.36474
1.2239933,88.11734
1.188678,85.25993
1.1228814,87.22223
1.1602616,83.995995
1.045435,85.55549
1.1296632,86.936676
1.0228283,84.66265
0.8542434,81.04167
0.96531373,83.883385
0.86022323,81.232666
0.8774788,81.11367
0.7987086,78.48639
0.7779099,79.12799
0.80260307,75.73192
0.7900179,74.1518
0.77141315,79.34241
0.70916027,78.5584
0.74354345,72.14756
0.7481296,71.05173
0.8391603,72.704384
0.7992014,69.3258
0.77702117,73.74679
0.82928914,74.48197
0.64345294,71.73227
0.7950274,73.79618
0.7878215,73.52294
0.7230031,68.403244
0.6594702,69.52942
0.60676587,72.99244
0.599263,69.61086
0.6217728,69.05977
0.43144852,70.25562
0.47356206,72.95696
0.45591387,73.71478
0.419401,73.13298
0.4944216,68.51698
0.43849552,70.43574
0.4903341,75.193085
0.45944563,76.36039
0.6230738,77.374596
0.58539456,71.330795
0.80782866,74.786415
0.84473145,77.37201
0.8337369,80.54407
0.97131,83.11399
1.0765585,85.54253
1.233033,84.28304
1.2820098,86.022385
1.3781841,88.160095
1.4994104,90.8037
1.6008801,87.40703
1.6309073,93.45798
1.6395057,91.512924
1.7627321,91.58754
1.7928996,95.48997
1.7543259,99.34474
1.8430268,99.16681
1.8210975,100.85445
1.9084309,98.78115
1.8942037,98.46271
1.9518424,98.391464
1.895725,100.17947
1.9328454,98.11276
1.8909594,101.587234
1.9316474,100.49752
1.9207528,101.84827
1.9209265,98.83661
1.9087667,97.803055
1.9054471,108.5113
1.7653016,99.35287
1.758782,104.01729
1.7796602,96.09113
1.6753525,96.58315
1.6514096,96.69497
1.6967462,97.79366
1.5996741,98.92507
1.5668974,91.98329
1.579884,94.95754
1.5342816,95.47603
1.5711225,98.086586
1.56543,90.92431
1.5254457,93.72942
1.5264213,93.39926
1.4588854,93.432304
1.4520702,89.071335
1.4897364,89.56065
1.3858955,91.538155
1.3886924,85.00661
1.3849843,84.826706
1.4265622,88.062805
1.4308128,83.95074
1.3357407,86.34939
1.2865807,87.24485
1.2892781,85.56116
1.1856782,83.21601
1.1419795,83.45904
1.1305335,85.193146
1.051853,84.82385
1.0832723,77.03421
0.9986334,80.11094
0.99640894,77.49631
1.0360582,78.832985
0.8895754,73.2509
0.96606565,74.714775
0.9073692,75.21154
0.88587123,73.41578
1.0103147,71.604324
0.8185786,69.7799
0.8551071,67.96807
0.87806845,71.43044
0.9269367,71.288025
0.76993364,72.673965
0.7819545,66.997856
0.8430162,70.15597
0.7144789,66.440025
0.70382196,70.28182
0.71729445,67.41856
0.715293,65.599174
0.6880963,68.935196
0.5819278,69.63355
0.55499274,65.995316
0.44768283,68.492294
0.56934977,73.336914
0.5486303,76.271706
0.4878521,77.32505
0.58652717,73.44297
0.66818935,74.071495
0.7117631,75.91559
0.85671765,78.56085
0.8592985,83.36696
1.0350162,79.27733
0.98807406,81.59186
1.2205284,80.01497
1.166768,82.68654
1.3059062,87.569855
1.4551902,87.5054
1.6119398,91.44737
1.5786611,90.90279
1.6404377,93.84956
1.7782736,88.40008
1.8156611,94.67911
1.8325871,93.33128
1.8228399,96.84489
1.820359,96.356064
1.8969014,99.111694
1.8521811,99.79376
1.9518332,101.138084
1.8858603,101.886314
1.8774153,97.110855
1.9114925,104.29081
1.9080518,105.9271
1.9526818,102.26139
1.9119995,99.63588
1.8597072,100.27338
1.8253282,98.82923
1.821701,108.75608
1.8149717,98.448395
1.7241797,97.40394
1.7044076,97.12964
1.6624609,98.71637
1.7056465,97.40853
1.5643694,97.66205
1.5781751,102.02606
1.5140795,97.92739
1.5645086,94.44652
1.4605213,98.459816
1.5051683,96.18093
1.5106163,91.62057
1.4355973,95.30397
1.4384613,88.402405
1.3989806,88.99122
1.4153575,91.62364
1.3067102,92.95179
1.318638,90.71204
1.3683196,89.84276
1.3019542,86.38608
1.27243,93.03214
1.2421583,84.80191
1.1976272,86.29396
1.1999247,86.03406
1.1524259,86.83798
1.0731857,81.18575
1.1304832,83.60811
0.9836381,81.61843
0.9151,80.041275
0.87489796,80.50703
0.8930864,76.35729
0.8214166,80.02794
0.8189125,73.01272
0.84657604,76.095856
0.7646171,75.8395
0.7775677,73.65372
0.78778094,78.21228
0.6909382,74.63201
0.6416113,73.0704
0.7358672,74.51304
0.7034686,76.5813
0.69203925,72.431366
0.7149364,69.2163
0.68707806,68.56262
0.58258927,68.8077
0.58854383,67.662346
0.51957166,68.733406
0.5174831,69.62955
0.48000148,66.54134
0.39856455,67.123985
0.49646905,67.52273
0.38731915,75.559746
0.3335701,66.939964
0.2419333,70.25165
0.4076271,71.99963
0.3380044,70.84477
0.43293965,78.8752
0.35081065,70.57301
0.5188525,73.23814
0.52138734,77.86404
0.65750283,81.51187
0.6618033,79.1312
0.78520685,75.6941
0.8607298,79.89315
0.9916742,83.027435
1.0008533,88.16602
1.143094,84.95303
1.2743744,85.246735
1.3503039,85.49692
1.3178581,91.21094
1.3959408,93.80253
1.4657768,94.56339
1.5907346,93.185905
1.5922782,96.317566
1.6005234,97.016235
1.633903,97.01147
1.5486414,100.59845
1.6031471,101.72528
1.6490061,101.49302
1.6510566,98.38389
1.6403768,100.66157
1.6484743,101.46633
1.5839055,102.898476
1.6524168,105.053696
1.6199988,105.078064
1.5943137,100.42982
1.6129045,103.97046
1.5293325,99.88149
1.4579128,98.45824
1.4723117,103.06485
1.3041137,100.70309
1.3931007,93.26466
1.2404076,101.93371
1.26053,99.46361
1.2144542,96.31427
1.2407665,95.862206
1.18647,97.29676
1.1438588,95.276115
1.1299957,96.472145
1.1143754,91.171036
1.2268614,93.86843
1.135137,90.02936
1.1175832,87.520355
1.1114932,88.28336
1.1035553,92.198715
1.0186075,92.051414
1.0235655,85.02854
1.0324992,89.44485
0.89856285,87.79543
0.86465025,87.885544
0.83354574,87.41211
0.8455971,82.562096
0.6820154,83.95004
0.7119161,81.84744
0.6842981,86.012054
0.6198574,83.83562
0.588488,76.80065
0.56079894,79.94022
0.5172666,75.16928
0.5683891,78.14051
0.48763493,74.15139
0.47893023,74.04205
0.34729895,71.86794
0.42605272,74.64101
0.49540094,72.83934
0.47926775,73.145226
0.41949394,71.888275
0.3941586,66.67055
0.49622664,66.64734
0.3855946,68.393745
0.4004503,67.4931
0.33561164,71.82139
0.3056462,66.805786
0.21371748,68.80641
0.23325703,64.32907
0.27533513,73.85937
0.15366602,68.38418
0.035148103,66.84901
0.021871237,63.438595
0.119223304,69.2921
0.0650208,74.140205
0.06026834,69.89359
0.08174915,69.288795
0.057918455,69.717155
0.1083424,74.30931
0.07433012,75.755424
0.20493884,74.63156
0.32075793,77.30586
0.3592093,77.574776
0.45245346,81.02694
0.5218228,83.71902
0.6341409,82.26106
0.81605417,87.14963
0.8376497,84.76491
0.9019549,89.02268
1.006301,88.775536
1.1921847,88.62979
1.1545519,94.49124
1.2620124,97.852295
1.3208646,96.73238
1.2196103,97.571175
1.3365598,96.74405
1.3427289,93.28828
1.3286405,97.9649
1.4285586,101.02968
1.4270651,102.13975
1.3441103,99.339836
1.4050771,104.227646
1.3971943,105.5504
1.3031803,108.03905
1.3127276,101.66434
1.3130195,103.571526
1.3735676,96.625435
1.3459543,101.854614
1.3111308,105.4463
1.2288493,97.43143
1.2257618,102.21472
1.1394124,99.198204
1.162954,99.297585
1.0880926,96.02827
1.0976676,96.311134
0.98751837,101.791794
1.0038348,97.626144
1.0057472,99.12926
1.0031482,96.165306
0.92328256,93.55989
1.0278678,93.882355
0.9096069,92.8738
0.8861627,91.718376
0.84804225,92.836266
0.9176509,88.20418
0.95364964,95.64909
0.86365217,86.574005
0.8480083,81.296
0.8392793,82.74111
0.7773695,83.78127
0.7176729,89.057526
0.7490198,86.34608
0.6328146,82.97393
0.64094913,83.47086
0.5980712,82.04987
0.53210354,82.16403
0.40417823,78.84162
0.4729516,80.50378
0.378243,76.81715
0.3771034,77.25654
0.35291877,81.539276
0.38421276,79.533356
0.25170207,78.55546
0.34869942,78.1847
0.3962466,72.28013
0.26335177,73.93017
0.3523591,66.32956
0.36232194,72.67359
0.29862198,78.44029
0.34183204,71.236946
0.31103507,75.125656
0.19958958,69.1139
0.29912886,72.28661
0.17560337,69.79067
0.26679716,71.54283
0.18858325,68.04315
0.09396848,65.42222
0.1273903,70.41547
0.073240526,69.56405
0.036585093,70.14914
-0.03930892,66.25213
-0.03821534,70.378815
-0.024923062,70.403625
-0.0143299755,73.745834
0.08865978,74.148705
-0.0077290456,76.24543
0.07381539,79.846695
0.20120871,75.87815
0.16789147,78.058
0.37966222,75.78775
0.4756763,77.83716
0.5578904,83.132126
0.62510246,83.61391
0.7040123,83.63105
0.7902721,88.41538
0.87834644,87.62694
0.93300986,90.08528
1.0447713,91.766975
1.1553149,90.92025
1.1818904,95.02017
1.270295,92.35619
1.3333048,98.603714
1.2769153,97.39198
1.3363543,96.460014
1.3591937,96.1664
1.3929669,101.06945
1.432755,98.99049
1.4213811,101.263016
1.4174649,103.29713
1.4726413,104.37611
1.4060048,104.8751
1.4436606,100.94646
1.5065984,100.730156
1.417358,104.64558
1.3630481,102.55572
1.31947,100.302155
1.3533108,102.24738
1.3097533,108.691185
1.3630989,102.690674
1.2939229,100.44595
1.1315732,98.00068
1.1728687,98.07496
1.1478136,101.20318
1.0853266,98.11385
1.1130463,94.561745
1.1099457,94.438515
1.101841,95.09795
1.1407177,91.835434
1.0277878,93.07924
1.0759128,95.70983
1.080618,92.18898
0.95062214,93.75487
1.0348537,89.37181
0.9615259,89.182396
1.0104902,86.10004
0.9733246,87.88586
0.95399785,87.42192
0.9125963,83.17653
0.86608696,81.45982
0.8341665,84.79481
0.76800996,85.90146
0.7029033,80.39809
0.6776858,83.97593
0.6526806,75.73985
0.5773516,82.91691
0.5102749,81.57555
0.657282,74.151634
0.6138565,80.12341
0.61736095,77.27074
0.57168126,74.570724
0.52391326,75.55274
0.5196522,76.36088
0.52917445,78.2403
0.53609675,72.969
0.5479416,71.79438
0.49499217,70.16933
0.48929727,73.029915
0.5907241,70.92011
0.5308038,74.02363
0.51323265,68.188
0.3626435,66.893364
0.44126877,76.36701
0.44251257,70.92706
0.32854298,66.6245
0.36544344,70.66362
0.30140576,70.00811
0.30257094,68.442665
0.2909402,69.188446
0.2013625,75.712776
0.1849723,69.45996
0.18831022,69.332275
0.2803305,68.71328
0.29109597,74.38306
0.2792374,73.85278
0.42748255,77.09595
0.55142736,77.65878
0.58457774,79.04738
0.7272199,78.892685
0.7817203,79.06096
0.94144857,83.97768
0.977666,82.02803
1.1524385,85.66925
1.1826191,84.106125
1.2713289,89.110535
1.3639736,91.81947
1.4788969,92.56942
1.4455174,89.74403
1.5057508,94.800354
1.5789576,98.12108
1.6380587,98.643845
1.6198878,96.504814
1.6690358,100.4059
1.7398925,99.64645
1.7708937,97.85858
1.6952286,100.470406
1.7887275,102.92142
1.7737334,97.81906
1.7812327,102.35145
1.8189834,103.03887
1.7162304,103.7234
1.7304482,99.006325
1.6375968,102.228836
1.7131065,101.23872
1.6206129,101.026665
1.6641402,103.967804
1.49405,100.304
1.4919642,97.81392
1.5466278,98.40669
1.4331385,97.1864
1.5422477,97.01503
1.4392828,92.96164
1.3520608,99.108444
1.3816055,93.84637
1.3483315,96.34446
1.3038974,90.325035
1.4627814,90.8279
1.271702,95.02178
1.324745,89.45885
1.2829086,91.740906
1.2132763,92.31827
1.3873167,92.29274
1.3238621,90.24301
1.3168494,89.42939
1.2457694,91.01261
1.2668892,84.97295
1.2122518,86.71128
1.1944629,79.00461
1.164625,80.61453
1.0986774,86.08703
1.0166427,79.70246
0.93564725,76.297585
1.0034705,75.23794
0.9567129,77.842
0.96317554,78.27104
0.9125926,76.52275
0.8320784,75.1412
0.9102116,79.28376
0.80724925,75.5926
0.8815715,74.230995
0.8066805,77.37411
0.91754025,75.02312
0.94032395,74.40503
0.8231098,69.283806
0.7719429,75.368645
0.8276328,66.60237
0.83203775,74.12892
0.75727165,64.537506
0.7381629,68.10413
0.6683814,69.42501
0.65739185,69.83298
0.6473636,70.71241
0.5756855,67.92791
0.62662584,68.282005
0.6082715,71.42045
0.54895,72.85688
0.5180732,70.370415
0.45090595,72.9834
0.54584676,69.465294
0.5481779,72.39318
0.5926066,74.11793
0.62766737,76.19438
0.73273987,76.9857
0.86780095,79.8425
0.82981086,78.82113
1.0528693,76.84293
1.0118259,88.72059
1.1503413,81.1225
1.2814436,87.25305
1.3224932,87.29414
1.4400374,86.85537
1.5268644,87.6106
1.5944469,87.43141
1.6488549,92.69739
1.737626,95.69537
1.7323352,93.07734
1.8411291,99.659134
1.918414,94.871544
1.826024,100.56208
1.916928,99.38684
1.974681,100.970856
1.9680439,100.82032
1.9372654,103.43488
1.9469831,104.6884
1.9069377,103.67379
1.8660072,98.179726
1.8810343,98.709
1.9130449,102.290245
1.8950061,102.94222
1.809894,100.625786
1.8912868,96.38947
1.8357916,105.36109
1.798019,100.69946
1.7964382,102.278824
1.7578949,101.28994
1.6910625,95.07134
1.718035,100.444084
1.6416899,95.06243
1.6461754,94.23208
1.6060059,100.34553
1.6545144,96.9091
1.6332959,92.117645
1.5169526,101.25009
1.5186657,92.01048
1.5370947,89.801834
1.5072868,92.116615
1.5206605,89.956505
1.4892422,92.58267
1.458227,85.35817
1.4954195,91.31743
1.4072475,85.20697
1.423125,84.62646
1.3702544,84.2636
1.3793314,85.06489
1.2816963,87.700745
1.2482048,83.18193
1.1701397,84.96148
1.0904646,81.26266
1.1799726,80.40565
1.14329,82.7933
1.0105792,79.90184
1.0241865,80.417564
1.005392,78.92184
1.0191576,74.37565
0.9182767,77.24229
0.88776106,73.62467
0.9741922,71.55611
0.8460359,71.534355
0.9887181,75.98571
0.9118236,72.132
0.8478045,71.230064
0.9011854,66.87052
0.9387392,70.94871
0.9416534,64.03077
0.8481264,69.48638
0.8030799,72.659004
0.7577402,74.00057
0.66672534,71.09167
0.7375614,67.644295
0.702455,69.0084
0.65199214,68.330215
0.532008,68.74115
0.5061549,71.00338
0.48378426,67.57819
0.5183572,73.3244
0.50167596,73.98483
0.5151888,75.39707
0.51502776,74.57859
0.55647844,80.07433
0.64295876,76.21661
0.68838084,72.96104
0.7677731,79.69166
0.9064318,78.03432
0.92616296,84.21849
1.0002159,85.15014
1.1918502,80.566826
1.328617,86.61877
1.3332083,83.658936
1.4102387,85.15824
1.593828,88.504974
1.5618223,92.93359
1.5753486,91.77483
1.7298307,94.229515
1.6729249,94.02965
1.7955939,93.71667
1.8611174,99.71549
1.7837023,98.077484
1.8182194,98.37985
1.8809421,105.19771
1.92001,104.95253
1.8308066,102.07201
1.9401513,99.009605
1.8499728,97.18612
1.8198069,101.53045
1.8209201,105.08136
1.7005625,105.016945
1.7509863,101.677315
1.7599301,105.165146
1.7476223,101.32021
1.6303046,97.993004
1.6835676,98.78934
1.6716204,103.16936
1.5267489,99.35629
1.6038166,98.08722
1.5312027,94.946724
1.5354584,101.99353
1.3292319,96.92576
1.472875,96.592026
1.3878707,95.079895
1.3737991,98.12645
1.3692636,90.42476
1.4015955,92.65297
1.3579468,90.282845
1.3405131,97.82652
1.3403279,89.94798
1.3072437,87.30273
1.2700049,92.247185
1.237377,86.7737
1.2341975,88.37478
1.1488637,81.666016
1.1032892,91.74185
1.1266232,83.15907
0.96584785,86.476265
1.0028133,85.27291
0.9809177,84.923904
0.94627374,79.88815
0.84378684,79.893936
0.78657573,74.64035
0.822673,77.495544
0.7721594,76.01183
0.71695256,80.09698
0.6223836,77.167046
0.6179132,74.042366
0.76663446,76.78573
0.6372032,75.204
0.71374625,77.16258
0.70638925,72.28533
0.6496284,71.690315
0.5804522,70.80312
0.55898464,68.54913
0.6526673,72.8117
0.534688,67.31407
0.53529817,70.64376
0.42504546,69.37846
0.5175918,67.78547
0.45254037,66.45524
0.36816108,67.77106
0.3029523,73.75373
0.4404184,69.518814
0.19151384,74.60751
0.26443532,63.67639
0.24547713,70.94871
0.17869447,67.533775
0.35063955,75.52025
0.2464031,74.8305
0.3516947,75.06216
0.42082956,74.05036
0.4776432,82.080505
0.55224323,81.20109
0.5803575,77.39145
0.65240264,80.76719
0.69085264,86.44209
0.8431749,82.48501
0.9275227,84.170944
1.0344021,87.97059
1.0743842,88.10841
1.1092435,89.21461
1.2850281,88.2841
1.2912863,89.18883
1.4500699,92.459435
1.4124922,96.54473
1.4343914,99.10577
1.5068583,94.45327
1.4205059,96.17471
1.5757887,99.33903
1.5472307,101.435974
1.6394166,101.92963
1.6144516,97.56604
1.5100613,103.18496
1.5158772,101.45645
1.5763068,100.20761
1.5206436,104.00572
1.5534239,100.277885
1.4388442,101.63137
1.4479696,98.898575
1.4458216,100.26087
1.3126374,104.103455
1.3373604,99.80029
1.3103777,97.78736
1.2298805,100.14777
1.2253268,100.165794
1.1731561,97.03821
1.2193648,98.46964
1.17206,99.81378
1.1467364,100.225655
1.0333164,94.99912
1.1301646,96.99494
1.0456588,96.09046
1.0126745,92.95695
1.087706,94.00777
0.99142265,92.5506
0.9903065,92.80081
0.9459034,87.461426
1.0392579,87.68216
0.97125727,87.84123
0.9031833,88.05659
0.9292225,86.123184
0.85082847,88.81565
0.74767077,81.555565
0.7967454,87.35288
0.72648615,84.43169
0.5638319,85.98892
0.60724276,79.288055
0.6096649,86.80659
0.5372273,78.67281
0.46943825,73.16166
0.38627976,76.19629
0.55322844,81.4533
0.41283458,80.43673
0.4143425,75.26416
0.44643494,76.62852
0.3536001,73.053635
0.35516977,79.33202
0.36496764,70.10776
0.41509667,74.29458
0.2593181,70.747406
0.33958995,69.85731
0.26402715,70.207596
0.27995247,66.64007
0.22867526,68.31377
0.20368348,67.750984
0.21429221,69.34694
0.1487064,71.67023
0.15408011,68.65576
0.16574645,71.09229
0.046060435,69.23164
-0.04872607,70.33349
-0.0304583,67.735466
0.039387334,68.72101
-0.0026923814,72.4696
-0.03401713,71.25925
0.0043210005,77.30095
0.071232684,69.542465
0.086449556,76.95827
0.20472099,83.08536
0.25948092,75.35276
0.2769039,77.70228
0.51911104,84.101875
0.48312098,81.29633
0.6170895,83.09493
0.68519586,84.51422
0.83435655,91.47207
0.8801156,88.3307
0.985822,92.84795
1.1045606,91.31889
1.1712956,93.035385
1.1551721,93.396034
1.1581428,97.48177
1.2657552,96.527
1.3034357,101.3511
1.3439664,94.01279
1.3747864,99.67353
1.316144,96.532486
1.36309,98.39315
1.3308849,103.98707
1.3986626,100.99169
1.3467367,100.42141
1.4146508,101.4331
1.3318881,99.77013
1.2681893,99.173065
1.242763,104.40083
1.2476653,104.70234
1.3254731,104.513756
1.2879094,99.764534
1.2534642,100.59998
1.1536659,102.60381
1.1843898,100.29359
1.1235467,96.28373
1.0449142,102.50629
1.040306,98.00646
1.0275207,97.955
1.01831,94.949104
0.998142,94.27104
0.95415765,95.86611
0.8727418,94.54316
0.81828547,97.36199
0.94148564,89.55431
0.88182914,91.35605
0.9120614,87.59623
0.8301908,89.52152
0.90209645,85.396576
0.77493525,87.100266
0.87081593,90.76462
0.7618237,81.44572
0.8012648,89.42892
0.688571,84.03148
0.7067883,85.62029
0.6831515,85.941055
0.5575599,83.014175
0.5438085,83.295166
0.5349988,79.06928
0.46916518,78.020256
0.4528145,78.50146
0.38914376,76.70306
0.37318233,77.1234
0.45605144,78.336815
0.31147212,74.51217
0.38207275,73.20721
0.31209996,69.243355
0.33878204,71.95923
0.3957437,69.60978
0.41960678,76.69547
0.38014698,71.668976
0.27561697,70.59292
0.4386883,67.154724
0.2691967,72.09222
0.30368444,72.218605
0.25502455,69.58883
0.28739652,64.23651
0.24235886,71.01643
0.123246394,67.26367
0.13275516,71.38665
0.106036514,70.80021
0.072405,77.143005
0.04180807,71.27817
-0.035515353,71.74448
-0.042239096,69.55752
0.008750354,70.756714
0.07023758,72.852425
0.062178124,74.04095
0.1519751,72.752144
0.30074206,72.76684
0.23160462,78.242165
0.35329664,76.86937
0.49630398,81.37385
0.63782746,83.072365
0.58416367,84.552505
0.71269006,84.00134
0.8680212,85.60363
0.9579198,90.86387
0.9900693,88.00436
1.1178082,87.49927
1.1810203,91.45294
1.353906,92.582146
1.389467,90.72478
1.3453915,90.87077
1.32341,95.93576
1.4657086,99.97895
1.4743713,101.17065
1.5311662,99.199585
1.4284927,104.92295
1.4569486,100.96815
1.5385158,100.66353
1.5320244,102.11365
1.5806913,104.56307
1.5500598,102.82655
1.3593493,105.716415
1.4600875,104.18543
1.4640206,102.241905
1.4440845,102.86166
1.3744497,105.80611
1.3849545,102.82561
1.3792145,99.81578
1.3024565,100.12125
1.3656338,101.5801
1.2854369,98.06428
1.2809409,99.274086
1.2150288,92.58693
1.2240876,93.28951
1.1262404,96.65876
1.0982412,94.5333
1.1858165,96.23345
1.1718764,92.755844
1.2037015,98.00521
1.1122444,88.84044
1.0697259,90.0017
1.1077675,90.812805
1.2077514,86.85972
1.0642227,88.64635
1.131086,89.00024
1.012096,86.37468
0.96109635,79.00467
1.0403589,86.436844
0.91754776,78.954
0.8706272,82.976364
0.849996,83.08001
0.78862613,83.471245
0.78474873,86.042274
0.72931105,79.860504
0.6782234,78.69477
0.70881116,77.51387
0.7060997,75.18515
0.63513845,72.341995
0.55848086,73.42499
0.65578884,76.46204
0.6121579,71.38682
0.6168525,74.289764
0.6022794,73.91327
0.6263151,73.77277
0.62350047,72.276306
0.70273316,72.48857
0.63176066,68.73178
0.60583293,72.122154
0.61450064,71.1616
0.45758,70.437355
0.5074755,65.718506
0.5457683,65.87328
0.42615017,69.92778
0.34641367,64.95455
0.37450582,71.4873
0.29836124,66.05617
0.38707352,77.77461
0.36145478,67.874466
0.287198,70.2711
0.36443043,72.42459
0.40769526,73.64552
0.37384787,72.7423
0.5106271,72.10295
0.49515662,74.58535
0.5397137,76.43004
0.6077534,77.67633
0.7048571,79.81861
0.8398236,80.29875
0.95203984,81.096146
0.9730377,82.06037
1.1244807,87.60813
1.2120092,86.183365
1.3781269,89.71883
1.4233196,87.39251
1.5157018,96.96192
1.5522617,90.40822
1.6014386,94.77515
1.6678048,90.20381
1.7468263,96.133446
1.7218566,99.485504
1.8216624,94.84896
1.8006245,102.448204
1.7888223,99.80462
1.7643578,100.581154
1.8191016,102.43619
1.914523,103.56185
1.7986135,101.13743
1.8212903,99.723976
1.8169756,102.20037
1.8074358,102.33468
1.7326022,101.65258
1.7397248,103.07515
1.7073331,102.64495
1.6677557,104.83333
1.6842473,101.179184
1.6453158,101.32508
1.5935022,103.87034
1.603429,95.58574
1.6295094,101.06486
1.5205325,99.14358
1.5520751,98.78296
1.4313349,95.08515
1.4404835,96.26947
1.4786477,96.02517
1.4733295,94.00615
1.4423032,90.53281
1.452631,92.361404
1.4506122,86.32262
1.3755316,89.92317
1.4013004,89.24818
1.382135,86.754456
1.3140255,89.437614
1.3750713,86.686295
1.3266672,79.294685
1.3189937,86.394035
1.2339579,84.65883
1.1425154,86.19337
1.0926951,80.575905
1.1272151,85.25654
1.0620862,79.996414
0.998802,81.55766
1.0312041,79.490875
0.9660585,71.25467
0.96878856,79.19386
1.0008584,78.19571
0.9165345,80.24018
0.86369234,75.36024
0.89933425,76.27658
0.8838884,73.90448
0.9435716,72.88477
0.91728663,75.21899
0.9126735,70.64421
0.86889553,72.69695
0.9207329,72.40217
0.83901066,70.87223
0.8998399,73.17402
0.7998481,67.20419
0.8675407,67.030464
0.80519456,67.988594
0.72070307,69.58827
0.66669476,71.2762
0.645859,69.017845
0.59620726,68.54924
0.6171429,67.60899
0.4981051,73.17577
0.50655687,70.70708
0.50813997,72.135254
0.50063795,73.26252
0.66834354,72.67781
0.5904277,77.40918
0.736541,72.173386
0.75546503,77.138916
0.93422973,77.244225
0.9198764,81.05495
1.074629,77.10243
1.0949478,83.094955
1.2213615,85.17649
1.2895428,85.737206
1.4900115,85.10692
1.615851,89.52095
1.6042693,92.25376
1.648651,87.68246
1.6560094,95.77029
1.7820028,94.30844
1.804441,90.910126
1.8902963,97.98051
1.9008688,102.3562
1.9760678,93.45831
1.9750538,101.12817
2.0251083,102.71788
1.9558977,94.182556
1.9743477,98.65119
1.9603391,102.29369
1.9690245,99.5247
1.9708587,102.4245
1.9779551,103.65425
1.8839058,102.1388
1.9696114,103.73815
1.9512522,103.6406
1.8676332,106.18181
1.8138896,103.34367
1.7035496,102.731735
1.8030005,99.77067
1.6171347,99.97991
1.6478206,97.32719
1.6643735,98.93447
1.5428718,97.18532
1.6154205,94.29944
1.6468621,94.001656
1.4881642,99.15048
1.4993366,98.37835
1.5052645,96.87901
1.5632766,94.47243
1.3692713,89.46944
1.4718816,95.95099
1.5127438,90.07909
1.4077529,91.25058
1.4433479,87.68695
1.32949,88.978195
1.4188379,85.03893
1.4467895,90.08472
1.3297281,84.1032
1.3114333,83.547325
1.1949278,83.13469
1.157389,82.22282
1.1964432,82.35405
1.0348268,90.46576
1.0594534,78.46243
0.9427092,77.02804
0.96545017,78.61243
0.93081605,79.71321
0.9228265,75.738045
0.9315197,76.66929
0.8916197,77.045166
0.8393613,72.85873
0.8859895,76.58204
0.9038005,74.810455
0.8199649,74.54972
0.8766743,69.1562
0.8352966,71.86367
0.92074233,70.815575
0.85236824,73.82056
0.8296845,72.151794
0.7638955,70.379845
0.6635631,65.55229
0.72283393,64.53904
0.64969295,71.783905
0.63503814,71.08206
0.443739,69.28801
0.5613999,69.474365
0.5086606,67.038475
0.5370833,72.68022
0.4688475,69.27339
0.49000415,72.51363
0.48365283,70.63044
0.50607836,75.75067
0.56186014,72.48889
0.59439594,79.11624
0.644571,75.68053
0.72280335,75.80791
0.90038925,76.88917
0.8896913,81.52311
0.9958331,79.185295
1.1012269,84.77431
1.1466526,83.25832
1.2054324,87.08687
1.3929465,86.48954
1.4428725,87.71929
1.495663,87.38208
1.5118318,94.254875
1.5965265,93.82682
1.6446911,95.996574
1.6331786,100.73422
1.7268084,93.40406
1.8312671,96.80378
1.6624466,97.89956
1.810383,99.25363
1.8536632,97.38498
1.7956718,98.19636
1.7530224,103.24144
1.8231528,102.56659
1.8125725,102.44244
1.7656572,108.32133
1.7519897,104.77425
1.6280463,100.05338
1.6063408,102.32144
1.6441549,104.33597
1.5946821,101.1146
1.5755981,104.09734
1.5292603,103.046265
1.4460777,97.11178
1.4380926,97.80902
1.4521655,101.66449
1.4586352,96.26918
1.3879529,97.74937
1.4346803,99.7654
1.3363714,94.12288
1.2475065,95.9714
1.2786818,95.01281
1.2079785,95.90589
1.316204,90.94242
1.259029,89.79155
1.1563612,93.83424
1.1389537,87.94713
1.1432489,91.5981
1.1201673,86.8355
1.0703123,85.1349
1.1567712,87.14268
1.1338047,88.62393
1.0380547,84.644264
0.94233125,85.45755
0.9684695,85.58313
1.0026282,86.284454
0.99237585,80.48682
0.822349,79.33812
0.7440541,79.82397
0.66570646,80.91013
0.6870644,77.425674
0.66236824,78.04912
0.66723144,80.09573
0.62607396,70.52297
0.637949,75.44957
0.54982424,76.51169
0.55877674,75.70731
0.6343555,68.22845
0.57513267,70.68699
0.49105427,68.33991
0.5562226,69.439705
0.53056765,73.38993
0.51451826,71.279526
0.47429124,69.60387
0.4858655,63.434612
0.35813457,72.290405
0.27869865,68.90328
0.31719455,66.874016
0.3672041,71.9821
0.22041546,70.44294
0.21257709,66.055664
0.0822161,69.56792
0.17894036,73.68774
0.10033212,70.01002
0.15977024,68.11113
0.15790996,73.86778
0.17745373,73.63148
0.22797057,69.99245
0.29359567,79.141205
0.3876103,80.13049
0.4797026,77.352356
0.5981589,78.98534
0.6876548,80.53884
0.73970217,85.50138
0.85678065,85.13944
0.9058062,89.6479
1.0006547,91.575584
1.0631824,86.00926
1.2245318,89.90862
1.3024164,89.38496
1.3472412,89.54035
1.3338667,93.15702
1.3456696,95.565384
1.4013121,95.86445
1.4771667,100.43752
1.4540577,96.160164
1.424808,97.98013
1.4591317,102.86771
1.4073526,105.16015
1.5225302,101.53208
1.4344088,101.77476
1.3792232,100.5386
1.4832138,100.739815
1.3824663,102.592636
1.3913578,99.908905
1.3398802,101.96255
1.3039869,103.208626
1.3742335,101.04904
1.3587023,102.713165
1.2852093,98.92999
1.237953,103.90451
1.1694591,101.25578
1.1391859,96.92158
1.1604071,101.02227
1.0433832,103.170654
1.0267087,96.756874
1.0139847,89.85754
0.96858895,97.18207
0.9318445,93.02483
0.9617495,91.848236
1.001976,90.0065
0.93916994,91.67763
0.9193664,89.13578
1.0440472,91.597496
0.9534479,90.38051
0.9416329,94.67727
0.9074342,85.42688
0.8666434,87.45131
0.77951866,90.63432
0.78744686,79.199005
0.7692106,81.92638
0.6705002,79.77542
0.5665878,82.2261
0.5356899,82.51868
0.55829525,82.658714
0.5154512,84.00836
0.53631014,85.01033
0.5297957,75.42772
0.49002945,78.82819
0.28254178,76.76164
0.3324965,79.56034
0.30014783,76.97629
0.38363913,73.106995
0.4357723,73.16295
0.3764369,72.735344
0.38890913,73.03147
0.31735882,70.06159
0.3309595,71.476295
0.32096896,69.15928
0.22942708,68.44236
0.29661557,69.6203
0.20326346,71.0184
0.20360106,65.13972
0.14656761,69.30103
0.08855209,67.598694
-0.044761337,71.060005
0.045717116,66.3132
-0.036305606,71.10268
0.0018708761,66.887924
0.015152978,69.56161
-0.07997499,73.44823
-0.09572552,70.22225
0.041653547,73.804955
-0.0023633775,70.89856
-0.027074583,77.31051
0.1763467,76.392975
0.1460632,73.84871
0.18918182,76.05122
0.42725658,78.81447
0.49388137,84.84503
0.5523745,84.49682
0.7427675,83.148346
0.77205044,86.551125
0.8406794,86.44157
0.95384616,92.44539
1.0281956,89.36274
1.0836357,89.13801
1.1189194,91.73155
1.2708417,93.99411
1.1940701,97.595055
1.3347852,95.96392
1.3562217,99.43209
1.2876747,96.61108
1.3788923,101.354904
1.3869923,100.97393
1.3284535,101.785446
1.3908597,100.0732
1.3707907,102.654495
1.2704502,103.41579
1.3401078,101.84865
1.3635869,98.99705
1.4110662,101.312035
1.3576574,102.00069
1.2596271,104.24066
1.2687415,108.59569
1.2075229,98.514595
1.1874971,99.782684
1.1160896,100.0035
1.1034019,98.45928
1.0422325,95.65928
1.085451,99.22899
1.0092736,101.37248
0.95768905,92.844696
1.0043051,96.514915
0.93887395,94.19049
0.90662843,95.269966
0.84966815,91.65638
0.99240977,92.043274
0.9543092,93.47878
0.9834432,91.19981
0.9211401,91.123924
0.8386584,91.87637
0.84252775,84.9352
0.86433405,87.37657
0.83481425,85.72222
0.79365575,83.74736
0.8449177,86.65511
0.7480778,85.2645
0.6966799,85.42087
0.60641056,84.92877
0.6518449,81.11665
0.58711994,76.05079
0.54498035,83.887665
0.52007747,82.004814
0.45540407,79.031364
0.4480752,77.15177
0.5253392,77.27786
0.42791355,75.18123
0.35976124,76.314095
0.3468018,73.918755
0.357704,71.13516
0.41593096,72.49531
0.44730127,69.26325
0.42036343,72.144844
0.3682344,73.31816
0.3917257,68.14338
0.3294526,67.55031
0.40186372,71.13955
0.31170583,72.60782
0.33033556,67.92465
0.23562647,71.77773
0.26469734,71.20404
0.19492526,66.15347
0.1859045,64.37363
0.087345555,69.96644
0.061669525,71.24078
0.12234504,73.148735
0.073331006,74.7632
0.16964357,67.69951
0.13961795,70.20422
0.2360186,76.21304
0.20314808,74.59078
0.294485,75.646614
0.2841854,75.42909
0.41592354,79.7582
0.48487204,80.38925
0.58891547,82.02559
0.6435756,78.68053
0.8338906,79.90318
0.9122383,86.62024
1.0203048,84.66234
1.0937364,83.46336
1.195475,87.638405
1.3395803,97.46595
1.2976574,90.91529
1.3060806,96.82833
1.4034737,99.08337
1.4911612,99.460526
1.5710568,98.25328
1.5477409,96.25975
1.5516405,96.16549
1.5977018,102.51456
1.5191518,101.17335
1.5855664,100.4626
1.5543474,97.727776
1.5035114,100.3836
1.5583177,102.73869
1.635685,103.4135
1.6320453,100.37543
1.534593,104.10276
1.5415788,107.0585
1.4233407,102.34097
1.4430828,97.9773
1.3230808,101.96251
1.3977776,101.612206
1.4585279,100.08664
1.3884248,94.00536
1.366674,98.19766
1.3124527,96.94533
1.3031869,96.289185
1.2492335,97.96563
1.2990482,90.04266
1.2799451,96.05777
1.2775162,88.1873
1.2186317,87.827324
1.2196956,89.995544
1.2475563,94.32711
1.1887188,91.15525
1.1714528,93.23697
1.2093577,90.67008
1.1210239,85.901
1.199216,88.59042
1.1316491,86.19999
1.1122248,87.53285
1.070497,86.63818
0.9909702,83.61636
0.97636676,82.06698
0.96995956,82.268135
0.87648004,85.18257
0.80591774,75.919914
0.85179496,77.68395
0.76525533,84.00621
0.77597475,76.5831
0.7078993,74.31801
0.6649834,76.307
0.67240316,73.5084
0.7283854,76.75696
0.69888896,75.18546
0.8061312,74.50997
0.7926896,70.75257
0.6789423,71.108925
0.70947015,73.41628
0.6683038,67.731445
0.6743655,77.973854
0.5847059,69.94278
0.7445944,67.71969
0.6534028,69.40272
0.4823666,67.64757
0.67038685,69.786736
0.524893,68.53993
0.48880354,65.56206
0.42925826,75.67339
0.4174441,69.74095
0.4537443,68.85881
0.3625748,68.000404
0.42728916,73.979294
0.4495615,68.420296
0.46491754,74.876526
0.4449056,72.04078
0.53221124,74.03487
0.6431065,73.86785
0.7362944,74.49564
0.8255146,82.46611
0.89922947,82.12552
0.96246934,82.16086
1.0955667,78.22009
1.2181646,87.30664
1.311174,90.00301
1.3788669,87.21941
1.3941174,89.03485
1.5437614,91.84634
1.6021706,92.28033
1.6712673,97.83985
1.6858727,95.689064
1.7911187,97.292336
1.8203262,101.625404
1.8766993,97.296364
1.8407954,97.717064
1.933869,101.00567
1.80412,102.06301
1.9701024,105.92561
1.8392748,102.62928
1.923071,101.09394
1.8494447,101.04228
1.9373243,103.81661
1.7984424,104.280045
1.8764459,102.50151
1.8398643,99.73275
1.7796501,101.247025
1.7910991,100.183014
1.743878,102.36819
1.7030966,100.32426
1.7670557,104.69098
1.6458895,98.60151
1.5801641,99.302925
1.5923469,100.92635
1.4923049,93.09033
1.5019591,95.35167
1.528713,97.875885
1.4931998,96.836395
1.4768585,89.64209
1.476833,92.90567
1.5357007,93.63061
1.4335352,88.373985
1.3608191,94.3124
1.4464744,90.045204
1.3819002,89.96784
1.4859036,87.0324
1.3280569,84.760414
1.3088914,89.25632
1.3267478,85.52696
1.315634,87.97637
1.2343061,81.96541
1.1651132,79.6012
1.2103839,84.80036
1.1394923,79.96921
1.0918783,79.6714
1.0435388,80.57626
1.0164891,84.40909
0.9313984,80.58188
1.00182,78.09879
0.95767033,78.08184
0.9556668,73.04973
0.91176236,77.27276
0.8973744,75.1566
0.9158221,71.53254
0.9230921,73.71585
0.84528744,74.78354
0.8786185,70.59005
0.927554,70.79323
0.8869597,69.89653
0.854336,73.64568
0.8599727,68.69416
0.7641451,66.32076
0.81092495,65.42572
0.6501834,68.95317
0.6588091,68.457275
0.6575987,67.6733
0.6748052,65.94773
0.6491523,71.192894
0.5760963,69.405334
0.5854562,70.3274
0.5745633,69.00661
0.659609,70.61993
0.60596615,73.02942
0.6019483,75.83513
0.64462495,74.317154
0.74543804,77.40206
0.8903621,72.12323
0.9718682,81.3687
1.0455914,76.54152
1.0479615,83.32425
1.1771007,77.050095
1.36262,82.828575
1.387632,83.47028
1.4974419,86.46715
1.5710826,93.60555
1.6634442,89.51111
1.7657998,91.313324
1.7091177,92.5838
1.7435577,94.04985
1.8661581,95.39125
1.8495255,96.24181
1.9700572,102.42101
1.9748164,98.73528
1.8569604,95.98414
1.98246,99.2768
1.9839233,101.34564
1.9186683,102.547874
1.9870507,105.928665
1.9723213,102.71517
1.842039,98.02086
1.9040426,99.32708
1.9524262,107.179825
1.8044312,100.545685
1.7866728,99.375595
1.8054972,101.02785
1.7467567,100.72659
1.7525357,101.28462
1.71697,101.748474
1.6950891,98.2227
1.6215844,94.02954
1.6425743,100.5958
1.5222973,96.898415
1.5167284,93.95213
1.4843616,97.2021
1.4661518,102.25968
1.41533,96.324135
1.4331133,93.48333
1.4473938,91.01162
1.4033995,93.72834
1.3599268,94.57579
1.4072671,89.16478
1.3907224,89.543594
1.3893015,88.71734
1.3056194,90.54242
1.3332596,90.43517
1.2588013,85.65444
1.2185231,87.53547
1.1976666,86.82222
1.1388274,82.34842
1.0710824,80.73328
1.0383434,84.21682
0.9996713,76.32249
0.93198586,83.40836
0.9070651,78.267006
0.9208341,77.85029
0.8300866,79.23758
0.72071344,77.23946
0.9169634,75.89294
0.82930213,74.3085
0.75913244,75.897125
0.82047915,74.92968
0.8078098,70.00685
0.7614792,73.01958
0.8097856,72.44363
0.83846647,69.27493
0.72757584,67.75514
0.7581814,68.83074
0.69821084,71.605545
0.76937413,72.08318
0.6455431,70.87899
0.61442417,68.69499
0.5655734,66.7618
0.5756232,67.277534
0.4596389,67.0967
0.37675056,70.85072
0.3309648,67.25376
0.41229045,74.13429
0.35201985,68.248856
0.38131824,72.49962
0.3664461,74.78231
0.4570845,75.45046
0.44794616,76.53077
0.5868891,77.92408
0.6618541,75.824135
0.68564224,77.89784
0.783186,82.00229
0.9055111,79.98968
0.9811712,83.913185
1.0766307,83.68306
1.132651,89.99789
1.2285982,88.375916
1.3270632,91.76471
1.4365923,94.23227
1.409036,90.827576
1.5296648,93.34661
1.59208,94.280014
1.5116856,96.67044
1.6558084,94.34226
1.682613,97.76984
1.7099218,101.25033
1.737767,100.288475
1.7012918,102.03409
1.7075573,101.61637
1.6307733,100.266335
1.6831638,104.7237
1.6052209,102.86953
1.664225,97.5547
1.6613885,101.57691
1.5611401,101.46118
1.6427196,101.76741
1.5602212,102.11885
1.5174351,101.69371
1.4880953,102.93627
1.4793857,99.95125
1.4331641,100.862434
1.3847337,97.44428
1.3230265,96.7125
1.3581979,101.15026
1.2448642,96.30731
1.2919364,96.148285
1.2782921,98.52609
1.1894022,95.17239
1.2056298,92.62086
1.2063085,92.773125
1.1580371,90.26331
1.1718833,95.576546
1.2137991,90.45407
1.1616795,90.24528
1.1050138,88.38218
1.092412,85.45454
1.0549089,90.9134
1.0836123,87.85926
0.99810636,85.44464
0.97321016,84.51806
0.8662618,84.74627
0.7621202,81.52824
0.85354596,82.65425
0.8174492,79.93468
0.7567213,83.63557
0.6491596,74.9419
0.5613035,79.71109
0.62249607,78.72448
0.5660359,75.22753
0.5241497,71.37066
0.52698314,78.07485
0.56021845,74.21145
0.46008128,76.32277
0.46076974,74.007614
0.5370259,71.161156
0.44788542,74.12603
0.5076582,74.47553
0.48772147,75.05788
0.44649565,72.70376
0.36985067,70.822464
0.4033006,70.680145
0.40381873,66.03249
0.23518592,68.016365
0.29076812,64.986115
0.21846469,65.00596
0.1688439,70.09085
0.1364829,72.85576
0.11366205,69.10029
0.058234114,64.26525
0.047275133,68.450424
0.123205535,71.56858
0.061437715,76.37443
-0.010247812,70.21942
0.12404503,68.80463
0.26629192,73.99721
0.26342797,74.27154
0.25467256,77.982635
0.31834662,80.90951
0.49151763,83.03045
0.5434944,81.216385
0.6079941,83.81658
0.6819073,84.43678
0.824298,83.48132
0.973712,87.3536
0.9964282,90.475
1.0458932,88.80716
1.1804171,93.28817
1.2488347,90.87992
1.2992496,98.08716
1.3261263,94.05159
1.2606465,97.39031
1.3455969,98.44058
1.4133645,97.18294
1.4059025,96.93092
1.445388,101.55052
1.4544052,105.20077
1.4168656,103.69381
1.4546275,103.598236
1.4147966,102.484436
1.4203184,104.43134
1.3804035,100.754486
1.3235359,107.82654
1.3470749,95.01403
1.3562362,103.461365
1.2418886,101.15765
1.2515616,101.478325
1.1946769,100.50768
1.2177067,99.41515
1.1965779,101.514656
1.1509287,98.587685
1.0328766,95.83666
1.0763481,97.50129
0.9885742,94.43258
0.98620474,96.00045
0.93781936,94.46536
0.9602448,89.178764
0.9330207,94.795555
0.883662,91.43686
0.9508284,87.53897
0.896865,93.11213
0.93902826,91.691574
0.9464901,89.42412
0.8104102,88.66009
0.8613983,92.28452
0.77963847,87.22937
0.7450414,83.33471
0.77884597,85.15213
0.6737753,87.4037
0.6676103,84.922516
0.58314896,82.03444
0.54521155,83.75217
0.55654013,86.41731
0.4612414,81.10367
0.40745613,79.06461
0.36011803,80.73754
0.43642816,81.33637
0.36306962,78.14669
0.32425782,76.15913
0.31696093,76.09843
0.31923229,76.06551
0.3462385,71.91984
0.36784333,78.34131
0.35947153,74.570656
0.41940963,73.698
0.3045619,73.05738
0.24173944,67.42358
0.18261242,70.57731
0.3089393,66.65481
0.30412474,76.6012
0.19831602,70.79491
0.20878157,64.64363
0.14862642,69.066055
0.068513595,64.385445
0.008060857,68.60222
-0.014840348,68.07442
-0.058705892,70.97964
-0.038584452,66.737114
-0.093720354,70.38024
0.008482114,77.786705
-0.07507575,72.18271
0.09459943,71.24378
0.14959373,72.08816
0.06355233,72.88182
0.263218,76.24684
0.25350955,81.88703
0.39180934,79.513794
0.4441704,81.69621
0.53000534,80.67864
0.66691595,84.73629
0.7609051,85.61086
0.8530033,90.49137
0.94536,90.79901
0.91973335,91.396324
1.056992,90.53422
1.1922745,93.43085
1.2226639,95.5502
1.2091607,95.7235
1.2993209,93.710594
1.2950766,103.14291
1.3528222,97.508514
1.3669922,100.46661
1.419062,97.891304
1.4018888,101.44104
1.5053763,100.75297
1.3616612,103.97434
1.4157661,100.94932
1.317253,102.98517
1.4058529,104.25083
1.423236,100.4917
1.4006562,101.42854
1.3515391,103.72644
1.2355684,99.51905
1.2745937,102.161385
1.1878356,101.415115
1.2258314,98.95224
1.1730694,99.28802
1.0961258,100.730675
1.0571005,103.89873
1.0234029,98.67577
1.0605956,91.33131
1.0888549,96.67373
0.98660755,95.000145
0.98205805,95.97222
1.0696542,91.809555
0.9523876,92.428566
0.9883201,94.38471
0.9789762,88.325554
0.97635883,85.70551
0.9853043,91.469284
0.9383574,92.52809
0.9556091,81.09992
0.90579444,89.42159
0.9678381,82.26817
0.9271682,85.04276
0.88253397,84.67293
0.74686956,83.11801
0.7827937,83.35692
0.7800374,82.73111
0.62688625,78.885506
0.6866129,82.265465
0.5632426,82.26107
0.5840893,80.04714
0.5179515,78.11427
0.5464779,78.02973
0.44282112,75.483795
0.47502384,72.52524
0.4911877,76.90794
0.42372608,74.04817
0.49988472,71.862564
0.4571155,71.537476
0.3430006,70.540436
0.46432295,70.98476
0.44046393,71.91957
0.44695446,72.10994
0.42914864,70.56038
0.5166632,64.61119
0.366181,68.1129
0.33889705,69.01572
0.36010197,65.95485
0.2978228,68.74208
0.27297613,71.856476
0.20220917,71.989914
0.19428952,72.186295
0.16262773,72.58315
0.1665451,67.79318
0.13188836,72.15327
0.2008745,74.44283
0.13313103,74.74885
0.33233026,76.05004
0.3890708,75.17095
0.421538,77.364395
0.50991553,81.11772
0.6115938,81.64518
0.6712399,79.972115
0.8034943,85.00268
0.90898025,83.3009
1.0114815,84.4155
1.0664132,88.770096
1.1301122,91.516235
1.202382,88.08014
1.3676127,89.718796
1.4374301,95.981125
1.459293,94.42675
1.4669586,93.625404
1.4896965,97.62266
1.5184023,96.12275
1.5980272,99.23235
1.5895212,104.41334
1.7182511,98.23834
1.6965842,98.054955
1.6761078,102.41385
1.684539,97.73548
1.6467112,99.33803
1.6443917,94.567116
1.6345513,105.30284
1.6619356,105.38741
1.5758358,104.42703
1.6513377,101.369354
1.6025399,100.39512
1.5109814,101.88075
1.5641898,97.16011
1.5151695,103.039925
1.4542887,100.6835
1.4637684,98.1133
1.4196627,96.517685
1.3361286,97.58131
1.3696369,94.310165
1.3780924,93.33056
1.2373077,97.4934
1.2537913,95.12226
1.3104463,94.021515
1.3030199,94.526
1.330547,93.40288
1.2981935,91.618126
1.2596849,92.666595
1.2891219,91.0992
1.2290703,87.96003
1.143725,90.9089
1.2439194,87.270805
1.2967699,87.99344
1.1687143,86.22545
1.1682507,84.394936
1.1319375,85.19023
1.0897533,82.92212
1.0628539,81.282814
0.9654491,85.84463
0.96077454,80.033394
0.8905433,81.437294
0.93370056,82.077866
0.8703103,81.25381
0.82870394,75.06852
0.8246084,78.88097
0.8024015,72.86511
0.8150296,72.343666
0.87024367,75.76125
0.7996613,76.33889
0.78546554,74.680244
0.8214711,77.8961
0.77845174,74.082596
0.7498793,69.00422
0.77621555,77.902435
0.7740359,70.90481
0.7412612,66.91542
0.727492,74.3012
0.6900895,67.79034
0.5892644,67.9527
0.58085287,65.88794
0.5470317,68.98523
0.4804964,73.72838
0.44603336,67.88108
0.4219134,72.97836
0.47599307,71.543365
0.40902463,70.611115
0.51591057,70.78029
0.45364803,70.50541
0.58467233,72.13573
0.59822655,77.69892
0.6388058,73.805954
0.7550064,73.52058
0.7913352,77.16114
1.0140826,81.47466
0.9962816,84.65303
1.1327933,86.57168
1.2148172,79.048485
1.2941147,84.26908
1.4337589,86.40863
1.5025744,89.76279
1.5837632,92.10379
1.6393737,93.04038
1.7052721,93.173584
1.8022727,93.791374
1.7647536,99.47299
1.9041394,99.56968
1.9292243,99.028015
1.9713703,98.628265
1.870084,98.387245
1.9284196,105.699356
2.034785,103.32204
1.9447306,100.221306
1.9134399,100.72445
1.9646765,102.96364
1.9219649,103.31875
1.8862262,101.18308
1.93101,103.490685
1.9016815,99.3811
1.8474548,103.31844
1.7462558,103.985634
1.7369555,101.62465
1.7057782,100.61351
1.6948591,100.169716
1.6427745,98.44849
1.6245679,100.969475
1.6018769,93.903175
1.6018647,95.92301
1.548423,96.610374
1.5329098,93.84626
1.4582667,97.0526
1.5443001,100.34153
1.5404589,92.878075
1.5213696,87.95583
1.409407,92.05221
1.4662341,89.88492
1.4220756,89.03192
1.5416607,92.76037
1.3488572,88.75794
1.4237815,86.6088
1.4196159,87.49965
1.3825732,82.23002
1.2670923,83.586044
1.3199654,81.798134
1.2603431,86.20797
1.1639751,82.9528
1.1104485,79.41716
1.0914103,82.145325
1.0902236,74.4126
1.0843852,81.34726
1.0545733,76.100296
0.9715363,72.18591
0.9650351,79.18189
0.9607323,70.684326
0.92356414,74.14852
0.9444284,71.62835
0.90837663,71.44147
0.9051522,70.22474
1.023921,69.12656
0.8841692,74.8714
1.0072306,67.90102
0.8424395,68.94028
0.9160063,70.04285
0.83633494,70.98757
0.80860597,70.51045
0.75705737,67.08582
0.68578815,65.37979
0.7028348,65.922066
0.6773366,69.8252
0.6709046,68.403336
0.554182,68.26067
0.4728338,70.52782
0.55845904,72.1537
0.49946743,77.191
0.5200081,72.374535
0.61263055,75.76093
0.60325,74.7411
0.5650825,77.73664
0.62593263,73.37946
0.847778,79.061104
0.926079,75.49324
0.88472694,79.80873
1.0526929,82.26831
1.1773294,81.9696
1.2788248,78.17595
1.3367897,85.73885
1.4482107,87.571686
1.4495345,88.11991
1.6057856,89.28675
1.6358781,88.65442
1.6707703,93.44843
1.762751,91.69655
1.7875558,96.68126
1.8428881,91.75939
1.8499734,98.78652
1.9329785,98.55472
1.8745514,98.23733
1.9084723,99.03516
1.9275339,100.55999
1.8994236,99.374725
1.8943068,107.514725
1.9191856,101.564384
1.8376431,95.83739
1.88195,102.7678
1.7961748,100.89301
1.8013412,100.39293
1.8192236,102.228584
1.7456917,102.79266
1.8161407,100.87459
1.7394246,98.93004
1.663025,103.54401
1.6641866,102.94053
1.5994887,104.83921
1.5220318,98.0338
1.5229115,95.10755
1.5357602,92.28038
1.5158329,95.54225
1.4480699,91.82712
1.4348392,89.67474
1.3897196,89.80779
1.413387,91.88247
1.3500893,92.01078
1.3173621,89.84678
1.324431,91.74666
1.3574216,87.06009
1.3292111,87.93502
1.3317862,85.317055
1.2468863,86.65438
1.2596292,88.219154
1.2116481,84.26618
1.2191579,84.01025
1.0273876,84.05705
1.0201646,81.55823
1.0082608,77.02639
0.8827363,78.76037
0.8677609,78.47694
0.8188998,81.24563
0.8196144,73.2323
0.818107,75.23227
0.85135,79.30907
0.74624586,72.87816
0.81742305,75.894844
0.802389,75.753006
0.79653263,72.54553
0.7111267,67.853455
0.712968,78.9169
0.7336051,73.162605
0.71921647,71.1565
0.77636695,70.92695
0.5415288,69.70294
0.6146309,70.3821
0.6385561,72.60048
0.5675215,69.4596
0.50750643,73.63934
0.46390674,70.406685
0.4502354,75.46393
0.33524156,72.73198
0.39605758,68.25371
0.3111896,69.53694
0.25272173,69.82405
0.34824413,74.074905
0.33007643,72.46089
0.33143368,72.6762
0.3937307,73.41121
0.44065848,74.36556
0.4496894,77.52479
0.5214423,78.09301
0.5511474,78.981285
0.6758294,81.510124
0.82738703,81.46007
0.85985935,85.188835
0.8907278,87.56561
1.0106483,85.498695
1.1274048,89.19702
1.1374819,88.62823
1.3516254,89.35747
1.2717488,92.59182
1.3736893,92.269646
1.4602808,92.3063
1.4776281,94.56981
1.654839,91.8025
1.5199019,97.55938
1.4797964,99.343124
1.554133,102.38709
1.6925546,101.375725
1.6554034,98.04532
1.6058705,103.48359
1.5864177,103.56059
1.6258473,100.95425
1.5125012,100.83369
1.5369598,100.61269
1.4863235,104.37641
1.5260146,106.64377
1.5049546,100.206085
1.4620495,98.91377
1.3820748,103.48536
1.4262612,96.20624
1.3187491,102.79603
1.3850037,100.92102
1.2862083,98.4115
1.2023892,94.48127
1.2482889,94.580666
1.2175597,96.243065
1.1855528,95.37141
1.143739,97.489334
1.0552545,94.58959
1.0733361,91.13674
1.0931797,92.56746
1.1225917,94.51639
1.1159241,92.66402
1.0215508,90.72611
0.9669009,86.62337
1.0069548,87.38622
0.99620664,91.07333
0.9174637,85.917656
0.88281673,92.10928
0.8635091,84.28563
0.9078763,86.66642
0.82142067,84.381454
0.7711487,79.70722
0.74826014,85.84361
0.6210568,86.18981
0.5408414,77.22257
0.59797376,75.81856
0.6436069,77.2168
0.50864273,77.68173
0.4280702,75.134865
0.4853085,77.499916
0.4253345,74.40203
0.4645927,74.46583
0.3924265,77.71883
0.4625301,69.23561
0.42089748,73.66465
0.47606957,70.1322
0.44331682,70.100365
0.38823348,65.727005
0.37566423,68.727234
0.3244125,67.771996
0.2605177,67.92952
0.26664644,72.55709
0.23267762,68.3712
0.18080837,67.27177
0.20771423,68.076775
0.1327082,69.987595
-0.013680108,70.24044
-0.011301456,69.35546
0.086811855,69.656296
0.038523685,70.94928
-0.09436665,66.80193
-0.023536984,73.308426
0.075619906,74.51744
0.09370564,69.34894
0.14705586,75.89809
0.1856043,75.13755
0.34181547,80.16864
0.39939404,76.42165
0.5092832,81.29249
0.60629445,81.45155
0.6913068,77.20809
0.7455929,83.07105
0.89941764,87.59429
0.8714629,85.93403
1.029505,87.52315
1.0518715,93.631874
1.1538743,94.71193
1.1853862,92.35225
1.3294368,98.19291
1.2788916,97.47121
1.2787855,99.13307
1.3308747,98.24185
1.2834135,99.33697
1.480857,95.35187
1.3832165,99.60368
1.3770483,105.52171
1.3875321,100.37837
1.3921736,97.41686
1.3591341,100.68278
1.304221,104.91815
1.3832595,102.396095
1.3154628,102.536606
1.2342962,102.20944
1.2204103,98.96321
1.2007345,102.92772
1.2940052,99.61277
1.118252,97.253235
1.1714927,97.09949
1.1196816,98.88872
1.0610089,98.734924
0.96048343,98.11608
0.95920444,95.98237
0.9984384,97.90969
0.94231963,94.70538
0.9266276,93.71055
0.9221676,93.15254
0.9075587,92.11372
0.86971027,92.62106
0.87120384,92.30719
0.891448,90.45446
0.8793268,86.96465
0.8115161,88.93115
0.80004585,86.04713
0.7947334,82.25529
0.78618056,87.99163
0.84790206,91.22741
0.74918675,79.61337
0.62003815,86.76011
0.5833811,87.14843
0.5254337,84.4085
0.61982167,83.693375
0.54331887,82.995514
0.5124215,78.54592
0.4306429,78.55767
0.42143133,79.951
0.38820097,72.7598
0.36475876,79.49242
0.33735782,73.8927
0.2952303,73.56759
0.31486833,71.441154
0.39754564,73.442345
0.2823032,71.375374
0.39387044,71.087204
0.35246655,68.53252
0.31359172,73.22438
0.22038394,72.33402
0.33660108,68.50133
0.26768756,72.02306
0.2554916,69.34974
0.16826966,69.23399
0.17381676,66.78405
0.06215533,71.97385
0.11275459,69.00973
0.06898619,66.29146
0.029659977,62.142506
-0.004234283,66.254265
-0.016604096,75.85863
-0.012779902,67.95311
0.005206143,76.68971
0.046266865,71.41956
0.11571133,75.93311
0.18488719,80.705894
0.28713688,72.74095
0.24105823,82.50556
0.40304932,80.10946
0.44222662,79.69664
0.53945076,80.27692
0.58893573,83.003494
0.7819892,82.36856
0.9245947,81.170006
0.99218386,83.37962
1.0060318,90.92919
1.0290189,90.056725
1.2210823,90.84083
1.1976871,91.50596
1.3064395,93.80978
1.2835027,97.204025
1.4558914,94.317856
1.4054146,95.80161
1.4633138,98.00988
1.4483485,97.76156
1.3964752,98.853516
1.5382292,105.41953
1.4728271,99.21846
1.4309827,103.197105
1.4073358,99.799355
1.417698,103.252594
1.424021,100.539505
1.4197919,101.45929
1.3937445,99.90946
1.4093843,103.00586
1.3293462,100.26098
1.4124756,103.71219
1.3848,100.38339
1.2662266,99.94082
1.2330806,98.868744
1.1893988,100.689026
1.1276795,97.299225
1.1784478,98.737206
1.1658682,96.344154
1.0608724,93.97374
1.1410917,97.62004
1.0267818,94.294556
0.9804057,91.50445
1.0931016,89.85274
1.0319049,92.46951
1.0050156,95.16288
0.9277444,91.21624
1.0089469,85.30067
1.0169089,87.05146
0.9499193,82.95755
0.9098833,91.165375
0.9160419,82.24648
0.8486078,84.48103
0.9129095,84.883194
0.7679525,81.553375
0.8274576,82.12982
0.77777296,83.95697
0.6583946,78.68052
0.72323674,84.12245
0.65412545,78.819
0.55749315,79.155334
0.5963095,79.97159
0.5244705,74.34245
0.5576245,71.63985
0.621244,71.42391
0.5201369,76.10591
0.63840264,72.73057
0.55431324,75.36799
0.6220847,71.63873
0.49655318,69.30145
0.48507276,71.61936
0.6038136,71.51133
0.47077844,65.81103
0.47698218,70.96825
0.42872712,70.620384
0.4679807,70.57683
0.43538675,65.945335
0.36639556,68.01691
0.2977352,68.61704
0.33358908,65.997925
0.25362557,70.59991
0.27637273,70.07505
0.26533473,68.773346
0.2329784,76.00313
0.32855588,69.97038
0.3342068,66.926926
0.35823533,75.577934
0.42304954,74.697586
0.44144467,75.38155
0.56373966,80.499695
0.6641065,81.00445
0.7160463,80.47578
0.8070477,79.0055
0.90843505,83.568855
1.0007683,83.951996
1.1398655,86.621025
1.1914061,93.76579
1.2618985,86.94517
1.3717006,89.18747
1.5075612,91.88561
1.4820201,96.70669
1.6331394,94.280235
1.6192994,93.7142
1.606076,96.060616
1.5327063,98.65498
1.6892699,100.03396
1.6183438,100.95281
1.71876,104.001915
1.7586727,102.634415
1.7862864,99.62621
1.8093129,97.683044
1.773904,103.790306
1.7802536,97.83922
1.7788643,100.90851
1.7988328,106.15382
1.6691036,102.24721
1.6125499,101.946
1.6073263,102.55657
1.6229157,100.51754
1.5404903,100.125114
1.5607309,96.99074
1.5144385,96.74289
1.5027026,97.28324
1.4905598,98.078545
1.4618185,94.48954
1.4929252,97.365654
1.5113832,98.88387
1.4117153,95.666664
1.3809966,95.38664
1.3576977,93.610115
1.4189153,97.4318
1.3133955,91.23474
1.367766,88.902695
1.3549151,88.739944
1.267933,90.98507
1.3574886,85.97253
1.2641534,93.73796
1.2979383,87.532974
1.2322294,81.399925
1.1951411,83.41385
1.2123345,84.445854
1.1385692,82.242165
1.1169912,82.20319
1.1380969,77.08397
0.98292893,81.0969
0.9869352,82.27827
0.93618906,77.20807
0.9607963,74.867035
0.9328452,76.053154
0.8894331,74.92829
0.80394274,75.42358
0.83035064,77.38044
0.86642027,76.84622
0.90887296,72.08637
0.8265024,74.3405
0.9158954,73.561356
0.83821666,68.96182
0.88179564,73.0731
0.88950115,76.202835
0.8585734,69.17043
0.79109466,72.89892
0.7865576,69.118935
0.70538634,67.829124
0.6957128,68.79469
0.6488787,68.36706
0.64540935,67.966225
0.5435928,69.31665
0.4939948,66.06205
0.49965936,70.62333
0.54147047,70.49685
0.582451,75.624016
0.4760766,67.94796
0.571597,74.62261
0.52492785,72.96282
0.67457044,74.85109
0.7251986,78.36922
0.7433607,79.94891
0.859744,80.770874
0.9404417,80.33308
1.0880679,82.90025
1.1205603,86.54524
1.2171463,86.95873
1.3726457,88.874565
1.4470286,91.643394
1.5638022,91.33356
1.6396456,88.36463
1.6763612,91.44614
1.7682302,94.90695
1.8118123,93.50202
1.8204626,95.207535
1.8374321,99.49855
1.9421741,96.28389
1.9947203,95.83723
1.9001158,100.15214
1.9022943,103.00847
1.9691317,104.13826
2.0044055,103.55888
2.0129073,103.69976
1.9136506,100.8424
2.0019772,105.09232
1.886542,101.60855
1.8880322,102.41055
1.886712,100.135086
1.8628651,103.12007
1.7519679,97.85049
1.7670478,107.453674
1.8087021,107.049034
1.7763885,101.41009
1.7698922,99.35638
1.6555109,95.168304
1.654646,98.63126
1.6256431,97.747856
1.5892137,96.7143
1.6376418,97.838684
1.5622059,98.8929
1.5904137,91.3051
1.5900635,95.414925
1.5003372,92.7534
1.5519271,92.6252
1.4945755,93.222084
1.4134012,93.266235
1.4399247,87.277054
1.5400304,88.381004
1.4207243,86.33175
1.440977,84.79598
1.3329206,86.831436
1.3103077,85.87442
1.2477038,88.13205
1.1414979,89.33903
1.2210994,84.11444
1.2344978,85.97583
1.0987607,80.08967
1.0631484,80.905205
0.99505395,81.3136
1.0141875,81.698524
0.9561111,78.68479
0.8993781,73.01711
0.92205197,75.145775
0.9246909,81.75489
0.8919649,74.97055
0.93693507,78.86256
0.8749327,72.47967
0.94201845,70.94002
0.9036052,69.9018
0.78438056,75.09864
0.76613957,70.31178
0.8394838,65.36272
0.7422447,69.13231
0.8165159,69.827034
0.75916266,71.24499
0.6993555,70.317314
0.7290292,65.97682
0.5653893,65.48775
0.6114997,68.62825
0.5056814,70.92112
0.5321952,71.038086
0.58843714,67.006386
0.46753266,75.814415
0.47786385,73.15039
0.5694591,76.7504
0.54568535,72.63487
0.6126499,76.17803
0.6171192,74.84204
0.656926,76.096405
0.77366793,80.986626
0.89401007,81.34381
1.0635607,84.403824
1.0993925,82.8219
1.1511402,85.31977
1.3099972,83.535805
1.3155419,90.3697
1.4153327,89.18716
1.4319104,90.73582
1.4978921,93.57914
1.6260937,89.48581
1.6800684,95.241516
1.7272329,96.26354
1.7854344,96.7437
1.7466089,100.193054
1.7317444,97.645355
1.8381083,96.45333
1.8053913,102.48784
1.9077716,98.89736
1.7922378,100.17087
1.8364567,101.942825
1.809545,102.016914
1.7468671,103.148224
1.7797366,105.296394
1.7614468,101.03
1.7881161,101.73682
1.7078393,104.1597
1.7329199,104.94713
1.6532973,95.80129
1.7191541,98.067635
1.5495327,98.88036
1.5938784,98.793976
1.4992975,97.122215
1.561863,99.69573
1.4839977,96.15586
1.4323483,99.32683
1.5429385,96.068924
1.3078967,93.43355
1.3482379,97.44029
1.2938815,92.86334
1.3740275,97.49327
1.3431562,91.186874
1.2503642,92.2006
1.3065886,88.80979
1.2906283,88.79897
1.2811325,85.96155
1.1939813,84.88579
1.2714654,88.15985
1.1142495,88.81012
1.0850791,85.75914
1.1168283,85.62904
1.011262,82.61627
1.0025861,82.060936
0.98105943,79.59665
0.79000115,82.1913
0.8187685,80.319176
0.7890886,81.29526
0.83474225,79.454796
0.75170887,77.80407
0.6654052,80.03637
0.6524867,76.16013
0.5939836,74.48399
0.68933195,74.039444
0.6669208,75.44584
0.66297996,72.60699
0.71060145,73.20387
0.54385257,71.921104
0.62021315,72.16096
0.60932934,71.70967
0.571077,71.286316
0.47994483,72.96751
0.48425704,65.17964
0.52483326,67.90906
0.40912935,72.61904
0.3656036,67.11455
0.4449649,68.776405
0.30924872,68.34427
0.35095832,65.737236
0.20487557,64.269844
0.24018276,69.95665
0.2000692,72.63487
0.2239039,73.995705
0.26819053,70.724014
0.25066394,69.581375
0.34735477,77.773705
0.27493882,79.284615
0.42940292,77.86178
0.48076838,75.305984
0.58080107,78.14537
0.5760264,80.88642
0.80835116,79.03802
0.8686716,82.42748
0.9637061,84.96743
1.0171316,89.888115
1.0237902,89.10348
1.129406,89.927734
1.2611314,89.87595
1.3967834,91.15373
1.3303785,97.32463
1.3696573,93.68834
1.3749664,92.30674
1.466056,96.5566
1.5324044,100.62482
1.5544158,94.519585
1.5788586,99.620415
1.5250958,100.8175
1.5555114,102.121605
1.5824554,100.976265
1.5043103,103.72431
1.491973,101.21343
1.4484656,101.13286
1.4728662,95.33038
1.4151627,99.64675
1.3848984,102.30982
1.362572,101.3449
1.2937421,97.98722
1.3096911,100.84713
1.2719879,100.33577
1.2930427,99.95466
1.2638075,101.22595
1.1801825,96.86054
1.1536735,97.23471
1.1501827,92.67675
1.1398757,97.75057
1.0700994,93.50082
1.0110077,92.19391
0.97200507,92.382614
0.97428197,91.065895
0.98904806,91.71135
1.0519849,90.60504
1.0290872,90.169914
0.981409,89.22785
0.8465051,86.848976
1.0049672,85.89846
0.87133723,90.32611
0.75489616,85.678085
0.8182732,84.83104
0.7519966,89.55516
0.78027415,84.370575
0.7515038,86.122856
0.5796741,85.99554
0.5754299,84.57341
0.514264,81.40303
0.48537442,79.83285
0.52256066,75.90712
0.44264746,76.18637
0.47834837,75.47566
0.4108582,83.05491
0.3953389,76.5021
0.3110915,75.46574
0.3329559,71.28913
0.37839416,70.25344
0.4170137,70.73194
0.34284174,73.55308
0.31717515,73.02422
0.34658623,65.92528
0.32256007,72.25081
0.32164028,71.42923
0.26850075,73.24696
0.28937793,67.85049
0.22227491,69.46708
0.16456026,69.612816
0.16984953,69.44815
0.08102853,65.30474
-0.04381768,71.077576
0.020978734,71.10781
-0.016914424,73.27069
-0.040592752,72.579315
-0.077116795,73.67728
0.0105917575,72.4974
0.049483225,72.45986
0.08524943,76.84915
0.08968567,71.86989
0.19623606,74.90808
0.21747899,76.4235
0.31564325,81.389565
0.53247494,84.337326
0.5489882,80.72211
0.6245288,82.54765
0.7390196,88.16251
0.7469354,84.65639
0.8480258,87.20976
0.9403671,92.15873
1.1114715,93.47976
1.0471114,93.642654
1.198656,89.497505
1.2166831,95.364975
1.3480097,93.735535
1.2941847,96.869156
1.2969873,100.12238
1.3528717,95.69992
1.3648975,99.99945
1.3794525,104.01347
1.3840744,100.41001
1.3315554,102.48584
1.352092,97.92635
1.4467195,99.68011
1.335676,104.74408
1.3634892,102.75864
1.2856886,103.02914
1.2370503,99.561745
1.3175364,102.282845
1.1461514,99.14796
1.1386887,101.30005
1.1548339,96.22779
1.0753801,99.59067
1.1276383,98.15674
1.1359848,93.868706
1.0282882,96.56136
1.1074027,96.23581
1.0658058,95.671936
0.97108436,97.05805
0.9495344,95.4837
0.91367215,91.91706
0.9634196,95.05031
0.9243369,91.87901
0.90474224,94.021736
0.85640305,87.80806
0.8618322,88.291954
0.92655563,89.560295
0.9580317,86.158936
0.8260839,91.60168
0.83918643,82.36541
0.7086653,88.705055
0.76907605,87.379265
0.6842574,80.89703
0.72588104,85.34872
0.62807107,83.155304
0.57179546,83.13625
0.50468475,76.14112
0.55516446,83.27062
0.41012377,81.23112
0.4793228,79.32971
0.38188356,82.59032
0.37083724,77.341515
0.39357325,73.945465
0.4400363,73.570114
0.39457542,73.129486
0.41689098,78.43207
0.34174466,74.901146
0.29576188,73.75261
0.34223458,67.28056
0.35247856,71.805855
0.3041051,68.9683
0.3536935,67.59696
0.31303558,72.395
0.3418432,70.746895
0.1821646,67.17711
0.24132146,71.37967
0.14492208,66.647385
0.16501327,66.42029
0.13164167,70.45118
0.020651018,69.351746
0.031850424,68.25444
0.03939585,73.125656
0.027227193,73.773254
0.044271786,73.30923
-0.0018569811,74.045586
0.08120869,78.096214
0.1808226,73.007454
0.24415489,75.35274
0.3567335,78.358925
0.3786617,79.58089
0.495705,77.76284
0.55111116,78.198
0.71745265,79.19849
0.75183946,84.75758
0.9008024,83.22874
0.946345,87.06386
1.0851467,90.14791
1.1538442,96.5763
1.205755,91.757744
1.2548788,94.23958
1.3266026,95.20462
1.3448122,95.72849
1.4026483,96.80937
1.4219947,98.214424
1.4412401,93.56794
1.5146998,95.3982
1.4691399,101.027275
1.5268565,101.98558
1.507142,102.72566
1.5850633,99.86305
1.5567373,104.34432
1.4738703,104.394455
1.5176151,105.603516
1.5267348,101.3902
1.4646378,106.09964
1.5001688,105.964035
1.4858428,103.30922
1.3795512,103.046005
1.3652551,100.47082
1.3573442,100.50657
1.3532134,95.922104
1.2675451,98.23777
1.325463,99.10954
1.2591895,99.354675
1.1720002,96.399124
1.1689602,98.690025
1.2134178,94.59185
1.1383252,95.78706
1.0149701,90.243904
1.1143019,90.76242
1.1029202,93.62395
1.1357641,88.00886
1.0542667,88.756714
1.118605,94.65588
1.1679739,83.42465
1.068618,85.82481
1.0397664,90.50207
0.99849224,89.14812
0.9768034,84.32764
0.91854507,83.94156
0.93439615,86.579735
0.8781376,80.951126
0.77892643,82.00966
0.7485434,86.14092
0.7345247,79.23081
0.6806145,79.0861
0.71365964,77.02764
0.6810268,76.77712
0.6365346,76.290825
0.66733056,75.53001
0.52859974,74.27888
0.6439871,75.528915
0.70849645,75.54143
0.6906857,69.37956
0.6732337,72.057304
0.65694696,69.41843
0.6108532,72.192
0.64379215,75.43778
0.6775072,73.88444
0.5979499,67.08226
0.56926715,69.32599
0.5458656,66.080185
0.48402524,74.47511
0.47912598,70.97769
0.42328322,67.83241
0.37438184,66.42018
0.31630388,74.99929
0.41712365,70.19755
0.41452274,70.944244
0.39409858,67.65361
0.3265804,74.081894
0.30677983,73.48813
0.39723542,73.001755
0.47378758,77.644806
0.53184724,74.1768
0.6164111,73.65351
0.78644603,76.0746
0.80017996,80.58735
0.9331407,83.6505
1.0219868,85.29844
1.0916584,82.17876
1.1546894,90.832504
1.1998606,88.49225
1.3322035,90.933876
1.4992907,84.893814
1.4834882,92.73054
1.6245681,87.38223
1.6119336,97.41773
1.7595334,94.17056
1.784409,96.016685
1.7642672,97.38049
1.8738405,99.82009
1.7498672,95.19665
1.8152245,97.46482
1.8881346,101.84066
1.889215,101.864784
1.8424772,105.21764
1.7911891,99.8004
1.7979258,104.289894
1.8232248,104.14911
1.8729378,104.779205
1.8473718,102.28816
1.7478087,103.70621
1.798226,102.17071
1.7370522,98.62705
1.738089,105.3164
1.7104485,99.728264
1.5882773,104.34169
1.5960323,96.66746
1.5372721,101.586624
1.4543606,101.76805
1.5086948,93.399826
1.513855,96.77503
1.5063246,90.034706
1.451577,94.3797
1.4889327,92.9739
1.4477999,95.175934
1.4652606,90.31417
1.4759182,90.661255
1.4811152,91.61471
1.4403073,87.3871
1.4003947,90.963684
1.3452063,88.90935
1.3145416,84.41155
1.4015034,86.029686
1.34603,86.17792
1.171985,83.45453
1.2008643,84.02774
1.1324633,81.939926
1.057223,84.85619
1.0565559,80.80197
0.95271224,77.70046
1.0763484,79.732376
1.008643,73.7194
0.9096678,77.08312
0.91744906,77.882095
0.93988705,75.87644
0.88626164,74.17968
0.8712087,77.15073
0.9946506,77.06898
0.91470706,72.35448
0.8881512,69.37022
0.9573687,75.210945
0.8663653,75.907845
0.8777346,67.09194
0.87221193,71.39976
0.76316106,69.69593
0.8128458,72.44336
0.77153355,68.66156
0.73711276,71.40076
0.6555228,74.30394
0.6566233,69.15315
0.6701241,70.414955
0.5465409,70.95737
0.6235922,71.35927
0.5418504,69.79048
0.52603936,71.25701
0.6270296,73.17024
0.6146851,74.022644
0.59302,72.920235
0.6121768,70.72093
0.70101565,76.12383
0.77154183,76.166374
0.8887018,77.88396
0.9527481,78.29635
1.0132501,84.35205
1.2013662,82.68515
1.2628664,80.440475
1.3357545,86.55989
1.4992112,87.3401
1.5123997,88.78623
1.6245695,88.155365
1.5876303,94.17975
1.6962419,92.22647
1.7847834,96.60482
1.785494,96.50052
1.8011353,98.50725
1.8595288,100.115875
1.862382,96.73534
1.9361376,99.6197
1.9357992,100.38364
1.9294587,100.84478
1.9836892,100.0882
1.9612949,98.31421
1.9533948,102.100494
2.0219893,102.318146
1.9497634,103.46119
1.9997824,101.31593
1.8862789,105.66121
1.8202865,101.423996
1.8690865,103.79693
1.7953469,101.006
1.8192303,101.78688
1.7013999,93.35787
1.7298508,96.941826
1.6627183,99.97683
1.592902,101.55668
1.6799287,98.720406
1.5700601,96.825485
1.531533,96.65837
1.512471,96.41771
1.5504206,93.13698
1.6109012,93.41161
1.4680727,94.86269
1.5039744,92.90701
1.4223459,93.87118
1.4145331,92.11003
1.4249631,88.82361
1.4602134,92.279015
1.3880771,86.49993
1.4747546,88.47095
1.3835775,85.84528
1.3018438,84.06017
1.2985032,89.43807
1.2539474,80.02796
1.1036382,84.505035
1.0836793,82.62727
1.0948869,80.88947
0.96794504,85.07432
0.98957956,81.382835
0.9735057,82.042725
0.90702283,75.39185
0.9786369,73.69964
0.8087476,77.96088
0.8337499,77.82844
0.8244734,74.25032
0.8336347,71.710205
0.8613782,75.274574
0.824558,78.39052
0.8274777,69.32589
0.8274579,71.16728
0.8680071,71.75351
0.8349104,69.0433
0.77589357,67.65367
0.70568687,68.539444
0.6847721,71.231316
0.65763557,72.58866
0.58858603,70.89489
0.66784614,69.9115
0.50505805,64.03455
0.4867397,65.12997
0.42388168,72.708466
0.4463417,71.669464
0.5425646,69.4141
0.36534017,72.38242
0.43336418,73.010826
0.46719435,70.58674
0.521251,74.83283
0.5370114,77.001884
0.66040534,71.74846
0.7375508,77.42018
0.79575324,78.18458
0.8971815,84.38015
0.9496694,81.69434
1.1013324,80.37745
1.1578403,85.43413
1.2664453,87.342445
1.3396901,88.17004
1.3526387,83.709625
1.4818408,91.46971
1.6370472,94.37735
1.6427509,95.97588
1.621169,93.49182
1.6750474,95.03244
1.7486558,98.76234
1.7198842,99.10599
1.6861988,99.455826
1.7567852,98.04999
1.8577446,100.54564
1.7267748,101.40675
1.7920594,103.51018
1.6928022,101.880424
1.7084451,100.13847
1.7812179,103.70806
1.6888785,108.59257
1.7173978,105.55902
1.7031034,101.67943
1.5640508,106.58718
1.5097002,103.41117
1.5867724,100.610146
1.5929991,104.96679
1.5345296,99.76492
1.4796308,104.29461
1.3909299,94.86178
1.3410671,97.632614
1.3333727,99.73659
1.2747127,94.70931
1.3256626,98.21038
1.328746,96.343315
1.2304013,94.20758
1.2650698,93.0468
1.2350485,89.35147
1.1431606,87.03305
1.1117679,91.44227
1.1540844,92.32314
1.0684692,89.31244
1.0235581,91.201164
1.1233407,84.224434
1.0555038,86.69429
1.0314312,88.641136
0.9181424,86.25424
0.9449877,80.68565
0.92892796,82.798065
0.79063016,82.98436
0.76259035,77.337585
0.78560305,81.26709
0.69877124,81.192184
0.72333574,80.682304
0.6349978,79.51142
0.50568384,74.71354
0.57447666,78.8812
0.56298876,74.17565
0.50575703,73.98735
0.5746714,75.64468
0.52415186,71.88436
0.5246293,68.97745
0.53852373,74.8294
0.5276073,70.79178
0.5900581,68.6204
0.58272266,66.770004
0.43681777,67.39
0.4297257,65.449875
0.4388359,72.1573
0.4231674,67.0785
0.3100776,66.51247
0.4039627,67.85779
0.22320662,71.91707
0.26065832,74.87641
0.13637225,72.695496
0.07068848,71.70055
0.068022996,68.21601
0.09329271,66.10017
0.09962411,73.81174
0.15028702,74.275024
0.31875736,77.25454
0.29703444,74.90234
0.3695575,78.87376
0.43190396,81.78452
0.37896147,80.62433
0.5109684,78.22856
0.6662071,78.928154
0.69963795,78.299385
0.8877652,85.196365
0.87021273,83.72052
0.99440426,89.579254
1.1208138,89.003845
1.113506,91.55467
1.2702206,91.8012
1.2736558,90.29659
1.3034202,96.174446
1.2821237,92.20041
1.296174,102.82757
1.4294468,101.35798
1.3848913,99.17899
1.4072535,102.59253
1.4263496,97.40517
1.5283926,104.245186
1.5323977,103.519424
1.4353814,103.45723
1.4382643,110.52836
1.4312197,103.649
1.4174006,104.00124
1.3434104,99.14501
1.3401948,98.06879
1.4269451,103.5751
1.283881,102.48636
1.2297806,99.26125
1.2179081,96.39845
1.2239188,97.01416
1.1672931,95.103134
1.0555634,93.64481
1.0888373,96.34442
1.095773,99.424675
1.0485764,93.73421
0.99290514,96.33001
0.9558261,94.22306
0.8847442,91.84854
0.9956581,95.17849
0.99195075,96.90113
0.92089134,92.18779
0.91979164,88.85804
0.9315482,91.470894
0.96577716,86.36711
0.88681453,90.06281
0.8000783,87.47553
0.8183068,87.88901
0.7780467,86.82331
0.6675988,84.54488
0.757992,85.15484
0.64380676,79.84075
0.5562839,81.75131
0.61010885,78.20587
0.5382874,80.11936
0.45074922,82.61125
0.4815135,80.53104
0.36523032,75.02296
0.33514208,76.07648
0.36117682,75.109344
0.39193028,75.12262
0.3053143,76.68609
0.3469289,75.56975
0.37478423,71.72661
0.25637817,75.72739
0.32358295,72.1484
0.26673675,74.480774
0.375149,71.18819
0.3374205,68.167366
0.20592336,73.29018
0.24677058,70.88439
0.23928586,70.683426
0.15402003,72.30326
0.10175761,71.80238
0.040518183,70.74388
0.05777553,67.40881
0.027677858,73.178024
0.06175037,69.348564
-0.0966922,70.12839
-0.0039809644,68.84166
-0.08362558,71.4437
-0.038818527,73.396935
-0.008694541,75.07485
-0.010603521,72.108444
0.022194196,76.10495
0.09603048,74.49676
0.24199712,79.04726
0.3137406,78.897545
0.4524432,78.93426
0.48469603,79.937416
0.5307768,85.03302
0.7035956,83.986176
0.75733495,88.836555
0.8245073,84.71346
0.910319,84.67679
0.99987143,91.524376
1.1433282,91.23322
1.1356403,97.90406
1.1874688,94.993095
1.3290168,97.97332
1.3517256,98.698006
1.3290303,98.75844
1.3834302,101.46906
1.3894458,98.25117
1.402773,100.646515
1.3363534,105.50113
1.3157874,98.48214
1.3937144,104.40279
1.3483928,107.145905
1.2946497,102.76495
1.3355508,102.943985
1.3237447,103.46409
1.3774731,106.72655
1.276851,100.9388
1.3479493,101.98814
1.2514048,101.94591
1.208796,98.198364
1.1495062,95.52911
1.128857,101.666565
1.1145507,101.87402
1.0670655,95.89706
1.1118034,97.759445
1.0054699,99.027916
0.9897691,94.86124
0.9585848,96.78765
0.90922254,94.23479
0.95293695,93.29299
0.9433035,93.61794
0.90551424,92.87668
0.9543912,88.71321
0.9076543,91.88043
0.9507469,86.66984
0.90272737,85.16099
0.8909302,88.27553
0.8519766,86.213524
0.74070024,87.41319
0.7962898,84.053986
0.76093894,85.88927
0.7398439,85.15916
0.59099305,83.54799
0.64325887,83.01577
0.557777,77.34371
0.5464336,83.48058
0.5079413,75.79655
0.43453515,79.59498
0.43494374,78.67282
0.43756837,76.64888
0.4932436,77.57714
0.4843002,75.01096
0.3152297,74.35963
0.43971696,74.70802
0.39490885,70.90811
0.39134613,69.8171
0.41541973,70.32949
0.35309792,72.73025
0.45721102,71.143005
0.43580323,68.430855
0.32951415,67.67082
0.28207022,71.73074
0.32323772,66.35371
0.3470965,69.04184
0.25916725,66.221855
0.2065305,69.54798
0.15006417,67.86155
0.15047118,70.12919
0.04545198,64.73449
0.15039606,65.95759
0.089719504,75.21802
0.04172724,71.77958
0.070774704,78.972015
0.10743783,70.587975
0.24308321,78.62958
0.33757037,75.67829
0.45231497,77.179306
0.50962555,83.205734
0.56095684,76.93699
0.6323957,78.223236
0.8205649,80.390434
0.74583334,82.22049
0.9219204,87.50805
1.0846899,87.33837
1.1175295,90.75854
1.3043505,90.96799
1.3672785,90.397026
1.3436984,92.28384
1.378891,95.66787
1.4477127,94.20349
1.4620179,92.018936
1.530125,95.00638
1.638573,102.322624
1.5563899,100.720894
1.5503752,100.96146
1.6333361,102.02237
1.604807,101.25867
1.5269266,102.194695
1.6186056,101.05539
1.5941664,101.85585
1.602128,99.734055
1.6085203,100.943695
1.5395801,107.706635
1.5591408,99.25382
1.4117651,99.79288
1.369982,99.93432
1.4014254,102.639206
1.455977,103.896484
1.4179847,99.08406
1.3781005,97.931015
1.4339682,102.8497
1.3821689,93.19829
1.3140424,97.36086
1.2966189,98.91669
1.1672592,98.55431
1.2584797,98.42793
1.2502805,88.659325
1.2333013,94.53317
1.2087771,90.54855
1.2308561,89.28177
1.250575,91.38865
1.1645696,92.235725
1.1881002,88.60693
1.144129,83.0054
1.1288142,88.53255
1.0776598,86.369995
1.1091306,86.154495
1.0205722,80.52433
0.9964151,85.59657
0.9600548,84.31264
0.91713643,83.33174
0.8783325,82.51589
0.86208105,84.41727
0.8451438,81.126274
0.7745466,76.53708
0.8275894,82.19305
0.7943881,76.22078
0.73042864,75.39648
0.7118204,81.33834
0.7410783,72.575226
0.7616427,73.024155
0.79857993,76.4268
0.7456238,73.4234
0.7615612,73.99345
0.73156947,71.07962
0.7237493,73.7555
0.7011706,66.96189
0.6456387,68.37687
0.5995107,71.609184
0.69157535,69.97135
0.5838446,70.69744
0.48270255,69.505005
0.5146291,66.88218
0.5061027,66.52067
0.44170406,66.13152
0.4038044,68.31102
0.4307704,69.52424
0.39239454,68.73633
0.45228225,70.18073
0.42574334,73.31051
0.49032745,72.18271
0.55204856,68.51012
0.53162044,71.69238
0.63496375,76.596466
0.7723109,80.93997
0.8753134,82.300934
0.94230944,83.647446
1.028699,83.32084
1.0689509,81.204185
1.195235,86.611694
1.242175,83.503365
1.4307135,84.59005
1.529254,92.93625
1.5613648,90.63871
1.7018703,92.508064
1.7408494,95.24663
1.7564317,94.67513
1.7988098,95.52408
1.8340129,96.59233
1.8651298,102.60354
1.8155702,100.30043
1.866381,96.98258
1.9928375,99.16103
1.8986177,102.51961
1.8940313,100.67445
1.8655807,100.49543
1.8560576,102.019196
1.7979289,100.67891
1.8486555,99.83147
1.8570509,101.5711
1.7800659,106.359695
1.7446105,102.09854
1.8199712,101.18382
1.7228664,99.76115
1.7034255,103.097534
1.6806577,99.97196
1.6682912,99.18177
1.5796013,99.54855
1.5963293,93.24803
1.4993117,98.09317
1.6087416,98.59026
1.5094507,94.35572
1.5163139,91.06077
1.5083592,96.82405
1.4988078,93.084305
1.4850106,89.39792
1.4276664,85.397095
1.4691826,92.80268
1.4148915,88.40644
1.4201819,89.00228
1.3839679,89.739265
1.286906,89.21259
1.3554014,82.63706
1.3335057,87.51468
1.3229898,85.774994
1.2108631,86.81855
1.2228034,83.607216
1.1981277,83.140144
1.0983475,80.07991
1.1260366,82.22623
1.0257692,81.16493
1.0348073,84.99062
0.95249325,78.30756
0.98672867,76.20627
0.9544406,79.92032
0.96401876,74.405716
0.958494,72.81064
0.9544234,72.76611
0.87083447,72.481445
0.96733826,75.90478
0.9434907,73.75039
0.93231046,71.558495
0.86670077,70.96442
0.88430053,69.8796
0.8144097,70.72249
0.80238557,67.55443
0.7428396,72.720856
0.8310832,68.096176
0.779662,71.18388
0.6650023,67.83227
0.63309807,70.22674
0.68667734,67.293724
0.5731997,73.42669
0.54184836,70.61949
0.61123675,70.9481
0.5264155,72.01269
0.56123376,68.86528
0.60740644,69.8041
0.6465522,73.34294
0.744083,74.753
0.7449209,80.27432
0.798873,78.87877
0.92260754,81.15868
1.0433761,82.34289
1.1130862,81.30089
1.2052885,81.74386
1.3662603,83.2745
1.3981519,92.99186
1.446439,87.999176
1.5394391,89.18911
1.6696721,93.905045
1.7447406,96.56505
1.7361125,96.619354
1.8049239,100.46792
1.8638569,95.74935
1.9109089,99.289696
1.9679551,96.43053
1.9309149,95.07113
1.8793923,99.166756
1.9313145,99.63603
1.910543,101.941956
1.8574133,103.87629
1.9566163,101.09606
1.8679054,100.83294
1.8773828,107.19635
1.8670374,106.190834
1.856497,104.14879
1.8416905,99.420006
1.840652,103.10182
1.7593145,99.01193
1.7745973,99.2462
1.7590932,99.66531
1.6868336,99.361374
1.5841312,100.26927
1.6200358,97.89409
1.5658399,98.97991
1.5363581,96.39151
1.6072379,99.248665
1.4779764,95.32908
1.5093305,99.07029
1.4689019,91.96529
1.4631327,90.216125
1.4728026,93.21253
1.3835795,86.558556
1.4470891,87.04661
1.3619626,93.20832
1.3656789,87.95587
1.4291488,91.1171
1.2675391,85.046776
1.3749067,88.82719
1.2643383,84.56041
1.2328306,84.97926
1.1701404,86.434105
1.1215092,82.52181
1.0986264,85.96412
1.0751139,82.587845
1.0314693,82.80757
0.8961209,76.3637
0.92680544,77.00777
0.9352347,76.382835
0.87150484,80.44513
0.80882573,75.00876
0.79553086,75.636925
0.8252253,78.63162
0.75668603,71.844406
0.79827297,72.65542
0.7460067,67.565704
0.796962,74.690605
0.7810899,75.97743
0.73014545,69.5624
0.719361,74.756516
0.7117209,69.66264
0.72173965,69.86334
0.6290786,70.04562
0.5855429,69.95331
0.5777462,70.08381
0.5074001,68.944084
0.41608748,68.589645
0.41059184,70.20653
0.41426405,67.42384
0.42791867,70.33968
0.33926827,68.845474
0.23708737,73.81237
0.41090962,72.69603
0.39321586,74.154434
0.33783183,75.44303
0.52122575,79.76746
0.57077724,75.26996
0.6615653,77.355286
0.6416069,79.27855
0.82209826,79.49011
0.8204489,80.05075
0.9953221,83.95389
1.0288072,83.0592
1.1657928,90.27474
1.2496656,89.27161
1.380225,89.74159
1.4238002,90.51711
1.4632616,98.41591
1.4700178,89.8024
1.5799263,94.90767
1.5330983,94.90044
1.5777149,96.33246
1.7084166,96.00127
1.6245672,98.09966
1.652591,100.42382
1.7294985,99.007034
1.7154125,97.75897
1.5832708,96.96553
1.5972251,102.018555
1.5938324,98.691765
1.6356173,100.50795
1.6790533,100.23035
1.6420689,101.48326
1.5051135,105.43073
1.4947492,102.114716
1.5345911,98.353676
1.4345163,104.44892
1.5076951,101.89978
1.3663226,99.00269
1.3730633,97.41295
1.3518078,95.329056
1.2996314,97.72954
1.3225863,94.91484
1.2678561,97.31088
1.2199501,95.10377
1.2300434,97.30389
1.1977276,91.301834
1.1096374,92.40462
1.1055324,92.560234
1.0341233,90.41591
1.1484256,88.532295
1.0737624,91.8494
1.0807999,84.92191
1.0405976,90.18409
1.0930848,83.576805
1.0046074,87.754105
1.0303675,82.15955
0.8776476,88.90475
0.86848235,82.78572
0.73510164,85.103775
0.87532496,82.103355
0.7476129,83.63534
0.7261337,81.17598
0.6257713,78.89146
0.63311195,79.7496
0.5114726,78.2463
0.58519554,74.73201
0.49544203,80.691795
0.4984407,71.27767
0.5050568,75.30739
0.44390604,73.85624
0.54102385,76.77076
0.53142947,72.26509
0.48652524,75.989456
0.43663102,74.03003
0.40398604,73.11846
0.4145468,67.44307
0.40018517,69.270996
0.36922124,70.96807
0.36013764,68.72168
0.30980572,71.71809
0.36141017,69.42222
0.10882487,70.67199
0.12571533,66.268135
0.11528165,65.53308
0.05136262,66.72547
0.016532917,71.76883
0.11129485,70.66202
0.093766004,71.257065
0.096679494,68.75876
-0.029224325,76.16154
0.06504847,73.76883
0.16208291,81.093765
0.2807694,80.050415
0.3577957,79.79265
0.38709944,79.25115
0.4673631,81.11379
0.49353784,81.124794
0.6236611,83.309074
0.76496524,81.60672
0.7666579,80.788284
1.0309757,87.453064
1.0228379,89.335846
0.9898657,89.359566
1.0943483,91.75521
1.2188694,90.792854
1.2858951,97.174225
1.3613447,99.48093
1.38074,98.50817
1.3576605,94.22406
1.4106354,95.41279
1.460823,97.58965
1.3871498,101.07646
1.42047,103.61398
1.3337346,100.41976
1.3867577,98.71184
1.4129443,100.48193
1.2866826,101.97398
1.4202311,104.748985
1.3863375,100.768425
1.3087804,98.59727
1.291581,102.612045
1.2618929,100.58822
1.1786484,104.42767
1.1623656,98.38075
1.1544615,99.23503
1.2002332,100.71691
1.0893047,97.80817
1.0829575,100.34745
1.0133977,96.110664
0.9446079,96.327675
1.068155,99.60046
0.9555665,98.610886
0.9677957,93.06155
0.9209853,90.56445
0.8960074,90.92677
0.87956,93.92197
0.8883734,93.21678
0.8471636,88.78271
0.91262066,93.72659
0.8461744,89.610664
0.77481586,91.99557
0.79294556,87.36394
0.7316416,85.394775
0.6941058,86.66875
0.63387305,86.25248
0.5582637,80.87959
0.5882819,88.43005
0.62787706,79.72143
0.47205576,81.46916
0.4534953,79.08043
0.43178684,79.29519
0.36778834,76.77413
0.3337602,78.05036
0.35413343,79.6819
0.3297131,75.97189
0.41008008,75.14937
0.29905102,74.99979
0.4399497,76.29302
0.33809555,77.31465
0.32485488,75.46619
0.321735,70.67878
0.3650223,69.09075
0.34878486,72.89601
0.23818444,73.81847
0.31473103,68.23023
0.19732602,71.75349
0.2242855,69.2014
0.14004348,72.481995
0.1041719,67.27253
0.110900074,72.99972
-0.00073848065,68.88297
0.06768292,68.07855
-0.10096279,68.59464
-0.08349588,68.78323
-0.041249435,70.76975
-0.06804539,73.45232
-0.02777454,71.65502
0.036829807,69.89246
0.046774287,73.04915
0.17541088,73.09381
0.23940377,76.946495
0.30838546,78.544556
0.36196092,79.332375
0.46117973,80.32752
0.6263698,88.684395
0.6841691,78.86839
0.83938354,81.73263
0.8795251,86.86683
0.98624337,87.26836
0.9409023,90.72309
1.112563,94.35685
1.1565675,89.76024
1.2033416,95.95298
1.2511451,91.44092
1.3204473,96.03863
1.2663641,94.21319
1.3600721,99.76486
1.4015015,96.59897
1.4082315,101.45558
1.4101442,97.78863
1.4293176,101.355446
1.4327116,101.99988
1.4409333,104.58496
1.4099296,100.59545
1.3204198,101.79473
1.3176485,102.76762
1.301889,105.020485
1.3332639,102.05526
1.2773162,97.43655
1.2580756,99.4935
1.2894763,105.44832
1.2295797,101.16267
1.1329113,100.03617
1.187241,98.01857
1.1721278,98.01739
1.1453127,97.416214
1.0796356,93.835144
1.0515276,93.76578
1.0596772,93.72518
1.0549707,90.44073
1.004147,90.53876
1.0262178,97.31256
1.01366,90.32224
0.9802633,90.382065
0.990047,93.13229
1.0088341,85.873695
0.9918215,85.41097
0.93670934,85.30114
0.96322125,90.40244
0.91011065,85.780266
0.7335894,84.67882
0.7929705,84.238144
0.7320206,86.631325
0.72894126,82.23453
0.7275926,84.92322
0.7151193,77.0118
0.6304748,77.59343
0.6539921,83.350426
0.6190097,75.816124
0.5273198,78.79799
0.56007963,74.19071
0.5177836,75.892685
0.5104259,71.01334
0.47283164,76.37643
0.5203271,75.459854
0.50285363,70.24664
0.4118372,70.83606
0.41756752,72.54836
0.4833899,67.460686
0.48581466,69.203354
0.53298974,71.85725
0.45367622,69.60271
0.4707967,65.09603
0.45966446,69.36661
0.32295656,66.96686
0.35223228,71.77584
0.21126164,65.68329
0.16147143,67.17615
0.24555346,73.395134
0.27229723,66.92715
0.18034138,70.20705
0.15107942,76.55644
0.16716935,73.70926
0.17084733,72.04278
0.3834734,73.54723
0.34871864,80.87929
0.36640993,75.38329
0.42116687,74.33732
0.6017932,77.6124
0.64633125,86.213394
0.7866405,81.93414
0.8281992,80.20936
0.935804,79.0172
1.0820464,87.6842
1.1083899,82.493286
1.218133,89.23539
1.3139676,91.56832
1.3629519,88.979
1.4374477,90.70512
1.3952217,94.73252
1.4992825,94.739204
1.5957812,96.62319
1.5686626,98.95947
1.6337988,97.228584
1.6527992,98.10613
1.753918,102.611275
1.7636954,94.915985
1.6318233,101.94593
1.7088434,103.955246
1.6888851,101.65514
1.7141968,103.84477
1.6474127,107.79818
1.669652,102.82138
1.6865103,101.18808
1.5825609,103.929
1.6771923,102.98067
1.5640571,100.04695
1.5312011,103.93254
1.6211094,102.443214
1.4622256,99.08543
1.5632007,98.32689
1.4133328,92.33061
1.45109,98.41392
1.4571729,94.31023
1.3702322,95.11094
1.3736812,101.09946
1.3542572,90.810555
1.3240848,96.037605
1.2863116,90.36246
1.2798101,97.23054
1.3382431,93.659744
1.3100544,88.90019
1.2725662,86.394585
1.2685982,86.83222
1.1573864,88.5622
1.2309917,90.12211
1.1968744,84.349846
1.1827494,84.521645
1.146778,79.8329
1.1300876,86.96102
1.1061776,80.4512
0.99762875,78.74841
1.023135,81.19822
0.9434156,82.16329
0.8260394,80.769806
0.7823166,80.733864
0.81556904,74.20446
0.7512582,76.9903
0.79808235,77.01863
0.8308875,74.08361
0.79213345,73.46129
0.76839185,74.55334
0.82785654,71.30298
0.808328,69.55866
0.7282491,72.02487
0.80961305,72.57029
0.7428117,70.887344
0.8423353,67.26587
0.76000446,70.12365
0.7577785,66.757866
0.7085421,65.52325
0.6776214,71.72777
0.63959503,65.59215
0.5146315,65.65003
0.53949606,68.22766
0.6065398,62.538578
0.4847957,72.03003
0.49507347,71.98169
0.4754159,67.902695
0.43444973,64.83572
0.44077578,73.23458
0.56817436,74.74027
0.50885594,78.01519
0.5820111,74.437065
0.69119835,79.286354
0.8240448,78.835
0.87103003,76.86179
0.95083624,79.222534
1.0179437,84.082794
1.1635326,82.66828
1.190356,84.61792
1.3780925,84.27677
1.4420233,87.774376
1.551419,90.06088
1.5915375,91.17686
1.7372351,94.59146
1.661358,91.08126
1.8132888,87.93728
1.8939656,102.019226
1.9320705,96.77282
1.8603207,100.61728
1.8993835,96.71515
1.9275364,99.92215
1.8888786,102.66389
1.923888,102.264305
1.9855075,100.27419
1.9729915,101.45764
1.9480681,97.58177
1.9917446,100.23934
1.9345884,101.225365
1.8899041,103.929504
1.9410461,100.29611
1.8124145,100.473465
1.7884996,101.299774
1.8240885,97.95537
1.7817247,101.27871
1.6435539,99.23065
1.674217,98.35403
1.6099343,97.45052
1.6541324,97.0489
1.5320783,95.52038
1.6402165,95.57778
1.4683851,96.323875
1.5547991,92.78738
1.5907035,96.40279
1.5392255,92.21683
1.5999963,90.15597
1.5200012,94.94114
1.508319,96.61094
1.4418467,89.07112
1.4361691,90.01225
1.3945267,88.19049
1.4188764,83.3289
1.4342214,84.13699
1.3220776,85.865295
1.3037626,84.56041
1.259285,85.43712
1.1627715,72.9744
1.1923373,81.92639
1.093605,84.56596
1.0971731,80.2888
1.0152956,81.134026
1.0754577,79.00749
0.9926196,79.45806
1.0021762,76.90804
0.95135444,73.67488
0.951501,81.75985
1.0102855,77.30069
0.84444374,75.52996
0.9200695,69.5605
0.8552426,67.150185
0.9500673,72.03924
0.9403093,74.774666
0.89463866,70.243904
0.8703153,67.822426
0.865303,67.489975
0.8685252,71.98845
0.8393917,73.4072
0.6960485,68.02891
0.7566642,67.36141
0.68427444,72.952286
0.6146387,71.78119
0.5881601,69.09732
0.53135645,74.568115
0.5136371,70.34736
0.4367606,72.609344
0.5113183,67.78932
0.5748088,73.559326
0.565169,66.452644
0.56804377,77.33324
0.67510736,76.53462
0.78099513,74.3846
0.79382956,77.68795
0.8696833,77.4851
0.98119867,84.61332
1.0524399,83.013115
1.1431016,81.61318
1.2244358,87.899796
1.3667276,85.512405
1.483729,90.100655
1.5661236,91.88901
1.609024,92.76891
1.6132776,95.05829
1.6302929,94.035355
1.6922625,97.4134
1.8203114,101.18558
1.7946393,95.12477
1.8318844,99.541794
1.9370813,99.15651
1.907606,102.03436
1.9139979,100.232704
1.8917483,100.90634
1.914841,102.540405
1.9175161,102.58388
1.9245491,101.91909
1.9311279,102.228584
1.958848,101.08709
1.8716885,100.383934
1.7670742,105.06657
1.7844968,101.24497
1.7793666,98.68917
1.7214074,103.25701
1.7092055,100.54643
1.6763167,104.60878
1.5294912,98.85518
1.5323474,98.28618
1.5463837,98.5043
1.4331262,98.56255
1.4929297,97.034485
1.4473861,94.279854
1.475045,96.32196
1.3667307,93.623505
1.401022,90.356
1.3762755,94.24401
1.3922206,92.802956
1.3651016,88.92541
1.3231646,87.16812
1.2961166,87.69229
1.2895269,87.23817
1.2345078,91.7389
1.1872311,88.11344
1.1822354,84.20821
1.2302064,83.53753
1.0867854,82.2012
1.0739439,80.65188
1.0035063,85.09039
1.0525923,87.11212
0.93857616,75.88155
0.80793434,82.732735
0.8932717,83.2085
0.8797242,76.86385
0.7733674,76.73773
0.8433299,71.65786
0.77094406,78.737656
0.64229876,73.58889
0.69596887,75.0042
0.7475737,74.69046
0.69419533,72.82068
0.7561245,74.186615
0.7192245,72.66558
0.67699325,73.57658
0.6940375,70.44978
0.634381,68.44111
0.59706515,67.46127
0.5218083,70.63319
0.48770759,60.434734
0.4655763,70.860756
0.49464285,71.645935
0.4428706,67.92859
0.40149996,69.607635
0.29338366,70.94384
0.37557444,72.31334
0.2972878,68.92869
0.33940166,71.442986
0.19836843,70.98154
0.29243597,69.45633
0.31432676,75.383224
0.4026246,72.15408
0.4731723,78.184135
0.47691607,74.44227
0.5768073,80.674446
0.7215513,76.501175
0.7975829,80.47761
0.76603186,83.36751
0.98741806,83.18064
1.0294408,90.23615
1.1307358,90.67704
1.1961625,91.145004
1.3224126,87.18703
1.2921288,89.30639
1.377765,92.67239
1.3855147,92.59621
1.4468372,96.08186
1.5195603,93.03489
1.5425385,95.75818
1.6490065,102.9647
1.5182272,104.407585
1.5936748,100.461586
1.642983,102.07229
1.6072787,105.51991
1.5631995,101.66049
1.5164456,102.41425
1.5558103,101.52638
1.5201433,102.1115
1.6101447,103.19862
1.5438777,103.302605
1.4424237,99.82004
1.4092356,104.22903
1.3896935,103.57884
1.3167018,101.98642
1.3212541,98.52148
1.2893395,101.45211
1.2938129,97.85161
1.1828064,99.15088
1.2267439,97.96918
1.136787,97.12828
1.1479969,100.10025
1.1295713,98.321495
1.1361226,89.65075
1.1121051,94.39421
1.1306614,94.58489
1.0383538,95.6243
1.0103283,91.63206
1.01817,91.10704
0.98639536,92.819786
0.9837519,92.52428
0.9586174,89.977264
0.90736735,82.71036
0.9832187,84.78343
0.7867377,83.899574
0.8043192,85.754845
0.7456798,86.42776
0.7144082,78.67993
0.60285187,89.96807
0.6349011,79.45263
0.64967185,75.41104
0.48389128,76.91071
0.56591415,76.1986
0.47091737,75.50875
0.49831095,78.953964
0.48877025,79.2052
0.37117693,75.784
0.4586773,73.29529
0.43909705,73.74377
0.41952917,70.80593
0.4133297,73.69846
0.40231526,72.68085
0.39472795,74.411705
0.3676553,70.08084
0.35985515,70.3301
0.3187139,74.45836
0.2257258,69.528755
0.23693134,68.03825
0.12688756,71.22264
0.11470079,68.74481
0.12071362,73.38188
0.16044897,68.791626
0.039512448,69.45363
-0.038589098,69.74784
0.01690668,70.871506
-0.0039868685,72.44779
0.029434538,71.134315
-0.0006556979,77.6374
0.037496213,74.61978
0.049536932,79.30624
0.1839978,76.114655
0.23006521,76.24251
0.33052897,76.36454
0.4182072,81.64324
0.5123945,82.487465
0.56504446,82.77314
0.67090887,84.682106
0.7829295,87.67578
0.80997515,90.4677
0.8721043,87.64626
0.97667277,88.94233
1.1536258,94.08261
1.1917207,96.567
1.197359,92.44077
1.3062423,93.21107
1.3135662,94.72796
1.3087156,96.63332
1.3264029,101.591446
1.3612962,98.47063
1.4094135,100.21588
1.3885894,101.75848
1.3674438,104.48946
1.4090295,100.18355
1.3626684,103.83827
1.2888368,102.194824
1.3872721,104.07063
1.3097421,106.446945
1.2815312,105.0116
1.2831382,103.62471
1.2649735,102.00786
1.1934814,103.8433
1.2392182,98.726234
1.1857204,99.186005
1.1686311,96.197296
1.1227069,101.354904
1.0165081,97.30669
1.0856223,97.313126
1.0493934,96.248505
0.9749891,98.26139
1.005902,94.545334
0.9713425,96.999344
0.88822657,92.666374
0.95005965,89.76344
0.9941802,89.659676
0.89804417,92.001144
0.91485846,90.67043
0.81359166,87.40772
0.8579085,89.72956
0.86744165,88.26133
0.7290961,86.08203
0.76064914,86.06905
0.7528783,84.05043
0.69505745,85.328094
0.6528081,82.01598
0.6088252,82.0386
0.59830505,84.2598
0.60579914,81.72315
0.47687396,80.74643
0.4755811,80.06137
0.4448662,77.54242
0.3967453,80.23763
0.42463395,75.93457
0.3534411,73.48263
0.30229697,73.205666
0.3516267,71.67001
0.23600161,74.42515
0.3020699,74.05288
0.32631707,76.71572
0.35341585,70.8895
0.30214253,72.375824
0.3258273,65.628746
0.29281172,68.96478
0.28758067,70.31806
0.29901817,68.24415
0.22369213,71.858215
0.10650266,72.009705
0.117957234,66.2404
0.09140701,66.970314
0.117621295,67.62695
0.0012535715,67.83447
-0.0066569257,69.10765
0.07818966,70.64676
0.0073537333,73.04361
0.066600464,68.7558
-0.02082433,70.17616
0.0025101372,74.59026
0.10333372,78.42766
0.1793728,73.9126
0.24167223,78.63503
0.20856728,80.12115
0.37021586,83.08522
0.47706679,81.43675
0.6450848,84.57742
0.67705536,81.08349
0.76804477,83.67751
0.8823272,88.63256
0.9743933,87.478584
1.0913068,91.526695
1.1863871,92.88636
1.189461,91.75832
1.3147533,95.13045
1.3668132,95.5664
1.3826705,96.194954
1.3484448,101.17408
1.3707633,95.74923
1.4104602,99.16806
1.4632663,98.09681
1.5080926,97.35868
1.4382714,105.21477
1.4616401,102.80045
1.4217825,98.34943
1.4427,102.00734
1.5239079,96.75384
1.5036075,102.77514
1.497737,96.12484
1.407461,100.75941
1.3531901,102.437775
1.3129505,100.400566
1.2946372,100.92505
1.2389851,100.16159
1.2226561,99.527306
1.2375329,100.531075
1.1253128,99.39896
1.2267953,95.64355
1.1180828,95.29429
1.0987258,96.08446
1.2003217,91.383385
1.1736125,93.10258
1.0880427,90.52402
1.1245292,95.85453
1.1579642,93.78445
1.0754467,93.36052
1.003266,91.15899
1.1251819,86.678375
1.0750314,85.33398
1.0267143,90.563
0.98811686,88.57929
0.9938592,84.38528
0.9567231,85.77308
0.83335656,86.961044
0.90014845,81.02832
0.8373505,80.098595
0.83926356,83.69146
0.7038372,80.86434
0.6425738,78.301285
0.63504475,76.08348
0.57377046,79.65615
0.5906621,83.46263
0.6551894,75.91266
0.6003868,72.41175
0.55556816,80.27075
0.61265945,73.476395
0.57784194,78.51592
0.5546515,73.92416
0.66675305,71.2267
0.59973925,72.8587
0.65243477,69.844124
0.6201509,68.26048
0.6032499,70.93754
0.58140165,69.21974
0.5394906,71.39898
0.48404807,67.16326
0.45103425,66.68709
0.4225952,71.42202
0.4060996,65.540344
0.3424555,64.92343
0.31668237,67.18344
0.2918175,69.25456
0.25662532,70.73129
0.35345218,70.21259
0.22001739,71.23272
0.2779734,70.83384
0.2875135,76.13995
0.3310616,75.14193
0.41453454,78.10373
0.45125005,74.91602
0.6134531,80.91087
0.72460824,79.107
0.74555767,83.89223
0.88482296,80.3212
0.9959475,82.11862
1.114953,84.55175
1.1792002,83.223366
1.3094331,87.415596
1.3849739,94.08816
1.4322765,88.24095
1.473009,90.65638
1.5854849,90.86799
1.631044,91.90652
1.6356839,94.765915
1.7142519,99.98633
1.6688122,99.14561
1.7364135,105.12054
1.7456354,104.164345
1.8051635,99.92956
1.7801623,100.2263
1.7301735,107.912094
1.8222073,104.68445
1.778661,105.971794
1.7741736,101.49896
1.6668546,99.60653
1.7521759,103.92128
1.7753727,100.392914
1.6975017,102.53125
1.6615136,97.82395
1.7053922,107.3489
1.6357793,97.97874
1.567394,99.533455
1.5930792,103.908554
1.4497916,99.06171
1.5177985,103.189316
1.3922108,99.694756
1.4756935,93.39833
1.4200165,90.36143
1.3572633,97.525894
1.3158171,93.825386
1.41972,96.279686
1.4022319,92.194595
1.3887019,90.22794
1.365087,89.586075
1.3448284,92.55282
1.3887217,89.860054
1.3055696,87.85231
1.2890587,85.33022
1.2573831,87.4103
1.2867849,87.467476
1.2358732,84.39198
1.1543374,84.680504
1.0813702,86.200005
1.0851048,80.97953
1.0696251,82.69735
1.0455353,78.7957
0.99625605,76.12789
0.9040813,76.75752
0.8827639,79.010025
0.9095304,73.68427
0.86551464,81.14136
0.8560871,79.70652
0.89425766,72.70252
0.8564625,77.53366
0.8062821,74.62919
0.85224664,71.23253
0.7968133,70.309006
0.8740544,68.061455
0.853369,68.113884
0.78542805,66.518196
0.77841645,70.39194
0.8332258,69.294815
0.8479193,71.79192
0.6631594,69.41782
0.7474239,66.75561
0.6816351,70.76331
0.61570954,67.951614
0.5843354,69.2007
0.55500317,70.5103
0.5283256,68.36714
0.5167953,74.45274
0.510335,72.36581
0.5941561,73.11758
0.51660454,76.8775
0.6113363,75.45665
0.6207201,74.35908
0.7333634,75.96115
0.7756464,80.8736
0.87009585,77.63916
1.0537161,75.45279
1.0951933,78.16895
1.1419477,78.25932
1.3048202,86.112206
1.3720908,90.101715
1.5025802,87.29215
1.5899403,86.51956
1.7006694,88.668144
1.7638918,89.97865
1.7379696,91.17967
1.8874907,92.904884
1.8706603,97.42574
1.8684841,99.02297
1.8835338,95.54042
1.9359856,99.683624
1.9421067,101.373665
2.0634542,103.386925
2.0028794,94.05047
1.9249666,98.25745
1.9648678,100.62686
1.9285666,104.69093
1.9106796,105.69142
2.009974,105.54935
1.9409347,97.34768
1.8390422,98.391594
1.8837205,100.14552
1.8917457,101.66386
1.7449119,99.35379
1.7185398,103.1193
1.7683513,100.84044
1.696889,99.87332
1.6882563,96.81272
1.6119221,96.25324
1.5805013,95.18366
1.5955888,94.464554
1.5578419,92.26944
1.582825,95.86104
1.5751842,94.96671
1.4609123,92.07191
1.6367623,91.02406
1.5348052,88.34063
