ppg,abp
1.0912589,87.9702
1.1034873,90.230064
1.1443664,94.051155
1.2784512,98.77824
1.2890258,96.823265
1.4374161,102.28654
1.4643823,104.25644
1.5343113,106.287315
1.5210963,103.51177
1.617894,105.53798
1.6561228,102.870575
1.6155763,114.8766
1.667768,104.60099
1.6226485,113.60624
1.6882894,113.77377
1.6486315,107.9552
1.8467001,114.66716
1.7361518,114.457054
1.6852733,121.11167
1.7336705,113.71194
1.714031,114.48706
1.7281475,117.075386
1.7145851,115.71015
1.7118694,113.45303
1.604081,115.66427
1.7190367,112.11466
1.6316055,114.14812
1.5753148,111.52325
1.6281826,111.78928
1.5144873,113.31381
1.4293332,110.877815
1.4863447,108.519264
1.5281825,109.28209
1.4834124,106.63015
1.3712382,107.6337
1.4098465,105.055756
1.4174101,104.15888
1.4004692,105.08357
1.3473845,104.267166
1.2856767,104.87248
1.3862087,98.88634
1.4028997,98.88678
1.3695635,99.51244
1.3642951,99.27904
1.3582673,94.368004
1.330052,95.15671
1.3051736,94.18083
1.3077471,94.57212
1.2846373,94.724945
1.2642521,94.6549
1.224106,87.79642
1.1699926,91.913414
1.09554,87.46828
1.0857353,84.45877
1.1010001,85.62899
1.0840657,83.51973
1.114485,86.62044
1.029931,83.23887
0.95617306,81.81664
0.89465225,79.00626
1.0568641,77.01019
0.8424354,82.51726
0.89651924,77.04099
0.87158227,78.16782
0.8168139,74.133644
0.81508195,72.71414
0.8197544,72.963455
0.92103827,69.45116
0.84448,71.16352
0.88014007,70.305954
0.85714614,66.42334
0.91920143,66.93257
0.81725204,68.26141
0.89856833,64.43081
0.8045037,66.57675
0.8435199,63.05106
0.7636731,62.92097
0.6978948,64.81115
0.6788656,62.072475
0.6380399,65.31891
0.6795532,66.16228
0.5020946,63.961205
0.5349523,61.653965
0.5554595,61.670887
0.49523067,65.817375
0.49087742,64.56699
0.4711921,64.333916
0.54367745,66.35016
0.5672249,68.76825
0.5266919,72.57464
0.581139,74.11805
0.5953173,75.87127
0.6206913,80.01649
0.7512788,74.9355
0.80435663,75.50158
0.9205757,82.29353
0.9585179,79.0896
1.0699556,82.59738
1.2272458,82.59243
1.2680215,83.25051
1.3369772,92.74189
1.3583466,92.67252
1.4520378,94.770905
1.5640007,96.11096
1.6586955,95.38567
1.6453464,98.372826
1.7955202,101.19021
1.82521,105.04781
1.8306998,105.02158
1.8458005,102.24187
1.9086509,104.135796
1.9740709,108.88558
1.9968779,106.99082
1.9521366,109.2376
1.9851981,107.30769
1.967737,109.6599
2.021068,115.35131
1.997574,112.26909
1.8879842,116.62274
2.0200024,112.498604
1.9479839,113.80268
1.9215697,115.2074
1.9336493,118.22463
1.7920029,116.818726
1.9169996,113.90095
1.8911318,114.3522
1.8393345,109.61332
1.8130511,110.60241
1.7742357,111.92629
1.6714939,108.43899
1.7228074,115.157585
1.7225704,112.10888
1.6435853,104.819885
1.6358982,106.7885
1.6169919,111.524216
1.5868151,106.69359
1.5278727,103.68716
1.644499,103.51489
1.583445,102.51886
1.5618054,96.655624
1.4830804,99.46799
1.5595154,105.94575
1.5105567,93.93708
1.4933814,103.24294
1.5086962,96.47643
1.4901595,96.65511
1.4444532,95.57513
1.3907834,95.00667
1.3506635,93.28499
1.4086908,85.47193
1.3438194,94.93687
1.2156924,85.52526
1.2026612,85.40938
1.1748775,84.6008
1.1872052,80.88314
1.071529,79.486015
1.0493712,82.69135
1.0618179,81.64047
0.99714226,83.3203
1.0179213,78.77986
0.97367054,79.17839
0.9332143,74.68937
0.9882319,74.74285
0.99286044,75.60872
0.8786475,76.93221
0.87327254,70.31207
0.9733389,68.12615
0.8374147,72.68863
0.8641732,68.35487
0.9287837,70.30865
0.8603326,66.641075
0.8026964,65.544525
0.85450834,65.504
0.9062194,67.18287
0.8714121,65.91329
0.7117086,57.938244
0.71906483,65.56257
0.7265732,63.071236
0.77258116,66.8395
0.636739,64.71243
0.66217583,64.55873
0.56148994,64.374535
0.54440093,62.50092
0.45184907,67.94262
0.51021874,66.39893
0.55069953,64.49452
0.39726305,65.14259
0.4860165,68.3663
0.5212859,71.94872
0.5087657,74.98235
0.56641006,70.52028
0.53511494,72.77759
0.6094676,73.26637
0.75265956,75.200516
0.7802941,79.179955
0.80031914,75.348
0.9774459,82.81056
0.98255485,82.43039
1.111048,81.16426
1.1467967,90.130714
1.2350914,88.13674
1.3397276,94.588974
1.4061202,93.72826
1.429934,94.58128
1.5025145,97.46489
1.5758351,100.53075
1.6549149,99.17554
1.7026758,106.640724
1.7131727,106.2369
1.7209891,105.734795
1.6810265,110.31655
1.7658157,111.68366
1.7472982,116.163734
1.8172004,108.97171
1.7591642,111.01486
1.7783666,117.80324
1.8455215,114.19953
1.7319878,117.41882
1.7776659,115.513596
1.7738457,119.11327
1.7846788,113.683395
1.7355689,113.90566
1.8327472,120.09327
1.6679835,113.986725
1.661798,110.90593
1.6826884,114.82573
1.6410019,111.58702
1.5576111,113.123665
1.4941205,114.537384
1.4676832,113.812744
1.4726312,111.25935
1.4688214,111.884415
1.4196407,109.067505
1.4546145,108.196175
1.3742226,105.05565
1.2874166,108.76942
1.3231091,102.76518
1.3137655,109.38887
1.2356715,96.93234
1.2998661,98.13197
1.2291274,99.67425
1.242723,100.83014
1.1741259,101.04227
1.2396692,96.18046
1.2966864,97.358696
1.2146088,97.18865
1.1699502,93.39727
1.1042436,89.65852
1.1317537,93.59229
1.1041042,89.82814
1.0422689,91.69306
1.0182115,88.0601
0.956442,88.56506
0.9163477,86.22135
0.8709886,85.520256
0.85735124,82.00739
0.8394888,81.69307
0.83588636,79.28178
0.73588693,77.909515
0.74592674,81.12903
0.625294,81.08509
0.6348138,77.66256
0.6525733,74.21717
0.5643467,75.33912
0.61601394,72.91708
0.62470084,74.39603
0.5170008,75.95978
0.5083607,70.87025
0.5261339,69.07196
0.57027894,71.280045
0.55957603,68.31387
0.56254613,63.53447
0.55787784,64.01034
0.551582,65.57985
0.44166017,66.48648
0.48344046,64.233795
0.4083051,65.60262
0.37302685,62.376587
0.37653047,59.437366
0.32101732,68.370384
0.21659453,65.01055
0.2158918,64.06049
0.25053686,62.80621
0.12970945,61.683727
0.1654776,64.67456
0.15959372,64.59255
0.09344883,67.07777
0.07889689,64.895836
0.14531206,70.71309
0.16792987,67.20836
0.16412097,69.59693
0.26191875,69.91914
0.27870053,75.848175
0.3608233,78.19044
0.3943287,74.09705
0.40475923,79.578156
0.58776766,76.14093
0.61106026,86.28733
0.7859857,85.36395
0.8194781,84.817764
0.83573717,90.30276
0.96176934,96.37448
1.0668716,92.16978
1.0234325,99.99507
1.0830225,101.24705
1.2162242,99.60731
1.2791656,102.89861
1.2969925,104.573135
1.3493127,103.616135
1.3571293,108.22966
1.3670799,109.39653
1.3322808,108.29323
1.4271551,107.99538
1.4214345,110.697365
1.4925162,110.47745
1.4162391,109.99814
1.4636238,114.92972
1.4610033,109.32858
1.4872398,112.82632
1.3881818,118.61219
1.4471898,119.61148
1.3494097,115.81621
1.3509501,114.09691
1.4114757,109.32355
1.3765159,113.293655
1.3295864,108.727264
1.2594017,113.24981
1.3018632,112.88125
1.1830032,115.95937
1.1529022,111.91181
1.2314508,112.058044
1.2050896,107.09184
1.1574733,106.764404
1.0720853,109.28447
1.0771086,106.96735
1.0072418,108.08089
1.0151637,105.02053
1.0115831,103.61607
0.8633825,104.642265
0.9943527,104.99321
0.9529976,100.54981
0.949832,98.135956
0.89605993,98.8447
0.9223869,96.94303
0.8819788,94.64915
0.8937459,98.70046
0.8699792,93.787384
0.8469447,90.586136
0.84340906,94.75107
0.796871,91.17244
0.8041852,92.491264
0.6971839,90.363174
0.7241318,83.798225
0.70570195,91.62455
0.64022505,88.673584
0.63423663,84.23983
0.49079746,78.61736
0.5300294,82.30278
0.47790408,84.22093
0.4507348,73.090866
0.34693676,79.712555
0.38285443,79.92512
0.3333814,79.74404
0.45223215,79.65771
0.33458295,71.26613
0.34256542,71.935005
0.3898256,68.48026
0.3851518,68.36953
0.33781,68.7164
0.35923067,66.00832
0.4231035,67.06131
0.26117367,68.682144
0.3133026,68.78808
0.3357447,69.70841
0.28410214,61.695877
0.21120565,61.85656
0.22705008,66.266594
0.14472102,64.060646
0.20120507,67.62355
0.028733954,66.64713
0.10634369,65.940384
0.03327151,61.809254
0.050514955,62.40541
0.01880637,63.382183
-0.081620604,60.10786
-0.03324903,69.71471
-0.11805007,70.37479
-0.02166996,69.01371
-0.062145628,66.856094
-0.043854576,67.96176
0.048536766,75.19043
0.07940471,71.004616
0.16282144,72.30264
0.14138435,77.796265
0.2519756,73.79979
0.2937083,82.03141
0.34036958,80.84446
0.5141602,82.28818
0.5687853,85.99608
0.70464855,89.204
0.7057906,89.76814
0.78443176,91.6447
0.84778374,89.58806
1.0223337,93.3546
1.0131004,99.57374
1.0397888,100.9401
1.1517578,102.947395
1.244661,104.494286
1.2908435,102.91774
1.3138783,104.75429
1.3708867,106.54515
1.3765138,109.94664
1.3157725,114.894615
1.4067189,108.47252
1.3352376,113.4621
1.3488934,110.74582
1.3770657,114.30813
1.4286094,118.07713
1.4057995,117.00872
1.3585329,116.657616
1.3646356,112.899704
1.421175,113.774216
1.3310534,117.34175
1.3383689,116.05047
1.3531191,117.06492
1.3572446,114.25442
1.2317231,111.85441
1.2483311,112.82892
1.2501844,110.66124
1.241114,115.0515
1.1531178,109.22658
1.1646575,107.54099
1.1267351,106.55267
1.0752975,107.00779
1.0770239,103.23209
1.1027315,110.243866
0.97890764,108.343
1.0578185,108.61936
1.1096405,105.665886
1.0379387,97.44895
1.0004882,100.63796
1.0525444,100.60916
1.0214303,96.33236
0.97834116,98.16538
1.0113407,92.484665
0.98694074,94.898865
0.8869379,93.432556
0.9849377,94.29884
0.97858703,90.22142
0.85640806,91.77304
0.8399161,90.51205
0.8787789,83.2425
0.79700375,83.82229
0.78643256,88.66911
0.7554008,86.34603
0.67920274,83.598206
0.6444232,84.70933
0.6179998,83.08128
0.6297635,79.99028
0.55453384,80.87712
0.5542652,79.253746
0.50062126,75.95889
0.48371586,79.6283
0.49041852,72.56676
0.5402535,73.52359
0.47412607,73.895966
0.5131283,73.19194
0.59864736,69.53176
0.5034077,67.687805
0.49128368,66.28498
0.53927284,67.385124
0.4509553,66.5494
0.492367,66.09776
0.42648613,68.438416
0.5201579,62.193947
0.37533277,64.70932
0.44889042,63.2963
0.47004357,62.549423
0.32748577,65.23439
0.40997797,68.52359
0.27776775,62.954094
0.35604697,61.867847
0.244412,63.60467
0.1833137,67.24854
0.2289729,68.01058
0.16223449,67.02604
0.1668333,65.40336
0.19240847,63.194138
0.15531404,70.67577
0.25132543,68.24034
0.25165328,68.72125
0.32305384,73.43153
0.41993257,76.19026
0.50139415,76.86077
0.54170877,78.59414
0.6076134,80.75977
0.75053054,86.043816
0.7184389,86.42741
0.9180163,88.27755
1.0008035,89.64483
1.0203958,96.53728
1.1585914,91.010254
1.1811969,91.09026
1.3054956,96.7754
1.2855783,103.57235
1.4180176,103.93776
1.4323612,101.444046
1.5641413,100.20303
1.5886945,101.043724
1.535185,108.386345
1.6206604,109.96966
1.6670632,110.94059
1.6998948,108.49959
1.6691132,112.280235
1.7395278,109.06469
1.7378623,115.38247
1.7473183,112.68649
1.7380483,108.33046
1.7158359,114.96988
1.709785,113.58926
1.6771014,118.17822
1.713274,114.06186
1.6916763,113.83318
1.667728,114.07599
1.7029172,115.3227
1.6396675,113.752426
1.612657,113.92314
1.5649754,110.78668
1.5700117,110.26104
1.6105032,115.60572
1.5114262,112.77537
1.5069153,109.101204
1.4170709,111.61467
1.3819568,106.892876
1.4407915,108.42707
1.4137957,107.05037
1.4785857,105.07015
1.388256,101.17223
1.3530431,99.14907
1.4194021,106.05616
1.3115325,97.8433
1.2375422,101.23144
1.2816108,100.90436
1.3962216,99.12821
1.3425754,99.21754
1.3415456,95.19243
1.2516755,94.16208
1.3201691,86.54763
1.265746,92.515274
1.1769542,90.77536
1.2253844,88.673195
1.146845,88.63474
1.2402167,88.37879
1.094603,85.608635
1.0917813,84.26499
1.1025727,82.80268
1.0180861,80.413574
0.99457085,84.501656
1.0233831,83.10977
0.9395415,76.988434
0.8484445,80.14655
0.94162405,75.757545
0.8841797,83.70714
0.8620375,79.759415
0.82974094,73.635506
0.81234086,73.42704
0.7978975,73.56665
0.85409504,66.877365
0.79723805,66.99494
0.81771225,71.22449
0.90918934,72.17838
0.78948647,67.81752
0.93138486,70.737686
0.7789178,63.55187
0.819157,62.716396
0.8598169,61.314304
0.72476405,63.19508
0.74476016,62.326633
0.71305746,67.05686
0.63362724,63.54227
0.632797,60.135197
0.60135686,65.06871
0.5424987,61.945896
0.5173892,67.38565
0.49433842,65.280304
0.5018028,67.95776
0.49195525,68.90155
0.50918615,68.69702
0.5192653,72.61939
0.5369247,68.25025
0.56727475,68.5957
0.5934573,73.36755
0.7506814,76.567726
0.7030586,74.184845
0.77263963,76.48627
0.8228911,80.7474
0.9816815,82.237785
1.1095338,86.28504
1.223298,87.79088
1.166569,87.378235
1.2985908,93.929565
1.3718591,90.98137
1.4770241,97.36787
1.6061639,88.656265
1.680336,101.52898
1.6887742,97.792366
1.8106965,103.188896
1.8714287,101.46132
1.8008027,108.025566
1.8405658,110.4553
1.9486414,108.74895
1.8638098,110.69107
1.942198,111.223274
1.9945778,108.5759
1.9898561,107.47796
2.0039704,114.98531
2.0248468,110.91906
1.9001611,117.31864
1.9954422,118.054436
2.0040517,112.17153
2.0573077,111.92432
1.8743054,111.959496
1.8748721,115.57097
1.938727,113.499756
1.8568505,113.272385
1.8467926,116.33675
1.7503225,113.44356
1.8215281,111.78768
1.7946607,115.501
1.7055882,112.4754
1.7022797,110.01835
1.6541018,110.33993
1.7068855,115.38278
1.6508757,111.274506
1.5796506,105.4531
1.6016989,108.14415
1.5506036,106.51051
1.5436846,100.19881
1.5569091,102.99322
1.5595407,102.7155
1.503174,101.11536
1.5007908,100.872696
1.4753628,96.40994
1.472413,98.88801
1.4703791,94.7308
1.4820802,94.619446
1.4474027,96.63908
1.369077,95.21967
1.3754389,88.73379
1.3722036,92.11135
1.2970173,90.022156
1.2986984,88.45364
1.2016557,88.968094
1.2596455,88.95557
1.1590623,85.41683
1.1167631,83.32287
1.0478543,84.152756
1.0155896,84.48018
0.95306665,84.79032
1.0924623,80.90728
1.0207093,78.36144
0.99356675,75.296745
0.9892614,73.00807
0.8000938,75.79302
0.85903215,71.48935
0.89076513,72.08211
0.901235,76.53314
0.848768,72.26399
0.83602387,67.43035
0.92157346,68.55975
0.89929706,69.48687
0.83558875,69.75062
0.8100096,68.35257
0.8749615,66.1656
0.84426856,65.88933
0.76889646,64.58094
0.6911947,66.952324
0.71202904,60.068165
0.6860317,63.909946
0.6465409,59.533413
0.61353135,62.780537
0.527731,69.07919
0.51639396,65.269936
0.52535677,66.689606
0.52371866,67.66225
0.46370083,67.65184
0.50429076,69.73614
0.4397392,63.51289
0.4970198,71.02484
0.54244846,70.23468
0.52627456,70.442856
0.56421435,72.80123
0.5984038,75.31798
0.6804749,72.83435
0.8282259,78.5904
0.8227431,81.0535
0.8741604,75.01543
1.0252899,88.59009
1.0856887,84.41105
1.0839273,85.232666
1.1896447,88.38013
1.3574978,89.66291
1.3307824,95.65491
1.4645926,98.35094
1.5088341,97.36362
1.5499967,98.302246
1.629378,106.485176
1.6453991,98.77992
1.6885931,103.0162
1.7570529,105.67912
1.8512919,110.487854
1.8111221,109.943115
1.7412657,106.30836
1.7886966,113.86174
1.8368518,113.73995
1.7292011,118.01444
1.7695825,114.06366
1.7907774,117.45768
1.745567,112.01842
1.7028375,115.69845
1.6836216,112.70502
1.8000256,112.745834
1.7395602,116.50674
1.6565094,113.267876
1.738612,118.913055
1.6885676,116.17562
1.6493065,116.756676
1.6377826,111.00926
1.4738207,113.13495
1.5277011,113.14273
1.4785655,111.21968
1.5392935,112.29202
1.3949077,109.85516
1.4252446,108.76114
1.36218,109.150826
1.3292738,106.82973
1.3180096,104.56942
1.274165,101.31808
1.3155605,104.08618
1.3133992,105.03288
1.2661036,102.390015
1.2435589,100.58198
1.1726143,102.885345
1.2041916,95.56204
1.2788435,95.55182
1.1448324,98.60784
1.2027031,95.9745
1.1570151,93.88219
1.0913115,87.4016
1.060926,86.67845
1.0698273,89.98388
0.9875499,84.03565
1.0227003,90.97858
0.8741587,84.22648
0.9505597,82.23552
0.8904725,84.89915
0.8469386,80.45943
0.7810244,81.158104
0.70142347,80.707825
0.65007746,81.253
0.6775207,81.47108
0.5950396,74.47383
0.524106,79.05336
0.5766215,71.68531
0.5903877,76.50443
0.51735926,73.009514
0.54391444,71.79153
0.5428596,71.18502
0.6205024,71.13552
0.47622475,73.359695
0.6031228,66.36327
0.502799,65.7413
0.578136,70.218544
0.49379587,65.04497
0.4373931,65.07901
0.4631136,62.162506
0.3559835,60.13497
0.41649672,64.67048
0.39679417,64.79949
0.3140054,63.61706
0.23043813,64.69807
0.26051617,58.74751
0.19553196,66.13201
0.15839493,66.67397
0.13797843,70.71939
0.10279656,64.28535
0.096635014,66.22868
0.17053528,61.50015
0.13665517,70.58537
0.16390298,75.73077
0.13305451,69.69668
0.18285069,71.459435
0.23733214,73.9705
0.3048641,77.98792
0.42191812,76.536064
0.47196037,77.52259
0.494645,83.37434
0.59709454,83.99812
0.72948295,87.348854
0.7708556,89.03287
0.9043766,91.98728
0.9703146,92.93029
1.0121152,98.16556
1.1475699,99.00474
1.2092279,98.053474
1.1572282,97.68367
1.1904651,99.55771
1.3008133,102.70999
1.4027834,102.26486
1.3670973,104.75995
1.3550662,106.55397
1.4067187,108.05633
1.4279073,110.136734
1.4955609,112.623505
1.427368,112.16137
1.4871545,112.52378
1.3787127,112.15362
1.4627403,116.00104
1.4325956,115.50471
1.4214121,114.13962
1.4187652,118.62779
1.4327216,121.330345
1.310719,110.73814
1.3373264,116.78513
1.3388374,114.7699
1.343745,118.06682
1.2772592,119.01228
1.2833403,112.44988
1.2078545,112.40923
1.1392713,111.872536
1.1067655,107.01391
1.1532315,114.51968
1.035346,110.5577
0.9709202,109.52853
1.0520952,111.51674
1.0870961,102.32598
1.0592706,104.08993
0.9056577,102.63791
1.0198104,102.86243
0.88605464,102.447586
0.97894907,97.45535
0.97014743,101.89644
0.9285785,97.56311
0.9077278,100.7277
0.887456,96.73102
0.8854208,96.484955
0.876892,92.34899
0.8985451,89.25313
0.8386758,94.44396
0.8807345,91.09176
0.7791863,88.56821
0.72164476,92.23712
0.6648789,82.95415
0.6577475,86.12768
0.685264,85.96722
0.5603556,81.61806
0.5603146,82.093124
0.54002017,80.79797
0.50556064,78.14844
0.36766946,81.372795
0.3966414,78.820366
0.32066175,77.98534
0.39323115,74.41826
0.34051853,76.257935
0.32548285,73.841095
0.3331094,72.06627
0.32690167,70.18217
0.29429165,67.870285
0.28193617,66.43133
0.37029177,68.11879
0.42679733,70.20099
0.37610665,71.35266
0.31929806,64.68613
0.3779848,67.542786
0.24601917,62.893528
0.15735203,61.46642
0.25438154,67.15659
0.15369184,65.33593
0.18346941,67.17161
0.07267427,60.276356
0.061823864,67.8945
0.11334064,66.72505
0.04846118,65.098495
0.08404035,62.172184
-0.063951045,64.3278
0.039689146,66.82433
-0.043691058,67.84877
-0.08178578,66.4401
-0.0542096,70.02246
-0.077524126,66.60067
0.026080728,73.08541
0.04646429,77.16056
0.18346575,74.06698
0.13870762,77.17122
0.23851076,73.565094
0.2984613,81.153
0.5584038,81.17346
0.4537263,85.06823
0.55938196,88.61707
0.6834534,86.44042
0.87708545,86.81976
0.8738754,95.71979
0.85103685,91.264114
0.9841738,96.06151
1.0449436,96.6539
1.136864,97.67409
1.1802937,99.89996
1.2476319,101.67705
1.3321104,108.05621
1.3274497,106.25868
1.4194537,102.9099
1.3507454,109.89648
1.3743998,109.31833
1.3941036,110.38768
1.4052457,111.30129
1.4505639,116.748665
1.3623003,117.48823
1.4377483,118.27055
1.3532677,115.87991
1.4667937,117.732315
1.3441565,114.97525
1.4628615,118.18909
1.4554558,119.3683
1.4214861,117.71101
1.3028468,115.52954
1.358633,120.468094
1.2396448,111.39902
1.2459022,111.45521
1.1433154,111.70382
1.2941363,115.237465
1.1460073,112.47545
1.1846007,111.88164
1.1470921,111.27603
1.1386622,115.66851
1.0361581,104.738525
1.0634378,108.09629
1.0653471,106.81209
1.0384283,107.726746
0.9668,104.81866
0.9875387,102.56141
0.9371898,101.09541
1.013102,98.59887
0.962285,104.09407
0.97958314,96.607254
0.98286784,93.622055
0.9911555,94.43474
0.969418,94.74279
0.93366426,95.276794
1.0074675,90.42943
0.8646795,90.10942
0.88052756,89.63981
0.80391735,87.101425
0.72827935,88.57678
0.7544191,89.49584
0.673724,91.47801
0.72235066,82.241554
0.6734878,86.9463
0.62722886,83.252075
0.59343714,77.84744
0.5463901,79.591866
0.65466064,79.58122
0.5035091,73.57658
0.5313778,75.78536
0.5261824,75.09598
0.49049047,74.300224
0.5516902,75.393684
0.5153562,74.24038
0.4516143,73.25062
0.50988036,68.68422
0.59810776,66.03528
0.51633453,67.07754
0.48958382,68.579506
0.48365164,65.17426
0.52336246,66.76227
0.4728221,64.1085
0.44829535,67.27134
0.4483333,62.22249
0.4884162,61.323013
0.42258036,68.57537
0.3784692,64.48251
0.31210718,62.35063
0.17747909,67.50217
0.314695,64.61942
0.20709942,65.22338
0.22697668,64.18893
0.23610695,71.55818
0.18606387,62.998665
0.1989599,72.476494
0.20324615,63.492542
0.2798186,73.82198
0.23358127,70.70597
0.3994329,70.16536
0.3821862,71.05481
0.46473727,73.70262
0.5888081,76.45543
0.55209297,78.85309
0.79878974,83.527855
0.7054817,86.82316
0.87613785,86.048744
0.91526115,87.25064
1.0250175,89.03671
1.1753576,91.6984
1.1617754,93.142265
1.2906449,95.525246
1.3261689,93.497505
1.4020259,99.23124
1.4451503,107.28524
1.5276506,104.89499
1.5969901,103.65294
1.6422,105.01837
1.5813215,104.85116
1.6744375,107.72847
1.6899878,110.16732
1.7279758,111.96622
1.7391965,111.95138
1.7191243,113.881165
1.7180157,115.5252
1.7605195,115.91628
1.676089,114.4852
1.7244911,114.2642
1.6843288,115.1357
1.7561105,115.80418
1.681633,114.95089
1.6742413,115.59502
1.638442,117.455246
1.5513169,117.12607
1.6327904,115.21874
1.5513327,111.1604
1.5545241,113.0351
1.5774449,112.598625
1.5441446,113.532166
1.4439707,108.74717
1.5002412,110.198235
1.3419206,110.1936
1.443171,104.52837
1.4056034,100.93265
1.4085068,104.82765
1.363928,100.438156
1.3732374,105.36562
1.3401456,102.8639
1.3426778,100.6429
1.3263854,97.34188
1.3013111,95.00312
1.3405102,96.79722
1.2349514,94.27823
1.3126215,93.92659
1.3137555,93.964836
1.3220425,92.702095
1.2234167,92.20423
1.2616842,89.20519
1.2537102,92.506035
1.200681,88.99854
1.1773819,87.81575
1.1848594,87.85413
1.1101507,88.11624
1.036181,83.96991
1.06072,83.30307
0.98054427,76.76677
0.9314556,83.62411
0.96654093,79.32694
0.90591353,78.750046
0.8077563,73.25539
0.8347319,75.893364
0.849675,77.06248
0.91292137,71.2394
0.78055483,75.69988
0.8580072,72.13837
0.7850173,72.508316
0.84591115,69.14846
0.8773117,64.77411
0.8367596,67.5379
0.8775502,70.284676
0.95972127,65.006294
0.78920656,65.67084
0.93739885,65.38279
0.75846034,65.24798
0.75348014,65.5336
0.7553167,65.23257
0.7036398,65.01325
0.671214,67.75055
0.66632015,65.64572
0.58927,63.815323
0.56188077,66.86065
0.5353283,64.22953
0.5188904,65.54458
0.50496006,66.31356
0.5188634,67.09863
0.51091206,70.92626
0.5401105,70.652054
0.5549092,70.27917
0.6296816,72.81976
0.62974966,71.98087
0.63477063,73.14093
0.7955741,72.9222
0.81300837,76.52418
0.90432596,76.66627
0.9244627,85.52908
0.99953574,82.92929
1.2170166,87.81713
1.2203679,90.63161
1.3273815,86.390236
1.4660784,88.861946
1.4377512,94.83438
1.5416582,95.71064
1.6098512,97.66075
1.7119979,102.28146
1.7920889,103.36999
1.7986661,99.31332
1.8657882,107.57528
1.8606356,108.8947
1.8763473,107.76795
1.932448,110.12961
1.9068795,110.10368
1.8888968,111.04794
1.9133474,114.852516
1.9098837,112.77056
2.0034766,114.56185
1.9520869,113.39248
1.9478645,111.6668
1.9136436,121.10204
1.9017646,112.00653
1.928273,117.08057
1.8829113,116.35116
1.8926884,112.0392
1.8953223,115.2064
1.8452438,116.17625
1.8034692,111.47572
1.7472831,113.39155
1.6925287,113.23607
1.8000596,110.13776
1.7324734,112.14186
1.6425602,111.54569
1.639168,107.23657
1.605935,109.11426
1.6221491,110.224884
1.6548368,104.64855
1.5770218,104.1202
1.5569851,101.54137
1.5348421,107.289505
1.6380638,106.6009
1.4305387,103.85163
1.5264881,98.29134
1.5039192,101.75216
1.4875091,97.871254
1.4494542,101.09711
1.4393437,95.65213
1.4039527,96.610565
1.349685,89.02188
1.4338182,90.41066
1.3980533,90.66801
1.3248649,95.57793
1.361493,89.65013
1.2633431,84.594986
1.2356628,84.17818
1.2486641,79.71508
1.1561999,86.22322
1.1412807,82.12773
1.0494359,83.90282
1.0086467,83.2615
0.9406679,81.26834
0.96511465,79.791374
0.8893471,74.96333
1.0050619,74.64041
0.89529413,79.46762
0.90634334,79.21203
0.91111404,72.47078
0.8801228,75.28671
0.8095344,71.925354
0.8232003,71.49598
0.8814885,72.00861
0.8204703,66.74694
0.91348225,70.11975
0.75668293,66.61348
0.8633981,68.58686
0.77552176,64.8921
0.7897667,66.74078
0.8099407,66.87385
0.8104026,63.594425
0.6763256,61.03131
0.67647266,63.124786
0.6213148,62.49179
0.5785335,71.13173
0.53967935,64.98395
0.5170174,62.555187
0.51283056,69.67367
0.47022432,65.44493
0.49469525,66.72727
0.3983865,68.09349
0.57789457,73.74372
0.47681174,71.33326
0.50168276,73.94317
0.5766284,69.220375
0.6499949,72.65539
0.5854067,79.15771
0.7218457,77.57401
0.7778903,79.869125
0.9003117,81.801704
1.0268939,83.505974
1.0915897,84.4557
1.0992957,85.61893
1.2071568,88.80106
1.2737414,89.63329
1.3325653,90.14162
1.4304708,99.98482
1.4818418,98.09382
1.5291413,102.710266
1.5923812,102.76497
1.6766528,103.437515
1.6607574,105.94774
1.7238247,105.67554
1.6755524,107.19339
1.7972019,110.67301
1.7228179,111.760475
1.8815713,113.27579
1.7436427,115.03057
1.7943,112.282845
1.8589958,112.019035
1.7588657,112.38882
1.7372162,113.87781
1.7675226,112.83585
1.7261107,115.78379
1.653112,114.91663
1.7029698,116.08764
1.7368133,116.67556
1.7244142,116.027954
1.6555374,113.12416
1.6459183,111.54728
1.7024503,111.68505
1.5135314,116.94153
1.5813594,111.71425
1.5252087,111.24791
1.4367805,107.64343
1.3671587,108.08123
1.4205998,108.2653
1.404849,108.37819
1.3282473,98.63095
1.2736439,104.42755
1.1727573,103.86742
1.3745528,100.08763
1.2380217,100.40188
1.2824323,103.852554
1.2370158,98.23324
1.1361737,94.40403
1.2602241,98.64063
1.1965299,96.30293
1.1291821,89.88251
1.1503584,90.92315
1.1234028,96.91518
1.166049,93.601295
1.1297835,93.12672
1.055495,86.7335
1.0629972,89.44764
1.0133486,87.920616
0.9054005,88.36433
0.8478336,88.589966
0.83533555,82.17064
0.8020378,83.90028
0.7538531,82.90849
0.73608917,76.27731
0.6431722,80.94476
0.6707246,83.02692
0.6767283,76.466995
0.6010956,81.31296
0.57844996,75.262245
0.67451257,74.15553
0.55841047,71.358345
0.5514286,72.45893
0.56064105,69.23979
0.588865,69.81239
0.6052287,69.44317
0.5095655,64.53119
0.5078615,66.9152
0.52104676,71.15208
0.47953546,65.50476
0.44792378,65.930336
0.42204106,59.283176
0.4697275,66.04498
0.45413682,61.375137
0.3597158,66.68161
0.2162035,64.07084
0.2927741,66.25226
0.2085437,65.62284
0.1990071,66.554054
0.22975045,64.18659
0.18210675,65.85353
0.166066,65.57374
0.09173899,67.685875
0.102212176,68.11945
0.09920931,68.76008
0.19376563,69.38475
0.17130178,67.785324
0.21470882,71.36023
0.21396844,72.76058
0.26532242,73.72259
0.44675428,75.535835
0.46945742,78.39129
0.53352606,81.201744
0.62488174,87.08408
0.7428551,82.597466
0.76106685,86.08707
0.81869495,88.248726
0.9974121,95.327126
1.0576649,92.622406
1.0874845,94.97958
1.1200268,95.352646
1.1923603,99.47014
1.2993039,99.775055
1.3284558,104.76495
1.3717675,100.85548
1.504184,103.68414
1.3581653,103.230545
1.4049886,114.12054
1.3864816,109.6914
1.4387177,110.76882
1.5197554,108.82719
1.4848193,113.24352
1.4471791,114.90635
1.4225602,114.83334
1.4129962,116.25435
1.4607682,111.01685
1.4177388,117.42044
1.3433291,110.26878
1.3495402,113.65019
1.3182803,115.30198
1.2322519,114.54296
1.3323971,117.37614
1.2719351,112.78678
1.3109237,116.11716
1.2131996,114.67813
1.2310448,106.11619
1.158134,112.821594
1.1258698,107.51338
1.0992569,114.25012
1.160763,108.67444
0.98733467,106.293175
0.99125135,107.14951
0.96631604,109.5965
1.1045617,107.73248
1.0533346,101.648445
1.0009094,103.3919
0.9666404,106.42398
0.9279998,97.62723
0.8340003,102.24864
0.88914573,97.360306
0.99177927,96.1827
0.87624377,93.93451
0.8219423,96.29977
0.8401676,91.740395
0.77529705,90.90855
0.76214623,90.79795
0.8167074,92.981186
0.79737,87.15412
0.7490106,88.91281
0.70506305,89.06526
0.54668665,85.68841
0.5891743,80.47647
0.54892117,83.82358
0.5218205,82.849174
0.4860099,78.41828
0.51170504,77.68009
0.40821835,80.33119
0.32878628,80.58746
0.34639165,76.68189
0.38954043,77.20255
0.30561924,73.5684
0.38268977,73.87946
0.3451732,66.40126
0.36559168,70.61175
0.35921663,72.5982
0.33331445,71.96228
0.31681874,70.86602
0.32699358,68.003975
0.2660771,67.26138
0.28304794,64.03439
0.2290581,65.51029
0.2936244,63.804928
0.18869753,59.54995
0.16621019,63.833767
0.08235616,61.53326
0.112438716,62.23041
0.080262356,62.377583
0.019951776,62.072887
-0.016785264,68.60382
-0.038272355,61.905506
-0.07276663,67.28355
-0.042004894,68.36616
-0.096088625,67.61552
-0.09799152,65.32739
0.013432105,68.15883
0.011969849,69.697296
0.023749648,74.78424
0.0394734,70.82037
0.14356297,71.18312
0.20988075,74.54143
0.27062076,79.408554
0.3898348,81.88438
0.41163567,86.12469
0.48928362,87.52576
0.65392816,88.531296
0.6828505,89.458595
0.7689714,91.87202
0.8308161,93.39981
0.89636403,95.27333
0.9742449,94.814995
1.1164078,99.19446
1.1737415,95.88297
1.1619519,99.438774
1.156367,105.85325
1.2973019,108.925224
1.3678333,103.89052
1.3413208,110.409615
1.3688161,102.36638
1.4306433,107.3149
1.3311752,110.62493
1.3787459,114.66389
1.4542319,114.58112
1.4445587,115.6862
1.4108032,118.27605
1.386624,114.399796
1.3991714,118.63044
1.3684585,114.64815
1.4333137,112.717186
1.3963237,115.76075
1.3255471,112.2532
1.2621653,114.66924
1.2633948,110.85558
1.3093158,118.44885
1.3023285,115.268715
1.2136617,114.18519
1.2477882,113.94377
1.1778232,111.60721
1.1210642,108.81617
1.1151767,111.736496
1.0754695,112.78514
1.0973052,108.75168
1.0645558,101.03014
1.0391339,106.332085
1.1151106,105.81222
1.0299249,105.64864
1.009529,101.69825
0.99743396,101.65326
0.9380734,105.93315
0.9720938,98.153725
1.0583558,98.947914
0.9358702,94.79384
0.8874122,94.21164
0.99325156,90.40319
1.0141394,94.91414
0.9417203,93.146286
0.9091161,92.9755
0.868956,88.93635
0.8755442,89.274826
0.922898,86.47239
0.80947566,86.3027
0.6979567,85.180336
0.72728056,83.06556
0.6647111,79.91094
0.6326559,85.024345
0.6139273,81.189766
0.61215407,78.81217
0.5796175,80.477844
0.48986012,74.415405
0.45728937,78.144005
0.49989754,74.43344
0.48983023,73.11245
0.52888113,75.04316
0.5032915,70.86188
0.5503535,70.09498
0.5253527,68.51481
0.4476761,71.898674
0.53750044,66.11905
0.53457934,66.8734
0.46671984,68.46474
0.47719523,61.61681
0.47796467,65.05016
0.46376655,66.69632
0.45906854,64.59564
0.50543255,64.89938
0.40559295,67.491264
0.30172932,67.49392
0.25200596,60.309578
0.24720246,68.65182
0.26542133,61.686787
0.24961993,61.812546
0.20526935,66.835464
0.1621299,66.41818
0.19943322,70.62083
0.17520653,68.35098
0.24315935,74.3981
0.17167045,72.51954
0.26371947,72.59937
0.4292089,71.53407
0.4166766,74.826355
0.4594968,77.26909
0.48590827,76.367035
0.6352528,80.742424
0.71951693,80.06526
0.76115686,84.93289
0.7726259,90.97936
0.87767917,91.67878
1.0188161,94.214165
1.1862245,90.60396
1.1621833,95.03685
1.2787868,92.09145
1.3410782,98.31392
1.4055711,101.286835
1.4649175,99.41933
1.4990325,101.002655
1.5397063,110.904396
1.6846992,105.472275
1.5643064,105.08116
1.6439288,105.95082
1.5730121,111.78941
1.7128009,111.51138
1.7321751,112.42021
1.6299633,115.17015
1.6960436,114.43354
1.6989247,115.91
1.7613726,116.9315
1.7443402,115.64432
1.7231627,112.33852
1.7268027,112.34345
1.6072211,117.78581
1.696891,113.94302
1.6294515,120.50407
1.7099121,114.843956
1.5531532,111.5712
1.5730953,110.8063
1.5458943,112.33927
1.5377389,108.86781
1.5384445,111.72584
1.4045491,110.84301
1.5199674,109.95483
1.4581854,107.06991
1.4599284,105.50313
1.3650589,107.10766
1.3780098,106.3557
1.3161737,99.92244
1.4331366,105.05254
1.4165592,102.44263
1.2715279,101.57135
1.2802726,99.377594
1.3706996,98.38062
1.2966076,96.04804
1.2868245,95.85398
1.3230357,99.5274
1.3269598,92.098785
1.401837,91.58517
1.2826349,89.39241
1.257614,90.48208
1.2423469,88.497665
1.1234275,91.71533
1.1330851,87.825294
1.073262,93.244995
1.1186236,86.76414
1.1259573,85.58814
0.99893916,83.83711
0.9857896,81.13638
0.889589,81.56512
0.86309564,82.167725
0.94490373,76.293274
0.871234,76.761
0.9058446,76.009834
0.82041293,77.105835
0.8607653,74.62516
0.8992397,78.60934
0.7848333,69.140465
0.8467002,65.625465
0.7955064,67.55983
0.8899357,76.23762
0.8211009,73.66433
0.82765317,65.9686
0.79569274,63.409958
0.86129797,69.34418
0.806589,67.68773
0.7451842,64.990036
0.821825,67.96935
0.71988684,62.79978
0.7288873,65.184975
0.6014802,63.021935
0.6334303,64.173744
0.58384204,61.66354
0.6078863,63.761337
0.5054184,62.764957
0.54002964,69.027336
0.5924116,66.500175
0.546364,71.020294
0.49888456,62.936047
0.44900233,69.6454
0.667453,71.07139
0.66130394,72.76701
0.7246874,73.52444
0.7302923,74.25584
0.719661,77.30005
0.8388533,77.13295
0.9625628,79.250984
1.0453649,81.86395
1.0876638,84.522606
1.183595,87.49541
1.2180285,91.63523
1.2805007,92.36275
1.4198359,92.13234
1.4860151,93.100044
1.5877427,93.82928
1.6629837,99.499725
1.7169896,98.374596
1.717306,109.485664
1.7708309,103.00593
1.8219056,106.35744
1.8026301,106.86741
1.9909501,106.58926
1.8910599,109.76146
1.9746931,110.65202
1.9538629,110.92684
1.9388367,110.24247
1.9946796,114.02144
1.962026,116.146904
1.8569074,118.27384
1.9838654,120.12075
1.8800004,113.27735
1.9643676,117.36306
1.9312266,113.12737
1.9575385,113.71022
1.8773485,114.83428
1.7923007,113.49411
1.8401428,116.53957
1.7672095,113.06476
1.7325937,114.899315
1.768265,110.325356
1.7364533,106.64608
1.6908283,108.1575
1.6252631,114.30624
1.6815128,109.626114
1.680117,107.65278
1.6708674,108.97387
1.5438299,105.32542
1.5639625,100.70058
1.5841511,101.57326
1.4735128,105.38194
1.5221063,102.67671
1.561206,100.50585
1.4127867,99.93354
1.398478,102.22816
1.5167384,95.46426
1.4562161,100.09235
1.490151,95.409645
1.4005408,92.38492
1.4043692,97.12104
1.3315345,88.13522
1.3624502,88.16422
1.3146647,87.657394
1.3498248,85.41688
1.2590456,89.64701
1.310605,82.16565
1.2146838,85.83135
1.2195656,84.8058
1.1015509,79.37487
1.1476247,82.031525
1.0975031,78.62399
1.043723,82.75502
0.95848274,76.85457
0.9254975,78.54676
0.8957324,80.056366
1.0139425,77.01722
0.9353904,70.83559
0.8326485,72.928925
0.87404823,70.18287
0.8402686,68.44127
0.86473054,70.49196
0.91966957,71.4857
0.90283394,68.21637
0.8665067,65.374176
0.8518388,66.28658
0.83288276,65.644226
0.8054629,66.39311
0.78257984,65.961754
0.8264504,68.615845
0.77550995,61.66182
0.7328294,60.425297
0.6555717,64.028885
0.6520822,63.94312
0.5932365,63.11259
0.5529138,63.129993
0.5313529,65.77359
0.5705006,62.792767
0.52002364,69.689606
0.4152781,68.95043
0.3837965,66.84011
0.4943057,67.69784
0.43535668,65.30203
0.56867045,69.8097
0.62746835,69.899216
0.6197628,75.026184
0.6742052,77.110466
0.7246099,76.91642
0.8307493,81.26766
0.9088782,84.514725
0.99240035,82.95867
0.98671746,84.223854
1.1353488,85.39157
1.175691,85.55584
1.2610139,90.064125
1.4035745,97.64709
1.4113332,95.779724
1.5146648,99.78359
1.5506246,98.26285
1.5518963,100.48723
1.6529441,104.6562
1.6934297,101.436005
1.6718434,106.8216
1.7611418,107.04949
1.7039596,110.78753
1.755015,111.86091
1.8392634,111.87135
1.8212095,111.47246
1.7908881,112.13348
1.7443401,114.70212
1.8032374,112.36296
1.7646027,115.7352
1.7694166,115.70938
1.7835603,110.37709
1.7933364,117.73178
1.7388475,117.08043
1.7094392,110.902725
1.6116639,121.613846
1.666529,114.208916
1.6347834,114.92218
1.5455832,110.73446
1.5627362,111.60728
1.5847178,108.83596
1.440691,109.2316
1.4727111,108.97007
1.4431763,109.52771
1.4230521,111.18066
1.3291025,106.00221
1.3221836,105.51655
1.2724786,103.48181
1.3238798,103.155876
1.1985497,105.31393
1.2700616,100.69587
1.2795646,97.58953
1.2964305,103.45297
1.2022184,98.89787
1.2015336,95.47615
1.2064067,93.72274
1.2505994,94.86568
1.2029729,92.56045
1.0738434,94.24831
1.1383928,93.88468
1.1011379,93.06271
1.0450073,89.70049
0.98155904,87.76471
1.0388374,84.67273
0.94974977,87.422035
0.91709757,87.52848
0.87009597,86.182175
0.81029606,83.920654
0.7520715,82.64178
0.6933891,80.835106
0.70612514,79.11381
0.6645689,81.605446
0.7112681,80.27672
0.567975,74.86303
0.6399659,72.78739
0.54763097,77.73922
0.5677473,74.73073
0.666251,73.55755
0.6115005,73.86772
0.5753635,69.80269
0.56245965,68.576935
0.5571163,64.63749
0.5898201,70.308914
0.44411913,72.190216
0.49228966,63.8421
0.46817794,68.382965
0.47067615,65.464195
0.44202623,63.296467
0.38749048,67.97818
0.32570145,63.905807
0.25035802,63.32244
0.3203926,63.314526
0.11555088,61.380947
0.24325651,64.720245
0.14444572,66.11055
0.17413402,63.309235
0.10799052,66.186386
0.19231553,63.076565
0.09662037,70.43336
0.14160606,68.88774
0.10477526,73.146835
0.14109573,73.97895
0.26187012,73.12176
0.31139874,76.745415
0.35919365,76.76507
0.47375098,80.2103
0.3969493,75.1806
0.49930733,80.97579
0.6107048,80.74518
0.685571,90.12804
0.74345714,86.96617
0.90288943,91.351074
0.9883561,90.7661
1.0183209,93.48259
1.0844687,95.878
1.0861224,97.12309
1.1840991,104.579124
1.2526454,100.88027
1.282456,100.08502
1.3345277,108.46393
1.4002496,101.6101
1.3784723,110.99552
1.4451061,109.27504
1.4329177,109.55821
1.4469286,113.5686
1.4233359,110.63437
1.4852761,117.28614
1.4772439,108.53254
1.4999427,111.046234
1.4874743,112.06528
1.2949173,112.3299
1.4354738,115.65721
1.3830013,113.82365
1.402511,111.46278
1.3386487,115.60719
1.3476495,120.08671
1.2715144,114.13692
1.2542748,113.98475
1.2005092,109.45644
1.1678665,108.29134
1.1532434,116.49658
1.1515538,110.12786
1.1587273,111.745514
1.0789415,112.36751
1.0273883,106.835724
1.0042038,108.41332
1.0074897,103.166626
1.0467463,108.33624
0.98878103,100.88554
0.9720552,100.43836
0.9158424,105.088425
0.95041776,96.93447
0.8522851,96.34443
0.8865448,98.30583
0.89096165,96.65058
0.9229757,98.94363
0.8375582,90.93062
0.80628425,93.4905
0.79802275,94.66708
0.8686532,86.5246
0.77520245,92.507805
0.7762956,87.24165
0.6839962,89.35996
0.6906226,90.31069
0.5836606,87.33458
0.6106247,87.31923
0.5177282,83.780106
0.57191193,84.88481
0.54486924,81.56795
0.5474235,82.942154
0.48777035,79.12987
0.4644639,78.653175
0.37456724,77.83909
0.37381968,74.92969
0.3254794,74.09725
0.39821276,75.06712
0.3538265,75.56235
0.3870204,69.75847
0.28979322,69.16516
0.2827688,68.03196
0.303407,67.79222
0.27550545,69.68136
0.37243667,66.128395
0.32989153,61.25549
0.21347165,62.367157
0.23926936,63.456398
0.18756293,63.96382
0.20668477,65.004395
0.20458598,61.83229
0.06805883,64.28891
0.11999204,61.90338
0.06527604,62.59515
0.069622256,64.00631
0.035898715,63.350613
0.0048837666,64.229675
-0.0035583875,66.93675
-0.08743612,64.212006
-0.08606251,65.62148
-0.033205435,64.71068
-0.047369983,67.76509
0.025566887,69.957855
-0.024711655,65.88335
0.015207572,71.507385
0.13241073,74.773605
0.22707425,79.38476
0.20728993,77.54515
0.29569092,77.42375
0.37654063,80.10723
0.48728365,80.8187
0.5920479,87.66585
0.6639481,87.45857
0.74233377,88.619484
0.7897096,92.43332
0.89557207,91.84104
0.9654829,97.72867
1.0906407,96.877235
1.1024556,98.20908
1.1606833,102.528534
1.1953884,100.58208
1.2799464,106.61201
1.3375906,106.80791
1.2921398,105.86198
1.3512274,111.05212
1.4085604,111.55178
1.3822539,112.21285
1.4267431,114.36092
1.3916874,112.63341
1.3959492,113.151
1.4635739,117.31551
1.3681412,114.24798
1.4058517,115.801346
1.4241463,109.1149
1.4697165,118.64535
1.3798324,118.07948
1.3024696,115.232
1.2834157,112.78836
1.2696799,113.145134
1.3114052,111.93026
1.2085465,112.4533
1.1890562,113.6722
1.2229786,110.70534
1.1490884,108.90092
1.1072351,107.20708
1.009589,107.40904
1.0346017,107.68979
1.0596652,106.220924
1.0403554,102.526886
1.0251818,106.50681
1.0644617,100.97254
1.0019686,103.40986
1.001463,99.79379
1.0010206,101.45649
0.9276147,98.462296
1.0091918,96.93169
0.99379927,100.65534
1.0109868,97.72206
1.0042733,101.61793
0.90022165,96.105835
0.9002497,93.736084
0.90682715,95.53694
0.8781996,93.89196
0.8768562,86.33885
0.79923165,89.98008
0.72966385,87.512115
0.746454,82.65022
0.7034316,87.67418
0.6804447,85.21581
0.7166322,84.586105
0.6916197,80.09547
0.55807465,78.12207
0.5912865,78.95973
0.58364254,73.18692
0.5555468,75.150696
0.45706138,78.52805
0.47572944,74.80475
0.48790598,74.37494
0.57358086,74.31146
0.48982722,70.26354
0.44457603,71.79427
0.53189224,71.80784
0.4417052,71.92822
0.47166398,69.09747
0.49606755,64.837494
0.5199861,66.23333
0.5326302,63.613518
0.44121498,63.334072
0.4551102,63.386177
0.5823345,65.51496
0.42174444,63.959938
0.33764318,65.75537
0.37859127,64.09592
0.36341393,66.38886
0.3019201,64.47346
0.24618432,62.550056
0.1364734,65.584366
0.1355814,65.13986
0.10401628,67.99109
0.23381172,68.97464
0.109995805,66.35734
0.19782001,71.107895
0.2583104,72.42454
0.30804354,74.84262
0.3866182,71.85852
0.2783075,75.23313
0.47683874,76.161316
0.52868706,77.2304
0.68410176,82.10824
0.7355317,81.05782
0.83670753,82.70304
0.91179013,83.21649
0.95725596,85.62717
1.040098,89.51163
1.1560832,89.77222
1.1862675,90.59497
1.3281523,93.86453
1.2522923,96.444
1.4160457,101.14455
1.44295,99.85954
1.5504504,105.99253
1.5903032,104.567986
1.6312023,108.73153
1.6717082,112.171616
1.6632143,109.09593
1.734378,112.39203
1.6330014,112.89763
1.7008208,115.41503
1.7084584,113.94579
1.7170542,111.70514
1.7321265,113.91115
1.6758138,113.896675
1.7436514,117.05858
1.6564806,115.70585
1.7596278,114.53622
1.6589029,118.67837
1.7371687,116.900795
1.6528155,116.00069
1.6363453,115.67397
1.5853937,113.134155
1.5635777,111.99607
1.5541954,109.543564
1.5606986,116.31665
1.5355579,114.11515
1.4016396,112.28128
1.441015,106.99938
1.4241096,108.58602
1.4272147,106.966354
1.457259,108.805176
1.4884286,106.08735
1.4023772,103.28329
1.3320801,105.21824
1.3858554,103.25453
1.3022015,107.3349
1.3663582,101.938446
1.3293487,97.5278
1.3888516,92.66478
1.3010696,96.75475
1.2069163,94.78832
1.3297062,92.77643
1.2357197,92.930244
1.287762,89.95375
1.2848623,92.093
1.2393006,91.12208
1.175742,89.922775
1.2539215,86.40068
1.0924765,87.449036
1.1093737,88.80007
1.1012348,89.252205
0.9403842,84.95861
0.9764073,79.0763
0.88875264,80.847916
0.97838384,73.693146
0.89247495,83.596855
0.93378043,79.81126
0.8129893,75.55901
0.8641087,77.594215
0.78588843,71.27187
0.83728755,72.104645
0.84037644,72.86463
0.84863967,68.90905
0.8676045,69.810295
0.83157295,68.1588
0.80723643,72.41356
0.8075419,66.893616
0.8441648,66.63511
0.73738706,70.168594
0.846747,64.15238
0.8705625,68.2155
0.80145967,66.34298
0.7480971,65.1142
0.7085923,62.744976
0.62218004,62.927727
0.6079449,64.62575
0.55435306,64.34576
0.60410035,62.589565
0.50916666,63.905636
0.46244913,65.07777
0.5398708,66.25571
0.50760394,71.30222
0.45853183,64.428345
0.5157416,71.66946
0.6058839,68.29557
0.58133984,77.7761
0.6140245,73.57675
0.72536343,76.09621
0.72213054,78.28328
0.82954866,80.446625
0.92127126,81.16664
1.0029452,83.1021
1.0814055,83.51697
1.2352465,81.34016
1.2584379,90.855
1.2979033,89.049324
1.4157796,94.37896
1.4929585,92.70389
1.5864652,93.4977
1.5927604,98.505424
1.6257601,94.376015
1.7945496,99.80308
1.7419019,101.204506
1.8168731,106.49632
1.8419567,106.1326
1.8776921,105.10783
1.9530796,108.2157
1.9363272,110.717445
1.9569675,111.17669
1.9479625,114.31101
1.983069,111.617966
1.9813976,112.760574
1.9648091,118.06159
1.9514704,118.652245
1.9406347,115.31152
1.9079312,118.12826
1.9023868,114.29431
1.9095895,114.05375
1.8680478,112.42949
1.9298576,115.56027
1.8440677,112.203514
1.7511418,119.137215
1.8078461,112.39875
1.7726685,114.38418
1.758778,115.61769
1.675581,110.7083
1.6783808,112.40263
1.7170992,111.13213
1.6042387,108.519455
1.5779666,105.71884
1.634317,105.396774
1.5935764,106.42447
1.5135322,107.12343
1.5189555,105.42366
1.5594946,98.28735
1.5508206,104.913826
1.5264207,98.180916
1.4972886,98.38525
1.4868519,99.53956
1.480782,94.30747
1.4396062,96.37073
1.5059316,94.332695
1.4718356,92.55115
1.3909935,89.71231
1.4230955,89.37788
1.4001759,83.99784
1.2898867,92.16331
1.2634292,88.689575
1.2093445,85.53883
1.238496,85.98595
1.0720059,80.97169
1.1203965,84.85149
1.0192119,82.15333
1.0604794,82.89111
1.0192906,81.89095
0.93641704,82.652405
0.9852948,77.03226
0.97873616,74.70342
0.9299252,75.95105
0.91017514,72.10599
0.855678,78.05972
0.8953196,80.466545
0.8789584,64.98239
0.8880425,67.46847
0.868235,67.61112
0.9298714,64.25825
0.86054415,70.09078
0.831477,66.288536
0.7751036,59.374878
0.89959854,67.48778
0.7521683,62.0018
0.7849085,67.77703
0.76627636,65.0579
0.728246,61.099377
0.6136579,67.56723
0.64341027,62.44783
0.592471,63.967323
0.55468845,67.1446
0.5136612,67.183334
0.47300258,66.92905
0.4851202,62.96982
0.39943084,66.890854
0.49530584,70.25392
0.53601974,65.82601
0.4662663,69.02483
0.59894085,72.22633
0.4889046,71.76184
0.66474205,77.04662
0.7253799,78.92666
0.7601968,75.776634
0.83319175,80.40893
0.8961011,81.5672
0.93258655,84.36956
1.0367084,83.97337
1.206288,85.030045
1.1658674,94.27699
1.3391328,87.603874
1.3639154,95.63796
1.4890256,97.152435
1.50224,99.78261
1.5838362,96.4773
1.6183542,99.25378
1.7323936,102.06301
1.6594143,104.5673
1.7004672,112.52705
1.7636615,107.30063
1.7828821,108.37364
1.7586187,114.59953
1.8026582,112.77196
1.8394668,114.33907
1.7642906,111.984695
1.7723392,114.57125
1.7767286,116.10604
1.7707734,118.06611
1.7759736,116.988174
1.8710861,118.44505
1.7289622,115.4627
1.730124,119.70808
1.6973526,117.184166
1.6528909,113.84724
1.633812,111.73045
1.5578699,113.83116
1.4755253,114.86227
1.5486134,113.07334
1.5130961,115.4529
1.5027102,109.5716
1.4311584,110.992065
1.4677848,106.57675
1.4547303,114.41012
1.4013914,104.81148
1.3747056,106.73567
1.327404,106.51164
1.2630879,101.49049
1.235218,101.66589
1.2130561,102.32944
1.2034596,102.37254
1.2192657,99.88219
1.2628751,100.88847
1.1897303,95.61889
1.185961,101.30679
1.1517342,93.29646
1.2493985,94.07463
1.2139255,92.46862
1.142244,92.27785
1.0630522,90.902695
1.0679291,86.01495
0.99658257,89.11192
0.9419743,90.02796
0.9201865,87.68491
0.87485427,88.730995
0.856936,82.75744
0.8292221,82.04998
0.7329586,79.12355
0.70817304,81.71325
0.7945078,78.806496
0.6514042,80.13724
0.6441133,80.53085
0.7171094,76.88202
0.5893989,72.40498
0.58007383,74.804214
0.61054736,75.549355
0.5448453,70.60658
0.5288838,68.36328
0.6548897,68.803566
0.52996,65.23169
0.57935804,67.947205
0.5745404,67.36725
0.42810124,68.21191
0.49682605,68.536835
0.4766537,67.88453
0.42411456,72.398155
0.45623162,64.1374
0.399938,63.860245
0.37053064,61.008278
0.3374614,65.03449
0.29328197,64.3778
0.2096519,61.626656
0.24022947,63.453606
0.1080968,66.0213
0.12830827,67.810196
0.050083015,67.23612
0.15036747,67.19684
0.046493642,68.37667
0.1388705,66.97146
0.13327572,72.20297
0.15036799,75.16622
0.22471946,77.2649
0.20199706,74.23876
0.30445755,74.605515
0.38400114,77.04604
0.46853587,80.76378
0.44157252,79.91825
0.6091083,82.90597
0.7310166,84.93922
0.82814455,89.46711
0.9120446,92.039154
0.99254465,92.50172
1.145253,92.332664
1.073458,94.86017
1.0950594,96.15723
1.2146604,98.93216
1.2736112,102.50087
1.2874104,103.541885
1.3948457,102.33595
1.3417132,107.35356
1.3562561,108.81927
1.3257139,112.738846
1.3754079,110.36064
1.5184666,115.61842
1.4703685,113.87991
1.4672946,111.449295
1.4210587,115.57159
1.4286159,111.455086
1.3997923,116.69948
1.4505112,118.58253
1.406351,116.31409
1.3935249,115.83594
1.4214177,116.643265
1.3404797,115.67273
1.3674393,116.3901
1.3812008,114.67928
1.2758424,116.504906
1.2194922,114.455765
1.2464038,112.089264
1.1324649,113.87456
1.1235862,108.5112
1.0888559,107.17352
1.1620867,110.4416
1.0225351,110.86373
1.0083534,103.37279
1.0588061,105.70498
1.0198504,105.7667
0.99580646,104.22976
0.95911676,103.40661
1.0144318,102.14669
0.9111778,96.946175
0.9545394,100.158104
0.8475661,98.33387
0.87913257,99.95088
0.95534617,97.27925
0.9488328,96.07994
0.85908157,94.40514
0.83277124,90.95558
0.8673548,94.4355
0.8189075,90.638054
0.80795985,89.312355
0.71131694,90.69195
0.6775871,81.84469
0.6570359,88.937645
0.6042273,88.04068
0.59360474,83.789604
0.53425604,80.07812
0.54983,80.30091
0.45765752,83.12573
0.44375923,82.27685
0.44425336,78.45437
0.45786187,80.78622
0.4198805,77.5242
0.35308018,74.90126
0.3322117,75.08804
0.3573281,76.72271
0.4055056,73.24925
0.38082966,72.65876
0.329646,66.11526
0.31250492,69.62517
0.27279368,67.575264
0.39935818,69.60353
0.35482627,66.287254
0.25273633,66.5577
0.30534515,60.430065
0.23853831,65.71365
0.19016369,67.636024
0.1893638,68.58907
0.19940056,66.35494
0.12867688,61.53519
0.12190346,59.670753
-0.011573921,65.83383
-0.014570703,65.16558
-0.053673103,67.23709
-0.06842237,69.114105
-0.10353886,66.41283
-0.10466931,68.19483
-0.02602579,65.20045
-0.06155848,67.18691
0.025949268,71.4618
0.012797374,75.648674
0.06697077,73.3496
0.11580475,75.28436
0.25416526,74.01228
0.3042816,73.29352
0.35040584,79.40456
0.4105383,80.49766
0.5199776,85.799255
0.594602,82.04173
0.60958993,88.89781
0.786187,90.27648
0.8717959,91.55785
0.9564297,94.147766
0.9950399,92.53933
1.0868938,96.66244
1.0793126,100.05265
1.1714578,101.28865
1.2210612,100.63538
1.1839293,105.52548
1.3313498,105.8592
1.3769485,109.06538
1.3653233,108.94677
1.3463883,110.939835
1.3803873,112.86819
1.3882076,115.19507
1.4139749,111.31855
1.3845469,116.134995
1.4065257,114.64508
1.4138176,114.90295
1.4280987,116.42818
1.4080563,116.96814
1.4274731,116.23676
1.3823197,111.40494
1.4080658,116.52435
1.2732025,115.93965
1.264211,115.45831
1.2370158,109.8775
1.2741596,114.177605
1.2748864,115.177704
1.2358005,113.24099
1.2580389,112.52009
1.2506291,115.45049
1.1629977,109.50229
1.1442467,107.68774
1.0996822,105.98113
1.100034,102.42138
1.1092991,103.896164
1.0044094,101.20385
1.0746734,99.14436
1.0112035,97.02647
1.0224564,101.7733
1.0103866,100.09992
0.9781284,98.337074
1.0024512,97.2734
0.9932807,93.26028
0.9688207,96.87048
0.97922283,89.39788
0.99200577,93.15129
0.8955281,93.46207
0.94893414,89.920166
0.864323,92.44238
0.85072637,84.69543
0.8117544,87.50921
0.79403293,85.03245
0.76026267,86.07996
0.7621711,85.124466
0.59736735,81.76943
0.746806,81.08164
0.64317966,73.290215
0.5221179,83.85248
0.53633285,82.985954
0.5739142,81.44493
0.5526779,76.6374
0.53992724,72.424416
0.49300748,75.54297
0.51210374,68.43158
0.5606955,70.14237
0.51599395,71.58962
0.4426413,71.26126
0.46528697,67.51677
0.5454521,70.15765
0.4868253,63.885635
0.46735245,68.97542
0.4782536,65.04759
0.4325791,69.0318
0.4840975,63.300106
0.48809406,61.37817
0.34713858,61.255295
0.4421275,67.0067
0.34995958,61.52207
0.28721067,63.386955
0.26147503,62.76433
0.24574867,67.134895
0.2145377,62.62603
0.1944584,61.703197
0.20762794,63.87159
0.19696188,62.3073
0.17487341,63.91076
0.19032167,66.367455
0.24454962,68.79954
0.29352114,68.94968
0.38004363,70.8519
0.37645158,75.12703
0.3658038,76.48336
0.5312446,78.936295
0.60475934,81.17211
0.69579613,82.69721
0.810246,84.14233
0.93320346,85.34723
0.9892249,90.800995
1.0779546,90.51809
1.1410838,92.913506
1.1963879,97.15808
1.2790365,97.90789
1.3848733,95.68209
1.4177456,95.79298
1.5247105,99.67177
1.5294985,101.6377
1.5299201,101.306946
1.5433233,105.008415
1.5791547,109.59598
1.7003243,111.20877
1.7213527,106.251305
1.7163004,110.721985
1.7082752,113.92833
1.7838162,114.715935
1.6844541,110.53732
1.7761832,116.20083
1.7570806,117.13035
1.7378831,120.56373
1.7117529,117.865265
1.6739128,114.625114
1.7122966,116.98545
1.6212615,114.59938
1.6876233,115.92855
1.6595939,116.25576
1.6156257,113.098976
1.6065081,110.68336
1.6037414,113.859406
1.5449675,119.01325
1.4921609,112.09708
1.4789059,114.38618
1.4183844,108.30358
1.3924857,111.57177
1.4425257,110.89434
1.4166025,107.81773
1.3351989,106.43879
1.3859742,102.81564
1.373222,106.52107
1.346293,98.04036
1.3513411,103.52632
1.3588662,99.155754
1.3186008,100.14929
1.334485,97.72687
1.3047857,95.69848
1.2995453,95.5575
1.333871,93.16877
1.3655118,94.36771
1.3308146,93.36312
1.287974,90.36488
1.2479765,88.28073
1.1794312,88.356094
1.1387192,86.279564
1.1030065,86.89498
1.0831529,81.42798
1.0537031,86.108955
1.0394404,85.13396
1.0376084,84.02443
0.98799133,80.7706
0.8954202,79.01902
0.85374683,79.74057
0.9778091,74.24047
0.85760194,77.70431
0.87382096,71.342125
0.9011812,74.27702
0.82233953,70.6169
0.8157555,68.310005
0.9278144,72.642426
0.84617347,68.093605
0.8313983,67.51944
0.8578568,68.87244
0.8197236,68.41491
0.7541141,68.05333
0.8345496,65.587555
0.872616,63.589527
0.87512743,63.57914
0.79721224,65.61297
0.684832,66.608604
0.717719,66.49489
0.6087426,62.572533
0.71711487,64.21352
0.5788722,64.60346
0.56638396,67.32685
0.56565756,67.561386
0.57501787,64.701195
0.52723205,67.38585
0.469385,66.08811
0.48123083,67.24984
0.4786779,71.42808
0.5335228,68.8442
0.61129326,70.8801
0.74761254,70.49587
0.71408683,70.21412
0.78880954,76.38352
0.7790666,78.494095
0.9052581,75.98314
0.98796135,76.60656
1.1539664,84.14804
1.2147225,84.46456
1.2630687,87.00952
1.354349,87.840096
1.4064784,87.752945
1.4915988,91.20778
1.5909805,95.62011
1.6076365,96.73338
1.7355112,103.38025
1.7314537,104.84171
1.7242119,106.21279
1.7399944,99.85268
1.7979517,106.69066
1.9766202,107.39087
1.8473068,110.65573
1.9201791,110.92394
1.9419286,107.07598
2.003315,109.42621
1.9878974,113.42019
1.986756,113.9578
1.9127772,113.60812
2.0749147,111.83067
1.988398,113.563545
1.939323,113.63557
1.9703094,115.871254
1.8888937,117.74914
1.919731,113.54545
1.8766903,114.42277
1.8177488,117.90663
1.8247879,115.514404
1.8083006,112.59504
1.7433672,112.26373
1.7274868,112.51456
1.732588,110.632385
1.7752339,114.745605
1.7123775,106.84213
1.6014916,107.684746
1.5402617,108.2847
1.6049929,106.643715
1.5470392,105.60283
1.5597272,103.43926
1.6325318,102.13903
1.5378503,105.592926
1.5667759,101.81432
1.511704,99.14271
1.536125,98.1063
1.4404831,97.39309
1.4470654,95.368576
1.4367902,91.71502
1.4151314,92.09719
1.3740385,92.118706
1.3741386,89.800865
1.3940451,92.44841
1.3296149,92.44821
1.2935005,88.47702
1.2874757,89.622826
1.2065346,83.14728
1.1207021,87.75251
1.2103654,81.30173
1.0566945,85.01474
1.0760576,81.57619
1.0155962,83.212166
0.9736418,75.052475
0.9866319,73.86681
1.0071415,74.98435
0.88198465,73.850235
0.957322,77.46876
0.8922277,72.04094
0.9305349,73.04156
0.83316326,70.33291
0.902644,72.799255
0.8766419,67.49409
0.922128,65.0177
0.8278071,69.79619
0.8443725,65.80514
0.8205492,65.620865
0.80310804,63.73048
0.78089917,63.2316
0.70820737,62.991306
0.75240743,66.43014
0.65569544,63.219193
0.67037404,66.01395
0.6447239,64.369576
0.67722154,61.926353
0.57796806,63.225266
0.57119346,61.019962
0.55038226,64.14261
0.52135885,63.65081
0.4758329,66.66693
0.51601577,71.58719
0.39508542,67.593506
0.4238092,68.49543
0.53766805,68.32296
0.51580274,74.56985
0.52774763,71.96473
0.6924994,77.3618
0.6920697,79.310844
0.6785318,80.07169
0.7822998,80.72851
0.90491617,84.1251
0.96901554,86.71935
1.074713,84.02442
1.1222404,86.6579
1.18807,99.008224
1.3692672,91.221954
1.3351365,91.822754
1.4442955,98.36677
1.5654793,97.816574
1.5865697,102.16366
1.6185036,98.36828
1.6609263,103.25463
1.7090261,99.843
1.7819101,111.86998
1.6319553,106.63324
1.8091079,106.50888
1.7977829,109.1245
1.8072964,119.026215
1.7337408,115.124054
1.7906697,116.291504
1.8004582,119.73786
1.7356802,115.13448
1.7967587,115.06118
1.7782946,119.28452
1.7557069,115.95558
1.8518955,115.52751
1.766569,117.71252
1.6726632,116.721794
1.6778622,118.02479
1.6362144,116.4928
1.6219891,111.38742
1.5101668,111.512924
1.5209398,113.64744
1.5144532,113.92763
1.4725966,108.076645
1.488376,110.04753
1.3556982,107.42315
1.3887339,109.69949
1.3891051,109.98247
1.3686528,109.778275
1.3564855,106.05154
1.2918224,105.924706
1.2916594,98.591194
1.1812563,100.62909
1.2513828,102.155495
1.3176776,99.00938
1.2064434,99.43682
1.2270553,92.330444
1.2674477,95.09252
1.154125,94.169525
1.1155306,94.20211
1.0573939,87.69928
1.0908598,95.67711
1.005235,88.615036
1.0932097,87.88606
0.9829934,85.27335
0.97132665,90.99847
0.92418194,86.86758
0.90638757,86.672165
0.8383514,87.123
0.800395,84.14535
0.734279,80.19556
0.78474873,78.05336
0.6497192,76.11776
0.7112173,79.168396
0.58572143,73.19523
0.6224095,74.07252
0.6696612,74.82425
0.54602015,78.194145
0.56855756,71.73184
0.54505706,70.005936
0.5242295,71.07457
0.5848586,66.96486
0.57810307,70.16845
0.6598188,71.23562
0.53538096,69.90893
0.5580386,68.754875
0.57043195,66.03285
0.5305657,62.48624
0.5269177,59.6512
0.4006197,68.07513
0.40837178,66.68991
0.36197007,59.24648
0.35489884,60.66133
0.26634318,62.99987
0.30585614,66.189156
0.18462025,61.815773
0.1641623,61.7921
0.12615691,63.720985
0.09020937,67.31925
0.2198258,68.35097
0.09089201,67.83018
0.17678502,71.91606
0.22882952,70.0031
0.08885502,70.8784
0.21570885,75.65627
0.3247924,74.71967
0.19835779,75.26563
0.39762497,78.898834
0.45844758,81.5005
0.53529555,85.55351
0.5889634,86.4755
0.716858,83.75702
0.75392497,87.48462
0.9003577,91.24376
0.9329619,92.872894
1.0333649,96.44382
1.090461,96.43437
1.0973873,97.107376
1.159831,101.25776
1.204602,101.36668
1.382351,104.817345
1.3319069,102.119934
1.347652,109.66236
1.3606168,102.54253
1.435381,108.11587
1.4210709,109.20497
1.4745183,111.67412
1.5256114,112.692444
1.4339008,113.5012
1.413332,117.5722
1.5034325,115.28445
1.3945781,117.98991
1.4228392,113.645065
1.3847256,119.31827
1.3462443,113.893364
1.3795857,119.1028
1.3242812,118.168915
1.3713651,112.7267
1.3068609,112.3972
1.281645,116.8666
1.2482607,114.7166
1.2915555,113.306404
1.2042788,112.951294
1.2187924,112.44437
1.1725444,110.493744
1.0178803,107.71638
1.0842025,102.69456
1.0356451,106.6224
1.0089202,104.05402
1.062625,106.79535
0.9841792,101.31824
1.0231181,101.54975
0.9565456,102.747925
0.9607445,98.45775
1.0192091,101.4939
0.96217626,97.939514
0.88006896,99.212425
0.90906525,97.69832
0.8331484,92.2208
0.86435753,95.7203
0.882305,89.01824
0.7762613,94.71481
0.80853826,87.94823
0.8141125,92.13712
0.7261785,88.47971
0.7361866,84.67752
0.67526096,91.071846
0.6173361,87.149155
0.5592122,85.720406
0.5509316,84.64534
0.506511,81.162506
0.4659552,77.073555
0.4536496,79.90614
0.39393738,73.80369
0.41730705,73.537445
0.3883692,78.552635
0.2726176,78.2195
0.26751834,74.361725
0.37522894,73.18091
0.36827973,77.01003
0.3890336,69.19508
0.27425972,66.80956
0.21497357,69.00849
0.30305016,68.42233
0.37717527,68.27747
0.2653124,67.41628
0.3040257,66.862045
0.18494532,65.624626
0.21000238,65.07265
0.20224126,61.362812
0.22199132,66.85535
0.13444833,64.14942
0.19343153,63.06737
0.14222933,59.275402
0.029153258,61.49008
0.00851086,63.753544
-0.018924523,64.139206
-0.052470833,62.911045
-0.07578495,64.65042
-0.072264075,66.706215
-0.009093064,64.807144
-0.09414406,70.87675
0.030534586,71.60053
0.0036864441,73.61329
0.124665685,69.23822
0.11127102,69.92808
0.18093787,81.65677
0.27921292,75.47844
0.3750267,81.98567
0.36343843,82.194336
0.4579976,85.86132
0.56288373,87.87703
0.7166191,88.97644
0.77746516,91.18778
0.8103911,96.852585
0.8725748,93.75719
1.0186086,94.82838
1.0763265,92.588066
1.1346183,100.46366
1.1946629,97.949196
1.1652966,101.83135
1.2776818,103.540184
1.2958257,109.07645
1.3841708,107.42587
1.3300619,108.74561
1.3613884,105.078476
1.3336927,109.777725
1.4413205,112.70758
1.414804,112.106285
1.368722,116.92558
1.3569978,111.68214
1.4790585,113.493706
1.3494066,112.03972
1.4564786,115.8362
1.4011756,119.78872
1.3255744,111.76564
1.3355769,116.76947
1.3113708,117.61114
1.2412752,113.44354
1.2829969,112.55007
1.242985,113.84026
1.2512261,109.26141
1.1859553,110.77573
1.129952,115.00298
1.0962496,112.14362
1.1169403,106.79063
1.0372753,107.83103
1.1422187,110.19649
1.1020007,107.161194
1.0924835,104.609505
1.0437698,102.29916
0.980106,101.82138
1.003692,101.70821
1.0162323,97.11869
1.0066787,99.618164
0.9918176,97.72583
1.0069983,97.92264
0.97152865,96.845085
0.99376786,95.05074
0.9749399,96.8967
0.8696579,93.25603
0.98428726,92.671936
0.899009,90.056946
0.8035175,92.18017
0.81484306,87.840996
0.8522983,89.14362
0.7993494,90.299934
0.73979044,85.03561
0.6783914,84.926346
0.60248375,87.37215
0.6112741,80.038315
0.6284196,79.57906
0.560639,77.59052
0.57476616,78.329056
0.5614634,75.64349
0.4732941,78.91828
0.5816657,73.44013
0.5920442,78.539375
0.47325367,75.72758
0.5001788,70.2598
0.4363093,72.57535
0.50254124,71.23088
0.5123671,70.11921
0.5318836,68.653694
0.5009846,66.261635
0.5957273,66.71395
0.52671826,67.923965
0.4753612,69.4702
0.5333432,67.213524
0.47582096,64.36511
0.44535846,66.42528
0.38057104,62.914764
0.36182642,64.684906
0.34231105,64.17894
0.29985398,59.84508
0.24383147,65.19773
0.16814253,65.21283
0.20421113,67.00498
0.2365569,64.44937
0.22967875,66.19054
0.22040786,68.51185
0.22885555,67.479645
0.21495053,66.699554
0.22335792,72.956
0.3318461,73.36812
0.37374583,74.16599
0.53077847,77.01015
0.59713584,81.25119
0.5941538,75.807106
0.68931097,81.454475
0.838265,83.21006
0.8621786,87.62495
0.9644167,90.59217
1.0324442,92.71167
1.2219704,93.221245
1.2153393,89.68714
1.2513357,93.147514
1.3435655,98.74186
1.3423926,101.11928
1.4571185,100.77342
1.5589346,101.44094
1.5651786,105.948524
1.5632831,107.9275
1.6049321,108.46362
1.7000905,105.42412
1.6644396,108.84583
1.6635532,109.5309
1.698992,110.27265
1.7145145,120.12374
1.7499455,112.11967
1.780759,112.41131
1.7081786,115.92958
1.7293884,113.81961
1.7270374,119.88584
1.6774191,114.632675
1.6965821,114.92921
1.7541224,113.56281
1.7063973,112.97588
1.7725112,112.992386
1.6314963,110.20503
1.6006533,111.44393
1.6155868,113.004555
1.5621527,107.78674
1.5270259,109.05077
1.4636084,108.20098
1.4931058,106.23387
1.5282185,110.358215
1.3654605,108.82366
1.446236,103.066315
1.3888171,105.28268
1.4138666,99.26792
1.3407387,103.393
1.3875228,99.945854
1.356565,97.65315
1.4059443,98.32845
1.3926805,98.48393
1.3430433,98.132545
1.3601887,96.1645
1.3597561,96.304886
1.3029981,96.22383
1.2796159,89.19048
1.3057774,89.78261
1.3326619,89.4629
1.2012141,88.77113
1.2763954,87.68605
1.0799571,85.43797
1.1234742,87.718285
1.1709799,87.679146
1.0565562,87.41391
1.0814962,83.28757
1.0298419,81.952576
0.9763737,83.015076
0.98341537,77.10733
0.9140343,77.90356
0.8825612,80.10248
0.80790055,74.46279
0.87226325,77.250046
0.8961841,70.507225
0.8149125,74.134094
0.87878925,71.51281
0.83287406,69.91696
0.8171782,68.83915
0.89785755,70.55463
0.84516674,71.747986
0.8259727,67.01922
0.88777554,60.922585
0.8080857,65.29985
0.8267038,62.278355
0.78849745,66.47979
0.7261066,65.82356
0.737913,62.08225
0.69480145,59.40206
0.6596091,63.7839
0.66695666,61.15945
0.62345314,65.06169
0.5502261,68.68107
0.5712657,62.982063
0.48588103,64.09409
0.5039775,66.282166
0.5002839,64.34942
0.4815631,68.25094
0.514331,68.384636
0.57519203,71.55129
0.5985598,75.59683
0.59536874,79.17716
0.6122636,72.295105
0.7949852,77.06081
0.8064917,79.27349
0.88978887,79.83601
1.0276467,80.96728
1.0812368,80.744774
1.1942672,87.914856
1.2351706,90.55197
1.4038126,86.4091
1.3536515,87.72737
1.4867024,91.07042
1.5719185,97.57782
1.6037602,98.38104
1.7177521,104.29381
1.7258779,101.04141
1.8306866,103.70572
1.854022,103.79706
1.8897091,111.1948
1.9211756,110.95097
1.9647888,106.392075
1.9567198,108.46357
1.9091469,112.98753
1.9333568,114.181496
2.008623,114.88852
1.9533443,116.54294
2.0495296,110.34824
2.015377,114.85958
1.9276114,112.8958
1.9112664,113.97317
1.9453403,116.497925
1.9399608,112.42024
1.9385895,117.85061
1.8796571,115.18138
1.8866875,113.9951
1.7737932,112.899086
1.7613415,116.27618
1.8133446,112.849335
1.633778,113.32605
1.6760343,113.64395
1.6705803,111.02444
1.6293634,104.510254
1.6990105,106.34141
1.5501341,109.12267
1.6214869,106.291016
1.5740417,107.54229
1.5821687,110.37711
1.5409845,104.75076
1.5336342,100.62572
1.5168633,107.625565
1.4908146,101.354645
1.465134,94.555275
1.4994292,98.485085
1.4812493,98.03092
1.4623969,95.56258
1.4292771,94.43376
1.5369785,89.885056
1.4172457,86.814026
1.3802245,91.419266
1.3927559,92.02136
1.2388837,84.62491
1.3223629,84.41618
1.2239594,86.231514
1.1342638,84.500465
1.134874,85.286095
1.1317774,83.35093
1.1273509,81.52911
1.1053697,85.42666
0.98130715,83.50316
0.96729565,75.78615
0.9661057,79.08001
0.9182583,74.89017
0.8599409,76.95837
0.91080135,72.780655
0.9131841,76.10055
0.896677,70.80477
0.8682661,70.580185
0.85900146,71.69158
0.8357854,64.318085
0.8682908,67.03412
0.8798888,70.1457
0.90912634,65.61913
0.90278363,66.23422
0.8703891,63.21817
0.77734303,67.63905
0.7503437,64.4774
0.77830267,63.13886
0.69051945,64.41424
0.614114,66.11597
0.5934262,68.76965
0.58047676,62.249985
0.55356795,60.574097
0.5727523,64.824615
0.45481274,61.27071
0.44085613,62.684483
0.43072686,63.27302
0.48553452,66.434296
0.4575668,64.24976
0.49199566,69.19564
0.5098108,71.61248
0.46189034,73.4381
0.56456196,73.58358
0.71106434,67.98382
0.747533,76.310425
0.81100684,81.032585
0.8929149,80.06028
1.0101622,80.2191
1.0294756,83.8701
1.1938137,85.65841
1.2444606,88.05284
1.2873051,92.21439
1.3299439,88.68146
1.4997416,92.19794
1.5582412,100.66422
1.5239264,100.3778
1.6932825,98.13037
1.6495309,104.21099
1.7202466,101.234924
1.7175438,105.32637
1.7571821,110.15282
1.794479,105.655205
1.8037211,109.073944
1.7497535,110.41831
1.7868185,111.30759
1.7987956,112.81003
1.8322642,113.30957
1.8362087,114.56383
1.7614666,113.10378
1.7647601,116.36104
1.7196012,117.335144
1.7896523,115.347176
1.7494744,118.487274
1.689857,117.28926
1.7236831,118.109985
1.6276464,117.55776
1.6035842,105.099434
1.7046677,115.14188
1.5382738,112.109955
1.4474183,111.17478
1.5729269,112.24755
1.5059339,111.33254
1.4472531,111.28701
1.4391903,111.42882
1.3611946,108.49617
1.3555126,106.66402
1.3245286,105.460335
1.3576667,103.68444
1.2122617,102.635475
1.2367938,97.6568
1.2976793,101.1311
1.2167339,99.558334
1.2160128,97.28039
1.2286499,97.99402
1.1904365,99.66059
1.1280898,92.16223
1.1840522,91.767876
1.1176028,95.28339
1.1426667,93.02129
1.0936786,91.25685
1.0495713,90.43503
0.9549309,88.576416
1.0329458,84.311775
0.87439114,87.65545
0.88391465,83.39029
0.83601475,83.920876
0.78210264,81.45139
0.76044875,82.26005
0.7500663,77.108505
0.6514283,79.28169
0.69684315,77.81545
0.63514954,73.200584
0.6438172,75.428734
0.6115138,80.53059
0.58819246,77.54137
0.5328132,73.524414
0.5039952,76.114876
0.5327893,71.009544
0.5553323,67.07593
0.5101988,71.20908
0.4969823,64.02209
0.52528656,68.52536
0.50854254,64.250244
0.55599356,67.69748
0.53493834,68.87725
0.44808295,63.65954
0.4803265,63.946743
0.29623002,62.282673
0.31380582,61.529274
0.38325274,64.48893
0.28915387,65.939926
0.26618207,61.456482
0.15081427,67.549965
0.1659205,70.14605
0.15683463,61.307575
0.09115803,63.575565
0.14461775,67.489235
0.103270724,66.16165
0.15319975,71.82103
0.1647153,70.21345
0.10280311,76.39105
0.16827254,72.318886
0.30192167,72.98876
0.3225765,78.78899
0.3801591,76.59935
0.46432173,80.11615
0.5114176,80.31163
0.63568133,82.54404
0.7482501,84.47136
0.7831351,87.13801
0.88325226,95.28882
0.98599106,93.053894
1.0604559,89.251724
1.0118947,95.18532
1.093843,96.951614
1.1912526,98.68386
1.2286898,101.13454
1.3460796,103.73111
1.3626289,104.260414
1.3078259,99.52787
1.442836,113.62858
1.4339526,112.33671
1.4090333,114.22284
1.425457,110.82101
1.414079,114.15512
1.4068236,113.39105
1.3988788,107.409035
1.4091874,114.295845
1.4131651,116.73574
1.3638284,116.036446
1.3123362,116.13466
1.4486167,116.92708
1.3060547,117.57105
1.3727044,114.111824
1.2982575,113.77475
1.2685015,115.30558
1.2485405,115.58142
1.2759088,117.276535
1.2148457,115.73154
1.2205683,108.45279
1.1519538,111.13358
1.1370325,111.749825
1.1173965,111.38465
1.1138184,111.58213
1.0552227,107.84199
1.0243716,105.307724
0.9960503,106.763016
0.9904202,106.433365
1.0081695,97.54691
0.90984213,103.00244
0.86806136,98.15411
0.85318077,99.802216
0.9679791,98.85265
0.8569344,94.346954
0.90894985,95.14706
0.9227334,93.76769
0.85213053,95.602425
0.7664452,87.98449
0.8765207,94.06455
0.8379809,89.117744
0.7475118,89.52056
0.68760055,91.72778
0.72696775,85.77227
0.68422985,89.42055
0.6360059,80.20444
0.582319,89.11226
0.5581457,85.98996
0.5430862,79.94958
0.44023356,78.522896
0.4588401,80.20791
0.40745267,79.42902
0.3876948,81.947975
0.3793243,73.485344
0.38395026,77.79523
0.27277806,76.64878
0.22011775,72.76778
0.41592947,70.28975
0.45978072,67.318985
0.35705754,68.86447
0.33212388,68.84213
0.26171893,67.185165
0.34713814,63.74229
0.23344426,62.93228
0.288562,66.27109
0.32831237,65.59302
0.22717701,66.698784
0.2620555,64.75322
0.24175656,65.6286
0.14782983,64.8307
0.08609706,61.033737
0.100400485,60.846107
-0.05647153,60.5095
0.11657142,65.95
0.010243568,64.25078
-0.0009806093,64.82167
-0.09965532,64.921
-0.06462809,70.97366
-0.0100103,67.25151
-0.023551676,70.29542
-0.023676084,71.80236
0.032325145,74.6654
0.04186462,78.45626
0.07979341,74.34188
0.20773129,77.22394
0.30143845,81.85507
0.32205752,78.19451
0.38550594,87.50008
0.49042585,86.03614
0.5742073,82.45579
0.6856551,81.816986
0.7540673,89.39215
0.8525744,89.44012
0.9628087,91.86771
0.98212487,93.510826
1.0734859,98.1243
1.1731726,101.01715
1.1476258,102.27459
1.1546954,103.18086
1.2267141,104.59988
1.2904922,101.727425
1.3843597,107.89443
1.3828691,111.05585
1.399113,111.11778
1.3448526,114.17445
1.4513949,114.61093
1.4457127,113.04282
1.3645107,113.39202
1.3506069,116.65807
1.3224225,119.88759
1.4931562,115.40418
1.4084635,116.99768
1.3525939,115.93284
1.3111739,115.731705
1.3318672,118.067245
1.350349,114.44024
1.2596456,116.24689
1.291717,112.747246
1.2254138,114.65621
1.2506822,112.68681
1.2232834,112.02369
1.1359066,111.00673
1.1505176,111.612015
1.125519,106.90523
1.141793,113.68032
1.1317194,107.77395
1.0820068,104.588356
0.9623807,106.644394
1.0551941,104.88382
1.0351267,103.647995
1.0587448,106.187515
1.0191659,98.86993
0.9694848,104.794624
1.0351927,98.230446
0.98597145,99.41556
0.92804945,96.56506
0.92170787,93.77172
0.95795155,90.507225
0.8994213,89.51409
0.88344646,89.865746
0.85255647,90.0146
0.89445007,90.89571
0.76806134,91.94342
0.8172363,88.40216
0.7772309,86.521355
0.7937597,86.331055
0.69435483,80.20964
0.7070212,81.92265
0.61128,84.65321
0.58847916,79.29632
0.60363024,77.34719
0.5617694,76.449936
0.53807527,74.354774
0.49507207,79.228905
0.4440609,74.550674
0.47132245,73.42414
0.4872156,72.01486
0.5073879,71.46755
0.50750804,71.19899
0.5128274,71.55972
0.5059483,71.426384
0.60314363,67.08473
0.47579733,66.073586
0.46947086,66.01985
0.48870054,66.98502
0.44336176,65.19076
0.4422624,61.073677
0.4715086,63.50419
0.45879564,61.686398
0.37123415,65.29029
0.34071004,63.560898
0.30243647,60.85879
0.23694241,62.071934
0.25647262,63.38145
0.17893781,62.42491
0.21625245,64.52521
0.13827196,66.84018
0.17396753,64.56971
0.22360745,66.46671
0.26171327,71.73127
0.20541587,71.147644
0.25526798,69.4119
0.31923363,69.99073
0.4806144,72.2913
0.44093314,76.35554
0.5371107,78.96033
0.6205178,83.40245
0.7044587,81.61106
0.8710925,81.6842
0.90357107,75.71029
0.89809656,85.85882
1.142301,90.31631
1.0464464,91.19201
1.2484429,97.43447
1.2703053,93.96872
1.3463748,95.397545
1.4875885,98.05249
1.4561101,101.516495
1.5250498,106.893814
1.625688,104.31901
1.6571227,107.31184
1.6332693,104.47362
1.6661733,108.47185
1.6718659,112.80538
1.7385522,113.43709
1.735678,112.91644
1.6999983,109.31203
1.6445569,112.99203
1.6998713,117.27371
1.756823,113.82903
1.7505866,113.43434
1.7278471,118.785805
1.6847166,114.63487
1.7014948,117.43468
1.7110375,116.10981
1.6420187,111.44505
1.6502554,116.96372
1.6300876,113.82064
1.606794,111.51431
1.5982227,113.14475
1.5220286,109.69062
1.4754186,114.74317
1.436503,109.85748
1.4401654,108.48815
1.4660006,106.16489
1.395094,108.78536
1.3828615,107.89101
1.4291764,103.9229
1.3434373,105.81521
1.3844035,103.21102
1.3275502,103.3228
1.322288,99.42218
1.3624992,97.99474
1.287594,99.39388
1.3771076,97.24926
1.4019636,96.82129
1.3643894,92.54282
1.2412771,92.94324
1.3372451,92.09165
1.2633951,90.540344
1.2956194,91.010864
1.2242243,90.55923
1.1865821,87.91717
1.1203105,85.684875
1.0802227,84.05728
1.0969331,85.24747
1.0401713,85.56815
1.047906,82.96927
1.0135279,83.353615
0.9990956,81.114235
1.023871,83.99992
0.8331896,78.67457
0.9277398,77.20117
0.82651734,75.933975
0.85527307,77.995224
0.91454333,72.296875
0.7973635,73.42666
0.7942257,73.21532
0.82490593,72.673645
0.8124815,69.34183
0.83926773,66.04474
0.88646203,67.280525
0.85484314,67.557556
0.78778243,68.8938
0.86560076,59.758198
0.8322721,64.2888
0.78940797,63.403004
0.7657134,61.027157
0.72675323,60.243305
0.6726807,62.894264
0.61894506,67.12029
0.64718604,62.463234
0.5454309,64.87255
0.59548247,60.52373
0.5512046,65.171364
0.507894,62.07239
0.5888055,63.826305
0.532498,65.50606
0.566431,67.881256
0.53737336,66.715294
0.53484774,71.1148
0.5587341,72.217705
0.6223132,72.39073
0.66606337,69.01954
0.711022,79.59462
0.83555377,77.14475
0.8372591,82.53514
0.9806452,80.25932
1.0906161,83.451
1.158107,82.18172
1.130671,85.041275
1.2955673,93.01136
1.511434,90.43455
1.5135761,96.71831
1.6255608,95.9254
1.641222,103.70484
1.6983215,96.63703
1.748261,107.24302
1.7446784,105.63221
1.8350806,106.0204
1.8764133,103.26843
1.8862722,107.042625
1.9054108,107.68163
1.9106908,107.93402
2.0503137,113.794556
1.9389753,107.94468
1.9208586,114.94531
2.0414848,116.13729
1.9879286,115.422646
1.9723692,113.038376
1.9500527,116.98067
1.9732411,114.356415
1.9319602,117.35923
1.9909399,114.81471
1.8645341,114.37577
1.8257563,114.26181
1.8502655,113.33873
1.8709238,111.921814
1.763629,113.69408
1.7661994,117.145805
1.7345845,113.9647
1.7676016,112.26086
1.6359367,108.59342
1.6310178,115.744415
1.6232289,109.739555
1.5816876,106.53674
1.5178933,107.21508
1.5457246,105.409546
1.5492667,107.11436
1.4441556,103.11841
1.5507475,102.43721
1.563006,102.79286
1.5446287,97.69263
1.4343951,96.90313
1.4874175,94.38843
1.492541,99.524345
1.5073551,98.143585
1.495061,91.684296
1.4835153,90.71774
1.3678098,96.70754
1.4128867,91.75499
1.4199148,89.43354
1.3525186,83.83676
1.2852077,87.98826
1.1917394,85.05205
1.2772481,83.41798
1.0945634,81.81583
1.1447005,79.875824
1.0462306,82.23126
1.0405297,77.93884
0.9503048,78.721634
0.94763625,79.5546
0.9684255,80.30438
0.8978666,77.22131
0.9220349,73.28337
0.8733606,73.421265
0.96957517,74.521866
0.8667794,74.46985
0.8987379,72.64131
0.88264847,69.515205
0.9408756,64.92431
0.8592916,70.52528
0.86262447,67.65245
0.91639334,71.59626
0.8541652,67.64063
0.7872782,67.2964
0.8144469,64.119194
0.7172858,61.093697
0.7079723,61.608036
0.7179054,62.753975
0.58847874,64.25911
0.6013387,65.830635
0.56400704,61.44349
0.6186451,64.18446
0.4977747,60.52552
0.4416878,64.43693
0.42611524,62.25625
0.5312625,71.33659
0.48229188,71.66305
0.4084181,65.660995
0.48172334,66.864525
0.4795038,70.68647
0.56630474,75.94869
0.6157701,74.967476
0.67325073,79.25022
0.75447834,77.9714
0.83205956,76.707535
0.8534795,82.69682
1.0188657,83.677315
1.1057916,85.82284
1.1391294,87.462395
1.2501494,88.897995
1.29738,89.14357
1.3535234,92.86488
1.4416257,95.59154
1.526391,96.49822
1.5523341,99.16701
1.613256,105.6902
1.5990868,106.77138
1.6240278,106.00537
1.6825826,110.32718
1.7444718,104.59805
1.7671539,108.90538
1.7422777,108.36304
1.7923498,110.915825
1.7938242,112.73881
1.8187445,113.61795
1.8226782,113.10167
1.7788672,113.40553
1.8113455,114.586426
1.8106325,117.14744
1.734825,116.07382
1.7053883,117.484856
1.6608626,113.5564
1.7083325,112.73822
1.6862508,115.18379
1.6799645,111.128555
1.5872272,111.71475
1.5821307,114.976425
1.534863,112.67707
1.491898,112.75245
1.4900938,104.91484
1.4834261,112.44646
1.4425658,110.02904
1.4809105,108.09081
1.3807857,107.591606
1.3696401,110.43124
1.3555329,102.262985
1.2818667,107.19638
1.2416036,101.45684
1.3201723,106.53783
1.2205732,104.09372
1.2399193,100.91483
1.2030594,97.14182
1.2550461,94.821465
1.1676899,99.750824
1.3011329,93.26452
1.1704727,92.594215
1.124182,92.39633
1.137834,93.950485
1.1082679,92.68944
1.1108044,89.228096
1.0597194,91.04882
0.97678626,87.38114
0.9303965,87.56681
0.83883137,84.84622
0.7876652,84.526924
0.80110204,83.56312
0.7504248,84.75225
0.6983381,81.14496
0.69313216,80.21123
0.593192,79.73608
0.6707352,77.87852
0.593319,73.66949
0.5847003,73.29009
0.5609055,72.38153
0.48620555,76.08029
0.5951722,73.72548
0.578013,72.653145
0.5962862,71.859245
0.47557473,67.13106
0.54314846,68.75442
0.6094631,71.56413
0.46013874,69.847176
0.5648298,63.575737
0.40695262,61.57328
0.46260628,65.50261
0.42907253,59.73031
0.43980074,63.297253
0.38701266,69.10649
0.28230187,66.80479
0.299204,59.463352
0.18571982,63.88161
0.2180202,66.900764
0.15267707,65.53581
0.103082225,68.58988
0.1523969,69.36531
0.19508025,63.5928
0.110999346,67.6279
0.0527465,68.22199
0.25407442,71.05491
0.16440843,70.68085
0.18998961,73.054756
0.23776509,74.70835
0.33616742,76.33698
0.40021527,78.246475
0.42944998,80.82544
0.512949,81.578964
0.56699604,83.045044
0.6955128,87.28036
0.8119223,91.084274
0.83646744,91.92592
0.9857154,93.10009
0.9421326,92.649086
1.1213067,95.578674
1.149361,97.26849
1.2285506,105.42504
1.2145169,101.45156
1.2659463,105.07303
1.330193,106.213394
1.3958254,108.431816
1.3713938,109.091896
1.4010922,105.46228
1.4801636,110.63381
1.4289992,113.34854
1.4735705,107.780174
1.456368,114.26334
1.4177903,110.748726
1.3983893,115.591545
1.3708316,116.761154
1.4091681,116.5022
1.4870502,117.59699
1.4317474,117.11063
1.3696998,118.62638
1.3253579,115.354774
1.3543872,115.34783
1.3123273,108.641716
1.1901251,113.21779
1.306915,115.63708
1.1994096,113.24004
1.2545928,108.3551
1.1158406,109.97755
1.1822642,103.89928
1.19479,105.49687
1.0716153,107.39797
1.0582412,105.041534
1.0115703,102.53274
0.96473175,104.798515
0.9839199,103.73351
0.9122341,101.66052
0.8839979,97.66865
0.93791825,101.9715
0.94102645,96.312645
0.9196507,100.95948
0.9170626,93.69701
0.89298606,97.05932
0.90686107,95.89376
0.7903723,94.64402
0.8699058,95.20417
0.8080109,91.126816
0.7795769,92.86246
0.7603037,86.4465
0.69288737,90.16304
0.70578796,90.020424
0.6783931,86.80434
0.70638204,86.66465
0.59367293,84.53836
0.5685843,81.39235
0.5247356,81.69188
0.4616879,81.25058
0.39031836,80.28146
0.3676718,74.266945
0.3790394,72.80863
0.4145132,78.22101
0.35958138,76.61523
0.31151044,77.1184
0.34858346,77.739456
0.37059218,71.99744
0.31569132,72.88386
0.27412447,64.60303
0.33284503,65.42541
0.24416661,72.137085
0.3002677,66.46431
0.29211167,67.14367
0.25752857,63.154564
0.24912383,62.099747
0.25762174,62.04989
0.22269647,63.894775
0.14288762,63.88656
0.16113175,64.332436
0.12266454,60.933376
0.07339759,68.95791
0.0140217645,63.084877
0.016020996,65.01225
0.019681258,65.96742
-0.0620472,67.737885
-0.04053852,69.51368
0.018514132,63.81528
-0.016093183,68.242836
-0.010925772,64.82129
0.030854538,67.76533
0.055922437,70.48717
0.10289517,73.516754
0.1936371,73.80529
0.2013022,74.01483
0.19494192,76.8133
0.32519,80.65339
0.38624647,82.04134
0.5317838,85.42315
0.64134294,87.432755
0.66984165,88.70667
0.7098355,86.529076
0.84854037,91.71591
0.90000314,94.102394
0.9833334,89.265686
1.0989373,97.945274
1.088084,99.37831
1.1587551,99.50809
1.25648,106.15306
1.239514,100.43174
1.3225831,106.76627
1.2601691,106.98064
1.3146888,108.560974
1.3901731,108.57943
1.4601945,113.78849
1.4133775,111.15383
1.3926685,114.64751
1.4260457,113.014404
1.3827487,113.98196
1.3592117,114.96968
1.418681,113.99194
1.3939408,119.29489
1.4299507,113.939415
1.3684314,116.334114
1.3092192,113.55168
1.2605492,112.505035
1.3093915,112.28719
1.359688,113.42199
1.205701,112.54022
1.2288489,113.33329
1.1875567,115.33666
1.1856883,116.16202
1.095173,110.61632
1.1980028,110.72851
1.096268,107.523605
1.0481156,105.87084
1.0670117,107.27944
1.0370449,106.90674
1.0692115,100.92267
1.0244098,99.51904
0.9428992,102.47034
0.9619963,104.2737
0.9569262,98.89467
0.9876107,99.202805
1.0119783,94.822975
1.0174056,94.56297
1.0483277,92.24979
1.0399239,94.50082
0.9913308,91.685356
1.0304531,92.29461
0.8408474,92.52031
0.90852636,94.4082
0.90209126,88.90996
0.8641087,89.788536
0.7811798,81.59251
0.806715,88.33187
0.7179541,83.891426
0.6785496,80.35599
0.6297288,79.028984
0.6062005,84.529144
0.5573571,79.95316
0.5274739,75.93732
0.4753674,78.71879
0.5502096,72.80822
0.5208605,74.67674
0.5634102,74.6401
0.44417226,69.66792
0.45865726,73.5901
0.47425416,70.16807
0.47295108,71.850464
0.5552288,67.491066
0.5002251,66.90542
0.49007174,68.01102
0.55228436,63.75134
0.45740846,65.30813
0.4791378,63.937588
0.47266507,66.22196
0.47599256,65.68224
0.449633,59.016895
0.3914921,64.58421
0.22677417,59.99967
0.3271666,64.07292
0.30065903,64.90651
0.24258183,60.225563
0.21298689,64.03286
0.2736634,64.47993
0.17513373,65.497856
0.24388874,67.023315
0.23763672,73.48679
0.13639902,71.27383
0.25484282,67.565254
0.26304656,78.35752
0.31253675,70.33825
0.42314765,72.06581
0.43595546,74.03487
0.626246,79.818855
0.611196,77.73774
0.72473127,84.26258
0.7957884,81.90527
0.89280677,87.372505
1.0100349,87.8837
1.0297592,90.5703
1.1821358,91.25883
1.1927824,93.90547
1.3154528,98.08721
1.3584396,94.61413
1.443198,101.38368
1.4785442,103.63087
1.4722288,97.16551
1.5623581,107.78198
1.5959346,108.320816
1.6009165,111.62615
1.7192379,115.12169
1.6121545,110.67155
1.7100422,113.60994
1.7132472,113.61305
1.8333058,109.53998
1.7026376,110.2627
1.7316633,113.2138
1.7570149,116.274605
1.674639,111.22284
1.7031698,111.62008
1.7257426,115.382385
1.6631956,116.35614
1.6375755,113.524704
1.6788396,114.4442
1.6437986,116.053375
1.6700032,109.44594
1.579594,116.29787
1.5819554,111.22852
1.5481907,111.27273
1.5404004,111.21582
1.5152817,113.05312
1.4914788,106.41021
1.4019738,108.448685
1.4402806,106.620285
1.3868498,105.73815
1.3958561,104.47182
1.3389279,102.43538
1.3952403,103.168076
1.2872355,102.213234
1.3884876,102.45627
1.3358506,97.52635
1.2840353,101.44054
1.3169037,97.178024
1.2908319,94.396515
1.3327252,89.901436
1.3340919,98.30606
1.2884804,93.09476
1.2557837,91.45052
1.2684147,85.32405
1.2625421,92.25684
1.2608441,86.363335
1.1108509,86.52832
1.0881562,84.35638
1.0104383,86.508934
0.97940534,84.40934
1.0327572,84.63363
0.91070366,82.539024
0.9499477,77.81148
0.952853,79.90485
0.89129925,78.26774
0.9139523,75.54687
0.889168,74.53442
0.8273187,72.6605
0.90279436,72.61295
0.8915956,74.30308
0.8222629,66.324196
0.9173963,71.46323
0.8939648,69.52533
0.91483223,71.00241
0.87972444,70.50415
0.88506657,69.13316
0.89693075,63.78949
0.83505505,67.69548
0.7714234,66.609695
0.72371376,69.992966
0.79031605,63.774555
0.7129462,63.979786
0.7085707,60.610737
0.71026653,65.835594
0.5944391,60.066902
0.6313663,64.75229
0.64604276,63.016056
0.56965744,66.590004
0.5989484,63.708668
0.5493955,68.020096
0.52870846,65.54642
0.49573955,65.31037
0.4807193,70.933525
0.5767494,68.2881
0.5329518,70.78043
0.61709565,72.80151
0.7762501,78.87981
0.8448443,79.76265
0.8174741,75.11138
0.8487742,81.04386
0.9599822,82.17247
1.0694219,82.10878
1.1597648,84.54025
1.2706056,88.81866
1.306752,85.921814
1.4387493,91.355896
1.5836412,91.533806
1.5707313,94.40315
1.5906966,99.43792
1.6479818,97.13707
1.7453755,99.33179
1.8369287,102.282295
1.8077259,107.59603
1.8090066,109.67905
1.8942107,102.94562
1.9576625,107.07431
1.8904805,109.72724
1.9184482,109.771194
1.9477991,111.911064
1.9535711,110.41608
1.9740676,115.09888
1.9933863,117.06129
1.9849465,107.32914
1.9937823,109.59068
1.9781485,114.75698
1.9478579,112.123856
1.9304885,119.97872
1.9181513,117.966125
1.9080173,113.4156
1.7989897,116.64412
1.7762902,113.2719
1.7515198,115.302025
1.7742152,114.00011
1.6951611,107.45005
1.6956843,112.9561
1.7450796,107.37168
1.6181792,106.94451
1.6262692,112.01278
1.69297,107.372925
1.657956,107.382256
1.5316719,104.9864
1.5631447,102.3573
1.4678768,100.1247
1.5034378,102.44931
1.5860565,97.88465
1.4707965,103.12364
1.4201472,94.888985
1.4947064,96.33647
1.4981147,98.304436
1.4695107,91.35434
1.4175617,95.28291
1.4307345,94.07912
1.3645289,93.94032
1.3345041,91.904015
1.3936908,87.691895
1.2747775,93.04944
1.3233973,88.27132
1.1989472,86.65855
1.2147815,87.92101
1.1314408,86.83396
1.1559508,85.826515
1.0865319,82.767876
1.0473257,77.36278
0.931033,75.669685
0.91972125,83.026665
0.9214719,74.95061
0.9470726,76.262825
0.8802223,71.04056
0.953258,73.95351
0.8999903,73.446236
0.82913333,75.28664
0.9416551,73.65075
0.86628836,68.58936
0.90198785,69.47038
0.8883298,67.403755
0.8653829,68.93571
0.77282816,67.77972
0.8205786,61.438084
0.77459437,61.70121
0.7711654,64.52445
0.7668266,63.347088
0.71957064,59.719715
0.6837665,62.709534
0.61617756,62.50193
0.618357,61.702675
0.58027416,67.39223
0.5730107,64.96203
0.51734036,61.53356
0.49460858,64.80078
0.40495253,65.217186
0.53887886,67.28112
0.41469985,66.41014
0.4958882,71.85962
0.47822383,68.04151
0.5513574,74.02431
0.62706196,72.37391
0.61597717,75.04467
0.68564904,74.4458
0.775766,79.325516
0.8061219,78.8547
0.84980714,80.740944
0.92688376,83.59219
1.0903099,83.899475
1.1806022,82.895065
1.1973265,85.278656
1.232748,88.38901
1.3959341,95.31927
1.4367462,98.07783
1.6200728,92.72908
1.5765501,98.76008
1.549909,100.58197
1.6842399,101.18103
1.6937044,104.49751
1.6648549,101.6779
1.743971,108.14613
1.7961311,112.70081
1.7310952,111.02759
1.7360452,110.703354
1.7399127,115.318634
1.7642981,115.690926
1.758335,113.32524
1.7931421,114.10394
1.7588916,122.02093
1.7138784,114.31334
1.7494282,117.89467
1.7287219,116.76538
1.7400216,109.47428
1.6887118,113.46412
1.6892233,117.146515
1.6955992,119.92987
1.5751102,113.6212
1.6072702,113.643715
1.5353247,112.94163
1.4935112,113.063286
1.4766561,107.64097
1.4247475,109.36669
1.4577918,110.76522
1.3910265,105.54669
1.3527913,104.672
1.3302966,108.39626
1.3362443,104.857254
1.3461112,101.263954
1.329176,103.35889
1.2891471,103.80109
1.2161487,102.060165
1.2772973,96.64845
1.2273718,98.10595
1.2552145,96.873314
1.2141013,96.31525
1.1922696,93.47213
1.1642222,90.2355
1.1649523,89.5796
1.0765842,95.82276
1.0776851,91.711334
1.0075575,91.851715
0.97540385,88.894806
0.93708676,85.431
0.8715462,90.32901
0.9255899,87.68999
0.855488,83.39046
0.77130103,79.57076
0.7869932,78.92992
0.7775517,75.57673
0.72598517,78.924446
0.6404222,77.818405
0.6137547,75.08999
0.5893994,78.819
0.64137065,78.69871
0.58630115,70.764824
0.55217457,74.847565
0.5581309,68.35773
0.58743894,69.69571
0.5911437,72.00788
0.5310754,68.51299
0.5406747,66.20956
0.49585944,66.17132
0.5449319,68.07899
0.45129937,66.10795
0.47591373,61.62863
0.49899408,65.12436
0.4809625,61.694492
0.41481197,62.667202
0.37062356,62.757835
0.21734917,62.799
0.26925692,61.782833
0.23214643,66.082375
0.19467513,66.95909
0.13842101,62.2802
0.121856816,67.66558
0.12066667,63.13871
0.063352585,65.24637
0.12756373,66.468864
0.12278984,68.93764
0.082962684,69.98402
0.18123174,71.19037
0.29831946,70.88772
0.27623835,73.11777
0.37384018,75.71172
0.42402792,80.30476
0.43285298,79.168106
0.55671144,85.26125
0.6587945,83.30908
0.74903595,85.7643
0.82961875,92.28395
0.89300776,87.643654
0.93823856,91.15919
1.0314112,92.56289
1.0653499,95.68495
1.1313013,99.60591
1.2207363,98.97925
1.2485882,105.88773
1.2831832,99.7715
1.29875,101.93055
1.3790059,103.933044
1.3968203,105.92547
1.4038125,110.94592
1.5289509,111.26223
1.3906474,114.446495
1.4642351,112.935844
1.4578654,115.253975
1.4051453,114.87611
1.4305748,115.13277
1.4636151,115.564224
1.425808,114.682686
1.4558567,117.40779
1.412488,116.0258
1.3403202,115.570435
1.3229793,113.50367
1.3545479,117.42486
1.2668735,117.43823
1.2568464,112.87312
1.2579261,113.59288
1.2910886,110.158485
1.228733,111.131836
1.1687256,108.43226
1.1313542,111.96181
1.0655378,110.70604
1.0571479,106.493835
1.0034671,110.688705
1.0629965,106.363884
1.0378646,106.01038
0.9418337,102.63194
0.99787396,102.015015
0.95186913,102.765526
0.92257035,96.98384
0.91259825,99.32673
0.8925721,98.395035
0.9105412,101.160866
0.9238109,96.723694
0.91029865,95.85417
0.87746876,91.93235
0.878538,93.11006
0.81097,93.64597
0.80968434,91.924576
0.79914814,91.97799
0.7743663,89.38777
0.7226359,87.874954
0.68842316,86.126945
0.58626634,82.9414
0.55968803,82.91584
0.52261597,88.30437
0.5565031,82.94571
0.5268755,82.52097
0.37597167,81.29013
0.38457045,79.15867
0.44874153,82.444
0.33850154,77.30305
0.37759876,75.37679
0.31282586,73.724365
0.33252913,71.218834
0.3525607,68.44824
0.32884964,72.45599
0.3102815,70.287125
0.28105435,68.96304
0.334513,67.16129
0.30977535,67.36617
0.30441567,65.10831
0.34766454,63.4844
0.31743166,71.8169
0.2500346,65.118286
0.23008405,63.895626
0.24339157,61.204887
0.15186426,66.42398
0.1757483,61.607147
-0.016015751,66.152306
-0.00011115057,61.868526
0.04472886,62.985283
-0.057257347,62.37459
-0.019060502,62.508545
-0.057740707,67.845894
-0.115110375,64.33075
-0.052065287,67.4458
-0.059787985,67.4282
0.005063368,72.60237
0.049349323,73.234825
0.001972754,76.329254
0.17735146,71.366646
0.19529775,78.80856
0.3044532,78.73028
0.21113883,75.89738
0.4214752,79.801025
0.46169937,81.02023
0.587628,84.43727
0.630718,88.729225
0.7922389,89.45092
0.8246428,89.71336
0.8792919,98.7866
0.9889623,97.97657
1.0573072,98.28845
1.0804478,100.34145
1.1264937,100.346214
1.2578675,102.377174
1.2673329,106.25867
1.3838001,105.92574
1.2790035,107.61993
1.3475932,109.8573
1.4122634,114.60666
1.4404786,112.51097
1.421013,117.760666
1.4538609,117.087585
1.3600286,115.51952
1.384979,114.30353
1.4081088,115.31438
1.3766835,117.76814
1.318432,112.49286
1.4401089,115.98356
1.3638456,119.03079
1.3873581,119.8833
1.3930362,117.17134
1.2820293,114.05646
1.243146,115.134285
1.2758322,113.36603
1.2184452,108.48691
1.2764044,115.93028
1.1678215,105.895584
1.0490386,106.26585
1.124542,110.27008
1.1164181,110.02797
1.0246222,108.76783
1.1353836,101.307365
1.1112822,105.646164
1.0149938,100.41534
1.0992035,100.945305
0.9527325,101.77027
1.0337287,103.08646
1.0091226,94.91593
0.9915942,96.27989
1.0065789,98.56138
0.9682392,99.37485
0.9202082,95.35747
1.0188302,90.166336
0.97382724,97.91265
0.9820932,87.90277
0.93757784,91.52221
0.8457435,87.844666
0.8131712,88.39806
0.7886144,91.10489
0.72205764,90.273155
0.7802442,87.313065
0.68831897,92.18321
0.7044254,81.2334
0.57276875,80.228806
0.62963843,84.92511
0.59516084,79.763115
0.580895,72.590515
0.5669687,80.4045
0.55287474,76.307175
0.54654837,80.28681
0.48088565,78.87795
0.56176066,73.36073
0.46926397,68.916245
0.44125098,66.58915
0.592026,69.58773
0.48355174,69.4595
0.5112183,65.55819
0.53091645,70.812065
0.509803,68.606636
0.4711874,60.266582
0.41286755,64.25041
0.4454917,62.054546
0.38781443,62.91678
0.33861762,64.797844
0.33548263,58.8476
0.37161797,60.31316
0.30742347,65.96003
0.2510135,67.80406
0.21855298,62.56843
0.21811612,61.03263
0.24471533,65.51154
0.20653807,65.69989
0.1549838,67.92523
0.17635003,71.7891
0.13753183,72.08162
0.31553367,69.01684
0.25033134,71.505455
0.30616418,72.97516
0.32771504,76.96439
0.467512,75.06669
0.5865491,74.8996
0.66375756,74.934906
0.7250638,82.135414
0.76560324,83.20769
0.9068464,86.513
0.96787786,86.94002
1.0710348,93.657
1.1544356,96.05174
1.2049084,91.13388
1.3216866,97.3634
1.3554605,95.96653
1.4276919,94.997215
1.431979,103.4479
1.5487267,104.2259
1.600187,108.51884
1.5751681,107.934944
1.6184591,110.22538
1.6620216,108.877426
1.6402485,107.75776
1.6733862,114.43642
1.6817677,112.10996
1.7328584,115.85805
1.7107428,113.95075
1.7438519,114.50009
1.7267958,116.25466
1.6803577,115.6985
1.7655182,111.543434
1.6967252,120.484406
1.5970111,119.242455
1.7027025,115.28403
1.7490302,114.93405
1.6193342,118.497795
1.6062671,111.84768
1.6873997,114.24362
1.5586066,109.42189
1.6023034,119.24361
1.5321295,107.87409
1.5057764,107.84842
1.4259275,106.20784
1.4449353,105.63908
1.4627169,105.19278
1.4545535,102.42548
1.4407738,108.81998
1.3756617,104.7014
1.3903633,106.81922
1.398355,97.685585
1.3410637,102.50992
1.3890845,98.976074
1.3405373,97.95424
1.3182064,94.92547
1.2711408,96.79702
1.3420999,96.34295
1.3546273,95.86422
1.3764155,92.443596
1.2859615,91.664665
1.2827381,95.08746
1.265604,93.40246
1.2496096,83.30423
1.1161875,87.20257
1.1561977,85.04384
1.1977313,81.734276
1.1237155,84.99128
0.92509544,79.38242
1.0169287,84.92863
0.9607162,82.152916
0.9399626,79.094315
0.843083,70.47378
0.8485923,75.8262
0.90097284,79.302666
0.81005126,76.185265
0.83699405,73.39013
0.8766236,74.951675
0.78450805,73.3203
0.8251018,73.07434
0.8558926,68.42527
0.90678537,71.28841
0.86062646,62.68405
0.84926206,70.69926
0.8865061,69.02259
0.7722948,62.252354
0.74340177,66.21754
0.7282302,64.357544
0.7973962,64.3751
0.6146097,60.85972
0.6799155,62.33298
0.6360656,63.573643
0.6744502,63.047924
0.5401911,64.33715
0.5731966,62.149494
0.5625763,69.220024
0.51523376,62.17055
0.5500861,62.239155
0.56690615,70.52928
0.52461416,68.44185
0.5913298,69.57612
0.47492486,69.621475
0.6402607,73.625465
0.5717532,69.73047
0.64039403,77.560104
0.85302407,78.254265
0.790959,76.24547
0.9032769,75.76529
1.0363468,82.699684
1.0566335,86.777794
1.1551377,83.33526
1.336947,90.37338
1.3050601,92.48245
1.3903115,92.87394
1.5399882,94.13052
1.5610131,95.41528
1.635478,97.776115
1.7121621,101.29649
1.7550704,106.11856
1.7755274,102.57223
1.8079329,101.21931
1.884242,102.887314
1.8740653,107.0251
1.8999938,108.04195
1.9506041,109.39688
1.9477856,105.83709
1.9541711,110.64269
1.9616675,115.38963
2.0016322,113.59951
2.0313556,115.54224
1.9402463,115.5114
2.0139332,113.19667
2.0312877,114.23275
1.9417864,116.18383
1.9957091,118.3724
1.8847684,116.81161
1.8421581,119.190384
1.847656,115.10744
1.8248727,112.881546
1.7824913,113.50722
1.7318659,112.90057
1.8339754,110.015526
1.6959441,111.33105
1.6860288,111.83645
1.6703997,111.30493
1.6769763,106.74335
1.6426976,106.89355
1.5344826,109.10214
1.6176538,105.06231
1.5199969,109.128456
1.5855826,106.01993
1.5948068,98.67435
1.4831213,103.66402
1.4830439,94.9375
1.4825077,94.99493
1.4906778,96.33499
1.4304279,98.01532
1.4368045,98.624275
1.5603352,91.43834
1.399873,93.32718
1.3496239,90.38998
1.4439075,93.61812
1.3787748,87.816696
1.2207224,90.48146
1.1903969,81.66839
1.1738678,84.37521
1.2149397,85.99876
1.1098139,80.936554
1.2421558,82.727486
0.9817429,81.32015
1.0618374,81.79837
1.0393625,82.93888
0.9714949,78.04322
0.94759506,74.798546
0.8805928,76.48306
0.93557173,73.41818
0.9417888,75.33559
0.8677393,72.38315
0.87861776,70.23296
0.93688923,73.07786
0.96563303,75.25642
0.8671342,68.951584
0.8178318,73.22648
0.8915506,69.3003
0.85418403,67.656075
0.78050864,68.232635
0.80140835,63.799232
0.86577463,68.58292
0.72574365,64.10384
0.7228049,64.86745
0.68317115,61.93351
0.7065226,64.672424
0.68103635,65.35207
0.61694133,65.47893
0.49466097,61.37636
0.54645,63.568497
0.49811953,64.39002
0.47639757,64.33687
0.46194065,68.35822
0.52117014,68.04735
0.43989938,71.14323
0.46395582,71.90892
0.5922727,72.05772
0.6016846,70.40452
0.638738,77.5819
0.62966514,80.00078
0.73008716,80.284645
0.7700117,81.50227
0.9184794,80.15284
0.9715421,79.4093
1.0519263,86.466324
1.1428257,85.52264
1.1891044,92.9083
1.3228217,87.97082
1.4112552,96.08527
1.4360012,95.81175
1.4719505,96.50314
1.5203793,97.544846
1.5851046,99.50203
1.705735,104.25351
1.7172296,104.77106
1.6880368,102.99502
1.7366908,108.59726
1.7703449,110.48818
1.769565,115.09763
1.731949,115.56954
1.8616576,114.49271
1.8074756,112.22566
1.7734865,110.56048
1.8567599,115.6353
1.749664,118.262405
1.7982861,119.52562
1.7703,115.45981
1.7549165,118.65702
1.735338,119.396774
1.7463524,115.074425
1.6767606,111.19056
1.6577337,114.82428
1.5874003,115.5799
1.6011729,114.09691
1.4188172,112.2761
1.5694513,111.04269
1.4702694,109.585785
1.4477353,109.2701
1.4450396,113.25029
1.3877505,108.18823
1.4554147,110.17799
1.2897645,108.319595
1.3526169,105.38242
1.3749065,110.34627
1.2742227,105.4675
1.2531444,105.6422
1.3202944,101.95151
1.2416174,98.934265
1.3033768,99.392876
1.1979223,99.525795
1.1322768,93.69598
1.1518273,95.281784
1.1346174,95.22157
1.1602087,94.417465
1.1091077,93.53649
1.1064092,91.02601
1.1042402,92.829735
1.0973519,90.51322
0.96546453,83.00898
0.8513597,82.95452
0.8595196,87.40239
0.8532712,86.24183
0.74280894,85.11025
0.74947923,82.03185
0.74343383,73.98156
0.72445065,78.48312
0.59259444,79.79907
0.6678108,75.93382
0.6421917,77.01801
0.5708178,81.16832
0.6305164,75.0554
0.5554897,69.84552
0.63576657,73.67218
0.53951555,70.53709
0.5890043,66.14321
0.48940122,69.31552
0.4761832,66.239494
0.5384494,64.522285
0.49448308,64.3589
0.46731633,63.321697
0.42228663,66.98649
0.54473656,65.30053
0.42710638,64.228935
0.3441417,67.21256
0.3601595,62.89005
0.31850487,63.51604
0.27337208,63.241257
0.22651671,65.167755
0.1885453,61.714237
0.14096603,65.00278
0.13388626,68.15636
0.0010195139,69.7081
0.2372619,68.255104
0.14320727,64.98595
0.1390775,70.40232
0.12765828,72.376686
0.18011366,70.91427
0.21532607,73.01756
0.25496855,70.177895
0.28827518,78.84988
0.30009592,75.67109
0.49538234,80.08482
0.6035379,80.67933
0.68983024,88.74414
0.68566096,83.42796
0.82685244,88.93501
0.8860616,89.843735
0.8395571,94.34611
1.0373031,96.20661
1.1230685,95.01626
1.1780349,98.74499
1.1793617,95.82508
1.2415938,100.7544
1.3170787,105.08095
1.3625177,107.86223
1.3902287,111.299286
1.3810769,105.5772
1.3355862,106.836555
1.5025064,111.21552
1.4826124,107.51072
1.4982886,113.56473
1.4232993,113.41825
1.4006193,116.78481
1.4423347,118.24676
1.4561493,111.53846
1.4233489,115.89691
1.4351825,114.78937
1.3705835,109.962074
1.3850867,116.9976
1.3827652,114.716194
1.3539281,115.147385
1.3005496,112.88349
1.3527194,113.14846
1.2002825,115.24795
1.1747435,110.0633
1.1739715,109.821045
1.1288509,109.84457
1.1933136,112.69521
1.0986476,108.714264
1.0541615,110.848885
0.9916592,104.587685
0.9904273,109.75725
0.92632794,107.24896
0.9486113,106.74094
0.9247894,104.71454
1.0140865,99.89258
0.9464325,97.89603
0.9493683,104.80069
0.9887946,100.26541
0.9324355,97.50373
0.8917291,101.11542
0.8708943,97.39029
0.88758326,94.92679
0.7523546,98.85249
0.7836054,95.47265
0.846796,92.00532
0.7464776,87.00896
0.7470937,87.608765
0.68530303,89.27468
0.63785076,93.13554
0.58062035,86.999016
0.5689977,80.98543
0.5903775,83.87752
0.48225388,78.91874
0.4378798,80.4664
0.49117532,80.88424
0.40480417,76.524574
0.34426868,80.914185
0.3443099,79.52725
0.371015,75.91969
0.3614072,74.0627
0.39978406,75.21738
0.38484645,68.90699
0.34336415,70.50044
0.32157484,71.15644
0.35800478,71.01703
0.29410878,71.61576
0.35992637,70.67432
0.2856148,69.05855
0.3031705,63.698193
0.25409678,64.94278
0.2575857,62.4372
0.25352484,66.06832
0.19168818,64.87256
0.22218531,61.979813
0.156782,61.542336
0.12969129,66.97803
0.11236088,63.634735
0.02804113,62.22928
0.017501676,67.79442
-0.082913235,63.931152
-0.041219037,71.24723
-0.092064634,62.96439
-0.008478754,67.53209
0.014182947,67.0833
-0.041026656,68.31854
0.01694004,71.93824
0.06364501,71.760735
0.106240325,74.87094
0.23293173,79.34095
0.23242354,76.834526
0.28704888,82.56875
0.37983274,84.6659
0.4679195,80.406494
0.5552186,85.95925
0.72397697,87.37663
0.781441,90.01554
0.86030954,89.689545
0.90766376,92.00939
0.95112664,93.318886
1.0724406,97.98802
1.099393,103.16379
1.1960502,102.418274
1.2159742,103.11988
1.273383,104.91553
1.2237525,109.28695
1.3569399,105.49163
1.3004476,104.980995
1.4014907,108.50339
1.413803,114.46623
1.4515226,118.87323
1.4034423,116.11113
1.3892663,115.983894
1.4259065,113.215256
1.3964734,113.30867
1.376736,115.08027
1.4238765,115.20709
1.4058391,116.26247
1.320853,114.47155
1.3121401,116.74105
1.3291719,115.328445
1.3155625,115.42324
1.3440975,113.7261
1.3064525,109.39996
1.2566749,109.25538
1.1894636,107.187294
1.1733215,111.19326
1.1612538,110.72204
1.1110766,112.45028
1.0726821,108.33679
1.0535302,108.35855
1.0465852,103.54824
1.0462044,105.968956
0.9495727,103.89147
0.97499466,99.711754
0.9851202,103.198204
1.0026921,100.31047
0.9880444,101.85159
1.0110762,99.717026
1.0093759,97.38349
0.9516659,91.616714
0.9417356,93.23396
0.9257263,92.34796
0.9090228,95.75394
0.962183,90.8601
0.896766,91.37144
0.8868404,90.65997
0.8464615,89.39418
0.8360628,83.652016
0.7986232,84.56189
0.7838009,84.07202
0.6805788,80.68547
0.6774166,85.78012
0.59048283,86.04881
0.6298238,82.88376
0.57585335,79.98606
0.5808771,77.18309
0.543108,78.1545
0.4929256,78.96009
0.48523593,73.36719
0.51722854,77.09588
0.41645753,75.807365
0.5745793,68.23573
0.48118237,71.16847
0.51275605,67.5779
0.48410344,70.69751
0.5454308,69.89363
0.52951354,66.90156
0.59503156,74.74162
0.5249399,64.73927
0.5442702,63.92786
0.38546044,63.127167
0.483818,63.351906
0.35329068,63.114788
0.3905877,63.67778
0.30122235,62.506283
0.3237586,60.08996
0.2770012,60.422054
0.28412575,64.76034
0.18592596,67.933685
0.20045798,62.707073
0.16731043,63.598396
0.18509632,61.736996
0.21963772,68.65365
0.20609467,66.62521
0.2159655,71.19362
0.30889553,74.967094
0.3961585,72.87425
0.3847109,76.79391
0.44719586,76.74604
0.59767663,75.82687
0.5904346,76.508255
0.7258125,81.11142
0.80053604,80.21183
0.84299314,87.37297
0.9147577,86.71356
1.0396503,87.59352
1.1491203,89.03139
1.2463095,95.69581
1.2761759,104.53277
1.3919369,97.253365
1.4423151,99.766174
1.4725698,97.62411
1.5378758,102.20265
1.5380163,107.80935
1.645203,106.358215
1.6103865,104.94101
1.6328212,101.476265
1.64631,109.81026
1.7135608,116.206116
1.7665495,108.78836
1.702947,118.58337
1.7452147,112.52761
1.6804266,115.83768
1.7891525,112.53567
1.7675914,114.4098
1.7244312,115.147316
1.7214648,118.505684
1.6585746,115.16918
1.6991638,114.163475
1.6680702,111.41148
1.6217685,115.146614
1.549245,114.89654
1.5913721,111.68583
1.5347395,113.030716
1.5634478,118.35146
1.5071841,112.64094
1.4749018,109.129814
1.4462419,113.25484
1.417592,112.31105
1.4222286,109.25859
1.3593918,108.44739
1.3494023,107.74775
1.3588449,105.23868
1.3812126,106.53232
1.3163643,101.266815
1.3493433,104.262314
1.3285856,95.33548
1.4062132,102.294754
1.3160434,96.6578
1.2983208,93.43625
1.3813006,98.41749
1.2996421,98.84306
1.3263553,90.3132
1.3324096,95.25076
1.273273,88.97787
1.1328845,84.45608
1.2162304,83.74558
1.1582488,86.71545
1.1242211,81.21258
1.0725545,85.47182
1.1474837,86.29071
1.0708811,81.4148
0.99233335,86.02716
0.936475,80.97413
0.9293231,76.32148
0.9315438,77.505974
0.8476738,75.88441
0.92223287,77.19524
0.9212456,78.4808
0.79638964,71.75386
0.88463753,73.66961
0.81534356,74.42273
0.88137794,68.206535
0.89803857,63.024353
0.79284626,67.5927
0.94388795,67.1733
0.79131365,67.82029
0.7992637,66.980934
0.8026161,66.186966
0.7708046,66.77113
0.91157234,60.267395
0.8200298,63.566547
0.7078314,65.564995
0.66338456,65.08132
0.6828259,66.20706
0.62065184,63.663055
0.5682237,64.34236
0.58620846,64.00031
0.5999497,64.39326
0.5520259,58.797935
0.4961048,64.956856
0.5258062,66.89011
0.5023469,68.41474
0.54778427,69.53544
0.57195026,70.79414
0.5728436,73.54092
0.6187742,74.78394
0.61736566,72.83079
0.783723,73.2845
0.8388499,77.45458
0.92064315,82.78272
0.98103136,82.32363
1.0437952,81.47906
1.1068128,85.23903
1.2835534,86.05365
1.3585085,88.16877
1.3935525,91.736275
1.4071753,94.681076
1.5416551,89.85202
1.6934664,96.93395
1.6738757,104.13112
1.8172494,102.01671
1.764222,107.901726
1.8556668,103.35661
1.8339499,107.77368
1.8522313,112.3597
1.9084471,111.04422
1.9254403,110.1039
1.8726417,113.570274
1.9681337,115.50633
1.9366084,112.86846
1.9666884,116.84012
2.044463,120.151726
1.9789711,116.61102
1.9608757,117.16169
1.9064429,117.479355
1.9376404,116.22067
1.9273641,114.5825
1.8572212,114.77405
1.918476,113.40181
1.9065453,109.99884
1.8330107,115.15816
1.7226957,112.52278
1.7136688,113.43992
1.7633269,113.00245
1.7029896,113.622154
1.6508178,112.832405
1.6297343,106.14502
1.5938551,108.56138
1.5057135,108.33918
1.5277044,109.328514
1.5865586,101.83699
1.5220802,105.96998
1.5632555,102.137474
1.4950372,105.45617
1.4826436,102.60403
1.4525535,99.120316
1.4704584,96.518326
1.4588429,98.75933
1.41773,95.31962
1.4781808,95.43355
1.49073,94.0143
1.4009448,94.354034
1.4363178,96.82607
1.4388239,87.38895
1.3213865,89.28714
1.3708208,90.47992
1.2672722,89.99459
1.2034327,91.895615
1.2286408,83.34947
1.1433207,83.63191
1.0860306,76.11146
1.1043546,81.03672
1.0819653,77.07512
1.026014,77.45166
0.9962269,78.852554
0.95467055,78.09234
1.0160016,77.55091
0.9263585,75.92333
0.89498806,72.54846
0.9071302,73.403854
0.9368314,72.811264
0.90802246,72.91714
0.8558057,67.371704
0.9189881,71.110016
0.9482733,66.05274
0.92583615,71.83182
0.8615196,66.395836
0.84018576,66.11317
0.88531214,63.55654
0.88371116,67.99263
0.8559719,68.20315
0.6855769,64.94746
0.626715,62.07303
0.7383928,61.629417
0.6739972,65.474144
0.5950928,64.67578
0.557872,65.22566
0.5207918,64.087204
0.43895203,62.062584
0.39200094,67.02285
0.50064266,68.83518
0.4324786,69.15169
0.49791074,69.13719
0.5847578,68.367676
0.5340478,69.3403
0.57261604,76.924255
0.62308604,77.164734
0.66297644,75.58804
0.7655378,78.96974
0.79599935,81.695274
0.92434996,79.06346
1.0115284,85.22031
1.1205995,86.12379
1.0994786,92.239685
1.1694709,91.25652
1.3470362,91.34679
1.3305681,92.862495
1.4651306,98.87948
1.4267479,96.58841
1.5516008,94.68063
1.6417325,102.43045
1.7025908,103.47523
1.7270772,105.839
1.7394654,108.11604
1.731995,107.95293
1.7590891,108.960014
1.7687861,106.38919
1.8012305,114.76961
1.7446468,110.792366
1.7485337,114.723976
1.7338028,119.127144
1.760323,115.66363
1.7590687,117.30501
1.7682451,115.102936
1.7746243,118.63274
1.7350292,113.34429
1.7110656,112.65457
1.7782699,114.0159
1.6996906,115.08555
1.6165341,115.0823
1.6838969,117.641495
1.5466311,113.936356
1.5451789,114.46374
1.4892251,111.72001
1.4670848,109.47111
1.468573,113.120674
1.4482231,110.25599
1.3920621,104.63912
1.3543767,108.080666
1.2930954,104.38739
1.3842793,106.33045
1.3433102,104.266685
1.3595052,104.870316
1.1755604,105.63297
1.2618635,102.418846
1.2531753,98.50787
1.2414626,102.80758
1.2362373,98.682304
1.1717541,98.461945
1.2052308,97.71841
1.1792554,96.66108
1.1443301,90.7989
1.0492902,97.37484
1.1447817,87.49704
1.0308642,94.78859
1.0477782,80.04753
1.0440953,88.20867
0.9936538,87.45342
0.9385277,84.72961
0.85929316,84.7292
0.8511751,85.50401
0.80143565,82.84977
0.7512865,78.5103
0.6568812,78.48115
0.6454546,80.90615
0.6836588,77.50598
0.60061383,77.3931
0.5840773,75.73359
0.57634604,73.69702
0.5921742,74.1694
0.55627453,70.54265
0.5241976,70.654816
0.6427985,68.43247
0.5669613,70.82844
0.49389565,68.31962
0.5033349,68.97469
0.5387175,65.50373
0.48005953,65.07906
0.43010062,67.44478
0.4844015,67.9669
0.34188047,66.246895
0.33271185,67.40769
0.37362742,65.00776
0.23977831,69.54384
0.34825805,63.39927
0.2550876,67.306595
0.15827253,67.25911
0.19233508,65.082596
0.12953234,68.63696
0.12287875,71.213
0.107590884,65.613976
0.07524123,69.64849
0.19063005,68.60185
0.119448,66.996864
0.1751488,70.40547
0.1826281,72.02736
0.35940775,75.53973
0.30324188,73.73678
0.34803388,76.115204
0.49521765,85.07145
0.4701231,83.384735
0.646966,78.44926
0.6612658,85.74227
0.8517298,88.98014
0.8590885,94.77508
0.9522179,91.884964
0.99656326,96.70847
1.0504773,96.6027
1.1169571,100.92213
1.1721855,98.197395
1.2649148,101.61045
1.2763758,101.03849
1.2589191,108.250595
1.3415856,107.95746
1.3708924,107.51789
1.4382182,102.887634
1.4517217,109.803215
1.4282315,112.2339
1.4281181,109.21781
1.4893507,114.57982
1.4487134,114.38169
1.4059179,115.0063
1.492048,122.768486
1.4537104,111.2662
1.3824003,111.15432
1.3975365,115.09926
1.3537493,117.78128
1.4003072,116.21882
1.2787943,113.87461
1.3553673,115.828316
1.3522394,110.68373
1.271951,111.525055
1.2111472,113.43665
1.212344,116.62982
1.1889734,113.89914
1.1507156,108.2816
1.1915231,107.66306
1.0543246,107.99015
1.0704411,102.615166
1.0268028,108.88994
0.97826225,101.31096
1.0164369,103.211876
0.96130997,101.875626
1.026288,101.66436
0.90728325,95.610245
0.92383945,100.71124
0.9985726,99.06743
0.8558042,98.462234
0.9107589,97.81866
0.88011616,91.51041
0.89069253,98.49626
0.85419804,91.86866
0.80885744,91.09211
0.8467678,89.8581
0.82188064,93.145256
0.7419204,86.53002
0.66947424,87.566025
0.6364116,86.46022
0.63885784,82.01336
0.57192814,80.37239
0.573443,84.830605
0.50696516,81.406624
0.45983982,80.7918
0.5171441,78.95436
0.40237722,81.64675
0.3989486,75.12068
0.42610285,80.8131
0.31249177,73.40654
0.3642582,79.28373
0.3664654,71.00866
0.34678468,70.47236
0.35933292,71.31277
0.34302637,73.33611
0.36954278,67.09053
0.32118747,69.79813
0.29705444,68.19828
0.27338004,64.44197
0.26799768,69.62404
0.33486104,59.08939
0.19441701,66.814224
0.22910559,68.00305
0.15391183,71.16098
0.10778775,65.99699
0.105487816,66.39655
0.062231857,64.70372
-0.0081335725,63.35998
-0.024976272,65.88549
-0.02157875,65.96764
0.010681907,60.686787
0.018249689,66.292206
-0.0060607605,66.93934
-0.0011232041,65.683105
-0.0381862,69.032104
0.018015124,67.604454
0.0503352,73.9729
0.035518058,73.1882
0.11219793,71.87294
0.21873066,74.544655
0.17719048,77.61665
0.37200075,78.10088
0.49148005,80.33608
0.56525624,80.53483
0.6157375,82.689445
0.6645564,89.69186
0.79422295,89.326035
0.8019541,89.76418
1.0282073,90.42975
0.9890563,98.252754
1.0985699,96.36117
1.2143285,98.312355
1.1713425,101.41083
1.231048,100.66311
1.2799537,100.57179
1.3196774,104.31261
1.3596574,103.12581
1.3357092,110.9737
1.3788124,110.077995
1.3529975,116.24607
1.361239,111.52504
1.3919141,110.49595
1.414976,116.26613
1.3909326,116.45312
1.4257082,114.34046
1.3500962,112.84969
1.3959659,111.90221
1.3871673,117.60677
1.3427659,114.15025
1.3624283,114.4311
1.3139036,111.969826
1.3378849,115.28932
1.2235144,111.767815
1.2654548,110.82125
1.2808226,112.88599
1.1635205,113.65058
1.1400584,115.02952
1.1542681,115.40889
1.0893519,107.29005
1.1499345,108.36924
1.1694323,112.39639
1.0316439,109.4501
0.9903291,106.724434
1.0198383,105.96107
1.1102296,104.130554
0.99987626,101.030556
1.0466077,100.67766
0.9735292,100.6957
1.0236129,97.77449
1.0030358,96.399216
1.0190065,94.86768
1.0164132,93.26249
1.06038,94.36728
0.9424934,93.95293
0.9042268,92.4252
0.94000065,90.17723
0.82843137,87.30459
0.8349667,89.9022
0.83716226,85.20666
0.8015357,85.96882
0.616021,87.64652
0.77794653,87.08353
0.7187269,80.7704
0.60500133,79.41676
0.6138215,81.04839
0.6150588,79.0149
0.58460057,81.86988
0.54490536,77.84614
0.5591431,76.844406
0.4850521,75.936646
0.4927528,73.69235
0.5093088,77.33883
0.52860624,70.180336
0.49850214,75.13851
0.46749657,67.99242
0.4956117,68.64595
0.49330646,65.63609
0.5741114,71.131966
0.49986017,69.464615
0.46511018,67.70691
0.47977936,63.3773
0.4330646,65.253624
0.4944022,62.53129
0.3990079,63.614292
0.34926784,64.864204
0.46287644,64.03902
0.28063944,63.53419
0.29154992,62.00002
0.2067926,63.531643
0.20495307,65.06808
0.22417367,72.05791
0.1662383,62.441612
0.232651,65.83256
0.22773613,61.886646
0.23607472,71.846176
0.21437983,70.52898
0.23544496,72.92242
0.291889,75.95926
0.3592876,78.50391
0.514585,73.79187
0.6594023,75.97213
0.5972774,81.42257
0.7241098,82.25617
0.71144557,81.43983
0.8610932,91.54383
0.9987207,88.657486
1.0255437,89.621
1.0895544,90.44645
1.212938,95.02219
1.300156,95.76666
1.3945336,100.866516
1.443391,101.09452
1.4876844,99.570854
1.51732,102.39946
1.5627545,101.712
1.6145784,103.49192
1.6321759,102.37639
1.6706885,106.95571
1.6224823,109.827896
1.6974505,108.19034
1.6843877,113.389015
1.720339,114.25153
1.7745951,116.48376
1.7765478,109.55729
1.713687,111.4813
1.7248477,115.728775
1.6698216,114.2191
1.7199616,110.62345
1.7173007,114.757256
1.7210455,112.037155
1.6872851,117.54437
1.6508356,115.031105
1.7284054,110.128975
1.6493443,114.99153
1.5436634,117.411
1.5769784,113.27584
1.5172389,112.08304
1.4892637,110.81689
1.4183973,112.13629
1.4353428,108.58614
1.4509686,106.22515
1.4273471,106.802055
1.4355464,107.084145
1.3875686,102.5372
1.2852738,105.62321
1.2959801,102.385254
1.3168191,102.05828
1.4161073,103.52864
1.3482313,100.585625
1.3182899,95.7071
1.2686466,95.26688
1.2295427,93.926865
1.296232,93.99531
1.2964371,93.47474
1.2927384,91.34825
1.260766,90.01152
1.2115408,84.32407
1.2583842,88.759575
1.0916897,90.32419
1.0843964,81.5701
1.0660034,83.19705
0.97610736,85.819214
1.0902629,84.29227
0.9779758,80.46564
0.9510355,82.946014
0.9105431,78.39321
0.8053285,74.74803
0.85606253,74.81558
0.9105732,77.50252
0.8406134,77.48259
0.90755683,77.15386
0.881849,70.79204
0.85415626,72.05829
0.86988264,67.47184
0.93572867,71.69529
0.8722051,66.182594
0.83847153,71.61723
0.85580975,67.595184
0.75478923,68.2961
0.83510953,67.275856
0.8246291,68.26202
0.8054425,62.158573
0.76780075,62.932137
0.7556631,64.92519
0.6529122,59.88013
0.67700917,63.249477
0.5959965,65.96659
0.6161327,63.36705
0.51794523,62.744556
0.5352188,63.119205
0.52944857,62.606815
0.5826108,64.394806
0.5474379,63.21504
0.50578856,71.563484
0.5024205,65.67931
0.51368433,70.28802
0.6556656,68.46365
0.67503786,77.21395
0.6908582,74.79666
0.68610907,76.71677
0.8509396,73.34163
0.95254886,76.54574
1.0391376,81.09373
1.0757408,78.99011
1.1766948,87.32081
1.1976162,86.97178
1.2923243,90.02479
1.499575,91.44059
1.4606081,93.62057
1.5214081,94.70432
1.6010693,97.60426
1.68821,100.06998
1.6631527,102.98991
1.7063928,105.53969
1.8315618,99.3263
1.9222883,105.85448
1.9193023,102.53211
1.9513437,110.854576
2.0078626,111.69984
1.9312398,108.66003
1.9439096,116.6549
1.9878902,109.74276
1.9453444,113.92735
1.9470122,116.38704
2.0006652,117.410995
1.9593239,115.1127
1.9255369,115.36337
1.8720405,115.155205
1.8988769,113.756584
1.875932,116.20986
1.793799,115.62375
1.8001043,112.64546
1.8056927,115.850525
1.7627035,114.13343
1.709529,108.30529
1.7665318,110.79648
1.66244,109.470726
1.6938858,111.61706
1.6316618,105.77259
1.659351,108.64397
1.5956154,109.86743
1.6381023,101.38447
1.5865607,105.0873
1.5318025,104.80777
1.5740683,101.01139
1.5396396,99.49594
1.4676749,101.39491
1.4899247,95.86549
1.5283787,97.98085
1.4897734,98.52212
1.4982358,100.00117
1.5124316,93.83807
1.4044056,93.969604
1.3419683,94.506294
1.3710568,90.17125
1.3315442,88.68998
1.3396897,90.7537
1.2625196,89.34843
1.2742118,88.40572
1.2124835,84.65475
1.2070396,87.62317
1.2061058,82.5491
1.0631547,83.62929
1.0534527,86.4252
0.9974064,78.28569
0.9436365,84.43421
0.95530707,80.38145
0.92076766,80.33473
0.9486782,75.32889
0.89503694,73.575294
0.9174972,76.06387
0.884893,71.22256
0.90557814,70.79644
0.9053791,69.094955
0.8596921,68.96525
0.7609513,67.09516
0.85713434,68.6144
0.8534926,69.46211
0.9066843,70.05436
0.8510112,63.649567
0.8497839,63.72059
0.77235633,69.57551
0.72052765,62.117226
0.6423636,63.653988
0.6385504,62.92932
0.6300811,65.815674
0.63353574,64.01963
0.56615597,64.92807
0.55389476,61.372818
0.43949732,62.860546
0.57828915,65.31801
0.45313814,65.15535
0.46860114,65.67828
0.4754694,63.82664
0.4752132,65.46977
0.45057133,73.289185
0.5753008,71.120186
0.61706054,75.52716
0.56570166,76.540054
0.6753671,77.26135
0.729871,74.431625
0.86539066,82.16558
0.88309455,80.17464
0.9609593,87.401024
1.012741,91.03831
1.1154555,90.0678
1.1916212,89.554344
1.3185499,92.86826
1.3354642,94.01827
1.4481838,98.46925
1.4993122,93.42751
1.5034838,101.70321
1.6367544,103.09009
1.6718868,106.52497
1.7076868,107.460075
1.8058484,106.25863
1.7780095,109.72922
1.7453154,108.21213
1.8160373,110.33011
1.7407223,113.66151
1.7137997,110.36619
1.7713263,114.073204
1.8413197,112.11744
1.792384,114.25916
1.7497182,115.150116
1.8047295,117.40645
1.7204287,117.584984
1.8117034,114.92697
1.7237109,119.70494
1.7110649,113.82231
1.7094141,115.339905
1.6050897,116.30817
1.6307327,116.36308
1.5111848,111.25064
1.5224055,113.560646
1.516551,111.23572
1.5125128,113.4914
1.5251667,111.027115
1.3836021,110.700516
1.3629229,106.40688
1.3547941,109.10102
1.4141169,109.24914
1.288446,108.50046
1.2541124,104.641174
1.2782867,106.22783
1.2726974,105.33984
1.254853,100.83827
1.191785,100.76948
1.287258,95.6152
1.1314242,97.54762
1.2572067,96.49977
1.1708099,91.68629
1.1081424,92.37723
1.1229111,89.300415
1.1349399,88.50958
1.0811713,90.64139
1.0889102,89.41136
1.0027946,88.292046
0.91552335,85.23208
0.8698759,86.29322
0.92147905,85.40618
0.95068574,82.724144
0.879305,83.100464
0.73989064,83.03323
0.6646878,80.182106
0.75170934,79.68215
0.7334154,78.9533
0.6050728,77.84376
0.6426865,74.61013
0.60193706,77.42474
0.5766173,74.92192
0.57882655,72.943565
0.5680584,72.68448
0.5843085,65.36403
0.59764135,71.66309
0.59862,71.55633
0.55022436,70.29177
0.48393896,67.89265
0.5494038,65.65002
0.4596812,69.66677
0.50053096,67.353294
0.4334814,63.46237
0.40495512,64.205826
0.33884835,59.984188
0.40021932,62.18333
0.34321094,65.904465
0.34544754,61.48686
0.2531772,66.29638
0.2729697,64.45025
0.15986392,63.841732
0.13886167,66.63553
0.13891877,64.18548
0.09137072,66.09677
0.13046819,65.62215
0.08243364,71.466675
0.13826905,72.68646
0.24554202,70.99432
0.22365233,77.15772
0.32314384,77.00383
0.2659911,77.81366
0.3770096,75.19386
0.46109247,80.343315
0.56031746,86.01374
0.6515898,82.29381
0.7246059,85.305115
0.7838323,88.90782
0.9138118,90.62171
0.9408433,91.135124
0.98966694,94.17138
1.0167907,98.0957
1.164575,100.20181
1.2763562,102.83945
1.2302455,100.35905
1.2389488,99.41998
1.3320343,108.16384
1.3434289,105.36665
1.4462888,110.96618
1.3617818,114.026024
1.4150811,113.384224
1.3847761,110.3553
1.42836,111.92866
1.3947958,110.91795
1.5318887,115.68264
1.4426677,116.33771
1.45558,118.54727
1.421294,113.20891
1.4049375,112.909424
1.4212648,112.5819
1.4186715,114.3247
1.3363914,113.13795
1.4222322,116.98031
1.2464479,114.72142
1.204445,114.2648
1.2022927,114.71286
1.2147894,114.43579
1.1455965,112.884224
1.0820296,110.7321
1.1459699,114.28322
1.0363574,111.973816
1.0820822,107.27996
1.0134908,105.63353
1.0049592,105.90341
1.0399266,105.03401
0.975173,102.94835
0.9759738,106.79535
0.9687047,100.05869
0.94581974,98.74689
0.8776241,100.891624
0.95170194,98.83653
0.94274217,98.85496
0.9004377,96.425186
0.9164681,94.213974
0.8451431,94.73133
0.8054581,92.87802
0.8425161,90.9157
0.7323987,86.73501
0.7718909,91.914696
0.6845008,85.24169
0.6512331,88.14174
0.65159345,82.323586
0.6266633,84.83722
0.5784523,80.36451
0.57395077,78.53147
0.56284946,83.499405
0.48856148,78.21433
0.44268617,76.99074
0.35942072,77.21693
0.3996961,76.655785
0.34699118,77.54584
0.30623633,79.268005
0.40445584,76.52176
0.36919406,79.87433
0.28693902,67.49096
0.32482713,73.3245
0.3039751,70.07802
0.36709148,68.74182
0.36020982,64.06255
0.2627166,61.48864
0.27874464,69.733795
0.28950414,66.3384
0.24892558,60.44505
0.29124898,62.547558
0.26211694,62.70235
0.22628778,60.023937
0.116930895,63.865406
0.17690098,63.892796
0.12212611,62.097485
0.039364792,61.754307
0.04162185,63.865818
0.045117717,64.339516
0.013343828,65.02282
-0.05221701,64.16322
-0.000293597,68.79758
-0.00937741,67.412
0.00013425935,67.575066
0.015116938,69.86575
-0.038307354,70.50865
0.06372331,68.38096
0.13163038,78.659775
0.1541071,77.94663
0.23775454,74.74507
0.39913118,81.775215
0.34652632,83.36439
0.5282899,83.127
0.5279149,85.11216
0.73678523,86.84856
0.7941173,88.82903
0.87859064,91.36337
0.86884344,92.71937
0.98828596,97.114
1.0788785,100.90483
1.0918149,96.79099
1.1406635,102.96186
1.1823971,101.60746
1.3116673,106.41888
1.2133241,106.82406
1.3654829,110.64102
1.3603315,112.17861
1.3517803,112.60382
1.3087909,111.6967
1.4328352,113.79933
1.42203,113.87386
1.4151368,108.62171
1.3847345,108.80449
1.392108,113.706024
1.3336012,113.03991
1.3300923,113.90116
1.388155,117.86011
1.3745468,115.567375
1.3344954,119.68719
1.3042216,115.04292
1.3133996,118.42794
1.3641187,114.9979
1.2413949,110.61817
1.2082312,112.30212
1.2621018,111.24907
1.1849906,109.56723
1.1745626,110.94723
1.1663442,108.84923
1.0385345,111.22106
1.0493034,108.53989
1.0730028,106.030594
1.0171793,103.16397
1.0406846,100.95992
1.0554235,103.2022
1.0159754,103.85007
1.0037086,104.40498
1.0767239,98.531006
0.9506414,95.27353
1.0861547,93.7265
0.95811796,99.29018
0.9755188,93.793175
0.94349396,89.98768
0.94660175,95.09043
0.9040994,92.43788
0.82980305,90.19953
0.89159214,88.2506
0.85639894,91.743416
0.7913865,83.57394
0.7355868,86.09255
0.7431701,85.035385
0.711808,88.68354
0.61125064,85.030914
0.6934366,79.17478
0.6237039,86.96371
0.59353364,78.70169
0.59590364,79.490295
0.5894885,78.04095
0.47799164,74.86517
0.5428122,74.16244
0.53038067,71.15464
0.50819343,70.168816
0.5441882,73.72715
0.54589003,67.29812
0.5318852,71.10596
0.5786514,69.18855
0.5244264,65.46597
0.5423355,65.68273
0.43854758,71.881424
0.485717,69.33249
0.47554675,65.90725
0.51548994,69.41136
0.44590303,66.82547
0.3863709,60.193058
0.3678532,67.489075
0.3060217,60.310703
0.37681648,62.06909
0.29452464,63.51924
0.22771673,62.946415
0.25707975,61.393143
0.16072547,66.96194
0.18119113,67.05068
0.17690636,68.07053
0.2651381,63.76891
0.17787045,73.724335
0.18108387,71.150116
0.30254665,70.23879
0.36395997,71.066925
0.43521306,71.62599
0.5291524,75.81489
0.44447556,80.604454
0.6007406,79.56194
0.7059154,76.26583
0.7341043,80.40263
0.9030436,85.72198
0.9041319,86.805756
1.0745099,92.959816
1.1158489,92.11408
1.190061,96.50662
1.2620474,93.03607
1.3460528,97.798065
1.4063538,98.60864
1.4836166,107.3908
1.4990853,106.29517
1.55061,101.284065
1.631798,107.998634
1.6457208,113.4124
1.641933,103.90009
1.7019452,110.29641
1.7057371,114.60418
1.7346089,112.67122
1.7601471,112.58577
1.7133332,114.989334
1.739382,112.75466
1.7882384,115.574486
1.7080488,115.07667
1.6886452,122.392166
1.6935924,117.873405
1.6550854,112.11946
1.7088169,111.622734
1.6117809,116.76083
1.6878588,113.58855
1.7068971,114.51013
1.6492949,114.05361
1.5720018,111.5839
1.6036264,114.31903
1.5919933,110.38298
1.539534,109.11513
1.4542195,106.784935
1.5248877,109.09962
1.4792196,106.71585
1.4186958,109.14805
1.3345443,108.61231
1.4245273,98.57809
1.3861719,104.12888
1.3641837,100.28822
1.3707935,95.75305
1.3853655,97.32744
1.3996665,98.36375
1.2888707,98.156204
1.3739207,96.86686
1.2875127,98.03633
1.3719997,94.66107
1.353455,94.77494
1.243437,90.683815
1.2339339,94.36681
1.2354861,87.903984
1.0652736,89.22969
1.1755756,88.47225
1.161683,88.287544
1.0703344,77.857056
1.0710822,84.3892
1.0438299,84.275925
1.032252,82.71462
0.98634255,81.37878
0.8952369,80.84562
0.86636883,83.388855
0.88266295,77.0812
0.8246714,78.10165
0.82365733,76.43634
0.86412656,75.50634
0.86226135,67.90344
0.78393215,72.10094
0.8213443,70.58445
0.79718053,66.88796
0.8637283,70.41975
0.8236738,70.947426
0.77851826,67.55932
0.8444466,69.499565
0.8603126,66.973885
0.8045703,66.91271
