ppg,abp
0.9903355,114.89839
1.1447047,114.24979
1.1741208,122.594475
1.3175311,122.96153
1.383366,125.676704
1.4634378,129.64772
1.3933815,132.72849
1.6404914,135.69861
1.6694682,142.14755
1.6664579,144.09859
1.7190074,143.68735
1.6974949,146.81133
1.6925353,149.26833
1.6556883,145.10867
1.7316525,153.61768
1.7329894,155.07002
1.736894,151.4377
1.7252879,150.83813
1.7135159,151.75592
1.7217759,153.2173
1.6787566,150.45488
1.5915374,151.86475
1.6481017,147.8043
1.5981259,145.61948
1.5599008,147.93727
1.5253003,149.48648
1.4614224,143.04506
1.4358222,142.28352
1.3780625,143.7375
1.3731842,137.64449
1.3225168,138.01869
1.3628163,131.81042
1.376928,130.48099
1.3479682,133.86072
1.3291253,132.61855
1.3626972,127.5009
1.3555923,127.3059
1.340806,120.72673
1.2474705,123.77993
1.3013558,120.62931
1.242175,120.1698
1.2848761,116.44045
1.2098993,112.44136
1.2293515,109.10788
1.1608319,112.55221
1.0836377,107.501625
1.0160052,105.23749
1.0149463,105.5108
0.9885163,101.29098
0.96692276,103.81402
0.87729126,99.997765
0.84277385,97.63734
0.81145626,90.97409
0.85938877,94.01937
0.8671403,91.63177
0.85626996,90.085014
0.7712176,86.898544
0.8660633,87.71958
0.7779207,83.32631
0.84395003,86.11283
0.8752988,84.81171
0.82809997,78.23708
0.7451412,73.4518
0.81334364,71.87461
0.7254032,78.410835
0.715708,72.94355
0.69162035,75.76223
0.6702935,74.69353
0.62255454,77.860664
0.64869374,76.36103
0.53408575,79.884056
0.50395185,78.66576
0.5027966,77.59461
0.4566398,82.45644
0.48321834,82.81629
0.47450945,85.918045
0.59850276,87.01136
0.65640455,89.63339
0.76778567,92.973404
0.7536294,99.73004
0.8338825,102.43577
0.9321786,101.92124
1.0562252,102.67433
1.1947244,110.56643
1.3698616,110.02641
1.3113778,113.99499
1.5166072,120.10592
1.5331442,124.79222
1.6317273,126.3989
1.672823,129.92932
1.7520458,133.79279
1.8494982,139.7048
1.8230368,135.73949
1.8881524,142.02432
1.9147115,143.48352
1.9276313,143.91463
1.9719504,151.43268
1.8280089,146.88379
2.023962,149.99635
1.9545096,153.3719
2.0476773,150.652
1.8473042,156.00078
1.8791105,154.71295
1.8459808,151.70143
1.8486958,149.99168
1.8465048,148.84717
1.7754323,152.62447
1.728236,148.05197
1.7562933,144.86383
1.6990904,149.52505
1.7392318,147.48886
1.6605011,143.93597
1.6018542,142.04724
1.5708694,139.37485
1.5387938,139.09665
1.5360974,136.83852
1.4962898,134.41895
1.5405616,130.9215
1.5338743,133.30188
1.4159911,129.50368
1.4872317,126.07902
1.516549,125.86313
1.4311533,123.10141
1.5153772,115.70957
1.4045957,115.038506
1.4597416,116.632484
1.3957965,115.09738
1.4073756,108.9552
1.3367553,110.99821
1.25724,108.89787
1.1815155,108.12603
1.1482894,103.285706
1.0843436,99.806114
0.97179806,96.93673
1.0401487,96.97301
0.98610944,94.589485
0.9732061,95.6827
0.96950674,89.801125
0.967907,91.374596
0.9601522,91.53707
0.9819588,86.58003
0.9226622,87.99344
0.93062127,85.41843
0.932598,81.204666
0.8865828,77.405235
0.83616036,79.13762
0.8670055,79.77962
0.82680637,78.654884
0.81297106,76.25234
0.779404,79.66136
0.70019233,71.20203
0.68807936,79.55133
0.62343174,70.61712
0.64013666,74.90969
0.6489079,77.72463
0.5518332,80.69242
0.49760076,82.40543
0.60672957,79.69314
0.57874316,79.62555
0.54218173,87.477844
0.58179957,86.45391
0.60983187,87.958595
0.7241768,88.23828
0.756363,92.48661
0.8298097,95.846695
0.9298842,97.90873
1.0675068,105.26821
1.1322238,109.777565
1.2251434,114.6366
1.3105968,112.77308
1.4320035,116.78204
1.4590062,119.71049
1.568842,125.516205
1.6636627,127.764786
1.7294583,133.8526
1.7104158,129.75516
1.7949239,135.79135
1.8101978,141.50594
1.9154084,142.51979
1.910728,145.24915
1.8857844,146.58856
1.8742813,143.4383
1.914786,149.08607
1.9147711,152.48112
1.8843131,154.22223
1.8737601,151.05493
1.8534397,153.03076
1.8772159,148.08383
1.8502175,152.715
1.7509389,152.3842
1.7387166,146.47015
1.6993517,147.91298
1.6586987,146.1413
1.6410338,145.99622
1.6317106,143.80069
1.5054955,146.96857
1.6011039,140.5038
1.4636685,136.54942
1.4911036,140.21709
1.4687579,134.10826
1.4891963,133.72606
1.3708339,129.89975
1.373176,122.962006
1.3797908,126.433075
1.311258,126.427986
1.4268646,126.77098
1.3650242,122.25525
1.344127,121.32948
1.2951022,119.05946
1.2831603,115.578354
1.258988,114.63239
1.1411012,113.97028
1.1719356,111.26592
1.0658964,109.7919
1.0361458,110.18007
0.99298686,106.82169
0.9630091,107.9752
0.98526317,100.81301
0.91069555,97.356834
0.8228684,96.73276
0.7583989,100.267395
0.8187368,95.81869
0.7364544,94.81527
0.7847722,87.32771
0.7286238,89.548355
0.7000747,84.80817
0.7292625,82.428635
0.7642097,81.86745
0.7271693,82.23932
0.7401514,79.18858
0.6482219,80.866005
0.6490979,74.794304
0.6260265,76.03302
0.5332999,76.13787
0.47925472,76.17191
0.5479352,73.700264
0.4264703,79.55073
0.38132977,77.32197
0.33815736,77.043274
0.36279738,72.1758
0.28303692,78.64627
0.27957803,78.114006
0.31376654,77.66702
0.36658716,84.873474
0.31297138,83.93927
0.3782322,89.55603
0.378466,89.524414
0.48721674,91.16665
0.5193618,97.03832
0.6056641,101.11318
0.71131545,101.09002
0.8684597,103.912025
1.0371966,110.58561
1.0170946,117.46935
1.1393125,118.03199
1.2193023,119.89678
1.3182812,129.20123
1.35926,130.0179
1.4450136,130.26915
1.4375416,130.28644
1.5348648,138.73087
1.5447683,140.15826
1.6377271,142.09464
1.5288138,146.99052
1.6028281,147.1932
1.5632741,147.9263
1.5893476,148.3242
1.5654631,153.1107
1.5436689,157.09781
1.5841758,151.22923
1.5527867,153.95483
1.536228,153.6809
1.5412325,147.83388
1.4842982,154.66025
1.4625672,149.62213
1.3412097,149.88622
1.433181,146.61841
1.3501709,146.99385
1.324687,148.42839
1.2523338,141.55151
1.1703432,141.91132
1.2204618,138.17154
1.1983025,142.36664
1.1960247,134.48383
1.1070698,134.7534
1.0501865,131.85197
1.142566,130.9452
1.0228804,123.557816
1.1007527,127.51317
1.0015934,123.46389
0.99475247,120.136536
0.9827293,126.95417
0.97118753,120.39022
0.90721655,114.31857
0.9101213,118.039024
0.8682211,114.74102
0.8069282,110.2913
0.742252,108.81737
0.7970817,112.70265
0.6583206,108.12811
0.6211561,103.91192
0.57280725,101.60892
0.57454956,97.03053
0.5310345,96.69893
0.4613117,94.45137
0.42628348,91.9815
0.47325462,95.446495
0.45143914,92.366745
0.47761726,86.95593
0.3851131,87.19824
0.48547924,85.540924
0.38051462,85.99388
0.4152251,79.47612
0.40403014,79.35957
0.40984485,80.57395
0.35153574,73.74867
0.26589465,76.66546
0.2831221,75.11741
0.2458966,73.74556
0.18897969,75.01733
0.18467864,72.663666
0.15935878,76.0761
0.11431122,74.296585
0.012091818,74.24315
-0.014759456,80.33435
0.02157534,83.48476
-0.01634165,80.519646
0.037163746,79.05698
0.06467878,85.16075
0.12665673,87.23913
0.104818545,95.40161
0.20311129,94.39077
0.30812207,93.61559
0.39767593,98.543274
0.45839942,106.167885
0.56118923,108.32467
0.6354823,111.062164
0.7612608,112.03016
0.90947145,116.654686
1.000829,115.88395
0.9779747,124.545166
1.1380806,128.19055
1.1416731,133.3673
1.2413801,130.98845
1.2924086,137.80055
1.3643167,136.05453
1.2885727,143.79134
1.3410062,141.87015
1.3666991,147.35698
1.4416771,145.02856
1.435527,150.97003
1.3643476,150.25
1.4197378,149.47331
1.2985948,153.44121
1.3747065,149.05544
1.4051185,152.02798
1.3314571,152.80336
1.2850076,151.59378
1.2500916,153.57463
1.2606539,149.27188
1.1596197,145.53029
1.2255555,149.81113
1.1594734,149.43333
1.1304101,146.44449
1.0459015,144.61427
0.9807633,138.79791
0.93180126,139.94739
0.9794103,136.93468
0.98764867,134.36214
0.9143331,130.09427
0.8981005,134.70871
0.858129,132.04855
0.9437443,130.36484
0.8683433,126.76545
0.89796865,124.79258
0.8885693,121.82474
0.81458545,118.48628
0.8738018,119.40294
0.7836642,116.05001
0.77292264,117.208885
0.81423146,111.49434
0.6471548,111.19793
0.72817963,110.207596
0.65634227,105.79305
0.582071,98.8275
0.5322432,98.19684
0.45746574,98.38651
0.4344821,98.52127
0.3759781,98.091415
0.39606848,92.69024
0.3809112,92.85841
0.31025362,91.25433
0.31951594,88.163
0.3438996,87.691536
0.35931766,84.864914
0.3369205,87.49095
0.333915,83.10584
0.31451407,80.47444
0.36322606,78.61175
0.264427,81.68832
0.2493902,78.74272
0.16189976,78.18086
0.25607422,71.62039
0.22839509,70.926216
0.15346768,75.02473
0.054179296,75.66708
0.027148115,71.50472
-0.01556713,74.854355
0.0376965,78.0205
-0.021449469,77.107574
-0.053455837,82.8272
0.036315627,83.08657
0.029642701,84.96884
-0.005792817,85.45661
0.09086714,88.71342
0.2097432,93.10556
0.3261097,92.408806
0.37702507,100.78219
0.5273535,99.76901
0.5784935,105.92522
0.6368336,108.486534
0.7429105,115.370895
0.87565905,115.139
0.92185134,118.19288
0.9779321,124.462006
1.1083548,125.91234
1.2281771,129.4943
1.2608128,133.77533
1.3100597,135.09775
1.3538818,141.0832
1.3313643,144.20576
1.3871278,141.23843
1.4397327,147.42528
1.4082316,145.98338
1.4065332,148.31207
1.4278533,151.60094
1.4527878,146.41032
1.4915849,153.75806
1.4703526,153.86174
1.420783,149.21649
1.425919,154.18889
1.4011272,151.1691
1.3173239,150.51666
1.3521904,150.12436
1.342636,146.44054
1.3268135,146.14833
1.2578102,144.89252
1.1748946,143.26997
1.1737148,144.4725
1.1911544,138.39464
1.0993141,141.2762
1.104214,136.73615
1.0331627,132.2323
1.058056,133.36801
1.0709275,131.31544
1.0732028,128.71928
1.0410663,128.62144
1.0945616,120.52312
1.0617213,123.43719
1.0121853,122.52199
1.0401928,123.46873
1.0669733,118.34355
1.009286,118.05299
0.94258344,117.55777
0.8566661,109.22177
0.88676554,112.03041
0.8236166,107.27121
0.8294028,110.802956
0.762805,105.39327
0.67059636,102.01208
0.67434233,101.840935
0.6885447,98.6326
0.57502425,102.4693
0.56555986,93.95201
0.5978559,90.951645
0.56349635,92.112564
0.5367358,91.206955
0.51695377,85.76502
0.5143536,86.17238
0.63203114,79.77455
0.5515815,78.86931
0.5505494,78.32992
0.57988816,82.403725
0.5620968,74.76949
0.56695735,71.68844
0.45407173,79.52497
0.44799116,79.37212
0.4153239,70.15853
0.3193975,72.365524
0.32964897,75.06958
0.22969691,76.86877
0.27969095,75.02266
0.23723935,75.62626
0.13859423,80.91911
0.21155599,78.71953
0.20367393,81.51233
0.27062327,81.6258
0.39065608,85.123985
0.3002296,91.53651
0.37891862,95.00376
0.5003472,93.89101
0.608142,93.58252
0.70821947,101.26624
0.78643245,98.41244
0.95585316,107.23864
1.0501316,108.975914
1.1014866,113.639366
1.2129942,122.3807
1.3096108,122.13809
1.3141145,125.04153
1.4387939,129.36484
1.461148,135.83177
1.5613581,134.86113
1.5682263,138.87315
1.6643409,141.34634
1.6703941,141.14542
1.7070949,146.59036
1.719351,147.90906
1.7287344,147.90886
1.7677792,150.73177
1.7144128,150.30354
1.709206,151.73204
1.7270118,153.0899
1.793732,154.86017
1.7346287,157.42926
1.6580625,153.9489
1.6487726,149.51195
1.6191509,147.5426
1.6226017,148.69527
1.6023474,147.6076
1.5261321,146.01953
1.5126418,148.18579
1.4589723,143.5507
1.4605836,141.14316
1.444195,140.37543
1.4296829,138.18565
1.4186128,135.09056
1.4261068,137.46329
1.3016175,132.97372
1.4360943,133.75157
1.382789,133.41321
1.3730083,127.43802
1.3741418,125.41717
1.3222442,122.397514
1.2448171,124.29201
1.2701563,115.637405
1.3516918,116.60231
1.1909227,115.43553
1.2588676,113.78617
1.1966827,111.170334
1.1336237,114.73339
1.0060971,111.00985
1.1093364,105.36362
1.051956,103.93364
0.95708233,101.49113
0.8685724,95.67181
0.9065673,96.301735
0.93003154,92.67044
0.90212345,93.49235
0.86776763,96.69101
0.7627797,90.56777
0.8399665,85.74243
0.8163876,88.454285
0.82861924,82.04469
0.8955879,82.62219
0.8409057,80.152626
0.8286539,83.77807
0.8338617,76.27967
0.79302514,77.48074
0.7695915,72.6371
0.75102973,72.6285
0.6375248,76.47181
0.70177513,75.75071
0.59601283,75.54689
0.55294967,73.30353
0.55815566,73.35103
0.5774589,72.6057
0.44117275,75.21068
0.4546374,78.088356
0.5969987,79.51907
0.57128227,79.63911
0.52434796,81.99525
0.5275097,84.5902
0.6960697,92.03729
0.76167375,94.39368
0.85348594,98.274704
0.94673747,102.63787
1.0660686,103.985634
1.1097938,109.92501
1.2285686,111.384125
1.347954,112.27689
1.3994807,117.72873
1.4731687,120.347725
1.6427661,124.207954
1.6712495,128.4143
1.7571806,128.16182
1.7733151,133.02248
1.7802315,141.1874
1.9032967,137.91193
1.9479135,145.03018
1.9421805,142.7991
1.9587524,149.34262
1.9333801,147.41777
1.954182,149.30476
1.9238527,150.6793
1.8962684,151.42053
1.9762354,149.48744
1.9262053,151.89098
1.8926706,151.91917
1.9109066,151.02428
1.8525952,154.4731
1.8356869,150.9777
1.8610868,153.28056
1.809272,152.34412
1.7232307,146.25327
1.721187,147.35326
1.6041003,146.82962
1.5509702,139.82614
1.6437641,144.25146
1.5523095,135.9416
1.5367488,135.58466
1.5695866,131.38748
1.5368022,133.54817
1.5568551,131.47221
1.5381361,128.1239
1.5001485,124.432076
1.499698,124.537
1.5439951,119.100365
1.486299,121.7932
1.421557,120.091515
1.370433,119.26035
1.3560615,112.89204
1.3097984,112.21219
1.3464208,111.99522
1.2700725,111.10722
1.2728162,106.5916
1.173484,104.769165
1.1856105,106.89208
1.0310345,101.11794
1.0346396,101.48005
0.90270716,97.73842
1.0153935,95.59369
0.8893141,96.18006
0.95362806,91.80202
0.89621687,89.67315
0.85305685,93.15529
0.858602,86.71719
0.8542981,84.893845
0.90541893,84.216354
0.8857241,80.628174
0.8832648,75.62679
0.9184019,79.0392
0.79671454,77.3751
0.8226656,77.94241
0.8443303,75.85738
0.7542802,71.72914
0.72891617,74.518585
0.68132204,76.3404
0.5752158,78.700264
0.63581884,72.22961
0.55009395,76.94066
0.48336074,81.27467
0.5566032,77.28221
0.4631685,80.155785
0.5565468,83.361725
0.5338514,85.46717
0.58348954,88.93356
0.6766755,90.09607
0.7233686,93.52316
0.86380357,99.22146
0.9482672,101.05821
1.0012124,101.233696
1.0170593,108.11599
1.2444082,109.419785
1.3146393,112.632484
1.3101232,117.39832
1.4238881,118.78719
1.49475,124.36432
1.6125988,130.7606
1.6719183,130.47491
1.6550333,133.95966
1.7747986,133.89558
1.8647318,140.59969
1.8437783,145.72993
1.850448,143.21832
1.8888725,144.86139
1.8658682,150.27321
1.8526026,147.90611
1.894731,149.08365
1.9300208,151.41757
1.8494403,154.10617
1.8813517,154.5759
1.7730885,155.23265
1.8569105,151.30727
1.7207824,150.32437
1.664069,148.9232
1.6985862,149.44472
1.6685817,146.83829
1.6495463,150.55585
1.5437406,150.7302
1.4810612,143.6765
1.4776003,141.27448
1.6140271,138.62105
1.4908247,133.93877
1.4183896,139.57814
1.4713737,137.8292
1.3504748,132.23248
1.3873357,135.90225
1.3773253,129.81633
1.3574342,130.97084
1.3318783,127.37256
1.3691567,122.52835
1.293424,121.61319
1.331714,120.36547
1.2901641,120.165016
1.2704701,117.439255
1.1895219,112.94503
1.1674467,107.95935
1.0677193,111.15295
0.9754604,103.3832
1.0133929,107.68866
0.9366206,104.508514
0.8835749,100.44064
0.8042596,101.22386
0.8424705,99.968025
0.7319559,98.036575
0.75761926,96.48181
0.70062214,92.218376
0.73762655,89.924484
0.73304284,89.38272
0.71350354,89.01913
0.71277934,85.24951
0.69283414,81.761116
0.6768649,78.76717
0.5844205,80.926445
0.6822773,78.29817
0.55996907,78.48034
0.5583988,76.23335
0.55944186,75.79288
0.6049536,74.42475
0.4313044,74.80806
0.45050186,76.68809
0.37517914,75.40196
0.33986375,74.58367
0.30259213,78.16566
0.2016072,79.501144
0.29366583,79.16931
0.29905608,79.806076
0.22577536,80.93218
0.31517118,79.46611
0.30433148,85.07069
0.29529536,90.40224
0.43256712,93.57493
0.5626361,94.54624
0.618081,92.93095
0.73051524,102.884995
0.8400657,104.65043
0.95151263,109.331055
1.0530692,113.18559
1.0463041,116.49215
1.1524593,121.646
1.2501278,123.58957
1.3161093,127.22331
1.3732368,128.4908
1.4664432,129.54463
1.4437652,135.15454
1.5093889,137.45235
1.5312775,142.82104
1.5583622,143.63408
1.6178246,147.31676
1.5294976,147.79329
1.6204652,147.04802
1.6338418,152.57639
1.5667095,153.07188
1.5562313,153.43207
1.6017975,152.62721
1.6313763,152.72572
1.471052,149.30495
1.4561572,152.69719
1.4739344,152.6816
1.4374304,149.35504
1.3482832,147.10008
1.3371555,151.03288
1.3498809,143.47473
1.2512842,144.8471
1.2043159,145.23207
1.2007219,140.19763
1.2298149,142.1101
1.0968233,138.27771
1.164632,136.47021
1.1678011,137.97289
1.0609928,130.75607
1.022561,129.82538
1.0513963,127.0028
1.0778046,123.4025
0.9912198,124.39886
1.0201054,125.404594
0.9481333,122.08595
0.9595395,115.60623
0.9340008,116.429886
0.894503,113.93219
0.8810338,114.14936
0.8409837,110.59208
0.74607545,108.3835
0.7221583,105.00263
0.6628286,105.63182
0.5781818,105.024345
0.6158949,102.60479
0.5379742,99.90284
0.5040185,96.52165
0.4666277,97.20764
0.42074978,95.44429
0.4221094,90.911804
0.411531,88.66962
0.38726258,88.22234
0.37833574,84.1957
0.37251613,87.75931
0.41518995,84.44826
0.33033517,79.76051
0.3673227,78.632256
0.43466833,74.29813
0.28221068,80.65017
0.31096873,73.47241
0.27729994,73.52588
0.19399935,76.32794
0.1356006,76.15836
0.16536513,76.50814
0.045998562,75.95063
0.13316824,76.74299
0.047759388,79.02881
0.0073826327,76.568855
0.013232376,84.96722
0.094998896,80.50917
0.016417973,80.38278
0.08350648,84.44674
0.09801518,92.81469
0.15091467,91.51976
0.30462366,92.46456
0.31219393,99.39284
0.38853085,99.190475
0.5471603,100.53626
0.559806,106.82532
0.6973427,115.19225
0.78768384,115.85915
0.8695681,115.216606
0.9260455,121.81618
1.0797834,123.54528
1.1214534,128.63014
1.2177973,134.58672
1.2493291,138.46901
1.2973901,137.63512
1.2586473,140.2238
1.3363863,144.76309
1.2742292,145.55482
1.3557901,141.28163
1.2476958,148.75691
1.3754004,146.71806
1.3913137,154.8037
1.3741342,150.62234
1.3909552,151.88432
1.2982259,154.15892
1.3127,149.54987
1.2847687,152.24025
1.2488964,153.74014
1.3030177,150.27808
1.2820911,144.33234
1.1420408,150.48174
1.1453878,143.82841
1.1650386,142.33437
0.99580675,145.49905
1.0152334,140.60782
1.0229032,143.93869
0.94431174,139.35873
0.9192342,136.48096
0.99832785,136.91391
0.84057933,137.35913
0.88368976,130.14447
0.84266925,128.24954
0.91682124,125.71556
0.8816131,119.89536
0.88967365,124.19476
0.88552487,118.89029
0.8024581,119.95791
0.8124398,117.132164
0.7778597,115.8071
0.7162257,111.777405
0.736855,112.45457
0.6169306,112.97946
0.6677316,109.85873
0.5812755,106.02255
0.56025827,102.96967
0.5645237,100.93561
0.46693006,99.93268
0.46680996,98.53581
0.39862847,99.39316
0.43458992,93.85776
0.38713613,95.30276
0.33945817,88.72343
0.32095864,88.03951
0.38993713,89.66398
0.29187223,84.59904
0.3414693,82.55354
0.34911492,78.467415
0.32198635,75.903
0.38450322,77.080376
0.297731,74.93169
0.29144913,79.84091
0.22117734,75.231804
0.18577762,76.50764
0.17724822,75.29228
0.1474871,76.17903
0.12631078,76.98414
-0.011181107,75.38101
0.082725264,75.083565
-0.015774515,79.48805
0.0068424274,79.4408
-0.08220276,82.20802
0.03266081,84.39124
0.01590096,84.13236
0.09950431,88.72627
0.10317886,88.21183
0.18862914,93.128876
0.26595476,100.13548
0.43397304,102.06586
0.49102238,104.354774
0.6360958,104.01917
0.69787604,108.33838
0.7670921,112.15669
0.84446764,117.130356
1.0768895,119.47359
1.060205,126.71131
1.2050456,125.33322
1.2100163,129.16464
1.2419989,136.1754
1.2876049,134.49457
1.3406278,140.5281
1.4169874,146.69298
1.4863422,143.19124
1.4110401,144.83562
1.4801353,146.03406
1.4881163,150.82838
1.483088,150.315
1.461768,154.78973
1.472233,150.23657
1.444572,155.81792
1.4715999,152.68199
1.3766564,151.92603
1.3801965,151.41608
1.3953294,147.58623
1.3592716,145.07526
1.388824,150.74326
1.2881159,148.47118
1.2875367,144.91183
1.2250749,144.29398
1.1599437,139.2171
1.1829079,144.27248
1.1356828,138.1487
1.0683889,134.97221
1.1061088,135.42719
1.1286253,135.90086
1.0344236,133.54205
1.0623089,131.24924
1.0141646,122.06295
1.0728191,123.16733
1.0307168,125.07025
1.0764488,123.55068
1.0560608,123.3381
0.9396375,114.5487
0.94882905,115.91092
0.9471921,109.00802
0.88140845,111.07364
0.85845304,110.66085
0.86496353,110.45583
0.7977779,108.01709
0.75451076,102.845726
0.698836,100.16003
0.654154,97.398346
0.64789504,98.398
0.62106997,94.85878
0.6071765,89.74293
0.5874677,92.17898
0.6073803,86.32504
0.52128416,90.535774
0.6028954,86.84748
0.53150916,85.56767
0.5545215,82.9311
0.56681705,83.52798
0.547817,79.06726
0.56473815,78.82145
0.50439805,79.83513
0.45025522,76.65505
0.40131217,69.35546
0.4387981,73.36919
0.48667037,75.09677
0.3929074,72.86239
0.3961806,75.03582
0.3039107,72.25375
0.26306108,78.32453
0.3313174,76.90062
0.231147,79.35231
0.19960392,82.85975
0.3054355,82.82626
0.16572735,82.72189
0.36991787,85.18506
0.4381903,90.87369
0.44184294,91.60574
0.60876244,96.26191
0.67075115,94.435074
0.7834358,103.02741
0.8833596,105.536095
0.9789729,106.17186
1.0263253,109.55253
1.1824739,117.26263
1.2755002,119.14998
1.3703341,121.268036
1.4030118,126.196075
1.3646096,133.06357
1.5113183,135.25761
1.5531214,134.41
1.7011154,136.80087
1.7669493,141.63579
1.6484053,145.23065
1.7626241,145.65083
1.741431,147.18974
1.7798301,149.13927
1.7025267,151.87141
1.7436856,149.11414
1.8075472,153.64256
1.7596464,150.1965
1.7964613,151.83798
1.7064161,151.6203
1.7178693,152.01582
1.7085047,151.59438
1.6102461,152.58017
1.6046288,151.41104
1.6440868,146.02646
1.5469522,148.47557
1.5635551,146.94067
1.5363834,141.45032
1.4499291,146.12784
1.4302007,141.32388
1.4318143,138.28764
1.4163622,138.1893
1.3893542,138.9659
1.3654474,134.63274
1.4126437,128.49634
1.3860523,128.47086
1.351291,126.108
1.3480132,122.99488
1.3960285,127.27779
1.3603326,118.42919
1.3659545,116.5738
1.2719817,114.9806
1.2273536,116.28046
1.2242253,112.000015
1.2286834,107.7199
1.0904635,111.1652
1.1519157,106.99537
1.0571338,105.05527
0.96086365,103.27601
0.9287462,99.61862
0.9731788,97.57
0.9532145,95.26455
0.8946035,95.88527
0.82679653,95.67957
0.85983634,91.111984
0.8870291,89.59138
0.8898404,85.77872
0.88542575,87.127815
0.80939645,86.48381
0.880742,84.54948
0.85685307,79.164345
0.83189046,75.1298
0.86394095,74.24447
0.79651,77.51401
0.74006164,78.62567
0.8539753,76.679054
0.65915567,74.71741
0.6808113,73.99055
0.67812365,75.60126
0.64413863,74.6312
0.60317856,76.565445
0.4751697,77.88371
0.4758435,77.11841
0.45122528,79.00726
0.45983338,80.441055
0.5580878,83.09714
0.54936874,88.06848
0.64082164,88.09301
0.6699161,90.895676
0.7950232,97.72293
0.83413744,97.267105
1.0201908,100.396706
1.0972317,101.82733
1.1476783,103.84345
1.3183788,116.123985
1.4224132,116.42464
1.4816748,118.914085
1.6032783,119.44831
1.6641253,124.91703
1.7093136,127.44639
1.7222531,135.76607
1.8407964,136.10725
1.8322474,134.58795
1.9401933,139.57678
1.8414404,143.0554
1.9773153,146.05057
2.0368824,151.35007
1.997227,151.06996
1.9290729,150.84105
1.9526029,152.44533
1.8755707,151.7609
1.9341295,151.21625
1.8765924,153.82628
1.9258536,151.43903
1.9353571,153.41992
1.8375533,150.67047
1.8332975,150.86646
1.7690426,148.29637
1.7446818,150.50854
1.8398035,147.70978
1.6320307,144.95099
1.6783004,145.4625
1.6098003,143.79971
1.5969911,139.09184
1.5481701,139.36317
1.5843344,139.30533
1.5374135,132.09029
1.582781,130.49988
1.4608709,131.03998
1.4252164,132.5601
1.537965,125.82947
1.4732614,119.55672
1.4532974,120.97047
1.4314235,115.42019
1.3842975,119.13042
1.4165912,115.157196
1.3853289,115.04644
1.2973987,108.74211
1.2409512,113.48927
1.2652448,109.22797
1.2072937,107.26713
1.1719663,104.96157
1.1545119,103.67898
1.0651205,101.642586
0.9717665,100.11537
1.0590026,101.223656
0.95385396,94.96357
0.98710895,95.25391
0.988452,87.785645
0.8628123,88.860794
0.91176385,87.518074
0.9130925,87.74684
0.91440773,84.97234
0.820221,81.7387
0.8620092,80.01489
0.88297856,79.94377
0.8171756,77.50182
0.8596502,79.01158
0.76960605,76.4754
0.7969418,74.07377
0.75429875,71.94663
0.76147467,75.80838
0.64267457,77.936646
0.58681154,74.74422
0.49493906,75.973976
0.51784194,80.2685
0.46768278,81.14427
0.4847717,75.667786
0.52257717,81.66655
0.51003087,81.72269
0.5937591,83.810326
0.63119197,86.040245
0.6402868,93.803925
0.7913297,89.20552
0.86359507,93.11894
0.9018748,103.63031
1.0033814,102.71701
1.1417398,106.60557
1.1612576,108.85657
1.3069862,114.08379
1.382117,117.35138
1.4907054,123.01922
1.5761323,123.61766
1.5760514,126.28192
1.6243138,130.77039
1.7697109,130.80325
1.6622876,134.77277
1.7411761,139.47502
1.7638652,143.01251
1.8739866,147.8116
1.8509184,147.15408
1.838721,150.71155
1.8477681,151.18665
1.8111204,151.08678
1.7856734,150.26616
1.7735487,148.96213
1.8467703,149.66994
1.7845703,151.36595
1.8576996,151.21664
1.7662464,152.63466
1.726886,148.66733
1.6520704,151.7852
1.5944306,148.88422
1.5260142,150.05966
1.6096909,144.24962
1.5027856,144.27597
1.4860406,140.9669
1.4453796,141.28464
1.4314948,140.36403
1.4152383,141.34337
1.4858047,134.18773
1.3699834,132.94702
1.3710015,132.01703
1.3277771,128.46991
1.3185747,125.143585
1.3511293,120.88824
1.2582096,123.303154
1.3163693,117.223915
1.2802567,114.73419
1.2667367,118.17201
1.2217906,117.65443
1.1152183,112.88703
1.0905524,113.81721
1.040891,109.27663
0.9781798,105.79411
0.9255202,105.13278
0.88735384,101.00058
0.8973602,103.218475
0.83576035,102.3013
0.79939735,94.844345
0.77166563,94.54385
0.73369515,94.26752
0.725045,91.70718
0.6382386,87.31318
0.7722224,89.58391
0.71818423,87.07601
0.629609,85.41099
0.67363924,81.97159
0.740228,81.29642
0.6518756,80.17953
0.60134184,79.94963
0.57483137,78.713585
0.6048141,78.48646
0.5081872,74.78516
0.53926665,77.42654
0.4913524,73.904
0.3758502,75.68955
0.37383333,77.971695
0.3340186,75.1029
0.31447685,77.527985
0.24792267,75.30172
0.2712304,80.05256
0.28536844,81.41198
0.26799333,81.30878
0.35237616,87.061806
0.356775,87.15454
0.35827506,91.56278
0.5010308,93.79423
0.57480955,98.16028
0.6557383,100.08674
0.78969395,100.99659
0.7659212,106.11798
0.7952306,109.798904
1.0067075,110.092766
1.0960028,116.64276
1.1560099,119.5443
1.2003098,125.12102
1.3756841,126.10443
1.3338387,133.95003
1.3989446,133.75807
1.495374,134.43364
1.3940667,138.19955
1.5621074,140.68867
1.4948972,145.50049
1.5631237,147.06738
1.5433745,151.50885
1.6311568,151.31052
1.4644065,150.247
1.5205566,153.45955
1.5697775,152.01735
1.4855498,151.7499
1.5471876,153.08516
1.4840512,155.62885
1.4178175,153.50319
1.4498364,152.77931
1.4005975,146.7156
1.3990417,152.04219
1.3757324,145.10458
1.3004196,145.26152
1.3478689,147.98068
1.1755152,139.49261
1.2091385,141.20598
1.1753768,140.50522
1.1354319,138.4574
1.0806587,133.81447
1.023144,132.86874
1.0453991,128.78773
1.0003213,125.65603
1.0204704,128.40625
1.030786,125.1328
1.0188164,122.91719
1.0083286,121.60873
1.061473,120.55299
0.9222736,117.254265
0.84371984,112.57264
0.8129549,111.468376
0.82682264,113.68487
0.7530414,109.90605
0.7263791,108.011406
0.66155505,102.45385
0.64213336,104.05265
0.6879431,103.66864
0.514008,102.335014
0.5232421,98.96662
0.4549637,96.39674
0.42162532,90.952484
0.38758284,90.57485
0.4074432,88.78103
0.38386866,88.67857
0.3921355,84.39744
0.36881554,83.56261
0.4024902,83.93437
0.4400197,79.477264
0.3167013,83.433525
0.30458936,77.596855
0.39182916,77.31292
0.3055084,77.03921
0.28435203,73.47316
0.23949942,76.89391
0.15340829,76.69514
0.18201894,75.32372
0.03464594,74.64309
0.13944003,78.96367
0.047959063,76.09052
-0.00015472132,74.853874
0.009812392,79.05244
0.00998277,78.889786
0.017000722,83.91388
0.058668762,86.28307
0.050234243,84.28884
0.09763066,90.94415
0.2242582,91.071945
0.27807674,94.760056
0.31795904,101.51755
0.43291202,103.60085
0.51482195,104.970505
0.6011529,110.72999
0.7153984,113.55743
0.79319,115.31579
0.85578465,116.85005
1.0163847,122.73473
1.0453923,127.56528
1.1512011,131.02017
1.1106793,136.01588
1.2729628,135.06226
1.2743925,135.71898
1.3414849,143.02888
1.2797073,144.76945
1.3321038,143.69801
1.3608596,144.34874
1.3685187,149.98389
1.3806608,152.38641
1.3707068,151.69748
1.3316011,151.85188
1.3277146,151.68433
1.2812922,156.69333
1.4059254,149.7444
1.2619096,150.68718
1.2454801,150.32684
1.1755038,147.17822
1.2293518,144.14572
1.2179576,147.8335
1.171058,146.71394
1.0586207,145.82603
1.0310341,141.82085
1.0003153,140.01729
1.0773786,138.9869
1.0086782,135.44525
0.92939776,134.44159
0.9263883,132.4437
0.9052869,133.25496
0.9217396,125.12818
0.9660887,124.66932
0.9192861,125.18435
0.8980862,126.579216
0.8006714,123.157646
0.86837524,120.47296
0.8142761,118.12606
0.7630171,119.489815
0.71729803,111.31637
0.73162305,116.36031
0.73634523,112.22068
0.5888015,111.26599
0.58239156,106.077156
0.5819528,106.059944
0.5377284,107.43604
0.4663648,102.43979
0.48444173,99.5697
0.357587,99.134865
0.37801653,91.89901
0.44647196,89.088844
0.38792142,92.832436
0.30044222,89.503136
0.37464434,85.66712
0.25841907,86.26023
0.31146726,82.355446
0.37063527,87.6766
0.31716478,83.1301
0.3068303,80.51359
0.3341684,76.78179
0.21685942,74.79013
0.25061363,74.34759
0.27878273,76.83172
0.2944569,78.78468
0.12501526,75.58819
0.10468849,73.03947
0.055984605,74.00512
0.11713759,76.727425
-0.0006001169,78.31006
-0.0453576,76.25636
-0.03468756,81.06294
0.0401052,78.53123
0.07918154,83.25486
0.119804494,87.84887
0.1600453,85.01237
0.15043935,88.92021
0.23142017,94.0448
0.39815027,97.252594
0.47921842,96.74039
0.59724915,109.34674
0.5781644,108.06971
0.713846,109.83294
0.86480826,114.33045
0.9707396,118.25654
1.0299202,121.227875
1.0946076,126.31385
1.2819225,130.28221
1.2891784,133.50371
1.3570172,135.47624
1.338996,136.23073
1.3243946,139.2878
1.4607425,144.21077
1.4747756,147.00314
1.4674041,143.04044
1.4581763,147.59007
1.5328032,144.64067
1.4533131,151.04503
1.4445041,155.21556
1.4438223,150.54204
1.4043313,149.46547
1.4495156,151.05908
1.4527104,156.49242
1.4014652,152.95825
1.3991861,147.11075
1.3161367,147.98941
1.2885795,147.74266
1.2905217,147.02905
1.2570254,145.52658
1.2332015,140.29724
1.2509729,142.93906
1.1828474,136.29623
1.1404253,139.19292
1.1538786,135.616
1.0497075,136.11047
1.1415483,135.18988
1.1200082,130.97836
1.0243455,126.215225
1.0980562,121.75937
1.1257054,122.76064
1.1011567,124.51036
1.0465455,122.04466
0.9731359,122.00359
1.0227741,120.167595
0.94857067,116.45095
0.9215515,115.635925
0.9072063,110.28954
0.81037533,111.0295
0.79511136,104.229485
0.79186255,101.2685
0.7201566,105.23672
0.7606,99.58198
0.6981534,100.42328
0.66355836,99.0867
0.6156364,94.807175
0.6085482,94.782364
0.59340703,88.66076
0.61942434,90.43869
0.57266825,88.50165
0.49548894,87.34571
0.6112218,84.10933
0.67240465,84.02964
0.60825056,78.726555
0.64864427,82.02412
0.5931422,82.42632
0.5117576,78.8211
0.5479886,75.758736
0.5018426,75.668076
0.49713355,72.69341
0.36046702,73.80487
0.34681764,78.15576
0.3099617,77.80357
0.31656495,76.76541
0.25547338,77.49632
0.2088412,75.22759
0.2164768,84.88026
0.28322628,81.95041
0.2807209,89.99245
0.31116506,85.86547
0.35693678,88.78776
0.510607,86.65894
0.55090916,90.76082
0.6346282,104.754654
0.67967504,98.882645
0.79530746,98.882545
0.97062784,105.38637
1.05887,109.830925
1.1654161,118.586205
1.2981737,117.19198
1.3093028,116.82774
1.3550477,125.38474
1.5090648,134.25603
1.5444009,131.04492
1.6554518,134.91394
1.6788137,135.2132
1.6495228,141.97307
1.7234076,145.9603
1.7896208,146.08911
1.7460823,145.31213
1.7454568,147.14655
1.8360794,149.88962
1.7203815,154.24063
1.8069594,150.57489
1.7561018,150.43903
1.7432576,155.52383
1.7288724,152.58688
1.7169367,152.80489
1.7357165,156.08199
1.7103055,146.85497
1.623259,152.34914
1.5795282,152.36774
1.5538831,153.40674
1.5932862,149.48512
1.584176,145.7024
1.4938486,139.78197
1.4857128,145.17688
1.4820639,138.96553
1.4989868,137.69337
1.4390479,134.10352
1.421467,131.23094
1.4791685,134.92078
1.3739234,130.90242
1.3759048,127.16727
1.3812352,125.99983
1.3931077,125.62216
1.3475603,121.226395
1.3707603,121.04089
1.3398612,117.80853
1.3664715,111.94074
1.2200568,115.01447
1.2201096,117.907074
1.114616,110.76447
1.1970334,107.156136
1.1314355,108.35463
0.95205253,103.82795
1.0332941,105.1432
0.9426407,100.35607
0.9410673,95.91705
0.93805957,96.89986
0.95729655,95.250145
0.9251127,89.80709
0.85042995,93.24752
0.88856924,89.385544
0.92667437,87.60142
0.88289243,86.681206
0.83530354,82.33767
0.9293168,83.94977
0.8421217,77.441734
0.8349142,78.36087
0.8228018,79.294304
0.8272091,73.65854
0.8391674,80.91137
0.73928535,76.43636
0.6985572,75.22403
0.6355482,76.13973
0.5726353,77.27464
0.5711686,73.25961
0.5436617,77.54216
0.5133227,80.95034
0.5777337,77.57965
0.47685164,80.82833
0.55986637,82.31485
0.59453905,83.16069
0.58315,87.37691
0.71553,88.62732
0.7517027,85.701584
0.7861725,98.868195
0.8927527,102.98831
1.0891727,102.70304
1.1357402,107.81862
1.2461622,105.151184
1.2631301,110.65843
1.4380994,115.210106
1.4267923,119.179504
1.5725195,125.70659
1.6888361,128.82771
1.7909088,128.0014
1.7789991,132.26251
1.8657464,136.65306
1.9361211,140.85551
1.9332935,142.04674
2.0237992,142.81612
1.9407024,145.38821
1.9561296,151.4749
1.9933555,147.59273
2.0153728,152.02559
1.9332075,148.70062
1.9847386,149.16655
1.9184556,153.88528
1.915797,156.11542
1.8858649,150.46062
1.9351946,151.21353
1.8853374,150.83846
1.7575282,151.75874
1.8017102,150.11348
1.7827241,148.13153
1.7363054,146.37614
1.6830723,141.49873
1.6857646,141.90953
1.6076937,141.9647
1.5222266,135.41823
1.5154383,135.16295
1.6037644,137.1538
1.597639,133.0164
1.4821999,131.7771
1.433648,130.81516
1.5446031,130.34148
1.4965091,127.25792
1.4841369,127.37519
1.4436846,121.96151
1.4241323,117.647484
1.3919829,114.08938
1.3819356,118.50107
1.2695571,111.21597
1.3388398,111.08573
1.2377138,112.27243
1.2093544,109.34689
1.1844902,106.341995
1.2051706,104.307945
1.0785073,104.64454
1.0547932,98.77474
0.977344,94.953606
0.9564667,97.032135
0.9647039,93.59373
0.95363283,89.66039
0.94695526,90.68832
0.88749707,87.87805
0.8869048,89.20474
0.8891772,83.349464
0.88069004,78.62587
0.8325158,81.80336
0.82309467,79.6458
0.9073469,78.8007
0.83585924,79.58647
0.8134933,79.52981
0.6920328,76.309235
0.8728732,74.00214
0.6933378,75.927635
0.59568095,72.7815
0.63634074,74.33327
0.61687034,77.11602
0.5451149,75.30837
0.5257763,75.18098
0.45086697,82.517426
0.57072645,81.31953
0.38718432,82.27501
0.5099135,82.55396
0.53595954,84.76428
0.6017539,90.74977
0.6759015,93.28504
0.69753706,93.89524
0.88982195,100.19045
0.97364813,101.65438
0.9629111,101.04333
1.1551081,108.13187
1.3211046,114.4172
1.3001913,118.33669
1.3624856,119.136826
1.5247527,121.75151
1.5072013,126.91807
1.7021537,129.41455
1.6550959,132.39563
1.6904659,133.68044
1.7616591,138.00894
1.7808018,141.8488
1.8450918,145.37204
1.8160661,146.66685
1.8700407,145.00127
1.8532256,150.45146
1.880305,147.207
1.935013,152.14743
1.809566,153.42696
1.8361638,154.57509
1.8087556,154.12566
1.8307943,148.79184
1.7340542,152.86769
1.7572684,153.45682
1.6959392,149.01486
1.6147646,149.47643
1.706238,147.08955
1.4934756,145.06212
1.5648563,145.6531
1.5727382,143.71239
1.4458936,140.51077
1.3934047,143.3318
1.3301293,134.96642
1.4272438,132.87059
1.3313127,135.98
1.3631765,129.18254
1.4111414,129.29698
1.2892201,124.603935
1.272765,128.11496
1.3022285,125.189674
1.2816552,120.94762
1.21705,119.182106
1.1543212,117.80075
1.1408613,115.7877
1.1384077,114.29227
1.0745833,112.71909
1.1101214,111.83824
1.0708685,110.47267
1.038058,109.08384
0.92668456,106.128365
0.87925494,105.936455
0.8928415,100.236595
0.7628437,98.63199
0.70058703,93.66874
0.6182892,92.69017
0.69732666,92.140816
0.59596294,90.78495
0.7311568,85.00875
0.61435795,85.4313
0.5845288,91.0988
0.68086493,83.989456
0.6280815,81.37482
0.5624331,81.54589
0.6502715,80.99865
0.6019961,76.55722
0.587024,80.24017
0.59604937,78.998566
0.57905775,78.456024
0.48155636,76.86748
0.43535295,74.096794
0.2814544,74.04862
0.2932038,79.22307
0.3223056,73.81185
0.25715896,78.569786
0.19354373,79.465324
0.21587631,80.89737
0.2462505,78.66846
0.18689024,84.93743
0.23829769,85.404564
0.3322752,88.708206
0.37320134,88.81504
0.50372297,92.28196
0.58391744,96.95605
0.7066108,102.8934
0.74911106,103.342865
0.8918341,109.47212
0.9377626,110.183556
0.9908804,117.53056
1.0735782,116.848145
1.1657107,118.281975
1.2496336,125.40643
1.2656912,130.49727
1.4048611,131.9864
1.41412,137.28117
1.4686689,139.23369
1.5632617,142.39384
1.5351983,146.84198
1.5877773,141.4089
1.5736034,141.24211
1.6153408,148.6151
1.5079485,151.15105
1.5068976,151.3476
1.5982202,156.8046
1.4660187,150.70593
1.5326197,152.55664
1.5528429,156.19907
1.5056545,153.31999
1.4374877,152.54047
1.4405022,152.31044
1.3243766,151.61255
1.3249341,148.31218
1.2499264,144.03104
1.2146909,142.36955
1.1786258,144.28296
1.1928127,142.01157
1.0843692,137.89153
1.1587137,139.2303
1.135765,139.4272
1.0571667,134.15399
0.9945138,132.79198
1.0342826,135.28899
1.0597991,132.25334
1.0589898,130.85542
0.9572961,125.06668
0.97619784,120.79153
0.8942463,120.30958
0.96487784,121.22483
0.87557316,114.687996
0.92353964,117.15792
0.86955315,111.699905
0.8395715,113.78613
0.7572371,112.74495
0.68630934,108.69532
0.6484334,106.83217
0.58567595,105.136475
0.5501165,103.501724
0.47220019,98.50309
0.48882166,98.69711
0.42952174,98.73693
0.35740474,94.32272
0.3735834,91.42633
0.40620887,92.86616
0.41810638,86.59156
0.36606807,86.839516
0.31649393,86.147995
0.4120616,81.134094
0.3690838,81.808464
0.33339947,81.84917
0.38455173,77.85605
0.29850268,76.41695
0.36458933,76.16425
0.26544294,73.19719
0.21193255,78.783195
0.15005279,72.69407
0.12076347,73.44858
0.13310672,76.86212
0.070472755,78.7592
0.018346794,75.592445
0.024862695,76.702805
-0.03233395,79.428734
-0.04055717,80.31758
0.004784337,83.42075
-0.007065093,85.42253
0.04722873,87.23584
0.057250023,92.8898
0.1709758,91.73172
0.26841682,95.50359
0.33517206,101.47069
0.4282217,104.49441
0.51078683,109.1853
0.59254986,110.896736
0.84463733,112.82175
0.8660073,118.881485
0.94719315,117.92998
0.9765895,124.76342
1.0503135,127.98433
1.2473894,134.52211
1.2707142,134.26468
1.2755864,139.53978
1.2934043,141.85954
1.3353217,141.90796
1.3211379,145.28589
1.3795397,146.02853
1.3711295,142.47705
1.3494303,149.83403
1.4273591,151.09155
1.3591248,151.27838
1.3182981,153.8679
1.2550335,156.93054
1.2920413,149.35048
1.3744732,149.4241
1.2789396,149.44568
1.169797,151.49294
1.1989038,149.7837
1.1883557,146.53502
1.1414155,149.93997
1.1016815,144.7657
1.0658352,140.7631
1.0292364,141.72589
1.0210328,139.61043
1.0407987,139.1645
1.0483605,141.37161
0.9800168,134.85828
0.9553939,131.70563
0.8418739,131.4278
0.8984011,132.04666
0.8579076,127.25876
0.9514778,129.47902
0.91667897,121.91462
0.8426291,118.60351
0.8310521,116.0436
0.8598486,115.80002
0.825707,113.480156
0.76235884,112.35551
0.796368,115.10441
0.70888877,108.246284
0.7050907,104.507835
0.6220922,104.1617
0.6064551,102.93725
0.5397959,106.59468
0.43588465,97.65188
0.4867595,98.446396
0.44892737,94.006966
0.31379774,99.22162
0.30775723,92.920425
0.35114044,91.364456
0.3687999,87.946495
0.34850666,89.97596
0.31424743,84.760254
0.36339247,81.76841
0.2807658,79.44131
0.36009622,76.747086
0.3255588,81.01812
0.29562393,76.22673
0.32673523,79.40589
0.21067926,77.10407
0.19582023,72.20645
0.2159734,75.41328
0.13688971,73.810555
0.02757465,73.524216
0.0679248,76.34549
-0.024859976,78.56911
0.024186334,76.438354
0.020111237,75.060455
0.07522603,85.70091
0.05939542,80.47176
0.012681702,83.26341
0.12874785,84.380714
0.1337231,89.86231
0.15787007,95.38388
0.34423497,98.31218
0.3894784,98.9192
0.57012355,102.00428
0.67858624,108.35174
0.6635393,110.87754
0.83538437,110.15824
0.9520601,116.84911
1.070139,118.74245
1.1411982,126.87862
1.1885519,126.551315
1.2247436,129.08037
1.333927,133.05084
1.3543336,133.84528
1.413126,137.83885
1.4144952,142.94656
1.3823199,142.6754
1.5485858,145.00139
1.4415145,149.59407
1.5108376,147.38387
1.5125343,148.92712
1.4790403,150.46294
1.5259248,150.07877
1.4651349,153.50217
1.465709,154.41483
1.4442139,152.11125
1.442214,149.76454
1.361242,151.83107
1.4219934,152.84761
1.3415676,148.492
1.3169265,148.30504
1.3625947,145.08273
1.24365,145.28012
1.2829087,142.29712
1.1929523,140.76933
1.2272447,138.01021
1.161913,134.93918
1.1365948,135.26685
1.1011434,131.82578
1.163737,132.12254
1.116734,128.45686
1.090823,128.83534
1.083843,127.986786
1.0855427,126.15919
1.0575385,123.77572
1.112548,121.781845
1.0035157,114.97589
0.9830632,119.41643
0.97380245,117.16243
0.97631615,111.045815
0.904966,109.87274
0.844413,106.87324
0.85573804,106.79572
0.8284361,101.47949
0.82057965,102.52759
0.70023596,101.211266
0.6669498,99.06191
0.6763341,97.5197
0.6905886,96.38099
0.600349,88.591675
0.5837766,91.70034
0.54782444,87.300545
0.6315939,87.78588
0.57949907,84.78435
0.59061563,81.55572
0.59833705,81.64691
0.5435233,83.34336
0.5824102,79.40942
0.5774138,77.66006
0.5213077,73.12664
0.59425145,74.9293
0.5309511,75.37261
0.4474139,72.67675
0.40175024,72.856995
0.357722,74.732315
0.38790125,76.396225
0.23193884,70.314926
0.29885328,75.61558
0.3074923,77.74861
0.2808597,80.56238
0.2972362,83.88391
0.2703756,86.08484
0.39624107,89.75662
0.40110236,90.310814
0.43972015,90.478546
0.578995,90.68019
0.66191256,98.64688
0.7815116,104.077255
0.9691623,105.59789
1.0431931,111.50264
1.1124421,112.815865
1.2016588,112.93611
1.2607946,114.586914
1.43822,121.956726
1.4714738,123.49129
1.5689597,126.28608
1.5768013,133.45427
1.654962,138.04831
1.6764989,138.06635
1.6933641,141.66809
1.706171,143.52174
1.7836176,144.7895
1.7606828,145.37225
1.7710173,151.66486
1.884146,145.23105
1.7350197,148.21019
1.7668592,152.29514
1.7579623,151.66782
1.8038777,149.23868
1.7660689,155.36224
1.7046943,151.39972
1.7783947,150.35597
1.6616341,149.27217
1.7038102,149.37212
1.6332723,142.744
1.5874263,145.44681
1.5504107,147.42912
1.5731648,142.65402
1.5738404,143.0978
1.5054237,139.6978
1.4507853,139.38705
1.3511258,138.92683
1.3752024,130.36594
1.4212704,132.97217
1.3692636,127.50817
1.3399835,127.69328
1.3606396,121.86776
1.4029803,124.13288
1.3567319,118.27676
1.2981102,118.732025
1.3199321,119.4876
1.3339226,115.677055
1.2679243,118.61849
1.2736229,112.63198
1.1798943,108.76471
1.1869559,107.854576
1.1327807,106.93246
1.0597792,105.59351
1.0013529,100.375
0.9672401,100.649826
0.9839364,99.54116
0.9490767,97.42094
0.90689504,93.21258
0.95902467,90.55182
0.8822126,91.135635
0.94225866,92.80964
0.90589935,86.647026
0.8795393,85.76247
0.91017914,78.35287
0.8443736,81.57409
0.8489695,77.0008
0.8697223,77.69963
0.76508653,80.43244
0.7413571,79.506546
0.8474052,74.3452
0.72052544,79.20375
0.6965653,74.31216
0.6042671,77.139244
0.6850587,72.66254
0.6454768,74.84502
0.57991076,74.842316
0.56943876,75.45107
0.52466756,80.64984
0.51051503,79.941345
0.5425062,83.22731
0.5537455,84.0883
0.68400794,83.82638
0.6677987,88.915245
0.7991697,94.07948
0.7601937,95.61154
0.88762563,92.17829
1.0309415,102.09574
1.0757737,107.41974
1.1369231,108.96523
1.253111,106.91849
1.4048079,111.31807
1.4433771,116.20881
1.5097331,124.84725
1.5609078,129.2202
1.6671103,129.2431
1.7644361,130.02936
1.7763313,129.66727
1.8222833,138.59178
1.935105,140.5643
1.9350947,142.97705
1.9923244,143.26488
1.9399898,144.541
1.9537166,148.21579
1.8898318,148.21794
1.9123696,150.11511
1.9273585,150.59927
1.9101753,150.12033
1.9271679,153.54373
1.9334668,149.54617
1.8293076,147.97002
1.9036977,152.39182
1.9049586,147.37051
1.8437632,145.93858
1.7889725,149.63666
1.7418499,146.77225
1.6399676,149.94106
1.664517,144.75383
1.5290923,142.99344
1.640264,141.19089
1.6391175,140.38585
1.6272571,136.47697
1.6039212,136.2416
1.519714,132.13242
1.4952083,125.085335
1.5711416,131.20546
1.4658331,125.931465
1.4229251,122.43276
1.4846584,118.55689
1.4650457,123.08771
1.503306,121.48149
1.4044251,119.934395
1.4214152,117.585846
1.3848681,115.77601
1.2501612,110.93142
1.2570239,112.947876
1.1616089,106.48514
1.1501551,107.74785
1.1493489,102.72612
1.0295912,105.00303
1.035075,101.009445
0.9500535,99.348045
0.97585034,97.55541
0.9638806,94.862175
0.86758614,96.00656
0.90838414,90.22896
0.9368995,88.5502
0.97581154,87.78366
0.85913604,83.80487
0.82555336,84.267006
0.91638225,79.97388
0.8643972,77.86718
0.85284954,77.82517
0.79517406,78.37876
0.82524645,77.84553
0.8020237,73.623886
0.71898675,75.75004
0.6442701,76.9533
0.72338414,77.64164
0.59986556,78.40007
0.6367962,76.20171
0.46991453,74.024574
0.44136146,77.8183
0.5171907,82.54508
0.5564795,81.64213
0.49893647,82.861916
0.49179772,86.96487
0.60912627,87.76286
0.64521027,86.873566
0.7409553,93.04731
0.7527887,96.85659
0.83019036,99.48795
1.0441626,103.839195
1.0883746,106.47987
1.1433922,109.361885
1.211306,115.17708
1.3305733,119.20764
1.4172821,120.51056
1.4635268,124.94707
1.5777085,127.53988
1.7359185,129.97948
1.7222028,132.6652
1.8075888,135.60709
1.755872,137.52055
1.8201963,140.30606
1.8072933,144.50853
1.8509429,145.55963
1.8754598,148.92279
1.8231848,151.8055
1.7976484,147.51157
1.8226374,147.25148
1.7739251,155.4744
1.7882686,155.29378
1.7412928,152.11148
1.7761259,155.396
1.7691634,152.71875
1.6236119,151.72974
1.6652689,148.33601
1.6535829,148.65067
1.5585313,146.67072
1.5122074,147.63248
1.506517,144.39473
1.4511019,141.51782
1.4921795,141.04247
1.3997521,142.34044
1.3834723,135.83417
1.3941789,134.41196
1.3078324,135.8032
1.3071786,131.57397
1.2868898,127.82817
1.3312835,122.861465
1.3067331,127.5479
1.1386487,122.487755
1.3462211,124.4828
1.2448823,119.912285
1.2146822,118.70318
1.1358281,113.94376
1.1354738,114.83679
1.0416912,112.00684
1.019987,113.1797
1.057669,107.664665
0.9203109,110.877464
0.8512231,109.33885
0.79417795,105.18842
0.7350301,98.515
0.7434262,96.56948
0.71044314,101.66104
0.68445814,97.08621
0.74025816,90.77478
0.62620896,86.37122
0.70630854,89.4664
0.57657915,90.58643
0.6380089,85.54781
0.62971073,81.98397
0.65732604,85.44962
0.59671104,77.56705
0.64149195,79.57716
0.57817286,81.6224
0.54840297,79.45718
0.4840245,74.535385
0.43640697,74.21754
0.37417158,78.21369
0.37200233,76.051025
0.303344,80.01079
0.31932512,78.37538
0.31551042,75.051796
0.17541203,77.39425
0.1214859,81.755516
0.19398114,82.97258
0.13299401,84.156784
0.23116554,82.519485
0.17539929,87.16931
0.30413917,90.06392
0.42788208,91.19656
0.5144718,89.61422
0.587149,97.1912
0.6085303,103.00268
0.7564135,107.905846
0.90830976,108.89439
0.9561623,112.59116
1.0742469,114.794716
1.1150075,118.76299
1.1379405,125.52385
1.3410908,125.89526
1.3038911,128.11678
1.4379364,131.29103
1.4593459,139.36983
1.4553553,141.13414
1.526806,142.80463
1.4965334,145.75702
1.5599538,147.59773
1.5491513,147.38087
1.4976484,146.17892
1.5487099,149.03218
1.5593144,153.63416
1.487763,151.73795
1.4093221,151.69572
1.4811507,150.0205
1.5259086,151.4182
1.4167106,152.68309
1.3930358,150.08377
1.4110398,150.12193
1.3140084,148.75397
1.3117425,145.78783
1.2527621,147.26169
1.328219,144.27962
1.1697315,143.87605
1.163673,140.20409
1.0442866,140.26462
1.0866919,137.49515
1.1323209,139.9653
1.1072187,135.03781
0.99125004,130.4549
1.035537,128.6306
1.0549684,124.52067
0.98787796,122.02219
1.0303663,125.94153
0.94018877,125.116135
0.98366636,121.559364
0.91170645,117.284225
0.90066624,116.712975
0.8378506,116.11946
0.7977422,108.33673
0.78836584,110.330376
0.7457495,108.56341
0.67535764,102.644264
0.68132406,103.94037
0.56933373,101.64548
0.48896423,99.69286
0.49417734,98.86751
0.54389244,97.15795
0.40778422,94.24547
0.3759937,96.42407
0.4489036,91.038025
0.42445692,86.02748
0.43374407,90.96722
0.34953827,84.36114
0.36080328,80.61249
0.3699719,81.81382
0.30751374,83.28978
0.33751482,77.11861
0.36907122,78.90139
0.28857875,77.93045
0.23671916,77.188194
0.29450575,70.84838
0.15670922,78.66753
0.1379437,69.91955
0.13383228,71.74291
0.0517112,76.035614
0.021886582,75.33711
-0.031848386,79.16548
-0.032064226,80.81377
-0.07061011,78.78125
-0.04663958,82.17932
-0.08856912,84.23194
0.07326802,84.25683
0.081649475,89.53458
0.1333555,89.837456
0.26975206,96.45924
0.30225536,96.1665
0.40350458,99.08963
0.44374198,106.9373
0.5921147,107.13865
0.64407766,111.9188
0.7466204,114.230705
0.8527683,118.96854
0.9038599,122.96613
1.059551,129.79805
1.1164057,130.40515
1.1389154,132.56854
1.173455,134.44492
1.3148192,140.71162
1.2527114,142.87524
1.3652115,147.19728
1.2846332,147.0151
1.3699079,147.27896
1.2896048,147.90895
1.3034474,147.88234
1.2639223,151.77574
1.2717364,147.4632
1.355378,153.20015
1.3322241,151.07166
1.3832804,151.48878
1.1912285,150.40193
1.1953428,152.14491
1.2877164,148.50693
1.1596916,147.49966
1.1998082,149.79152
1.1196663,142.04863
1.0517143,141.91571
1.103279,146.00626
1.0647048,142.7949
1.110958,141.38583
0.9762723,138.82195
0.9553182,134.40573
0.82457423,133.04059
0.94662946,131.0844
0.8915013,132.27724
0.84764963,131.0128
0.9379201,125.26742
0.95807976,126.25397
0.7952613,122.556984
0.95947164,119.090355
0.88672334,118.51118
0.9340222,113.91439
0.7731325,115.52163
0.7613872,116.55562
0.7015693,115.286865
0.70090306,108.543846
0.6064468,107.365906
0.59396696,104.37358
0.5220821,103.552895
0.4745731,103.2499
0.4918735,100.04878
0.46653947,94.85246
0.39912027,93.92618
0.41068545,92.302246
0.40596357,92.0151
0.32775208,89.5568
0.38214025,89.02347
0.39134032,85.006424
0.3789866,84.137665
0.37250593,81.24738
0.4149364,82.223816
0.33670646,76.418106
0.28825843,74.361084
0.31757376,79.703865
0.31466764,75.74512
0.20698991,75.38854
0.22403462,79.517296
0.20213746,74.46944
0.045388263,77.35234
0.13251494,74.64173
0.05778131,77.76482
0.088380724,75.60971
0.0013264855,81.45664
-0.027729468,80.34966
0.057814267,80.03534
0.03341991,82.78185
0.01800604,86.90151
0.114829004,89.56608
0.17630236,92.68068
0.28910223,94.145744
0.3248944,100.78941
0.45964384,97.37351
0.50890416,101.46427
0.6903266,106.10561
0.7303245,110.227974
0.91832167,112.45452
0.99059135,117.86042
1.1070405,124.69176
1.0858282,126.52315
1.2023655,129.66219
1.218339,131.71658
1.28768,135.21501
1.3782456,137.27364
1.4403332,135.68056
1.486026,146.02023
1.4589055,145.27507
1.4627476,143.7296
1.5225343,154.97493
1.5085326,153.64294
1.4836171,149.25298
1.5487146,150.64114
1.4766791,153.94743
1.4795939,149.92813
1.4717512,151.7022
1.4231352,152.17972
1.5136044,153.05704
1.4273177,154.48128
1.4799712,145.0599
1.3936383,150.40947
1.3783406,148.1577
1.3098154,144.36389
1.3142909,143.6915
1.2472636,142.44925
1.3076518,140.89568
1.1767793,140.26968
1.1473372,135.36844
1.1231078,135.62415
1.0591769,133.06398
1.1411265,132.37024
1.0983328,130.7967
1.1782774,126.52311
1.05703,124.320724
1.0583271,125.89537
1.1052336,119.96606
1.0976416,120.37581
1.0582695,115.02092
1.0009594,114.922676
1.0180628,115.7025
0.9511484,113.07504
0.88563496,109.03465
0.8605333,111.17286
0.86702746,104.70952
0.81702036,102.85106
0.73762894,103.40004
0.6441075,102.878265
0.7367216,97.45727
0.7018861,92.47208
0.6148513,92.50866
0.6295594,90.331566
0.68324566,88.337845
0.6070837,86.874695
0.5479211,91.204185
0.6289873,84.40403
0.6484082,84.20976
0.6041559,84.41015
0.60065156,79.4354
0.6283318,79.6997
0.65509295,77.47072
0.6093992,79.182526
0.52785313,72.4832
0.48641768,75.74299
0.43135887,71.4961
0.48727137,73.32378
0.41996735,74.589775
0.38324243,73.67396
0.3435925,77.08149
0.35104442,79.24108
0.34206435,80.06209
0.26026842,82.39306
0.3801297,85.18461
0.35515386,85.45237
0.38026235,88.40708
0.4486467,89.03937
0.5245403,92.689415
0.59492636,97.723335
0.74035794,98.207436
0.82661194,103.21882
0.9556432,109.277214
1.0719284,106.93236
1.1148692,113.09828
1.2467585,119.741325
1.3423948,116.43171
1.4302008,121.60317
1.4737011,129.08801
1.5856153,131.48952
1.6151912,134.76674
1.6885433,136.10083
1.7101825,140.23082
1.7857153,139.69879
1.6995493,144.06148
1.8192444,145.61888
1.870761,146.14001
1.766644,150.99057
1.8154087,150.98279
1.8449601,152.93752
1.8012766,148.85558
1.8077452,150.41077
1.776775,158.33623
1.8085433,150.1392
1.7569245,151.48589
1.7314091,152.36763
1.7005371,150.35612
1.6603156,148.36455
1.6342796,148.95964
1.6296395,148.68921
1.5556414,143.70804
1.5037518,136.47247
1.6190989,141.20311
1.5109984,137.46349
1.472214,137.60129
1.5394717,138.65254
1.4738368,135.50316
1.4854815,127.59008
1.4649837,131.6584
1.356424,123.140076
1.385715,123.47036
1.36178,126.52897
1.3992645,120.20537
1.3508173,118.05856
1.3412114,115.889114
1.4123037,115.164375
1.2184,116.87998
1.2711163,112.65441
1.2932317,113.66158
1.1975036,106.67932
1.1702149,105.07075
1.0417072,104.15502
1.0688844,100.83164
0.9512883,98.214645
0.94598544,99.67569
0.9417281,95.58543
0.87803245,93.73166
0.9559094,99.92287
0.93913233,88.108864
0.88944787,90.07445
0.94803905,86.51457
0.83594954,87.96544
0.8686073,84.25448
0.8908346,84.369514
0.9004686,79.932175
0.8771435,77.12924
0.9206074,77.09793
0.80139035,77.62669
0.8130578,78.57687
0.7409502,73.7644
0.76435035,73.69878
0.66160804,78.52412
0.596006,75.533325
0.6205341,77.51727
0.59944063,83.47688
0.5250803,72.6872
0.50349784,76.32438
0.51672685,83.080635
0.6268634,82.98797
0.59039134,85.306305
0.6377263,83.1613
0.6608102,87.52698
0.7587548,93.06567
0.85162884,95.913124
0.8637999,99.71345
1.0235609,101.98528
1.0717764,102.805016
1.2058045,109.71486
1.289787,111.37233
1.4217856,117.02423
1.4695483,117.33023
1.6018804,123.26412
1.6532993,128.39493
1.7821636,128.33372
1.7963856,127.723465
1.8265146,133.82457
1.9356537,140.61479
1.9070848,142.96495
1.9427923,144.3167
1.943449,145.44516
1.9750195,149.24544
1.9031364,148.97844
2.0285492,147.01056
1.8776314,150.46405
1.9478538,149.97026
1.9502307,149.95499
1.9809865,148.64258
1.8668617,146.74602
1.8643261,151.28717
1.8288809,155.39975
1.8384954,146.80605
1.7510879,146.63437
1.7944591,147.67729
1.7689699,147.39734
1.7192837,147.83432
1.6475772,146.52931
1.6372951,139.91718
1.5304033,140.45155
1.523482,137.63007
1.5953861,137.75362
1.4907393,136.96788
1.5674909,131.3624
1.6002978,131.0873
1.5064247,129.20236
1.4974593,124.85573
1.4660425,125.60113
1.4572928,124.50258
1.4873735,122.42331
1.4666297,117.12014
1.3756132,119.103004
1.2731452,115.85466
1.3499141,116.95653
1.274112,112.03394
1.2027296,110.37128
1.2142199,106.52023
1.0719984,103.105484
0.993385,100.681656
1.0281973,99.634415
0.9930668,96.8416
0.8948273,95.81005
0.96677846,94.90198
0.91207916,93.325455
0.91443884,89.18533
0.93082154,86.95868
0.8435683,83.98342
0.8514341,88.29098
0.80620223,85.20609
0.82465494,84.21403
0.90981764,81.51566
0.9058499,82.72646
0.8531849,77.87154
0.83592236,75.67812
0.7368902,73.48751
0.74187094,72.560135
0.6686058,74.42046
0.70867074,76.627396
0.59570086,77.76959
0.56674355,74.99589
0.5554284,77.25964
0.47737128,81.49945
0.40551797,76.90081
0.49604875,79.83884
0.49687532,81.62073
0.4600213,80.58469
0.51458406,85.55898
0.5200112,94.35725
0.62159544,87.1183
0.78175956,91.170364
0.8490216,100.68406
0.88827044,102.85034
1.014376,105.62036
1.0950513,104.265144
1.1120917,112.3095
1.2405224,112.84157
1.3606938,117.77771
1.4580468,118.76716
1.5590864,128.94437
1.6373422,133.55806
1.5848055,131.97008
1.6899258,132.62813
1.731387,143.0387
1.7260069,139.16612
1.8140007,141.7388
1.8134321,147.55736
1.8225135,145.92148
1.8625627,147.73456
1.8316383,150.5875
1.790799,149.86499
1.8372725,151.0983
1.8049135,152.04605
1.7733939,151.75366
1.7670828,153.51825
1.7289561,152.24081
1.6870024,150.90462
1.6647131,153.83665
1.6069411,149.91052
1.591724,145.97372
1.546759,145.50092
1.4898815,148.1251
1.4176265,143.71625
1.4270962,141.42651
1.4399306,138.26372
1.3740996,137.35861
1.2627738,136.91663
1.2867032,132.45078
1.3332535,132.55133
1.3120978,128.95438
1.2931062,132.08842
1.2717462,124.802704
1.3526995,125.381386
1.2428275,122.65306
1.2775825,120.59966
1.1054031,120.06945
1.2744828,117.871796
1.0391266,117.31073
1.0824773,116.45554
1.0765268,112.49097
0.9485408,107.35347
0.9605694,110.98069
0.81886894,104.06088
0.79177225,102.002106
0.8587983,98.40685
0.78307664,99.52693
0.7887352,99.49698
0.6686251,94.536644
0.66842777,95.50954
0.6219579,88.35734
0.66930497,91.90755
0.56991637,84.56933
0.587967,86.77206
0.62565994,83.65733
0.6975377,79.61578
0.56985044,78.51339
0.57456154,79.2187
0.5592387,77.54883
0.6054962,78.97676
0.56565285,77.320435
0.44216442,79.736534
0.4071505,73.3162
0.503817,74.4696
0.34799758,76.805664
0.33336836,72.76049
0.21020226,73.42957
0.23911488,79.2277
0.15966947,84.03891
0.21073055,77.35024
0.19308324,78.66847
0.20557839,81.542625
0.19420236,85.74627
0.32437742,89.257545
0.3407739,87.646095
0.40747848,92.39078
0.34763303,95.20968
0.57400703,96.15289
0.66350806,105.91232
0.7073769,111.102165
0.816227,109.228035
1.0114207,115.49492
1.0598032,119.68288
1.1675974,122.26169
1.2438258,126.77685
1.2948067,124.23622
1.3494791,132.08728
1.3338909,136.06079
1.4207745,133.7002
1.4284447,138.36278
1.5074923,139.11887
1.4177332,144.3033
1.4880562,146.58546
1.4316313,148.07109
1.4644561,152.80515
1.4450992,149.94392
1.4876382,149.70845
1.505856,154.99532
1.4809996,154.38892
1.4885753,153.17618
1.4446838,147.3379
1.3477141,151.69496
1.3683201,152.35776
1.2686491,150.9668
1.363319,148.06244
1.1898543,148.23013
1.201795,145.80998
1.2005148,140.07658
1.2378182,142.0897
1.0771129,137.60919
1.0195202,137.17224
1.1325557,137.50073
0.98461854,135.0778
1.0007737,139.01395
1.085123,133.21219
1.0399129,128.8354
0.9502505,130.01941
0.9731858,120.13159
1.0074233,122.93654
0.9385352,122.28431
0.85426617,120.93903
0.84860873,116.44581
0.882997,111.91452
0.7808117,117.31403
0.738132,110.0735
0.7595343,108.55788
0.6393149,106.23775
0.6144203,108.09329
0.62492794,104.781395
0.5927515,101.394
0.51122934,99.50349
0.42913803,96.01853
0.39263505,98.422485
0.4264387,95.3674
0.3606677,94.18955
0.35134232,89.80288
0.4253124,90.11583
0.35455605,91.89734
0.3625644,80.26901
0.42035386,80.14415
0.35415933,84.73445
0.34194812,80.69072
0.3870476,77.22557
0.3600272,76.281006
0.2970813,79.56563
0.3253897,75.86631
0.2187073,76.78771
0.20648138,76.39828
0.043958437,76.73529
0.050759174,72.95373
0.030678635,71.799515
-0.043423425,75.35934
-0.001042671,77.915596
-0.016926903,81.05079
-0.016729254,85.47081
-0.0018672345,85.340614
0.010862246,89.20508
0.032227293,86.88706
0.072061434,89.47676
0.2007292,95.15473
0.2401546,100.78088
0.34066716,98.64794
0.45133913,102.744934
0.61368775,103.967155
0.60885614,112.4817
0.7010649,114.380775
0.832867,114.63303
0.90215683,120.69681
0.9707479,124.34479
1.0493232,126.83786
1.1065239,132.86598
1.1619658,136.72334
1.2650294,136.88379
1.29811,135.88216
1.2691562,139.4302
1.3133184,146.70807
1.4368938,144.90549
1.3242376,146.89107
1.3455285,146.64265
1.4039738,147.80888
1.3792934,152.49669
1.3956014,153.27388
1.3550837,149.93504
1.399582,150.26062
1.3499993,149.54086
1.2809201,152.77373
1.2567756,148.51788
1.2632395,149.29865
1.1961123,149.06105
1.1224543,147.7456
1.1526706,149.44574
1.1490458,148.14867
1.0422742,142.45506
1.0702038,140.48723
1.0693902,142.38914
1.0790209,136.55727
0.9550118,137.55392
0.9735063,133.32634
0.89091885,133.70366
0.950128,130.64035
0.92293406,128.00063
0.9390965,124.9879
0.9782324,124.606735
0.8984458,125.08098
0.8565763,119.00742
0.8203563,117.465965
0.78570306,116.77576
0.79993916,117.99395
0.85895044,112.84018
0.68210626,110.14993
0.68059266,111.0847
0.6339449,106.266754
0.51263344,103.91085
0.51208353,100.71287
0.44778928,99.83483
0.4950912,99.625694
0.40349346,95.30615
0.36534595,95.28361
0.396234,90.74313
0.38437384,91.24778
0.315513,87.525085
0.40554845,86.88861
0.3335422,88.99306
0.31829774,80.48806
0.39368653,80.535
0.3846645,81.438324
0.3899696,80.32428
0.35075712,77.16981
0.27235234,77.60031
0.21519808,79.614716
0.2232801,75.00474
0.25814945,76.14806
0.20376973,76.40893
0.14712073,75.59043
0.06757158,74.30195
0.10677691,75.60511
-0.025206037,77.787186
0.011594666,77.82038
0.07513341,79.305534
0.03691439,82.30508
0.082895756,82.773575
0.097404525,91.18213
0.16313243,89.04973
0.22159255,92.86378
0.32991815,91.87786
0.448786,100.75937
0.54333115,100.620476
0.5763789,106.11514
0.82044107,107.711525
0.8563825,116.15659
0.9172585,116.50749
1.024276,118.85787
1.0945691,120.702
1.2772598,126.64222
1.2918805,133.02864
1.3373181,130.95969
1.3394966,138.20767
1.4027358,137.74768
1.3979366,140.98744
1.5292491,141.52728
1.3928825,147.82346
1.5330994,145.46428
1.517172,145.72714
1.4955266,149.80269
1.5686862,148.34543
1.4897192,150.01494
1.5350554,152.10164
1.4512489,156.95192
1.5039765,153.17957
1.5887929,152.104
1.4961412,153.09943
1.389539,150.13623
1.4171609,148.00226
1.3803705,147.82661
1.3419092,142.84906
1.2600394,145.2852
1.344232,139.3205
1.252223,144.24374
1.2308899,143.76463
1.173836,136.18086
1.2376916,136.07214
1.147091,134.5615
1.1509249,130.80528
1.2263815,127.21601
1.2185504,126.912056
1.1289252,130.94113
1.1412975,125.545876
1.1373647,121.90665
1.1185228,117.73759
1.0920922,118.18642
1.0984651,117.9011
1.0773405,113.747055
1.0270255,109.686226
0.9821407,107.79516
0.87743115,104.27079
0.91699475,106.70993
0.92835474,105.38338
0.8759316,100.12382
0.6975499,100.30024
0.76481014,101.00981
0.7140496,94.39658
0.70693797,98.20973
0.6970423,96.3035
0.67916095,89.09079
0.6180778,89.10036
0.641624,87.553116
0.7045888,87.39313
0.7007548,88.822845
0.672248,78.8539
0.62557006,84.10315
0.59467244,80.63915
0.6591356,80.40993
0.6566847,75.230804
0.5690431,79.0226
0.52871096,72.13251
0.45285404,77.96845
0.46744943,78.09115
0.49403936,75.45852
0.47361115,77.411316
0.49418592,81.78668
0.3383887,76.28661
0.33853966,76.32209
0.2879835,82.27253
0.26228186,85.37915
0.39202857,85.86694
0.41847172,83.21772
0.4468488,87.06457
0.4941013,91.14242
0.70103276,95.99787
0.7094726,98.65197
0.7456109,101.07271
0.8723188,102.073235
1.0166405,108.49541
1.0950468,115.43693
1.0586814,111.180725
1.3493751,116.85523
1.4049386,119.22133
1.5023683,122.33451
1.4587991,129.9047
1.5870082,131.45418
1.661365,134.38985
1.7619321,135.56445
1.721984,141.78429
1.7537601,145.301
1.8257724,146.41579
1.8502089,149.08315
1.842722,149.74915
1.8577023,150.54143
1.845509,149.07774
1.8240414,150.36987
1.8572091,148.82928
1.8216541,154.47656
1.8360218,150.93666
1.737004,149.33006
1.7320629,146.59128
1.7021676,149.94989
1.7071017,150.29579
1.6505097,151.86198
1.6465981,148.83917
1.6071441,146.12036
1.5870823,143.73972
1.4791682,142.11789
1.618577,142.5248
1.5083754,135.53912
1.50837,135.76924
1.4136784,134.04436
1.520726,133.83728
1.4938952,129.6692
1.473002,125.2352
1.4905963,123.75588
1.4807479,125.32022
1.3708434,121.498245
1.3671236,122.038765
1.4081701,119.88459
1.3859133,115.58444
1.3046887,116.342354
1.2974913,113.393745
1.1769633,112.71751
1.225345,111.487274
1.1689286,104.33347
1.0997366,106.0901
1.0963813,101.056625
1.0664836,101.18062
0.9385764,94.459465
0.99166065,96.434395
0.9267886,96.35099
0.93541825,92.42669
0.9119847,89.01194
0.8633377,89.279686
0.8492179,89.590706
0.9451937,84.12376
0.9134314,82.39775
0.83451664,80.395035
0.8632161,83.311646
0.8131432,79.44074
0.8915315,75.691765
0.9048684,72.33331
0.86538064,74.82815
0.7857205,73.84135
0.76391923,75.87118
0.7712546,76.18246
0.75225025,74.62696
0.6636736,74.76665
0.60532874,78.73322
0.5793574,78.340805
0.6303443,82.77757
0.6147275,80.73983
0.60558563,80.12804
0.5798301,84.62088
0.5650392,85.48269
0.6550563,85.83049
0.67112654,90.505745
0.747295,93.20291
0.8762081,101.544655
0.96902996,94.589035
0.978803,98.00366
1.228114,104.93423
1.3270168,109.57693
1.4077514,113.39272
1.3979098,114.650154
1.5389838,119.44578
1.6701264,121.21929
1.6720979,126.40021
1.6970893,128.00731
1.8227282,131.98332
1.8232114,136.86751
1.7767112,141.00009
1.9465234,138.73846
1.9513879,144.1886
1.931932,146.87831
1.980228,147.63469
1.9147812,151.40698
1.9546607,152.63673
2.0223417,152.82162
1.9505411,155.1773
1.9652566,154.30064
1.8677884,152.56776
1.9107525,155.2301
1.790725,146.82722
1.8684713,150.66103
1.8241493,148.4273
1.8131721,146.97125
1.7703398,147.54326
1.7321209,145.46576
1.6647936,148.39932
1.5988592,143.40619
1.6819139,142.44275
1.5492706,138.38876
1.6098341,139.2712
1.5285774,133.5962
1.5480479,132.195
1.557536,133.22395
1.4399214,127.29341
1.4390615,130.82008
1.452492,129.58623
1.479937,126.62342
1.4441383,123.792915
1.4088846,120.3187
1.3520675,114.32061
1.3890841,113.44567
1.2807361,115.36834
1.3297865,115.0698
1.2599342,110.46661
1.2164978,110.70729
1.1624718,105.14647
1.1576732,103.489655
1.0159414,102.602554
1.0232494,98.19149
1.0304254,96.84
0.94793695,96.29751
0.915471,94.75812
0.93511105,91.92838
0.8782532,90.21129
0.79654497,92.910385
0.91651726,84.89595
0.91182125,82.03782
0.8455295,83.187256
0.8548821,82.00621
0.78884727,76.58674
0.85605097,81.15362
0.8529107,77.68824
0.7879029,76.89133
0.68707556,74.83268
0.65293264,76.348366
0.6316419,76.311905
0.58202595,74.27729
0.6026751,74.92609
0.55148935,76.15525
0.48012385,80.27628
0.45317513,76.743904
0.4296713,82.29733
0.46252924,83.29632
0.54767406,88.31162
0.45767975,82.65374
0.58153975,88.99875
0.5318526,92.25202
0.63873726,94.042435
0.8010496,95.38945
0.868786,102.55426
0.8981218,101.36333
0.98613536,105.060745
1.1108196,111.90165
1.2474635,109.14211
1.2741922,117.454544
1.3354808,113.54931
1.4463778,124.04869
1.5399182,130.07278
1.550316,130.6329
1.6818162,135.76884
1.6332784,134.33151
1.7723173,141.38501
1.7432084,137.42703
1.7733804,148.07828
1.7507653,145.82155
1.7861496,145.88524
1.7490817,146.4112
1.6781878,150.53935
1.801733,147.77638
1.7619901,152.04962
1.756224,149.66692
1.7188267,152.7224
1.7385784,149.41444
1.7114851,151.451
1.6831995,148.89102
1.6758893,148.93362
1.6611682,148.35233
1.6171064,147.8986
1.5768661,145.89726
1.40116,148.42137
1.405974,145.05138
1.4207764,142.0536
1.3497866,141.83403
1.2883487,135.5327
1.3969043,133.815
1.3165717,132.29076
1.2796918,134.45735
1.2600074,131.97194
1.2661523,126.02247
1.2791554,127.455635
1.2378023,122.72473
1.1844631,124.26164
1.1855783,122.755295
1.1514549,118.49355
1.159605,121.17851
1.1672643,109.088036
1.0323052,110.184845
1.0156342,110.50446
0.9529157,108.2015
0.9043655,105.191986
0.8956185,109.58284
0.8050089,101.0231
0.70290744,101.77308
0.723719,98.771675
0.69875926,94.37634
0.64918894,90.05202
0.67915964,92.99357
0.62571543,95.787636
0.72019535,86.71769
0.6208839,87.71678
0.56391305,85.958244
0.56533396,83.29514
0.5966863,84.76171
0.5463836,81.100525
0.57154685,81.14515
0.45707345,77.09044
0.5840081,79.77347
0.5183498,77.27452
0.4551595,79.46269
0.4090981,76.61108
0.30584025,74.47289
0.38177395,77.00844
0.25292066,74.94977
0.248982,77.89949
0.21006551,78.40727
0.15535305,75.70125
0.076720566,86.231926
0.2173144,83.509
0.18769374,81.0942
0.2195522,87.0707
0.23032528,95.0482
0.308055,95.43413
0.4040806,91.44203
0.4996004,97.09625
0.5904774,99.27003
0.71578395,103.011795
0.8132232,109.76186
0.86219174,115.615715
0.9628504,114.22399
1.040964,117.586205
1.0987504,124.60222
1.215617,123.919235
1.3384016,131.53795
1.2716408,130.95218
1.3659079,139.80533
1.3320166,136.3107
1.4316391,144.35928
1.4505609,140.94508
1.5333384,146.574
1.4851243,147.28247
1.5269758,149.85313
1.5619706,148.94809
1.4582305,152.3569
1.4838897,154.55756
1.4508818,147.8977
1.4444697,153.8116
1.451581,154.01318
1.3936785,153.87198
1.4040264,152.67741
1.3115746,150.28993
1.3480011,146.39172
1.3077704,151.00165
1.2200272,146.20952
1.2070578,146.56528
1.1186516,139.69165
1.1491677,142.14024
1.0755136,141.14365
1.042472,134.6289
0.9659223,135.67078
1.0493677,130.27505
1.0040213,131.82759
1.0034137,132.11789
1.0052685,128.0133
0.95836776,125.95899
0.9044694,125.33912
0.89486563,124.43006
0.8785529,121.30152
0.9356541,119.65129
0.9176107,120.75632
0.8023543,116.318344
0.7123415,112.62759
0.69013894,112.607574
0.6630742,106.82373
0.6181266,108.37051
0.6781961,106.83101
0.56702805,98.00466
0.44306108,100.402084
0.50406355,101.45958
0.4553135,98.32022
0.47925964,95.03926
0.45428628,90.17179
0.3757484,89.91876
0.33016253,87.389336
0.35224915,86.13218
0.37501132,87.321846
0.39335376,83.40416
0.28164643,78.90095
0.33243695,85.0524
0.29970366,77.05354
0.30688614,79.12144
0.26816833,74.81747
0.3093212,80.930435
0.17443655,74.054214
0.24589816,75.843254
0.21243191,73.10103
0.08403601,71.07402
0.0833266,76.381615
-0.018576108,75.27712
-0.019794708,76.67975
-0.049766976,80.1103
0.06768337,77.130455
-0.006262313,79.533516
-0.00017517882,80.65566
0.03705931,83.570435
0.068148024,91.245834
0.11803965,88.55482
0.18313698,93.72887
0.2880921,98.07368
0.38369688,101.311745
0.4135361,102.880226
0.6112654,108.20768
0.6372007,109.73136
0.77134657,115.02973
0.8244503,120.08998
1.0054369,119.51004
1.0469505,123.91601
1.1218983,128.7903
1.1152819,130.6914
1.2357378,134.7942
1.2760597,139.4189
1.3300383,142.53436
1.3169738,141.28165
1.3059185,143.3527
1.3625383,144.3136
1.3119093,145.51855
1.409877,147.68906
1.3268358,149.47357
1.2813517,149.6691
1.3434812,154.38107
1.38169,153.47778
1.3258084,153.19585
1.249465,154.20323
1.253683,153.2202
1.2348542,152.07104
1.2069814,146.74297
1.2203597,150.31667
1.1539855,148.63765
1.1316218,145.45004
1.0295537,142.86722
1.129717,143.78616
1.0458863,139.36906
1.0590488,138.58481
0.96476763,139.65726
0.9877305,136.94214
0.92796314,130.39226
0.9141387,130.92511
0.88441944,126.440834
0.9724588,122.76858
0.89934677,125.98845
0.92012894,121.146385
0.82317466,120.379944
0.8934354,122.7359
0.8343521,116.5224
0.90429187,115.843994
0.8060394,109.45803
0.7604824,110.1031
0.7064799,109.92805
0.61646146,111.95775
0.47558036,107.11519
0.5964622,103.62752
0.5189721,104.43258
0.4198562,96.78081
0.40897825,102.18708
0.37950674,91.41225
0.38512737,92.835526
0.40329045,90.28796
0.4303336,88.274414
0.41483742,87.83755
0.40587685,86.16915
0.40805498,83.89136
0.31169143,83.85982
0.44719255,81.359695
0.34475863,74.06771
0.29115912,79.5673
0.33042622,76.934814
0.28669822,77.84407
0.3087134,73.566635
0.25923872,77.55878
0.21388769,75.18965
0.18061838,73.05217
0.15712303,79.592445
0.075396106,75.256035
0.06775759,76.41845
0.17123865,81.01254
0.08315165,76.34038
0.11220126,84.08751
0.06872792,84.69144
0.114173196,85.3658
0.1449836,82.58134
0.25983366,91.279236
0.2875737,96.61395
0.39184052,97.19634
0.46348783,101.81453
0.5850078,103.13513
0.6778463,107.46384
0.7859229,109.39903
0.905938,114.13761
0.9660506,114.887665
0.997917,121.42324
1.1694354,124.95499
1.2228837,127.94571
1.2761009,128.56305
1.3615896,135.73535
1.4221853,137.95068
1.4451326,141.58884
1.5395287,144.9073
1.5596876,142.78488
1.4849329,144.17372
1.491078,149.33315
1.564463,153.19215
1.5101471,155.1132
1.5624738,151.93227
1.5100826,156.54256
1.5279988,150.1524
1.54943,149.30447
1.5171877,152.73618
1.505969,153.8028
1.5045255,152.0635
1.3782036,151.23654
1.4054034,149.5337
1.4189427,147.90797
1.3329256,149.77919
1.3810683,147.2864
1.2872965,141.29953
1.2367815,139.69102
1.2796482,140.76805
1.2380632,140.42848
1.2413234,134.57863
1.2382015,131.57556
1.1417015,132.26282
1.2524774,127.83668
1.1213374,125.04136
1.2236252,130.34602
1.2163674,124.67442
1.146165,124.4125
1.1453743,120.20726
1.114741,118.14295
1.0895092,116.44342
1.0726243,115.91947
1.0168943,113.54384
1.0543456,108.73991
0.96319675,111.99887
0.88376606,105.070076
0.844898,104.014465
0.7761985,104.00486
0.7672647,98.66721
0.7563065,98.632034
0.6720388,95.78934
0.68585545,92.992966
0.7197588,94.31702
0.6411173,93.93507
0.68717456,87.06942
0.6145013,84.85123
0.6510457,82.5328
0.6527656,82.72621
0.7242695,79.14724
0.6029566,81.26137
0.66961527,78.84742
0.713528,80.22258
0.6055483,75.94353
0.61086357,76.56568
0.49778426,72.71014
0.50246793,74.5749
0.44750065,77.40383
0.48993146,78.20356
0.44281116,78.518074
0.35755554,77.29157
0.42315513,82.10263
0.35721922,78.31591
0.39685118,78.96629
0.39060098,82.19124
0.40434185,82.38875
0.44861403,85.76715
0.46299738,85.351555
0.58595955,95.253944
0.63655645,96.08458
0.6960027,97.97503
0.85323036,100.81623
0.92154515,105.28832
1.079142,107.74932
1.1764395,110.10226
1.1848454,115.83356
1.3871249,120.044266
1.4747509,123.01184
1.4787406,126.71435
1.5644063,128.00175
1.6338985,132.06888
1.7408891,141.86461
1.7461525,137.34938
1.7614017,140.57318
1.8331409,144.01212
1.8076859,142.35019
1.8833001,149.13289
1.83455,144.2819
1.8572654,147.80782
1.8494345,151.41167
1.8276364,147.63486
1.9287281,152.7575
1.8447163,148.26593
1.7816138,155.10434
1.8500395,147.38293
1.7686175,152.19249
1.6699059,146.55515
1.7570653,153.19229
1.7268323,146.53174
1.6146346,146.74031
1.567876,144.50333
1.5350267,142.28993
1.5406305,148.08226
1.583225,141.87614
1.5262556,137.12222
1.4525423,137.02527
1.4548916,135.08478
1.457446,134.62195
1.4671875,125.733086
1.5485156,127.62134
1.4737477,127.1292
1.4504507,127.09295
1.424762,123.16892
1.4300752,118.42209
1.2911543,120.76211
1.4036591,116.61995
1.3643382,113.780846
1.2417097,110.90209
1.2523637,111.76612
1.1857241,103.806046
1.2353687,109.65929
1.1727974,105.58582
1.0863589,104.142845
1.0852647,99.90206
0.9973443,98.82184
0.98785233,94.58622
0.9565324,95.61392
0.9752179,93.7457
0.8487614,88.38962
0.9321792,89.22414
0.8767472,90.63949
0.9680521,84.31335
1.0105869,83.98838
0.87917966,79.56576
0.8886812,80.10737
0.87111425,77.32617
0.86842316,79.15189
0.86505383,74.06566
0.83822364,75.15368
0.79759,74.0346
0.7712624,75.44208
0.66450256,75.80536
0.65453756,75.54696
0.6491717,76.83012
0.53645164,79.639206
0.5796833,76.13578
0.57384664,78.087006
0.5166622,76.434074
0.60611874,82.64531
0.4841225,80.22038
0.60859483,86.01714
0.7388683,89.29242
0.7086791,92.84717
0.7990051,95.45225
0.9096456,101.19773
1.0143363,104.43971
1.1230452,106.678406
1.2632664,105.82603
1.2336171,109.9154
1.4389423,116.23725
1.4750192,114.34577
1.5846384,122.24154
1.6576452,122.566086
1.7268788,128.22353
1.7880824,131.84294
1.8096812,136.43987
1.8723317,140.18568
1.9312582,137.91406
1.8742086,139.8645
1.922385,144.52974
2.0128653,151.12721
1.9423641,149.61987
1.9156555,148.28099
1.9535371,148.56355
1.9085239,151.77023
1.9226669,151.49646
1.9533131,156.34824
1.892342,153.48526
1.885187,149.46182
1.8016049,152.92863
1.7854865,151.17949
1.7299893,151.45697
1.7644051,145.83688
1.6984683,147.38596
1.6675202,147.07184
1.6298504,146.99313
1.6635284,140.6247
1.6333854,138.21881
1.5870718,135.3541
1.5276316,134.08313
1.4796563,135.04504
1.478126,127.915886
1.4387124,129.29716
1.5339146,121.73809
1.5018663,125.79471
1.440123,123.85568
1.4508716,123.14606
1.4656893,120.652245
1.4538349,117.8329
1.3265117,115.182365
1.305141,115.3485
1.3153509,110.562744
1.2329386,110.15893
1.2120965,109.30982
1.148034,108.041466
1.1107882,104.034904
1.1021266,106.97774
1.1026863,99.81826
1.0308936,99.57888
1.0108086,99.01533
0.9813162,94.77519
0.896384,93.11301
0.82806134,89.858826
0.8308677,90.18748
0.81020164,86.83651
0.8364706,90.49471
0.916759,83.27461
0.82552713,83.77622
0.8487891,78.863556
0.8355112,79.804985
0.8478546,81.99571
0.79534185,74.864716
0.7908903,78.40713
0.7162928,76.00937
0.62189674,73.62785
0.6013385,74.60669
0.5272927,73.18314
0.58460015,77.99569
0.51546013,76.61686
0.48486084,75.64768
0.44943726,77.40673
0.4071803,81.56803
0.42811278,85.07307
0.44821936,82.59568
0.46073294,81.93547
0.5297658,85.241615
0.63386744,85.87685
0.67009366,92.639824
0.70238847,98.564644
0.8243113,100.88549
0.83395356,102.95967
1.0556635,108.67404
1.1428192,110.50158
1.1611305,115.89384
1.281867,115.90191
1.3332936,121.6607
1.4477651,124.452934
1.5167159,123.321236
1.6421535,130.89943
1.6526264,135.42375
1.6445394,137.12999
1.7249331,140.30338
1.8149416,144.0022
1.7530767,144.735
1.7537563,147.02908
1.7616254,149.2754
1.7726175,149.82768
1.7788386,150.69539
1.8088301,152.40013
1.7691545,151.18317
1.7116734,153.9842
1.7962753,151.27411
1.7140366,156.13521
1.6070381,154.12236
1.6311258,149.12251
1.6556715,148.11273
1.5955375,149.50096
1.5761286,146.0789
1.4925056,143.91553
1.4485854,149.51419
1.377036,139.47057
1.4525785,143.85823
1.2796414,138.80544
1.3177335,138.23439
1.3472977,137.83728
1.2586248,131.54137
1.2848961,131.98645
1.328047,126.39888
1.212819,130.41458
1.1535926,123.7125
1.1325443,122.39925
1.1347712,120.1519
1.1355056,119.625206
1.099073,116.04531
1.1538308,112.4067
1.0551609,113.94669
0.95286506,108.38159
0.96392155,109.08666
0.91520405,109.05534
0.8220905,108.53741
0.7986785,103.89119
0.78856546,102.205345
0.7015772,99.67948
0.75776094,101.06975
0.65683633,100.642334
0.6138634,91.751175
0.61074764,96.08288
0.60019225,93.766075
0.5898619,87.92692
0.61692977,85.42902
0.638633,85.4652
0.5111627,82.27659
0.50464565,83.21455
0.52175516,78.38059
0.5690327,76.96158
0.48254314,76.849815
0.52715814,75.600784
0.46795186,76.513725
0.35169157,72.928734
0.3627905,75.70414
0.2826311,76.441605
0.19142571,76.79276
0.21266793,74.310425
0.23670742,79.36896
0.19674185,78.63103
0.116860285,80.05731
0.17036492,81.86856
0.12439822,84.19346
0.14821903,85.3168
0.20393585,90.263855
0.27289972,90.36375
0.40974426,92.52753
0.37856522,92.53865
0.5245576,98.49702
0.6310813,99.77294
0.70329934,104.58178
0.7883046,107.78898
0.8874542,115.56367
0.9788789,117.46724
1.0094236,120.136086
1.1237292,128.04396
1.2560738,122.07581
1.2438806,130.60464
1.321575,135.04503
1.3170717,137.07013
1.3476508,138.66672
1.4355159,142.82565
1.4490267,141.76508
1.4771265,145.32063
1.4702923,147.15388
1.5364767,149.22525
1.4873106,149.31276
1.5323102,154.25865
1.4156734,151.74898
1.4341037,149.07814
1.5266545,150.95244
1.4065679,154.6879
1.4067863,151.48198
1.3689324,151.50475
1.3531249,147.06409
1.2223186,151.60596
1.1817199,143.72455
1.2180916,145.42726
1.1240185,145.064
1.0934234,144.54874
1.0692694,142.32481
1.0941838,138.11201
1.0403588,135.37766
1.0184776,135.05267
0.9351478,131.21141
0.95561737,131.0273
1.0636731,127.76036
0.90906876,124.337296
0.9081898,128.07413
0.9546282,123.91065
0.85562605,127.097885
0.93455464,120.11277
0.81175077,118.00189
0.90672314,117.62189
0.86473113,118.19466
0.7979591,108.52734
0.6908456,109.55858
0.5788755,107.163216
0.55327404,104.44915
0.58633953,102.31876
0.51071817,104.01436
0.5260889,102.998474
0.45884427,99.85873
0.3754188,94.12128
0.38244304,95.30232
0.34173423,91.0136
0.38230482,89.94614
0.39409697,89.22375
0.33367938,86.1673
0.31592065,85.34812
0.32949537,83.995674
0.3654337,84.88221
0.33055553,82.15436
0.34635186,79.12993
0.25782344,74.0487
0.2583774,78.474976
0.20069331,79.075966
0.2636339,80.38295
0.20673157,74.96178
0.0835166,75.24283
0.02197172,71.3422
0.03817054,75.464424
-0.03940791,77.94499
-0.09936368,81.26178
0.0067406455,78.35551
-0.13937493,78.31236
-0.006857646,80.92328
-0.033759866,87.43495
0.011021389,88.987015
0.09478496,87.27845
0.1450852,87.66652
0.24611104,91.68297
0.3314193,100.31689
0.4204838,100.744446
0.5512497,106.83355
0.6392488,108.874825
0.80300254,109.691795
0.8222486,113.23429
0.87975734,119.004166
1.0561503,120.6247
1.0458583,128.84569
1.1601568,130.12144
1.2102556,131.95332
1.2567397,137.16908
1.2480702,139.12187
1.3506154,144.76422
1.3011926,144.58965
1.3316594,145.3894
1.404287,147.47227
1.360924,152.06232
1.4058713,149.54076
1.3787491,151.24443
1.3630502,152.04182
1.3955985,153.16766
1.415305,153.22557
1.2345463,151.28358
1.3358561,152.34158
1.2812115,157.01042
1.2260072,151.38454
1.3063811,150.9865
1.1831682,149.36235
1.1146789,147.59477
1.1191473,142.22269
1.1038072,140.6643
1.0729196,141.26483
1.0779774,138.65645
1.0177599,135.87971
0.9430192,136.85966
1.0505615,135.27936
0.91633415,130.67212
0.9615033,134.15608
0.89716375,124.38998
0.978989,128.72655
0.8888033,123.39444
0.82778543,124.12489
0.8202758,123.75886
0.87228644,115.85302
0.8349669,117.97801
0.870953,115.8087
0.74221313,110.14413
0.74314314,106.275215
0.745057,108.34682
0.6567201,110.015724
0.5905838,105.90114
0.5312726,101.48244
0.4979931,100.093544
0.45208323,100.54879
0.5217182,97.10199
0.3997801,98.90381
0.41592395,92.62356
0.40647784,91.3747
0.4420419,88.70963
0.45581684,84.22103
0.40678325,87.050186
0.3044616,80.732765
0.44495514,81.200645
0.34109864,81.49602
0.48521742,80.87051
0.38278577,76.5086
0.2858695,77.28327
0.38342494,78.278114
0.25911736,75.8063
0.27464804,73.23377
0.19690673,75.91341
0.16166615,78.55681
0.19562474,77.3918
0.10640586,78.87952
0.045531817,77.286644
0.17580754,76.868546
0.087404154,80.655174
0.101215184,80.0797
0.08722564,85.487236
0.113121815,85.024536
0.21244599,88.4033
0.2555671,92.91641
0.33670488,94.69695
0.37201023,97.21681
0.5163054,100.80628
0.63226694,107.59075
0.7053574,105.25205
0.88898945,114.136635
0.94155496,116.00485
0.9854523,116.37998
1.1247619,122.30667
1.2069306,125.252266
1.2472575,133.68806
1.2985121,132.74854
1.3995882,132.51663
1.4215454,140.47377
1.4969876,138.87779
1.5161948,138.97458
1.5935603,144.64365
1.4201527,146.96236
1.5022963,148.17882
1.5973458,149.05725
1.578365,152.39975
1.5080768,151.31506
1.5532699,154.32141
1.5590196,154.70831
1.5901189,152.99239
1.4657476,149.57918
1.5260559,151.45274
1.4292659,151.22784
1.4102716,151.95238
1.4348541,146.55635
1.3064169,147.25734
1.3628701,143.98468
1.3267369,145.7167
1.3308247,144.51459
1.3098329,141.6673
1.2168362,139.53093
1.1975267,137.63092
1.2440221,131.88477
1.2391798,132.14612
1.1703811,131.44707
1.155606,129.80956
1.1734742,126.28103
1.1923934,125.78862
1.1523982,126.1342
1.0939714,118.37235
1.1287445,115.88278
1.0463709,117.2123
1.111204,118.99513
1.0416919,112.026024
0.99006593,112.183525
1.0499908,107.89068
0.9344331,107.3488
0.9116327,107.40777
0.84008765,102.69153
0.8461764,100.38514
0.78416973,98.215996
0.7692672,101.02195
0.7162726,97.67623
0.69938135,92.16208
0.7763697,96.24155
0.67681384,89.48951
0.69083726,86.90574
0.7112505,91.52738
0.638791,88.11898
0.7303529,83.59197
0.742369,81.069885
0.69697946,81.04937
0.6365018,81.25608
0.6259934,80.78238
0.62133694,73.70512
0.65139854,74.40676
0.54279304,77.95725
0.53133047,76.17875
0.5027422,74.055885
0.422146,75.132256
0.32931358,76.62619
0.33609584,76.27294
0.3168238,79.44921
0.3664948,77.746284
0.321702,82.10521
0.33364835,83.91573
0.49290726,82.97079
0.39824343,88.84362
0.52871776,87.88531
0.6521151,97.53148
0.7620357,95.468445
0.80092686,96.37129
0.9453739,103.60463
1.0007257,109.7196
1.1362551,107.47984
1.2513323,113.8293
1.3584945,114.77715
1.4575726,123.19486
1.4804276,125.15438
1.6045989,129.57812
1.6320908,134.70963
1.6803818,133.201
1.753266,137.71199
1.8296542,143.41998
1.8157059,143.26962
1.7685213,147.69208
1.8031145,146.30275
1.8361043,147.52066
1.9060853,148.89468
1.8467156,148.1342
1.8222677,154.25116
1.8611271,148.92184
1.8293208,152.91728
1.8831283,150.29733
1.7623491,155.90932
1.836103,148.77403
1.7912338,151.10382
1.7757996,151.8972
1.6633977,151.38065
1.6234281,149.73648
1.6291262,146.37962
1.5941985,148.69266
1.4455751,145.90886
1.5820932,140.96628
1.5026096,140.4419
1.4999095,140.4757
1.562172,135.24272
1.4751357,136.63509
1.4778275,133.66718
1.4677722,130.51259
1.4309412,129.53865
1.4417948,122.6705
1.3603498,119.642815
1.4710048,122.46539
1.4648622,117.85459
1.3528153,118.82265
1.4585593,115.07937
1.2857059,117.85381
1.2866567,112.73008
1.2965616,114.50409
1.2429453,111.00584
1.0888197,107.35354
1.1808935,103.71741
1.045186,99.625786
1.0806823,98.53279
0.9314156,93.650154
1.0048058,96.77847
0.8791368,94.729866
0.94140977,90.95451
0.8963122,85.060745
0.8953115,88.68395
0.84754914,88.286285
0.9588711,83.22883
0.9069115,82.24164
0.8530067,83.35301
0.870006,80.155785
0.9543413,82.30673
0.87994087,79.63276
0.7472304,75.56397
0.8640066,75.43614
0.7948291,77.75648
0.76903176,74.03659
0.700609,74.58903
0.6283897,76.152084
0.6175905,74.3312
0.61537635,78.183655
0.5192268,79.14142
0.49282825,81.585785
0.57854503,82.08015
0.5630801,82.67271
0.60880315,87.79219
0.64720273,87.83098
0.6590139,89.926956
0.72253937,92.24224
0.84714425,97.222855
1.019861,101.005646
1.0833102,107.57806
1.0740304,107.09218
1.2997742,110.94194
1.3174345,112.17172
1.4514554,111.53895
1.469185,117.33349
1.6071808,122.72761
1.7086027,127.740456
1.7433678,130.77856
1.7327021,130.3352
1.8489068,135.27174
1.9505482,139.0606
1.9376698,139.5826
1.9176041,146.3486
1.9605116,149.62454
1.9222525,150.18237
1.9552293,146.2107
1.9849896,149.47954
1.9376856,151.7051
1.9206082,151.98972
1.9482355,154.08345
1.9617946,152.21547
1.9184831,150.74956
1.9311801,152.60675
1.9523858,151.54831
1.8123044,151.5771
1.8298243,146.59392
1.7590752,143.9017
1.7295309,149.0031
1.7099667,145.9878
1.6162211,147.24234
1.6255643,142.9119
1.6150999,139.39449
1.5106677,140.16504
1.501968,137.45146
1.5101327,134.93227
1.4629675,135.25967
1.5110327,133.64027
1.5349567,130.81229
1.4395621,128.05885
1.4361997,125.89617
1.4391907,122.79815
1.4031057,114.07506
1.27466,117.35708
1.3220866,117.93918
1.3241063,113.24315
1.29847,111.05874
1.2267001,111.1414
1.1900594,108.68518
1.1766021,108.529274
1.0736872,105.93482
0.9452437,101.605415
1.0050334,99.490234
0.89527893,100.198204
0.88218844,98.89138
0.8944749,96.43438
0.8869831,94.329765
0.84641355,88.6672
0.8481884,88.69902
0.8044392,87.67476
0.90461963,84.64091
0.85461676,84.43474
0.90455157,86.375374
0.7948046,80.694336
0.85875577,79.103165
0.7102655,80.42914
0.72305846,80.055084
0.7148124,78.815445
0.65940577,74.10888
0.63114506,73.35429
0.58128566,72.53135
0.5582773,74.9854
0.49185836,75.365685
0.43159768,78.56234
0.47122693,75.637024
0.3725516,80.70653
0.4344497,81.81172
0.34181437,81.859634
0.4955656,83.61084
0.50382817,85.69863
0.5506796,87.38717
0.70624065,92.00567
0.66085625,91.48639
0.72970235,99.31542
0.8529743,101.73659
0.81820965,103.954285
1.1177313,109.5279
1.1936107,109.24052
1.157615,115.71015
1.3292267,121.66282
1.4832102,123.703926
1.4601156,128.69754
1.550053,130.92598
1.6011418,132.73976
1.6969169,135.90457
1.7124829,136.7579
1.6776401,141.23373
1.6605401,142.05922
1.7317009,147.33772
1.81045,146.8806
1.7388996,149.50615
1.7571875,149.52458
1.699741,142.83691
1.733573,151.5935
1.658321,151.8276
1.7015415,151.30598
1.6590885,148.44418
1.6929778,154.67018
1.6316334,144.95653
1.543171,147.64908
1.5772098,151.00116
1.4814379,147.2973
1.4724735,147.06306
1.4173315,144.74568
1.3765011,146.90437
1.3831791,142.63383
1.2925711,134.85938
1.3259733,140.46803
1.289928,137.2515
1.2344489,133.85297
1.2409428,133.21292
1.1964219,133.43462
1.275798,130.05023
1.1020597,123.15209
1.2316394,125.40739
1.1006913,126.25694
1.1584978,121.74878
1.1350255,121.15872
1.0819949,120.89047
1.1374022,116.217674
0.93311113,113.60251
0.98465425,112.31296
0.9429629,106.507286
0.90158147,108.9319
0.8307452,102.31003
0.79758096,100.98109
0.6818616,99.42106
0.60503787,100.11915
0.68226993,99.10219
0.6549641,94.35229
0.5393812,95.08562
0.63215846,90.2006
0.55694294,89.667366
0.6044586,86.363655
0.5162266,84.515755
0.60266846,81.74043
0.45921138,82.09191
0.42158288,81.27678
0.513212,82.257675
0.52155304,78.95213
0.50169784,80.628365
0.4826495,74.42742
0.32713678,74.27605
0.30928424,72.410965
0.26651728,74.83193
0.25198877,75.35321
0.29095605,74.854836
0.25804076,74.731766
0.14629295,81.66096
0.07290123,75.535
0.08595467,79.65095
0.14859067,78.39569
0.10816846,81.10718
0.18968545,83.95538
0.21158387,91.31429
0.3051075,92.7594
0.36622205,93.44579
0.47709125,97.82286
0.5463558,97.95499
0.6676217,105.805046
0.7589412,100.46052
0.8406555,108.90722
0.95847434,113.16408
0.97885,116.34542
1.1203966,122.75145
1.1427448,124.47066
1.1893499,127.60299
1.3199618,133.15242
1.3590336,134.0306
1.3895705,135.03812
1.4427899,137.0704
1.452717,145.3327
1.3998725,142.01425
1.4246056,146.17558
1.3992792,152.87096
1.5355022,148.3589
1.436852,152.70076
1.4000187,150.50412
1.4512964,150.81258
1.4162242,151.5277
1.3775053,149.14021
1.3522191,152.13794
1.3522865,151.27606
1.3686994,150.57547
1.2996839,152.89256
1.3116474,146.57039
1.1343051,146.9918
1.197945,145.14894
1.1954349,140.62553
1.0677308,141.87598
1.1548557,143.91835
1.0501719,138.5975
0.9605984,132.4477
0.94894177,134.66975
0.98227865,131.66258
0.93204296,130.70068
0.9995316,129.42842
0.92336905,131.43742
0.9773737,119.38467
0.88446826,123.88216
0.9389053,122.04483
0.88662374,121.36923
0.7765106,117.34592
0.81156486,115.86624
0.7964379,111.722176
0.7517973,114.05757
0.7034112,110.37277
0.6917768,111.62049
0.57717174,104.64102
0.49469,102.67555
0.49928424,101.10077
0.45427042,99.29734
0.4241664,96.60842
0.3582313,92.78069
0.30751833,95.30339
0.32599387,91.96728
0.35076094,93.6316
0.45099214,84.56448
0.29051235,88.51112
0.40232083,85.3877
0.36339405,84.06224
0.37435862,79.76323
0.32534623,77.22162
0.31680378,78.99738
0.3172866,79.78868
0.311357,78.18234
0.21185759,75.24761
0.22689888,75.59359
0.076895185,79.58257
0.1849033,75.37514
0.097195685,78.411705
0.08397898,75.29989
0.052132048,75.46091
-0.11207567,81.09333
-0.027972117,79.53548
-0.062678225,81.57401
0.042329855,85.21874
-0.10242927,85.27895
0.036313973,90.261696
0.09587895,92.97963
0.1579129,93.26105
0.20938283,95.897705
0.32460225,95.89799
0.42692587,102.95756
0.5397733,110.963264
0.6547674,110.925835
0.7860029,111.27832
0.8355403,118.14671
0.88866967,118.79674
0.9990811,122.24581
1.0712866,126.89284
1.0808295,128.70526
1.1880288,134.6094
1.3557402,138.20264
1.3431487,136.49355
1.3561876,141.71384
1.3373182,142.26793
1.3143784,146.24777
1.3650382,151.59401
1.2808323,149.37477
1.379767,149.75067
1.4236776,146.5723
1.2823172,152.22137
1.3882334,153.20416
1.3156607,150.54546
1.3130949,150.9023
1.3767861,150.17014
1.2384871,153.58578
1.2799579,148.43575
1.12618,148.9452
1.1882826,150.10577
1.1558564,145.4908
1.142353,145.31963
1.1108358,145.62993
1.0642738,138.69139
1.0350573,135.91292
0.9848126,135.6553
0.9603254,134.04897
0.9870995,130.79407
0.9693251,133.80238
0.91975015,130.41376
0.97198075,125.0105
0.9412457,125.95186
0.91342366,125.6836
0.8637881,120.083885
0.86553,121.9339
0.9381951,117.22066
0.8729896,120.21537
0.8304336,112.80279
0.7633595,111.93774
0.72781974,109.38104
0.68961513,111.275604
0.6459005,106.3723
0.64483565,103.88659
0.5545758,100.396645
0.5397504,98.36991
0.48157957,99.20477
0.46065682,94.01461
0.47818008,89.83989
0.46731964,90.20257
0.4273978,87.611244
0.44600347,91.01464
0.40362197,84.81912
0.41231763,81.84157
0.45296752,85.680504
0.36830878,77.75561
0.3894704,82.218895
0.36155787,78.70747
0.38564873,74.84524
0.34788865,79.25282
0.33371773,77.90434
0.33400637,75.84054
0.29522285,72.99178
0.2137529,71.03493
0.22138628,72.893166
0.11033643,69.90169
0.107817605,77.58188
0.13146895,75.164536
0.11032424,83.358574
0.016792038,76.92989
0.09498153,80.885765
0.09381967,83.495514
0.14141089,91.18051
0.21148014,90.47221
0.3337698,92.357285
0.38799065,91.11966
0.40267974,99.54174
0.5467762,102.365875
0.68256474,101.324524
0.734408,110.96728
0.9372889,113.7866
1.0173723,118.009415
1.0696362,120.20743
1.1423215,128.57233
1.2161502,129.22653
1.3193724,129.33548
1.430777,130.95012
1.4755921,138.98395
1.5106984,137.20253
1.4863034,141.7379
1.5425941,148.38345
1.4693375,144.70471
1.6038944,147.31946
1.5929345,150.46353
1.5956916,154.56032
1.628369,150.12027
1.5475534,150.16154
1.5909054,149.94771
1.5669899,151.00954
1.5840355,151.41277
1.5783631,151.32677
1.5398115,148.16034
1.4965177,149.82735
1.4937093,148.53139
1.4583373,148.22911
1.4144539,147.3599
1.2535604,144.66557
1.3124655,144.5058
1.3342406,142.57411
1.3286037,142.7309
1.2754823,141.26614
1.1490937,136.8243
1.2694371,133.51247
1.1874018,134.51207
1.2555997,131.17825
1.281793,129.04607
1.188639,130.28336
1.2357011,124.473366
1.1304754,124.193695
1.2117851,117.66418
1.2010399,115.71793
1.180933,115.85669
1.0833167,112.268486
1.0310235,114.18305
1.0685507,112.961685
0.9620283,109.25108
0.86963445,109.029045
0.8766446,103.23825
0.9267636,101.318245
0.8310325,102.78707
0.76721084,101.06454
0.7965327,99.09024
0.7730101,96.354416
0.73729765,92.834625
0.72063243,89.599655
0.70880777,90.47564
0.68857527,88.39559
0.7840049,87.04476
0.72248477,84.942604
0.6768448,80.89654
0.71402264,84.718605
0.6781039,77.39988
0.7121953,79.82982
0.6663436,76.33609
0.585497,78.811485
0.6090824,74.55254
0.5334842,74.6287
0.5802381,78.06721
0.5362104,75.16318
0.4842054,75.29418
0.37540656,75.274925
0.36422643,76.16445
0.33783534,77.450485
0.34294993,80.571945
0.4134739,78.28158
0.37059933,84.03705
0.46696705,90.09954
0.49603078,90.968735
0.56521237,97.073044
0.6052135,94.188484
0.73388237,100.18135
0.8226884,100.788155
0.91141593,108.84898
1.1358732,106.99075
1.2004064,110.31913
1.2509542,114.56446
1.3387854,120.20317
1.4982973,119.50359
1.5046327,122.685326
1.6509337,130.77367
1.6502678,134.31392
1.7517022,136.29172
1.7515686,140.83267
1.7444762,139.9185
1.9493737,143.65239
1.8277782,143.65378
1.8982042,144.5218
1.8608398,148.52974
1.7972088,147.53831
1.8663149,148.93192
1.9181888,151.9858
1.8131021,153.1856
1.8964648,154.57756
1.7190322,149.23698
1.8629158,153.73727
1.7942884,151.44286
1.8161193,147.06833
1.723735,149.01018
1.6839457,147.54778
1.7725087,150.25298
1.6777794,146.04631
1.7023356,147.7227
1.540359,144.7268
1.5617363,138.9828
1.5771255,134.58328
1.4798685,138.45084
1.5479369,137.04689
1.515362,129.53873
1.4692732,131.52354
1.4463431,126.87238
1.5249096,127.549995
1.5039412,124.8221
1.4152519,120.52757
1.4466084,118.64575
1.4049548,120.17273
1.3865194,114.83981
1.2857528,108.73916
1.3497994,116.242615
1.3519579,110.02227
1.1513349,111.575035
1.2253175,104.98604
1.1462281,109.14862
1.1456563,105.99915
1.0690527,100.492805
1.0151906,99.8449
0.95692563,95.71772
0.9893681,97.090965
0.86564505,94.822426
0.96604073,91.187
0.9264463,89.023506
0.8928005,85.721886
0.9196652,85.41112
0.8572298,80.80777
0.91858387,82.99545
0.9382524,81.72431
0.89081264,80.46753
0.88229233,76.969376
0.9209492,77.38854
0.76420146,77.70669
0.85008764,79.76001
0.7036781,76.56583
0.74130565,75.55332
0.7055041,75.241196
0.7121342,74.13786
0.5809677,78.38497
0.5769124,75.776085
0.5463599,75.814644
0.54878414,80.433846
0.5656732,79.1136
0.5553996,79.96227
0.6166406,88.23611
0.6210469,84.014336
0.7147735,93.77658
0.7822247,94.61289
0.8806774,93.018585
0.9347956,97.38607
1.1392647,101.27173
1.1372092,109.670364
1.321994,112.530914
1.360411,113.873436
1.3996089,116.937096
1.5165027,121.28099
1.6487911,126.77064
1.724005,128.8287
1.8029282,134.31601
1.8213902,139.9257
1.8700677,133.31458
1.9227455,143.5474
1.8729028,144.15758
1.8850983,147.09048
1.9426477,146.89583
1.9548651,147.00308
1.9462001,150.73386
1.9795748,149.7615
1.9432236,151.00499
1.9210472,151.51662
1.863849,152.29239
1.8983666,151.4844
1.8958656,156.01067
1.9615922,151.62085
1.7687246,150.51978
1.869626,149.40901
1.7391998,148.16667
1.6586925,147.15114
1.666153,144.17435
1.6346037,144.41565
1.641574,146.69287
1.6181921,141.80368
1.570783,140.50533
1.5218154,140.27206
1.566289,134.18097
1.5346004,132.4779
1.4580616,130.41855
1.4350661,129.23161
1.4570693,127.635345
1.4730438,124.87048
1.4094259,119.06795
1.5225414,119.85414
1.4212128,121.74955
1.3278297,117.20171
1.3709724,114.131294
1.2361684,115.36718
1.286577,113.41071
1.252405,108.87987
1.2090652,109.686775
1.0391039,109.530205
1.0753589,103.500404
1.060781,101.16158
0.9842368,98.010056
0.90918326,97.60164
0.93898076,95.60659
0.85891956,91.56878
0.8694099,92.44313
0.8836222,92.111786
0.7431674,88.97466
0.84909004,88.01027
0.80311936,84.10592
0.8603109,83.95192
0.76897585,82.29485
0.84358525,84.31832
0.78255785,75.545746
0.7412441,76.45541
0.7833684,77.5728
0.6888322,78.48356
0.6920013,77.7086
0.6727626,76.6944
0.5704062,75.17511
0.46990636,71.56896
0.48913464,74.37593
0.4600668,74.293625
0.38490027,74.36241
0.3839189,77.446915
0.45015243,81.774155
0.44704822,86.25594
0.44758722,87.051384
0.47959837,87.54666
0.5354246,91.51935
0.5796488,93.59012
0.62434816,94.44176
0.7345963,99.34126
0.86507654,103.14508
0.95789576,106.52692
1.0094734,110.30802
1.1853149,114.257904
1.1867646,114.76398
1.3452966,119.990776
1.3871891,122.5321
1.504504,130.23952
1.409357,128.67923
1.6308347,134.77165
1.5686784,133.79613
1.6332773,140.24524
1.625898,144.36667
1.7698619,142.15526
1.6900094,142.60661
1.80978,147.86053
1.7427022,151.80965
1.7376429,148.93242
1.6839776,152.52791
1.7166667,145.91869
1.6273717,149.40251
1.6003665,153.30469
1.6340587,151.79959
1.6675485,152.64317
1.5782417,151.61967
1.6272355,148.49054
1.5045989,148.22221
1.5055894,148.3721
1.4379057,142.51173
1.3703319,144.06223
1.3673538,138.60771
1.3237083,141.54642
1.2730509,135.34901
1.3543481,134.12077
1.2665449,138.70766
1.2734121,132.76074
1.2138035,126.30538
1.1808065,129.03732
1.2360079,126.4015
1.1866053,129.42328
1.0908707,123.15093
1.1153449,124.98605
1.1404014,120.54758
1.0572726,119.795296
1.0277327,117.88795
1.0491456,113.78316
0.9714385,115.96291
0.9682417,108.96898
0.8528367,107.00637
0.7827049,107.33837
0.7837789,105.44949
0.7838788,100.93126
0.7365976,102.67783
0.5588889,93.57629
0.5702598,96.12893
0.57266104,94.71823
0.52127707,93.87266
0.49035096,88.83543
0.5346591,91.70455
0.5254358,92.310326
0.49629158,88.60278
0.6261466,86.90575
0.526506,83.172615
0.4800809,77.34422
0.46428898,77.32214
0.53509384,78.60547
0.39956933,77.25467
0.4155466,76.68517
0.35524005,75.69217
0.28464323,76.84544
0.2770623,77.40825
0.1896023,74.13046
0.18783349,74.51258
0.13677946,77.8702
0.10047235,78.33737
0.08235009,78.27453
0.024118567,86.163506
0.12255677,82.858025
0.15859537,80.66571
0.14455375,88.347824
0.23459128,90.70785
0.3201518,97.02189
0.41774958,94.45275
0.42435518,98.68786
0.56820613,102.72103
0.665417,106.456566
0.7372451,110.28357
0.81606334,115.046425
0.9890259,116.81716
1.0070196,118.47617
1.1046268,121.05883
1.2418351,130.19536
1.1530719,129.55412
1.2300458,134.5021
1.3401331,135.30838
1.3155195,140.65443
1.3783246,141.1328
1.4205859,147.0081
1.4242007,141.55087
1.4996837,144.5684
1.4656864,150.68462
1.4561149,147.02176
1.4292688,151.00452
1.4598703,153.37318
1.467168,153.0076
1.4122996,152.2112
1.4002364,149.89594
1.3498368,148.27576
1.253741,151.31021
1.2933664,152.25829
1.2695277,150.04842
1.2041824,149.15422
1.1605786,150.03984
1.1443086,143.523
1.1049286,141.73586
1.0626252,142.56557
1.0264684,142.3853
0.9888519,137.88731
0.9965322,134.86191
0.9526129,135.38014
1.0007845,134.57489
0.90939033,129.59601
0.9653346,128.69278
0.8827713,128.0337
0.9333717,125.608086
0.92007,124.97799
0.91233873,119.367874
0.85075104,117.893394
0.8107431,118.582054
0.8250622,114.51155
0.7337791,115.352264
0.636917,112.368385
0.68772423,109.17418
0.6178033,107.59595
0.61561525,103.26633
0.5490172,101.50363
0.4546561,96.344635
0.40461734,103.93523
0.37847206,97.97176
0.37713152,90.06614
0.37852576,93.58198
0.3332969,91.94919
0.29399475,92.0425
0.37332907,87.19564
0.3362615,86.61694
0.334216,83.488464
0.27373612,84.68348
0.3394331,79.32379
0.35211787,80.47225
0.27234286,76.69372
0.25428852,82.22483
0.22509727,78.41927
0.22960353,73.692535
0.18154004,74.28117
0.08916021,72.029465
0.15857546,74.28091
0.10435371,81.485405
0.035960797,75.23866
-0.0058415816,79.02349
-0.0059439084,79.21885
0.04283861,82.17187
-0.049975507,85.854675
-0.039908256,86.14177
0.029711302,86.147194
0.058672886,88.719406
0.06926758,89.17639
0.20771107,94.35963
0.2917027,100.474236
0.31672764,101.90366
0.45846924,102.059715
0.5573253,106.809006
0.7270607,107.24436
0.8243518,112.32444
0.86661136,124.30611
0.9422984,120.81713
1.0420216,123.40172
1.0643641,130.85469
1.1694268,132.95609
1.2422667,132.88431
1.267322,138.78914
1.2630676,143.11299
1.3208265,143.41011
1.326016,143.07518
1.358281,145.07928
1.2938493,147.30695
1.3582942,151.32892
1.3450799,153.71362
1.364781,149.61101
1.3050975,151.41956
1.3607666,150.75026
1.3724153,151.69608
1.3606728,148.47775
1.297768,155.34866
1.2759578,153.44164
1.221353,146.09555
1.1886896,146.072
1.1931981,144.86497
1.1461802,141.19997
1.0828992,144.95343
1.0225649,144.30719
0.98112905,144.09724
1.0611793,137.34155
0.96478003,133.7335
0.95578337,135.4389
0.93651646,129.21382
0.99207884,133.21739
0.9420756,126.12846
1.0064945,126.423615
0.9409783,124.51208
0.95912284,124.09294
0.9204688,121.75454
0.82867765,118.222206
0.81529367,120.62004
0.8554149,116.223694
0.8546608,114.53422
0.75905997,110.30522
0.7164344,107.68733
0.7213944,106.35175
0.68864906,104.94524
0.64609015,103.97418
0.50744396,103.36402
0.5410112,100.38281
0.5234522,93.72401
0.46571305,96.09272
0.47775272,95.03032
0.47082046,96.5947
0.46623427,93.02591
0.39485604,86.71146
0.39143717,90.24118
0.4439092,85.561745
0.39939767,85.184654
0.3786002,80.327545
0.43923286,80.85444
0.38436085,74.90943
0.41249868,76.572296
0.34934247,76.119675
0.39447132,76.1671
0.3121121,76.31371
0.30657205,79.775826
0.16771065,80.82024
0.2136171,70.984146
0.15177411,76.9054
0.05193659,77.94481
0.124047205,78.19436
0.13069959,80.59463
0.12509316,78.992905
0.16500798,80.24527
0.08480989,85.985664
0.239877,88.100586
0.31374004,93.08781
0.31728503,95.28715
0.5084442,93.92134
0.5642799,99.3454
0.6455722,102.70116
0.764251,105.012405
0.8932247,113.04614
0.97919583,115.10953
1.0180349,114.87502
1.2025021,123.93487
1.2561622,121.85418
1.2065388,129.02834
1.3813871,126.5679
1.4079776,134.56668
1.4409983,135.49507
1.5033813,139.50764
1.5355549,142.94847
1.518439,148.0084
1.5702919,147.22478
1.6492897,149.96591
1.6306549,148.32486
1.5997704,153.07552
1.6320677,150.87491
1.6184345,150.99796
1.6049244,153.40773
1.615751,149.99466
1.6245192,151.78923
1.5059994,153.88052
1.5264244,154.72783
1.4892823,151.50186
1.4210398,148.0121
1.4616748,147.68791
1.3814996,147.59843
1.3597683,143.13904
1.3684272,144.99945
1.3618686,139.41673
1.2540221,139.92719
1.2691115,134.46764
1.3006893,136.01617
1.283751,138.24142
1.1840698,131.65384
1.2064788,128.8388
1.2269484,131.63664
1.1761191,130.32043
1.1155802,127.64572
1.209409,124.12292
1.192221,117.37364
1.2141296,117.36054
1.0995985,116.93973
1.1755062,114.26131
1.0861002,112.2629
1.082519,108.93619
0.98493564,109.527596
0.9131849,104.51487
0.9215601,101.58489
0.8470358,102.43521
0.7907367,98.88879
0.7772382,96.129
0.70816064,95.39448
0.761887,96.4236
0.7422809,88.96836
0.75021684,88.31038
0.7158922,91.901375
0.7665403,87.917984
0.7234558,86.43973
0.68529135,83.35136
0.7772481,76.34171
0.67012656,80.0953
0.7296269,80.16722
0.67273223,74.233444
0.64010197,77.89487
0.64105254,75.698425
0.6036554,76.58336
0.55562466,75.26107
0.5554366,74.372536
0.5059599,75.95057
0.34623033,75.42975
0.44344667,77.219826
0.4558838,73.92849
0.43257806,74.30115
0.42071024,79.52761
0.42904198,83.54217
0.42273444,84.66145
0.45427993,87.72439
0.5524215,89.481094
0.66207516,88.11
0.74839777,96.88511
0.82075256,101.58247
0.9428554,105.32099
0.9990188,107.83742
1.1347554,109.24121
1.156803,117.61383
1.2820965,116.8391
1.3941746,119.27208
1.4851644,120.66487
1.5945804,128.31445
1.5687907,133.20448
1.6465623,131.57208
1.6910365,139.65712
1.7948183,139.09595
1.8116142,143.9398
1.8447798,144.49295
1.8627399,147.27121
1.9170083,148.57031
1.9010019,148.14896
1.9470756,149.86787
1.9369717,151.01556
1.8441871,153.60977
1.9031743,153.1696
1.8365785,154.56323
1.8594699,150.80925
1.8149258,150.38046
1.8367659,150.93877
1.8624283,148.80424
1.7483294,151.7262
1.7132347,150.71266
1.6850759,145.29239
1.6719141,144.06804
1.5889081,138.23439
1.558348,138.29056
1.5704888,140.7439
1.5590539,135.24258
1.549419,130.06523
1.4979556,134.19576
1.4398683,130.91212
1.4643455,129.55685
1.5149055,127.88261
1.4097106,124.51565
1.5332344,122.78117
1.5196382,123.950035
1.4502008,118.32737
1.3854213,115.40709
1.3561915,119.12745
1.3747282,115.22789
1.3897909,113.41019
1.2344652,109.01782
1.2107009,107.87794
1.1958944,104.98349
1.1770358,101.8451
1.1049155,100.352646
1.0700071,100.88812
0.9823886,98.61827
0.9876329,93.40872
0.97078943,99.12396
0.90465194,94.74777
0.97462624,93.84214
0.8598736,89.680565
0.959214,87.102165
1.0031173,82.69896
0.9605932,80.27984
0.90627646,84.55444
0.88904893,80.2592
0.9195829,78.03591
0.8931194,77.329025
0.899506,82.3296
0.8409473,72.935715
0.7540584,76.250984
0.757617,75.129234
0.74664676,73.2378
0.7647572,77.09759
0.5960092,75.31039
0.6279842,75.46747
0.5978624,78.83365
0.6547303,75.04355
0.5671695,81.750824
0.58293575,83.36774
0.5524843,84.8882
0.63739234,84.97534
0.62833464,85.02972
0.7840246,92.85923
0.8113214,92.85212
0.8676523,99.504135
0.94009185,98.04756
1.0110902,101.69924
1.2524574,110.83317
1.27951,111.83813
1.4780828,116.01958
1.544536,120.4025
1.5096971,120.28327
1.5971609,124.59356
1.686274,133.03311
1.690253,135.87628
1.781224,137.51176
1.8092785,137.22673
1.9075726,140.29843
1.8258349,144.10048
1.8527364,142.4159
1.985493,144.43335
1.946138,149.3723
1.922128,148.0834
1.9147388,150.78448
1.8814749,149.32649
1.8822058,149.93517
1.9451725,149.8327
1.9556541,148.76706
1.8129008,148.71948
1.8492996,149.77771
1.877504,150.34723
1.7183936,153.85306
1.6556107,146.56468
1.7243612,149.3742
1.6085554,142.75562
1.6902597,147.43433
1.5665543,144.73837
1.5148561,141.68822
1.522224,136.31734
1.5317333,134.17064
1.5320051,135.11897
1.5016271,132.91518
1.3900133,130.39204
1.3881369,128.89809
1.4468284,126.38905
1.4064069,128.6711
1.328715,126.07577
1.3377752,118.46393
1.3188993,118.38549
1.3265574,116.3412
1.2936624,119.40872
1.2203696,115.43585
1.174432,110.02421
1.1492785,108.08109
1.2238345,104.30193
0.99713993,105.17689
1.0012043,105.85793
0.978777,99.05674
0.9275372,97.57887
0.9207267,96.787094
0.8558362,97.4606
0.792053,92.83789
0.8837285,86.126595
0.8736062,87.645355
0.79780585,85.02367
0.78544396,85.94117
0.8176622,83.75021
0.80264837,82.39281
0.76966906,78.14946
0.7504942,80.914024
0.72728926,77.42406
0.770977,71.74055
0.71873003,75.50566
0.70325345,78.12448
0.6023682,71.04072
0.6057802,78.51464
0.54758924,72.53729
0.44723472,76.07509
0.50416577,76.84963
0.37714225,74.742645
0.41342014,80.67141
0.38420156,82.66693
0.33115116,81.90409
0.37375587,87.348114
0.36751616,91.22203
0.46150252,86.7302
0.55934674,90.67312
0.6672514,94.33582
0.6797578,96.44334
0.7373656,98.94941
0.93748736,105.60683
0.9637943,105.52526
1.0653865,111.06904
1.1987079,110.71183
1.1637217,115.81492
1.3731425,124.73455
1.3511201,124.5943
1.4310117,132.43166
1.5271875,129.69508
1.5203931,135.50919
1.5952806,141.55647
1.6780674,139.02441
1.6435487,137.06148
1.7096947,146.36617
1.6693043,146.76062
1.7320592,148.98894
1.6793866,149.87097
1.6906841,147.32008
1.7006375,150.0558
1.6468086,151.89484
1.6829323,150.0184
1.7059963,151.21967
1.5871791,152.90471
1.6119107,151.85068
1.5035787,148.74455
1.4958183,150.57565
1.4423376,147.59982
1.5075209,149.24701
1.395613,148.57808
1.3765689,145.23872
1.3237293,145.25047
1.2948462,141.98318
1.2731655,138.45224
1.2357564,136.17577
1.217181,137.38062
1.247397,129.35391
1.159857,134.8869
1.2243247,131.76393
1.1628284,127.00914
1.0949972,122.66125
1.1227642,125.40752
1.1220495,122.94362
1.1075447,118.15699
1.0737277,118.79039
0.94921315,115.66596
1.0195682,118.1989
0.93695426,113.701675
0.8681834,104.786674
0.765555,105.19554
0.7300745,106.606026
0.7510557,100.66594
0.6926814,104.08507
0.6193967,95.95974
0.62278825,98.158264
0.5820644,93.78939
0.5936002,94.226715
0.60200113,93.654175
0.48840675,89.97469
0.5111288,85.3419
0.48202446,87.91864
0.5760014,83.871346
0.4773124,79.58724
0.5212441,81.940155
0.396482,78.42819
0.4826921,79.85965
0.41253045,77.1939
0.50359416,77.870445
0.4409162,75.80959
0.30597308,77.376976
0.23671357,75.83588
0.28570396,75.84632
0.26558825,74.929016
0.12513135,76.768715
0.08726477,75.853615
0.05285297,77.90277
0.048303913,77.34902
0.09065256,78.610825
0.057316016,82.13549
0.12788795,81.900764
0.20449969,92.80554
0.20873441,91.7212
0.35226104,95.645775
0.35841113,96.85469
0.4068606,97.8538
0.51165575,107.0862
0.69192284,103.67324
0.7931167,108.65284
0.811282,109.4776
0.79185915,119.606705
1.0174093,118.44134
1.1368191,126.25922
1.1862913,125.75441
1.1814909,129.54631
1.3171916,136.4749
1.3194451,137.46347
1.3801278,139.1203
1.4012722,139.18031
1.3651353,148.44919
1.3873392,146.90768
1.4374096,148.74991
1.4239423,147.77632
1.3911879,151.02191
1.3931777,150.99602
1.4587551,150.03525
1.40113,151.49042
1.3562863,152.20828
1.3361694,152.36127
1.3515536,155.34758
1.3298986,151.53462
1.1353905,152.4158
1.221732,148.65417
1.1724072,148.59554
1.1851225,145.0205
1.1491895,143.8805
1.2050352,147.20158
1.0388287,140.5517
1.0622462,141.83151
1.0348971,135.5577
0.93145937,133.24567
0.9423752,137.0994
1.0080092,133.55022
0.9534522,127.37845
0.9958021,128.69406
0.95140886,125.041
0.8899227,123.96279
0.84204656,122.23819
0.8736697,121.300095
0.79756725,115.277115
0.8084531,115.299644
0.6684013,115.88483
0.72860414,110.073555
0.7174922,108.27647
0.6083786,109.78893
0.58389944,108.61025
0.5541911,105.0985
0.5240631,105.79731
0.41812232,97.21393
0.4356,96.003075
0.3776901,98.5429
0.27438956,94.08085
0.3848943,96.307304
0.3705931,86.76143
0.37790462,84.901535
0.35866076,91.826065
0.33085915,88.742805
0.33657083,84.97915
0.37788856,78.06063
0.34699792,82.36006
0.29869342,77.22175
0.23010388,81.85341
0.2504227,70.8379
0.23344561,77.89205
0.21027145,74.01397
0.16365147,76.13561
0.12533395,76.22631
0.085067965,71.56354
0.035148103,71.49439
-0.0034200612,77.82951
-0.025540277,78.34616
-0.040591173,78.97487
0.013478763,81.433395
-0.057584077,86.949615
-0.013448396,84.341515
0.02901922,91.0567
0.07388727,89.37124
0.1303171,93.33598
0.1487729,94.1443
0.3120002,98.42463
0.34331584,105.07869
0.48878014,106.35381
0.68303984,113.20429
0.7101728,114.0162
0.87782013,116.84864
0.8649858,118.77653
1.0233276,126.03635
1.0371372,128.22198
1.1335938,130.9664
1.2038862,136.31143
1.2749062,133.50043
1.2830402,140.11943
1.3367666,143.44057
1.3758262,142.63425
1.3654739,146.46367
1.3891978,148.81586
1.359743,144.9894
1.284872,148.91284
1.4151763,150.89764
1.3052287,150.01387
1.361078,150.56908
1.3932954,152.3124
1.3759714,153.92722
1.338138,153.67175
1.3714182,150.14864
1.2554893,151.11343
1.2358552,146.37827
1.1760813,144.13135
1.2309246,150.99478
1.1305422,144.38074
1.0964268,143.08598
1.0935055,145.5085
1.0871704,135.2184
1.0216678,137.38472
0.93832576,137.93736
0.99482596,130.1236
0.94098437,128.64139
1.0034306,131.57527
0.95461285,128.24278
0.90405595,129.09921
0.95184374,125.28047
0.97220653,119.71722
0.88853025,119.14167
0.9067507,114.4194
0.867189,121.109825
0.81773657,113.06645
0.8800489,113.811295
0.75344396,108.407845
0.7616248,107.32189
0.7349906,106.06955
0.5894164,103.064926
0.63094145,103.0056
0.59371775,104.20493
0.47548002,97.97052
0.5132007,94.01435
0.44078985,95.44257
0.40433404,93.962166
0.51711005,88.59128
0.40592778,89.42044
0.49637794,88.78589
0.45232493,87.70325
0.48977137,81.98002
0.4916669,83.131905
0.42291343,79.62325
0.43794215,76.26286
0.40819037,78.073395
0.42391667,76.77008
0.3439928,74.61603
0.2501932,77.11728
0.2852209,74.73231
0.21922204,73.924995
0.28233382,73.881935
0.14077145,74.59886
0.0977028,76.55905
0.1241496,77.005615
0.12255279,79.01058
0.090438135,83.30974
0.122947864,79.70127
0.23014836,86.36714
0.24580728,86.75832
0.15075192,89.5709
0.2673329,93.32121
0.4830891,94.613045
0.50519687,98.1345
0.6845033,98.174644
0.7295719,103.87364
0.7768825,105.01608
0.8798095,113.550285
0.9781495,113.03718
1.0859143,121.85341
1.1653116,123.123146
1.3324649,123.37747
1.3942537,130.41571
1.4302875,132.51506
1.4686375,136.80669
1.4942923,136.34438
1.5346755,140.71637
1.6034696,147.65283
1.5890927,145.2352
1.5805297,145.45267
1.6599686,145.85806
1.6473835,154.68518
1.6069556,146.25418
1.6784267,149.69339
1.6244692,154.08003
1.657262,154.46631
1.6174554,148.72646
1.576892,152.23595
1.5123754,147.01624
1.4799656,149.47043
1.460875,146.23834
1.4663218,149.36424
1.4708903,150.02222
1.3977242,145.33801
1.3982769,145.24454
1.2930841,143.50623
1.339048,138.82141
1.33479,137.68228
1.3057228,133.96635
1.3187932,136.03471
1.2921116,131.76288
1.248511,130.64749
1.1848862,129.50153
1.2051343,124.52248
1.2412483,125.6658
1.2719287,122.302444
1.2305019,120.10364
1.166576,119.641205
1.214355,119.33891
1.0884285,116.49384
1.1605879,115.28593
1.0636935,110.60281
1.0009713,108.83537
1.0123302,105.44503
0.94355005,104.76203
0.9631082,97.91696
0.92302716,103.28052
0.88098073,100.31816
0.79409254,96.952156
0.7805159,91.64986
0.7763869,94.99866
0.7268536,93.77792
0.6617208,88.34373
0.71909416,85.842896
0.73062825,83.9268
0.71947813,82.83438
0.8057942,78.82333
0.80916786,84.51465
0.79248315,79.25104
0.72391236,78.65246
0.7342126,76.336044
0.7368554,78.79998
0.699154,73.90308
0.6084617,73.2445
0.4929333,76.05207
0.5955973,76.170715
0.5828885,76.56071
0.51408637,74.94029
0.4741809,77.39655
0.49305093,79.47697
0.3721269,78.92919
0.48643512,85.97738
0.5111312,81.58525
0.57656664,85.22075
0.5272823,87.91909
0.68304497,92.4977
0.63982856,93.44326
0.76573664,99.257805
0.82913107,99.79138
0.92276174,105.55452
1.0701602,106.655914
1.2542874,111.56875
1.3178287,113.92687
1.4078515,120.776474
1.4611033,123.81478
1.5587463,122.959045
1.6421251,125.99339
1.6585771,130.40498
1.7946862,136.42833
1.7823949,135.83676
1.8103172,139.19865
1.8024681,140.6997
1.8928801,144.3473
1.9734391,148.78258
1.9296722,149.27498
1.87333,152.66417
1.8970339,151.47855
2.0046425,154.37067
1.9164188,151.363
1.8516332,154.3396
1.8925608,153.9857
1.7212843,150.21707
1.8900737,145.44484
1.8524101,143.81961
1.7980646,148.7779
1.7736765,149.93091
1.6938478,145.85452
1.6558768,144.42796
1.6137108,139.67749
1.6531715,141.54155
1.5412942,140.09834
1.5957946,142.61995
1.5531511,134.67107
1.4874861,135.97168
1.462567,131.77753
1.5015409,130.5898
1.5123305,131.01686
1.4759237,128.63687
1.4868017,123.87621
1.5111504,124.83549
1.3463843,121.93464
1.4731089,118.32753
1.3919533,119.47148
1.3869922,111.731346
1.3471621,109.78678
1.244908,111.458855
1.1789398,107.0176
1.2034078,109.1303
1.199463,106.28858
1.1163534,102.84015
1.0705341,104.318726
1.0761212,102.849304
0.9621587,101.89189
0.98497117,95.041405
0.8738811,93.78607
0.8852119,92.868065
0.9222582,94.002846
0.877234,86.62009
0.94111174,84.637405
0.87486213,84.71103
0.92982596,85.093254
0.92707497,81.90457
0.922721,79.20623
0.85693204,78.4594
0.8670822,73.55077
0.81247234,75.89606
0.8659742,79.79566
0.770095,77.797455
0.6366748,79.438576
0.78569615,71.48348
0.5918554,72.40566
0.64413065,76.80687
0.5086933,77.99943
0.5290764,76.12106
0.5189284,77.59355
0.5780372,82.670715
0.49281746,80.07601
0.5989735,89.10866
0.6248191,90.48075
0.6579816,90.35611
0.76101255,90.39596
0.8132371,95.02041
0.8753615,98.72542
1.1060067,101.377045
1.1169876,109.32581
1.2976198,113.43047
1.3759458,112.35778
1.4413242,117.98003
1.6038508,122.36844
1.5914309,122.00429
1.6622924,128.56796
1.7567807,129.44429
1.7596029,137.63234
1.8290012,138.8189
1.9102134,138.7246
1.8473448,142.59084
1.8967196,142.56187
1.9181708,143.81078
1.9586337,148.55598
1.9293168,150.33801
1.9480616,149.25922
1.9439315,151.93668
1.9547433,151.37914
1.936298,147.4113
1.8630558,150.66147
1.9423455,154.08046
1.8244864,153.14449
1.7987785,148.75282
1.8349841,154.43889
1.760248,150.38402
1.7069532,150.64459
1.6483147,148.23389
1.6914864,145.25092
1.6044108,141.14175
1.5910338,140.87483
1.4883705,138.44907
1.4959693,138.78784
1.5363159,134.59787
1.4559604,133.27768
1.349357,135.01826
1.522228,131.1781
1.431042,125.150314
1.4399823,129.97026
1.3811637,122.970436
1.3967785,123.426956
1.3994683,117.559456
1.3208008,117.88639
1.2508271,114.346245
1.2866082,116.1494
1.2141296,113.46739
1.14523,106.80626
1.1651555,112.66181
1.1246859,109.23002
1.0167791,103.16611
1.0061064,99.539795
0.905609,97.42543
0.85360116,95.99953
0.89768505,95.418655
0.8540258,96.96002
0.81038994,92.52949
0.7452845,93.51977
0.7510703,87.42496
0.78160894,86.02274
0.83530694,82.570816
0.76988524,81.03165
0.7432457,85.33372
0.7639367,82.34137
0.7410464,76.24123
0.7194593,74.09809
0.76647824,77.79195
0.65173423,76.28165
0.6970616,75.48711
0.5929341,74.32774
0.51211977,72.89926
0.46228775,78.15816
0.4479603,74.26299
0.46048793,75.978195
0.4584053,77.690926
0.3958915,78.594406
0.39489478,83.878914
0.36142004,80.75539
0.41489992,82.483635
0.37312496,87.3189
0.44699994,91.552376
0.5857262,86.10933
0.6605433,92.15372
0.6583367,95.9013
0.7917855,102.03462
0.8870397,104.88
0.9342895,108.20859
1.142973,112.019356
1.214176,114.74733
1.252439,117.12289
1.4040312,123.6085
1.4600608,126.311325
1.539745,130.46602
1.5498402,130.3327
1.6071389,137.15854
1.6569023,136.33286
1.6173204,141.05836
1.739676,142.24838
1.6758037,144.92632
1.705692,144.60442
1.6773295,149.7142
1.7671857,148.2121
1.6061357,149.64183
1.674676,150.59561
1.6321468,153.16083
1.6241945,148.43552
1.6952574,150.34756
1.5433143,149.51323
1.4890227,152.28217
1.5874386,152.88391
1.4917022,147.62056
1.409221,151.41933
1.4287738,144.12662
1.3502319,145.0845
1.2717695,142.09871
1.2634695,143.59425
1.2686408,141.3134
1.178605,136.842
1.1424737,135.01358
1.164184,134.25441
1.2357931,136.42651
1.1704308,129.163
1.1176187,133.7581
1.115166,125.99619
1.0362654,123.703735
1.0979859,122.00445
1.1502804,119.310585
1.044298,119.29689
1.014555,116.76155
1.0057403,116.174164
0.8905298,118.03709
0.9188131,114.39404
0.8675381,110.89477
0.7405151,105.22105
0.8547156,104.27455
0.69635844,102.69023
0.686332,100.26258
0.64509267,99.67917
0.56038547,97.77339
0.57914567,96.36573
0.52321106,91.72182
0.49457088,93.03362
0.5486658,89.799545
0.52963156,86.55058
0.44801977,89.15171
0.5473943,83.51704
0.50479674,85.414635
0.44649613,82.81452
0.5087451,77.98576
0.47914538,81.23028
0.448875,77.77768
0.37395775,78.02329
0.40440175,79.789
0.2538778,74.45707
0.23474304,75.447044
0.21084319,75.84963
0.10895899,72.835365
0.15161416,78.77971
0.093578726,80.98339
0.03925506,74.74155
0.063549645,82.96757
0.070154116,80.56131
0.12018079,86.50198
0.03417548,86.1802
0.2115754,90.73026
0.19818377,87.16974
0.24876942,93.15696
0.45681003,99.10095
0.507505,101.92301
0.58452547,104.89216
0.6877919,105.64363
0.80330664,112.129616
0.8467282,117.467285
1.0070283,117.232864
1.0723772,123.758545
1.138211,124.19867
1.2067432,128.2579
1.256089,132.8132
1.2699323,135.1301
1.3618481,138.36752
1.3130505,140.17467
1.3782018,140.18494
1.3559762,145.41634
1.4634925,151.20036
1.3721961,149.25952
1.368626,147.31865
1.3742644,146.994
1.4007268,152.14276
1.4076893,151.65309
1.2918855,152.96931
1.3819436,151.10477
1.3738126,152.09917
1.32851,152.70409
1.2329673,148.63573
1.266527,147.71307
1.1964508,148.36398
1.2089027,144.93796
1.1002963,146.24884
1.1780528,142.43451
1.1185809,137.79054
1.0162542,141.46375
1.0175319,141.5998
0.9740619,137.54236
0.9126288,135.84724
0.97401386,134.70006
0.897184,129.22107
1.0081823,128.87286
0.9765345,126.25311
0.88788116,121.687294
0.8541426,123.57371
0.89840055,121.30157
0.82868594,120.16712
0.8359264,115.42298
0.7642592,117.354866
0.6950448,112.054985
0.67937905,113.579025
0.6118481,110.97049
0.6094099,108.22826
0.57817745,105.498695
0.5158173,105.012
0.47387928,99.485176
0.48416233,103.14583
0.37006402,95.37328
0.3835741,95.64532
0.38822898,89.530266
0.34431627,88.56944
0.30584735,90.56908
0.35811785,85.37351
0.31318164,85.68537
0.29469728,85.759315
0.36855966,79.86828
0.3281853,81.61757
0.31035572,79.261925
0.3049638,81.62093
0.21347561,78.928085
0.2981666,75.948586
0.18330938,75.22901
0.17949952,73.836205
0.1820688,71.42803
0.10756882,75.89209
-0.005411887,78.9879
0.13414077,75.98818
-0.004169034,79.83019
-0.056811366,78.05762
-0.023862794,81.15343
-0.09321432,84.08137
-0.029408786,79.18771
0.010444046,88.38955
0.08408334,86.0939
0.121424936,90.14771
0.14678685,94.4685
0.3352869,93.167816
0.38849092,100.8484
0.4236239,102.73783
0.6507277,108.1004
0.657112,110.56916
0.74739516,113.11955
0.8424434,114.83287
1.0124991,120.55596
1.1064804,126.42718
1.127785,127.41504
1.1626984,130.78902
1.2610949,133.16423
1.3069597,137.75932
1.24435,137.61578
1.2539215,142.45135
1.3917568,145.90761
1.3653524,146.14719
1.3495975,148.8668
1.3334169,149.28004
1.3313512,148.74518
1.3888383,152.92416
1.3864825,151.87334
1.3613466,153.91641
1.3579713,151.69337
1.342112,153.92897
1.3158393,148.4407
1.2456534,145.57423
1.2447829,149.73848
1.2154304,148.78235
1.1984619,151.25417
1.2037121,142.83841
1.1592515,143.40848
1.0819427,142.37656
1.0335493,141.26692
1.0696808,139.74693
1.0997884,136.8994
1.04425,133.10379
1.0207701,132.29164
0.97557503,132.10068
0.93975985,130.55597
1.0217965,129.18399
0.9597675,129.23586
0.976811,128.1409
1.026498,119.966995
0.9451252,119.805695
0.9752038,119.35944
0.8454843,112.60403
0.8524183,113.07808
0.8239185,109.80425
0.6975009,111.56081
0.7746357,107.56542
0.67599374,105.84822
0.6478572,107.090775
0.6351806,103.72042
0.5858272,100.57219
0.52137834,98.50205
0.49315277,93.99678
0.4981655,94.428986
0.40416607,90.74606
0.46483654,92.824875
0.54095745,87.854836
0.48572755,87.3495
0.4536104,88.38015
0.39703822,84.01494
0.43130323,78.16088
0.5445769,77.88203
0.49746203,81.416275
0.4116363,77.69989
0.37511343,76.196556
0.39814886,79.00407
0.32484618,76.439514
0.34771758,75.16772
0.28110477,76.35771
0.18563965,78.1332
0.22978118,77.112915
0.17619959,77.89008
0.19819126,78.60191
0.15848362,83.874664
0.17302448,76.092476
0.18937768,81.48988
0.27541783,84.335724
0.2305764,84.34517
0.3005505,89.135155
0.30739397,91.50858
0.4918077,96.12549
0.5874738,96.85031
0.6903118,103.22281
0.75588423,103.098404
0.91511345,106.38703
0.94606626,112.46671
1.076365,114.20297
1.1546971,123.81503
1.2394845,122.87526
1.2977412,127.52021
1.3450886,131.9003
1.5334642,135.05891
1.5544398,137.61246
1.5190827,142.14856
1.5362232,141.89255
1.6549665,146.11359
1.6244245,141.06502
1.5859699,147.1107
1.6554116,149.46078
1.63007,145.40855
1.6088473,148.39282
1.6168938,150.992
1.6633015,152.211
1.6716061,148.43413
1.6139742,150.62192
1.6031895,150.79178
1.5372661,151.07657
1.4802217,148.11674
1.442565,149.95724
1.5305512,145.69348
1.4195497,144.13138
1.4091812,143.26968
1.3753278,138.80511
1.3610512,137.75548
1.3721741,139.54655
1.3068959,137.807
1.360187,137.09615
1.3382192,132.57391
1.2799553,133.4843
1.2127438,128.89055
1.2415773,125.447426
1.2729514,123.895615
1.3114196,123.006836
1.2198316,119.917114
1.2422796,119.04508
1.1576036,120.21559
1.1729696,116.198494
1.2208608,118.72553
1.1713606,113.2378
1.0684041,110.78796
1.057537,112.5428
1.0047963,107.025276
0.90731066,105.95038
0.89275426,103.37798
