ppg,abp
1.0466564,77.475746
1.166845,79.89938
1.1443936,79.28897
1.4630382,81.61227
1.4357343,85.71866
1.5409569,90.67625
1.5684468,92.30219
1.5836817,95.64744
1.6308012,97.40744
1.6994418,96.087234
1.6350988,100.05058
1.6643997,103.53507
1.6345459,106.38461
1.8074875,103.18458
1.6835124,104.664024
1.5924492,105.2485
1.769369,103.48768
1.7444253,104.105705
1.7124201,104.862236
1.642497,102.66789
1.5979354,102.3392
1.680758,104.21029
1.6445637,102.7264
1.4198803,102.94061
1.5962663,98.73354
1.3797531,97.00624
1.5257224,93.775055
1.4687934,96.016815
1.3887622,92.71645
1.2676781,90.0599
1.2299664,95.28913
1.430592,86.78463
1.3503473,87.8759
1.2519301,85.423164
1.2819782,85.28579
1.3094932,85.85465
1.2154975,82.105705
1.1813909,78.70999
1.1505203,81.798294
1.2203566,79.520996
1.1410221,72.32232
1.2062092,75.662445
1.119242,73.62105
1.0104892,70.74431
0.9250266,69.38152
1.0241295,67.79872
0.9171437,65.79899
0.834859,64.76956
0.87983245,61.96539
0.72691476,65.14263
0.7458563,59.672173
0.80448806,62.492382
0.8557172,63.44907
0.83786136,59.58063
0.81736165,52.383244
0.8330833,54.074406
0.8164409,54.980957
0.82589215,50.80768
0.62445116,49.66912
0.8485282,51.09342
0.73668694,52.325428
0.7230297,49.136665
0.6322983,51.15619
0.5667456,51.57473
0.54885215,48.47259
0.5274645,51.294178
0.5146133,48.363205
0.45796835,51.187145
0.45712277,55.53389
0.45798844,61.414547
0.5364869,56.3977
0.55943024,59.60167
0.7273139,62.518444
0.72745055,65.773384
0.75919086,63.44144
0.8267356,70.04264
1.0656589,70.67525
1.1142099,71.5619
1.1751512,76.9026
1.3698064,74.370674
1.3392756,77.45562
1.5225033,83.480576
1.5740294,83.90262
1.6957017,84.13754
1.726443,89.796936
1.745413,94.03898
1.8543476,93.92362
1.8905722,97.331955
1.953361,98.34172
1.9449496,100.29157
1.9204078,100.10213
1.8384537,102.614174
2.0018551,101.82181
1.9800173,106.25618
1.9761277,103.85205
1.8443439,103.80996
1.9540509,101.512955
1.8843046,99.554085
1.8474679,103.231125
1.8077658,105.157005
1.8341019,101.89858
1.7316049,99.57963
1.6628158,100.9455
1.6140941,94.796906
1.5572761,97.00055
1.539325,97.697365
1.6639427,93.589554
1.6090499,96.5783
1.4569787,94.182465
1.5049393,90.18776
1.5749311,91.61625
1.479763,90.099976
1.4131246,88.1739
1.4910569,82.272385
1.4718782,87.59064
1.4061742,85.47582
1.3915226,85.33104
1.4073507,76.5324
1.3043712,77.3023
1.2325644,76.478294
1.2106522,74.931206
1.3338946,76.32982
1.1910907,71.98347
1.1097142,72.65784
1.1314071,67.03192
1.0394694,67.495224
0.95897853,67.71142
0.9857512,65.45976
0.9519673,63.587906
0.93879014,63.00247
0.91799146,60.84564
0.8899249,59.8873
0.95500445,56.205467
0.89906394,54.316425
0.9928162,57.439014
0.8960183,51.305866
0.8690917,48.841206
0.86877936,51.993366
0.7947654,52.593777
0.83737296,51.55423
0.7985541,49.576626
0.7304759,50.547085
0.5530975,50.993866
0.6211332,51.14605
0.46236816,53.851128
0.5470028,49.893353
0.5666583,50.087734
0.5381728,54.630146
0.5127479,54.682053
0.55856013,56.91517
0.59119904,59.54521
0.65761894,61.039284
0.8657272,60.09401
0.8379213,65.33531
0.92233664,66.41521
1.0479221,70.24409
0.99959505,75.23421
1.284162,74.480606
1.3115174,74.32353
1.4493617,81.463684
1.4678825,82.57456
1.6394275,83.305885
1.5588247,90.38211
1.8661956,88.30517
1.7716167,91.238014
1.7794839,95.37202
1.836407,98.78078
1.9805671,99.71173
1.8998878,97.338974
1.9059291,104.581726
1.8417448,102.83845
1.8245907,102.39656
1.9163649,106.35949
1.8398057,102.3674
1.8594165,102.51439
1.9507959,101.607735
1.840188,101.42889
1.8349904,104.447945
1.7815783,106.391464
1.7140607,102.03303
1.5961457,102.786705
1.675323,98.30349
1.6265972,101.00915
1.5563517,97.65664
1.5592757,95.11781
1.5415604,94.59419
1.5253985,95.6236
1.4972941,92.45274
1.4862467,91.96087
1.4462746,89.97148
1.408597,89.29806
1.4209427,84.42457
1.348437,87.47145
1.4021508,83.61705
1.3293514,83.17065
1.3025461,79.49172
1.2268113,80.24094
1.2610266,77.73533
1.1819564,74.84283
1.1066682,75.23941
1.02138,72.75412
1.1243206,69.300865
0.95917326,70.40632
0.9567328,67.78245
0.9092247,66.493774
0.7941129,66.87954
0.8281152,66.96904
0.8159432,62.59671
0.7412762,62.572304
0.69663674,60.210697
0.81128925,57.0677
0.79021484,58.8394
0.73873866,55.245304
0.73504645,52.406532
0.70740205,54.822296
0.7435908,52.97862
0.8241151,52.81613
0.7406949,50.725883
0.6443234,52.684486
0.65185416,48.973316
0.49744812,48.350273
0.50696427,51.647755
0.47740677,52.22002
0.33006105,50.589172
0.3346423,50.849297
0.35997266,52.437153
0.2749973,54.865578
0.37556946,54.120804
0.40853998,55.126343
0.36510482,56.39835
0.4303777,59.8629
0.5559586,63.213806
0.62535393,62.800404
0.7169633,67.842064
0.8752623,70.57912
0.8549858,70.386406
0.9766789,73.903
1.2131705,78.57936
1.2269472,77.73354
1.378545,80.86505
1.3462089,85.306816
1.3960571,86.72542
1.4773831,89.02209
1.4818783,95.93667
1.6780245,94.411255
1.7001,97.79147
1.5683578,97.7534
1.7642202,100.14785
1.6871588,99.980865
1.5954535,99.6945
1.6329727,107.87342
1.649467,103.3067
1.5992554,103.671555
1.7087847,105.09586
1.616394,102.99859
1.5014361,100.166466
1.5499303,103.97763
1.5048357,100.34105
1.4797039,101.405655
1.4299358,98.91506
1.4099774,100.24244
1.3208044,96.92519
1.3804224,95.636055
1.4103177,97.515465
1.2039891,94.13052
1.2513506,93.862564
1.1558048,92.34615
1.2355014,93.11779
1.1831789,88.61317
1.0677962,89.508194
1.0454831,87.0612
0.95244366,80.31703
1.1310036,86.673256
1.0215131,81.50366
1.0508077,82.94047
0.97608227,80.520485
0.9825931,77.5773
0.91000676,75.93762
0.8582036,76.585266
0.82087606,72.27985
0.77574885,73.46504
0.6598718,70.90833
0.6772955,62.535343
0.6531086,70.97706
0.6063476,68.34809
0.4741336,65.83179
0.58286315,61.374638
0.51017976,59.20175
0.47929084,60.665348
0.56646425,61.78099
0.40974793,57.200386
0.40378284,54.42729
0.57777864,53.679264
0.46996057,55.205738
0.28819826,50.805233
0.36444238,50.32597
0.32878795,50.04003
0.3273366,51.199932
0.3387009,52.50509
0.22246322,51.95972
0.24190408,51.28683
0.21585952,50.304054
0.0383782,52.067272
0.047165193,46.5261
0.015825331,49.655823
-0.07147984,59.971886
0.047719777,53.775326
0.01100382,58.27539
0.13353258,57.30692
0.17085306,61.06551
0.25391448,60.050835
0.46766624,65.688255
0.3723905,65.907646
0.59481335,66.42064
0.6123707,72.38956
0.7498124,76.238914
0.89208096,76.976494
0.885391,81.8771
1.0749528,83.360596
1.1349747,84.40984
1.1868982,88.056366
1.2398934,90.52975
1.2965854,90.696495
1.4358085,96.92002
1.3321806,99.67643
1.3621966,96.40793
1.4137414,99.881004
1.4680753,101.01728
1.3973498,101.839325
1.4829179,103.71211
1.3455641,107.46532
1.4815606,103.39514
1.3764083,104.242546
1.3512118,102.79525
1.4298077,102.878746
1.2277457,104.51489
1.3095565,104.257576
1.2712556,99.06788
1.1981481,102.74864
1.1536498,101.54786
1.0838785,97.48819
1.1390328,100.2426
1.0534695,95.65604
0.95713526,94.58492
1.0482987,96.07372
0.9886749,92.76711
0.9951395,91.86207
0.98353845,89.67907
0.9069418,84.41682
0.8748487,82.833824
0.90639776,84.92359
0.84432685,83.372025
0.8994716,82.1241
0.78919804,79.00103
0.78681904,79.41268
0.8004386,75.44228
0.70798856,77.598854
0.6760031,75.86954
0.7314718,74.2752
0.6113025,72.8303
0.5354812,72.2468
0.50174725,68.94365
0.4583795,69.12229
0.2953161,64.09698
0.38354033,66.5381
0.41254833,63.63454
0.40471107,63.468143
0.3050625,60.39821
0.3056203,55.57935
0.33753717,62.449783
0.28736722,56.482056
0.30457014,55.360695
0.30467895,53.022713
0.3665625,53.065056
0.20711184,55.647697
0.24548355,51.024357
0.24845603,51.888336
0.07667092,46.773907
0.14115113,51.279434
0.1343956,53.319443
0.099045284,47.86135
0.057519656,50.5243
-0.025099505,51.46752
-0.054960527,54.534138
-0.04763655,54.689075
-0.03424441,53.916508
-0.07663016,56.780575
-0.022597268,61.16451
0.13925555,62.137154
0.1251742,63.481285
0.25507542,63.465935
0.42717668,65.97974
0.5040836,71.33899
0.57958275,72.74181
0.6411625,81.39263
0.81396466,74.4721
0.83144623,75.60559
0.9057504,82.38823
1.0365939,84.82558
1.1812577,90.577324
1.18984,90.25141
1.256327,92.39441
1.2750798,94.07299
1.3955938,96.72464
1.4108481,97.06893
1.4391043,98.866104
1.3678218,100.81614
1.4708284,99.76294
1.3445928,104.26907
1.4738235,102.55696
1.4262512,104.12365
1.3847986,104.412
1.372411,104.11936
1.4424628,103.99762
1.2851334,101.34068
1.2962643,103.129944
1.2524141,100.852036
1.2065969,97.54118
1.2339765,96.92714
1.1933458,95.842064
1.0412326,101.528885
1.0538652,95.234825
1.0608459,96.767586
0.9715545,91.89238
1.0058239,91.23497
0.99465114,89.76569
0.97106963,85.47977
0.8985638,88.31051
1.0083348,87.94174
1.0331684,86.48288
0.8965225,84.36666
0.88129306,82.70793
0.92377573,79.834
0.9155655,78.514015
0.8384514,81.67176
0.8649057,77.68679
0.8041287,78.115364
0.76938075,74.91525
0.6604744,74.38434
0.5988746,73.04893
0.6416945,65.449
0.45906156,65.85121
0.41716948,62.09883
0.3577984,65.385544
0.4920932,64.2438
0.42223552,62.40591
0.40537488,64.39413
0.4797236,58.831203
0.32250002,57.37897
0.43311623,59.199356
0.4008011,54.662445
0.47036263,54.96353
0.46995768,53.266422
0.3293296,50.72429
0.34355325,52.240395
0.34524357,48.946453
0.22495858,50.435402
0.25091285,51.794292
0.22788215,52.77932
0.21098104,52.277702
0.19661845,50.441044
0.19024827,51.89898
0.16034944,51.85213
0.09485463,55.9684
0.08872301,58.78739
0.108926095,59.0434
0.15889516,59.312847
0.29867724,61.4637
0.3344231,61.394386
0.39510313,65.572975
0.52584183,70.21786
0.6621608,74.719185
0.7153983,70.22185
0.84797364,77.083755
0.96049017,77.04269
1.0354509,77.51093
1.1445633,84.06931
1.3038783,87.73518
1.2929235,91.20937
1.4113094,87.171936
1.5023947,95.00571
1.5627021,93.75185
1.6080319,96.23801
1.5894943,102.89
1.6731062,100.38178
1.6069044,100.669556
1.6764361,103.00482
1.5553696,105.05694
1.5413085,100.452354
1.5805122,106.14566
1.6942431,106.85629
1.570596,101.11314
1.5342281,106.047585
1.5263892,101.92001
1.4869325,103.05171
1.4459795,103.04737
1.5508823,105.271935
1.4768884,101.520515
1.3499558,96.4938
1.3813949,98.86546
1.3370343,95.915474
1.2374096,93.69097
1.2777125,90.16855
1.2603512,91.80472
1.1462882,92.782486
1.1602613,89.07809
1.138003,90.22519
1.2411517,82.395164
1.2747529,86.32728
1.2423052,80.81418
1.2782431,81.20045
1.1194869,80.424614
1.1423221,81.648865
1.0989698,71.65874
1.0508051,76.31851
1.1199583,73.94169
0.96819717,74.06045
0.9267411,72.554016
0.8360421,69.108826
0.76383317,67.290306
0.70074105,67.03088
0.8023442,65.60623
0.6985192,64.52239
0.7685005,62.7063
0.6351416,62.054176
0.64353067,58.718708
0.6867492,61.25947
0.78337646,56.90845
0.6746618,56.439842
0.5573168,54.70163
0.72467273,57.453392
0.63292015,52.5321
0.7756809,53.380283
0.61482674,49.59283
0.5904042,49.979782
0.58648795,50.97415
0.5717778,50.14134
0.5035705,47.08994
0.5055404,49.240837
0.43379268,52.451164
0.37452772,51.61409
0.45571694,52.454224
0.36028212,54.05851
0.36974204,57.08886
0.3311472,55.545948
0.4837821,56.78382
0.5320289,58.59162
0.7120142,62.156506
0.7580192,63.73195
0.80677426,64.97652
0.8351401,68.17587
1.0566003,73.534225
1.1173036,73.874596
1.2755607,78.36953
1.352248,81.54469
1.4534289,83.03617
1.5588336,87.333275
1.6448188,89.049
1.7586793,90.79096
1.7626065,92.66351
1.7904001,96.583626
1.9040282,99.20588
1.8414168,98.25677
1.8146385,103.73599
1.8595198,100.04892
1.8591805,104.70944
1.9437566,103.04038
1.8823038,103.27199
1.7755266,106.03269
1.7977879,102.449554
1.9016948,101.81112
1.8301747,104.203865
1.7872539,103.20116
1.8110863,102.48847
1.6645814,101.87501
1.7125031,98.38698
1.7202148,99.73478
1.594494,100.3754
1.551608,97.33834
1.5778028,93.708084
1.468762,99.20024
1.5519031,93.194214
1.5478984,95.3374
1.509645,90.1643
1.5945053,87.74328
1.5690372,88.934616
1.55666,85.432846
1.4850913,86.37268
1.4393666,85.61788
1.3547792,83.49028
1.3695595,78.74704
1.4002962,81.70726
1.2700106,77.7392
1.315737,75.801575
1.2290754,71.427956
1.2668953,69.990974
1.1819292,73.37872
1.2102523,66.53417
1.1320174,67.237526
0.9977091,67.11754
0.99759716,63.424404
0.9559614,63.763824
0.9229241,59.00935
0.9271663,61.81287
0.98079866,57.8771
0.8856343,57.906902
0.9188207,55.021103
0.96674484,55.9766
0.96686864,55.188156
0.9282844,56.71291
0.92916864,50.864605
0.8688121,52.179367
0.82990587,52.805943
0.8985837,49.412174
0.7556172,51.17801
0.7022503,49.818913
0.61137015,48.55244
0.6091006,49.213062
0.5142432,49.018284
0.4861141,52.925972
0.520575,53.740707
0.52858937,54.42075
0.59592634,53.74499
0.6494024,55.89953
0.5792617,60.770042
0.6184297,62.323338
0.75881433,61.277843
0.8161206,68.11262
0.8802039,66.48318
1.1030378,67.62024
1.3264676,74.8106
1.350345,75.42537
1.3337163,81.094986
1.4655378,77.26518
1.5344512,83.36364
1.6824212,87.88323
1.7594454,90.90112
1.7843649,87.332954
1.7825406,90.75382
1.9020486,96.91835
1.8680662,98.49333
1.7906612,96.9988
1.9020933,99.345955
2.0155556,99.41627
1.9577909,102.41022
2.0153282,102.410576
1.9495165,105.35273
1.9823235,103.60308
1.9806945,104.39802
1.9240626,105.64683
1.8919493,104.48696
1.8990723,103.1882
1.6699489,100.86933
1.7682424,102.7094
1.7957197,102.614136
1.6366695,99.537415
1.7036082,100.29476
1.6087542,100.99654
1.6082815,97.11869
1.5864563,96.139656
1.5680724,95.06948
1.544653,96.38849
1.5558078,89.26905
1.4758816,88.33964
1.6378424,86.2879
1.484771,85.15907
1.4424756,85.23727
1.4230466,84.03759
1.4707733,82.5749
1.3497746,81.21304
1.2672573,78.24393
1.3832523,78.20517
1.3395648,74.07432
1.2202611,73.88565
1.1663731,73.94065
1.0582055,70.38245
1.0032612,68.15172
1.0535388,69.45059
0.9835007,67.49922
0.92621344,68.572914
0.8842411,66.01064
0.8712008,65.53707
0.9379972,60.748238
0.9459111,58.195
0.87801826,56.78335
0.88653636,57.374855
0.91387415,57.659184
0.8355833,55.40274
0.83759046,54.883183
0.72173595,53.106483
0.7245532,50.90282
0.7000684,50.230923
0.6162404,48.961945
0.58546257,55.525475
0.64873904,49.07133
0.63730615,49.47655
0.46809027,49.668453
0.49546745,51.83357
0.45136315,53.414307
0.30677152,51.45023
0.40213615,52.96737
0.43270302,55.59469
0.468998,59.771034
0.49865112,60.89563
0.50892574,61.8878
0.6063733,61.121357
0.6515961,66.33293
0.8860461,68.29829
0.98244566,71.395935
1.054239,72.132965
1.14146,75.14294
1.1336813,80.856094
1.3668778,80.00661
1.4687413,85.31251
1.3797497,86.03205
1.6317573,88.2356
1.6081743,91.312675
1.6791131,95.63179
1.733929,90.18247
1.780102,101.21094
1.7687005,99.79804
1.7629191,101.22565
1.6695042,101.61317
1.7904526,102.09227
1.6915988,101.98807
1.7204559,104.24889
1.7184678,104.68717
1.697429,105.59236
1.7779566,104.368935
1.6250772,102.80375
1.5900078,105.95738
1.5495521,104.72287
1.561001,100.89099
1.465949,103.28331
1.6198766,99.94885
1.4449083,99.61507
1.5148568,99.94926
1.4119531,97.59721
1.3410697,97.53674
1.3383785,95.94314
1.3716688,92.010765
1.2753332,91.00766
1.3136009,88.89569
1.242929,87.40989
1.2251065,86.82787
1.2066475,81.877045
1.1313016,82.391846
1.1826484,84.44323
1.1876885,79.06414
1.0921904,79.892746
1.0445169,79.24822
1.0043092,78.477425
0.9243757,77.23999
0.9243867,74.37679
0.8320792,68.81153
0.703862,71.04146
0.65373456,66.13041
0.76772296,67.422646
0.6008856,66.35635
0.76050514,66.48363
0.52596146,59.65246
0.62960464,60.58941
0.47252303,58.11094
0.5656643,57.140743
0.57162106,56.926125
0.57269657,61.287495
0.5961858,55.75223
0.54117996,51.742638
0.51303643,53.354828
0.43637004,54.214947
0.4627539,52.169647
0.31174564,53.190754
0.3997634,51.509697
0.38740095,53.777992
0.214133,48.764343
0.19325997,50.41625
0.27867374,51.380608
0.11333081,49.407757
0.16554405,52.479664
0.21255407,56.897327
0.19861448,54.200512
0.18256898,57.34359
0.23928817,57.796494
0.26244563,62.147633
0.4073038,61.546722
0.4612,62.404903
0.52281404,67.63429
0.63215905,73.73985
0.72888094,73.10491
0.84185505,78.67882
0.9458798,77.44675
1.0102718,80.970894
1.056171,84.32443
1.1504619,88.769196
1.3016154,90.938675
1.3280092,92.63599
1.4704053,92.95396
1.3984962,96.08162
1.5862815,97.053085
1.5285202,97.400314
1.5001587,102.96216
1.4988489,101.42281
1.5297425,102.020706
1.4744633,100.99096
1.4457737,104.03111
1.4401605,105.08264
1.383334,105.621796
1.396847,101.860275
1.277042,102.61232
1.4381218,103.26939
1.4230646,100.7642
1.3200753,100.64708
1.2696565,101.54798
1.2219498,100.56053
1.1729593,99.38399
1.171709,97.68693
1.1641531,95.649185
1.1512324,94.72049
1.0712297,92.6821
1.1329653,92.39291
0.96129334,93.27017
1.0014648,87.52935
0.9959581,87.82294
0.9924304,86.44937
0.8964926,85.46804
0.9550564,83.535965
0.9298956,84.89505
0.8623639,79.93827
0.85903454,79.77382
0.78858787,76.98815
0.87869084,74.58759
0.6952224,73.76619
0.6586444,70.967186
0.6447123,70.466805
0.54619825,70.76765
0.55227184,67.47918
0.49703455,66.209
0.5199483,70.838264
0.42670834,63.611015
0.31405827,62.029804
0.41002053,61.04095
0.2892438,58.53126
0.31218448,58.47525
0.2801497,56.393833
0.30749834,60.041237
0.41982552,55.200928
0.2808019,52.39661
0.32685652,52.213295
0.27530146,52.312878
0.254557,54.07303
0.21825358,49.09187
0.20513205,47.062897
0.13199335,50.850677
0.047807336,53.246616
0.01569717,50.004505
-0.055340406,48.34852
-0.036112614,50.394436
0.058157317,48.793278
-0.045063924,52.78424
0.076044485,59.04632
0.16728996,55.315517
0.04796691,59.014412
0.11716175,61.004154
0.19428338,62.616226
0.28997058,67.698715
0.36994472,64.3903
0.4327944,71.87946
0.51953375,71.02536
0.7599005,73.77838
0.82267845,78.8379
0.90371066,78.912865
1.031357,84.1901
0.98886174,82.82744
1.2155745,91.767624
1.3011935,90.29672
1.1037911,94.27567
1.2833349,94.49442
1.2802352,98.83791
1.3971602,100.67573
1.3536972,98.9777
1.3143446,104.47588
1.3400689,103.467514
1.2713461,102.0877
1.4484906,104.43675
1.3146927,102.45243
1.2402619,106.31273
1.3041041,103.18176
1.289909,105.68183
1.2059306,103.74799
1.2548121,102.0277
1.1554155,102.17845
1.0899456,101.64448
1.1386772,101.35019
1.0449486,99.19723
1.1128912,97.04975
1.0182788,93.93092
1.0750635,91.83138
0.9190372,95.23595
0.9805926,94.98153
0.9478537,90.80042
0.879196,87.90303
0.94580835,90.65657
0.91001993,85.860596
0.9551539,87.32412
0.9050125,84.292206
0.91058767,82.02213
0.90577775,82.05384
0.75075215,79.020775
0.8411313,76.20909
0.72451353,75.35346
0.64768225,75.810135
0.71252126,73.302734
0.65355897,74.00817
0.53870827,69.163956
0.5435945,67.78455
0.3941143,68.26026
0.3672435,64.493774
0.3759637,61.608047
0.43033096,63.211845
0.37074828,59.125004
0.39716268,60.58638
0.4246687,58.52734
0.25691682,56.455956
0.41063982,54.990593
0.4738485,54.72959
0.35730082,50.537422
0.35121134,52.66569
0.28559938,50.32773
0.12247886,49.454056
0.32249025,49.100643
0.322948,49.850803
0.19392735,49.52742
0.21484104,49.626198
0.088086516,52.76616
0.087888606,49.70091
0.0722255,58.160248
0.09391188,53.221325
0.10406779,54.000385
0.041750167,56.131435
0.1660769,55.067463
0.1407882,60.54421
0.20900592,61.98408
0.33749142,62.102398
0.4823779,68.61348
0.4759279,65.7342
0.6273021,72.417755
0.5998511,69.45279
0.86034477,79.80192
0.8839793,80.75119
1.0643624,85.77972
1.1047591,83.43403
1.1807575,86.3115
1.3986063,90.32368
1.4211942,93.38395
1.3609754,94.85099
1.3579042,98.074455
1.3641369,96.1679
1.5031588,99.59114
1.4845234,100.583954
1.5623296,101.94601
1.5324677,102.437775
1.494323,104.5358
1.5366746,103.840614
1.5385793,103.255165
1.485947,104.34221
1.4539577,103.710846
1.3913099,104.64373
1.3935044,104.11729
1.4478456,103.398315
1.3446867,99.34622
1.3307455,101.59552
1.3127359,101.11132
1.2483115,102.65265
1.1472803,98.65898
1.2756076,94.22266
1.2198031,92.49007
1.1463312,95.01792
1.219888,88.09014
1.214239,90.27323
1.1340015,88.96162
1.1125491,88.93054
1.0739148,84.5772
1.1653517,86.43266
1.1601989,82.453
1.208582,82.389915
1.0560108,77.21357
1.0509478,75.1565
1.0495049,80.411835
0.9561107,72.7209
0.9524361,73.820435
0.84805185,74.07385
0.9031354,70.15576
0.77226835,68.41054
0.76468927,69.651794
0.7373209,62.314987
0.70076466,64.369965
0.62891084,64.48145
0.66740763,63.965916
0.56001306,61.967155
0.6291277,59.768574
0.64307326,57.95233
0.5659924,53.920273
0.674748,53.985443
0.52948266,53.95372
0.56357276,55.718742
0.7090939,50.021214
0.6531456,49.34495
0.54846025,48.73594
0.507335,47.987064
0.47356012,50.40063
0.39525244,51.60527
0.47628996,47.907356
0.41009957,50.495476
0.31970876,51.421246
0.3362413,52.050438
0.28640547,52.47521
0.4075854,57.054646
0.33653623,54.315235
0.31983903,53.725777
0.46711406,60.036285
0.55683076,63.17262
0.6484254,65.13708
0.6905516,65.485634
0.7468904,67.91008
0.83762914,72.759605
0.9766297,75.65383
1.0581019,74.42208
1.1994009,76.78522
1.2939894,81.6094
1.3528776,83.716484
1.4101815,87.44587
1.5786278,89.47993
1.5099565,91.67605
1.6862884,96.00789
1.7714567,95.547485
1.7385112,93.2775
1.7531261,101.75199
1.8141077,102.80505
1.7656299,101.380394
1.873907,105.24946
1.7645285,101.94308
1.8445362,101.70785
1.8979993,103.23278
1.7771794,104.97954
1.7920495,105.709366
1.7820699,105.36959
1.782399,101.91328
1.708868,101.71491
1.7085469,103.096794
1.6655866,104.16069
1.5385188,98.618515
1.585757,100.18955
1.5196117,98.372475
1.4909515,95.79898
1.3791912,93.505196
1.4635309,94.912125
1.4449928,92.734505
1.4742957,87.11481
1.3101646,87.84448
1.4759411,86.66562
1.4336683,89.8632
1.4300071,85.49137
1.324306,84.8672
1.3821442,80.9927
1.320542,79.85682
1.292956,78.18586
1.2798635,78.58878
1.2858937,76.390366
1.2613548,77.1743
1.2068663,74.99091
1.1393853,68.24277
1.1030989,71.52339
0.9652206,69.39843
0.96034646,69.56073
1.0079465,65.11423
0.83188826,63.09358
0.8453716,62.906677
0.9551395,57.66823
0.9335926,61.0224
0.92466176,58.34425
0.8672054,59.22156
0.79990125,54.77021
0.9469461,54.283585
0.90565115,53.10419
0.84964114,52.0143
0.85949594,52.856606
0.72526914,47.735233
0.7872966,51.0062
0.7500064,52.250698
0.74698836,49.42415
0.5730869,51.998566
0.5123966,48.488735
0.58580184,55.699986
0.54349965,53.17842
0.5075638,54.873043
0.5499224,56.142467
0.496469,58.86053
0.55390537,64.33539
0.7380521,57.40262
0.74321276,64.21537
0.7696864,66.07061
0.84375155,70.68401
0.91750306,69.80113
1.0535632,71.983696
1.0465113,71.73124
1.3547243,74.57531
1.3530396,83.340965
1.5484178,81.84845
1.6886421,83.58452
1.6273165,86.651085
1.754508,91.98224
1.8638147,92.773445
1.8275775,94.32984
1.8809073,95.122635
1.9259002,96.859924
1.917312,97.69728
1.8527354,104.85118
1.9445424,99.66309
2.0033312,103.16708
1.9977791,106.18814
2.0734162,102.37251
1.9803629,103.11481
2.0851333,100.93028
1.9088035,103.15769
1.8539695,101.953445
1.8474884,100.90538
1.8285458,104.88417
1.8187542,99.230354
1.7805402,104.15658
1.7083279,99.40214
1.6635078,100.63297
1.6914512,95.1344
1.6291475,95.15951
1.5488354,91.856186
1.527368,94.31829
1.6050845,90.682335
1.5531203,93.935005
1.4427629,84.80393
1.520933,85.38613
1.4338921,82.461914
1.4739457,84.42139
1.2967715,81.62811
1.3445628,78.78435
1.4179792,76.9441
1.3545494,78.71753
1.3577236,74.249306
1.2845099,72.676765
1.2120764,73.07749
1.2211908,73.57843
1.1184729,71.992546
1.148283,70.52614
1.1140838,64.72804
0.99686974,67.76526
0.983817,66.65893
0.8735724,66.83234
0.9668489,62.597454
0.9011574,61.91602
0.8626561,60.426506
0.8648471,56.698715
0.8723028,55.70996
0.94662964,57.586292
0.96134686,53.064857
0.9277759,55.384705
0.82678485,52.67052
0.8193885,49.484867
0.8460243,52.160187
0.67308575,47.232292
0.685049,51.937416
0.7014111,51.668255
0.5943248,49.994545
0.5484037,47.40207
0.52494085,48.48888
0.38796842,54.89568
0.5705288,54.27837
0.57964075,58.202568
0.5187003,55.995018
0.6215143,54.48659
0.5905709,60.220806
0.6746129,61.548466
0.68328047,61.1456
0.767088,67.2475
1.0010028,69.847916
1.0548464,72.76981
1.1831045,74.370155
1.2313646,73.543976
1.180139,77.27687
1.4214891,83.48066
1.4576943,85.830734
1.6447004,86.5099
1.726268,85.197495
1.6692704,94.03303
1.6549119,98.92765
1.8630537,100.118065
1.7990938,96.83186
1.8886988,97.17223
1.9922019,99.968155
1.824163,101.3835
1.803458,102.40162
1.7466742,104.1501
1.8795898,103.31176
1.7718248,104.21803
1.7850541,105.514565
1.7800676,103.857864
1.7618167,102.53147
1.6787603,101.383156
1.6199946,102.78027
1.5817007,97.80082
1.6001526,103.45526
1.5107412,103.92533
1.579847,99.94521
1.4404262,101.02317
1.447066,98.051315
1.501688,93.09015
1.432217,95.39115
1.3162912,93.07931
1.2875996,93.4258
1.3496932,89.22622
1.397752,89.322784
1.4160693,86.67166
1.3468133,84.30292
1.2621498,84.00472
1.1704433,78.26397
1.1685687,79.285805
1.160566,80.698685
1.0350986,80.297935
1.0708493,78.844505
1.0426757,74.05176
0.9529691,72.30705
0.9846655,68.90568
0.88579994,64.654434
0.8012966,69.08752
0.54239273,67.22018
0.84014267,67.50946
0.7550678,66.41216
0.8004325,58.531113
0.7579516,60.91584
0.7254955,59.553555
0.7045458,62.847183
0.61126065,58.235687
0.6931737,55.752457
0.7010402,56.090145
0.60191715,53.80325
0.602486,53.223408
0.6630174,53.301193
0.53397185,51.25788
0.41829276,53.768013
0.47308642,48.120373
0.44388357,49.88357
0.39531863,47.294266
0.3405357,49.99325
0.27041593,52.649193
0.1882855,51.176563
0.18853134,53.35384
0.21966894,55.096992
0.30946687,56.77357
0.30787158,59.055817
0.38776833,56.30617
0.47791815,60.068813
0.48091266,62.749847
0.5161889,67.722404
0.5596163,68.35313
0.7012068,72.51404
0.8699557,76.23586
1.0246032,77.87138
1.0002153,78.066696
1.2041551,80.90842
1.290174,83.9641
1.3044618,87.96767
1.3315787,88.70033
1.4073117,89.79736
1.511447,96.18682
1.4824001,95.680084
1.537235,98.205284
1.6090918,100.94777
1.538133,102.40218
1.5830828,99.69083
1.5341781,105.434
1.5345558,99.517426
1.6187947,104.61275
1.5557231,103.351234
1.5517919,100.92285
1.5760869,100.84066
1.4306278,105.26875
1.320421,106.1316
1.3795327,103.29228
1.3907793,102.537186
1.2939545,102.7844
1.286514,101.356094
1.148189,102.517456
1.2648581,97.83169
1.205794,96.66298
1.134134,93.952
1.0690022,90.79444
1.0783905,92.21896
1.1477572,90.35176
1.087535,88.88305
1.0827063,83.297615
1.0588589,88.062836
0.9311346,81.41311
1.0392534,82.00541
1.0937148,80.67417
0.91824496,82.16547
0.9099178,81.31243
0.82127863,74.58995
0.8147912,77.145935
0.83299696,70.911514
0.6822632,75.021034
0.5706764,71.01176
0.63046384,68.0669
0.4757327,67.96698
0.48109025,65.44945
0.5532159,69.50478
0.41162696,62.218037
0.3804812,62.182545
0.4288818,61.323277
0.38191405,58.043064
0.40103728,61.020412
0.3842105,55.574722
0.40856522,53.61778
0.45699456,53.35156
0.3984705,54.775715
0.2866642,53.621243
0.45089868,51.41613
0.18165043,50.981766
0.3324705,47.878674
0.23297942,50.014557
0.20936756,51.23005
0.10090212,50.463547
0.10029924,49.529526
0.06305289,54.030674
-0.071437,54.509037
0.08129395,51.747597
-0.071107544,54.43777
-0.029490275,57.297577
0.06422432,57.659832
0.07993307,55.803116
0.16199335,60.16214
0.20810328,65.26372
0.3705871,65.33114
0.43594322,70.083954
0.51100767,68.346756
0.568957,69.07644
0.8506845,78.62804
0.8907387,79.612755
1.0149322,77.67494
1.0202243,87.04767
1.1843699,85.33365
1.2185165,90.009514
1.2829415,90.68123
1.2950164,97.27707
1.4496226,95.96603
1.437516,97.385574
1.3981149,99.005424
1.4125268,102.45138
1.3223612,103.066574
1.4629444,101.83222
1.4272348,102.15674
1.3429034,103.46968
1.3030343,105.219025
1.3384502,106.10855
1.3128922,104.08896
1.3009311,109.05975
1.2604418,104.2262
1.1862361,103.479355
1.2223475,98.43647
1.106525,100.53619
1.0587592,99.28365
1.0176033,97.622765
1.1450676,94.731834
1.0195138,95.99665
0.93739957,93.815895
1.0355431,93.01338
0.9090325,90.21106
0.9621247,87.59727
0.854318,88.4914
0.8076025,87.98295
0.8719451,84.97917
0.89598227,83.4755
0.81585515,81.47569
0.7974024,83.07944
0.8093702,80.912575
0.76475805,76.21459
0.81419635,77.26374
0.70695233,73.762886
0.63765943,76.74101
0.6171977,74.80661
0.5817341,72.28147
0.5192434,69.049805
0.4156432,65.629364
0.4103003,67.42766
0.36483616,66.38721
0.3651372,66.03192
0.32382897,62.481266
0.40310895,63.226284
0.34232822,59.625034
0.23741393,57.04942
0.40805513,55.598324
0.33773535,54.025806
0.33328098,54.258705
0.29989812,52.633743
0.27780113,53.44725
0.33048353,53.482426
0.21078594,51.478455
0.23896268,51.49493
0.2351881,50.100506
0.117290564,52.846878
0.14150304,50.43538
0.041035417,50.586784
-0.013131537,54.97686
0.03371055,53.403606
-0.0028895575,54.357994
0.0073085744,56.612408
0.024332948,55.23031
0.042778954,59.717148
0.0596181,65.466606
0.20106393,61.658474
0.33238402,67.03768
0.19350155,63.317543
0.51453215,65.45806
0.5408594,69.99851
0.6141622,74.80222
0.8199144,78.28772
0.77500945,82.12451
0.9258145,81.82782
1.1293331,84.158936
1.0591662,85.413086
1.1837103,92.12414
1.1599385,88.75686
1.3978851,93.71814
1.3541906,96.25638
1.4720625,100.08396
1.3589281,101.6873
1.3984616,101.67929
1.4224085,104.846146
1.4701551,104.87546
1.4683189,102.80098
1.4605093,102.644844
1.3212404,102.346405
1.4198645,105.86398
1.4147779,102.57154
1.4200608,106.009125
1.3584076,104.19554
1.3302681,98.95738
1.1574094,102.23398
1.2784604,101.453415
1.1492214,99.85582
1.18334,98.220215
1.1171447,94.054955
1.0610476,96.4965
1.1354893,94.441536
1.1286703,92.44157
1.0755705,91.34026
1.0805485,91.468704
1.0359427,86.430824
1.0012916,87.5301
0.97959214,85.33198
1.0038121,87.00366
0.9391837,84.21821
0.96408755,77.69115
0.9288944,83.136665
0.9734338,78.99937
0.8398597,75.65871
0.8239628,78.18226
0.8125728,72.52122
0.77737194,70.88625
0.7697392,67.98856
0.57525367,73.743935
0.5743964,68.02645
0.5161387,64.27575
0.5261253,62.526527
0.60697776,63.290123
0.5640173,60.931023
0.51428676,60.863106
0.51171494,56.87761
0.5547071,59.639824
0.5031428,58.58228
0.5923816,55.39572
0.4991325,56.94212
0.58654976,51.912537
0.5050096,53.502296
0.45179632,51.258877
0.5170804,50.86079
0.36933956,53.430023
0.37240797,49.462856
0.41041183,49.221195
0.16768932,48.620247
0.27941918,49.463654
0.23690999,52.46085
0.28248912,50.507336
0.2818065,53.75264
0.24037877,53.511574
0.19413264,61.511486
0.25568432,55.474407
0.329403,63.618248
0.32252786,61.355217
0.50575036,63.433098
0.5934682,65.14792
0.744639,65.608406
0.8617232,73.20356
0.94238085,74.46693
1.0276996,76.61288
1.1505741,80.13935
1.2372704,80.373184
1.3934674,86.8672
1.5167671,88.80355
1.4746487,91.5018
1.6284673,94.900444
1.5445082,95.06534
1.6793875,96.13265
1.6465935,97.97073
1.6788256,102.39831
1.7020679,96.59168
1.6836799,101.937195
1.7469299,103.17031
1.705411,103.80454
1.6785471,104.734634
1.565363,103.096
1.6364664,105.79838
1.6054598,102.424706
1.5699086,103.40793
1.6298931,101.96974
1.6010759,99.98238
1.58107,99.611855
1.4742261,99.402145
1.5301791,101.52477
1.5167584,100.80601
1.3269674,95.56111
1.4017731,94.667465
1.3832629,95.42959
1.350427,93.55861
1.1924248,91.97305
1.3079344,86.21716
1.2577516,88.71313
1.3037355,87.36245
1.2713681,86.47927
1.3944141,84.88771
1.2664315,82.92258
1.267444,81.03823
1.3358124,83.669266
1.2204733,78.86833
1.1331686,78.18422
1.1000184,75.16569
1.1205093,72.2006
1.0143251,70.84924
0.96644074,67.64049
1.0059443,66.70755
0.88244426,66.82329
0.9264735,65.51794
0.92725664,64.52184
0.80841964,65.22828
0.836263,61.1923
0.80227596,60.61829
0.8306226,57.022793
0.7348592,58.596184
0.7565642,53.020176
0.8188838,53.175568
0.84583247,52.737152
0.7364709,52.90886
0.8548036,49.800907
0.71737957,48.58099
0.7610351,51.24856
0.6967473,52.035088
0.5697898,48.57609
0.5720347,53.175888
0.56399906,52.287334
0.54256105,54.524555
0.44594705,46.274155
0.42358986,48.72188
0.44915432,55.840103
0.4839284,52.156227
0.50164557,57.164692
0.63577765,60.815014
0.5213984,59.223812
0.6299672,66.94989
0.78661805,63.19446
0.7609513,70.17014
1.0560201,70.91511
1.0858368,75.60687
1.2468995,75.642624
1.2669849,78.71292
1.4088937,81.788994
1.5527534,83.73213
1.5679653,84.82762
1.6245071,86.81837
1.6679752,91.82055
1.784318,92.44221
1.868022,94.54888
1.8057115,95.308716
1.8916423,98.95364
1.819313,99.464645
2.0068831,98.92875
1.9969729,104.16553
1.9625919,104.23586
1.9323506,106.869514
1.849996,104.80928
1.9070623,102.17285
1.9652698,104.314026
1.8547604,102.871376
1.7846758,107.02363
1.8449957,104.2736
1.8518634,104.244644
1.7387701,98.97321
1.6763246,103.26584
1.7221813,95.93125
1.6718428,97.081566
1.535081,96.53103
1.6445514,94.993355
1.5806588,93.62023
1.4991391,89.43205
1.4816226,90.87924
1.5068338,90.772064
1.3780965,85.64595
1.4795336,86.559975
1.4020195,85.57876
1.460254,85.251045
1.4451075,79.85382
1.4031932,79.79776
1.4697587,79.64912
1.3142895,79.15911
1.4448459,75.25367
1.1522903,76.165344
1.2699823,67.73842
1.1896039,73.19809
1.1423087,68.47965
1.1826345,70.854195
1.0426878,69.236534
1.0112399,62.92132
1.038469,65.74954
0.9263631,62.69789
0.9678297,61.288773
0.9431525,56.356438
1.0905774,58.809322
0.8696835,58.22989
0.93835944,57.656975
0.8684284,53.492725
0.9559286,53.337017
0.87794524,52.06468
0.77922136,53.430405
0.894432,52.30424
0.8012367,53.97867
0.9066164,50.382835
0.6071543,52.170475
0.6781251,48.291225
0.6024886,47.931133
0.545064,51.60486
0.5704304,55.31999
0.57496655,52.712948
0.59181887,52.58512
0.5037356,52.877487
0.53147614,54.39622
0.6713773,60.187237
0.73053646,62.243702
0.70159614,61.228657
0.84987926,64.89809
0.9439666,66.45493
0.9535123,70.28155
1.1995444,71.39024
1.2594583,73.81476
1.3605763,76.9533
1.5646093,81.666405
1.5441647,88.00912
1.5859951,84.36455
1.6965342,88.56047
1.7621046,90.052635
1.8132368,91.20387
1.7776402,96.027176
1.8312749,95.93178
1.9242432,97.990204
1.9198607,98.40611
1.8946434,101.36392
1.9081886,102.67375
1.9391234,103.64868
1.9006093,101.50719
1.9197369,105.00084
1.912911,102.54491
1.7939852,106.81465
1.8280537,106.23234
1.8787993,100.65731
1.7498152,100.9611
1.6059046,104.653496
1.6841078,98.38735
1.5829178,100.37846
1.5877944,96.63484
1.5789388,98.91152
1.5327541,97.1983
1.5818976,92.79249
1.5093135,94.04127
1.5055964,93.78729
1.3869576,90.3164
1.4058921,87.95126
1.4129297,89.69175
1.3310462,87.230705
1.4016919,86.10463
1.3669586,83.90176
1.3863852,81.77721
1.306349,76.49091
1.3012395,81.896935
1.2479565,77.85517
1.1341188,74.43888
1.2062954,74.15671
1.1113546,75.467606
1.0758328,71.38714
0.892992,71.63459
0.87512,71.31568
0.9715694,70.180305
0.92537105,65.00548
0.8527326,64.97467
0.92769206,65.51064
0.82322484,60.92348
0.7609123,60.97089
0.803019,58.399822
0.8549644,56.06178
0.6783806,56.038322
0.73186404,54.4562
0.7585365,48.995926
0.74075484,52.14546
0.6154848,51.02839
0.7628362,52.102413
0.63605446,48.39426
0.6382976,54.15103
0.562139,49.334538
0.44608623,47.621284
0.6858549,52.181942
0.4166605,48.086563
0.3990492,54.12698
0.45291469,49.270794
0.43438104,53.460396
0.29368806,54.063766
0.39777562,58.999435
0.45066726,60.57256
0.44957864,62.77723
0.6187329,59.388676
0.6750409,64.524925
0.6498481,67.51081
0.8748105,70.25897
0.95340216,66.36312
1.0205061,78.03783
1.1584163,79.66265
1.1868858,77.82138
1.2756151,81.62263
1.2771518,84.64353
1.4790616,87.48129
1.5272048,88.93028
1.5500417,90.95114
1.6271094,96.37772
1.7248789,96.36263
1.7538828,98.90084
1.6183481,99.6685
1.6544683,99.40695
1.6669186,100.69795
1.6711297,102.66693
1.6547263,105.39876
1.6454655,106.603035
1.6002673,108.68808
1.578043,105.039665
1.5761337,102.12727
1.6244335,102.93751
1.5129734,101.08656
1.4036808,104.55514
1.4996663,99.81423
1.3809711,102.522255
1.3955399,99.64982
1.2044373,96.58869
1.3330531,96.6648
1.1628795,100.30309
1.2127876,92.096275
1.1968236,92.08731
1.188878,90.5521
1.1710503,89.82338
1.127039,87.27226
1.1094865,87.071625
1.0585568,87.36752
1.0798005,82.863
1.0335422,83.84367
0.97313774,83.67427
0.96955574,79.60618
0.9753601,82.73852
0.88466185,75.5719
0.86863816,73.15033
0.83632946,71.75662
0.78356135,70.86483
0.73610705,68.74445
0.69105786,69.1273
0.5753297,70.27495
0.5766287,69.82576
0.6149122,63.73321
0.5281702,65.875275
0.4929947,64.01495
0.46215177,60.627598
0.4498116,55.422615
0.507052,58.8758
0.5124164,56.985367
0.47321767,53.51297
0.49087209,53.37279
0.4682903,51.562702
0.46017292,51.457912
0.45683718,48.180885
0.36204973,52.26502
0.31155676,50.996456
0.19029544,52.80315
0.13041805,53.207085
0.077071056,50.255463
0.09592505,51.8121
0.011222015,54.23094
0.07456279,53.137947
0.040704332,55.957462
0.090317644,55.88162
0.068776205,54.981853
0.166073,60.58993
0.21136576,61.338665
0.32545283,61.17586
0.3692344,65.279625
0.4400769,70.569435
0.57847023,69.59906
0.7003592,71.46758
0.69702864,75.59874
0.8793454,76.35433
0.99082804,81.33581
1.0636191,82.8928
1.2303807,87.71598
1.2411745,90.00579
1.3233211,92.39845
1.2971425,91.58833
1.361574,95.413025
1.3083096,96.081856
1.353605,98.70056
1.3537811,101.97055
1.3815634,101.78356
1.4767393,102.01705
1.3713557,98.922935
1.4218167,101.4177
1.3313134,105.91404
1.341508,105.91394
1.2856253,103.72665
1.3584641,102.70608
1.3025506,104.36141
1.3244207,100.05172
1.2160867,101.465485
1.1582167,100.59859
1.1516594,101.15646
1.2079347,100.66977
1.1048225,100.22232
1.0397886,96.160385
0.98169774,96.627335
1.0261021,93.23336
1.0047078,93.63802
0.86104023,90.2471
0.9540264,89.675285
0.8533633,88.277916
0.9260374,88.311615
0.8177379,83.99557
0.96305585,81.81528
0.89445055,80.84943
0.8815879,81.27721
0.81125677,78.782745
0.8611197,78.8521
0.62186575,77.06151
0.6630151,73.45056
0.63926816,71.51163
0.5543497,73.23279
0.5640214,68.37685
0.5300017,63.273434
0.43812552,63.82843
0.35429862,64.7144
0.4044469,63.873363
0.31394467,61.29111
0.30913514,60.515423
0.31393406,59.837124
0.3182881,59.16457
0.33139795,58.622906
0.2519087,59.5647
0.2195125,53.428524
0.3220034,53.854008
0.2403547,52.876102
0.255753,52.016632
0.28586188,52.513416
0.20666884,50.08387
0.13379718,50.786537
0.14842483,45.902832
0.11986531,48.631554
0.0054679993,47.67975
0.09458131,53.98494
-0.014532992,55.029465
-0.03810404,53.15304
-0.07692545,53.34789
-0.044557784,54.5412
-0.007844438,57.32862
0.048877586,55.63632
0.06744372,60.82917
0.22526114,63.2622
0.24113297,67.1812
0.37093535,67.827324
0.47826898,70.842705
0.61299825,73.85784
0.6273617,76.90614
0.79954195,75.64757
0.8681068,79.17792
1.024184,84.17647
1.0659277,84.982895
1.2003943,88.03474
1.219242,93.8218
1.2094238,95.89129
1.1251098,95.548195
1.3455129,96.67049
1.3313894,101.788086
1.4035795,98.81729
1.4360001,98.86677
1.4565543,100.29645
1.3525954,103.23047
1.3779483,104.312355
1.3329483,106.70909
1.3447957,103.78153
1.4121875,106.980515
1.3300502,102.88976
1.3163613,102.46555
1.29554,103.86178
1.2780181,103.78881
1.2127767,103.40937
1.1674198,99.13926
1.1225078,98.248474
1.07667,99.95014
1.1394914,97.0375
1.0885786,94.96673
1.0001682,93.26142
1.0494745,94.69393
1.0211984,90.32775
0.9581944,88.28288
1.043824,88.41957
1.0232806,84.82089
0.9902123,84.53955
0.9589246,85.51013
0.86463517,79.22563
0.8768662,81.75123
0.857051,82.30841
0.80995905,74.724045
0.85506266,75.71728
0.71262187,74.891136
0.68153733,77.667946
0.5931113,70.96766
0.6804937,70.23575
0.4480163,72.05587
0.5748531,68.41193
0.438044,64.283875
0.50776327,63.88112
0.49437582,60.20768
0.453232,62.48747
0.39845005,59.71139
0.38328582,59.612175
0.4822313,58.58495
0.4608982,56.776318
0.4284026,54.806118
0.36475518,52.114838
0.49722207,53.93945
0.46200138,49.984245
0.43912435,49.082844
0.3265788,49.58543
0.27663994,52.08271
0.2610806,50.25774
0.2569328,47.602947
0.12520517,50.656166
0.27638185,51.237644
0.04415417,51.336567
0.0045302217,55.773426
0.0625044,52.581715
0.09144136,54.53116
0.10128974,58.031376
0.21435249,58.780525
0.24590504,65.44361
0.35421124,64.1633
0.4773429,62.298634
0.568839,64.37891
0.6575847,68.48219
0.74229777,70.85012
0.86642784,74.92644
0.95031095,77.565926
1.0194352,81.72115
1.2737923,82.79492
1.2905651,84.988174
1.3463749,89.14748
1.4115902,92.552605
1.4321682,96.12192
1.514321,93.045685
1.4823666,97.00335
1.5752438,99.797005
1.769343,101.9593
1.6268902,103.842316
1.5906806,105.48035
1.5997866,102.37339
1.6478587,103.23584
1.5764782,104.850044
1.5954925,104.37373
1.514497,105.080025
1.4949925,102.41323
1.5905528,98.820915
1.5557393,102.732216
1.4590391,105.46856
1.5065705,103.64913
1.3178734,99.46452
1.3926934,98.99394
1.4009899,98.64891
1.3463278,94.61637
1.280123,94.98656
1.3464046,94.162346
1.2516751,89.74794
1.2686846,88.91663
1.1881679,90.11934
1.2479172,87.66462
1.2947043,87.37103
1.2526592,83.143906
1.1921717,83.550804
1.2194539,82.61609
1.0906411,78.93597
1.1640432,81.70988
1.1540519,78.03432
1.1042464,73.34167
1.0788319,74.287926
0.96717966,71.40862
1.0187107,69.96676
0.8844796,69.763145
0.78462434,66.963905
0.7485303,66.04749
0.7970886,66.18784
0.7058541,66.274345
0.7471878,62.628365
0.710061,61.46115
0.7602804,63.219234
0.8622103,57.926662
0.72566855,59.317963
0.73562944,57.284416
0.7555321,57.535023
0.832373,54.73009
0.67132884,55.917164
0.6720096,52.575886
0.65328485,53.016384
0.6313078,49.087826
0.6062521,51.52445
0.52789277,49.375698
0.47984138,46.744957
0.43549007,50.72437
0.40766764,51.996777
0.33906695,53.7778
0.40335962,53.903645
0.46241295,54.253506
0.43425542,52.25537
0.45374963,58.395863
0.47406608,58.768333
0.5304974,60.592533
0.55251783,60.41671
0.7644371,65.42278
0.88280565,68.82854
0.97017556,73.24471
1.0537457,75.27025
1.2079556,76.13732
1.3849565,78.70291
1.3260037,78.798
1.4447607,83.95562
1.5994929,83.91731
1.542429,90.482155
1.6279843,90.14687
1.8010622,93.4881
1.6843221,96.62215
1.8658012,97.14198
1.7827811,99.22714
1.8968834,99.411606
1.9229312,103.019264
1.8993735,104.02253
1.7711529,102.33156
1.9278227,105.320175
2.0855796,101.02617
1.7903337,101.6402
1.8376912,105.69952
1.8605958,103.680405
1.8866189,98.822876
1.7629895,103.34192
1.7602489,103.14033
1.7280173,100.08365
1.650144,99.25228
1.5917451,101.704315
1.5533506,94.67909
1.6407493,96.32706
1.6190794,92.436615
1.6407945,94.571526
1.5388848,93.97263
1.4541113,87.91504
1.3822632,90.244385
1.5200164,89.66028
1.462992,87.295525
1.5642471,84.47066
1.5227,85.3431
1.4859114,78.19067
1.3359407,78.99353
1.3852315,79.69504
1.3170798,78.94427
1.2927014,72.81889
1.3167806,72.441055
1.1188188,72.0849
1.0657918,68.78731
1.1023378,67.6109
0.98057103,66.92417
0.9827976,65.06593
0.990153,62.173122
0.98850477,65.642815
1.0036925,61.486633
0.9678246,61.44294
0.89395237,59.370586
0.8475249,60.63556
0.84610015,57.277954
0.9328825,55.99214
0.87996364,53.815193
0.9171918,53.828594
0.9061781,58.020294
0.8434353,50.8869
0.7960065,47.707283
0.95420545,48.244076
0.90038425,50.838524
0.68720335,55.987507
0.7343195,52.403755
0.60911614,50.348625
0.5655608,52.09629
0.6240077,51.763485
0.6610495,52.70322
0.46356675,54.999043
0.5501412,58.75813
0.6240937,58.375988
0.5966545,59.282627
0.7160878,60.400723
0.8300001,61.314724
0.8536213,66.7757
0.9636047,64.572136
1.1095245,75.176506
1.1853282,72.282265
1.2623612,75.312996
1.376274,79.830574
1.3899603,80.22407
1.4793481,80.569
1.6405655,88.972725
1.7063372,87.15535
1.8984206,94.03951
1.9229808,94.72334
1.8641326,94.488625
1.8990183,98.81179
1.9362541,100.58141
1.9306624,98.9051
1.9248208,101.83975
1.8852983,102.10782
1.9525609,103.65137
1.8953984,103.34518
1.94325,103.457375
1.9322995,109.262344
1.9355503,101.080025
1.8099965,105.65525
1.8894057,103.5482
1.752843,102.99364
1.8098253,102.07832
1.8028641,98.676865
1.7749231,98.280136
1.6863192,97.91092
1.6101534,96.020905
1.5622065,99.183075
1.5468676,94.15002
1.4589826,94.560486
1.4962432,92.05234
1.4801654,92.69283
1.4866931,89.36288
1.4680632,88.75879
1.5084248,85.186386
1.3331723,86.98252
1.4579318,83.69055
1.412399,82.521324
1.2978536,80.912125
1.3989859,80.59583
1.2699542,77.805466
1.263396,75.71393
1.1578865,74.987274
1.2045329,75.27276
1.1769756,73.129005
1.0727949,70.49014
0.9746269,68.95589
0.9764909,67.34886
0.8811057,65.623695
0.9339936,65.50752
0.84715235,60.57224
0.90171504,63.78624
0.89741874,59.31883
0.92116374,59.15702
0.98592883,58.879993
0.9227701,55.38229
0.83219594,55.02244
0.8604845,57.383606
0.8311053,52.321304
0.7494249,49.713833
0.75764656,50.355904
0.75940305,52.219112
0.6394736,50.053474
0.5179425,51.352707
0.53981525,47.429935
0.5186373,49.70775
0.49645248,50.585545
0.4925445,48.070854
0.40591222,51.875546
0.5350577,57.262554
0.39232302,50.6964
0.46474034,57.988293
0.5782067,55.6595
0.6578054,61.52243
0.7418803,62.75894
0.68792707,65.08338
0.79403865,69.35866
0.98409635,67.27013
1.0155436,74.79304
1.0533594,77.77548
1.333765,81.8759
1.440437,81.880196
1.3412466,83.583305
1.5651966,87.855446
1.4095746,90.64043
1.6275377,90.284584
1.7203126,95.477615
1.6355307,92.88369
1.6863496,100.0805
1.7535056,99.845856
1.7829801,103.334984
1.8787042,99.93495
1.9089645,105.547066
1.7986987,103.64896
1.7902567,101.911476
1.7665968,102.07483
1.6475136,104.92724
1.669251,104.09404
1.6353198,106.66871
1.5660107,105.16945
1.6143707,102.293144
1.6213318,103.91411
1.5196048,100.35298
1.41733,97.147316
1.3760456,96.63337
1.405159,92.0798
1.2750545,94.477486
1.3868477,91.78541
1.376711,92.546135
1.2191631,92.19795
1.1060184,90.08292
1.1381085,90.99539
1.2570915,89.4954
1.1772562,82.74876
1.1807693,86.312485
1.1265988,83.02737
1.0910298,82.6416
1.1220629,81.42805
1.034453,76.575905
1.0893717,78.97439
1.0721654,71.78358
0.97072315,75.24293
0.92966574,72.82276
0.7876395,70.2966
0.7729082,70.794044
0.87437874,70.201996
0.6703708,68.66669
0.62040687,66.01233
0.52217567,64.84075
0.6078892,61.82681
0.65494424,62.063503
0.534026,63.004845
0.5550899,57.038837
0.6176735,57.45977
0.5646489,56.28047
0.61881614,53.4516
0.44989476,54.464626
0.54752237,54.42643
0.4542893,50.831875
0.4141762,49.612045
0.36340058,50.92865
0.3759238,51.443844
0.28509644,49.37882
0.3493406,51.49238
0.1840031,48.681408
0.23669977,50.40788
0.1667283,51.29468
0.09182636,54.50342
0.1424504,54.369987
0.052986357,56.031265
0.17669839,64.54941
0.1864169,58.312214
0.3436206,60.82237
0.35656786,65.18028
0.47853056,66.93167
0.5379564,67.93721
0.60448307,70.30983
0.8154884,72.31368
0.7891467,79.59373
0.9569638,79.79833
1.0346218,81.51207
1.1166778,85.160225
1.184046,87.917465
1.3188391,86.34089
1.3976401,87.80529
1.3525988,93.86561
1.46361,96.77362
1.4535797,96.633316
1.5140609,99.10132
1.4875169,100.565
1.4898466,104.441315
1.5284499,104.57145
1.3828639,99.55297
1.4412117,102.05259
1.3957572,103.53376
1.4911261,103.82545
1.537257,105.07962
1.3848317,105.39949
1.4208709,102.16377
1.2196286,100.24209
1.3030347,102.33061
1.1911079,101.78725
1.2437606,96.42565
1.130232,100.68075
1.0622923,95.97824
1.1068518,92.96191
1.0520896,94.77813
1.1165776,94.00874
0.8976226,90.46187
1.0668468,88.39388
0.92498296,87.15026
0.95039785,86.99625
0.94599414,81.883484
0.94128835,85.43633
0.9091552,83.9323
0.9384976,79.78648
0.9003391,82.237206
0.91018236,79.74285
0.82735914,76.324615
0.7083217,77.613945
0.72379696,73.599304
0.59856063,73.327866
0.6263756,71.11005
0.48224503,71.79338
0.4953332,69.05332
0.50789344,68.50032
0.45918778,65.43931
0.26937655,60.248825
0.48284855,59.72544
0.3392575,63.423912
0.34788042,58.77962
0.30349252,60.420082
0.4272815,54.49693
0.34055892,54.469566
0.32005364,50.55083
0.47848296,54.69367
0.38768157,52.796165
0.2840993,49.223385
0.16177143,48.72501
0.11243931,49.391956
0.103874534,51.941036
0.12838444,49.860966
0.07035205,50.029743
0.082954735,54.097134
0.00029261247,53.948875
-0.0027141552,49.71412
-0.10239606,52.7058
0.069134615,52.387726
0.020006685,53.441647
0.0016299873,59.412518
-0.02464332,60.342133
0.1213868,64.65894
0.20140451,67.478264
0.40264896,64.51184
0.32727915,68.6757
0.47830567,70.26316
0.6382127,72.959755
0.6447782,76.363365
0.8772112,79.6064
0.8712429,80.76661
0.91412187,84.58509
1.0571643,85.75281
1.1843704,93.36827
1.2110869,91.96162
1.2559938,95.98987
1.3180684,94.57689
1.2122787,98.265465
1.3586549,99.92185
1.3486891,99.648705
1.3923459,100.221054
1.2971684,100.31708
1.4212909,106.76043
1.2562377,103.90381
1.3326646,101.765915
1.3629369,108.559715
1.267458,107.99107
1.2712195,102.40763
1.3300891,100.90136
1.0611995,102.810074
1.160447,100.70656
1.2263056,101.70704
1.0964124,100.60114
1.092367,96.19371
1.0559133,98.23623
0.95804137,93.32963
0.94532007,96.85163
1.0605611,94.6337
0.99179906,90.37495
1.033548,88.30733
0.8471159,86.5906
0.9025326,89.69819
0.91998005,81.3431
0.8590733,82.827065
0.8827161,83.85042
0.93612075,83.66196
0.78157914,78.14773
0.78769964,82.437546
0.85913795,78.420364
0.75491095,75.66234
0.67562795,74.09721
0.55618024,73.14096
0.46569404,68.67191
0.5336943,71.855675
0.5470111,70.07493
0.43814176,66.88132
0.41535896,65.54003
0.30759102,65.1179
0.4270889,61.600285
0.3739363,60.01534
0.34898826,60.31886
0.37788135,59.36265
0.3269811,54.820908
0.3509261,56.33046
0.31018096,52.52213
0.5134225,53.29325
0.2768472,57.226868
0.31896546,53.103184
0.23476166,49.088318
0.19245684,49.53014
0.19854116,50.783882
0.13935842,52.7386
0.21736696,48.186436
0.05991247,50.89183
0.024529992,50.444126
0.040173102,49.18056
0.09048185,55.057274
0.007195518,52.743526
0.04288371,55.07523
0.04239764,56.8225
0.0173074,58.298084
0.18920773,60.351433
0.2869155,63.06897
0.3162658,63.69356
0.4469456,65.19945
0.5811669,74.984566
0.7051967,74.628456
0.852137,76.40725
0.94685555,76.943535
1.1362871,82.915955
1.1267549,83.77066
1.1924778,87.70909
1.2479453,88.269356
1.1865007,93.7958
1.4390446,95.93162
1.5350004,93.5732
1.4580313,98.09473
1.5607127,99.449524
1.5157702,100.89133
1.4852185,105.02078
1.4261925,103.2124
1.6572887,102.38147
1.490364,105.1445
1.5435847,104.16575
1.5000048,103.68637
1.5311569,103.21331
1.4779804,101.42955
1.3775924,105.03741
1.5163997,104.56332
1.3393966,100.324715
1.3466116,99.06907
1.3689396,96.65925
1.2947047,99.90474
1.178054,98.65728
1.2514634,97.25165
1.158484,96.58859
1.2082481,91.54994
1.1587152,90.673134
1.1742191,91.56011
1.0890784,88.3786
1.0542332,85.76049
1.0158145,87.66465
1.1162441,81.82239
1.1102778,83.89868
1.0522038,81.474724
1.1166744,80.87298
1.1022451,78.83695
1.0243313,74.05636
0.95657253,77.968925
0.8963776,71.734634
0.9553573,73.60936
0.8035371,71.65767
0.8052423,69.38317
0.8183704,68.214745
0.7656939,68.804184
0.6696465,67.02544
0.6186008,62.073887
0.72908664,62.24028
0.57975703,61.793343
0.65327,59.482765
0.6212077,60.964886
0.5656185,57.830524
0.52739555,52.688892
0.6471325,55.368347
0.58225054,58.289524
0.6640364,53.006454
0.6180813,53.175587
0.5488662,50.299324
0.5496761,50.452797
0.51992685,50.163795
0.48944348,50.79097
0.26799625,50.4945
0.29762822,52.866276
0.33989537,49.768764
0.38557655,49.288616
0.40054646,53.623455
0.31869748,54.60465
0.320303,56.561527
0.29210505,59.39235
0.47650442,60.12038
0.5638851,58.678677
0.6157754,62.972233
0.59720635,67.47524
0.81330013,69.53029
0.9545973,70.181175
0.92883104,71.924545
1.1290679,76.22116
1.3049717,79.99145
1.3193954,79.287094
1.4885126,79.088486
1.4330667,86.58205
1.4857124,91.54956
1.5957824,92.70008
1.6434482,97.253815
1.7499682,98.38642
1.7619518,97.625
1.7775645,99.5207
1.6736968,98.49001
1.8654337,100.62754
1.7569788,101.493385
1.8032806,105.737946
1.7659997,102.286194
1.8009791,101.769
1.7146671,107.319405
1.7801651,101.54675
1.8310928,102.80861
1.7356455,104.71658
1.6631596,99.99739
1.6431863,104.63263
1.5722237,99.67768
1.6232911,98.31819
1.4893345,95.62052
1.4910023,97.40041
1.4559544,96.21357
1.4563844,94.589195
1.4588736,90.59597
1.4629889,90.471016
1.5065103,86.69121
1.446036,88.155075
1.3447541,88.64837
1.4096543,84.723785
1.3179314,84.05819
1.3511451,84.95983
1.3643851,83.376495
1.386363,78.047226
1.2628956,74.29931
1.1722314,79.03873
1.176709,77.18149
1.1417345,74.85863
1.0983137,74.779854
1.1264435,73.261246
1.013106,70.614006
0.9467877,69.66477
0.9116129,67.00858
0.84876573,64.7339
0.95591366,64.486755
0.9016206,61.80991
0.9851345,63.023216
0.9416251,59.93641
0.8642636,62.531002
0.8791056,59.607628
0.8271067,52.873276
0.951485,56.331314
0.80066264,53.38392
0.8432692,52.500343
0.84860027,50.644783
0.8008856,51.396942
0.77142656,47.544178
0.7133307,50.083473
0.72737896,48.733967
0.6109225,55.632313
0.53250796,50.71528
0.5967613,52.167583
0.5296866,51.888947
0.5520714,52.59571
0.585903,54.5402
0.5758537,57.29004
0.5966954,60.287872
0.679416,61.514954
0.66268814,60.602135
0.81183165,63.98701
0.9683811,66.98948
1.0342598,65.45157
1.176374,68.58365
1.2280377,75.40449
1.3100274,77.3812
1.4349052,81.24185
1.4790338,81.75481
1.5727056,82.14679
1.7184396,84.14504
1.7817715,89.55622
1.8270501,90.80524
1.865531,90.36651
1.8195528,97.12778
1.8527985,100.35545
1.9721365,98.79372
1.9180666,99.05183
2.073053,100.399536
2.0493462,102.78338
2.023018,103.24661
1.9359845,103.50045
1.8781191,104.24889
1.9351517,104.05282
1.9094576,104.61867
1.8342214,102.07204
1.8396522,105.596794
1.7291974,99.74499
1.6933465,104.09985
1.6203312,101.33373
1.6636704,98.679375
1.6519098,97.09215
1.6704601,95.20428
1.5960351,93.84685
1.7443612,94.05528
1.5430729,91.877655
1.4627409,93.06426
1.5347108,92.065796
1.5313592,88.714386
1.5216856,89.24579
1.4616574,84.07831
1.3743658,87.52504
1.3987852,78.079094
1.4206392,80.64477
1.4781809,81.862206
1.4116355,80.98689
1.3478544,74.04616
1.2958971,77.22767
1.2875054,72.775444
1.1727686,73.65954
1.1593544,69.10821
1.0843931,69.26627
1.0766661,68.35561
1.1024855,68.37877
0.96854174,68.00521
0.9844666,63.2297
0.9644412,62.78871
0.8398149,63.219
0.87415004,58.737595
0.9080143,58.897358
0.94779843,51.535202
0.8935958,57.71322
0.90271413,53.33192
0.8984503,53.858803
0.8478062,52.1411
0.8481151,50.566563
0.8124176,49.790047
0.76381844,53.175957
0.653834,51.568146
0.59507686,48.83065
0.58325124,48.770466
0.526253,50.415783
0.47880325,49.495224
0.49128097,51.9931
0.53344387,53.41886
0.40934515,54.155186
0.44233605,58.460396
0.5506597,55.536835
0.68062925,59.995113
0.61629426,61.07113
0.7393724,65.75441
0.80732185,66.49799
0.9805236,70.06548
0.99002826,68.90856
1.1784716,73.457054
1.0945297,74.223
1.2796236,79.32444
1.4424528,79.35779
1.4952922,82.172844
1.5518639,89.15228
1.6595746,90.79655
1.69429,89.04432
1.7643713,97.71779
1.7822337,95.573616
1.8947073,97.6497
1.7948111,100.62821
1.988816,98.887726
1.8605701,104.19577
1.8695496,102.91598
1.8280151,105.08926
1.8527232,105.05056
1.8970457,103.06677
1.711697,105.466606
1.8518993,103.056404
1.6503154,103.77548
1.7299325,102.60741
1.727711,102.9657
1.7008727,102.392136
1.6998699,101.15796
1.557622,99.142914
1.5036223,100.71811
1.4638917,99.56952
1.5300156,96.22273
1.3216242,95.57255
1.3313283,94.36423
1.3118001,92.93686
1.384425,91.16038
1.3880355,88.61959
1.3461579,86.83743
1.3280094,85.18092
1.2476735,86.275635
1.2427292,83.999756
1.2495694,83.86372
1.2896625,79.71357
1.1235214,77.36734
1.1562377,76.734375
1.0578899,76.235756
1.0792912,73.6619
0.99020445,74.91827
0.9542586,68.951164
0.78177744,70.96737
0.81986594,69.53656
0.85743135,69.23687
0.7378506,63.970192
0.723194,63.802975
0.7027784,62.509884
0.67926985,62.903805
0.7421843,60.57903
0.617116,57.65988
0.7575263,58.33185
0.68717986,53.565994
0.6459535,54.1589
0.63121957,50.97815
0.66111356,48.638817
0.5142846,52.878777
0.49792263,52.506405
0.37972832,46.686996
0.42010882,48.218334
0.40952033,51.22688
0.40719458,52.71129
0.3069331,49.22899
0.2786507,52.26129
0.2588522,51.800323
0.2722506,56.425095
0.21821831,53.069256
0.3083883,54.470917
0.25992674,60.025764
0.32920915,60.050434
0.3983512,64.024414
0.5201092,61.856606
0.68772656,67.200424
0.5712588,69.91731
0.7887091,71.41319
0.86937183,74.68705
1.0220083,76.024796
1.0512576,77.85976
1.2436581,85.89654
1.301323,87.30233
1.2490416,90.970894
1.4856236,90.02166
1.3957113,91.37273
1.5282731,92.47314
1.5605286,95.64523
1.5337864,95.92756
1.5697942,99.35946
1.553369,102.20754
1.591882,104.62959
1.5024127,98.922615
1.5830054,102.09962
1.620348,106.940414
1.5383415,102.276886
1.5742098,105.625046
1.4630383,107.32941
1.4504479,104.31217
1.4486489,103.17987
1.318898,99.76334
1.4172158,101.739975
1.3788142,100.56164
1.2840252,103.463875
1.1942269,97.26509
1.202051,97.59521
1.188191,95.20354
1.1807624,93.63372
1.0643773,90.63882
1.1641921,91.99699
1.055287,89.76139
1.0675741,89.66787
1.0561086,84.57018
1.1312245,85.614456
1.0027828,85.44498
0.9783961,80.984184
0.92528623,79.63011
0.9126819,78.61233
0.9273304,78.21951
0.8853276,77.66593
0.8518546,75.3209
0.6804052,72.99795
0.7682606,73.747574
0.6294275,68.73539
0.5595486,69.330765
0.5690472,70.096756
0.5680548,68.59324
0.5525378,69.15169
0.4886531,62.02884
0.45045358,63.617973
0.38671094,62.194584
0.45127457,60.67931
0.3869434,55.859394
0.3898843,57.95282
0.4245436,55.094036
0.35344502,56.84896
0.31217203,54.417713
0.37119132,52.342564
0.474852,55.31242
0.24841163,47.779472
0.25292546,51.02726
0.20527822,48.88762
0.13931762,50.077785
0.1869696,50.979774
0.105567746,49.781906
0.09249436,52.463104
-0.011015223,54.6999
-0.020966604,50.89256
-0.10092817,56.35954
0.034129262,55.93312
0.006382814,60.765835
0.09209768,58.20355
0.21177764,61.523945
0.211348,65.785164
0.43264765,65.8882
0.50479734,69.91073
0.59033495,69.79988
0.6435428,71.9038
0.7540762,75.576515
0.8273452,81.76706
0.97414964,82.166885
1.0776656,84.67836
1.0609647,85.31905
1.3127285,91.56936
1.2253641,94.96952
1.266964,94.817665
1.3148367,96.50959
1.3175002,96.61847
1.355476,99.03451
1.3667402,102.35351
1.365258,105.23138
1.3886112,100.67048
1.4440683,106.26479
1.342011,106.2761
1.3412015,107.065926
1.4309908,104.48002
1.2037908,106.69339
1.231952,105.45128
1.1694887,106.00167
1.2719799,99.14969
1.1528001,103.62612
1.115588,102.95411
1.0902889,101.91565
1.0698208,94.455414
1.0743421,95.02587
0.9971472,95.55214
1.0089617,94.90996
0.9742795,93.78452
0.90927994,89.64816
0.93528587,90.99603
0.95922387,87.02169
0.96130586,87.038216
0.81218344,85.52023
0.9442343,83.359055
0.8747711,81.236824
0.8452514,83.32911
0.8867845,80.44831
0.6856534,78.03084
0.66446555,73.48918
0.5546273,71.651115
0.70818615,73.90692
0.5665344,74.65412
0.5369731,72.43615
0.43460473,70.611916
0.5033448,63.22638
0.4526539,66.01585
0.41270342,64.58909
0.31389222,64.35608
0.2845271,64.10305
0.40397555,61.136383
0.28335914,61.115948
0.38450748,57.942413
0.35203516,57.99765
0.29325157,55.5294
0.34394813,55.174377
0.23275399,51.716656
0.32669172,52.158978
0.30693215,54.470325
0.2700045,50.588432
0.08140262,50.926407
0.16089848,52.121433
0.16267602,46.644028
0.06356329,52.78581
0.10210793,49.549263
-0.056906413,52.11844
-0.079004414,51.166813
-0.080731526,52.936886
-0.006721605,53.93765
-0.05504279,60.40549
0.1644699,58.6082
0.11794444,62.20348
0.19257183,62.605385
0.26246622,66.27456
0.3568392,68.20097
0.5495995,66.525185
0.53856444,72.94594
0.6849403,75.448204
0.7328819,75.24041
0.93433344,84.72031
0.9534484,81.96233
1.0499423,85.82076
1.0959829,88.0123
1.135077,92.15854
1.3319833,92.18355
1.3248409,91.99657
1.4074472,95.28888
1.3692397,97.774376
1.4347106,99.288185
1.3455497,103.141266
1.5199063,104.256226
1.4232991,100.44582
1.4387666,104.15902
1.4035711,103.858536
1.3300703,105.3852
1.4162052,103.960625
1.381171,104.731895
1.3108143,104.98253
1.2826555,104.10895
1.3447537,101.10257
1.3082576,100.77228
1.2521145,101.54175
1.3246766,98.27749
1.1931098,97.49252
1.1526366,96.78292
1.0791215,94.82528
1.0983615,92.80897
1.1674652,94.61573
1.0869273,91.80251
1.146617,89.614365
1.0073037,85.904495
1.0647558,86.44045
1.0427498,84.96029
1.006902,85.79444
0.9521488,79.972824
0.97906065,80.97038
0.89425325,79.85764
0.8521874,81.27419
0.8781853,76.74012
0.84626186,73.75279
0.79527617,72.44555
0.83712196,72.12216
0.7516493,67.82682
0.716999,65.757545
0.63456666,66.67855
0.4408262,65.38055
0.5858102,62.404503
0.44489703,63.62358
0.5801062,61.59919
0.50452894,61.467075
0.5858972,57.096806
0.5715243,56.936626
0.58811045,57.844124
0.54315495,52.846405
0.489796,53.47146
0.5828731,55.750717
0.5378528,49.637077
0.49472117,51.69767
0.44247913,51.068443
0.411596,51.515297
0.41958094,51.6212
0.37101814,49.591747
0.31833202,51.628414
0.2709372,48.585014
0.26329827,53.503967
0.195727,54.894638
0.19218801,53.173805
0.17777248,54.850822
0.35073483,55.50876
0.22281256,58.44101
0.37240586,63.220406
0.4706274,64.076744
0.48641303,63.567802
0.59553313,68.54073
0.7596626,69.35011
0.81860185,74.50085
0.97903776,74.142296
0.98479074,75.6116
1.1569622,79.71408
1.327411,81.03929
1.3395076,86.60092
1.3879179,87.06738
1.5219886,88.60686
1.5328199,93.121475
1.5404613,96.28944
1.626469,95.35352
1.5710877,98.12553
1.5932606,101.82414
1.7688475,102.79163
1.8210036,102.633766
1.776967,104.19617
1.6862178,105.39289
1.7591801,105.962845
1.6472281,104.55068
1.7008418,103.74002
1.6289831,103.7412
1.6946111,102.53677
1.5878695,98.77117
1.6245301,103.402626
1.5697379,99.77682
1.5718565,99.38408
1.5178024,98.527756
1.4613777,99.03809
1.3851533,95.426384
1.436971,99.03938
1.4294592,94.97512
1.3451223,90.615875
1.2501478,88.457054
1.3184998,89.589424
1.1576695,89.92878
1.4122032,86.8448
1.4849088,80.93301
1.2687291,85.0324
1.249924,84.409096
1.26674,81.93463
1.224425,76.94976
1.159957,75.71073
1.2004936,74.71333
1.050197,71.423325
1.089911,74.81686
1.0563174,69.09876
1.0035659,66.27709
0.98843855,71.24133
0.89594215,70.32182
0.9222723,67.17372
0.9011504,61.477375
0.7496199,60.180943
0.88814986,62.77335
0.8236336,57.585552
0.81638545,58.82423
0.86774266,55.572697
0.87932265,56.045376
0.8066247,55.74881
0.8982843,52.254986
0.68764466,52.72506
0.82293177,51.191334
0.8303395,49.0665
0.6851501,48.44861
0.81989235,47.500793
0.70559835,51.64519
0.620549,52.713657
0.64050466,52.535637
0.56202096,51.28128
0.4612623,53.996265
0.56375366,47.416977
0.46978334,52.333736
0.47540203,56.721203
0.4559391,59.597225
0.4445946,61.0213
0.67510307,57.833687
0.666123,62.499763
0.75047463,64.57469
0.9219578,70.074974
0.99673796,71.56348
0.96818125,74.77975
1.225702,75.70113
1.2559474,77.37087
1.4893835,77.945946
1.472493,85.604675
1.6565552,84.11011
1.5855261,87.59458
1.7879677,92.92564
1.7669482,90.63324
1.8016467,95.35647
1.8437737,99.60137
1.8296285,95.97344
2.0093887,100.78772
1.9008319,101.32485
1.9516817,99.71032
1.9840317,101.96821
1.9317153,105.74531
1.959079,101.308525
1.8634671,106.45455
1.9165717,107.82579
1.8059826,103.39227
1.9063551,105.00356
1.7641329,103.460236
1.8080178,103.03317
1.721175,98.94866
1.6256055,99.88168
1.6780096,99.84369
1.6262751,101.49503
1.6299375,97.006935
1.6070004,95.97978
1.5635139,96.29312
1.5572381,91.110085
1.473255,87.94014
1.5240201,89.354576
1.4986529,88.09025
1.6138624,84.72361
1.4184053,86.43974
1.3811318,79.54557
1.5107348,79.59627
1.4117339,79.10143
1.5351285,76.78923
1.3862746,78.600266
1.3375696,75.13586
1.3226771,72.937096
1.1847184,71.97276
1.2797018,73.08601
1.1187261,72.822395
1.115497,73.01924
1.0196964,68.074684
1.1758422,67.685394
1.0342904,64.86308
1.0674248,62.563625
1.0284544,62.413452
0.9711336,58.717922
0.9732483,60.53132
1.0453993,58.091927
0.9364359,57.57447
0.9323925,54.585033
0.9329636,57.374023
0.93613535,51.91504
0.80866694,53.903744
0.848982,54.13362
0.7973555,51.28136
0.7284836,52.402287
0.8113218,50.742832
0.6959439,52.206444
0.63750845,48.012497
0.5625069,54.23569
0.5525232,52.569923
0.5218146,51.78822
0.62306464,54.193478
0.53511673,56.205383
0.5833037,56.53811
0.64037806,58.974987
0.6517391,59.140644
0.69433284,60.490257
0.90753233,67.22539
0.95335543,62.197746
1.0466846,71.6218
1.121958,72.64258
1.3097303,77.117546
1.2442367,78.13093
1.5077393,78.19486
1.5116106,83.62784
1.6510503,85.67086
1.6705086,89.694984
1.7274735,87.93194
1.7317655,93.33712
1.8913156,96.903496
1.9004221,95.480484
1.8871517,97.45795
1.8206233,100.22263
1.8097146,101.769516
1.85512,101.74573
1.9798063,103.23047
1.8478763,100.95841
1.9460999,103.50204
1.9296439,103.752365
1.8736142,101.12825
1.8205326,105.638725
1.7473162,103.552605
1.8598294,102.36992
1.766285,105.11755
1.6570683,102.390114
1.6680295,96.84711
1.651997,99.0955
1.6541301,97.13566
1.4253806,92.98565
1.599564,94.72046
1.5121667,91.933105
1.5690042,93.82344
1.422088,91.09504
1.5816634,89.641594
1.3558693,91.10534
1.4243377,85.04815
1.4211138,85.237564
1.4214953,80.60712
1.4272368,79.884445
1.3389543,80.80913
1.3203439,81.246925
1.2792956,75.68581
1.2531617,77.61727
1.1257293,76.32562
1.0595223,73.77452
1.0415534,69.53632
0.86891097,71.49252
1.0156797,72.70784
0.84719795,69.25642
0.8947632,64.43158
1.0072256,68.34918
0.82906765,62.806847
0.71361154,61.643932
0.8096677,62.17734
0.7859577,59.1726
0.7748326,58.528233
0.8352932,53.119987
0.72787184,56.27914
0.73382175,52.23463
0.6473403,51.521343
0.71641076,51.38394
0.6643448,50.677166
0.60466474,52.048157
0.5213458,49.435673
0.59143233,51.92342
0.5824992,53.753742
0.39824393,50.6336
0.37819076,49.540504
0.3030112,53.99323
0.33447587,50.164104
0.3577179,53.800865
0.34278187,55.689842
0.31482217,55.04392
0.38063735,59.277637
0.46482006,62.064724
0.52559304,62.246845
0.5868502,65.16485
0.81510866,69.718185
0.8252259,70.84956
0.94728243,75.42856
1.1184151,76.77532
1.1223912,77.40666
1.1853242,81.3881
1.3409854,85.54391
1.4116131,81.71531
1.4211019,86.66637
1.5119454,90.7295
1.5309193,92.43969
1.627357,95.61891
1.559111,94.50638
1.5913227,96.14542
1.7123469,103.21924
1.735753,100.88181
1.6115774,105.27562
1.7079043,102.29076
1.6474274,101.74623
1.6705099,106.62072
1.5920042,102.3062
1.6450311,107.169266
1.57226,103.15146
1.5384246,103.75453
1.5406066,101.84001
1.485292,104.42527
1.4209772,100.338715
1.4229795,100.91915
1.3590001,98.36452
1.2931956,96.83475
1.2521551,95.48202
1.313882,94.66185
1.2156221,91.84776
1.2264094,92.456665
1.1490831,92.14737
1.2385917,91.18284
1.060378,83.57979
1.1807804,85.51638
1.0721526,85.38169
1.072612,82.08632
1.044359,81.51938
1.0037056,80.07912
1.0033047,83.85557
0.9036716,78.057434
0.9635696,73.51786
0.87607205,78.70518
0.8174778,73.967964
0.77776635,72.3444
0.74972296,72.339264
0.65454566,68.529305
0.59153426,70.04657
0.5746719,64.75281
0.5604065,64.250786
0.52319294,63.008846
0.5060566,65.00112
0.40044686,60.38606
0.38730103,59.26644
0.4118608,57.523884
0.4738499,57.684673
0.4436052,51.33975
0.43980786,54.414265
0.44352353,48.897247
0.49220628,51.777775
0.40183565,49.97591
0.46759883,54.979378
0.43552715,50.61477
0.2542182,48.864548
0.22246432,51.080963
0.17536196,49.80209
0.17191009,53.10765
0.006705644,53.127125
0.008123055,54.613277
-0.011583861,56.013462
-0.06601951,54.404602
0.03907263,55.538746
0.100959726,56.83887
0.2131384,61.811256
0.21438007,60.042732
0.2954397,64.03643
0.41842505,67.56487
0.56508976,69.69973
0.5820957,72.04813
0.7446443,75.8727
0.8490923,77.63178
0.8944907,78.96428
1.0454205,84.12988
1.0769899,83.94484
1.1798539,89.01515
1.2585124,91.90897
1.280427,88.73417
1.354633,92.71272
1.2584198,97.00995
1.2882701,98.827065
1.4092495,101.27034
1.4759797,97.97532
1.4084431,103.84356
1.4894006,103.871704
1.4015182,104.42646
1.4459536,105.73391
1.3343767,105.037766
1.3595033,106.20085
1.3724484,104.82059
1.1928903,102.47334
1.177693,104.695244
1.358542,103.13609
1.1709359,102.14884
1.2193205,103.906166
1.0882559,97.80613
1.0667405,99.809845
1.025222,94.12348
1.1415629,97.61304
1.0514104,91.657234
0.965474,91.961586
0.9051067,89.5252
0.9777375,90.3941
0.9321548,86.92216
0.879173,88.26659
0.9154159,82.327896
0.9382418,83.44541
0.8468881,81.865715
0.88938016,79.84034
0.7987056,76.45261
0.72818255,77.87025
0.6926422,77.22612
0.688733,74.031746
0.5630371,72.253006
0.61163634,72.43898
0.46270424,69.90144
0.39264628,68.13838
0.453688,67.90577
0.40831837,62.66378
0.3313356,64.48154
0.3166526,62.66775
0.42785588,61.958538
0.37166452,62.70301
0.3371427,60.727116
0.40474263,56.074055
0.29324386,57.204487
0.3748906,56.939953
0.32547042,53.666573
0.22184868,52.193165
0.32142878,51.062088
0.26253942,51.20636
0.2718537,49.79033
0.20449959,47.66846
0.05395707,49.676353
0.14559135,51.673233
0.064924814,47.726215
-0.026838446,51.857494
0.024445172,51.11241
-0.01974332,54.371655
-0.0941049,52.718555
-0.06069679,55.457317
-0.006130179,54.78963
0.08117015,59.42906
0.016867217,61.977997
0.18309364,66.64535
0.2752623,67.68909
0.30825496,66.89535
0.43452105,69.77497
0.56609935,68.4589
0.82833475,74.80449
0.7892923,77.09832
0.91462344,82.352394
0.99313325,85.06793
1.1025816,88.79027
1.1480733,91.69598
1.1794188,92.81475
1.1911731,94.086235
1.3101375,94.1283
1.3331254,97.9123
1.4627874,99.36426
1.4193945,101.28589
1.4329886,100.46502
1.3131485,102.57064
1.439001,104.39173
1.3802422,101.49102
1.3610986,103.07312
1.3424251,103.15886
1.4155414,104.92946
1.3148881,102.82412
1.2634048,105.92979
1.2762657,106.53867
1.2568045,102.20779
1.2262906,99.05265
1.1632782,100.642426
1.1466423,99.32388
1.1467515,97.41047
1.0755575,96.83787
1.0812954,94.11426
0.9974139,90.0662
0.9969344,92.50579
0.945844,88.90675
1.0103621,89.707726
1.0121554,88.540115
0.8982498,88.89805
0.8518154,86.76996
0.9099687,81.1954
0.93395424,83.16817
0.89464575,82.09973
0.9068479,81.20359
0.8396756,78.29023
0.9216604,76.560005
0.7957785,76.219055
0.7252604,75.053246
0.68846846,69.2125
0.64796704,69.48927
0.5360147,69.135956
0.55044675,70.904625
0.46791068,65.825806
0.537176,63.217457
0.53365743,63.39561
0.44922492,60.644814
0.4528802,58.43331
0.5748468,60.872746
0.4533616,57.151882
0.42012197,53.98168
0.4153565,57.055965
0.4007857,53.12655
0.44012973,55.899796
0.43070534,50.896255
0.4210091,54.50777
0.3763051,48.446205
0.26210675,49.726223
0.31078634,53.82791
0.205831,49.585953
0.12387769,48.59891
0.13615862,49.3411
0.13796026,51.45339
0.09688615,49.971283
0.040920608,56.08296
0.13176975,58.25713
0.23357835,58.345764
0.14611785,56.575714
0.21860746,61.013226
0.37784722,62.315285
0.4416485,64.888115
0.5632354,69.624054
0.5891276,70.623695
0.7549173,72.93123
0.80958045,77.93033
0.8889699,77.63627
1.0986165,82.954735
1.1432261,84.73372
1.3623152,82.97586
1.416377,85.433304
1.3529075,89.63866
1.5176927,95.097336
1.5943198,96.91562
1.5531528,101.260345
1.6398082,100.519356
1.6461796,104.70245
1.5498291,100.068214
1.5867797,99.83967
1.5302941,102.41886
1.6897352,104.940475
1.6192476,104.885185
1.5921601,104.94488
1.5723349,105.17605
1.5394987,101.56993
1.5282121,105.24064
1.4247904,102.623085
1.4626667,102.64787
1.4005245,101.21968
1.3908257,99.76907
1.4588917,96.241776
1.3583059,97.23819
1.33249,96.07821
1.2833512,93.25236
1.2546499,94.424736
1.4165373,89.56603
1.2622819,91.628586
1.2193782,90.26315
1.2601078,87.404274
1.2482066,86.33755
1.1775595,85.57005
1.3043782,85.332825
1.1412908,78.62427
1.2533607,84.203415
1.2033843,80.218216
1.1431487,75.94815
1.0858487,75.936485
1.0977832,74.3225
1.0467484,71.47028
0.98036623,72.1438
0.87457687,69.503845
0.9290458,67.095604
0.88410234,66.01801
0.798594,65.939354
0.7904195,64.47303
0.72233236,66.01051
0.7304758,63.64161
0.7911116,59.997017
0.7706815,60.452484
0.7290122,56.56021
0.687281,56.83442
0.7344074,52.541935
0.64421505,53.203697
0.66027725,51.722015
0.6635075,53.1556
0.7206591,53.156464
0.60646534,55.82603
0.67363644,51.8465
0.5614131,52.3217
0.43299267,49.796875
0.50706697,43.137558
0.45412004,50.9184
0.4230195,51.072906
0.37573838,52.993507
0.3976349,51.86607
0.44304645,55.631718
0.43245795,58.639233
0.546627,57.22414
0.54189795,61.277096
0.55615985,64.19869
0.65972584,68.7504
0.8276654,71.6704
0.96609676,71.175125
1.1327882,72.53095
1.1817247,74.436325
1.2943394,75.7933
1.3519546,81.79272
1.4701779,81.30737
1.5478203,84.377655
1.4914933,88.47712
1.6712945,89.863754
1.7513603,95.612724
1.7240813,93.5997
1.8699375,97.34188
1.7511756,96.06096
1.954655,99.12057
1.8469086,100.31955
1.9115027,104.5598
1.8858474,106.00275
1.8260146,104.551506
1.9742684,105.522125
1.9448998,104.86173
1.9437553,104.04293
1.7950356,102.84104
1.7608539,104.23369
1.7465574,105.2058
1.7224827,102.49552
1.7236996,102.712326
1.7175066,99.67397
1.7485831,98.381325
1.4745989,100.827614
1.585613,96.06632
1.6017064,94.89214
1.5337766,92.73719
1.4713185,93.89533
1.4644684,92.11804
1.4982717,88.44753
1.6228293,89.09461
1.4112964,87.75404
1.464631,87.01112
1.4790069,83.602615
1.4844259,82.67034
1.4021326,78.392654
1.4745682,77.851105
1.3036162,76.199844
1.3535372,76.17379
1.2329271,77.753525
1.1710033,69.11064
1.1327101,74.29714
0.9874219,68.61094
1.1415703,67.828514
1.0010111,67.50524
0.99902904,64.76283
1.0599169,65.603355
0.88832116,59.066906
0.9233228,62.654846
0.8654558,62.74589
0.91745394,56.871777
0.89539045,57.166435
0.97765464,56.24924
0.9543845,54.24894
0.9804519,52.001823
0.7902228,52.261562
0.817865,53.32492
0.8896763,50.32972
0.77434504,51.618317
0.81217235,50.92435
0.7215364,52.004784
0.64207184,51.769493
0.59693104,52.725147
0.6686557,49.32657
0.57855785,50.394093
0.5268985,51.690697
0.5797487,53.371452
0.6328864,53.37166
0.5998077,58.314823
0.71981347,57.60712
0.71761113,61.299175
0.8355781,64.25826
0.90345275,67.62179
0.9446525,66.99267
1.005578,68.289986
1.1373035,75.71773
1.2560645,74.82938
1.4252776,77.5846
1.4465748,84.83875
1.6598977,83.95814
1.6223037,84.806496
1.6590023,87.029236
1.8035216,90.49072
1.8905994,93.57019
1.9249287,94.450584
1.9525683,97.38409
1.8684574,98.98059
1.9417233,100.779976
1.8471415,99.557945
1.8993251,101.74937
2.0096343,104.42719
1.9048679,103.760056
1.9343368,102.230255
2.0794418,103.9199
1.8029367,100.81352
1.7785461,104.749054
1.8590636,99.71538
1.787811,103.30996
1.8856711,101.15239
1.7921518,102.54114
1.701369,98.63293
1.7083415,101.25018
1.648842,97.48884
1.6317191,96.65061
1.5751479,96.292274
1.5033833,92.87635
1.576843,91.05814
1.473219,91.60166
1.5047854,88.002884
1.3820795,85.86434
1.4751805,88.89725
1.3769845,86.986885
1.4683167,83.15296
1.3916274,80.562515
1.3744395,82.26621
1.3171718,79.20691
1.3628204,76.811165
1.2287033,76.83437
1.2027467,73.669525
1.1232764,70.24622
1.0887796,70.077736
0.982847,71.061195
1.0078874,70.875244
0.9333929,67.355965
0.90531856,64.58301
0.91203624,65.96299
0.86169773,60.045444
0.8193504,58.96585
0.7238451,63.744812
0.8443961,53.904602
0.89703995,55.302803
0.89511174,53.092678
0.8772404,52.87384
0.8023673,50.951855
0.8674434,53.69624
0.68399584,52.646286
0.70174295,52.482567
0.8192381,50.12598
0.70276433,50.313347
0.65972215,51.124466
0.51874685,51.694183
0.5967013,53.06211
0.46643934,50.315475
0.2819596,54.178143
0.41687068,53.8331
0.4626504,55.727356
0.4922323,56.49374
0.44922274,57.288586
0.5307682,57.169598
0.52303255,61.56938
0.6562616,62.70733
0.794627,65.08098
0.8377101,69.64813
0.9273994,70.07547
1.0816376,68.23403
1.1333894,76.43613
1.2584822,80.42733
1.4013544,79.72121
1.3011374,84.12686
1.4834197,84.51407
1.5466084,90.27389
1.6074424,89.667755
1.6824193,91.56987
1.6168457,95.32209
1.752179,95.39843
1.7165679,103.08134
1.7720716,98.55726
1.7461276,100.89264
1.726854,101.95892
1.7486612,107.66147
1.7871771,104.2789
1.6722047,105.45173
1.7435997,106.22214
1.7159902,100.81178
1.5630331,104.661354
1.6176537,105.55757
1.5551468,102.775185
1.5774568,100.7737
1.4958645,98.51221
1.5240031,97.209694
1.4070785,96.202385
1.4144481,97.05197
1.4583387,94.34324
1.3719723,94.85431
1.3727455,97.08058
1.3362485,90.56316
1.28672,92.33444
1.2590753,89.732414
1.1897932,85.78466
1.1655902,85.46836
1.1727676,87.503555
1.1458127,85.33566
1.1440334,84.38949
1.1726079,83.661835
1.0494598,78.09015
1.0026672,75.60131
0.9435284,77.95745
0.910484,71.91268
0.90000015,74.4059
0.87270766,71.79032
0.8586908,65.109634
0.7463291,71.39696
0.6994797,68.47741
0.7089066,64.72406
0.6996158,64.22041
0.5426058,62.58736
0.5383597,59.87258
0.58953047,61.884064
0.69712067,59.80615
0.49527696,56.475307
0.56965655,55.931343
0.6259604,53.704433
0.6028415,55.253815
0.51036805,53.82717
0.5402845,52.16359
0.46248227,53.385944
0.35557082,53.157207
0.3461984,51.237354
0.32440823,52.241642
0.22004463,48.481514
0.20883645,46.64766
0.23866783,48.158806
0.13157693,51.93835
0.21802068,53.577972
0.12261229,52.7575
0.103981495,52.0612
0.13013408,55.00075
0.15746488,58.125046
0.38661447,59.325176
0.4352829,64.31467
0.3961237,64.5153
0.57896507,66.21846
0.6182655,72.76612
0.7893365,72.813965
0.86575335,79.11363
0.9736589,77.50711
1.0260574,80.382744
1.1406429,83.45072
1.2311739,86.24736
1.2815276,87.921135
1.3243871,93.767456
1.3048329,90.87225
1.3417621,96.37061
1.4391028,98.330475
1.4336784,98.30463
1.4089884,104.24275
1.5327377,100.82416
1.4153847,100.36191
1.598889,104.548134
1.5579994,100.9765
1.3902062,103.11569
1.4925255,108.484695
1.3916339,106.30171
1.424126,101.63461
1.3037802,103.62441
1.3485099,101.78026
1.2694887,101.723976
1.2895206,103.559395
1.1716075,94.80526
1.1256858,96.62725
1.0672193,96.30826
1.085259,97.80882
1.0380043,95.76406
0.9393171,95.25016
1.0623288,94.58215
1.081176,88.83203
1.0033907,90.246635
1.0729426,84.47967
0.94353247,87.13998
0.9490132,88.11085
0.94480366,80.94499
0.9273146,82.190765
0.8408134,78.41758
0.7887199,79.753914
0.85521233,78.95426
0.70023346,75.46416
0.6599857,78.76489
0.7229685,76.609856
0.6387506,76.74173
0.54719085,69.0343
0.4353528,67.09507
0.46925285,66.8146
0.48946756,64.799904
0.40754408,64.78247
0.3949905,63.466167
0.37901175,62.84985
0.35470477,60.67624
0.3885133,59.385788
0.3492638,56.75797
0.33400404,52.277466
0.41589502,55.06477
0.3887094,49.6006
0.22688149,52.95854
0.36422792,54.715004
0.32333195,52.24117
0.2290684,47.21717
0.16740717,47.74472
0.015050525,50.542873
0.074563354,51.829678
0.03900093,49.457756
0.04365317,51.943676
-0.06350189,54.719624
-0.036248267,49.541348
-0.031128088,58.19287
0.008546713,59.06651
-0.035804424,56.666218
0.10110766,58.77312
0.17052372,56.49616
0.20349456,66.4683
0.44930938,63.897552
0.39116237,70.64213
0.4822883,73.63141
0.5591341,74.30592
0.7720829,73.90825
0.7560466,75.937454
0.8861778,82.76869
0.9196392,85.266815
1.122951,86.97446
1.179974,87.24853
1.2749256,94.38392
1.2435521,96.98281
1.2629967,96.079994
1.302711,96.462654
1.3520315,101.1684
1.2906119,100.04317
1.3510917,101.26846
1.3953786,105.719864
1.328876,99.97757
1.3178556,104.406334
1.4636364,101.67509
1.3480917,104.03019
1.2990285,106.620155
1.2093897,103.0134
1.2314535,105.19799
1.2455893,105.331696
1.2025385,99.6848
1.1001278,102.02781
1.1424456,101.744156
0.99293417,99.720474
1.063152,97.82639
1.0219885,98.73031
1.0144626,94.12829
0.958762,94.42469
0.8842828,92.38595
0.96207416,90.653114
0.86344236,88.735
0.89782566,87.19716
0.9691021,87.37999
0.9550014,85.524895
0.9127504,83.77321
0.86547107,83.03202
0.76432484,82.11737
0.76623243,78.988754
0.85180426,78.575386
0.7043964,78.39017
0.73924154,73.43937
0.6826882,71.61496
0.6172454,72.52338
0.5429581,68.85899
0.4129432,68.75726
0.5279478,65.31752
0.43651146,65.88882
0.43908045,60.5354
0.3498749,62.708187
0.27838624,63.21275
0.41203228,57.388954
0.4079549,57.223286
0.41321433,56.430702
0.35861793,57.512066
0.3447978,56.270584
0.4020793,52.77249
0.25405955,53.13065
0.3551068,54.944565
0.2980441,51.285545
0.3162368,47.874176
0.29189584,50.28535
0.09716636,47.52148
0.08501342,48.513424
0.13444425,49.488716
0.03617654,48.994583
0.13010104,53.423473
4.5989e-05,51.079536
0.111881346,55.869465
-0.021243751,59.0308
0.18024938,55.664
0.16308527,57.888138
0.21152952,61.310154
0.32221848,62.7509
0.34952345,67.019905
0.57571495,68.433556
0.5277242,71.35798
0.73944527,72.68983
0.8265831,77.78273
0.91759133,78.179886
1.0427113,82.18484
1.0710973,81.13773
1.1893793,86.45436
1.2443107,88.76008
1.4104239,92.422
1.3903106,92.74009
1.4210204,97.27875
1.4255947,98.378456
1.4324074,100.05089
1.5706207,100.6455
1.5462598,101.340324
1.470673,105.693886
1.4824765,101.61027
1.5143188,104.75585
1.51434,102.05327
1.5289384,103.79716
1.5223044,103.90256
1.4343873,103.601654
1.3913866,104.25332
1.3825625,101.42358
1.4582105,103.08018
1.2892668,99.430145
1.2607119,95.26532
1.3049498,99.25004
1.2535616,97.64482
1.2230874,96.12191
1.1613894,94.80504
1.1910254,88.83924
1.0583295,91.98268
1.1443881,89.328
1.0768353,89.82093
1.1903046,85.036545
1.0943735,85.70257
1.1538107,85.57846
1.1269519,84.59485
1.0763043,83.349205
1.0184253,77.24137
1.1070434,80.91192
0.9921031,74.84739
0.9149296,75.545044
0.8562377,72.96029
0.80460113,69.34219
0.8446066,75.20589
0.8016551,68.95692
0.6985173,68.72947
0.67447114,68.946144
0.7485,66.4985
0.607281,66.73366
0.69711006,62.26391
0.6433511,63.202938
0.5690014,61.934654
0.6636193,62.3662
0.6091915,57.801655
0.6084649,54.93794
0.7169032,54.497673
0.6698847,54.17085
0.5640188,51.122395
0.6385733,54.88844
0.5328283,51.644268
0.5506078,51.489483
0.4164907,51.170895
0.49251515,51.91562
0.30150992,52.124638
0.4175856,51.057854
0.35394526,49.65318
0.1580851,53.156395
0.2940393,50.12671
0.33731708,54.314014
0.3698957,57.63236
0.33055395,60.45782
0.41560832,58.80287
0.46128494,63.676212
0.51149994,61.862694
0.71971935,63.24789
0.8300039,67.002525
0.9444153,73.07129
1.0103788,78.49639
1.0562357,77.45367
1.1200073,78.91583
1.2263292,81.231
1.4166217,82.83486
1.5500381,87.21659
1.514251,88.99716
1.7147698,91.348175
1.6524282,96.34789
1.6029121,98.813576
1.8026568,99.156364
1.7412702,95.37487
1.8608686,100.89391
1.7901555,102.037766
1.8475338,105.70159
1.9608362,104.11771
1.7740496,105.21556
1.7557204,104.61971
1.6199651,105.49168
1.7841561,105.45409
1.7685578,102.01927
1.6687952,103.02729
1.7509552,103.85439
1.6987076,102.131165
1.5883734,106.73512
1.5656849,104.01768
1.5354084,99.1696
1.5247256,96.67603
1.4841665,93.306694
1.531395,92.307884
1.4623213,93.151566
1.4444586,91.551895
1.4048396,89.666756
1.4823188,86.049446
1.3851764,88.589455
1.4095817,86.10989
1.4384179,83.946945
1.4563658,83.15918
1.2636002,79.24907
1.3675344,82.704666
1.264584,79.96327
1.3092,78.90935
1.2823292,75.13787
1.1875589,72.3167
1.2459627,69.52906
1.0141094,69.83725
1.138247,70.63972
1.0226941,69.45023
0.9075371,66.38405
0.8554303,62.93961
0.9422406,65.21953
0.82933277,65.99336
0.8871343,64.299835
0.91712785,60.287785
0.9181136,55.32582
0.86394835,57.112736
0.8271391,56.171917
0.7424842,53.68172
0.81904227,52.864925
0.88768595,53.45759
0.7474841,55.533447
0.8136302,47.04693
0.8151118,50.88249
0.6751038,50.243305
0.6449371,48.812428
0.7216473,52.52849
0.5574541,50.48509
0.51499254,50.042965
0.49886033,53.65776
0.49796256,52.796745
0.52362084,53.24059
0.44909304,57.441105
0.62350816,59.70378
0.66073215,56.169643
0.81479746,60.479214
0.7888553,64.21988
0.89414954,66.14483
1.0958866,68.88684
1.0942895,70.31046
1.2089686,75.9808
1.254432,73.95694
1.3950795,80.92296
1.4508632,83.17393
1.5364286,87.32396
1.6866165,87.4228
1.6987278,89.399185
1.8509198,90.79593
1.7534168,94.84323
1.8420154,95.66188
1.8645011,98.917854
1.8681226,101.8694
1.9371663,101.90701
1.9570925,101.49989
1.982116,103.15259
1.9720128,104.99303
1.8886746,108.11813
2.0592525,101.0228
1.8983728,100.977585
1.8205112,105.50636
1.8922111,102.2892
1.8244781,98.40227
1.9696412,104.910416
1.7787505,100.46848
1.796676,96.06474
1.6817553,100.74852
1.640289,95.68932
1.6422806,94.075005
1.624949,96.36685
1.5890588,93.77744
1.5319057,96.12737
1.5243005,91.0286
1.5178858,93.88444
1.5794593,86.6154
1.5928853,84.89279
1.5405655,86.0573
1.4386426,81.1276
1.4577373,82.8142
1.4563127,77.93829
1.3113978,85.21145
1.3148905,76.3146
1.2238952,79.75286
1.2840655,75.842094
1.1618409,72.43099
1.2344024,71.62762
1.1147568,70.2878
1.1903727,69.87944
1.1259849,66.30754
0.9676524,67.886826
1.0474801,66.51221
0.87373996,61.00233
0.9308215,64.18125
0.85286534,58.61417
0.89902526,59.93086
0.98875934,57.731155
0.8721861,52.70358
0.86222297,55.854908
0.8447781,51.76829
0.86784816,55.04058
0.8584419,51.68745
0.919977,50.735134
0.772222,54.148594
0.8257085,52.224926
0.65522283,50.649197
0.66871786,47.039047
0.6756698,50.08696
0.57621235,48.2979
0.5172764,55.48833
0.5244243,56.041325
0.5073617,52.71211
0.46043307,54.051373
0.51526284,58.626526
0.48952413,56.62027
0.5408353,61.31104
0.69988185,60.32254
0.7119542,58.623077
0.79136324,65.71919
0.8410129,66.36328
1.0343535,70.82463
1.2044423,74.00673
1.1800942,77.05827
1.2914959,78.39745
1.4508237,81.642876
1.5795262,86.9538
1.5884115,89.44464
1.7803551,91.59826
1.7396452,90.375824
1.7799556,94.13333
1.8456339,95.49633
1.8058015,97.73239
1.8191239,96.53002
1.84135,102.73491
1.8535943,103.027336
1.9189352,105.367294
1.861602,106.66198
1.8477236,104.9054
1.7812606,108.064415
1.7323259,104.57529
1.7921296,103.76379
1.7551365,104.2942
1.7113036,105.89656
1.6505175,101.851746
1.6032789,102.02838
1.5874319,98.81845
1.5389572,98.908455
1.5588083,97.65354
1.5104563,98.09643
1.4373783,94.503006
1.4335121,95.587456
1.4619734,94.57372
1.3756298,91.98538
1.3723445,90.0508
1.4007037,88.10454
1.2868471,86.39431
1.287552,86.09151
1.3152326,83.76821
1.177298,83.80619
1.2581723,83.63105
1.1720804,77.31846
1.1850456,78.26737
1.066742,78.18542
1.1415347,78.29587
0.9767331,72.19088
0.98242,72.21363
0.92683375,68.83259
0.8537666,68.04048
0.8513924,65.37671
0.72249824,64.87714
0.6836266,67.39312
0.6941795,62.96573
0.7244901,62.6664
0.68398964,58.991005
0.6315049,57.743805
0.5632723,59.800518
0.66378015,55.977936
0.68525594,54.90937
0.6541478,55.54982
0.7003774,54.007492
0.73573256,49.557438
0.54411536,52.81925
0.6244895,51.43444
0.42561617,51.027683
0.5393448,48.38642
0.3713706,48.043137
0.28609532,49.595764
0.3779733,52.15931
0.3439721,53.46263
0.16757837,48.515213
0.22261168,53.925
0.2410729,55.479927
0.22182466,52.677864
0.36935997,55.05797
0.31119296,56.784386
0.3407516,59.961933
0.5016723,63.69709
0.6018763,64.93221
0.6476347,70.7004
0.803204,70.493866
0.8890476,75.85395
0.98046285,78.78705
1.0599387,80.201454
1.0759717,81.159065
1.1237499,85.57442
1.3388791,94.08149
1.3885132,88.33089
1.4364126,94.684845
1.4694109,95.32496
1.4380596,93.72351
1.6070923,95.56477
1.4535912,98.83848
1.5570884,98.66454
1.5250499,99.57093
1.5820068,104.53006
1.5151643,107.69392
1.5801239,104.68329
1.5273619,104.398506
1.5044515,109.10526
1.4323376,105.35188
1.3917067,104.52105
1.4823083,104.17117
1.4144113,103.184456
1.3378952,102.30423
1.373525,102.47208
1.303333,97.352806
1.2435092,99.25489
1.2225162,98.0827
1.0923002,95.75256
1.1296906,94.097855
1.04853,92.92561
1.0530778,89.89512
1.0484436,90.94178
1.0111897,90.427345
1.0069593,86.543434
1.0039824,86.03004
1.0150033,86.647766
1.007853,81.22734
0.9737275,80.867035
0.87583584,80.17195
0.87761915,77.53192
0.8950855,76.50203
0.65478575,76.94554
0.82995296,71.27036
0.5546038,71.01118
0.719652,71.52534
0.652643,67.60003
0.5651144,67.96008
0.516924,65.478134
0.538813,63.432743
0.49692264,67.46516
0.3879469,62.13808
0.41648802,60.59397
0.39533323,60.71209
0.42384505,56.254467
0.52955973,58.980324
0.42261374,56.692024
0.33016405,56.229115
0.3365548,49.997032
0.29588324,52.13648
0.304141,50.659027
0.2900635,48.576
0.21785252,50.64141
0.36354893,50.15993
0.20534638,52.257504
0.09965148,48.53377
0.06677489,48.466557
-0.044952806,51.999397
-0.07461193,51.06236
-0.034767117,55.586224
-0.04079263,54.40709
0.08101719,55.5085
0.09438603,59.992527
0.08637638,59.1367
0.20056975,64.42779
0.32671165,66.33078
0.395331,67.11218
0.41112489,67.760956
0.56478226,74.15446
0.6545047,75.61615
0.7933034,78.107506
0.8023237,80.1531
1.0592415,81.112144
0.98388046,84.71197
1.0250698,85.08413
1.2569326,93.84083
1.2353603,89.45902
1.2327079,91.052895
1.337336,98.860245
1.3163406,100.643
1.3853974,101.92227
1.389629,101.86872
1.3401966,103.27528
1.3824902,106.649666
1.3058293,101.659515
1.2811005,100.151886
1.3542467,105.78216
1.4252338,105.562675
1.3157701,105.82448
1.3542334,104.81271
1.2722291,104.438446
1.1788384,103.54946
1.1545631,103.79998
1.1056123,103.13115
1.1130631,101.804
1.0972286,99.057724
1.0818926,98.95356
1.079497,97.48603
0.93104607,95.80091
1.0168962,91.494736
0.9853356,94.750656
1.0155376,88.7775
0.93759567,88.23268
0.937563,86.1856
0.8109993,84.85663
0.9349951,84.0265
0.8161906,83.5409
0.78999454,80.224464
0.80459255,76.84132
0.7952966,79.22965
0.6968977,72.93618
0.72191465,75.79002
0.68367773,72.98923
0.5076955,71.26543
0.5812432,71.92546
0.50786567,68.54198
0.428465,67.68578
0.37401387,71.97783
0.3825252,66.23191
0.39440447,64.925964
0.48660216,63.63898
0.38438013,60.688625
0.4325613,56.44322
0.31756333,58.570274
0.369836,57.786327
0.4018847,54.072132
0.287066,55.80069
0.33074614,55.878944
0.22593194,51.84858
0.23726149,48.90289
0.37605152,52.225857
0.21809752,48.85755
0.28274518,49.492577
0.07942575,51.178043
0.02619232,49.222034
0.059974674,44.60694
0.043965753,45.769646
-0.014135289,49.27936
-0.08810962,53.64331
-0.0017699285,51.47935
0.07465778,55.85601
0.08390979,57.335056
0.11832224,59.287056
0.16626027,62.41349
0.15656127,67.336136
0.4438255,66.894066
0.44876856,69.08676
0.45078427,72.9871
0.6482644,72.7763
0.8300687,78.098145
0.9470827,77.31516
0.96875477,80.46644
1.0355703,83.42199
1.0309342,86.48621
1.2680922,88.81329
1.2966795,93.05688
1.3387657,95.48654
1.511544,96.08361
1.4528881,98.8727
1.3849871,99.64912
1.5443363,100.70426
1.4455669,102.1346
1.5639943,104.047226
1.3936349,103.21431
1.3949475,105.560165
1.4560715,104.22754
1.4551593,106.422134
1.3920785,102.163216
1.40813,104.71703
1.3769119,105.12011
1.2447337,100.53368
1.3052924,102.180664
1.255101,99.48513
1.2481704,104.225075
1.0791978,97.096306
1.1448238,95.69655
1.1088865,92.9315
1.1423308,93.65309
1.1187984,91.306496
1.0893735,90.61863
1.100392,93.44937
1.0067614,90.550255
1.1244321,91.377266
1.0653435,85.29444
1.0438766,84.88816
1.0462412,83.35238
1.0453503,84.767876
0.9753858,79.54573
0.98354656,75.51093
0.89145845,75.46703
0.97710997,72.255356
0.79719937,73.506996
0.8104248,72.71613
0.6987084,71.87705
0.7594875,67.18612
0.76075834,66.71206
0.5261943,66.86656
0.5517199,63.77534
0.54985815,61.35215
0.41499737,60.46155
0.579082,55.81123
0.5869364,61.97308
0.5070417,60.069412
0.50695413,55.31794
0.50570285,56.100655
0.641392,54.07907
0.50658154,54.585705
0.5638307,50.35872
0.4973958,51.284405
0.47806808,49.13635
0.41636392,51.24239
0.37680504,48.14513
0.351903,50.329163
0.34301916,52.1858
0.30324414,51.9606
0.2930631,53.605644
0.22998565,52.22095
0.09452359,55.220757
0.2567998,54.567326
0.35254008,57.606018
0.3210942,61.058796
0.41872036,59.27536
0.5360283,62.903458
0.50251245,61.852806
0.5395269,67.15293
0.686576,68.274536
0.940444,72.65367
0.90932155,74.494484
1.1086009,78.43111
1.1229473,75.329994
1.2319694,84.09905
1.402289,83.274
1.5447401,91.72799
1.3620098,91.80633
1.5344304,90.840004
1.6680294,95.84128
1.6805855,96.24871
1.6423744,100.469406
1.6010187,100.25765
1.6016638,101.68072
1.5989432,104.45709
1.7246486,102.75545
1.6446358,101.60255
1.5904498,105.12513
1.6877333,101.41012
1.6525981,101.20457
1.6721209,105.59527
1.5403163,105.96776
1.545661,98.87957
1.6477357,103.72579
1.5887522,99.50709
1.5769852,99.983284
1.5536549,98.16048
1.4654621,100.72484
1.338302,96.83605
1.3992906,89.853424
1.4579124,92.7696
1.3530775,92.91825
1.3804475,88.49956
1.4407593,93.47981
1.3378781,87.73494
1.279387,87.11227
1.2650331,87.00106
1.2747116,84.35446
1.319809,79.421936
1.2231158,82.62905
1.1322073,75.939964
1.2422068,76.582565
1.0790571,77.55512
1.1554139,78.37676
0.9908006,74.25941
1.0023941,71.651375
1.0288317,69.57475
0.9305947,71.14083
0.91081905,65.55967
1.0389087,67.63344
0.7950773,62.72665
0.80288184,62.462196
0.83952236,60.112736
0.82615346,63.876305
0.7322438,55.964016
0.78454083,57.54371
0.80470276,56.61287
0.72977614,56.574955
0.7581403,52.652412
0.87488836,51.064552
0.8518367,55.180668
0.74224067,52.93573
0.8858966,52.87015
0.6546624,47.571083
0.6983061,51.46198
0.71131307,51.081425
0.5079099,51.119205
0.6083261,52.796143
0.45653304,49.197124
0.44968143,50.68265
0.48614115,55.166996
0.46455014,54.25994
0.5562426,57.386322
0.54598063,56.719227
0.58357906,59.532204
0.65187514,60.691944
0.77190834,64.53448
0.860475,66.60534
0.9266875,68.10836
1.0819649,70.27326
1.2346509,72.202095
1.311014,79.275116
1.3993394,83.17836
1.497996,84.42394
1.5128173,86.273415
1.6848246,83.38435
1.679964,90.77377
1.8335774,92.48528
1.8653568,95.90519
1.8197904,101.52111
1.8663679,96.57268
2.014744,100.31616
1.8766261,100.57101
1.9627644,103.82976
1.9026191,101.25379
1.9747592,101.6691
1.8890657,105.02021
1.8770082,104.341934
1.8144315,104.43559
1.845621,103.20189
1.9219468,106.90825
1.8056126,100.11199
1.870464,100.64382
1.7325056,102.45281
1.7310425,102.24313
1.7548189,97.64724
1.7096367,97.403206
1.763685,95.55775
1.6050531,96.529854
1.5586498,96.3
1.6084555,89.903046
1.5625658,91.13696
1.5036707,87.38225
1.498533,89.71109
1.3790468,88.14745
1.4693708,84.73981
1.497036,84.24787
1.4331506,81.18542
1.346514,80.62382
1.3928597,78.5639
1.3087047,80.095604
1.2893565,74.55076
1.1751033,75.86772
1.2154756,75.54934
1.2426659,72.51489
1.0973455,71.15837
1.03703,71.348175
1.1025922,67.74875
0.943559,62.96876
1.0152433,65.21658
0.99818206,65.60325
1.0457903,61.582706
0.9913249,60.1901
0.8971618,61.9075
0.98996913,59.363464
0.99531096,56.407917
0.88543653,56.84801
0.9700566,56.040104
0.88806355,51.52111
0.8571157,55.689358
0.91220856,51.275684
0.82259154,48.59572
0.78231645,52.184647
0.6880351,47.553524
0.64225143,45.59116
0.6757566,49.56834
0.58133096,50.30747
0.58700067,52.503006
0.5587777,54.585888
0.5551414,52.572117
0.5122752,55.301678
0.619507,55.1025
0.5254117,55.940372
0.5441317,59.1031
0.7266778,62.24074
0.78841513,66.39064
0.9328895,69.49575
0.95854217,71.21376
1.042796,71.5728
1.2270454,77.50032
1.4377451,77.743706
1.4362832,77.29497
1.4601238,83.25583
1.5194545,85.08896
1.669212,88.52961
1.7306604,89.2598
1.7643721,93.06607
1.8197379,94.179405
1.8120998,97.073845
1.9377366,99.8492
1.9425999,97.81624
1.9063702,104.33739
1.8048253,100.22421
1.9248267,104.56456
1.8813987,102.95475
1.9360528,103.45483
1.8606673,103.560425
1.7891501,104.44435
1.889492,104.805984
1.90341,104.56751
1.7682409,103.114555
1.7086827,100.43447
1.6720371,101.14517
1.7237384,98.70823
1.4090147,99.14892
1.5180255,100.19676
1.5624,95.68638
1.5008314,95.67689
1.548295,93.49715
1.4330823,90.65092
1.4433001,89.51395
1.322082,89.63331
1.4359298,88.94546
1.3925569,83.009125
1.4888436,85.457275
1.4451976,83.57961
1.352438,85.132385
1.3007857,80.264854
1.2551608,75.726425
1.174916,78.06265
1.3129135,73.76525
1.1726427,72.20039
1.1074622,74.64441
1.0470259,69.49321
1.0424669,71.1797
1.1006116,70.30902
0.8823334,69.71842
0.89592266,67.264465
0.8769794,62.38206
0.6230348,62.013206
0.9088324,58.647774
0.85079366,61.616154
0.83886147,60.448742
0.7552084,60.470413
0.7789389,56.624626
0.770768,53.100365
0.6999519,54.278465
0.7545556,52.42746
0.7361568,54.53001
0.7285542,50.685257
0.64459294,55.315697
0.6634855,49.431732
0.5187651,53.26985
0.5823295,51.35376
0.5431247,50.558872
0.44980147,53.90385
0.44932616,48.881096
0.40570748,52.74842
0.3813312,53.671627
0.33308712,52.081596
0.36004058,56.539185
0.38340232,57.527073
0.43199646,59.038563
0.5353031,58.52402
0.5929717,63.379307
0.7306843,69.514046
0.7640598,68.18575
0.95554084,68.97675
1.0150428,76.84038
1.0665232,74.46457
1.186617,76.720314
1.3062407,85.22235
1.313636,83.85279
1.5109178,87.70079
1.5690864,89.66177
1.5552657,92.6409
1.5548218,93.619156
1.6059579,97.90301
1.6651247,98.17204
1.7324061,101.09524
1.7852526,102.783295
1.688389,100.68831
1.6227449,101.62702
1.6528537,104.10201
1.6081889,107.628876
1.6736217,105.12793
1.6465733,106.12604
1.4883157,103.17642
1.5632669,103.50772
1.5081522,102.27774
1.5132742,101.472786
1.4863174,101.38574
1.4183605,101.38225
1.3693746,96.0583
1.2652274,97.911194
1.2867639,93.32389
1.1531904,94.14313
1.3311595,95.171425
1.2971344,93.07002
1.1626629,89.60681
1.2238961,89.83499
1.1287628,85.02562
1.0660647,84.031006
1.0832245,87.631874
1.1916126,83.229515
1.0918568,78.96499
1.0167143,82.96143
1.006486,82.89273
0.9533372,77.95228
0.9167676,75.09586
0.8421135,78.51621
0.88976395,73.33136
0.79737127,71.48237
0.72471684,69.27587
0.69085836,68.46945
0.7362538,67.08114
0.53156817,67.8118
0.5984543,64.0582
0.42461473,65.929855
0.41341278,61.131115
0.54437906,61.91969
0.5087353,59.575012
0.45097136,57.287632
0.53679836,54.860252
0.31921387,56.095272
0.39177123,54.208954
0.42069715,52.86693
0.42468083,54.188454
0.43143257,50.443848
0.3116073,49.087856
0.29074112,53.422287
0.25862393,52.467148
0.21213402,51.70556
0.121446185,50.49304
0.07769092,49.37606
0.13325791,53.10834
0.047569484,50.61749
0.039143384,53.365353
0.106050216,54.506096
0.12778088,56.340717
0.10780601,58.599987
0.2048437,59.869267
0.28096256,60.915115
0.41232744,66.75501
0.49372032,67.13407
0.5167365,69.50723
0.57038885,72.97264
0.70918226,75.53241
0.88880336,77.99993
0.9140168,81.22423
1.0973823,86.01552
1.1726571,88.19897
1.087892,87.936386
1.2224606,94.85682
1.2624081,94.03529
1.2821169,96.87722
1.4635527,94.45184
1.2948989,101.81406
1.3554987,100.82658
1.404019,102.57001
1.3644645,100.56746
1.3408214,100.831436
1.5330014,102.19323
1.4435717,103.47732
1.3189718,104.563194
1.3788046,102.86032
1.3511356,105.57292
1.2720522,102.11741
1.3199737,101.59575
1.3108983,100.97045
1.1464055,100.85238
1.2086377,97.82035
1.0309441,97.59215
1.0416269,97.19668
1.0317214,96.44233
1.0653725,93.48772
0.9659796,97.16732
0.9828933,93.16861
0.9141874,91.01901
0.9549073,86.719154
0.9392792,87.05368
0.85083115,86.88157
0.8493295,85.202385
0.9525559,82.188
0.8991667,82.377846
0.8412707,82.74443
0.85299474,81.4043
0.73561543,79.654366
0.8246051,80.045906
0.61091745,74.93199
0.6292265,72.477844
0.63784087,71.017166
0.62345105,69.17225
0.50626546,67.1884
0.57927,69.50933
0.30361024,65.32807
0.4107617,64.82851
0.43265048,62.235054
0.35398692,63.835613
0.3181581,60.652233
0.37741455,57.07423
0.32827288,57.224197
0.2572475,60.58384
0.39969215,56.083107
0.33074978,54.400593
0.3049712,57.51054
0.35650018,51.04883
0.11259723,50.87712
0.2568704,49.18891
0.11933532,49.64579
0.1440771,49.514603
0.03246344,50.637028
0.03789019,50.895798
-0.060312077,50.728634
-0.115067475,54.927757
0.024754826,52.046986
0.040976543,53.59112
-0.07451097,57.811806
-0.013684086,54.992085
-0.013633656,58.003162
0.08079034,64.08487
0.20244582,63.97484
0.2131494,65.89703
0.36751127,67.12224
0.5041737,71.21234
0.50115335,74.85241
0.58239913,75.58691
0.74281025,79.27756
0.831802,81.05055
0.98743373,80.950584
1.0995363,84.953445
1.0815606,88.64474
1.2262523,91.86795
1.2272403,92.796745
1.2064389,96.83615
1.2518481,96.618416
1.343179,99.53836
1.4314531,97.205055
1.2831789,100.86665
1.30648,100.35169
1.3500462,106.497246
1.4572967,105.41812
1.2962552,103.73594
1.4109796,103.4589
1.381772,102.82229
1.2769656,101.78627
1.4249569,103.89826
1.2514678,104.86034
1.2704389,105.7341
1.2550702,102.71748
1.2369199,99.79558
1.1376215,98.47811
1.012046,96.33857
1.1067207,99.01388
1.1409497,96.57422
1.0801721,94.061874
0.92568994,93.64999
1.0082655,88.8884
0.9393094,88.57415
1.0990208,84.979324
1.0377613,89.337685
0.89034975,84.32632
0.8890568,80.64868
0.8204903,83.26344
0.9191529,78.61158
0.8184173,79.73727
0.787181,76.643906
0.7918778,80.52172
0.74323446,76.62716
0.79367787,75.626144
0.74013215,75.94577
0.5596755,70.42685
0.6405019,67.63822
0.59382784,65.50376
0.4637878,67.95363
0.48691723,62.496723
0.4436151,63.29596
0.48694566,63.541687
0.40331006,61.404736
0.47177044,61.483337
0.43590865,57.591602
0.5274488,61.03368
0.421234,56.436123
0.5015999,51.937176
0.42871794,51.186054
0.42952693,53.397198
0.36128005,51.831787
0.33278275,54.65036
0.29701748,49.7396
0.3261431,47.608555
0.19306774,50.49386
0.18534407,49.330032
0.12814787,51.351406
0.14495298,49.56751
0.19172443,52.838108
0.15549959,55.63416
0.06365898,57.91492
0.15192384,59.10896
0.2329819,59.301193
0.24611124,60.83974
0.43683636,64.74721
0.39496475,66.07278
0.56312764,69.301834
0.6730714,68.11295
0.85683686,68.9414
0.8970379,77.81145
0.95626247,79.0314
1.0499182,82.46652
1.1968895,82.829094
1.2271969,86.01875
1.3893679,89.12897
1.5587585,90.66058
1.4223226,93.16964
1.5097481,94.69026
1.561229,97.808556
1.5664959,102.30295
1.5699317,101.290306
1.5454483,102.39057
1.5738791,106.374435
1.691291,104.622925
1.6744177,100.10309
1.6580607,100.68584
1.6417687,100.37588
1.559856,106.90436
1.6539991,104.1002
1.4332147,100.41726
1.4919907,102.73805
1.5459055,101.28945
1.4406409,98.499664
1.529933,102.04833
1.3816881,101.17063
1.373398,98.20612
1.3097545,97.442986
1.2872014,96.397865
1.284119,94.14208
1.3244408,91.976654
1.1318579,91.0349
1.1947212,89.94247
1.2548078,88.494804
1.2014112,85.858604
1.2120643,84.48545
1.1866982,82.16411
1.199682,80.06778
1.1527271,80.5013
1.1564656,78.45261
1.0496672,81.83611
1.1346961,73.50143
1.0760493,77.83596
1.0466905,71.5712
0.92845654,74.44992
0.9568007,71.20125
0.7171391,69.24883
0.8110788,66.81389
0.7268379,66.49844
0.72864395,63.449936
0.7363136,59.583668
0.7653316,63.97577
0.68816113,60.928535
0.7869261,60.673637
0.8200336,56.81416
0.7775516,54.12485
0.77543795,57.375896
0.7475874,53.749435
0.6508944,54.42762
0.6419499,56.58712
0.74408406,50.53745
0.66749907,52.070892
0.5573157,51.19764
0.5310785,49.489403
0.4587221,48.306236
0.45264724,50.400043
0.38049182,51.173836
0.35762128,54.639015
0.34905133,54.14558
0.3467029,55.44618
0.40440178,56.409603
0.49473345,56.880585
0.47434804,58.273846
0.5894505,63.988823
0.7843635,63.03354
0.7759893,64.12542
0.92372906,68.265526
0.97376287,72.44085
1.0157567,75.56628
1.1388521,77.682045
1.2956612,76.552086
1.3871679,85.55292
1.4413744,82.69246
1.4593705,85.319496
1.6058177,86.293335
1.6782168,95.048035
1.776001,92.10088
1.7419394,95.91344
1.9137641,98.13453
1.869057,100.15895
1.7925256,99.79708
1.8833874,102.30142
1.8571997,99.74727
1.8427756,103.03402
1.7773546,103.531784
1.8370752,105.03259
1.8225136,103.701256
1.8626752,105.33475
1.9532447,100.655136
1.8270838,101.31777
1.7171328,104.27989
1.7720492,101.9477
1.7237048,100.811806
1.5280877,98.924965
1.6763612,101.05569
1.5390605,93.578224
1.551562,93.59209
1.5982472,93.721466
1.4481566,93.03615
1.5267541,94.213974
1.5544362,88.892525
1.5287946,88.961586
1.4754027,85.47196
1.4626025,84.76882
1.3961184,83.52338
1.4470615,82.952805
1.4272176,83.98748
1.3997394,79.12235
1.3447316,79.967
1.3654974,73.09265
1.3136629,72.99973
1.3512795,74.689
1.1741565,75.41441
1.1406194,72.00834
1.1697296,71.4865
1.1737211,69.05988
0.98293793,67.713524
0.92563117,67.25357
0.9709617,67.6861
0.94076985,60.68408
0.9540667,62.453747
0.9203993,62.914692
0.9577012,59.071663
0.9339939,59.450893
0.85521454,54.765297
0.942979,58.96332
0.94344974,52.66737
0.9916195,55.26522
0.8040149,51.31876
0.9557955,52.662807
0.7802617,51.626698
0.81328493,50.00589
0.73551416,48.365715
0.570494,49.784695
0.57266927,46.911797
0.645733,51.047035
0.6544923,48.708454
0.542588,51.576645
0.5434677,53.619328
0.5946258,54.975582
0.602011,58.44542
0.65495086,59.306896
0.8151248,61.80162
0.75106686,63.5229
0.9222936,65.558426
0.981408,70.85056
1.0161177,71.391464
1.1956258,72.75431
1.2633713,73.00586
1.3348848,78.34665
1.5315126,78.90823
1.4985341,83.27427
1.7707112,85.149796
1.7794764,93.710266
1.8313721,88.90555
1.8447849,94.859116
1.8478686,98.027664
1.9540796,95.72788
1.9797976,99.54676
1.9824054,102.92783
1.929576,100.76427
1.9283152,103.56391
2.016151,105.07879
2.0285244,105.29457
1.9331728,104.862885
1.9954734,103.389656
1.8575631,103.497406
1.8524988,104.19553
1.8475654,102.51786
1.7844691,98.24109
1.7660762,103.77756
1.8313226,102.04028
1.6766007,96.102516
1.6026005,100.305115
1.5834149,92.494644
1.5516093,95.40248
1.5968999,95.71231
1.4996864,95.14454
1.5306677,91.08577
1.5781523,88.99008
1.5323116,90.93465
1.5060536,89.54504
1.5089242,85.53686
1.3950493,84.46673
1.5314096,81.88355
1.3688469,83.09812
1.4285157,84.10074
1.3939811,83.20154
1.2778344,76.86931
1.1985272,74.67309
1.3274328,77.56144
1.1876622,72.09446
1.0534296,72.16889
1.0788592,66.74575
1.0108316,68.31633
0.998678,67.99191
0.91349095,60.943535
0.8588409,62.616955
0.895603,58.851227
0.86224574,59.797676
0.85155725,61.67145
0.86514103,58.75751
0.82931155,55.411057
0.7828403,54.025883
0.87358683,56.07074
0.76385313,49.876457
0.79260695,51.596283
0.8931199,50.878193
0.8284798,50.806995
0.6880622,51.57676
0.6334179,50.29767
0.6348293,49.242363
0.61123234,52.38309
0.47210056,49.872066
0.5345712,52.56976
0.3380177,50.811935
0.4548614,54.409016
0.56169677,52.927628
0.32449698,53.116913
0.6272149,58.710873
0.47860605,61.741028
0.5541191,60.525085
0.6843073,63.1887
0.6810981,63.824448
0.83816403,68.1512
0.9054068,71.44782
0.98015326,67.570564
1.1231225,78.66869
1.1991025,78.15924
1.4256604,83.675026
1.5077528,88.505226
1.6017559,85.858536
1.545913,87.57495
1.7654687,92.27374
1.5769522,95.0983
1.7316508,93.02979
1.7313796,97.09694
1.7873178,99.8105
1.8225359,100.35588
1.7468913,100.30356
1.7371563,101.19841
1.7152302,102.56414
1.8017666,104.33324
1.7685877,103.2643
1.778028,103.82203
1.7950722,102.38468
1.7036018,105.03944
1.6158377,101.10758
1.5455557,104.32557
1.4467204,101.942215
1.4900471,100.92534
1.4794304,97.12613
1.2422242,102.55279
1.5143768,98.491745
1.3048159,92.34177
1.2934607,90.88429
1.3308526,97.09148
1.2393804,90.09115
1.1602672,88.67585
1.236488,89.39473
1.1995101,86.827774
1.2395046,84.04631
1.1656054,83.94307
1.2235389,80.98767
1.103179,81.61606
1.1447917,83.46624
1.0455815,80.97234
1.0070825,76.853745
0.94932044,74.13445
0.8532517,71.079994
0.9401058,74.02311
0.77088714,72.680435
0.84239393,72.42579
0.84792835,68.92947
0.6509545,70.17407
0.6010206,66.92934
0.5847713,64.34688
0.5921428,59.575855
0.6067255,61.33229
0.5693065,61.748714
0.62000626,56.35311
0.5784059,57.416073
0.46803975,54.87756
0.48285493,57.08139
0.69475824,55.600834
0.6146539,50.19443
0.53576046,52.61975
0.45536694,47.823204
0.41448668,53.6596
0.37538657,49.536285
0.36209187,50.13937
0.25193813,50.51091
0.20676386,52.227966
0.17186128,50.229305
0.18427835,51.508553
0.055674516,50.377747
0.1270495,52.48407
0.06191871,57.897865
0.22406897,57.62811
0.22342525,58.48813
0.25714275,61.23549
0.30244833,65.04909
0.5617226,65.23888
0.62707925,70.67356
0.6589863,71.861984
0.7418497,72.05853
0.8876011,76.53222
0.92299753,78.983215
1.1044706,82.62315
1.1302874,82.255585
1.235148,88.14384
1.2941444,88.306885
1.3425993,89.94278
1.4424242,91.80107
1.506389,96.17353
1.3664185,98.42901
1.5692835,102.63318
1.5216681,99.08336
1.507257,102.66867
1.4930332,100.2733
1.4480724,103.156235
1.4520465,101.60589
1.4738054,102.90195
1.424829,106.47542
1.388319,106.359505
1.2992887,102.33254
1.3308659,102.29184
1.2944907,102.47874
1.2768387,102.49497
1.2908922,102.04372
1.1497469,99.23193
1.1038072,98.993774
1.1920735,97.81761
1.1410806,96.92942
1.0194595,95.349785
1.0507317,90.30219
0.9696086,89.6186
0.8616823,88.34463
0.97163254,86.82316
0.99838555,87.560005
1.0154275,84.72604
0.9108058,83.341484
0.8773373,83.45149
0.8334425,79.14765
0.9070836,78.438095
0.8162059,74.616425
0.7757152,80.29271
0.707654,76.64246
0.76058495,72.89118
0.601915,75.00403
0.53316236,70.47844
0.58205885,68.45627
0.4508043,65.73423
0.33233282,67.72496
0.48060903,69.367966
0.36732385,67.6615
0.3879617,62.171486
0.42895165,60.383156
0.3770138,60.200157
0.32656822,55.096836
0.33239743,58.626953
0.40745452,56.534794
0.38806427,53.375504
0.39870265,52.587883
0.3563497,51.629684
0.34815776,50.02669
0.26234487,49.609688
0.21062346,53.425423
0.14141189,53.1857
0.09788251,51.194233
0.02810653,48.818565
0.023891993,51.040318
-0.00960729,48.416656
-0.09192121,51.655033
-0.01869694,55.120472
-0.09830579,52.03208
-0.08926869,59.410526
-0.029537417,56.736988
0.15298364,58.610817
0.054762814,60.66782
0.27521566,67.55053
0.2897314,65.659
0.40651086,68.19142
0.41653067,71.03226
0.5443094,72.66642
0.69935524,75.46269
0.7943457,77.20755
0.84920716,77.84521
0.98908585,83.019424
1.1362896,87.785515
1.1547256,87.01178
1.1778156,94.21451
1.2216126,91.51803
1.3595564,96.824875
1.3530059,96.830696
1.2415208,101.97851
1.3211017,102.04369
1.306644,104.6515
1.4333018,102.71345
1.4129562,99.58964
1.3115617,105.17769
1.4113286,105.99722
1.3638456,103.61988
1.2331413,103.37216
1.3107245,103.28371
1.2484088,106.04789
1.1225135,104.14538
1.2051519,102.233116
1.1935024,103.67501
1.2932475,97.9782
1.0086622,95.84923
1.133571,96.39741
1.0154923,96.61935
1.0024498,94.74686
0.98227173,94.18302
0.95437926,90.82122
0.8060939,92.75304
0.99058574,90.528915
0.8444589,81.693756
0.9035195,82.26017
0.9308293,85.524025
0.92915136,80.63419
0.7974303,83.67661
0.8929335,80.82913
0.79692364,78.737946
0.75206304,77.95317
0.6921371,77.60728
0.6891236,71.9235
0.5864071,73.646774
0.59593683,72.89383
0.52046317,68.91053
0.47958195,70.0953
0.48440707,65.89902
0.34588197,64.07334
0.37008476,60.86005
0.31582624,66.029785
0.37233683,63.334526
0.37977076,62.965225
0.31545165,57.81985
0.42090422,57.170364
0.5233329,55.230797
0.44058272,52.98214
0.37772852,53.922363
0.25072464,53.202026
0.42859092,50.4576
0.28701866,49.29312
0.29505563,48.524357
0.080479555,47.88711
0.18676312,49.278706
0.23853305,46.90546
0.08363033,49.6353
0.059907038,52.379845
0.009032991,52.71638
0.014909427,53.38017
-0.015502725,51.736095
-0.010221571,58.12986
0.06710009,59.863815
0.18400714,57.803314
0.19772047,61.088665
0.31070974,61.805466
0.34083924,64.571655
0.49245805,68.565674
0.627158,70.05772
0.6757813,75.995285
0.8016941,73.921295
1.0168294,82.66926
1.055462,81.22925
1.0925766,83.496414
1.2609329,83.10735
1.2817694,95.336716
1.2818288,91.99476
1.4700338,94.58643
1.3271179,97.029106
1.3896434,99.2462
1.5523199,100.73255
1.543951,98.964554
1.5175511,102.04653
1.5462148,100.58013
1.5314196,102.75358
1.5302017,100.966324
1.5201524,105.627235
1.5051966,104.899155
1.528093,102.69155
1.566331,102.72675
1.4605151,102.56045
1.4214832,99.94991
1.3979394,100.34066
1.3194237,100.28661
1.2585459,96.1858
1.3174126,99.43706
1.2113098,98.5191
1.2256597,96.41709
1.1722921,94.416435
1.118843,94.13849
1.0776616,89.94399
1.1400126,86.683784
1.1976193,87.38561
1.0374986,87.50792
1.145711,90.90323
1.0435358,85.179596
1.0480295,80.262115
1.0268872,79.565285
1.1030241,76.47946
1.0901091,81.058846
0.9970018,77.99558
0.94769794,77.78099
0.8499964,72.84916
0.8840747,74.06109
0.886882,71.156166
0.7838286,68.80994
0.79172474,69.275116
0.7737562,66.85568
0.65501034,66.41403
0.67054474,65.59348
0.66841245,63.20157
0.59200305,61.01769
0.55049247,60.201183
0.6337309,58.370304
0.58405614,56.061573
0.6070359,53.65295
0.6342583,53.518093
0.56708294,53.964848
0.6355159,52.65196
0.6076432,52.982178
0.5879803,49.709938
0.45395854,52.715744
0.48298717,53.341724
0.41045508,51.41709
0.45598358,49.115746
0.33221313,48.274128
0.34963042,49.33838
0.28771305,54.62169
0.22235002,53.354053
0.3452047,52.00135
0.23578821,58.00479
0.41684034,57.406895
0.4994324,61.08057
0.58436626,62.629456
0.6221047,64.127525
0.65791166,66.24852
0.7712029,69.22435
1.0022792,72.36258
1.0215857,73.28013
1.1953952,78.855774
1.2031573,82.69997
1.4071437,77.4401
1.3560411,83.05846
1.485821,91.514885
1.475138,89.68452
1.6270294,89.80081
1.6619685,93.898964
1.6869206,93.01035
1.7160995,97.13661
1.7656211,102.90324
1.851186,99.65402
1.7626386,99.678314
1.8116379,102.07144
1.8224007,101.186066
1.8753161,105.05489
1.8204209,105.81917
1.8042432,103.634056
1.8441747,108.54511
1.7836583,100.66569
1.7121135,105.17438
1.5658743,103.89421
1.6332262,100.70593
1.6010281,98.84987
1.6223544,103.22027
1.4757123,101.137764
1.5321355,92.72951
1.4989132,94.224754
1.605505,97.44735
1.3793366,94.8737
1.4927903,88.00647
1.4102527,87.32088
1.369932,86.86593
1.4024187,87.95627
1.376118,82.03113
1.3499826,85.794846
1.2735634,79.204765
1.4323266,79.73586
1.3147881,77.48036
1.352248,81.07049
1.3447508,76.07403
1.2390254,71.54008
1.1966656,72.433334
1.2002447,74.55302
1.1163816,70.14505
1.0634872,70.215294
0.9196058,71.02168
1.0753077,66.061615
0.9538317,68.12117
0.9568779,63.58134
0.8453151,64.440796
0.88143396,62.13688
0.9262204,58.814636
0.8154789,57.775978
0.9172567,53.58734
0.8786904,54.283604
0.8390136,55.564667
0.995778,49.95903
0.85678434,50.761456
0.7319896,53.45152
0.7848778,52.332306
0.7561647,51.067097
0.75720316,51.59948
0.67401296,48.23352
0.6033375,53.007393
0.6313075,53.384235
0.56207925,52.643326
0.5066009,51.245937
0.537225,53.49392
0.43050566,52.456688
0.5617587,55.761143
0.6282937,55.851852
0.63516295,60.732372
0.78360665,59.902023
0.9444815,64.84572
0.8015789,64.92252
1.0262922,68.44774
0.9846249,70.39671
1.2266735,75.85257
1.3757248,77.093216
1.4654326,77.68508
1.5145664,80.63859
1.5672933,85.63193
1.6692972,87.2556
1.7058848,88.78296
1.8673879,88.74084
1.8208028,93.16525
1.86991,94.97539
1.896461,97.50857
1.8900748,100.958374
1.9057697,106.390076
2.0186546,102.46639
1.9853815,103.78471
1.9130645,104.3525
1.8923898,103.97502
1.9034008,103.6214
1.8986998,104.85309
1.9395628,101.23959
1.842284,102.74188
1.8026668,104.69042
1.7915773,102.25918
1.7161236,99.40637
1.7803652,101.371025
1.6619717,101.18404
1.6806613,100.0017
1.7199756,99.308945
1.7072556,96.27572
1.5444028,94.6456
1.5269817,93.45947
1.5393105,93.70134
1.555145,91.69633
1.5051767,86.866356
1.4698589,89.8839
1.4709934,85.30231
1.3923098,84.11087
1.3968943,82.81951
1.4141581,80.16288
1.42736,77.207596
1.3421296,78.073654
1.3408302,77.61364
1.3040335,76.77264
1.2307911,75.19395
1.277055,72.77254
1.1431576,68.800735
1.1747484,68.849045
1.0223951,70.44799
0.9203248,68.1113
0.96380806,60.589603
1.0138438,65.29493
0.9436751,59.27402
0.9005112,60.44332
0.9303877,60.116333
0.80610037,57.000164
0.84670997,56.138443
0.8406113,54.887554
0.8876744,54.294155
0.83778363,54.48829
0.8071337,53.9654
0.8389052,52.78061
0.7932602,53.00188
0.7265151,51.490536
0.63350254,47.084095
0.66318333,50.141106
0.58693504,49.11605
0.5765119,48.79801
0.54893917,49.25645
0.53975976,51.501682
0.4840947,54.734333
0.58222085,54.421276
0.6035549,55.427395
0.46953863,59.84748
0.6562219,58.020103
0.7095184,63.77367
0.73563844,63.334652
0.79485875,68.43638
1.0105252,68.78091
1.039389,69.69793
1.1048541,73.53971
1.2609597,78.70222
1.3716537,81.674736
1.4823018,83.53457
1.5136334,85.938034
1.6373547,88.5875
1.7415456,90.87366
1.6426659,91.224815
1.7386066,96.391754
1.8489791,97.132614
1.8688687,96.26077
1.816835,99.18848
1.8427111,101.49399
1.7649708,101.14504
2.0553374,105.95108
1.812814,107.26731
1.8251741,102.69595
1.8299708,104.78771
1.7984214,104.514336
1.6837404,103.23002
1.8337907,99.84829
1.6955045,105.559395
1.6751163,100.825485
1.5393625,101.78247
1.6286777,99.12182
1.602681,101.51543
1.560183,99.95359
1.4419771,96.73545
1.4675826,99.17922
1.3979229,92.53269
1.464939,93.49686
1.3873037,91.67055
1.3171843,91.26645
1.3700078,89.245255
1.4622952,87.527145
1.2960557,88.79448
1.279903,82.00417
1.2525301,83.56343
1.1967121,79.38236
1.3074626,80.31069
1.1946241,78.544304
1.1803211,78.32245
1.0285012,77.88836
1.0490177,74.643394
1.0326108,70.5021
0.8785363,67.69716
0.8540841,68.54986
0.872918,65.13345
0.76358795,68.01317
0.7882806,65.26608
0.6951252,65.77336
0.7037285,60.535625
0.7345929,61.806557
0.75184506,58.033978
0.50964946,60.81519
0.6545382,55.828915
0.69699144,55.624134
0.6988809,53.17437
0.620685,53.28474
0.69269735,51.25978
0.5445465,49.48741
0.49473,52.61686
0.4761709,46.973312
0.49997565,49.491287
0.26731732,48.982918
0.28345755,50.988853
0.2974134,51.872192
0.262755,48.44129
0.18722463,53.216114
0.20421226,54.073
0.3342024,54.820423
0.2634984,58.989998
0.23813662,57.642467
0.41345453,56.558525
0.3814759,62.819916
0.5250342,64.49041
0.6302411,65.581
0.7414997,66.86508
0.81680226,73.2134
0.92860305,74.60978
0.90131897,79.36561
1.0165522,78.959465
1.1985838,84.25135
1.2723333,81.292465
1.4162825,86.37716
1.46825,91.286156
1.422733,88.91865
1.4811816,94.5851
1.4728421,98.59313
1.6022848,96.25847
1.6613178,98.37722
1.5846701,101.355095
1.6135997,103.74444
1.6050378,102.91559
1.6225474,102.02238
1.5437164,106.68048
1.5416104,105.67474
1.4836054,105.0198
1.4187106,105.95955
1.4441229,105.47876
1.3781857,99.69746
1.4224249,103.18628
1.363718,104.99007
1.2575159,102.99929
1.1500796,100.707985
1.2240814,98.19227
1.2261329,97.60459
1.2186706,96.28516
1.1730751,90.07959
1.0515761,95.19727
1.1636448,90.86376
1.0718204,88.13545
1.087826,85.07406
1.0398219,86.55891
1.1720527,86.49201
1.0890925,85.41122
1.0296599,81.711395
0.8853323,78.95966
0.9803351,79.27076
0.8931173,79.38771
0.8016556,82.243614
0.89435154,74.46164
0.7029232,73.11829
0.7601877,72.33885
0.65788066,72.25546
0.5571292,65.42867
0.6271294,66.541115
0.5999946,71.298615
0.43635324,65.89728
0.4225538,67.26543
0.45279923,58.78423
0.41146854,58.76247
0.40605327,61.789204
0.4404666,55.23287
0.42934808,59.692963
0.34214482,54.66002
0.423377,51.983944
0.33971646,51.28307
0.35365394,51.655056
0.26760072,53.001236
0.3043912,50.638474
0.25025257,49.04165
0.19204737,47.457623
0.0643394,48.86121
0.027305216,54.735847
0.050052106,54.408993
-0.0066180085,51.76098
0.09390216,52.248657
0.07837556,51.793858
-0.08732012,51.312893
-0.050801754,58.99015
0.016971352,58.334103
0.24486902,61.376038
0.17760497,60.566746
0.30506673,64.340004
0.44011402,67.04684
0.36785892,70.17632
0.6095146,74.9986
0.70688224,74.02909
0.8416432,77.466354
0.8324944,76.56794
0.94255364,82.95935
0.99393463,81.47443
1.1921364,87.02576
1.121441,87.948105
1.1426338,94.28382
1.3069034,95.72182
1.3209506,96.95894
1.306663,98.930374
1.2485651,100.15787
1.3859495,100.930954
1.3937315,102.06331
1.3811328,102.76434
1.4254745,102.323456
1.2160103,104.99136
1.370577,103.41851
1.2720755,102.61688
1.2486371,103.98799
1.248102,104.97323
1.2344745,100.68808
1.1428897,100.56461
1.2312586,100.38682
1.148932,100.10432
1.1481348,98.325035
1.1084324,103.15092
0.95703256,96.70227
0.9720477,97.398605
0.9635697,94.10424
0.9310338,93.878815
0.94680005,90.93153
0.8971901,90.63952
0.9421745,86.51835
0.7648214,89.123665
0.8950219,84.33198
0.9439728,82.493576
0.8545497,81.360954
0.8124128,80.06361
0.812987,78.31859
0.8124833,78.852196
0.72857547,74.76558
0.75717723,74.4661
0.6961427,73.15689
0.58029425,69.61298
0.45757365,71.03885
0.49796116,70.34287
0.55233395,65.98861
0.41401026,68.866486
0.41164896,61.85359
0.33807635,66.050575
0.26735705,60.721905
0.3201187,63.887615
0.30978045,58.063007
0.4455976,54.60476
0.28477567,55.32669
0.32277465,54.602894
0.2899329,51.741676
0.2756418,50.58156
0.33964768,53.025715
0.26409853,52.486534
0.30812058,47.889545
0.23557046,51.1483
0.14507559,53.401737
0.025593325,50.288986
0.18753088,51.42138
0.098944,49.564705
0.08604632,49.738743
-0.036059882,52.678665
-0.07828073,54.469875
0.048975386,54.892487
-0.00086021505,56.52363
0.13750495,59.111954
0.025847489,60.50842
0.14815417,62.8161
0.26533374,61.80268
0.3765361,64.37459
0.5037774,69.514854
0.5973412,73.323555
0.79495656,76.89526
0.86666596,75.6381
0.9014022,79.56401
1.1578705,83.715454
1.1292034,82.83742
1.1763252,87.18531
1.2511853,89.28884
1.3234377,93.96281
1.4031556,93.331566
1.4496613,97.39417
1.4216567,98.27174
1.4039704,102.045044
1.4548887,99.68933
1.4013432,103.52621
1.4376305,103.93326
1.3996639,103.73862
1.4933625,101.449165
1.3376082,104.51098
1.4119805,105.53596
1.448419,107.65641
1.4184432,103.33584
1.5457163,101.51359
1.3351144,102.98459
1.3137288,101.021385
1.3334187,102.43013
1.2152201,98.83065
1.1835624,99.43017
1.1147026,94.82571
1.1333314,92.70437
1.0970193,96.721146
1.055984,94.43391
1.0892341,90.74449
1.0828617,91.45936
1.1168473,86.50004
1.0125799,88.15326
1.0060406,87.32005
1.0650347,81.248314
0.97793335,81.28223
1.0543416,83.98817
0.9498309,82.24005
0.9026256,79.56276
0.9255369,78.291336
0.8949059,76.684525
0.9131675,78.76166
0.8164569,71.17313
0.65748954,72.88402
0.7477073,68.62479
0.67636025,67.59517
0.5904058,66.76958
0.53854346,67.32635
0.5104293,63.57499
0.5709058,63.763657
0.6156769,61.44001
0.4942913,62.64057
0.61064726,55.58317
0.5022702,56.45021
0.57598746,56.582424
0.57464725,50.615944
0.56591845,57.976395
0.41840005,52.77708
0.44856122,54.7871
0.40654793,48.98412
0.45100716,53.250065
0.33006877,52.082565
0.40497863,51.07578
0.27948186,45.91753
0.31688523,51.292236
0.24108583,52.97875
0.19026682,56.847744
0.15499935,53.937733
0.33814797,53.507465
0.20425124,56.69872
0.30742067,57.098663
0.27004957,59.130737
0.42390043,64.763084
0.5064717,65.46175
0.6829759,64.16839
0.7102823,69.79999
0.924523,72.233505
0.79927725,77.61574
0.9995683,76.7976
1.1779236,78.5016
1.249979,79.33725
1.2507975,86.37673
1.3579991,87.75149
1.524056,89.139656
1.5388435,90.48892
1.6391786,92.61109
1.6642281,98.015236
1.6789283,100.58628
1.7350124,103.23494
1.7557955,100.51734
1.7065997,100.59802
1.6982527,101.394684
1.6565074,101.2592
1.7063516,105.45326
1.8220183,102.903656
1.593265,106.10262
1.7535734,104.28001
1.6758251,105.59909
1.5117,102.39259
1.6192728,102.19916
1.5492572,101.77336
1.5323325,99.12958
1.6158954,97.632614
1.4005619,97.196014
1.3876348,98.85159
1.464121,94.60091
1.3979945,92.26368
1.377584,91.828606
1.4931935,90.56904
1.3671272,85.575874
1.3662114,89.19084
1.3714184,87.04525
1.3567468,88.51703
1.3426621,81.75215
1.3616673,82.443016
1.2987238,81.98652
1.1887606,79.4197
1.195819,78.92194
1.2384622,77.620346
1.1081548,74.34188
1.2015522,73.036835
1.0123627,71.63832
0.9944851,67.40541
1.0546665,67.526375
0.76599413,70.52203
0.84568137,68.36094
0.75400823,66.9617
0.7922016,66.62788
0.8356957,59.716785
0.7436508,59.213882
0.8079026,60.164932
0.8383433,58.11749
0.7611738,55.772884
0.8382827,53.21268
0.7878632,53.92624
0.7937405,50.76359
0.93676734,51.763348
0.70525867,54.12997
0.72004604,46.730423
0.6457654,52.54069
0.6861665,45.593952
0.5916138,50.843815
0.5050607,45.3619
0.47696477,47.994034
0.53021973,51.760063
0.38262895,51.2441
0.442901,53.85138
0.48493332,57.389587
0.56723917,56.228085
0.5792507,56.79164
0.6021987,62.510868
0.71908164,63.256985
0.7930189,63.942226
0.9707161,69.04589
1.0355508,70.2874
1.0311538,72.58896
1.1721766,76.58276
1.3563312,77.78665
1.3669498,78.93886
1.5439775,83.09559
1.5771799,89.45324
1.6675687,84.68794
1.7421974,92.37041
1.7127964,92.7689
1.7816432,93.78952
1.7713044,98.082306
1.8462623,98.65533
1.953186,99.88732
1.9020663,102.6761
1.9148442,100.73105
1.911098,102.84729
1.8776181,105.1941
1.9943472,105.41153
1.914377,106.50983
1.9873081,104.638435
1.8703854,104.65351
1.7783375,104.16822
1.8400315,103.68903
1.7369149,101.77686
