ppg,abp
1.0265692,75.77904
1.1437266,79.841835
1.2134151,76.6846
1.237429,78.997116
1.3824204,82.717834
1.5586076,81.364876
1.5118073,84.87382
1.6601017,83.448654
1.645005,81.7091
1.5961579,86.926636
1.740793,85.56271
1.6807346,85.4488
1.650461,84.78933
1.7124469,89.606766
1.6676396,87.17348
1.7410473,86.42669
1.7026639,86.97379
1.7126536,86.72259
1.6836971,88.49622
1.7220712,88.495804
1.7864305,87.997856
1.6108314,88.4894
1.6474875,87.47836
1.6730621,87.7465
1.5751365,85.71116
1.5836948,90.25095
1.5514729,87.32268
1.5428537,86.89227
1.4844843,88.535934
1.4328313,84.97744
1.3858669,81.91465
1.4555871,82.57327
1.3408664,79.72844
1.412148,82.73588
1.3759638,79.175766
1.3243635,84.238174
1.3861207,79.76363
1.4186871,81.41362
1.4150382,81.85852
1.3318213,80.567154
1.3910528,80.61066
1.2499018,76.087036
1.2787691,78.18609
1.3461072,80.3063
1.2036049,78.61951
1.2620224,79.92001
1.0871758,78.246376
1.174631,77.10793
1.0541012,76.966484
1.1426542,76.373764
1.0092977,76.386116
1.0229589,73.46703
0.86860895,75.60022
0.89571,72.830376
0.8895137,73.24879
0.80825406,72.962036
0.8330763,66.34571
0.8831934,73.45605
0.8360544,72.126595
0.8808209,74.79057
0.9292956,71.359024
0.85821444,70.28725
0.7720683,73.729904
0.7356931,67.52736
0.94049925,68.1219
0.85013664,71.495316
0.8308939,66.267334
0.72565323,70.29688
0.7982929,68.09512
0.6472544,66.98638
0.66114086,66.52883
0.6294716,70.09305
0.6568403,64.07472
0.6023937,67.618645
0.5291296,70.46512
0.39500803,67.117455
0.53880006,70.19044
0.40282974,66.80358
0.42304108,68.34207
0.5879547,70.60656
0.58606124,67.186134
0.60549927,67.75466
0.6099458,69.15066
0.6545538,72.87048
0.7545686,75.57876
0.87171537,70.217316
0.9106364,72.55365
0.9815797,74.030655
1.0476873,70.11841
1.205284,77.02672
1.2648782,78.1828
1.3770039,76.39688
1.4952092,80.90542
1.6240126,78.944725
1.6503075,79.92482
1.6990663,84.621544
1.8817611,79.381516
1.7428424,85.40557
1.7618153,79.95019
1.903237,83.86423
1.8509432,82.7349
1.9110239,83.660164
1.9799844,85.930626
1.9220593,90.484146
1.8800005,88.977196
1.9366976,84.94117
1.9608166,84.47585
1.9881355,88.56177
2.0417879,87.939674
2.0566733,87.93348
1.9495678,86.79747
1.8150704,88.491776
1.8307767,85.26999
1.8544697,85.59949
1.8427728,88.05654
1.863037,87.67799
1.7961873,87.5805
1.720297,85.636604
1.6242228,83.49145
1.6827914,89.828156
1.643399,87.6916
1.5798627,81.4279
1.6330082,83.61866
1.5056382,85.96345
1.5293735,81.9745
1.665201,83.673454
1.5097462,83.297455
1.4789342,80.23621
1.6464363,83.144554
1.437513,83.303215
1.4333767,81.06122
1.4880577,85.44959
1.420398,75.8013
1.4604194,79.94312
1.4734796,76.49804
1.4196035,77.98497
1.3043096,73.18127
1.3765469,79.04108
1.2515578,75.374016
1.1950138,75.27177
1.1336442,77.060265
1.1135975,77.2467
1.082027,76.35204
1.0824124,76.428246
0.9579959,74.58351
1.0659951,70.45114
1.0137901,72.03942
0.97780013,68.72814
0.9086183,71.58785
0.8923409,71.997116
0.86047584,70.83324
0.8812106,65.82241
1.0169595,70.93792
0.840123,69.37722
0.9568194,66.72285
0.9834487,69.63227
0.8927161,67.36633
0.8713668,70.21764
0.8125739,67.69278
0.7408754,66.04892
0.7142244,67.540146
0.6185673,68.12989
0.6936305,66.84827
0.68464285,67.50693
0.7071373,65.1886
0.5872051,68.29152
0.60649234,63.82307
0.49332756,67.91915
0.49000955,70.104454
0.6254646,66.756836
0.5857723,70.67966
0.4895807,67.90912
0.66120297,72.01416
0.60117227,74.941376
0.6500636,70.339226
0.71024185,65.13966
0.85425514,75.683075
0.9052211,73.52211
1.0693979,73.06584
1.0608687,77.71243
1.2459111,76.61542
1.357043,79.171906
1.4692664,76.91764
1.5010383,79.61063
1.522996,81.994865
1.6476742,83.89816
1.6451306,80.209236
1.6873928,82.8704
1.7499866,80.22868
1.7451589,83.785484
1.7328176,87.34038
1.7904072,83.954094
1.90587,88.858734
1.8592019,86.99969
1.8994836,86.49279
1.8807925,89.807
1.8931913,90.47549
1.889928,85.99041
1.8684108,91.11233
1.7584721,85.97714
1.8168396,86.71481
1.7018721,87.47815
1.7295377,91.74183
1.6228565,88.40823
1.6828386,90.052704
1.670688,86.85863
1.5923649,84.995
1.4681164,86.11156
1.414611,85.86355
1.4288111,81.26716
1.4478275,84.96757
1.4508644,85.45884
1.4878001,83.774414
1.3938532,83.11387
1.4142064,84.119736
1.3947426,84.77134
1.3169554,86.08667
1.2962276,79.31404
1.2494303,81.79949
1.3549951,81.0688
1.2822183,81.95679
1.3044754,79.85087
1.2416061,78.66938
1.2302928,78.713295
1.1341299,79.824524
1.1659344,78.73136
1.1293316,80.80967
1.0456121,74.49228
1.0175414,77.819145
0.99525595,78.441635
0.97785467,76.889786
0.9199149,75.509964
0.96096534,72.45745
0.91883093,76.48994
0.8083961,74.39045
0.75675434,72.53906
0.74237865,74.121414
0.5724469,69.99558
0.83263874,72.5233
0.7868482,71.09468
0.69556844,73.20319
0.73654693,71.6716
0.65848845,69.71375
0.5805794,72.640625
0.70964885,70.1716
0.5513286,69.40426
0.57933134,67.886215
0.5855834,65.45941
0.5942464,66.89849
0.6175027,66.37795
0.55898213,66.62229
0.44594982,68.48139
0.49126464,66.78644
0.3088994,66.80512
0.20841433,68.659996
0.28162104,65.991394
0.36989766,66.79335
0.21713983,67.69944
0.17022446,67.824
0.12460056,68.80643
0.30893394,70.10985
0.2039341,67.34684
0.28740755,73.55899
0.32089493,71.76357
0.4002641,70.62147
0.4977366,70.9727
0.5405695,76.0051
0.52286035,75.10174
0.69103295,77.63184
0.88184714,74.40344
0.98270047,75.29336
1.0245279,77.867165
1.1050842,80.81974
1.2373606,79.12886
1.3112651,83.14576
1.2854341,81.16314
1.3061799,81.67004
1.4122658,84.30317
1.3597695,80.77876
1.4364111,86.69604
1.5255939,87.46136
1.4181111,84.57856
1.5500375,85.93404
1.576513,84.52055
1.5536371,87.54998
1.5535434,88.55339
1.6007935,87.572136
1.4910522,92.80386
1.6094956,87.062805
1.4512846,90.45536
1.5110179,89.65736
1.4488207,88.01661
1.4340518,88.91175
1.4668516,89.329575
1.2643968,83.48251
1.3698169,88.51123
1.3694639,85.794395
1.2422806,88.1829
1.2306238,90.06623
1.2452759,85.93785
1.2564293,85.17874
1.140613,85.74077
1.1191047,82.94562
1.0761139,88.167564
1.0624498,85.39991
1.1178122,84.741196
1.0296758,82.57824
1.0400836,81.78693
1.0832565,82.28527
1.0176346,85.35857
0.9193983,82.41907
1.0402625,80.11789
0.93010354,83.17884
0.8800861,84.429634
0.85261023,79.38983
0.84520847,80.00296
0.8831594,79.15101
0.8270827,78.45707
0.74657315,74.345505
0.70877475,71.65617
0.7156112,74.791885
0.6901917,79.804016
0.43100476,75.42064
0.57011485,76.20041
0.5056704,75.0767
0.48931587,71.692
0.3674514,69.924706
0.43316072,68.021324
0.39981478,70.18089
0.48752838,73.71054
0.46263608,68.71867
0.36631885,72.029976
0.3678327,70.70487
0.32630494,68.385445
0.35703325,69.08927
0.34737104,65.83262
0.26465747,67.92429
0.31191027,66.73022
0.25888667,68.831314
0.29788446,65.72026
0.19641374,67.34721
0.20098336,66.37213
0.30015853,69.455734
0.12563829,70.00893
0.1259713,70.07947
0.1581173,68.35246
0.019856207,65.81626
-0.013440418,68.56568
-0.11901969,66.58867
-0.048878435,70.46679
-0.08936817,68.562836
-0.10190073,69.67453
0.01898226,69.29994
0.018964829,71.28219
0.11943499,72.22429
0.1365556,71.00703
0.22236943,72.61005
0.40097335,73.35627
0.51081425,74.42528
0.5214682,75.43512
0.60034573,77.70766
0.6574394,77.98485
0.88752615,78.61688
0.8969585,77.97245
0.96866083,79.904686
1.0155464,79.2383
1.121545,84.51268
1.2774773,80.197975
1.238014,81.379776
1.2116534,81.91227
1.3213065,81.793365
1.2993503,84.2089
1.350062,85.40222
1.3241906,86.737595
1.2420486,84.89443
1.3190303,88.18118
1.3111209,86.9235
1.4315177,89.42811
1.3216045,89.61757
1.3920735,86.59478
1.4014827,86.252304
1.2898469,89.73273
1.3088093,84.67879
1.2458221,88.93979
1.2637514,85.56677
1.1869234,84.498985
1.1635454,84.780136
1.1232679,86.22449
1.0711213,85.35345
1.0960033,81.65882
1.080418,83.513084
1.0362225,80.36094
1.0286435,83.62201
0.9639694,82.9945
1.0425266,83.556786
0.9950748,83.71537
1.0026877,81.89516
0.91459805,80.40204
0.8239034,85.54053
0.8781687,81.92096
0.91753995,83.449814
0.9028774,80.89983
0.9385874,80.40549
0.8482416,78.765274
0.8728355,76.98846
0.7879396,78.151794
0.7707754,79.34167
0.6134763,80.7625
0.7135557,77.2144
0.6663119,71.5235
0.73121005,80.13788
0.7073927,75.64469
0.5941827,75.82229
0.50895125,77.51656
0.49160233,74.565605
0.52920145,72.81055
0.47199398,73.54344
0.46693325,70.022934
0.4193228,72.487656
0.45981634,66.82599
0.32460847,68.64712
0.30868292,72.23928
0.49031872,71.932846
0.35213152,72.18518
0.31651324,69.06986
0.2518847,68.575325
0.38750783,67.482765
0.34257156,69.5269
0.3577714,67.0701
0.2666015,71.19434
0.30156007,64.40055
0.24058022,65.18762
0.22373472,70.255646
0.24000423,64.01715
0.14980298,69.78984
0.047166042,70.95885
0.02753011,63.75749
-0.07170267,70.9871
0.11403085,66.68797
0.08596062,67.618774
0.062487975,65.72249
0.08390373,70.53091
0.09983365,74.51409
0.07165451,72.45255
0.19735175,72.60395
0.22676806,72.62114
0.4618233,71.9394
0.44110084,71.52718
0.5304635,71.66041
0.49848682,76.64967
0.70021176,76.05672
0.7865247,79.14672
0.96965736,79.77258
0.9897862,79.93592
1.0275137,80.53519
1.1690553,77.15144
1.1781698,81.90752
1.2875234,80.939766
1.3162832,85.079704
1.255096,81.843666
1.3944588,82.02516
1.4708999,87.290504
1.4381825,87.68282
1.4831711,85.10256
1.465226,85.814606
1.6300886,88.90415
1.6760935,86.15628
1.4706638,88.08724
1.5159848,86.74513
1.52692,87.785255
1.4594923,88.24077
1.5849798,87.41063
1.5250612,90.785194
1.5300634,88.29204
1.4515587,89.00879
1.39915,85.24654
1.3995494,90.355156
1.4544255,82.22573
1.3998554,87.08922
1.2466854,88.15881
1.288577,88.9656
1.2245796,84.30334
1.2385708,83.82536
1.3149127,81.2994
1.2764343,83.68581
1.2394475,83.06004
1.1673859,85.357
1.0451753,84.17974
1.2354544,80.0853
1.1681752,84.28399
1.111614,83.73031
1.1625332,79.10849
1.1269023,80.45068
1.1903768,80.65017
1.1373988,80.43413
1.0664166,78.408585
1.0184964,76.18398
0.9646519,76.160416
0.982913,75.32668
1.0113673,76.773544
0.89664334,74.04569
0.9018254,73.74299
0.8402888,76.174835
0.77868754,73.51377
0.83557284,72.527664
0.7386004,72.86308
0.8684809,67.291
0.6769671,71.0463
0.68441963,71.850105
0.7769116,71.538704
0.68157494,72.35432
0.6868736,72.265305
0.5780946,67.02607
0.59680265,70.984085
0.66335243,67.764015
0.5825806,64.68419
0.6701122,69.245056
0.6914167,70.70743
0.6369122,68.7076
0.6680945,65.539795
0.42842704,69.11154
0.52759516,62.118187
0.6487721,64.30628
0.5352301,68.6776
0.46338645,67.822914
0.307483,68.90802
0.41695765,67.0878
0.36002627,68.30834
0.29085904,64.13789
0.40913704,68.17191
0.44132826,67.78121
0.35452193,65.10231
0.4127408,69.165886
0.49993202,68.00675
0.5301855,70.51134
0.49158096,72.8657
0.55146784,73.62012
0.7631312,74.47139
0.8353849,74.30789
0.8899695,74.23974
0.9634965,71.5989
1.0128388,73.66975
1.1328609,79.846466
1.3573862,81.81649
1.3006822,78.27469
1.4072222,79.156654
1.5491347,79.48173
1.5457495,79.11189
1.6217852,80.97003
1.656793,81.806885
1.8061906,81.487206
1.7150764,87.84854
1.9107685,81.69806
1.7489214,84.639755
1.7946507,87.0204
1.7707579,87.0962
1.8492192,84.9409
1.8490281,92.2095
1.8452909,88.975235
1.8089551,87.02435
1.9180895,85.969055
1.8472168,84.50759
1.9400566,90.16402
1.8323492,86.595345
1.8124976,90.97559
1.8434699,86.92302
1.7649246,86.64223
1.6306849,86.60629
1.6478817,87.60527
1.593713,87.184395
1.7072388,84.639565
1.5361195,86.556625
1.6410378,86.28019
1.5215931,83.48976
1.5362328,82.32427
1.5306401,82.42343
1.4331377,84.05466
1.5046614,77.90316
1.4412571,80.94367
1.5298297,79.50564
1.4316325,78.102394
1.4283719,83.76264
1.3713413,81.43376
1.3314698,78.92654
1.3828558,78.831726
1.4241207,75.68267
1.2742685,79.0234
1.3268609,77.58121
1.3878502,80.9517
1.1991884,77.17346
1.308053,79.43264
1.1123226,76.673325
1.1484445,76.92215
1.158885,73.95088
1.0722328,71.07382
1.0797058,71.252075
0.94241035,70.8689
1.0219646,69.33778
0.91573423,68.89318
0.9359948,71.969696
0.9125813,73.82236
0.8945787,71.5565
0.8640716,68.86841
0.86896145,70.22764
0.9744636,68.5201
0.8031896,71.27615
0.9381097,69.07225
0.9866861,66.38073
0.9406034,67.758705
0.83937734,66.90402
0.8743518,68.346344
0.8673727,68.08602
0.84758055,62.88811
0.6848017,65.609245
0.71703184,69.99058
0.6715473,69.77563
0.64011246,71.77361
0.6219521,61.698284
0.49587363,70.02484
0.5293381,68.67147
0.5700391,66.66506
0.5747413,67.44646
0.5682795,68.9157
0.56636465,68.237335
0.52768445,70.45278
0.7353604,66.050255
0.68831486,74.894424
0.9374974,74.49668
0.9472801,73.96737
1.0977604,76.13392
1.1483507,73.225624
1.1750007,76.7236
1.3655835,72.72655
1.4818963,80.795235
1.5058523,80.3745
1.5558858,78.99475
1.6214141,78.89484
1.6708149,84.47294
1.6572763,83.162
1.801375,79.33992
1.7622784,83.21602
1.8029718,90.97302
1.9393638,82.98415
1.9537146,87.49258
1.9772826,86.30572
1.9699662,86.14327
1.9344531,89.5039
2.007374,82.312126
2.0118592,85.641235
1.9508355,86.82256
1.8996398,90.660416
1.9714149,87.787575
1.9849207,87.19369
1.8182375,91.594185
1.873194,87.142845
1.758605,85.847984
1.7418895,84.56141
1.761776,88.69767
1.721185,84.197334
1.7354593,87.53723
1.7250612,85.84754
1.6319493,86.381134
1.5946921,86.82506
1.5500162,83.06368
1.5159838,83.24991
1.5645152,80.21588
1.4897143,83.25224
1.4790606,86.14522
1.5204293,79.62864
1.5759994,83.047195
1.4126431,81.57243
1.43885,80.00584
1.3437202,80.02099
1.3631321,82.49374
1.4549917,82.2009
1.2849631,81.55176
1.4615668,79.42192
1.3326449,81.260895
1.26949,76.67214
1.2209996,76.400406
1.2581286,79.878975
1.0911856,75.036575
1.0908462,77.701195
1.0657849,76.584755
0.98292565,74.95125
1.0765785,77.85541
0.8945635,73.32472
0.97518575,70.68153
0.8952399,71.83386
0.83538663,70.02409
0.8568649,68.719795
0.78993315,71.57324
0.82956,69.69398
0.7911359,71.22079
0.78933775,70.38479
0.825764,68.48201
0.76855934,71.37663
0.85876286,64.63844
0.72299445,66.0089
0.79809284,64.656746
0.74587893,65.38606
0.6798242,66.147316
0.70059556,66.5527
0.7087589,69.885864
0.43435106,65.71487
0.4961296,69.36405
0.49248356,65.598366
0.4137299,62.417698
0.3830221,65.734146
0.38935915,67.812386
0.4330662,70.82867
0.37652373,67.28009
0.36748755,67.92009
0.4869033,72.940414
0.34720248,67.383156
0.381198,69.9974
0.5683236,75.463974
0.5987074,72.93619
0.6605992,72.35352
0.79671246,77.0925
0.93358916,76.996185
0.9577564,80.23792
1.0600618,76.50353
1.0907698,75.409996
1.2806965,78.19515
1.3297298,76.08048
1.4275272,78.4288
1.4392297,83.257065
1.5096232,80.31564
1.4722313,85.76902
1.4879802,84.85011
1.6165211,84.2365
1.6139312,85.24953
1.7827364,86.7983
1.4910065,87.78969
1.711397,90.322685
1.7149476,87.70419
1.5979539,90.5126
1.6350081,86.18967
1.5943606,88.66762
1.7891859,89.065544
1.6983801,89.756615
1.6212184,86.666176
1.5947064,89.1234
1.6128644,88.87462
1.6184654,89.72023
1.5465709,86.696526
1.4339218,85.39588
1.4836568,85.39573
1.4867064,89.10692
1.4120952,85.109474
1.40282,85.2418
1.3844546,83.31942
1.3695859,87.15192
1.2048403,85.636154
1.1905086,87.59085
1.2547803,79.167336
1.2231108,83.14361
1.1990371,83.26405
1.2019426,80.552376
1.2043405,87.982216
1.2428135,82.63109
1.1336304,80.34756
1.1336505,81.0918
1.0634414,78.536385
1.1117934,77.28401
1.126617,77.45227
1.0986762,78.051285
0.96805173,74.940895
0.9319551,75.21872
0.8662799,74.197655
0.85475165,73.473
0.671775,73.81223
0.7777547,74.84447
0.7171697,73.0172
0.65354013,74.720116
0.6971744,75.970375
0.6490235,74.06424
0.56835616,70.68577
0.6088251,72.13999
0.619332,65.15242
0.5346598,71.3826
0.44772893,65.56701
0.55717224,68.63697
0.55134773,68.83038
0.4243138,68.37753
0.5524049,66.90068
0.5142392,64.429054
0.45061785,67.81717
0.4400625,68.06081
0.3282763,70.95579
0.45622534,68.87314
0.42713892,67.24296
0.3545126,68.795235
0.32687327,67.00683
0.23844132,68.93051
0.2283342,67.834
0.10118486,69.28804
0.15064667,66.12171
0.100203276,68.17622
-0.054949824,68.7722
0.025561212,69.671715
0.06998772,65.22861
0.10848983,66.066986
0.092131115,71.82748
0.16831425,74.96325
0.27023718,67.898445
0.34081042,67.14398
0.41168445,76.893196
0.42095608,72.59795
0.464523,76.22448
0.5697822,75.944984
0.7124195,78.8981
0.8610036,79.45903
0.8438339,77.314156
0.90922576,80.42431
1.0247731,84.182724
1.0187145,80.42045
1.241307,78.11822
1.3117043,80.66323
1.3820724,79.066414
1.371456,83.86395
1.31375,82.59525
1.4962698,86.48804
1.5239737,85.85156
1.387413,88.39912
1.353721,90.01654
1.4784331,89.533104
1.4518535,86.82519
1.4256905,85.76846
1.4607762,87.73772
1.3298057,87.10773
1.4559051,87.22064
1.2629085,91.03358
1.2817471,87.77212
1.3067188,88.13291
1.2586699,90.324585
1.3056855,84.539085
1.1724124,86.45962
1.1815255,85.277824
1.0837077,86.09849
1.0847231,87.45207
1.1827875,85.01458
1.0946491,88.00263
1.0322433,82.47519
0.97040904,84.866234
1.0453552,83.388954
0.9621705,82.521645
0.88096875,84.227905
1.0063745,81.69714
1.0068117,79.70021
0.909371,81.35388
0.7972847,84.590576
0.90818226,84.05358
0.82446605,77.987885
0.76086754,82.28241
0.7383872,79.36594
0.67519724,76.73244
0.7275901,79.670425
0.7471213,74.821045
0.6922365,80.72354
0.6611949,72.03057
0.64115304,80.44596
0.5247368,76.83651
0.48357394,71.71293
0.3673901,75.55979
0.43756175,76.25884
0.43893135,76.60892
0.35892165,70.84828
0.24129152,73.97239
0.23558235,74.910774
0.31468207,71.54361
0.26887423,71.00698
0.33192244,66.56412
0.30899295,69.35996
0.27857792,71.63017
0.33719555,69.548485
0.24962173,69.10493
0.33617634,75.50612
0.38405633,68.08078
0.2430447,67.125565
0.35162035,68.50779
0.24321093,71.22526
0.08002357,66.21947
0.18901135,66.75878
0.15725052,70.01576
0.028449709,65.52218
0.08467148,68.474785
0.060551666,65.45686
0.07046923,66.02131
0.004985186,70.238304
0.120889135,68.021286
-0.12670971,68.29856
-0.041123196,69.04047
-0.010356228,66.618095
0.05745206,68.13517
0.27073795,71.848595
0.38008887,69.706215
0.30217916,70.74074
0.3522603,72.16559
0.43712175,74.62283
0.5248302,76.013535
0.62656194,76.01619
0.8213009,77.88908
0.78757805,81.40462
0.9480489,77.753685
1.0232083,77.492004
1.0382034,80.42784
1.0623183,81.69879
1.1721128,82.314156
1.2586782,80.80135
1.2125512,84.197266
1.2518053,87.740654
1.294115,84.93952
1.3048702,86.32316
1.4658704,87.58683
1.4956615,83.42198
1.4504795,85.54451
1.3460132,86.02658
1.5188797,88.80284
1.3680941,90.60519
1.3728974,90.44371
1.3056368,87.436775
1.4038782,87.77643
1.2782792,87.48197
1.2698851,90.747246
1.4538468,85.13698
1.3080677,87.98742
1.183114,85.69559
1.2643801,83.91616
1.1981899,91.36022
1.269552,86.13744
1.1073223,83.98548
1.1846466,85.39457
1.1029925,82.974594
1.0473075,85.4782
1.150191,81.07081
1.1225085,82.192276
0.9748873,85.766464
1.0084678,81.29355
1.0722497,80.786415
0.97103363,86.04681
1.0234586,83.70639
1.0419841,78.81175
1.0314754,78.85495
0.94079894,79.810776
0.86478233,79.35083
0.9127768,78.57893
0.828863,78.61804
0.83253396,76.60108
0.7953958,75.01014
0.8022124,75.459435
0.6401817,73.34913
0.7479258,73.094284
0.7172357,76.908325
0.71891874,75.27269
0.69545275,78.007355
0.5197347,74.11733
0.45841345,71.81286
0.5296781,76.22099
0.5011205,70.272606
0.506697,70.767426
0.41001183,64.527504
0.57186216,73.31647
0.52134156,70.8487
0.5352426,69.20777
0.39634398,66.51991
0.52344596,68.19236
0.5425211,67.69168
0.5043239,65.077324
0.36604142,67.600296
0.39331737,63.494457
0.41182503,65.49717
0.34550217,65.8504
0.3967468,68.800224
0.3677466,66.609886
0.20963721,69.31173
0.21069969,63.175346
0.30783698,67.518654
0.18071271,66.76251
0.08925709,67.75107
0.16880883,69.894745
0.12811531,68.06479
0.22264455,72.66389
0.106088094,70.42989
0.15932283,70.481575
0.381838,68.77635
0.44872257,71.824455
0.34428087,75.08269
0.4908361,73.79422
0.6279465,73.539665
0.733999,75.24427
0.82435185,79.852516
0.84836936,77.19731
1.055413,78.10861
1.0795319,84.51867
1.152585,75.138084
1.2755919,81.28757
1.4597338,86.57557
1.5454832,82.31899
1.4183335,84.17673
1.5291241,82.81138
1.6064522,87.30219
1.6850476,86.16872
1.6338608,86.142265
1.5582062,84.2145
1.7501023,85.607475
1.6855242,85.789444
1.7426643,89.13505
1.7102067,88.03992
1.6472582,90.21196
1.7049023,86.89746
1.6945757,88.97596
1.6627486,85.686485
1.7021891,92.206894
1.6894872,84.66835
1.5412936,88.418
1.557886,86.28666
1.5447308,89.50387
1.5835983,87.848595
1.5574089,88.72514
1.4247627,83.20208
1.4409764,87.72722
1.5193727,84.61941
1.4523008,85.064674
1.3875014,80.43104
1.4023075,84.44903
1.2926633,81.96679
1.377359,85.96298
1.3012661,83.65639
1.4122868,81.53865
1.3706697,80.68185
1.3335044,80.38951
1.4336939,77.74809
1.31924,82.839264
1.4054066,78.23518
1.2849872,77.618546
1.4181551,82.29046
1.250337,79.171844
1.2444798,80.75564
1.168174,77.97351
1.2116954,76.52393
1.0478752,75.645195
0.9938881,76.380775
0.9323816,76.65562
1.1100562,72.81411
0.8511535,74.92785
1.0761946,71.214935
0.77835816,76.949585
0.8819907,73.08323
0.9124807,71.371
0.7305821,70.6868
0.817937,74.97491
0.7780232,69.59866
0.8063387,71.904686
0.8253526,71.853264
0.7537488,69.13742
0.8863766,67.630066
0.7197111,69.37716
0.89367795,68.62006
0.8052863,67.08716
0.68285537,66.18902
0.7602872,65.06162
0.68757176,66.015816
0.6640875,69.866295
0.52488863,66.82791
0.5215345,63.66374
0.5569146,68.4934
0.5117362,65.69446
0.5056137,65.6596
0.5753372,70.7172
0.4932744,66.55479
0.49240455,71.49518
0.54931724,70.01908
0.4898707,68.75037
0.5359513,68.75938
0.47043422,75.697876
0.6575006,72.83843
0.64653945,71.632866
0.8013148,72.16656
0.9396543,75.27814
1.0471811,75.079994
1.189924,71.53754
1.2120054,77.95219
1.2959151,73.36112
1.4584123,80.52537
1.4334142,74.366295
1.620934,76.34013
1.6263815,79.07513
1.7703121,81.47723
1.7381552,85.5474
1.858168,84.102196
1.8171605,79.98141
1.8364395,84.82905
1.9402158,85.43137
1.9093997,83.103
1.8833425,88.48424
1.8870468,84.728
1.8688393,88.06093
1.8744687,85.96428
1.9010382,85.94082
2.0221674,87.655045
1.9052408,88.196
1.9328719,88.16826
1.8559767,87.108116
1.9282905,83.88487
1.8891709,86.30384
1.8638517,85.61997
1.8657447,84.068855
1.7978071,87.85819
1.7046449,86.07222
1.8654218,80.46461
1.7524459,82.96293
1.5831536,88.757866
1.5575341,82.658455
1.611674,81.5409
1.5432578,86.07878
1.6703216,82.19594
1.4873067,82.342186
1.5270692,81.02065
1.5203097,82.30359
1.5280603,79.63878
1.5021886,83.39292
1.492177,82.49708
1.5021737,78.99842
1.4163678,82.04577
1.3812032,79.11765
1.5062013,81.647675
1.4374522,76.49259
1.3628091,82.598
1.3965892,75.98013
1.277046,76.70867
1.2711865,75.14213
1.1964821,79.77844
1.1580155,75.5274
1.0333028,72.56656
1.0855553,72.59558
1.070242,73.37508
1.0495405,73.30855
1.0839734,74.56142
0.9094962,71.56022
0.94642633,70.84156
1.0396816,73.14178
0.95694554,73.91179
0.84500635,73.20373
0.8607298,67.29375
0.8731906,70.84338
0.8546641,68.60389
0.8138825,70.154175
0.8617199,68.720825
0.84715545,69.76754
0.89727247,67.30738
0.9139312,70.47894
0.72329915,71.99899
0.7575058,68.18089
0.62516445,65.95231
0.66066945,68.29617
0.5441151,65.92027
0.72678685,68.0717
0.63198596,67.925354
0.51498705,69.36287
0.4818779,66.9686
0.5147345,69.73781
0.45567173,68.979416
0.52250314,68.48952
0.6479922,68.97089
0.5325021,67.31417
0.69818264,70.84368
0.69618785,75.19406
0.7604996,72.21002
0.78553003,74.42559
0.92435396,71.44592
1.0676018,74.01543
1.0975116,74.58728
1.2016824,74.17965
1.3515713,77.198875
1.4339813,79.91671
1.4446478,80.1094
1.5693262,80.93296
1.5003793,81.30191
1.6311904,79.89529
1.75995,86.11548
1.8830174,79.53419
1.7874655,81.66341
1.7837042,85.693794
1.9015977,87.46428
1.738504,89.90897
1.9105197,83.97041
1.9802114,89.80478
1.8542943,87.33842
1.8453528,90.09143
1.9003714,87.295135
1.8926309,89.918396
1.756217,85.531975
1.9192849,87.08779
1.764366,90.23335
1.6969651,86.56529
1.7093308,89.76339
1.689081,84.04325
1.5978866,91.528015
1.5366914,87.97317
1.7100294,82.98331
1.5424305,85.49006
1.5896974,86.67052
1.5943168,86.045715
1.5606587,81.37331
1.4405004,83.51499
1.3917202,84.41423
1.4215922,82.89905
1.4138092,78.7915
1.3299814,79.10386
1.3816967,84.44362
1.3827636,84.52431
1.3405187,84.46625
1.4072702,80.98864
1.2705226,76.579475
1.4156616,77.47508
1.207157,80.64307
1.1757761,82.729965
1.2504143,79.00857
1.2834185,77.86953
1.148975,77.264565
0.9718138,77.74073
1.0674763,74.52261
1.0045148,75.96676
1.0322638,76.634865
0.9276352,73.15974
0.81225806,70.53956
0.7822575,72.06134
0.8666222,73.322044
0.8455404,69.69605
0.68848693,71.062645
0.5410203,71.76396
0.7285242,71.67246
0.6049454,70.25387
0.653593,71.81163
0.6803579,66.6647
0.6804334,67.77053
0.73331535,70.542534
0.64425284,67.08761
0.64172566,69.72354
0.6954776,70.198135
0.64848435,65.61841
0.552414,65.75668
0.59966993,67.209274
0.5800906,65.79358
0.46582645,66.07763
0.34569463,68.03591
0.35901707,71.161606
0.2711511,63.366898
0.30796647,66.70756
0.29901809,71.454445
0.17605159,68.02104
0.27069622,67.71846
0.23827969,69.900345
0.16615614,65.797386
0.2565893,70.77248
0.38359776,78.57723
0.48491246,73.56339
0.48416483,71.5252
0.49675462,71.643845
0.5522113,77.712685
0.6486973,76.96117
0.79870915,75.68788
0.9510034,73.60368
0.993251,77.92465
0.9965828,77.36783
1.1441348,81.17254
1.2212305,78.622604
1.2608299,78.39414
1.435532,79.943596
1.462306,83.37504
1.4891365,83.400185
1.4342555,83.31367
1.4842087,85.58014
1.4577571,86.382965
1.5248457,83.28004
1.5152118,86.23944
1.4358351,89.664566
1.5340362,89.011086
1.4719753,83.35846
1.5884461,86.646
1.4419935,85.28565
1.523748,88.55588
1.5492889,90.176994
1.5701082,88.047005
1.48941,85.13987
1.4514114,89.18596
1.4225972,88.259445
1.2927587,86.32685
1.2960389,92.01919
1.3451681,86.040016
1.1843396,88.44977
1.266186,85.14994
1.2214664,83.89274
1.1632656,83.685005
1.105689,83.59642
1.1029146,82.07838
1.1240084,83.550735
0.917601,82.999725
1.1407813,79.42773
1.1338053,81.29565
0.9628534,80.17683
0.95018446,81.59303
0.9454318,85.45679
1.0420054,81.48542
0.9540536,76.1344
0.9448048,81.852394
0.90307724,80.60564
0.9078217,76.23448
0.82951665,79.21913
0.7733978,76.7748
0.8206994,75.83095
0.6981932,75.67701
0.685737,77.03332
0.6500085,73.69355
0.6279086,71.086494
0.6342939,76.62147
0.55582815,75.96769
0.47498572,74.531624
0.37148812,74.28534
0.46792567,74.218765
0.29334486,73.74788
0.40476537,68.838715
0.33306095,68.49998
0.40231776,66.181046
0.39342964,71.857574
0.4407673,73.1319
0.44564214,67.72995
0.36012647,66.661545
0.40538168,68.52368
0.31712148,69.4742
0.22470963,69.864006
0.33701122,69.040535
0.27609038,67.16113
0.13910215,65.73695
0.11099878,65.641525
0.23784035,63.55685
0.11302771,68.06396
-0.008495829,65.802895
0.09916348,63.98706
0.004975281,62.952194
-0.113016255,66.44988
-0.0045089186,66.843765
0.060760856,68.80023
0.10012135,65.110306
0.08876981,71.31881
0.119718984,68.89732
0.12483686,73.32646
0.28574404,72.77037
0.27704072,71.91144
0.38012004,73.46101
0.40024468,71.95454
0.46067774,72.19994
0.56843185,77.36153
0.72809714,76.21427
0.8185648,80.76909
0.87443554,81.85467
0.9142825,81.79426
1.0425209,82.25307
1.1529034,82.38732
1.206431,81.96026
1.1566346,82.33647
1.2201627,83.18007
1.2833272,88.15115
1.3997155,86.6868
1.3676395,85.53011
1.333346,85.96833
1.3615955,87.95459
1.4602077,86.04137
1.3288591,88.7661
1.3178543,86.66454
1.4256414,85.21596
1.3548241,88.84018
1.2318797,89.84387
1.4354501,90.74003
1.2358588,85.54074
1.2544636,88.89523
1.4489383,87.413185
1.2168524,86.098114
1.1843578,87.21124
1.1310041,86.0695
1.0473841,87.148865
1.080862,85.45301
1.0282378,87.62937
1.0373534,85.70223
1.0790555,84.42849
1.0267528,82.09961
1.0181315,85.842674
0.91719836,84.45485
0.97496957,85.651405
0.8714292,84.49286
0.8948158,84.188156
0.90531397,78.95249
0.9419434,80.53184
0.83411527,80.23908
0.83046407,80.91437
0.9382524,78.62862
0.8045233,80.8412
0.75319475,81.012314
0.7565926,77.78569
0.72278816,78.12976
0.6889237,76.45771
0.6261557,77.10264
0.62468046,74.99101
0.56413,74.695854
0.58377534,72.83368
0.5718298,72.22007
0.5032536,71.03235
0.5106383,73.65943
0.4360441,72.28862
0.36976755,74.254486
0.28633282,72.09865
0.29991353,73.24926
0.4317973,69.49173
0.3141566,70.61808
0.4493261,70.32521
0.36420748,67.98931
0.44269565,68.45044
0.36760592,70.113525
0.28465927,64.701996
0.38311622,68.893555
0.3638024,63.727566
0.2529668,66.04884
0.3183855,66.41641
0.18087284,64.41742
0.23438434,71.131836
0.20930585,63.70708
0.10601405,64.03501
-0.007716082,65.99747
0.006022567,69.32636
0.018359214,67.38507
-0.012307244,70.86624
0.047422417,70.22579
0.013154942,67.78833
-0.006490708,68.71363
0.10338839,69.86359
0.16413416,68.56147
0.2089301,68.85743
0.21377325,71.807465
0.29436448,73.86817
0.40672046,74.07309
0.51429594,78.49803
0.650371,74.59557
0.7270227,78.297874
0.8437772,76.94633
0.9554215,75.35856
0.99963206,82.85641
1.0573978,81.70385
1.1220045,81.430435
1.1656005,81.290764
1.2591645,79.52928
1.2436398,82.32879
1.3943481,81.85217
1.449656,81.60555
1.4685911,86.582756
1.4875304,81.9381
1.4061785,86.7146
1.5608072,85.258644
1.6633399,88.452194
1.569906,90.926834
1.4700166,91.197174
1.4797546,89.84067
1.5014776,84.2963
1.4315537,86.87607
1.5133758,89.709435
1.3910617,86.747154
1.4997345,86.86432
1.4086789,89.40272
1.4985439,90.49852
1.4608414,84.42884
1.4031769,88.38301
1.3927004,89.842186
1.3247688,85.73089
1.2377045,84.388885
1.2512959,88.04292
1.2883049,84.843155
1.2692252,84.09012
1.199718,83.23412
1.1546199,84.46752
1.192471,83.3166
1.1636586,78.24698
1.1465764,83.628975
1.0832336,83.80266
1.0843134,79.29062
1.0926076,82.30101
1.1646636,81.421486
1.0770929,81.124466
1.1086242,77.72044
1.0492753,75.42905
1.0383936,78.95396
0.99753714,77.836914
0.995049,79.69729
0.8590327,76.85124
1.0210757,74.365036
0.7928033,79.501595
0.75728965,75.935196
0.8113346,71.3776
0.7070099,73.33781
0.77686054,75.89601
0.71669,73.02702
0.8818091,72.11742
0.6272197,74.59344
0.6458109,73.46743
0.67424834,73.167076
0.68830734,72.37208
0.68378556,67.41002
0.6683895,70.30771
0.75185025,70.920616
0.6393011,70.573875
0.70573,68.44291
0.66987354,70.05422
0.6459035,68.96101
0.6820768,66.79152
0.58734626,68.7898
0.58601815,67.52951
0.53287125,63.98551
0.40954283,68.537926
0.51959,66.80509
0.37344897,65.07579
0.34380206,68.365555
0.44904545,67.2087
0.37227556,67.95608
0.39702803,67.71486
0.26161054,68.16725
0.44364554,69.202194
0.35190472,69.85493
0.40777054,66.58032
0.52252364,72.05778
0.5545379,69.29139
0.6404456,76.36159
0.6207056,72.79286
0.84231466,67.69439
0.76953727,72.59116
0.94980913,76.17472
1.0937202,76.33731
1.1342223,78.06936
1.1519549,80.716
1.3897138,82.04744
1.4530456,79.73721
1.430475,82.44722
1.5541012,79.76904
1.5918999,86.02684
1.7647657,82.508934
1.6668508,85.337265
1.786588,84.955894
1.6591427,87.55573
1.7974373,85.60532
1.7408489,84.34994
1.8438011,88.309326
1.9107269,86.75369
1.8381486,87.75274
1.7953197,89.504364
1.8745191,90.3986
1.9040955,86.6626
1.902602,88.36188
1.7881551,87.518394
1.7707069,90.82542
1.84404,86.52989
1.7660879,87.492035
1.8144006,85.19111
1.6877259,87.673584
1.666379,88.45399
1.5613714,86.40015
1.481411,88.29806
1.597255,84.03379
1.6765646,88.13568
1.4183321,82.69256
1.4748166,84.75324
1.4692029,82.14511
1.4265196,86.31431
1.4607078,82.405785
1.3852459,87.41043
1.479383,81.26569
1.4993743,82.2396
1.4584388,80.27073
1.4167064,80.04371
1.455278,82.94428
1.3646703,80.07212
1.4328156,78.54037
1.4883158,77.48039
1.3409812,76.68618
1.2805085,79.577194
1.2899588,80.1653
1.3115699,75.75958
1.1518459,74.83226
1.2292931,73.882095
1.0870996,75.64628
1.0485486,76.777214
1.035308,74.70372
1.0466996,70.646576
1.0389253,70.61721
0.84198475,75.33125
0.89179945,71.75541
0.92756057,71.33703
0.9061443,68.642586
0.9862709,68.717804
0.9873931,69.904236
0.92427665,67.83226
0.9869097,70.440674
0.93840486,65.505585
0.7877494,67.48846
0.8650424,69.30697
0.82546914,64.95228
0.857509,68.1889
0.75796497,65.56621
0.7782362,66.89499
0.685113,69.291466
0.692196,65.62216
0.65164787,62.85414
0.62714016,68.087364
0.6179392,66.19026
0.59577316,65.27693
0.44188976,65.91753
0.53844136,69.47293
0.55786103,69.92693
0.59031665,67.50947
0.7148779,69.21111
0.6794469,71.79015
0.71041983,73.60706
0.68376595,67.57746
0.8253282,67.74092
1.0646259,73.88259
0.96037006,74.008125
1.1050168,72.94869
1.2539501,74.942055
1.3189223,78.59224
1.4299695,82.924805
1.5197656,78.21173
1.5539796,77.97232
1.599197,79.86476
1.687813,80.79508
1.7674186,82.08556
1.7116889,77.95546
1.7773119,84.07933
1.834388,83.296974
1.9432732,81.44752
2.0173254,83.12345
2.0328887,86.32853
1.9698194,86.69488
1.8530458,86.427124
1.9088278,86.5251
2.0336273,90.38724
2.0420382,86.248375
1.9149711,89.65484
1.9507743,90.979675
1.8613105,86.51227
1.8203032,91.709785
1.813365,90.17784
1.8657687,85.83991
1.9264956,88.3869
1.9386148,88.689865
1.8495909,88.76016
1.7652799,86.04783
1.6115273,86.33896
1.6595296,88.53034
1.666178,82.05107
1.5375998,87.25974
1.5938516,85.925125
1.503792,85.84591
1.4627725,85.29381
1.5536196,81.576225
1.4998503,82.34618
1.5054282,81.13662
1.5309494,84.949875
1.4486101,82.20957
1.3653386,78.660675
1.3770689,84.27838
1.4017435,80.030075
1.3564507,81.45939
1.4324892,79.69191
1.3670082,79.295235
1.2107161,75.14166
1.2837497,74.9317
1.2182809,75.6363
1.2139791,79.9727
1.1001275,73.96564
1.0737549,73.2205
1.064925,74.809875
1.0767015,74.77954
0.949511,70.62867
0.9154933,73.47622
0.81634635,74.098145
0.8283602,73.85529
0.8377698,71.717606
0.8465175,73.30806
0.8927895,72.65956
0.78896695,71.45535
0.855023,68.75544
0.81027514,70.55602
0.76422083,70.42425
0.8736508,72.322525
0.78582305,66.435074
0.77737284,69.59183
0.73748004,65.61473
0.74723834,72.37392
0.64659524,66.98199
0.5747198,65.13885
0.6238881,69.76124
0.6277696,64.54186
0.4006695,66.88571
0.51970476,64.27116
0.41424826,71.049324
0.41582167,66.1637
0.30110225,67.06935
0.35967147,67.64594
0.41322076,68.44515
0.34144908,72.028534
0.45887598,71.631035
0.57403404,71.73144
0.60050094,75.01486
0.7083364,77.147896
0.8377323,72.30699
0.763903,74.38819
0.98233384,76.954926
1.0125655,77.7412
1.077973,73.89323
1.2968055,80.736176
1.3054013,77.524704
1.3488706,84.03677
1.3714808,80.75475
1.5742533,79.82761
1.5452332,80.69656
1.6197256,83.77331
1.6719637,81.584595
1.5746062,84.647896
1.7040169,86.59727
1.8095559,85.770546
1.8259226,89.668785
1.6871428,89.16116
1.790147,84.63754
1.7392981,88.83832
1.7328713,86.41377
1.8169944,88.56759
1.7968534,90.83337
1.6122974,87.16013
1.7060901,86.24294
1.6726537,89.1858
1.6549989,89.4437
1.5921627,91.125145
1.5715082,84.185196
1.4716425,84.87027
1.5833575,84.08843
1.459951,87.29735
1.4845394,84.45284
1.4504855,87.3624
1.3628448,83.37784
1.3214452,85.58877
1.2600266,85.27095
1.2732731,84.57399
1.1967084,84.59661
1.2728678,82.78082
1.2136072,83.58287
1.1958009,81.93073
1.1651716,81.437485
1.132403,83.832565
1.2023021,76.94725
1.0748117,81.23586
1.1315116,82.151306
1.1422008,76.07281
0.95068526,75.76074
1.1713781,75.78249
0.9476175,74.48186
0.9645776,73.08247
0.8695205,78.76448
0.92149824,74.081955
0.7652167,71.706474
0.8594375,76.57245
0.69004774,77.39266
0.5825628,72.783424
0.7440974,73.25794
0.56435424,72.939766
0.56222177,68.27824
0.6080584,72.978035
0.63336945,70.12261
0.4464212,69.18742
0.59864515,74.73884
0.5504953,72.095345
0.49593875,71.45129
0.35428965,67.657745
0.5646235,67.57766
0.5740904,68.57782
0.4615581,66.02405
0.5237571,64.4705
0.45192876,65.27015
0.33998555,65.82349
0.44711956,67.27464
0.30720302,65.480835
0.3388825,69.29895
0.27915865,69.29728
0.23710136,67.39734
0.122236975,65.70959
0.09358262,66.90133
0.04266337,69.46626
0.13959356,67.70301
0.19976965,70.50508
0.12968977,70.47017
0.09784192,70.85511
0.11738405,70.26821
0.13918225,72.98696
0.17037821,72.182495
0.29476607,71.75905
0.33656943,70.92796
0.4737707,73.746
0.6003663,74.72338
0.66141,75.78813
0.67108834,75.30791
0.9477431,75.857
0.82032865,76.59592
0.9237517,82.286835
1.0833255,80.52646
1.1021727,78.36254
1.2323053,81.946
1.3171788,82.353096
1.2284931,84.575775
1.3073488,85.49718
1.2889422,85.665596
1.3837827,82.36535
1.4641471,86.068214
1.3500286,87.2565
1.569168,86.7644
1.4686177,87.56692
1.4489341,88.823524
1.4159735,91.18884
1.4175268,86.95668
1.4076551,87.53204
1.2889209,83.87723
1.2895466,89.534256
1.2725782,87.017
1.252022,90.77171
1.3023003,87.821594
1.272084,86.87617
1.2954284,87.1126
1.1830981,89.46277
1.171203,86.47678
1.096047,83.488144
1.041054,85.77378
1.1115999,84.696396
1.0153035,84.91762
0.99216974,86.44456
0.9165035,83.97245
0.95098877,84.361046
0.92241573,82.953445
0.85578036,82.60427
0.9070217,82.18654
0.96151257,83.344696
0.92485243,81.93114
0.9249595,82.62671
0.8927675,79.0321
1.0246847,78.88337
0.8461718,78.85909
0.68529904,77.57944
0.87643635,75.126686
0.8460266,74.85443
0.58060646,75.207405
0.6092183,74.7796
0.5982462,72.81453
0.65867764,73.28718
0.50838226,74.32435
0.5765154,75.34489
0.44924164,78.18704
0.3454129,71.8986
0.48194918,70.4834
0.42630488,73.22738
0.2995534,73.91866
0.3690931,71.46821
0.3397937,67.41147
0.37379402,69.50635
0.2827146,69.166504
0.34943765,68.62465
0.4109703,68.89173
0.3213073,68.291374
0.39317003,70.0633
0.26876292,67.34119
0.32211897,68.14058
0.24044305,68.41994
0.30357492,65.23206
0.13753746,66.64435
0.11730819,68.56456
0.07240385,68.37
-0.00588466,64.96635
0.005027278,69.438225
-0.0077454904,67.49527
-0.09618848,69.147804
-0.0789063,64.533005
-0.037758086,69.278946
-0.053947117,72.475395
-0.11245236,71.55149
-0.02245213,67.842926
0.06965953,69.76121
0.14467792,71.68943
0.23536608,70.37414
0.25522256,74.88598
0.3111531,77.188156
0.4638653,74.09276
0.59917206,75.54782
0.59833664,74.85192
0.6466047,76.28605
0.8555803,79.82864
0.9383138,82.9489
0.9216702,81.87709
1.071255,78.95649
1.0904131,79.81255
1.1593881,80.39705
1.2330369,85.91447
1.26582,84.87602
1.3127989,82.72957
1.3763245,88.954254
1.3214467,85.55356
1.3893968,84.585464
1.3305086,88.86331
1.4379153,87.64609
1.4352001,89.153984
1.3063936,87.287384
1.4499843,88.46952
1.3965867,88.06764
1.3831526,88.78415
1.283238,85.173164
1.3435556,86.42056
1.377831,86.120445
1.1949476,86.093925
1.2589805,85.63507
1.2508613,82.525566
1.2147408,85.969475
1.2138094,90.80938
1.0647327,87.29404
1.1498237,88.46358
1.0377011,88.74012
1.0905867,82.143135
1.1403066,86.88138
1.1156209,82.70807
1.031306,83.38615
1.0656989,79.366455
1.100543,80.35925
1.0327871,80.03905
0.946072,83.23937
0.9199484,87.02487
0.8865767,80.42953
0.935971,78.37202
0.9884273,73.18864
0.8715511,73.208855
0.9183218,77.8989
0.8539479,81.42523
0.8777945,78.17083
0.7114681,77.53174
0.729991,76.54232
0.8612452,74.19375
0.6135401,77.18964
0.7331403,77.20899
0.61437595,74.21261
0.61775124,74.61291
0.53920317,73.03655
0.4586203,73.081055
0.55894583,74.03481
0.63592327,74.25691
0.5113249,71.62109
0.445291,71.685074
0.5439312,71.5116
0.48267806,70.5816
0.36681697,67.71936
0.4949621,68.71954
0.39492002,67.15105
0.4839672,68.67589
0.5752905,68.086655
0.4102968,66.753334
0.5215427,69.839096
0.4940088,68.165474
0.35162193,67.99033
0.322712,67.47897
0.28658494,69.84562
0.22267267,67.09431
0.29547158,67.25984
0.13877684,68.05634
0.10783454,65.04321
0.12651691,67.93749
0.2726241,67.038284
0.23782316,70.044106
0.22217771,70.38713
0.1671399,67.0714
0.29910517,72.69045
0.2946002,69.654305
0.34059525,72.633484
0.47956836,69.66007
0.5188037,75.33643
0.52021027,74.739105
0.71523684,77.142235
0.85381633,74.19167
0.9473287,74.678604
0.9988537,78.541595
1.1233193,80.51003
1.242426,79.78477
1.3030521,80.0682
1.3529478,84.10951
1.4170315,82.04398
1.5099448,83.64448
1.4359624,84.51101
1.5374516,86.50459
1.5194153,84.863365
1.6480893,82.74496
1.6011859,88.90472
1.6890762,88.53413
1.7336969,86.21948
1.6851637,86.89247
1.5456953,88.64956
1.814258,86.265335
1.7269107,87.5136
1.714259,88.224266
1.7462513,91.492065
1.644824,88.275955
1.6465278,88.20942
1.4952097,88.24526
1.6338935,87.56024
1.5430267,89.54574
1.5122968,87.63441
1.4481223,84.84939
1.4739805,87.292336
1.4184371,85.71101
1.4180155,84.480064
1.4694544,86.90742
1.3235685,81.834625
1.379275,83.01191
1.3652714,81.963806
1.3396307,83.792854
1.2646471,82.49048
1.207293,78.91235
1.2567501,79.653564
1.3227353,81.24732
1.2235296,78.184784
1.2920023,80.23467
1.3558352,76.834404
1.2905779,82.53186
1.2173407,77.143196
1.2012596,75.61802
1.1272681,77.23961
1.1079304,74.58306
1.1791594,75.25987
1.0309561,72.508606
1.0531414,74.721214
0.9956338,74.636696
0.96177274,72.61459
0.9497609,72.36391
0.8723798,76.335976
0.86169195,69.13952
0.89402735,71.05903
0.8270705,74.06378
0.8426801,71.03833
0.730732,69.17917
0.77847546,70.225266
0.8514414,68.00493
0.7424719,67.50272
0.9642165,70.89419
0.8085291,67.980316
0.67788225,69.47815
0.8299196,69.91477
0.777956,68.71502
0.6972004,65.45003
0.7449701,66.64766
0.69873494,67.78997
0.7106161,68.84681
0.7321271,66.863945
0.58436024,68.20065
0.51039207,67.54632
0.43485916,70.45795
0.559106,65.1288
0.5083413,66.061516
0.4291603,71.24418
0.515156,70.02891
0.5258155,67.443306
0.43641868,71.76433
0.5211377,69.828224
0.61245453,70.51807
0.71560353,70.8524
0.7895315,67.997444
0.8951477,72.80994
0.8122936,75.43967
0.93121827,73.22035
1.0816363,75.50652
1.1098871,78.098
1.2323631,77.852554
1.2806686,76.38762
1.5626019,79.32999
1.5722519,80.672424
1.5303887,81.5009
1.6710161,78.01515
1.6584427,80.05936
1.831473,87.47761
1.7945011,83.51132
1.9530592,86.45816
1.913114,84.98381
1.975198,85.356094
1.99301,89.469826
2.0081322,85.887596
1.9196204,92.64316
1.9824661,86.22384
1.9165163,85.78778
1.9422402,87.21734
1.8734169,88.983734
1.8423921,88.70021
1.9260578,85.152824
1.8925992,89.7723
1.9509068,85.670395
1.8733853,88.65007
1.827432,89.86964
1.850491,85.42319
1.7655838,87.322044
1.7846787,84.265915
1.7242469,86.79512
1.6831813,86.454346
1.62999,86.86453
1.6932433,85.46102
1.6116261,85.99127
1.5965663,83.57492
1.5883514,82.65329
1.5203284,82.54281
1.5586671,86.31878
1.5598553,83.20491
1.5487535,81.961685
1.4759951,83.539246
1.4183131,79.66745
1.4767344,79.0286
1.4656513,83.114555
1.49349,81.79622
1.375333,76.16835
1.4067342,79.25107
1.3763885,77.8397
1.2892905,79.12563
1.2278066,75.24254
1.1147139,74.84832
1.0997554,71.9326
1.1358327,73.23263
1.0538136,77.25042
1.0441915,75.62285
0.9062222,74.02643
1.0335786,72.983086
0.973547,73.78877
0.935701,70.98382
0.8372738,71.1219
0.8477682,68.95196
0.958058,68.25728
0.8735279,71.67991
0.97798735,69.78066
0.9785023,70.28955
0.88581795,65.51216
0.93386024,66.76061
0.81088847,66.64375
0.8077529,70.344246
0.75959283,69.068504
0.8494134,69.68735
0.68547726,64.03656
0.68886864,67.34185
0.67167705,67.3645
0.72523785,71.34229
0.5595871,66.30301
0.57424235,71.92362
0.49282217,71.57831
0.51789445,65.12312
0.4009767,67.9771
0.6245703,73.41497
0.5998313,69.49406
0.6078729,69.06083
0.64041173,72.61498
0.71426344,74.71585
0.8361455,70.248505
0.75109226,70.992645
0.80737084,75.63849
0.94284135,70.97088
1.1214131,76.3197
1.2067456,79.63422
1.2587167,79.13459
1.4363765,75.517944
1.32926,76.750565
1.4625578,78.916695
1.6007079,80.18087
1.6307529,85.01577
1.6174285,78.41181
1.6948923,84.34231
1.7896965,87.13868
1.8583322,83.19969
1.8577223,85.15168
1.92642,91.85661
1.8383043,85.5455
1.8859248,84.42069
1.840007,87.23842
1.8945262,85.21989
1.8660909,90.86433
1.9176565,87.115166
1.8364415,88.940735
1.7790174,86.71733
1.8981822,90.88565
1.8002356,88.511734
1.9038236,88.52486
1.8111548,88.88911
1.7039537,85.24486
1.59821,87.79122
1.6648988,88.03042
1.6613078,88.03364
1.634057,90.46294
1.6163784,81.43219
1.4921104,83.56718
1.5370362,83.02681
1.5142124,86.176384
1.4827186,85.3571
1.3904818,78.94241
1.3568918,83.35733
1.4612566,80.6147
1.3882846,84.58563
1.3691232,80.29091
1.2876669,80.30416
1.3625267,81.857475
1.3893025,78.95382
1.1690371,79.64976
1.2993622,77.318794
1.2440444,79.9252
1.1785849,76.5603
1.127875,78.25
1.1898649,75.79803
1.1448374,73.74328
1.0637773,77.66298
1.127522,78.4365
0.8441775,79.58562
0.9144368,72.29004
0.86178595,76.161316
0.85854954,74.20021
0.88365513,73.32098
0.74205565,73.37498
0.6324236,72.47326
0.75475764,73.7854
0.74817675,71.66857
0.77692443,67.7232
0.7560565,69.52071
0.65819144,68.62028
0.68200934,69.622215
0.79423046,67.29598
0.6039822,68.1968
0.6695445,69.94156
0.5913158,65.51468
0.56521624,66.75943
0.6403346,68.4044
0.55847275,69.90326
0.38544932,66.23279
0.41873893,68.84248
0.49689674,68.316864
0.36181062,65.233284
0.23349838,69.31226
0.3300896,65.67551
0.25728494,67.58222
0.18724218,72.44104
0.24827725,68.58336
0.24312904,71.20382
0.22080629,74.39893
0.32360765,74.135315
0.35134888,70.712845
0.45397684,70.57708
0.44712067,74.92811
0.53124714,74.75243
0.64382815,73.72755
0.68310404,78.46437
0.79033023,74.36601
1.0029707,74.80519
1.0523018,78.75751
1.1033839,80.67744
1.3194892,79.15949
1.2636448,78.653145
1.3319646,77.29358
1.4157242,83.61715
1.4559448,81.51356
1.4254093,84.4742
1.4414015,83.98421
1.518434,83.98314
1.5824018,85.83143
1.5903975,86.26235
1.5520643,87.798325
1.548538,86.4164
1.6651695,92.14667
1.6529528,85.05034
1.6209428,87.02005
1.5461178,87.13373
1.5055387,88.305405
1.3977032,84.67849
1.4479134,89.70317
1.4848583,90.94829
1.4349587,85.49055
1.348189,84.50493
1.3592409,88.10225
1.3369553,87.070274
1.2906835,86.35901
1.2636057,87.47234
1.2395258,84.62862
1.2110724,88.315346
1.1279464,84.76796
1.0303532,82.04605
1.0681686,87.42971
1.1925809,85.82319
1.068606,80.28484
1.0434223,82.34584
1.0765343,79.53156
0.99418044,81.204094
0.9610854,80.23618
0.9960672,79.42171
1.0834246,80.73455
0.98546946,75.49639
1.0203731,76.27807
0.9874328,79.236305
0.79794174,78.63948
0.8138139,75.90737
0.8260273,79.612495
0.7837603,78.44921
0.66880804,75.4151
0.64713395,79.53497
0.7421413,75.56092
0.6683552,73.49909
0.51468503,73.18703
0.49197498,76.61487
0.44610775,71.55937
0.52279735,74.50811
0.38000336,72.478836
0.44701466,73.282104
0.46528086,71.66554
0.42128217,71.513336
0.3904465,70.94389
0.3414788,66.83781
0.38379216,70.52164
0.38057527,71.10222
0.4011049,69.22635
0.36492735,72.63795
0.40198302,69.721855
0.2920881,66.112885
0.34652415,63.72455
0.20362704,72.27415
0.17560436,67.26107
0.25741702,66.98262
0.098224275,64.872215
0.03325643,68.385574
0.09297242,67.61775
-0.008585647,67.48487
0.00091459183,66.56808
-0.023512604,68.71829
-0.029433787,67.66667
0.0873897,73.61459
0.03209731,69.75039
0.029550523,71.38657
0.054744422,67.28918
0.0409507,71.44962
0.20544411,72.9698
0.20508435,72.50325
0.37898612,74.70464
0.4232405,73.73399
0.5598478,73.946686
0.5961058,78.0945
0.69278145,78.11412
0.84089375,78.48335
0.8826485,79.694374
1.0146395,78.4887
1.0667688,78.76797
1.039199,83.15143
1.1406825,84.30837
1.2687435,84.82446
1.3383844,81.91001
1.2805318,87.544174
1.1541214,85.01191
1.4049438,87.79492
1.4274722,86.00703
1.4198772,89.01583
1.2886242,88.20902
1.3914734,85.19457
1.3676404,84.96966
1.3561132,86.293274
1.4251925,88.41843
1.3064982,86.05474
1.302726,86.6073
1.2355981,83.86175
1.3662874,90.00514
1.2745317,85.99162
1.2109022,84.39317
1.0836209,87.63401
1.1381508,88.110214
1.1304348,84.82769
1.0485141,84.503784
1.0084909,87.50684
0.9440725,83.740616
0.9465456,83.43185
0.9631054,82.00969
0.93589807,84.95274
0.9707927,82.29526
0.8793108,79.11505
0.8614843,80.90264
0.8796857,85.507835
0.94976157,80.69794
0.88242674,83.33034
0.8590669,77.176544
0.84403014,79.81602
0.8972155,79.12158
0.79855835,79.68056
0.74095833,80.343765
0.7269727,72.76821
0.7336239,76.96073
0.68790936,77.32693
0.69941986,74.096054
0.57212013,76.702
0.6140131,75.541824
0.3842912,74.025734
0.45214233,72.53137
0.38167763,74.41287
0.50399595,76.14794
0.29571563,73.768745
0.33195937,70.75841
0.31652346,70.854546
0.3328889,69.92506
0.3085596,72.59578
0.41871363,71.411766
0.3392647,68.53047
0.36693963,64.74422
0.2980806,71.578384
0.2618852,67.34378
0.3822394,70.07432
0.36585695,67.44312
0.3307223,66.52079
0.3101013,66.068855
0.20873852,64.33757
0.266012,68.177124
0.2406142,68.839775
0.16024007,67.37097
0.034858163,64.60397
0.12669173,63.55061
0.0188613,67.35974
0.036306366,66.006
0.0041726995,70.56799
0.011183504,71.16776
0.010430728,68.63976
-0.08939811,68.51788
-0.0022835187,73.48214
0.11711611,72.382416
0.11160375,69.43584
0.2486089,74.63086
0.31560034,70.311676
0.47059098,73.20619
0.4812272,70.928
0.52687883,74.238815
0.7474568,73.69155
0.7543739,71.88336
0.9024515,74.98514
0.9355137,76.51085
1.0566998,81.227455
1.1041554,77.92487
1.1106693,79.5896
1.309537,83.34813
1.3828835,84.20546
1.4214345,82.64608
1.3116753,84.433395
1.4281589,87.03044
1.329003,84.77873
1.4793916,88.16044
1.4295387,88.436165
1.4162767,88.13276
1.5720406,86.17606
1.488219,89.21866
1.504435,88.824646
1.5496691,86.87182
1.4622767,91.94924
1.4991851,86.69373
1.4592092,85.88175
1.3405788,83.64716
1.3109603,85.82881
1.4002625,87.50269
1.4661268,85.10312
1.3744719,87.825645
1.2601705,88.76592
1.3131826,85.71561
1.2896845,83.10676
1.2566279,88.58465
1.2395643,83.62048
1.1866825,86.43442
1.225593,84.03772
1.1677924,85.74775
1.2427456,85.296295
1.2023262,83.289635
1.1677831,83.20612
1.1396538,79.38041
1.2262203,85.00781
1.1856649,82.51611
1.0717199,77.37218
1.0830858,82.22481
1.0263838,79.307526
1.0485715,77.80884
1.0599344,79.33847
1.0765136,77.51822
0.9450028,75.730835
0.9247907,74.95887
0.9066139,76.01262
0.8349363,72.187965
0.7404739,76.27181
0.71351904,75.244026
0.7948903,69.203926
0.632666,75.3547
0.7309283,71.86172
0.77121294,76.41752
0.66124237,70.45618
0.63285005,70.48628
0.60684735,67.49299
0.7026163,73.105896
0.5565201,68.15142
0.5665531,71.19798
0.6868831,65.37167
0.5670407,69.60843
0.6808126,68.25892
0.6000205,66.91821
0.6069593,69.92759
0.5766654,65.88419
0.6129661,67.37408
0.541237,68.62501
0.55562145,75.922386
0.3395886,69.99976
0.47690505,68.15489
0.37706548,73.0203
0.32852548,63.262135
0.37188375,65.54754
0.2864171,68.74411
0.3084545,71.91764
0.33550882,67.0969
0.32965696,71.431244
0.4324925,69.02596
0.43368417,67.93471
0.4604464,69.53567
0.52769077,73.171005
0.6812978,72.66426
0.6175877,71.474815
0.64050114,74.60703
0.85276693,74.283165
0.9261023,76.72053
1.0158385,73.201385
1.0452251,73.73004
1.2626559,80.634384
1.3438078,76.47852
1.4310555,76.46839
1.3547152,79.851974
1.5528005,80.09129
1.589367,82.59511
1.6908076,83.42847
1.6766623,85.58797
1.8195945,84.77909
1.7159383,86.92469
1.6429847,82.66273
1.7372705,84.54232
1.8537488,88.88697
1.8772141,84.3679
1.8154279,90.739586
1.7851068,87.796455
1.8267614,90.73968
1.8320546,85.52045
1.8003111,90.9713
1.7615757,89.18075
1.7624264,90.98483
1.7186582,89.68066
1.753857,86.422035
1.6649367,85.10999
1.6643825,85.70343
1.5991898,88.72806
1.6112456,84.98145
1.4262602,83.785706
1.5459335,88.35298
1.4417697,84.744064
1.516432,86.0176
1.4247291,84.38513
1.3162569,82.535706
1.3097986,80.842674
1.4925678,83.34802
1.4479874,77.59587
1.5209376,80.40896
1.3584578,80.94887
1.4310094,79.00951
1.358102,79.51174
1.2913343,79.9853
1.4069473,79.13018
1.4470263,79.86582
1.3509566,77.03597
1.2890264,82.74273
1.2774873,76.329605
1.2823318,79.78543
1.2525907,77.07924
1.1120037,75.32336
1.1655114,73.3616
1.0199274,75.84343
1.1566695,74.446434
1.1338127,71.43342
0.86869,75.80267
0.97046816,70.614235
1.0334717,77.09119
0.848545,78.01718
0.9763086,70.38831
0.92695075,68.95026
0.91935027,74.63625
0.9004462,72.27844
0.88192266,67.4139
1.0071846,70.38476
0.8620753,66.826584
0.9233339,67.14286
0.81360066,66.323944
0.7918592,70.79759
0.86545897,69.088455
0.9109908,70.33111
0.6975637,70.140785
0.88526434,68.98971
0.7157877,70.58054
0.66004694,68.952545
0.66195047,70.75381
0.5438563,68.34205
0.5737929,65.601456
0.4734207,71.43246
0.6073128,69.875435
0.5606247,67.93755
0.6394647,69.988
0.5678111,72.79616
0.75376993,70.17699
0.6718697,73.73655
0.8067406,70.54279
0.78527665,75.94461
0.9216196,77.5631
0.97463036,72.84217
1.1220738,78.64124
1.3323784,76.63935
1.3555981,78.34145
1.4088876,77.320175
1.5570363,78.40015
1.6061492,82.14338
1.6726766,80.51181
1.7262725,82.02847
1.7060823,84.38716
1.8117844,82.83653
1.8727698,82.72543
1.9236143,88.51527
1.9949056,85.88001
1.9324293,88.72077
1.94852,86.95608
1.9677243,84.66665
2.0272722,87.53484
1.8795989,88.357666
1.8909427,90.96333
1.909246,88.643135
1.8113185,90.07315
1.8543569,87.040115
1.931428,89.166176
1.8284051,86.89711
1.8395859,87.55168
1.890008,85.80606
1.7651579,87.50734
1.7914282,86.86749
1.8702854,84.55896
1.7688109,90.12525
1.7071297,85.01628
1.6340636,83.56419
1.7052364,85.87393
1.6204128,89.69818
1.6433148,87.19909
1.5404658,85.051926
1.5760874,83.732414
1.5423615,84.6955
1.5669045,83.06926
1.3936461,82.94074
1.4410696,83.70004
1.3217757,80.60897
1.4097819,81.68316
1.4899676,79.10444
1.432473,80.233696
1.4777149,78.51891
1.4007343,79.575226
1.3687637,80.903694
1.2127956,77.091934
1.2577556,77.381386
1.1338843,75.342224
1.2636857,78.297874
1.1962817,78.1824
1.1124259,75.88678
1.1490824,71.94263
1.0716699,75.53295
0.93620545,73.509514
0.81476796,74.06695
0.916173,72.99619
0.8834688,71.95377
0.84061724,72.60483
0.7993514,71.565605
0.9125729,69.73825
0.86188155,69.59426
0.761782,66.55144
0.8899487,68.99991
0.795254,66.62696
0.8087583,65.422676
0.74731946,66.17447
0.80427676,68.59463
0.7154365,69.79828
0.8260464,64.07997
0.6882631,68.60979
0.6898597,68.11023
0.5833315,65.48619
0.6410732,66.423
0.5005144,65.89503
0.4782401,67.68712
0.41195935,65.88529
0.48159578,64.403496
0.4417842,69.40476
0.49866286,67.751045
0.4825587,66.79945
0.52170986,67.54166
0.31540087,66.80837
0.5684875,73.03729
0.5477941,75.47602
0.59542054,74.69264
0.69390863,72.694954
0.8596646,71.71582
0.7922288,78.84708
1.0030829,74.63976
1.0670537,78.53602
1.2169356,78.91446
1.2875646,75.54359
1.3847673,79.57871
1.4497547,79.13851
1.4064155,85.33376
1.560667,85.12136
1.5697254,80.958336
1.6465228,82.15226
1.6920874,86.44103
1.7310064,82.99667
1.7396226,88.13872
1.607468,86.46004
1.7500778,82.69973
1.7791466,88.352165
1.7457099,87.62102
1.7379066,84.240715
1.6969508,87.0006
1.7373158,88.58095
1.699157,88.699974
1.7487032,86.85514
1.6116432,85.48173
1.6303812,87.009514
1.628548,84.23795
1.6142137,86.78754
1.5933329,84.763855
1.4679023,86.12638
1.4250983,84.45017
1.5384771,86.11706
1.5133345,82.4245
1.2364109,85.38398
1.3314227,84.92127
1.2997161,83.99233
1.3440266,86.08076
1.2200822,82.37591
1.2791901,85.47365
1.3265748,78.74842
1.1976242,84.81679
1.1991137,81.89477
1.2758889,80.17739
1.2115085,78.12759
1.2464331,81.22153
1.1804627,78.96081
1.2097282,80.39243
1.0140156,79.86999
1.1194426,77.33743
1.0529337,75.62398
0.9986434,74.17727
1.0414867,72.70573
0.84910446,75.672844
0.85741013,73.84695
0.84808034,71.761566
0.65745276,75.90996
0.60076284,73.564026
0.727316,71.97934
0.6673443,73.396
0.6774057,73.8478
0.58728695,73.07631
0.57232976,70.996544
0.4784404,73.168724
0.58273464,69.38689
0.53449136,68.049965
0.6083779,69.87232
0.49720874,65.89691
0.61642593,68.656166
0.5863178,69.36474
0.48188168,66.305824
0.43158847,66.365654
0.588411,67.10049
0.45135295,67.29089
0.3581488,65.19057
0.33429062,62.460144
0.20013265,71.477234
0.18187904,65.971985
0.20824629,67.71577
0.21133336,68.91466
0.16717836,65.55227
0.20839901,69.1152
0.12137995,65.87936
0.06847605,70.88135
0.11063522,65.99391
0.17648402,71.78436
0.22915477,69.85144
0.3345285,70.95017
0.29011565,70.53525
0.41392872,70.256905
0.3925947,73.657684
0.4742899,70.68595
0.64796764,70.48708
0.6727428,78.88593
0.71643,75.7116
0.8661015,76.53415
0.8929639,77.31162
0.974089,81.05857
1.0862921,82.39945
1.2030537,82.88111
1.283829,85.91477
1.3611194,82.883675
1.3320206,85.80756
1.2980876,87.030396
1.4498794,78.87696
1.4184455,84.683365
1.4894558,85.02264
1.4182383,87.85914
1.4550922,87.49053
1.4841557,84.340515
1.4697831,84.895874
1.3567467,89.56068
1.489741,89.36961
1.4928182,87.80855
1.413721,89.7162
1.409673,86.52193
1.3824474,88.15647
1.4610655,86.25513
1.1885295,85.48631
1.2762215,83.176994
1.1855252,87.17176
1.1387204,85.787636
1.2112325,88.57301
1.2027682,86.65627
1.1402389,83.467026
1.145119,85.3001
1.0031303,83.23068
1.0255525,84.44834
1.1172733,80.04363
0.9493894,87.01212
0.9662883,81.50479
0.98924977,79.91416
0.91229886,82.37331
0.98599166,83.27763
0.8048812,83.84158
0.8925317,79.427765
0.9274308,79.24442
0.8306777,78.11542
0.77712977,81.37852
0.78555,81.2126
0.82710576,73.04606
0.7368222,76.30888
0.7457955,78.54795
0.730065,78.34641
0.61355495,74.94493
0.5390275,74.30281
0.6249456,75.55853
0.43648258,77.35249
0.4383344,69.82405
0.5085681,74.30964
0.45618904,72.42989
0.4159205,71.917076
0.4277063,70.33594
0.34118247,71.285835
0.2694928,71.3347
0.34351107,70.44376
0.43397728,68.55472
0.41377687,67.90012
0.25808662,72.7593
0.2514324,67.34762
0.38289776,67.18135
0.25081858,72.559166
0.30412507,67.30876
0.29962498,66.46366
0.13974565,72.14766
0.18590547,65.86913
0.081086256,67.84729
0.16012049,69.241035
0.054632246,71.11433
-0.0071962457,70.101776
0.0057067703,67.19529
-0.014432044,66.51773
-0.023683853,68.45763
-0.057871092,68.380005
0.041274123,70.18543
-0.058373548,71.40137
0.008367663,68.47991
0.038499504,70.35881
0.07876485,72.09667
0.1686574,73.92597
0.16921437,74.157036
0.37478802,76.272385
0.46942782,75.01925
0.50012004,75.25016
0.59053004,75.85633
0.66449666,76.39884
0.8865749,74.654175
0.8949378,82.025116
1.02652,82.38451
1.1786444,78.91212
1.1388236,81.455185
1.1988841,84.146614
1.3182603,84.56507
1.2987124,82.656395
1.3932877,77.811775
1.2408713,84.61489
1.3851819,87.61501
1.3581723,83.08455
1.3298423,88.75011
1.3420575,86.15604
1.4269876,86.18779
1.3819611,88.06993
1.3865376,84.43171
1.432962,86.72792
1.4383861,89.395164
1.3949364,91.85456
1.3434458,87.96447
1.310739,88.33059
1.2021961,90.74076
1.317138,88.001495
1.2053915,87.18736
1.2131327,88.84252
1.0439917,88.36496
1.2564259,90.237404
1.0430425,82.065605
1.1090392,84.57225
1.0234411,84.598274
1.0462637,83.380066
1.0195137,86.068794
1.0856771,79.15826
0.92533183,81.97458
0.8665988,87.19303
0.92474866,78.11261
0.9640152,83.34612
0.9880174,82.11421
0.8643859,78.1241
1.0124468,81.45134
0.8478638,77.209045
0.9090219,76.48802
0.85865676,78.1252
0.86792624,77.44236
0.8658381,77.35157
0.7680255,78.42203
0.8390143,76.70753
0.64439666,75.65141
0.6866739,73.323456
0.662182,71.43303
0.6281027,73.992386
0.5327208,80.10738
0.4764237,74.530045
0.4779879,76.55544
0.6283576,72.59673
0.45926479,70.34119
0.4266303,69.31205
0.3976083,74.22883
0.46366185,68.32254
0.38829994,67.83797
0.39828762,69.155495
0.56852937,70.81414
0.46284443,68.65
0.42338985,68.22599
0.47013605,67.82146
0.33658344,67.19076
0.4448381,66.164696
0.39451763,65.670685
0.37716702,68.81832
0.4148229,68.5474
0.24656287,67.52719
0.26809257,67.604126
0.19120497,65.53406
0.15963198,65.18031
0.15465549,63.952755
0.18556347,69.03191
0.11462315,66.42007
0.15612273,70.06172
0.28263196,71.17223
0.08781229,67.735466
0.19033755,69.74659
0.26490903,68.9752
0.2997761,69.99019
0.49201995,75.13804
0.50986725,77.33497
0.55337536,72.08628
0.6280779,74.85139
0.742486,74.54413
0.9421883,77.47424
1.0515872,77.745155
1.0880284,74.73273
1.1236154,80.94312
1.2489884,82.07585
1.2713768,79.53754
1.3728414,78.59039
1.4313642,82.998
1.6011474,86.41376
1.5540793,83.999825
1.54118,85.6526
1.5139573,84.93058
1.5743405,85.97931
1.5890213,86.77762
1.6059431,85.10994
1.614767,88.2986
1.5923179,85.76494
1.6718956,86.30663
1.604873,86.85637
1.618238,93.50853
1.6658525,87.40101
1.6061147,90.58746
1.5424181,89.021706
1.4965384,87.16503
1.6088687,85.381805
1.4784602,86.43559
1.4782256,84.653336
1.4702489,86.236694
1.4621178,83.64744
1.4154952,87.44812
1.396522,83.74724
1.4055079,82.71883
1.3833588,84.297966
1.3886623,88.44406
1.2650183,86.837845
1.3381133,85.68157
1.2580385,87.00013
1.2962084,78.86254
1.2325352,82.96308
1.2184668,83.25816
1.2364616,85.01618
1.3582046,81.12305
1.1350018,82.32251
1.2497902,78.626526
1.1144413,81.80857
1.1419063,75.50105
1.1571382,76.14396
1.1757838,73.87952
1.1045275,74.95009
0.9401277,76.837395
0.97464675,70.951546
0.8620735,75.00747
0.9950775,71.67596
0.9400858,71.17899
0.834464,74.65841
0.6653561,70.66294
0.7304331,73.77804
0.7259385,74.54158
0.74559754,73.99257
0.7987669,69.43246
0.7499102,69.34891
0.6775308,68.12899
0.6861548,71.1973
0.78862864,68.34635
0.89485025,68.82078
0.71327347,67.01385
0.8274453,68.167816
0.7460406,69.37641
0.825795,67.195694
0.6947707,63.270084
0.6582347,68.54529
0.74852103,62.043068
0.62048405,67.13117
0.5341398,68.132515
0.53248125,66.52024
0.49749357,71.59369
0.44084328,69.40437
0.6231602,67.903656
0.37388796,67.19535
0.526018,68.19825
0.49201828,70.6971
0.43651727,69.28185
0.60390395,71.07602
0.5996486,71.27646
0.5895449,70.41398
0.77630603,68.66249
0.78221554,75.77524
0.83126795,74.82802
0.99516726,76.43962
1.1328408,74.27358
1.155993,76.4131
1.1759439,77.454544
1.2906345,75.85197
1.4022738,82.74721
1.5492845,81.1321
1.6763558,81.53263
1.5938957,79.009476
1.6718776,84.40878
1.7966446,85.728134
1.8086168,83.37694
1.8299767,88.34258
1.9402653,85.98076
1.9113289,88.13118
1.9232525,85.98325
1.8948874,85.301414
1.9140228,85.544655
1.884649,87.36286
1.9518086,84.34336
1.8842701,89.649956
2.0299702,87.75486
1.7654794,90.27487
1.87095,90.30248
1.8549354,88.15438
1.8093717,86.61744
1.8395512,90.26119
1.8506625,87.282036
1.8239496,86.95539
1.6449453,86.39745
1.6520334,87.73107
1.7342328,85.14749
1.6895937,80.92989
1.6932666,85.17514
1.5987364,87.32128
1.4593773,83.441605
1.604003,84.07803
1.5826768,83.8904
1.4930803,81.955
1.4808466,81.49182
1.528189,85.347496
1.431637,79.51863
1.5522946,79.95321
1.466756,80.36962
1.4123112,79.67724
1.41574,77.94711
1.4000037,79.178246
1.4678303,75.24553
1.2870562,78.44042
1.3250568,74.96624
1.1847844,76.14292
1.2524142,73.94305
1.2731264,80.38586
1.1037265,75.454994
1.1359346,74.95322
0.9556608,75.588585
0.9299936,73.2816
1.0309922,75.215034
0.92708004,74.34322
1.0005819,75.79235
1.005887,70.03956
0.8427956,70.089424
0.7592333,72.508804
0.88593584,69.15933
0.9533118,65.02189
0.87073606,72.18474
0.848563,66.71534
0.86717975,71.0918
0.8367527,68.97599
0.910748,67.98816
0.928959,70.187706
0.7619862,67.9575
0.8344119,65.352165
0.8763651,70.13582
0.76134104,68.259346
0.7122861,64.813774
0.61530685,62.414944
0.56033903,66.422035
0.57501036,74.77061
0.48689026,68.776184
0.64315134,70.43194
0.53891426,68.18625
0.51870894,70.34148
0.50682014,71.94392
0.5728604,68.91717
0.5551059,65.8287
0.6735181,70.827835
0.66922164,73.10169
0.9195258,71.01779
1.0243347,77.02923
0.8651682,75.047745
0.96443915,73.53847
1.1536365,73.20708
1.155748,77.23749
1.3799105,78.44621
1.339662,82.18184
1.6235737,78.56738
1.5655416,81.33567
1.6716195,80.09821
1.6777979,82.548965
1.8150038,83.8498
1.7958093,82.061165
1.7133894,81.20539
1.7501708,88.727844
1.9048682,85.6811
1.9363642,86.40703
1.9431034,86.89395
2.0081406,86.26163
2.032484,89.62337
1.7818369,85.444916
1.9130265,85.416016
1.825449,87.24228
1.9720352,90.57299
1.8745455,90.7374
1.8451188,88.41453
1.8849369,89.238365
1.7183049,85.75766
1.752394,86.73057
1.6610328,88.86582
1.5223403,88.7114
1.6677036,87.83199
1.7069643,83.79545
1.6121628,88.10124
1.6196483,88.34047
1.531864,84.117226
1.4533099,84.71634
1.43379,85.821495
1.3301712,82.88969
1.506717,79.95938
1.4005706,83.1908
1.2551669,79.490875
1.4459921,83.745514
1.4057859,80.916405
1.3509935,82.039604
1.3499542,80.41077
1.3271261,77.834625
1.3050102,77.10451
1.2510748,77.80266
1.2436334,78.75731
1.1953819,77.1783
1.1502451,82.14713
1.1221215,74.97357
1.0147986,75.684425
0.9686051,76.95823
1.0249159,72.26713
0.9071808,79.22166
0.9712256,77.78427
0.7869644,74.915596
0.7968917,72.239784
0.63185453,72.29632
0.73444885,70.02512
0.7799078,73.42807
0.8001655,70.83801
0.6336164,71.06431
0.86133176,69.22164
0.7049217,73.23225
0.680283,68.332115
0.7583161,67.509895
0.74760246,68.74979
0.58152497,67.69061
0.62287265,65.85281
0.65938604,69.560814
0.48442808,68.045135
0.58334625,68.48488
0.5633773,71.107506
0.51957196,67.52155
0.41730845,65.32617
0.38577786,69.2109
0.35633218,66.23349
0.27148622,65.48482
0.2196315,71.379166
0.27059102,67.0678
0.22841564,66.806755
0.3149274,69.781265
0.25631845,71.35098
0.36271134,71.32313
0.3445013,76.382545
0.38939258,68.79248
0.36648813,71.74892
0.46120363,73.212944
0.68353856,77.390274
0.83464,74.70665
0.88017666,75.42975
0.8860304,80.62319
1.1116894,76.43869
1.0939939,80.86585
1.2412983,79.31076
1.2636882,81.68555
1.3768145,83.22133
1.3807485,83.55335
1.5107312,83.84179
1.4424746,82.71083
1.4392927,85.56499
1.4225825,81.82636
1.5331248,85.9519
1.5755781,87.15258
1.6024767,87.89988
1.6530875,87.93721
1.7125943,83.751854
1.6253086,87.10968
1.5646281,91.344315
1.6629982,86.768616
1.6935014,89.45959
1.424441,87.13349
1.465159,87.97085
1.4892769,89.76048
1.5128835,89.01293
1.563131,88.337746
1.4045172,88.56926
1.4302764,88.34947
1.3065892,87.62749
1.2893716,87.878555
1.3008368,85.787155
1.2371855,83.60174
1.2556307,87.810905
1.2540079,85.71263
1.1744581,84.99731
1.1283615,78.26668
1.1570743,83.29513
1.1409571,84.034065
1.110762,83.6072
1.0730051,80.45983
0.8877939,84.08569
1.1023297,79.97214
1.109404,79.76631
1.0014485,78.62986
0.94075483,77.3518
0.9079992,80.479965
0.88162017,79.19001
0.9673978,75.308784
0.8509515,80.58682
0.7974194,77.47939
0.74495196,74.83611
0.75546765,75.69934
0.68614715,77.88854
0.6785249,76.126656
0.6750939,75.43096
0.42876056,75.5539
0.48288217,65.04302
0.51585954,72.97972
0.39948103,71.62855
0.4975905,72.728294
0.46529862,72.912384
0.34754357,73.26422
0.31551692,72.103165
0.32936615,70.22757
0.4451537,71.57148
0.38545465,70.63492
0.5295894,72.60494
0.3841456,68.283806
0.2955103,73.45891
0.23626289,68.99938
0.37328658,67.805466
0.33269972,66.74752
0.16802004,64.27994
0.19712497,65.73473
0.15637735,67.113205
0.1957539,69.00772
0.035608683,66.726395
0.009500124,68.80373
0.017991195,69.45647
0.025455056,69.60558
-0.032271247,65.86564
0.014730866,69.46293
-0.0658243,67.4752
0.004853391,73.63364
0.09725685,73.36579
0.21406354,72.41686
0.2073494,74.97383
0.30229074,74.16809
0.29106882,73.69537
0.45536783,74.01449
0.63906056,76.83566
0.6088695,78.8965
0.6969107,80.34466
0.7470675,77.965996
0.92744476,80.30075
1.0510836,79.12036
1.1684566,76.55506
1.0963773,79.93368
1.2017483,78.53082
1.2495803,81.6519
1.3142139,80.71901
1.2622625,85.76125
1.2716243,85.91036
1.3704549,84.75761
1.2999264,85.71087
1.3704722,81.87964
1.3920006,87.59148
1.2796569,90.14033
1.4321226,88.62528
1.4294537,87.09691
1.428154,90.19656
1.325017,90.13129
1.2823106,84.94813
1.3174293,87.72027
1.3181174,85.656685
1.191095,84.67083
1.2037585,85.03996
1.2241198,86.65465
1.191717,86.35464
1.0609851,84.75716
0.99372965,82.759
1.0137337,85.28363
0.99654394,85.8397
0.9712651,87.09332
0.8809913,83.34448
0.97433364,81.65911
0.83355665,80.76796
0.9570777,83.62907
0.8938047,79.86773
0.89619815,80.23451
0.9369079,83.63466
0.91794574,82.09164
0.8429069,80.218094
0.8742066,83.23189
0.88828564,75.61386
0.8504823,77.40166
0.76533026,79.0656
0.71658576,76.072784
0.767088,79.26918
0.6858211,80.49414
0.7287306,77.40244
0.6200167,78.26069
0.559113,79.785095
0.58725303,73.35053
0.5768443,73.57792
0.30121738,73.05052
0.40793538,70.846664
0.39018902,71.980484
0.43252072,71.64565
0.40838876,78.2064
0.4648903,75.20336
0.31805974,72.517456
0.31966153,74.25116
0.3652753,72.76699
0.42724985,68.47227
0.25895104,67.16589
0.25487462,70.551506
0.3716922,68.96735
0.3654859,70.2447
0.30910206,68.36369
0.23308344,68.65203
0.27195367,70.95908
0.3388508,68.91859
0.23708712,65.81694
0.14583427,68.053246
0.15791108,65.13736
0.041046187,66.34646
0.073494494,67.249954
-0.036936138,61.93974
0.015742598,63.407513
-0.032306854,68.41737
-0.039578136,67.98849
-0.011808274,67.440735
0.046873964,71.05109
0.12957989,72.03801
0.16249801,73.690895
0.13867703,73.66128
0.22606799,74.0177
0.3397794,71.490814
0.4603475,74.17909
0.5876218,75.67432
0.63345057,76.74551
0.7322571,79.186584
0.81826127,81.87639
0.98360723,77.9057
1.0514976,81.83892
1.0744882,78.60689
1.1537685,85.66066
1.2539418,87.25984
1.3645698,81.57372
1.3277725,83.187836
1.3623883,86.48007
1.3989592,84.02182
1.3720816,86.00152
1.4878262,88.04119
1.3489939,85.383896
1.4259796,88.725266
1.489325,87.248924
1.4983354,87.86185
1.4961565,86.79012
1.6092528,85.31779
1.4265082,87.84075
1.4543562,86.5544
1.3328164,88.45125
1.4048382,89.00051
1.3469747,87.21578
1.3854104,85.730675
1.2903188,89.95672
1.3459034,86.74962
1.1705381,86.813385
1.1819764,88.25211
1.2868614,86.13605
1.154678,86.36732
1.2230476,85.87675
1.2162052,86.540955
1.2480592,81.81945
1.0885249,83.54363
1.0558399,81.432594
0.97883314,84.11641
1.0458951,82.04226
1.1265292,78.70331
1.0845497,77.05189
1.1419348,81.15679
1.0536351,78.49969
0.9992596,79.47741
1.0639217,81.6155
1.0319835,81.707115
1.0513755,79.919014
1.1077836,79.73754
0.95908326,78.47393
0.8971158,74.345245
0.8501947,77.79879
0.8213928,75.51707
0.85491997,75.042564
0.7493104,75.850586
0.67714083,74.79622
0.7536352,74.02655
0.6872041,69.324745
0.59153014,73.40773
0.60565764,73.5483
0.5685311,71.02685
0.56681484,74.953545
0.5703045,69.0606
0.6399516,70.7141
0.6225339,68.2422
0.56754017,68.67288
0.6288341,68.61967
0.5613185,67.71367
0.5840075,66.717834
0.5903417,71.21194
0.6202245,68.93973
0.561974,65.86257
0.49809325,69.69917
0.49381116,65.83936
0.51948375,67.345314
0.38983408,65.67138
0.33780733,66.04241
0.28196064,66.310715
0.38672498,64.352554
0.3081973,65.58648
0.41938776,69.417366
0.2330456,66.68081
0.31482035,73.23356
0.25876498,69.05613
0.4087316,72.24519
0.50973785,70.70632
0.5533232,70.03028
0.53610045,71.10014
0.5953412,72.01632
0.8257509,73.07348
0.9449155,76.43725
0.91616124,77.72921
0.96995753,75.04997
1.1144215,76.78837
1.1692547,74.07008
1.3896283,76.80779
1.3819354,81.713104
1.53395,82.06335
1.4848502,77.17413
1.6499362,80.138565
1.5889493,88.40781
1.6446187,86.494514
1.7985449,82.65034
1.6147931,88.44806
1.7231113,84.61786
1.8267797,88.253624
1.7965757,88.81849
1.8228637,87.03901
1.8799378,89.14921
1.7050462,86.6229
1.753498,85.342674
1.8175044,85.672325
1.7940146,85.85803
1.7773217,87.9881
1.8058052,91.56005
1.7557474,85.83822
1.7786036,86.08684
1.6962382,89.176445
1.5885572,86.94523
1.6858746,84.98172
1.5565447,83.54567
1.6449672,83.18588
1.495621,83.093346
1.5604675,84.7614
1.4319599,85.24123
1.5626377,82.84027
1.5255321,83.53826
1.4439602,83.64062
1.498844,79.7128
1.4636567,86.16036
1.3826205,80.85306
1.3679079,81.95466
1.4505814,82.13237
1.4467528,78.206024
1.4633373,81.66554
1.4142194,74.80889
1.3619108,78.50438
1.2560792,78.86069
1.3606627,76.152405
1.2131926,77.249405
1.2510238,77.08098
1.148201,76.481834
1.2336088,73.6385
1.0980484,76.784904
1.0935141,73.90574
1.1369294,74.47179
0.9340964,74.68391
0.85401505,73.36892
0.885597,73.89898
0.99525565,76.71913
0.9603982,73.83321
0.820223,70.1046
0.9174069,72.48238
0.8777333,72.767105
0.8537738,70.22073
0.8085666,68.9095
0.92247885,71.73545
0.9554272,64.58578
0.78324693,69.1872
0.8776503,67.458336
0.8399295,71.42676
0.91463196,67.492195
0.8026363,67.76527
0.72984546,68.261505
0.7414265,65.093636
0.774644,67.09853
0.72624356,70.49741
0.5905666,64.0941
0.48817,64.44565
0.62159455,67.08916
0.5926954,66.17128
0.59014344,69.46621
0.61931247,67.408905
0.52203333,70.45659
0.5963817,74.353714
0.6447038,67.14519
0.6168893,67.76321
0.81443423,73.73967
0.9316744,73.64186
0.9025109,72.05083
1.0255102,75.522766
1.1532376,73.611496
1.1959139,77.82844
1.2983497,76.17706
1.336739,80.572525
1.3867607,80.28602
1.5702479,81.259796
1.6117643,80.92346
1.6928169,79.13396
1.783319,81.34766
1.8440783,80.06922
1.8682114,81.3908
1.8355795,85.15697
1.9685872,87.15597
1.8893528,88.88196
1.8781846,86.63362
1.9667953,83.51352
1.9996679,86.75863
2.0483625,86.50215
1.8699899,88.50571
2.0921843,88.36999
1.8286254,87.89644
1.9350234,86.88258
1.9839481,86.772446
1.8788929,87.71998
1.8325921,89.42746
1.9004928,88.80203
1.7762772,90.96571
1.8500394,85.66119
1.7615074,87.72389
1.6950196,89.43189
1.6941508,87.8002
1.6341379,84.50374
1.5957441,84.80686
1.6332422,84.90514
1.5000806,87.034836
1.6339267,81.66416
1.6478199,85.18679
1.5824957,82.43529
1.4535962,84.07479
1.4801272,86.09683
1.4828576,79.22966
1.441455,82.300415
1.4924606,77.08295
1.5305537,76.61805
1.456927,74.70059
1.5347211,78.15511
1.3977777,79.20832
1.3225589,76.18597
1.3349111,76.34403
1.2951199,75.11741
1.2068877,76.004005
1.1674113,73.1385
1.1343368,77.31299
1.0553811,73.544266
1.064886,71.89435
1.0144361,73.49168
1.107893,72.72011
0.95067734,73.49079
0.932832,71.633125
0.9306759,70.550896
0.85404235,71.02794
0.81633806,66.991135
0.8126428,71.85258
0.8353486,69.48281
0.87964547,71.93602
0.88980204,70.58063
0.9314809,67.142525
0.8528199,68.687614
0.8286505,67.11074
0.8222072,66.98244
0.7552143,67.64677
0.7378618,64.24171
0.8398846,66.12641
0.64540654,68.57288
0.6235703,67.39077
0.5768555,63.94771
0.59244275,70.5776
0.5196488,64.32788
0.5060448,75.10877
0.50199485,73.14405
0.5090607,66.86906
0.39855677,66.00165
0.47191957,69.15319
0.47537354,72.44221
0.5231276,69.24011
0.68812245,74.0762
0.586597,70.88702
0.6532017,70.15434
0.6851255,77.03307
0.842476,79.083
0.9367163,73.334145
1.082401,78.0982
1.0996653,79.63837
1.2503752,81.95408
1.3130507,77.72674
1.4168665,79.798706
1.4734694,78.0816
1.5671618,83.31578
1.4909146,81.67122
1.6912683,84.77626
1.5767535,81.351524
1.7535379,86.26207
1.5958222,89.40037
1.7606483,84.679146
1.7616721,83.75129
1.7747353,87.840126
1.6759142,87.6778
1.7618625,89.61642
1.7516505,90.0837
1.7998828,90.37342
1.6879686,88.9846
1.8092887,87.84294
1.7337326,88.4454
1.7680091,89.007935
1.6748453,86.334885
1.6661532,88.5612
1.5935624,84.44523
1.6673043,87.809425
1.5146215,91.91961
1.5569462,84.70641
1.530625,86.26017
1.3804152,82.983025
1.4135209,85.082794
1.4288439,87.924
1.3854889,85.73583
1.307924,81.68422
1.361832,85.06693
1.2023957,82.49489
1.2498872,82.88816
1.3048207,82.87593
1.3189538,82.254196
1.1844697,81.31606
1.2269697,81.56447
1.1521266,80.72735
1.2138404,80.35561
1.1526495,79.802986
1.1757569,83.16747
1.1007587,76.700935
1.0152749,79.47126
0.96825504,73.87969
0.89141357,81.38277
0.9332347,73.91524
0.81363285,76.42328
0.78997445,79.6779
0.5831197,74.21138
0.76408523,69.81319
0.7276114,74.63693
0.5599656,73.82824
0.5700434,72.395065
0.48280323,71.2885
0.59770644,72.22857
0.61127806,69.4197
0.58261573,68.80213
0.64631987,72.70139
0.5381592,71.720955
0.61795807,69.34913
0.55304515,69.11408
0.47464362,69.07218
0.53713393,66.85457
0.4636283,66.05461
0.39058924,68.11987
0.45469102,69.69752
0.5419811,67.34084
0.3281281,69.17689
0.22633615,65.57557
0.22523913,68.29708
0.121425994,69.46899
0.16241822,64.53687
0.1262183,67.98299
0.21482787,66.52945
0.20460366,68.882965
0.12202091,64.6219
0.15778868,72.039345
0.14396411,72.47683
0.13378203,68.51181
0.22148092,71.484215
0.30688202,68.57395
0.45334888,73.81903
0.43755388,72.55861
0.5673707,73.0717
0.6189518,76.10306
0.66851825,74.159744
0.8513274,81.51742
0.9731175,74.76443
0.9428162,75.467224
1.0272472,78.41229
1.1170504,81.572426
1.1777482,83.21145
1.273202,78.54463
1.3516587,79.416466
1.2748998,82.38955
1.343041,85.12372
1.3473381,86.970375
1.4506208,84.82347
1.4440886,88.82778
1.4146594,89.49732
1.5272673,90.25383
1.4944776,84.9482
1.4341902,83.609184
1.4305495,84.31449
1.431804,86.99493
1.4584967,87.49519
1.4296783,89.7326
1.4431393,89.44402
1.4409391,87.708496
1.2401092,87.98709
1.3287264,89.808655
1.1706882,86.47243
1.2490579,91.35845
1.1820513,84.70996
1.243718,88.39627
1.1793482,85.99542
1.0619051,86.079185
1.0978318,87.14394
1.0298775,85.87244
1.0032152,86.89389
1.1508851,82.89867
1.0276933,82.94049
0.9967739,83.717545
0.9498707,83.51299
1.047473,85.81795
1.0280225,81.71725
0.9452315,80.90696
0.978022,79.53285
0.8321931,77.76196
1.0035411,81.5392
0.8449206,79.12643
0.7949034,80.05331
0.8583429,78.045265
0.54089004,76.39385
0.806867,77.04319
0.71601444,72.34121
0.64615023,80.04646
0.53758556,76.96834
0.52200025,73.82786
0.4134308,75.76121
0.34242934,74.204025
0.4492605,77.0023
0.34810233,75.03648
0.37523764,75.947716
0.41389632,72.71013
0.3988347,72.67286
0.3085629,69.34187
0.32972968,69.28065
0.28946784,69.65118
0.3968707,71.525
0.30276147,65.620224
0.29184937,67.35885
0.39263394,67.841644
0.20138752,67.31538
0.2535447,67.54912
0.2518991,64.50367
0.18146229,67.11789
0.2601926,67.80435
0.07358169,64.85369
0.08080777,66.41767
0.050341267,69.23576
0.068056025,69.67712
-0.11588105,67.41458
-0.06106338,66.44583
0.023949616,65.08296
-0.058344055,70.59036
0.035770945,68.110435
0.098648414,73.49239
-0.016767364,72.77835
-0.04327994,71.50336
0.19592462,68.476974
0.3363766,72.9606
0.2866213,72.472534
0.20247932,71.73673
0.4813453,71.00603
0.5205757,76.59146
0.67454773,75.56362
0.7918201,73.464195
0.69996244,82.035095
0.7451009,82.30789
0.9394439,84.61932
1.081159,82.898544
1.1009991,80.708786
1.1275688,84.30259
1.0948322,84.63135
1.2704017,87.413055
1.3425245,82.193695
1.339195,82.192665
1.2403536,84.7025
1.3602504,84.17838
1.2718027,87.25362
1.40882,89.96127
1.418148,86.43143
1.4706863,87.84166
1.4158875,87.439865
1.3157874,84.808754
1.3192557,91.645424
1.388049,88.90532
1.37587,86.32967
1.3188943,83.51527
1.2833488,85.39057
1.2108358,88.391594
1.2162575,90.24452
1.20203,89.708244
1.1549518,88.5409
1.1384934,84.9979
0.97585464,88.12686
1.106939,85.55488
1.0828564,84.4564
1.1304519,87.86834
0.9359815,84.91412
1.056282,86.953926
0.98869854,84.81985
0.97245115,78.96158
0.9858761,79.22864
0.8996158,77.29436
0.88911563,79.15003
0.9576103,84.4209
0.84607023,81.08991
0.93568677,75.31854
0.9422054,80.597565
0.9173651,80.73442
0.8404204,77.72157
0.8047698,77.08493
0.62160504,75.75212
0.6946193,77.8122
0.61516416,77.346375
0.6782004,74.38643
0.56383836,79.034065
0.7077785,76.09632
0.50518435,76.49016
0.58084935,71.89358
0.4776279,72.535385
0.47374654,73.09074
0.4587198,72.49069
0.37188247,73.66495
0.35346305,77.05691
0.47928292,69.48924
0.3439102,68.050415
0.4706488,68.829475
0.30917132,70.52214
0.39922106,67.715454
0.45573696,63.943394
0.44971934,69.09744
0.38520688,71.38706
0.36138973,69.54328
0.40504906,68.34032
0.32489765,63.57288
0.36265257,66.342964
0.33661386,66.66508
0.184691,68.83827
0.18696618,64.91482
0.23192252,66.19832
0.07814121,64.77942
0.09112216,72.09983
0.1629041,66.994446
0.08205782,72.43359
0.20484146,68.073944
0.34562325,70.94393
0.14770846,75.0907
0.30624396,66.151886
0.2711573,70.54931
0.42636088,72.14691
0.490795,74.50659
0.64310974,76.00003
0.7332324,74.56039
0.7675111,75.25959
0.7802962,78.85999
0.94015694,76.59648
1.0382415,79.62076
1.2772192,79.068275
1.2339602,80.44993
1.2751142,86.116234
1.398418,82.16842
1.3778572,83.993614
1.37038,79.597725
1.543036,85.89545
1.53449,89.524345
1.6565609,84.33712
1.526883,86.30224
1.6309493,90.4078
1.5990992,91.09278
1.6204593,87.041245
1.606112,85.82293
1.6059562,84.85142
1.5358151,86.665565
1.558921,86.64089
1.5461383,84.59765
1.5067097,85.03812
1.6457983,87.70861
1.6090894,86.81892
1.4866862,88.04602
1.449387,87.889595
1.4644648,88.82577
1.3674729,87.22603
1.3469919,89.19644
1.4066013,85.34872
1.3696593,88.33542
1.259779,89.338394
1.3935958,87.12957
1.2937161,81.739494
1.2417672,88.049
1.3304262,85.12486
1.1662121,81.23717
1.2808726,78.73372
1.1801974,82.929146
1.2980042,79.750175
1.2338523,81.45524
1.2967997,81.03213
1.2755839,76.71168
1.2295759,78.63059
1.096866,76.28772
1.254186,77.84842
1.162875,75.75308
1.0385439,77.5616
1.068416,73.53644
1.0724199,76.027054
0.8716534,77.36522
1.0089813,76.416916
0.9043969,74.32517
0.879918,80.20126
0.8290771,68.9771
0.75520766,72.64781
0.78588,74.012825
0.746486,70.22954
0.7617525,71.7305
0.76713175,71.347244
0.8134207,69.736176
0.8330815,67.51868
0.77113664,70.771164
0.7330643,71.07173
0.783663,70.77861
0.7714147,69.53732
0.8596865,66.85112
0.66928977,65.47755
0.7499475,68.46814
0.590299,68.56238
0.6296905,64.8897
0.70649934,68.13354
0.56994534,69.37595
0.510941,71.49752
0.58427405,67.52341
0.5091999,68.64866
0.408995,67.93883
0.4874735,68.387955
0.40925246,68.56117
0.42860785,69.191444
0.3953711,66.49657
0.38636032,68.29437
0.51175594,66.575325
0.5354567,69.26246
0.6873882,71.8324
0.68502694,73.74132
0.6587025,70.72282
0.85549915,77.82233
0.9142717,75.67794
1.0247282,79.80795
1.0946398,74.99282
1.2179402,80.42308
1.3508153,79.542435
1.4332175,79.452095
1.4787827,76.68887
1.5400636,76.65846
1.7084862,79.70431
1.6906676,84.88279
1.6771808,80.202415
1.7192334,83.92787
1.9310926,87.46222
1.7986099,87.73733
1.9584826,82.35554
1.9739655,84.14076
1.8143636,84.243614
1.970427,90.19817
1.8804214,85.25984
1.9796139,88.82392
1.8395855,86.80858
1.9961171,84.807236
1.8599441,90.25269
1.8179369,90.34569
1.8796599,88.9089
1.8738245,88.3891
1.8426577,85.60868
1.8582767,89.12912
1.7468358,86.473465
1.6868503,86.341446
1.6490276,83.884834
1.667956,86.595566
1.6566641,84.609474
1.5725479,88.37658
1.5874676,86.38146
1.5772854,85.10912
1.5868348,86.691765
1.5703557,83.33996
1.6123903,83.16494
1.4453216,82.42163
1.4970989,81.48949
1.5382388,79.060745
1.5118088,81.33132
1.4988095,81.43676
1.5103143,79.89995
1.481733,79.40832
1.3237268,79.25635
1.4199891,75.432175
1.3253187,76.54056
1.3694389,75.79208
1.3038201,76.01324
1.3331084,78.60406
1.1248032,76.372894
1.2186131,74.58526
1.2515354,71.68638
1.0815202,75.231186
0.970352,74.33136
1.0390867,73.04464
0.96912956,78.01805
0.91052216,71.71582
0.9785256,75.01945
0.9507508,72.465805
0.9693595,72.557976
0.94766235,71.33437
0.8937268,69.682724
0.89202225,71.16091
0.9183687,65.61115
0.9490231,67.58358
0.8053914,68.05535
0.9006891,68.952736
0.8082789,67.217735
0.8977583,67.82889
0.8115629,69.28951
0.7448509,71.01614
0.6964063,64.56074
0.775524,69.21224
0.7057788,70.71928
0.64579713,70.85323
0.6022851,68.51292
0.5902098,66.27113
0.52295274,72.11717
0.5810414,66.76342
0.57973814,67.83021
0.5785026,64.65555
0.5270071,69.23077
0.71814734,69.95449
0.75987625,69.94943
0.81631047,73.90202
0.7054728,72.55693
0.93065536,71.7968
0.94813234,76.7035
1.0566753,73.06046
1.2806402,75.37711
1.3336587,76.173645
1.3325641,81.78746
1.4582348,77.71168
1.4829335,80.91363
1.6500676,77.52993
1.6680847,78.21513
1.6837871,81.82114
1.7791153,81.69084
1.7137018,83.8209
1.8253515,83.37183
1.8699002,84.809364
1.8983345,81.720604
1.965923,82.7257
1.9166137,84.2142
1.7691112,84.82261
1.9541553,85.803055
1.9695737,91.88939
1.8494936,85.088196
1.9391403,90.482025
1.9338896,89.90178
1.9699091,90.67699
1.7995157,87.72678
1.8238494,90.54224
1.7736894,88.92502
1.7420393,90.07347
1.6459342,89.72089
1.6759142,87.0618
1.7248558,88.259155
1.5837104,85.10721
1.5784767,86.33351
1.5909588,83.42311
1.5827949,86.43419
1.5568413,84.05383
1.5025438,83.969055
1.4857596,82.71392
1.3765049,78.306854
1.3805146,85.3721
1.475677,80.21483
1.3869538,82.54871
1.4337617,77.43314
1.4340383,79.388336
1.3474653,81.87627
1.312881,81.75696
1.3370697,79.81132
1.285425,83.82962
1.2828212,76.62541
1.172007,79.23529
1.2075691,77.313446
1.1389228,76.96491
1.0927696,81.84665
1.0656687,74.257225
1.076403,74.99564
1.0078101,78.102715
0.92957747,74.74078
0.93693584,70.12624
0.8208658,74.99479
0.86486304,75.42447
0.7315764,74.62253
0.6357505,67.85666
0.7059424,69.54135
0.7032149,76.61684
0.64781225,73.49424
0.71472144,69.970085
0.7060073,74.38458
0.68250257,72.1409
0.6756249,67.0515
0.6692067,68.11417
0.7283389,65.302345
0.6514385,66.652565
0.6665578,66.06066
0.58278006,67.60405
0.618558,68.08507
0.398097,65.83831
0.4258834,66.35956
0.32727823,68.64446
0.37407178,67.8598
0.3488574,69.66058
0.27673703,71.31335
0.3998259,69.910385
0.25571448,68.99675
0.19518559,68.84599
0.30604455,71.44081
0.285851,68.52406
0.379898,68.41878
0.47073448,71.65109
0.5959931,74.92335
0.58475035,71.86242
0.723635,72.71302
0.9249949,77.217545
0.92697376,72.95085
0.94813025,74.41704
0.9507157,78.08726
1.14902,83.15429
1.1354731,79.02206
1.2542393,81.44387
1.3157419,80.98244
1.3880473,80.75581
1.5143309,84.94674
1.3734132,80.235664
1.5697792,82.89419
1.6365638,88.58258
1.4801401,87.30435
1.68769,83.01921
1.6483035,86.77633
1.6361889,87.733086
1.4584194,87.401085
1.6413689,90.725624
1.5823572,85.74768
1.5672077,90.071976
1.6243029,86.43508
1.4570649,86.507614
1.606818,90.77677
1.5467305,87.537865
1.5431745,90.86342
1.3006809,89.90057
1.4633971,88.927414
1.3935008,91.33777
1.4296774,87.23014
1.3351552,81.61031
1.1994911,84.74039
1.2434133,85.99436
1.2718663,83.326
1.11599,85.932556
1.1396444,86.44445
1.1170859,85.58302
1.053346,84.720634
1.1263016,81.42061
1.0053071,80.81589
1.0693727,80.87166
1.0062698,77.86589
1.037945,80.8831
1.0520968,83.29089
1.0443228,80.333725
0.9081431,80.94343
0.999385,83.083374
0.89332986,82.31691
0.80346644,75.70868
0.83202225,76.34553
0.7166797,78.95169
0.7376152,76.17821
0.7679926,76.86828
0.7692037,76.28956
0.6355643,74.39735
0.54130965,73.33195
0.5966002,76.995255
0.51757205,73.829094
0.50000757,71.56983
0.43184775,73.755684
0.5363495,74.581795
0.46852216,71.210205
0.45560172,72.02716
0.39808026,72.18638
0.5146471,68.0942
0.33718404,65.83188
0.3972297,67.952225
0.39032078,73.91795
0.50331575,66.76801
0.31342104,67.12124
0.42447695,68.1708
0.3041819,67.39266
0.2788733,69.078316
0.33861557,67.211075
0.2843981,63.183704
0.13918395,69.639145
0.19718973,64.85671
0.09745913,64.311615
-0.016157871,65.25994
-0.039081402,69.63162
-0.06507174,67.2986
0.0933866,63.903675
0.054675385,68.29821
0.07258362,70.48833
0.01775014,69.22466
0.032653783,68.17417
0.15424678,72.279175
0.17342517,75.598785
0.50250983,72.01255
0.33991462,76.08833
0.4802257,72.9617
0.5125367,74.22823
0.6119946,79.08221
0.7332117,72.53922
0.85158986,78.61553
1.0282178,78.04258
0.9241626,84.603165
1.0381789,79.39983
1.2140216,84.63935
1.2249165,81.81475
1.2521139,81.8262
1.2505251,87.97292
1.3392197,82.82313
1.383861,84.91245
1.2959558,84.412575
1.3877977,85.622795
1.373521,87.95459
1.3864685,84.942566
1.4304076,87.318954
1.3100227,85.69569
1.4050839,84.93763
1.4291695,89.53262
1.3102046,83.30856
1.3188573,86.73068
1.2932,90.140366
1.3343645,85.54891
1.2470585,89.32965
1.2126768,87.16877
1.2887006,85.10892
1.2173706,89.62727
1.13883,87.13555
1.1816778,87.937706
1.1083748,81.95835
1.0161656,86.160194
0.91305494,84.950386
0.9361458,83.94283
1.0021875,85.45673
0.9883177,81.35514
0.9307292,82.3034
0.8891559,81.52771
0.9024471,81.43851
0.9604551,84.92785
0.85539526,76.96443
0.84895915,82.45802
0.79696727,81.99613
0.8472075,80.30838
0.86718035,80.42643
0.8015366,79.48408
0.71597296,74.62183
0.748301,77.06635
0.70293725,75.96665
0.5961763,79.77556
0.6166351,74.584236
0.61098784,76.84659
0.5705513,76.70405
0.55937076,73.24727
0.50142497,74.80624
0.4741573,75.0909
0.38123968,73.062584
0.3764005,74.21017
0.357885,74.05178
0.3327283,71.18282
0.35453206,70.78025
0.34467348,66.59289
0.35570532,70.42897
0.37569642,70.18082
0.32068995,70.59671
0.18361537,63.783867
0.35295123,67.624954
0.28197116,68.20054
0.23285188,65.24836
0.19433168,65.45726
0.21684371,65.05456
0.2292373,67.96993
0.16173524,65.1462
0.13271862,66.933014
0.08930433,66.34107
-0.028311124,68.48422
0.050266027,68.33446
-0.081061885,67.892685
0.003955872,67.19442
-0.09933968,65.32636
-0.011457505,69.599335
-0.008286986,68.46783
-0.013029049,71.92233
-0.011384265,71.526085
0.06941606,72.558914
0.30065376,72.52677
0.29629758,75.25713
0.47370353,73.23486
0.49339336,77.69
0.48837477,75.35108
0.68012387,76.532196
0.79890335,74.88309
0.90531987,78.57321
0.8763081,78.63641
0.9632305,80.97095
1.022424,83.022224
1.1865276,84.42395
1.2360041,78.37673
1.3499359,83.51467
1.3861247,85.43388
1.3090304,86.07694
1.2938839,82.46914
1.4239215,88.39112
1.4649911,83.62629
1.4852682,85.90242
1.3684772,88.34489
1.5069947,85.37603
1.477753,90.37219
1.3975232,86.86059
1.484802,87.82756
1.4533142,88.175804
1.4512242,90.37644
1.4148179,88.641426
1.2850925,86.41828
1.3554443,85.418655
1.4469035,87.47974
1.4247044,86.3664
1.3730651,88.84716
1.3182318,82.40759
1.2343708,86.96601
1.2929398,87.1185
1.1807668,82.5904
1.1519389,86.59486
1.1688653,84.910225
1.0386703,83.97646
1.0928297,85.62257
1.0992827,81.67211
1.1003445,78.99626
1.0487028,84.4426
1.0593985,81.44803
1.081829,78.91464
1.1038747,80.31512
0.9627691,79.82355
1.0194569,79.070694
1.0487642,78.08175
1.0582846,79.45427
0.97985435,77.53883
0.8400135,79.448586
0.87548727,80.34153
0.9594573,79.52721
0.80760556,74.39228
0.87954354,75.14966
0.75481623,72.5789
0.7415412,73.131676
0.7460502,72.43264
0.7299488,72.738846
0.59395427,71.109566
0.62851167,73.80871
0.5793008,74.595436
0.68353224,71.23106
0.512847,71.50066
0.5996334,70.549934
0.52043986,74.26461
0.52313507,70.03014
0.55706406,69.04213
0.5919489,69.44181
0.56550926,66.88593
0.49796018,69.121185
0.5747365,65.91798
0.51072794,68.9508
0.5042466,68.681244
0.49281424,68.6874
0.42586517,63.988586
0.3854222,66.8164
0.29413855,64.11587
0.29967543,64.40734
0.262046,67.17383
0.2761741,70.36979
0.20259504,66.57358
0.14917232,68.049706
0.32866427,69.4456
0.2756709,69.303894
0.2833332,70.17732
0.34045032,74.50516
0.39514855,68.48511
0.4547195,69.24901
0.4941921,70.04363
0.5801835,68.805405
0.7999799,70.88071
0.85052896,77.77756
0.88921916,76.68415
1.0202909,76.4513
1.1553285,78.5253
1.1767777,81.06954
1.3301204,77.36944
1.3182913,82.87153
1.4839065,83.50921
1.574541,77.51549
1.5769838,84.79548
1.6457688,81.54633
1.5994934,86.139854
1.6450355,84.30436
1.7706425,86.34204
1.712584,84.78249
1.7795116,86.47906
1.8311274,87.950386
1.8364434,89.33982
1.8128225,87.91173
1.8178635,88.73686
1.7907417,87.4048
1.7644105,88.730225
1.7598408,93.1295
1.7219665,92.706276
1.7468476,88.34528
1.7002534,87.66462
1.7144268,87.627014
1.653693,89.3073
1.735144,90.41637
1.5559372,85.92679
1.5239508,87.22993
1.6066533,81.23613
1.5227606,85.80933
1.5666877,85.976776
1.5075598,83.38744
1.4138753,88.82587
1.4396604,85.44448
1.4163284,81.28628
1.4016981,77.46099
1.4020226,81.6619
1.3896683,78.151306
1.3221493,81.705795
1.4866025,82.444725
1.4168632,84.23165
1.4286258,78.28942
1.3334118,82.57595
1.4101323,79.584595
1.2876198,77.587326
1.2691478,79.24123
1.2997041,76.330574
1.2778572,79.208694
1.1740576,79.84302
1.2269135,74.748024
1.1356405,78.258736
1.0944031,71.83809
0.8892849,72.656975
0.96023005,74.91823
0.902774,69.41964
0.8314572,73.288826
0.8513272,72.44312
0.8356294,78.81486
0.81263316,69.6814
0.9997255,69.03754
1.0283262,71.004166
0.9723008,67.871994
0.89152074,67.34218
0.91936505,71.71049
0.6992729,71.420906
0.94745034,67.0715
0.95391655,67.18298
0.98983926,68.002075
0.77863574,66.1762
0.71797657,69.46643
0.7778949,65.21554
0.87124485,64.30532
0.60441023,67.09074
0.55732983,66.47284
0.64378667,67.10538
0.5763052,70.70447
0.6678677,70.21015
0.46114114,68.47196
0.55879277,68.22107
0.5870483,66.76038
0.55776334,72.37089
0.6135189,71.34868
0.6053626,68.13504
0.7024593,69.02562
0.6766455,70.831795
0.791097,71.24497
0.99009484,72.28604
0.9921813,73.8618
1.1850214,72.64625
1.104594,74.1914
1.3262647,79.379684
1.3254585,75.93392
1.5555958,80.20041
1.6012197,75.16516
1.7159387,79.718704
1.6724566,84.100815
1.6350781,84.847916
1.869099,85.53746
1.7762312,83.12239
1.8525776,84.93801
1.8905628,83.31633
1.8810749,84.48716
1.9824992,87.373665
1.9843932,85.69728
1.972363,85.72428
2.091632,86.81927
2.041158,88.2132
1.9805764,88.13292
1.9570986,89.42545
1.8356401,88.72746
1.9981084,87.03896
1.8403364,85.48948
1.9125686,88.5125
1.9481364,88.327736
1.8860297,85.0458
1.7824714,86.24953
1.8563416,86.28707
1.7267941,85.29466
1.7211483,88.18044
1.6703527,86.95544
1.7315284,87.34883
1.6467202,86.963806
1.5532845,86.35077
1.5322245,82.88262
1.5118436,87.249344
1.4712154,83.90382
1.6010882,85.29597
1.5234622,81.3277
1.5189525,83.49019
1.540288,80.20115
1.4079121,83.51149
1.41585,77.779015
1.3616145,80.81415
1.3926455,81.28702
1.313205,78.704155
1.2138431,78.562874
1.479307,78.28972
1.1175591,71.04249
1.1298051,74.68626
1.2565058,79.49149
1.1797451,78.50963
1.102753,77.81597
1.0665021,75.01376
1.0290753,74.8136
1.1017547,72.99947
1.024017,74.81552
0.93135476,72.465744
0.9731246,72.15145
1.0053526,71.85111
0.89009005,71.08791
0.85453814,71.76671
0.8103106,66.82739
1.0376582,72.89059
0.8086707,72.45763
0.8524638,67.12436
0.81357574,67.08072
0.8762675,69.72061
0.8342365,70.252945
0.76279294,68.998795
0.8031604,69.42297
0.73900574,68.03099
0.6780499,69.17819
0.5723427,66.36842
0.5282404,65.64027
0.49326012,65.146736
0.57173723,64.719055
0.48371196,71.61791
0.44051164,69.433304
0.43966225,67.12117
0.40932277,68.53715
0.50487405,68.13694
0.44438303,66.49441
0.6245685,67.34486
0.6152478,68.84839
0.7155023,72.842865
0.7706738,74.639946
0.8220109,72.93685
0.8550116,77.76676
0.99612516,77.06126
1.0589526,76.08889
1.2132809,79.66386
1.3208193,78.66193
1.3515677,79.90017
1.3432689,83.97713
1.5806077,76.22371
1.5368301,80.23999
1.6713128,83.35336
1.6669732,82.16856
1.7625504,85.241974
1.7292005,83.477806
1.6919085,84.47565
1.7624875,84.557755
1.7934628,88.786545
1.7731286,84.3848
1.6956384,87.03825
1.8179923,82.81472
1.7974203,86.96628
1.781559,89.017395
1.7637538,88.06475
1.8294256,88.71896
1.8106847,84.658264
1.5374858,85.73662
1.689497,89.52683
1.6476551,85.91794
1.6303366,87.73007
1.5800898,90.09864
1.6014135,87.05109
1.5532426,87.286095
1.5175264,89.55765
1.458996,85.34643
1.4542974,86.25388
1.4149598,86.06434
1.38903,85.11625
1.3074931,84.884964
1.174157,85.079
1.3328822,83.515114
1.3462273,81.5516
1.2547435,84.65339
1.2098254,80.83959
1.2366444,83.9254
1.2223508,80.12584
1.2223278,76.24502
1.1980566,83.09127
1.2056599,78.95843
1.1343205,74.68204
1.1308678,78.680084
1.042496,78.59166
1.164535,80.42937
0.99199027,77.45907
1.037919,75.2758
0.93549025,73.30705
0.8686464,70.88107
0.7958778,75.69196
0.6737664,77.314926
0.7288372,72.25683
0.61242765,74.26625
0.6299985,75.78295
0.6123648,76.79707
0.63360465,73.66885
0.6652882,69.976
0.57181907,71.30728
0.6722761,69.082146
0.6670011,70.43754
0.5725644,66.49086
0.65330595,67.40683
0.5367144,67.22225
0.53153324,69.683105
0.38926217,71.810905
0.5932558,66.64495
0.48358235,66.28875
0.49718055,67.30991
0.3018793,67.49308
0.36996377,68.0687
0.345592,68.68903
0.29031295,69.08463
0.22412044,63.415043
0.18958394,72.37261
0.14843757,69.753876
0.11978362,66.997284
0.18469368,68.74835
0.21910065,67.51396
0.18652868,69.91649
0.25625956,73.92697
0.19031695,70.34406
0.2601378,71.99602
0.4159172,73.70586
0.45581767,75.13477
0.51522577,76.89462
0.5995726,73.614265
0.69288427,77.20518
0.7488923,76.207886
0.8076641,78.32354
0.9513134,78.58996
0.98159575,75.743935
1.0772649,80.453094
1.2580851,79.69156
1.2310218,80.7729
1.355227,84.992355
1.2616369,81.714355
1.4206628,80.98412
1.428281,87.45763
1.3728534,86.129456
1.4617182,83.50059
1.4519459,81.29233
1.4269878,85.46355
1.4769963,89.7677
1.5352889,86.559166
1.3934001,88.39888
1.4590324,89.512825
1.4976598,89.03171
1.4029287,89.697624
1.4640782,84.33192
1.4003332,88.89208
1.3129282,86.361496
1.2697519,88.84675
1.3950816,85.97825
1.2615919,87.182076
1.0981681,82.6983
1.0849941,84.069435
1.1502246,88.69024
1.116414,85.07331
1.1134065,85.09493
1.0478117,80.969734
1.0616412,86.81387
1.1638876,82.34897
0.9981528,82.38744
1.0149596,80.11351
0.99161583,78.343895
0.8655878,80.53598
1.0155413,77.78021
0.95871687,82.22777
0.8813813,78.93884
0.8735782,80.96974
0.87283456,82.65512
0.8765036,76.27768
0.8045069,74.08685
0.7907616,78.16137
0.7883228,77.24469
0.6834373,76.65669
0.6984273,75.81074
0.6749039,74.421776
0.6662114,74.90737
0.6047348,76.3792
0.45656368,71.13114
0.470333,72.92617
0.4357589,73.322334
0.3002536,72.70772
0.40728363,67.46965
0.33494255,70.79181
0.33405244,73.66559
0.32791305,73.27483
0.40606987,69.891
0.2881764,72.65944
0.42533663,72.353966
0.3918223,72.00728
0.3045251,66.54997
0.31563944,68.08123
0.3143703,69.56579
0.3410605,71.55237
0.2601854,67.79259
0.21645747,70.6477
0.24297494,68.63364
0.18355498,66.01784
0.08358197,67.65029
0.013210499,66.2911
0.123763405,67.46979
0.06032867,67.7819
-0.05053668,69.592
-0.038982555,70.25631
-0.14618774,68.27621
-0.109993435,67.03425
0.009488289,69.19468
-0.06560479,67.98424
0.05677233,67.73653
0.0911734,72.96299
0.1510098,73.946045
0.26724893,74.10503
0.3290153,75.0223
0.3235169,72.839935
0.4933705,74.985306
0.5286429,78.9113
0.6857122,78.88566
0.7684622,77.86514
0.91997683,80.72125
0.9240812,86.345215
1.0164067,83.37098
1.016899,79.07248
1.1813749,83.92668
1.130131,81.67399
1.1970488,86.21928
1.3558724,83.330696
1.3395686,88.27769
1.3943005,85.60308
1.4769927,86.39708
1.4546151,85.66348
1.3596727,86.15514
1.3885343,88.809105
1.4204866,87.404144
1.3025017,89.110146
1.3665313,91.057755
1.2519063,86.59892
1.2056997,84.715225
1.2349471,87.110985
1.2068436,91.891815
1.2867906,89.04478
1.16273,87.86508
1.1942148,87.29871
1.1853125,83.539566
1.1570332,85.539856
1.2284081,83.968414
1.0851648,83.36412
1.0615088,83.382706
1.0539058,81.75996
0.9702762,80.8097
1.0953875,88.330086
1.0530282,83.834366
0.9838068,84.75636
0.95708996,80.994095
0.9533501,78.07103
1.0396243,80.047745
0.8354207,77.3211
0.83183044,83.57702
0.7855047,76.14463
0.8980665,77.76056
0.8415093,80.13691
0.85255647,78.35205
0.7894431,78.20509
0.7368933,80.5648
0.8549128,80.40389
0.7298347,74.626564
0.6477797,77.479126
0.69051826,78.30557
0.61431605,73.46675
0.5093007,74.07895
0.62034196,74.73688
0.5363848,70.24723
0.4012434,69.75176
0.44576177,74.636604
0.37909198,69.816086
0.47857317,70.588684
0.39740378,69.995834
0.29820886,68.059715
0.43082842,70.425545
0.37151307,69.37806
0.4469488,71.17437
0.34010056,68.35096
0.47308028,66.310715
0.3954055,66.406685
0.46943587,70.11001
0.39220995,66.81276
0.35036385,69.85656
0.32198736,66.98671
0.23705837,67.36589
0.34540793,64.42965
0.20435596,68.00527
0.09146516,67.38401
0.1838589,69.809685
0.08840887,70.89721
0.11793365,67.90317
0.073424555,67.78209
0.13290817,68.91844
0.10469308,67.98814
0.10937029,69.48691
0.18947145,69.393875
0.24751355,70.31332
0.32545927,71.65556
0.41012552,66.79612
0.48048982,73.48272
0.74755794,75.68015
0.60975224,76.166115
0.7492143,77.203415
0.851145,78.84962
0.86669254,77.038055
1.0792387,75.82415
1.1332809,81.525444
1.1643609,83.22729
1.1404666,84.35131
1.2721575,85.25119
1.350065,83.135254
1.4546679,83.78314
1.442421,86.54475
1.5460736,84.46917
1.4302115,84.96459
1.6405909,79.15878
1.5983179,86.62818
1.6108518,84.269394
1.6225488,91.165215
1.5232011,86.00001
1.5661124,86.811806
1.6390039,87.09569
1.5750616,86.83883
1.6254491,87.25749
1.5448878,85.953674
1.5552365,92.698204
1.5344563,89.87463
1.6075497,88.418755
1.5153806,89.01574
1.4625255,90.02448
1.3763168,88.24155
1.518333,84.90366
1.3542193,83.573456
1.2951081,84.89835
1.290205,84.79798
1.4097134,88.478966
1.4373797,87.778404
1.2283031,85.85532
1.3266634,80.07237
1.1688535,82.25015
1.1910421,79.91551
1.2211117,83.14169
1.1987704,77.295166
1.2556165,83.51151
1.2253947,76.90973
1.1933129,73.62321
1.1634347,83.00127
1.2290555,77.34516
1.1254029,78.724754
1.0687814,75.53242
1.1585208,75.26569
1.0515566,76.708786
0.99865633,79.00571
0.95556265,76.57432
0.8809146,74.89693
0.93011534,72.886734
0.8804077,74.027756
0.81252384,70.69654
0.82136405,76.76614
0.8456464,73.94622
0.785454,71.44426
0.7976238,68.10072
0.71810704,72.12214
0.79155064,74.65846
0.6658289,73.17635
0.7903333,72.44369
0.73608303,72.548355
0.69739896,68.19264
0.68012863,65.45959
0.8206288,69.579704
0.7105817,68.76638
0.6630057,66.953064
0.6638019,69.300644
0.7244809,68.462135
0.6206608,67.41184
0.6073313,68.60306
0.59172636,71.21983
0.4893263,64.17836
0.60901314,65.101524
0.5446268,68.13111
0.44239408,68.76467
0.3916919,68.787384
0.38123736,66.33571
0.35426754,67.41639
0.3688558,70.05174
0.44497332,66.056114
0.4755635,70.270035
0.54390806,74.16712
0.7260775,71.416435
0.8058021,73.312164
0.857623,74.89595
0.9964086,76.46304
1.0880054,74.94932
1.1216626,77.88011
1.2523603,76.04235
1.267871,80.58867
1.4858489,80.19848
1.5263278,81.069374
1.6130321,81.595375
1.6607041,83.71232
1.6688223,83.01287
1.7517881,82.92191
1.7826118,83.06915
1.8567847,84.56154
1.8788419,89.663376
1.8448436,85.1332
1.8715645,87.2037
1.8626876,88.37803
1.9383364,88.12624
1.883519,86.59571
1.9544683,87.013176
1.8464351,88.920555
1.9294984,89.46603
1.8375248,89.24302
1.8354999,84.61551
1.7656074,84.42471
1.8204392,86.26237
1.804262,84.77553
1.7523491,88.20908
1.7675529,84.256935
1.7990476,85.34198
1.757871,87.77101
1.6469083,83.87216
1.6834666,87.99936
1.591131,88.62645
1.6899145,85.09633
1.5858289,84.5814
1.5940422,86.27448
1.5591234,84.27518
1.4899468,79.968765
1.5089717,82.50733
1.5483934,79.8849
1.4938532,83.88569
1.6040852,83.13672
1.4796659,84.71657
1.4650562,78.72009
1.3477465,79.909485
1.4902587,78.68597
1.3631684,80.62856
1.2618538,79.146164
1.2134111,78.08064
1.2982185,76.67119
1.2569513,75.500015
1.2020978,73.53266
1.2313602,75.99462
1.1222311,76.271576
0.99268585,73.682465
1.0120171,71.33171
0.99226546,74.11752
0.9817075,75.0392
0.9352943,71.75046
0.94065315,70.83031
0.9953923,74.08067
0.96847117,69.16099
0.9596133,68.06411
0.92292744,72.8444
0.9452429,72.065796
0.84437937,73.35291
0.8816065,66.28709
0.93123287,64.78615
0.90609854,67.66586
0.7693801,64.80992
0.8919783,67.41346
0.8116685,66.37211
0.7773582,67.688
0.6740138,68.97672
0.69262403,66.70018
0.64644176,66.67249
0.571601,71.314705
0.6537517,73.07306
0.57598984,70.38742
0.5605778,68.96185
0.5119403,66.34121
0.5862143,69.89885
0.63733804,65.631294
0.586164,70.54237
0.65183586,68.088165
0.752375,70.70934
0.82334787,73.92352
0.79378104,75.58754
0.8900443,71.72376
1.0528244,75.52047
1.0406135,77.10201
1.124667,77.99326
1.2833612,76.24755
1.3151264,79.54445
1.370511,75.19588
1.5833713,79.25921
1.6970978,79.520035
1.6666505,79.83723
1.6560116,80.722275
1.7943918,79.9768
1.7812178,79.62377
1.9086719,85.39353
1.9143202,83.40496
1.9371775,85.49703
1.8921089,90.150734
1.8706154,87.16422
2.0463002,88.93579
2.0126672,85.63021
1.924954,86.67978
1.9161949,84.711525
1.9688413,89.30243
1.9504288,87.0556
1.8910995,88.171
1.8416657,89.78442
1.8645598,89.34185
1.7964936,88.16259
1.7682968,87.75513
1.6598144,86.665375
1.8081348,86.800285
1.6253352,83.15076
1.6775068,82.12508
1.7006993,89.40995
1.5432771,84.7192
1.5837575,83.29512
1.4897947,82.28828
1.4993209,84.37316
1.3394082,84.79146
1.4998622,84.19101
1.3420275,81.83874
1.3634697,81.96194
1.5338528,81.89096
1.4392893,80.25081
1.3295621,81.91221
1.304453,83.09985
1.282458,80.733025
1.4194397,77.800575
1.2101468,77.890205
1.2263552,77.94172
1.2032928,80.11018
1.1406852,76.105385
1.0745345,73.62749
1.1888885,77.54083
1.0854996,78.055855
0.99577844,75.62715
0.9719339,74.84147
0.9216074,71.77614
0.9417191,73.80777
0.81459373,72.55038
0.7539011,71.9002
0.828837,72.982506
0.84236866,70.91088
0.70719045,71.90958
0.7899595,71.702774
0.7610512,69.45208
0.7792735,69.648384
0.7721173,68.634384
0.7954635,69.04668
0.7833827,68.81592
0.7158037,69.36564
0.7174239,64.88671
0.61566144,65.87348
0.6291659,67.55677
0.5424758,66.637405
0.63020664,66.978676
0.5283213,69.15499
0.3374937,69.13545
0.3747317,66.43133
0.4189747,70.19062
0.36148036,69.27123
0.4351089,71.86957
0.23375827,71.05633
0.2202015,72.12447
0.42931426,69.93387
0.4168798,67.012375
0.42725283,72.43761
0.28521684,73.78065
0.5285638,70.74987
0.55760485,71.063156
0.60946214,75.176186
0.70231587,73.93963
0.8111725,75.4875
0.9139103,71.13206
0.97935045,81.89974
1.151467,77.28055
1.2073321,76.884445
1.2747548,78.68332
1.4275986,79.63051
1.3552973,81.587234
1.3840053,82.92236
1.4783036,82.97077
1.5421468,81.79415
1.5713782,85.2176
1.6158512,84.48144
1.6654087,89.44436
1.633141,86.026764
1.7449398,87.30773
1.6938272,86.51554
1.6269448,86.38662
1.611852,87.68722
1.5944492,88.78918
1.6298051,90.1944
1.6239632,89.323975
1.5750167,92.45804
1.5459465,89.64578
1.5748417,88.52295
1.5701497,86.27579
1.6061025,87.72536
1.5254403,88.239075
1.3251606,85.44603
1.3338438,86.561806
1.3717836,86.13266
1.3486995,86.18285
1.2574723,86.835556
1.2328035,82.60302
1.207273,85.2135
1.0441698,80.87448
1.2471367,83.90854
1.1200091,81.38286
1.2366346,83.40012
1.1478947,83.815025
1.0158845,81.57896
1.0870785,80.34636
1.1283439,79.99114
1.1113877,76.89023
1.1225772,77.26527
0.9905599,81.22781
0.90193516,77.24834
1.0031602,78.63143
0.90753293,77.60023
0.89803183,77.17716
0.755891,80.21906
0.7580235,76.80713
0.75622594,77.37831
0.7261808,71.77848
0.65647244,74.44343
0.58917326,77.6864
0.6465144,73.165504
0.49712923,73.32743
0.5534877,74.522644
0.4622847,70.39934
0.49246007,69.83545
0.46772593,71.001495
0.44927695,67.28501
0.57251567,73.00664
0.4730296,70.5298
0.42451453,70.33661
0.4468342,69.46338
0.30434796,67.86759
0.429614,69.235825
0.2884082,66.575096
0.34863845,66.31929
0.41133764,67.75338
0.279817,67.61163
0.3255084,65.61811
0.16633272,71.1209
0.1526378,66.76731
0.13257073,66.38952
0.19144213,67.76686
0.022494333,67.5751
0.027669959,68.12411
0.026325248,66.190765
-0.002029599,70.83552
0.052454304,69.65114
0.13432327,70.08512
-0.008265972,71.15307
0.03671483,70.23582
0.19759138,68.94287
0.301871,72.89583
0.31518432,75.01703
0.31904405,70.77174
0.45587498,75.56937
0.5921664,76.038284
0.60362124,73.41526
0.77820873,77.16912
0.8418132,81.254234
0.9771391,79.91983
1.0498838,79.23703
1.1880407,79.47654
1.126627,81.65253
1.211006,82.54408
1.1997876,83.554375
1.2986188,82.58201
1.3547125,86.91321
1.2356577,87.658005
1.3417923,86.6879
1.299485,88.76419
1.3805407,89.31453
1.3914762,90.340744
1.4793352,86.10254
1.3599312,89.923615
1.4695932,87.009476
1.3824979,90.33464
1.3393764,86.42458
1.3992208,88.35848
1.3359116,85.89099
1.3457584,89.340675
1.2767562,84.83168
1.1620386,88.819855
1.1947273,89.13251
1.1120311,88.24021
1.0648755,83.92994
1.1504327,89.04911
1.0673385,80.978615
1.0849569,87.85117
0.9688785,90.108475
0.9928171,80.0727
0.9309993,85.93512
0.87721646,85.11176
0.9998231,85.012375
0.9249522,81.27881
0.83768666,79.65612
1.005812,84.09389
0.9413332,79.15337
0.8969544,84.28937
0.8217057,80.838264
0.8357725,80.95651
0.83514535,78.06521
0.84634626,75.39031
0.6326243,75.29896
0.84213424,78.88002
0.6851094,78.48851
0.7016865,76.43905
0.53984535,77.98548
0.62239283,71.657814
0.51436645,73.995674
0.5406669,71.01463
0.42309207,78.86621
0.42062336,69.857376
0.2802145,71.51622
0.3291847,70.93706
0.3466195,75.279625
0.34851986,70.20674
0.37007192,70.50652
0.33953348,70.26818
0.29762948,71.464516
0.34427765,68.09462
0.44871897,69.39755
0.30561182,69.72152
0.34754515,71.10279
0.28712055,70.17658
0.29863605,66.76048
0.32415038,69.83023
0.25308338,64.793785
0.19833283,67.04057
0.15587774,65.727516
0.29183838,68.95805
0.20246571,68.16999
0.09390318,64.10057
-0.03862093,65.96978
-0.049024884,67.52425
-0.0058641057,66.89158
0.00957756,65.85958
0.029940989,67.31791
-0.03425012,71.34669
-0.03440572,69.65665
0.053859077,74.34546
0.14919673,68.444664
0.18910353,72.78122
0.30152556,71.77119
0.36671436,74.45151
0.44343135,72.78868
0.63695085,75.74255
0.5620543,73.4358
0.7864367,76.437584
0.7980121,78.59255
0.8595025,81.05533
1.0496068,77.01085
1.0755532,79.7041
1.2573804,80.599396
1.1297567,82.52436
1.2592442,82.16202
1.3243192,85.7047
1.2532443,85.59352
1.3556553,84.77818
1.4214728,85.489365
1.3901507,87.164375
1.480579,89.98078
1.4638393,89.35298
1.3679215,86.62558
1.5296992,89.107414
1.346192,90.46373
1.4527749,88.30335
1.5283264,86.67181
1.379892,85.34676
1.3746889,88.9041
1.3753612,86.21022
1.3173519,88.194275
1.3200907,88.44592
1.4289637,86.10158
1.2807851,86.658875
1.2417656,86.75132
1.1489404,86.58665
1.2606425,87.90351
1.1316321,88.78052
1.1810633,86.63735
1.0705639,84.12452
1.1591034,85.83618
1.117169,84.20434
1.1804028,82.7779
1.0477401,84.525055
1.0900732,82.83412
0.94451034,81.18155
1.0368583,82.03348
0.9972735,80.164085
0.94404614,77.575356
0.97445905,80.80899
0.9951064,76.50411
0.9939049,78.75127
1.0509368,79.72623
0.9464451,72.855225
0.9117397,81.19029
0.83601123,76.629036
0.8592904,75.33175
0.7856294,72.30379
0.67502785,76.980705
0.65315866,77.11727
0.7205639,74.96773
0.67454726,72.54226
0.7133387,71.11254
0.6105328,70.675285
0.55255556,70.42493
0.55238545,70.570305
0.48958245,72.02231
0.57533467,69.54136
0.6537006,70.6755
0.55291736,72.42475
0.6202526,69.39016
0.57349753,69.519714
0.6037054,63.03211
0.48837888,67.36581
0.5385166,72.27036
0.5154837,65.11444
0.57760775,66.19027
0.4902579,69.54795
0.5534997,66.419785
0.34393147,66.90765
0.32660943,67.2561
0.33903965,68.27798
0.25761515,67.98033
0.17031176,69.19694
0.30417615,68.26408
0.20564759,67.06838
0.21545905,68.60578
0.3459137,69.87159
0.33190045,70.60203
0.28724498,69.55384
0.3861827,67.70905
0.49065745,72.00582
0.5349542,68.36192
0.511999,73.92233
0.755189,73.67034
0.79513067,74.988884
0.99484324,76.088165
1.0511849,79.36796
1.0720484,75.54329
1.1380752,77.450134
1.2999383,80.617744
1.3412768,80.01732
1.4796066,79.866394
1.5622295,80.55222
1.5367447,81.16031
1.6124282,83.674194
1.6945903,85.03135
1.6904304,84.17422
1.763302,90.195816
1.8325316,84.32225
1.6703315,87.93014
1.7670925,85.63062
1.7231494,90.329544
1.8444296,84.876015
1.711152,90.01545
1.703294,84.59103
1.7756357,84.570145
1.7208776,87.60331
1.76325,87.63759
1.7780931,88.76063
1.6686306,85.70353
1.6941429,88.34102
1.6023387,84.86932
1.6553779,87.72897
1.5979588,90.20554
1.5031502,85.17832
1.5486356,88.54666
1.4451814,84.71216
1.4441495,87.22032
1.447362,86.53268
1.4680454,82.89549
1.484075,80.02595
1.4614998,83.837776
1.326112,83.921196
1.467099,83.49647
1.4213685,80.77317
1.4322206,80.22879
1.4044131,80.214584
1.3079063,82.465385
1.2997751,80.04075
1.266283,79.07955
1.2743253,78.16243
1.4093462,75.55472
1.2337244,76.6251
1.1823597,76.773605
1.1207924,75.62475
1.1948928,77.499794
1.0940452,76.129196
1.0982137,70.578354
1.1102599,73.97154
1.0591022,72.7465
0.99070036,73.50641
0.9353656,68.93494
0.95038027,70.813385
0.89988554,78.675026
0.783022,71.79854
0.7837894,74.834854
0.8169722,68.758766
0.85685563,70.75179
0.8502555,70.121056
0.7827115,69.06196
0.883854,68.781166
0.842678,66.68787
0.8798739,71.886215
0.8281328,66.67828
0.79147595,67.947296
0.85915035,67.48843
0.734318,68.10679
0.75307685,69.57935
0.74557364,65.183556
0.66396594,65.15
0.55134904,66.35761
0.51494,68.79691
0.53032315,69.79333
0.53272235,66.80956
0.50624335,66.35366
0.48898274,68.67786
0.60997,67.38348
0.59624565,69.54879
0.5063119,69.82351
0.60975456,66.088066
0.78991985,73.195244
0.68801075,73.76947
0.89131474,72.759445
0.87542063,73.14792
1.0142766,72.91217
1.087448,74.261185
1.2586523,78.73178
1.2415429,78.23586
1.4380565,80.27135
1.4679679,78.19636
1.5252014,80.25843
1.687993,81.15177
1.6730363,83.91183
1.7026916,83.449165
1.6964016,80.31247
1.847326,81.72829
1.8861767,85.291
1.8612151,82.05141
1.9986736,87.31492
1.9688987,85.12797
1.9811186,83.72563
2.0073566,87.86705
1.9023415,92.74855
2.0093982,84.3445
1.9260578,85.71173
2.0453737,87.12161
1.9307328,89.68205
1.7905194,87.819984
1.8030132,86.81856
1.8866838,86.55556
1.8585495,91.63453
1.8339746,83.682884
1.758665,88.05346
1.732798,87.89588
1.665324,85.54687
1.691365,84.46743
1.7056471,81.53672
1.5216136,87.79418
1.5982491,85.22191
1.7116404,81.43706
1.5578064,84.40579
1.559077,82.22701
1.5232251,85.14044
1.5273812,83.62977
1.4646962,79.0392
1.5057955,83.59395
1.547931,81.630646
1.5674211,79.73602
1.4902623,79.432655
1.544607,78.867455
1.2830088,74.49575
1.2173795,79.3847
1.3026375,79.73759
1.26111,79.58967
1.3451691,75.749214
1.215056,81.22054
1.1686121,76.58968
1.1797098,74.17115
1.1825141,73.26214
1.0876665,75.10175
1.0221316,74.01889
1.0577749,70.06732
1.0374619,73.591805
0.8949931,74.60428
0.8130615,73.744644
0.93522394,69.8731
0.8792109,68.30475
0.93971336,71.897224
0.92575705,71.192215
0.90959585,71.01445
0.837818,66.82732
0.91406536,68.64636
0.88801795,68.28597
0.84564346,67.30922
0.81443566,65.20762
0.80502725,66.907745
0.7868416,70.23724
0.6372713,68.80088
0.78309995,71.70183
0.7201687,65.54866
0.5573957,66.30582
0.62246925,66.28992
0.5686592,66.74024
0.50580406,65.32346
0.57495815,69.145966
0.5541895,68.8536
0.55803865,67.281
0.43025324,73.55303
0.55151457,71.777245
0.5733784,71.22254
0.47512963,69.26914
0.70396274,71.34047
0.75387985,70.255775
0.88439363,73.02451
0.8052757,76.49755
1.1517072,77.4161
1.192822,75.360016
1.1294427,79.945786
1.3145415,73.83754
1.2620941,78.944275
1.3793299,77.788956
1.4481213,78.9899
1.5578264,86.982735
1.5716234,83.92902
1.6104155,82.61578
1.6905631,83.74756
1.7570632,86.27264
1.7427759,83.117096
1.7324871,86.84759
1.8485844,83.36378
1.8268104,87.28158
1.8718611,86.357704
1.8142254,87.27394
1.8740711,86.46524
1.7674595,86.09175
1.7750409,88.26958
1.7701015,89.12369
1.7705448,87.3185
1.7583125,87.32665
1.6249347,89.303116
1.6358304,90.39644
1.6072663,87.8034
1.6269119,85.23872
1.5064553,86.99361
1.5771089,86.16288
1.4223851,87.38962
1.5479897,85.981926
1.3824793,90.70844
1.3875935,87.95516
1.3936187,85.392204
1.4772414,81.45678
1.3345371,80.97287
1.4266162,80.83937
1.2906054,85.52464
1.3045484,82.446754
1.2170994,81.695206
1.2564251,87.29631
1.1946163,80.398766
1.1872029,79.77943
1.2104675,79.03619
1.2549661,81.054924
1.1723634,82.35368
1.1997757,79.456314
1.2566565,78.030624
1.1158642,73.55404
0.99918336,76.503006
0.98969615,78.34783
0.9002018,71.928474
0.8985131,75.618515
0.8370094,78.27877
0.7502072,73.904465
0.85832506,74.305504
0.7519694,70.91356
0.75395364,73.09376
0.69909114,73.25602
0.5931543,71.49221
0.68714994,74.994064
0.5214853,73.34165
0.65379727,71.8076
0.6117599,72.959526
0.6477198,74.67394
0.5717656,69.58215
0.5892042,66.928825
0.7363013,70.884254
0.5306296,69.78677
0.57283354,66.875175
0.44804877,66.61475
0.46268025,66.291534
0.31502792,63.667118
0.3177286,67.18026
0.33936906,64.07763
0.29118884,66.39371
0.35205793,64.95627
0.19135953,70.12215
0.2105736,67.87059
0.17896517,65.56171
0.17822318,69.95875
0.14184147,71.478226
0.17482176,68.26017
0.17427988,69.79073
0.31527627,69.50899
0.35668916,73.98968
0.35840258,70.73728
0.48722097,74.313835
0.52654356,75.400696
0.6824301,75.75506
0.8393615,74.80292
0.7808916,81.546684
0.91887647,76.114
1.0518833,75.62481
0.9821119,79.451096
1.1128905,82.38695
1.2618817,85.49481
1.3648919,81.519455
1.3067757,85.220406
1.397455,81.656876
1.3271048,84.11633
1.4347373,83.67241
1.4897355,84.56334
1.5315177,84.355255
1.414515,86.694374
1.5313286,85.89238
1.3695382,89.52123
1.3989431,87.931076
1.4540513,88.78145
1.3842388,87.402626
1.5590833,89.21589
1.5872395,87.005066
1.3758783,84.47893
1.3735908,88.32411
1.3822899,88.02532
1.3572998,86.049965
1.3756868,84.29477
1.4187047,86.662384
1.3646812,85.87946
1.1197081,87.53639
1.0745296,85.53585
1.1649613,81.83401
1.088448,86.12736
1.0936933,87.47489
1.154998,85.82855
1.0026426,85.75913
1.1013119,84.55896
1.0126863,83.56025
1.1492423,84.67821
1.092934,80.96479
0.9383592,78.617485
0.8278966,80.314926
0.8358034,80.09316
1.0132331,76.02861
0.9672022,80.13605
0.8768968,80.95173
0.79853886,77.23096
0.79298365,78.62756
0.88978374,83.3016
0.8320587,76.37598
0.7224653,78.75111
0.5757993,75.11371
0.60090077,76.25736
0.46739098,72.27392
0.44441986,73.29128
0.45450327,73.52555
0.5133518,72.669685
0.39596125,70.24217
0.39505225,71.16185
0.31258303,70.17054
0.31084916,71.31536
0.3625457,68.63741
0.32016876,69.93713
0.44170368,70.73758
0.32100713,70.220566
0.38485485,69.625984
0.16917968,68.126656
0.2999843,67.18433
0.3655834,68.04606
0.1974666,69.8515
0.29883957,66.839386
0.14653751,68.92416
0.22979178,68.52415
0.15167947,68.28018
0.041764986,66.702
0.070425294,67.17947
0.04247568,66.216774
-0.040002376,70.49049
-0.077888444,69.675644
-0.03179176,68.114204
-0.10243516,69.06012
0.03714061,66.50722
-0.096353695,70.66009
-0.014268967,73.12261
0.09357333,70.8495
0.034996312,67.47772
0.21425326,71.727036
0.20402427,69.874664
0.32794884,74.79554
0.3372949,74.82599
0.52968293,77.678276
0.5930131,75.647934
0.6188651,76.07712
0.7427909,78.593895
0.9028541,82.48471
0.95083046,79.1977
0.9498903,77.19766
0.9548464,79.027214
1.1863338,82.4505
1.1859256,87.20703
1.3189042,85.94971
1.300911,85.85165
1.3631147,86.41565
1.3486646,85.0564
1.3746204,85.78463
1.3463376,89.041435
1.4132031,88.919365
1.4303539,87.50804
1.3583733,88.06133
1.4600554,90.18597
1.5329562,89.49186
1.4061952,86.22609
1.3591335,90.39859
1.3051314,86.84675
1.2278745,88.649155
1.2074965,86.69674
1.228745,89.41413
1.1069831,85.48097
1.2357343,87.51881
1.2772012,87.26876
1.0504993,86.13685
0.9750591,80.415794
1.0263644,86.143036
1.0908337,83.44802
0.92095715,83.262535
0.90677017,80.869705
0.94467515,81.09149
0.9574775,83.95141
0.92302537,80.753426
0.87672776,81.50051
0.92479986,82.96353
0.97785026,82.81507
1.0259969,79.72887
0.9060856,75.83675
0.7491565,78.04492
0.8401387,77.6426
0.8651261,76.651
0.71678054,78.87533
0.80853593,74.93687
0.7867115,73.939995
0.723059,77.99715
0.72618574,77.17667
0.6115223,75.96755
0.5998271,75.87078
0.5420458,74.69559
0.5303285,73.80668
0.46531704,74.58126
0.46943167,76.63359
0.43442664,74.274025
0.46871093,72.326866
0.43128324,74.19228
0.37919065,75.01931
0.43136206,71.934006
0.3792666,69.52111
0.37960756,69.956406
0.4066995,67.2379
0.3574988,66.61129
0.40361,68.23098
0.4902864,68.7423
0.38558328,67.06075
0.38402444,70.201096
0.32070222,67.21505
0.30630842,68.90722
0.29812363,66.50182
0.21409568,66.5187
0.10553212,67.77265
0.112781234,67.0375
0.14330567,67.989525
0.15564093,67.3377
0.056324404,68.24603
0.099151604,68.773834
0.061535444,65.039856
0.110173,70.715225
0.056149673,70.40849
0.081163324,68.041306
0.16499417,71.09724
0.17233272,73.17332
0.28179592,75.388824
0.3823358,72.76539
0.5764074,73.393974
0.58360916,73.641304
0.8146653,74.6665
0.7903986,75.63931
0.9183691,76.37333
0.96537703,81.403206
1.0362799,78.89857
1.185607,78.544205
1.174885,82.955215
1.3161695,86.25317
1.4528215,80.8729
1.4931003,83.03782
1.4177228,85.6519
1.4191262,84.56272
1.5371196,83.10141
1.5055922,85.936455
1.5583917,83.773506
1.5706551,85.980095
1.5474285,88.38728
1.5371709,89.37697
1.5973357,86.40706
1.491361,89.11132
1.5669079,88.01877
1.5434104,87.32906
1.5438395,87.67002
1.4906429,87.183
1.4988388,86.615265
1.5690937,85.21571
1.3851312,86.93747
1.4811308,86.368
1.3731494,83.263756
1.4076613,83.50232
1.3943068,83.7573
1.2949139,88.411026
1.1847878,87.1253
1.2767142,82.29985
1.346232,85.41515
1.2569731,82.39294
1.3120435,82.98928
1.2015624,81.25152
1.1898712,87.08297
1.1695088,78.55347
1.2297621,76.938034
1.3173041,81.613434
1.2314187,83.6871
1.1814929,78.777115
1.2096385,75.56828
1.193707,77.77946
1.1629032,79.666336
1.1509384,82.14434
1.0022557,79.82259
1.0487646,78.58299
0.9290822,80.04171
0.94016325,75.909386
0.89480263,74.624916
0.8293269,73.29637
0.8455472,71.91543
0.77357745,72.26402
0.7382032,75.08817
0.78866214,69.9117
0.70987403,72.13263
0.78711784,72.00534
0.75071186,69.915085
0.72742605,69.945206
0.6372839,71.43156
0.69735056,74.10472
0.72211486,67.35916
0.7138018,70.327415
0.6470239,63.65722
0.7969841,64.55901
0.7527555,67.423416
0.666738,66.1217
0.56180084,68.215454
0.729297,67.14416
0.60703653,68.41608
0.46393305,67.62095
0.5111947,66.642334
0.39219168,67.95721
0.26629904,66.19152
0.47890538,65.032196
0.43451858,63.8824
0.35250413,64.81365
0.3749737,71.19427
0.4585945,72.04471
0.5065353,69.85462
0.48956266,69.11327
0.40914458,75.59286
0.67407376,69.29365
0.63104004,73.144615
0.7604913,73.40886
0.87519497,72.264565
0.83504903,73.89659
1.0589817,72.96547
1.1595384,75.38438
1.1769689,79.2903
1.3851913,78.818214
1.2914838,79.980576
1.3199629,79.88757
1.5732167,84.210815
1.652916,82.25025
1.5329584,83.90333
1.7486384,83.56173
1.7083478,86.22802
1.7809328,79.51649
1.8373752,87.684456
1.8959819,84.96708
1.8754708,85.25845
1.9083838,84.9084
1.9112788,86.03884
1.9735935,83.00466
1.9485133,85.033554
1.8987277,87.46417
1.8974494,86.86227
1.9011729,90.304474
1.9359185,86.24317
1.9045016,86.97436
1.7968283,89.52338
1.7521727,86.86342
1.8215721,90.83978
1.7780031,85.36832
1.7010621,90.019165
1.6387708,88.114456
1.6534812,89.10502
1.5850334,86.02363
1.6160583,87.949234
1.5424951,85.91449
1.5797249,83.1585
1.4782186,81.261795
1.5914387,84.34385
1.4977895,83.996475
1.4224793,85.47509
1.4829656,84.50451
1.4606966,83.206604
1.4673388,81.03357
1.4259892,81.500946
1.4864782,79.53431
1.4358459,83.91473
1.394055,75.939285
1.508204,79.324745
1.3410819,78.1812
1.3002484,78.681114
1.2851717,73.90314
1.2020192,78.47189
1.202983,78.44531
1.1237979,77.639824
1.1082739,77.288635
1.0434517,76.08333
1.0221217,75.4783
1.009906,80.2865
1.0425662,72.15336
0.9446135,69.313736
0.8789702,71.09261
1.0594931,71.37243
0.85019577,72.48029
0.9211358,68.15991
0.9634963,70.98661
0.8851076,64.79893
0.8145746,67.99563
1.0116339,71.890976
0.92809474,67.57082
0.9125908,72.940186
0.91639596,70.44973
0.8366068,67.9677
0.7966814,68.65397
0.72073567,64.34508
0.66160023,68.66818
0.7056905,67.51429
0.6996647,67.95314
0.5525643,63.32956
0.620557,65.30101
0.624104,68.45294
0.61055845,68.60456
0.5903547,66.97336
0.54735893,67.90672
0.60196996,70.46533
0.58503395,66.564705
0.62158895,72.239555
0.77191895,70.10711
0.8651688,76.37842
0.9809306,75.15532
0.9342808,71.04069
0.998001,73.458176
1.0641108,75.61913
1.0789073,73.09051
1.300115,80.8255
1.349881,81.48354
1.4172403,80.730286
1.5553453,80.34717
1.6411088,82.194626
1.6511134,82.423035
1.8612068,82.631645
1.7989069,81.98616
1.7702117,84.4548
1.8654578,82.91371
2.0316436,86.89839
1.8965912,90.60467
1.9722903,85.988014
1.939347,87.53204
1.9579351,88.47977
2.0954466,86.4839
1.9451375,85.25383
2.015641,88.56365
1.8719177,85.88759
1.8000488,86.58662
1.9320256,86.975945
1.9488614,85.145195
1.8281523,86.541275
1.9307753,87.4415
1.7263954,91.6605
1.7487783,86.079895
1.7274992,86.24738
1.7487501,84.25194
1.8083739,81.85468
1.5183473,83.93677
1.5950676,83.64156
1.5492417,84.23015
1.5061991,83.99357
1.4397534,87.36485
1.513889,81.43757
1.453418,79.61476
1.534775,81.768875
1.4521377,81.89297
1.4173344,79.94238
1.4790713,82.40753
1.3865566,80.64858
1.3846275,78.88638
1.345715,79.40269
1.2900904,80.22962
1.2154921,76.443756
1.2017224,78.875656
1.2960105,79.5182
1.1882174,76.86318
1.1076261,75.73958
1.1065068,78.417534
1.0608535,73.81937
