ppg,abp
0.9868684,90.02245
1.1674888,95.14345
1.3794936,95.63714
1.3405697,97.290344
1.4503605,103.24757
1.5364114,105.00522
1.4866116,100.346664
1.545435,106.43611
1.6249483,106.698555
1.6924537,109.25628
1.6803122,108.864334
1.6709638,111.7016
1.5855172,111.537796
1.6294316,112.66037
1.8511508,113.89502
1.7211157,113.58298
1.7255714,113.89915
1.6396253,112.01874
1.6334213,112.82633
1.5781355,114.02621
1.5335596,113.38837
1.5771421,112.51197
1.5471197,113.942215
1.4853785,108.16901
1.536448,106.523796
1.4312967,109.10068
1.4195186,108.08811
1.4209818,104.93202
1.3712994,104.721855
1.3999263,104.18116
1.3172057,102.36659
1.339348,101.22297
1.2757143,100.65268
1.2977827,100.444214
1.3084552,95.31786
1.2597979,97.476746
1.2133412,98.57769
1.2981573,91.84933
1.1799406,91.319435
1.2230331,89.2315
1.1787622,88.78038
1.0760535,88.488434
0.94347346,88.04171
1.0455663,87.61186
0.91916674,87.82444
0.9425302,84.92332
0.84881896,81.39207
0.86119336,83.486885
0.89704305,81.080956
0.80748874,78.14454
0.87412876,77.60353
0.69566643,73.55721
0.8843587,75.96
0.86123246,76.23074
0.9228409,72.28777
0.8028413,73.012764
0.8067949,72.37895
0.7996171,73.01932
0.77944034,71.57578
0.7118978,68.66168
0.65390915,66.97271
0.6582367,67.98311
0.62798876,71.224556
0.56478876,70.56486
0.5983835,72.408585
0.54308164,69.923965
0.44266137,71.18446
0.6333681,72.927605
0.5540743,75.01743
0.397243,73.45362
0.55658716,74.90648
0.66411316,75.85628
0.7333491,75.65475
0.81276894,82.02297
0.73272127,81.494835
0.9132114,84.38544
1.0464792,87.04509
1.155095,88.94249
1.2350036,91.81174
1.4079484,95.190125
1.469788,95.62422
1.5295804,99.54556
1.6236122,100.4728
1.8245236,103.89469
1.7556964,104.36266
1.8441589,103.73663
1.8923367,108.00755
1.8940498,106.8785
1.9666077,109.703705
1.964556,110.20965
1.8769091,111.69644
2.0040128,109.946884
1.9424547,114.73282
1.9684279,115.37932
1.8692216,112.28823
1.9478371,116.43312
1.9007756,113.491
1.8813114,112.38373
1.8262918,111.61714
1.7748338,110.60631
1.7622341,111.3808
1.8505728,111.50917
1.6850797,110.11542
1.6551461,110.83304
1.6055928,108.94802
1.6128558,104.850174
1.5771818,103.37404
1.5280809,104.66094
1.5706773,100.18077
1.5811706,103.08267
1.5036405,100.517265
1.515653,97.22559
1.3935883,96.292175
1.3907952,94.728386
1.3782941,95.28654
1.2608043,95.254005
1.2929941,91.44353
1.4435762,91.502716
1.3225,90.788315
1.2880081,88.10395
1.1823658,88.01043
1.136775,84.1124
1.1666707,85.92689
1.0187594,82.93861
1.0759654,78.32435
0.9990466,83.80028
1.1287766,78.33387
0.9242741,81.9047
1.0418957,78.68813
0.85322964,77.74658
0.9003264,73.04325
0.96819586,76.160385
0.9489261,71.15373
0.9565813,73.39062
0.9360908,70.62594
0.88701886,68.417564
0.9227376,70.65813
0.81264406,70.179794
0.7449259,67.80121
0.719969,68.46541
0.67071956,67.941536
0.52214056,66.38914
0.58987105,71.19015
0.58303314,71.30265
0.6084778,70.23177
0.5136654,68.87355
0.62408245,71.61771
0.53952986,74.09793
0.7558992,75.58324
0.5621256,78.19919
0.64754725,79.291824
0.76122344,79.53884
0.88013166,81.824356
1.0345807,84.438225
1.1494367,84.7766
1.2531998,89.07849
1.3491933,89.37764
1.502284,91.20904
1.5517455,94.37729
1.5689036,98.01184
1.6720046,99.37649
1.6578565,101.8148
1.7390261,103.558655
1.8088264,106.37693
1.8936461,107.6069
1.8939469,105.85624
1.8822603,109.802055
1.9337513,114.07914
1.8461493,112.902084
1.9280059,113.74439
1.8416095,111.12534
1.9208779,115.6919
1.9133381,113.787735
1.9714172,113.12065
1.8259726,115.82341
1.6972457,115.91339
1.8007113,112.73816
1.730528,114.0105
1.7059705,111.02779
1.6315765,111.740456
1.626808,106.93763
1.614494,108.75654
1.5792912,107.51092
1.4873871,106.143906
1.5172771,105.91457
1.4313536,106.588936
1.4429319,101.40679
1.5026841,101.27203
1.4135438,100.16071
1.3913333,100.0636
1.3719616,99.57455
1.381928,99.42077
1.4134583,97.11868
1.2997931,93.3635
1.2705386,89.07661
1.2804533,91.141975
1.2137514,90.28263
1.1614795,89.72631
1.077251,87.61453
1.0827205,86.92006
1.0211617,85.40728
0.97303104,84.422646
0.9036594,82.28486
0.8788265,82.94121
0.8114883,84.91323
0.8073026,79.58823
0.823156,77.1355
0.83052534,79.254395
0.79261446,76.86529
0.8277518,77.224884
0.68009096,74.32284
0.89918685,72.21849
0.8563179,69.58979
0.7105464,68.792854
0.74042934,69.40428
0.66929585,71.20333
0.6492647,69.25225
0.6062276,68.64267
0.5391297,71.46043
0.49880764,68.70917
0.36557063,68.70851
0.37255493,73.1121
0.3477978,73.221725
0.33431274,72.02305
0.30832863,73.82906
0.2695004,74.17808
0.37298203,74.784004
0.42397073,75.2709
0.51658607,78.30663
0.6836408,79.545975
0.60886186,82.056404
0.7371787,82.212975
0.7924569,85.47144
1.0582538,90.57196
1.0604682,91.76453
1.1570351,91.45024
1.3211029,94.89821
1.4156978,98.010155
1.4902711,101.01628
1.5455757,103.50036
1.5693724,102.47266
1.6182296,103.92993
1.5963238,107.67628
1.6559151,108.34847
1.5707152,110.64143
1.7153794,110.78112
1.6798594,109.29696
1.6677775,114.817345
1.6204791,112.464005
1.620015,116.41865
1.6757311,116.16702
1.6137145,115.159966
1.5188578,111.855835
1.6093228,111.94139
1.5003024,114.85179
1.5477693,113.36288
1.4779707,110.74583
1.4356242,108.16147
1.302939,111.501175
1.3515687,108.271645
1.3661929,108.593445
1.2510859,105.7752
1.1759654,104.72734
1.2954569,104.12152
1.1672134,103.7016
1.1745212,100.07349
1.105702,99.283745
1.0902289,99.87392
1.1041266,98.23323
1.0962838,98.85001
1.1492732,94.64099
1.0795312,92.014114
1.0058073,92.82781
1.0154905,89.14942
0.9612912,88.41642
0.8711117,89.312454
0.8670797,87.54365
0.8079757,86.27089
0.64691335,84.41923
0.6826374,85.93427
0.70630497,84.442535
0.61983573,83.53618
0.5571445,81.98723
0.6204934,79.7934
0.43585905,80.118095
0.5387853,77.77916
0.5267763,76.03201
0.4575224,76.96656
0.46638942,73.9926
0.44581094,74.22158
0.51036066,69.17388
0.40462068,68.75614
0.3182528,68.109825
0.47076285,67.661255
0.39803213,70.20015
0.31534243,67.56522
0.30001324,68.10242
0.113461964,71.216934
0.07371279,68.13101
0.069242544,69.087524
0.17076108,66.571754
0.02177665,74.7239
0.07339679,72.50234
0.06969052,71.18733
0.12169741,75.59577
0.10025554,75.13222
0.15822375,78.83454
0.2527007,79.77348
0.39199877,83.97167
0.4947903,83.42699
0.6498293,88.31882
0.7059304,86.381386
0.6553973,89.89946
0.97595876,92.26835
0.9210401,93.836075
1.2676628,97.43639
1.2507871,97.80691
1.1643827,101.58436
1.2706954,104.068245
1.3367996,106.802124
1.3393255,107.2951
1.3740088,108.20784
1.3838506,109.08904
1.3683321,111.06207
1.4838756,110.50185
1.5419427,114.69019
1.5733615,111.414246
1.4143424,112.22261
1.4170659,109.87025
1.3748039,113.09554
1.4436285,115.159004
1.3102016,114.04425
1.3294758,112.577385
1.3265189,112.583885
1.2153391,113.35241
1.234751,110.01271
1.2440902,108.16672
1.0373776,104.301895
1.0762341,109.29642
1.0243826,105.06358
0.98736745,107.155304
0.803876,103.154884
0.94556445,103.90422
0.8380204,100.60972
0.98356414,100.54684
0.91387576,98.961205
0.9446527,99.94567
1.0266243,98.22661
0.7752206,95.23943
0.90095794,90.589584
0.8046452,93.42695
0.80993176,92.71449
0.8214578,90.95377
0.7352501,87.871086
0.64066535,89.178986
0.62170464,87.698616
0.5434212,89.2315
0.49297917,85.54832
0.47714874,84.74126
0.3935748,82.14136
0.3808275,79.73117
0.37201783,80.15082
0.33453003,78.38148
0.4236557,77.63953
0.38525382,74.26537
0.3738498,75.42726
0.38725072,77.16867
0.34489128,75.112625
0.27301627,71.5074
0.3685667,71.48877
0.23285663,71.184296
0.37300932,67.37348
0.21871528,69.5487
0.25640962,70.91878
0.11323242,67.52383
0.095287904,70.87783
-0.0006326239,68.26082
0.030653073,69.4014
0.053154998,68.419495
0.011889048,68.70006
-0.22870927,69.99514
-0.074423425,73.37178
-0.048633944,74.79367
0.041068975,77.252975
0.1735954,75.513985
0.2093658,78.961365
0.3004314,81.46317
0.35524556,85.85639
0.4149542,83.946884
0.6429688,85.549835
0.7754355,90.98135
0.6360557,89.83866
0.9008852,94.53583
0.96162844,97.224396
1.1185063,100.992165
1.1300392,101.989784
1.166075,102.87721
1.2422963,106.737366
1.2734094,107.15419
1.2798136,105.6291
1.2680228,108.70883
1.2902304,110.278786
1.4324664,111.61993
1.2950966,109.158905
1.3753982,114.70341
1.4539455,112.75954
1.3774873,112.75821
1.3031907,115.07902
1.2993447,114.83681
1.2468987,113.676025
1.2723078,113.84873
1.2957845,111.40759
1.2701681,111.33529
1.144275,108.120804
1.1679062,108.98747
1.0184228,109.91024
1.0356534,108.256775
1.0047731,107.86942
1.1591294,106.77658
0.95501024,107.25839
0.9085565,103.24573
1.0168902,104.828705
0.9454914,101.61324
1.025227,96.20295
1.0028253,98.64748
1.0679137,95.76686
0.8570313,94.90715
0.9635754,96.04206
0.88621205,93.13238
0.75068045,91.1374
0.8222122,90.59416
0.74008185,90.50517
0.75600755,90.84185
0.71286047,86.827255
0.5846267,85.02897
0.60630125,88.32977
0.6734792,81.39359
0.55915254,79.78404
0.5143391,82.95962
0.41821077,80.960976
0.52824414,81.491135
0.5658468,77.46118
0.41178757,75.52503
0.41111025,76.49847
0.45787737,73.44868
0.4820617,72.36339
0.47082493,71.387726
0.45019367,71.345726
0.41464517,73.06946
0.24570383,69.34919
0.3942314,66.6986
0.30188715,68.98599
0.2302389,70.34289
0.28521743,68.74981
0.20023397,67.76247
0.10826983,67.38586
0.087276146,68.67964
0.1232376,68.81887
0.07745776,72.01823
0.13794547,73.513565
0.16011389,75.17745
0.22852854,76.59308
0.1728029,76.05873
0.28392646,80.25711
0.4318039,78.58674
0.61771405,83.10409
0.649065,85.06608
0.7358803,90.19886
0.86118364,91.52566
0.893084,93.82864
1.0587842,90.56849
1.2169994,99.02961
1.2148935,99.35739
1.3275948,100.97429
1.3441871,101.91814
1.3715436,100.031876
1.5043787,106.66271
1.573122,107.61102
1.5514879,108.349594
1.5488315,109.68458
1.5748671,113.62207
1.6040727,111.57175
1.6870354,113.46539
1.5243508,111.80057
1.580338,114.63635
1.5422393,114.555984
1.5951575,113.06933
1.5129976,114.6923
1.5129582,115.50642
1.4043709,113.20161
1.4617232,111.81116
1.423633,111.41347
1.364294,110.66894
1.3579577,107.91451
1.3990855,106.51524
1.2812586,107.835205
1.2466588,105.14471
1.2836487,105.602234
1.1596578,103.57416
1.2125131,102.57997
1.2624191,103.44944
1.2220851,96.35144
1.3000219,99.75969
1.2051986,97.5084
1.1648133,93.73666
1.1881784,95.14006
1.1014693,94.48064
1.1156979,91.36847
1.0897026,88.172585
0.9795395,93.366646
0.98034036,89.164
1.0122689,87.10514
0.938305,85.81258
0.85837156,83.41997
0.8200371,84.518005
0.73714757,80.5473
0.74577487,77.26815
0.6855674,79.5801
0.75243926,80.03001
0.73439866,78.08212
0.7218101,76.26965
0.6326476,75.718994
0.64614713,72.672585
0.7127147,74.21468
0.7642711,69.53526
0.7958517,72.02427
0.6632983,70.79301
0.7302275,66.11516
0.6414256,71.600044
0.5548873,69.629265
0.6390981,70.63142
0.51538455,71.189606
0.50941026,69.39504
0.4587025,69.15046
0.512197,71.49854
0.44989657,70.53798
0.40992534,73.57981
0.46634096,71.65173
0.3585165,73.688354
0.49377304,74.9875
0.54443926,75.65254
0.56250995,81.315605
0.7207311,83.58035
0.78521436,83.55698
0.9147682,82.85368
0.909559,89.05001
1.1465939,89.586464
1.278197,89.78306
1.3848197,94.67178
1.3771986,100.17017
1.4636517,97.747154
1.593432,101.89622
1.5495118,101.82113
1.6829406,103.87602
1.8070415,105.02417
1.7983111,104.82908
1.7824605,105.43023
1.8487093,112.64836
1.8266004,110.26297
1.9332846,113.01096
1.7915114,111.54932
1.9055024,113.42668
1.8619894,112.5957
1.9617815,115.48936
1.839578,112.005615
1.7159774,114.048515
1.7974074,113.65825
1.7196877,114.3422
1.7516251,112.41824
1.7029592,110.32332
1.5651195,114.11031
1.5827277,107.130806
1.5676397,107.30053
1.5878947,106.32179
1.5591217,105.70972
1.5208925,106.23159
1.4682802,104.409874
1.5238321,104.3214
1.4652267,101.47839
1.3635179,98.56805
1.4024646,98.19192
1.4382715,97.272446
1.4558626,98.90837
1.403077,95.40517
1.396272,92.249245
1.3744022,90.80686
1.2535267,92.76506
1.2128942,90.49949
1.2327855,86.7887
1.1995608,88.79896
1.1394737,87.69876
1.0688957,84.153595
1.0878383,80.996864
0.96773595,82.605736
0.98122036,81.812195
0.97581434,80.75735
0.8391584,78.3772
0.984881,77.73065
0.90668,77.119644
0.94721603,75.465454
0.89045286,75.528564
0.9140619,71.52337
0.9160741,73.86837
0.85223466,74.2918
0.9227383,71.032486
0.79270095,70.001366
0.82024693,70.27616
0.7654315,68.98898
0.78102046,72.88524
0.66660243,69.63759
0.6123624,70.419426
0.66937476,70.01112
0.50297743,73.07806
0.53497,71.35574
0.4651805,72.484924
0.37409502,71.12182
0.51288205,72.59091
0.6366697,76.71524
0.6461789,73.8039
0.7852188,80.2795
0.7166191,83.07668
0.8546833,85.05589
1.0493327,86.61461
1.0625634,87.914
1.2016134,88.874344
1.307561,91.02177
1.5654159,92.44444
1.4783498,95.06722
1.6095761,96.41296
1.7160757,98.64631
1.6667013,101.602516
1.9281478,99.920845
1.8363891,103.90526
1.8824843,106.1957
1.9957213,111.17528
1.9943473,109.479485
2.0578487,114.37941
2.0603552,108.967636
1.9665866,111.0655
1.9999255,111.20569
2.064919,113.36758
1.8821689,112.22531
1.9237778,116.03597
1.9109517,111.5973
1.9371508,112.86127
1.8609195,112.89544
1.825184,110.86902
1.7965715,113.44569
1.6882985,110.072716
1.6587907,106.968124
1.6398187,109.99074
1.6738211,107.34243
1.6682533,106.365875
1.5522584,106.26848
1.5420809,102.85534
1.4915286,103.431175
1.3421502,100.89375
1.5171322,96.934105
1.4330328,98.328766
1.5428909,97.84268
1.4937389,97.301094
1.4677947,95.567406
1.3350979,91.3445
1.4068519,91.75729
1.3414896,89.97477
1.3020405,90.8526
1.2624469,87.97588
1.2117376,87.143265
1.1705326,86.23584
1.1030682,86.85527
0.9947118,83.76615
1.0552336,83.49192
0.820279,79.32993
0.9293627,81.748146
0.8907617,77.49326
0.8084662,75.69323
0.9188818,76.62454
0.93905586,75.520485
0.8958918,73.67734
0.8287243,78.4976
0.89281636,73.363884
0.8283221,69.81321
0.7471697,70.01396
0.74808294,69.53854
0.72335744,71.73312
0.75058657,69.76696
0.61508507,65.776054
0.582316,69.25163
0.7085144,69.474785
0.5608019,67.33514
0.41551957,70.82413
0.48818055,73.19206
0.4279712,70.61162
0.44072685,71.57511
0.47758275,75.91647
0.47853535,75.740364
0.6424631,78.11475
0.5948272,78.009605
0.76267827,78.67183
0.89802235,82.70635
0.9151313,86.142426
1.0287571,86.9706
1.0832167,90.98042
1.2240083,89.02773
1.2824074,94.55911
1.3289444,98.24896
1.5072328,99.30986
1.5557768,99.45141
1.5263054,101.95312
1.6922032,104.41569
1.7027831,104.1729
1.8106378,110.3278
1.7351891,107.55174
1.7844616,114.08068
1.7662277,110.05913
1.7789246,112.445045
1.7019321,111.52763
1.7983046,113.21684
1.7597181,112.846306
1.7949548,113.65498
1.7393852,113.029305
1.6875378,112.590256
1.6209161,113.510994
1.6532332,110.98492
1.6551101,113.88924
1.5460753,111.20938
1.5626962,108.62192
1.4969621,109.40497
1.4223639,109.10765
1.4636031,107.10892
1.3998516,102.1337
1.2901238,103.10737
1.2233657,104.62971
1.3665471,101.04574
1.2883749,102.09915
1.2135286,99.672295
1.221132,100.63935
1.1887935,95.45806
1.119653,97.01464
1.1743928,93.18496
1.08638,94.39002
1.1049955,93.58067
1.110341,92.106514
1.0898414,90.50453
0.900792,92.435684
0.8944881,85.55211
0.86365765,87.99405
0.8344601,83.92327
0.78317046,83.574165
0.6252848,83.265205
0.8086196,82.528076
0.6008702,82.79074
0.7393927,79.93159
0.6252442,77.735115
0.69777066,76.00209
0.55916035,77.15399
0.56571466,74.70402
0.66275066,73.70996
0.55147463,73.03097
0.57996964,69.983574
0.57637316,75.62827
0.5854735,72.08354
0.48994404,72.20437
0.3536234,66.48379
0.38976517,67.536
0.17802851,68.27058
0.31402397,67.87394
0.36037743,69.154884
0.25652823,71.81238
0.13331944,69.34049
0.25261304,70.22669
0.11803418,74.318245
0.1328604,74.44476
0.19270222,75.01925
0.16265585,76.10366
0.2891536,76.785194
0.40267184,78.96125
0.5864789,83.210304
0.62695885,83.989365
0.6532636,85.26039
0.839741,88.77719
1.0311918,92.151
1.0236716,91.684555
1.0750953,96.25031
1.1379063,95.418076
1.3024428,98.91987
1.3187271,101.505875
1.4168017,102.13842
1.3028706,103.90999
1.5555357,106.40666
1.3739606,109.0276
1.471235,111.52902
1.4121557,111.9741
1.3989215,111.96134
1.4936998,113.637085
1.6067823,114.447624
1.493265,114.15527
1.4455355,113.93307
1.3993114,113.649376
1.4687506,114.21404
1.4103471,112.75237
1.3660976,113.06508
1.3659234,110.81777
1.1993062,113.895294
1.1629215,109.52986
1.1685169,108.44791
1.173958,105.95578
1.0687937,108.90818
1.0926042,108.629425
1.0243183,103.932686
1.0906634,103.92106
0.9550423,101.842186
1.0036432,99.51652
1.0244868,101.08624
1.0251541,97.18798
0.9377236,97.201126
0.9828092,99.64639
0.90588665,95.76392
0.89602345,94.16943
0.85947067,94.057076
0.85655344,92.989105
0.87156874,90.025795
0.7540936,88.024
0.73461825,89.37181
0.64482135,86.798035
0.5461166,85.88387
0.5379076,83.04221
0.54988414,85.27946
0.48582688,82.82161
0.43498787,82.961494
0.43308842,81.783554
0.42142433,78.095474
0.45579806,78.496895
0.35992488,78.85338
0.3478578,76.28596
0.43083107,76.4087
0.36048523,71.54787
0.27700976,71.83776
0.3613892,70.31464
0.2680213,70.225235
0.19351296,69.41809
0.26065943,67.93019
0.23646933,70.097626
0.18098922,67.22387
0.09404239,70.196815
0.050957575,68.652855
-0.041405056,71.030365
0.072677456,70.80623
-0.09027669,71.33672
-0.0031486,70.383575
-0.13453093,72.80165
0.052689206,74.9228
0.16295084,76.904434
0.17729701,79.043564
0.20303316,80.84058
0.33514252,82.144485
0.36557057,82.559456
0.46845564,86.35417
0.6841599,89.95131
0.67215115,95.14187
0.7915139,91.25456
0.89743346,95.8818
1.0269243,99.61975
1.0482943,97.149
1.1385475,100.62946
1.1246928,102.34841
1.2712228,105.25246
1.2448295,104.104385
1.2952931,106.44229
1.4599246,107.405205
1.4102148,112.19878
1.3771793,110.46226
1.3448055,114.77192
1.2544161,116.123955
1.2874051,111.20523
1.3197886,113.003586
1.387149,113.08433
1.306964,114.44214
1.3420614,111.978874
1.3491594,111.66925
1.1622219,110.539185
1.2274594,109.97297
1.1082429,110.69067
1.1341081,108.220024
1.0646311,106.832596
1.1377829,105.100464
0.9564683,106.4709
1.0399554,105.22666
0.9001558,102.718
0.9088765,102.94189
0.85034186,103.43879
0.91374457,103.31703
0.92312944,97.63325
0.83438677,99.429245
0.9298553,99.64937
0.9417124,95.89909
0.95125765,93.47158
0.80763674,93.03006
0.7847378,91.28428
0.8205734,89.71509
0.66109186,90.52941
0.6634305,88.24278
0.5857981,88.82947
0.5405025,85.78028
0.516305,84.58832
0.47123173,82.00447
0.39816144,82.24859
0.33768386,81.57614
0.4531688,77.71023
0.3097234,79.743515
0.3916016,76.40656
0.36413625,73.807014
0.42704746,74.674904
0.38367334,70.313705
0.32847625,72.44981
0.35639372,73.271034
0.3759383,67.38746
0.39948583,70.44021
0.3281028,72.11421
0.23299208,71.73417
0.26675934,68.65644
0.11948338,70.92243
0.06237189,68.683464
-0.0024872187,68.579285
0.053283434,68.06531
0.05188065,70.06772
0.020587122,68.81627
-0.008830253,71.212166
-0.044440623,75.53389
0.06817583,75.030815
0.036774527,77.91882
0.106581524,76.30862
0.269493,80.57826
0.30766928,82.29814
0.45206368,85.01118
0.6887222,84.096306
0.6422061,85.8085
0.693096,89.518845
0.86248404,91.50817
0.90205634,95.319565
1.0594431,97.84371
1.1826768,97.83275
1.2562519,99.36547
1.2346964,102.78712
1.2942278,107.04276
1.5116569,108.00176
1.3896334,110.02964
1.3999071,107.23499
1.4453076,110.40023
1.4711293,110.00609
1.4365104,111.11604
1.594356,110.249756
1.4226071,113.23081
1.4352494,113.0582
1.5057896,111.76437
1.3286623,110.13907
1.3859714,114.71104
1.3968592,109.0738
1.3838876,111.35381
1.3372511,110.16552
1.2961074,112.36636
1.2658974,108.87172
1.1133459,109.45193
1.1379645,109.9768
1.1012317,107.024
1.1835147,104.73961
1.2475559,106.4566
1.1152749,103.42965
1.112027,102.65047
1.0606271,104.2007
1.1351635,97.31996
1.0951039,97.78443
1.0645868,98.90488
0.993357,94.261246
1.0727059,95.58452
1.0480897,94.07008
0.99066967,91.748116
1.0409766,90.3808
0.84675986,89.4443
0.7920177,87.06383
0.7772319,89.799774
0.8330204,85.39235
0.72870463,82.81179
0.7226476,79.463936
0.70481694,84.12851
0.5693313,80.39886
0.54776555,77.83069
0.63014585,77.99172
0.5634239,76.94966
0.56230307,75.61878
0.61451924,74.3341
0.60412353,75.09679
0.66795975,70.232735
0.58734107,71.709625
0.6053801,70.38939
0.57829005,69.98903
0.6160524,68.17472
0.4758378,67.41374
0.50689,69.52335
0.38169304,67.87165
0.43463555,68.62001
0.33123705,69.551445
0.30679187,71.48749
0.32272607,70.60078
0.204296,69.94902
0.17839396,71.65443
0.23634346,74.49058
0.35872617,73.87436
0.3288448,75.16915
0.46899465,75.2882
0.53816825,76.426
0.5658848,81.33249
0.8151122,81.55392
0.76159894,85.78168
0.858876,87.365036
1.0879256,90.803215
1.1614968,93.33098
1.2131754,92.79892
1.3801444,98.518715
1.4807199,95.62875
1.5708001,101.85615
1.5231843,101.89334
1.703289,105.70062
1.6132028,106.107574
1.7237169,106.068756
1.7036527,111.179405
1.7814159,113.609474
1.7811892,109.76416
1.7291067,112.72016
1.7183989,113.488266
1.8424197,114.01466
1.759114,116.40397
1.7566829,112.13152
1.8173572,111.1661
1.7775828,115.9419
1.6685302,114.82011
1.6928674,109.47597
1.6476899,112.49369
1.5964445,108.59514
1.6111082,110.78365
1.4943603,110.17642
1.5275083,110.24392
1.3708863,107.93573
1.4813013,109.39092
1.4383675,100.164536
1.3577533,104.62652
1.4268135,103.75089
1.4137918,102.328766
1.3922006,101.248924
1.4027753,98.84083
1.3281311,98.90168
1.261897,94.136
1.3995845,96.11837
1.3410729,93.07296
1.2346116,91.66604
1.229531,87.96765
1.2525035,88.39932
1.1744287,86.55428
1.1183635,86.9946
0.9689471,87.577835
0.98017937,85.38663
0.9093808,85.410934
0.8988095,82.72432
0.82917804,80.22563
0.9772752,80.048
0.93623996,74.54124
0.90372956,80.03174
0.8802096,78.17589
0.91833174,73.72835
0.8391742,75.38359
0.8633991,72.54639
0.81742615,75.50542
1.0031717,73.72752
0.8992341,70.8769
0.69550323,67.72871
0.914595,67.64982
0.754769,67.38097
0.75681216,71.74183
0.56690735,69.51919
0.63924515,70.374794
0.52193606,70.23435
0.53209955,71.2019
0.5537597,68.76113
0.50859004,69.49003
0.575016,72.3898
0.4409895,74.10118
0.5853767,75.30124
0.6935651,77.94196
0.74567395,81.63934
0.9298528,79.258255
0.9282053,81.50325
1.0716109,83.887535
1.200137,86.96227
1.2662356,88.898994
1.3695219,88.576256
1.4347986,95.33212
1.6018002,96.64661
1.6429317,100.88913
1.7103044,97.681885
1.97955,101.17549
1.8206561,104.769936
1.8660834,107.442154
1.9870437,109.50916
1.8634633,108.26705
1.8581657,110.421234
1.9433539,111.23382
1.9128633,113.01882
1.9355593,111.88537
1.9595559,116.346725
1.791098,114.34864
1.860717,113.641655
1.906886,114.597015
1.9116554,111.54396
1.9169391,113.23191
1.8385191,109.43277
1.7874544,110.16338
1.8348268,111.466194
1.6439757,109.80617
1.634927,109.30663
1.6361748,109.70951
1.6132771,106.54366
1.6390122,105.05036
1.5251099,103.94947
1.5307579,103.4849
1.5229892,99.83368
1.4543229,104.27348
1.5085108,100.1973
1.4406463,101.78618
1.3913368,98.08381
1.4319785,95.50233
1.4697864,96.15932
1.344431,89.233215
1.3555615,91.874985
1.4463124,93.521416
1.3545374,91.01502
1.2156447,88.478226
1.2482567,87.56125
1.1285578,86.39495
1.1129935,84.01427
0.9227208,82.41425
1.0586538,80.18573
0.97120994,81.05545
1.0130477,81.10972
1.038693,81.027405
0.8655922,76.9682
0.97105676,75.80952
0.89967316,74.29514
0.9164059,73.07616
0.91561294,71.34758
0.81532854,72.84281
0.99385136,69.84294
0.8866559,69.0208
0.8857136,71.79369
0.771715,67.43658
0.73825496,71.398964
0.73855144,68.64158
0.7228995,69.25496
0.62911093,68.19619
0.55739516,71.12896
0.50648195,69.43293
0.5299524,69.32974
0.54070926,73.35403
0.43306422,70.71625
0.6260234,74.62276
0.5050422,76.353806
0.6785945,78.68025
0.7263479,79.36375
0.77962667,77.59377
0.94564897,83.75109
0.91691816,88.96654
1.1618747,88.64172
1.22439,88.35871
1.303024,89.00486
1.478407,94.72779
1.5285108,97.579124
1.5140959,100.362816
1.6424328,102.07556
1.6247143,98.043846
1.7474146,102.11949
1.8357475,106.1633
1.8952578,109.04813
1.890369,108.902985
1.9050642,109.75319
1.800256,112.56367
2.0151477,110.869995
1.9124975,114.798904
1.8857371,114.644165
1.8965241,111.00027
1.7568411,112.76424
1.8069758,115.66068
1.7591797,113.492355
1.852303,110.35748
1.8115245,110.9124
1.6458179,109.77965
1.6794748,110.8355
1.5788865,109.90619
1.6068097,106.94863
1.4909915,109.20795
1.4794791,107.55448
1.527013,106.999504
1.4070961,107.4738
1.4774467,102.26381
1.4534466,100.91796
1.4871794,99.44709
1.3719773,100.35015
1.3972145,96.962685
1.2870803,97.55343
1.41168,95.35976
1.22562,92.67105
1.2073947,93.10741
1.2511688,93.733826
1.2011853,91.80067
1.161179,89.58396
1.0470874,91.226265
1.0893922,87.77774
1.0285009,89.346214
0.9100498,85.902275
0.92500895,86.995544
0.8560373,84.98498
0.7468045,78.754845
0.80752754,76.99129
0.786479,80.469635
0.78122383,77.57226
0.74189526,77.647
0.7272848,75.00279
0.7205151,77.18434
0.757842,73.442986
0.8117915,75.15848
0.67935526,71.786736
0.6908035,72.13515
0.57296765,69.12027
0.5975146,70.75017
0.6042535,68.99516
0.45781016,70.28093
0.3374363,70.57108
0.46081647,69.81283
0.38137648,68.743126
0.26164564,69.415
0.36628184,71.18989
0.3625544,72.96046
0.28407463,71.532326
0.30019855,75.831924
0.32422033,77.22853
0.39656436,78.06409
0.49036515,80.0469
0.5446959,81.047005
0.5643477,82.922585
0.7574749,85.86712
0.92054164,87.73785
0.95161736,90.106316
1.0196357,90.061104
1.108975,93.8451
1.2463609,94.64273
1.2953072,97.45088
1.4414258,98.94966
1.415243,104.126656
1.5000831,104.81836
1.4658322,105.8712
1.5583128,106.63095
1.59915,107.15378
1.6384575,111.49333
1.5821182,114.350975
1.5716822,114.64944
1.6370233,113.263115
1.5572261,111.50618
1.6921929,112.224915
1.6843618,114.33409
1.4899995,110.79186
1.5099442,114.16582
1.4409715,111.2612
1.4388279,111.178665
1.4554167,113.47689
1.360685,109.01613
1.3102746,111.31507
1.2796537,109.086754
1.1954869,109.83309
1.2220562,107.21724
1.1166371,105.373245
1.2306906,103.819176
1.0493782,104.97944
1.0626626,101.66935
1.1024508,102.473595
0.9796405,100.20389
1.0869126,97.14873
1.0847869,97.7254
1.0138228,94.9037
1.0082093,97.1788
0.9972844,90.60931
0.94318634,94.33451
0.8670038,92.03466
0.8199255,90.360725
0.8775063,86.22062
0.726805,88.17082
0.7262094,88.58473
0.7114383,85.81123
0.5577682,82.9587
0.60697806,81.46109
0.5547967,82.40817
0.5068548,79.738304
0.52813363,79.845276
0.48699304,76.70895
0.48310876,76.22891
0.465374,75.91711
0.4464054,74.12554
0.49036425,72.6945
0.38118383,69.07777
0.39125243,71.15496
0.3678063,73.517624
0.45445234,68.0077
0.33775702,70.42906
0.25966266,69.87618
0.15216897,69.14111
0.1408933,68.40331
0.038303737,67.29516
0.059536513,68.58287
0.039508533,70.37993
0.06691244,70.37782
0.07120802,71.17203
0.034645997,71.0861
0.048992835,74.376595
0.08763322,74.61868
0.14120397,78.12619
0.1734948,79.14248
0.2378677,79.11039
0.35379663,84.81474
0.48551223,83.348816
0.61082083,87.42555
0.67450696,86.971375
0.86017346,87.27008
0.8670185,91.97415
0.9995937,95.60001
0.98922616,96.14737
1.0939022,99.11595
1.1887633,102.0002
1.284516,104.93385
1.2868834,105.50042
1.306886,104.392975
1.3858894,109.917946
1.3787823,108.0043
1.300306,110.16465
1.3483524,111.80946
1.4267011,112.58208
1.2540405,114.65039
1.3428857,114.36087
1.311491,115.182106
1.3795862,110.29394
1.3103763,114.40839
1.3268889,113.42198
1.1856683,113.153305
1.2760189,113.679245
1.1125745,111.251045
1.0966364,110.47378
1.1199409,109.18072
1.1228808,106.113754
1.0430893,104.18902
1.0244603,105.73806
1.0604835,104.463844
0.86816263,102.41952
1.0071603,101.8539
0.9894861,106.49169
0.907127,101.78672
0.99789715,97.3563
0.8881604,98.33838
0.8658264,95.24283
0.82744056,95.235886
0.82587117,92.77263
0.79960924,90.9039
0.7463774,92.00955
0.70658034,93.78142
0.6751633,90.776634
0.70530784,88.13223
0.51771784,84.63523
0.5470966,87.66381
0.42464906,82.190056
0.45905086,80.72919
0.4851643,79.308815
0.43888557,80.44933
0.4095199,81.70846
0.31449893,79.03136
0.45956126,76.42629
0.4143745,78.13845
0.2588241,75.56276
0.3114362,73.4562
0.3538847,71.21243
0.3176745,72.06523
0.2482552,72.08446
0.2574882,69.49589
0.29025114,69.069885
0.26630569,67.8477
0.19036987,69.54282
0.22769783,70.66256
0.1728468,71.21235
0.16854978,71.53431
-0.019507146,70.56553
-0.022423659,69.04614
-0.041733947,71.17248
-0.01972218,71.600815
0.05112361,72.578926
0.0016138287,74.78045
0.06699126,78.736916
0.09483917,76.12622
0.24235973,79.43386
0.31300333,80.793144
0.3977751,84.366646
0.45572338,88.08758
0.6583891,87.14668
0.6973419,93.39027
0.89123666,95.36218
0.946279,94.48303
1.0060335,96.21707
1.154382,99.55011
1.2555425,102.0993
1.1429105,104.12648
1.2720304,101.98152
1.3209323,107.58997
1.3461123,110.26176
1.4084085,111.65194
1.4197618,110.78143
1.3812131,110.93324
1.3446636,109.25529
1.4226424,111.0622
1.3651235,112.94807
1.3456051,113.882454
1.372789,114.55237
1.298043,115.44351
1.3171341,112.19008
1.2807531,114.92062
1.2405578,109.2022
1.2331898,112.46288
1.1822468,109.28115
1.1605151,110.76284
1.0706507,109.77883
1.0912961,110.9744
1.0520583,104.67434
1.143161,104.405556
1.1036388,103.37339
1.0780904,101.61228
0.9762406,102.46586
0.9905516,103.356026
0.9574315,99.57169
1.0213968,103.29876
1.0695516,95.911575
0.8322901,96.83104
0.91410255,92.90293
0.9599724,93.53586
0.93287325,92.638
0.83947366,89.82353
0.8130932,89.36667
0.7495416,88.59033
0.7059141,85.03081
0.6475531,85.462395
0.6097515,83.35225
0.6419457,83.2763
0.49810588,80.12386
0.4738468,81.979256
0.40236142,81.46819
0.4591516,80.26413
0.45326975,82.058784
0.4790197,75.9254
0.51658386,77.81625
0.5782892,76.02249
0.48828575,74.78493
0.4079767,70.97737
0.47431344,71.12564
0.4429653,71.35925
0.3807669,68.21347
0.3491547,68.76615
0.3240334,69.78675
0.312009,70.777664
0.25388128,68.54839
0.14927001,67.77647
0.1548686,69.62831
0.16947554,70.66105
0.092168614,71.98246
0.19585653,73.57804
0.28373972,73.805305
0.20621833,74.166435
0.1740904,77.337234
0.35135624,76.620125
0.44717827,80.14024
0.566351,82.338326
0.7812281,86.79172
0.6637629,86.956696
0.848042,86.25688
0.92001504,89.97613
1.0656329,91.504654
1.1094041,96.63448
1.3038696,97.6882
1.3364316,101.71037
1.4378371,100.97929
1.4606657,101.456825
1.5510129,103.938515
1.5436208,106.835106
1.5958568,106.96476
1.5950019,112.67511
1.5890071,111.90172
1.6495745,111.19291
1.7087554,113.34726
1.7319446,113.36137
1.6137143,114.48799
1.7192178,110.2383
1.5814173,111.4307
1.5551573,114.43719
1.5300658,116.16192
1.6518838,116.53295
1.5103501,112.66179
1.544312,110.168144
1.429222,109.97797
1.3289913,108.47929
1.3757782,109.487854
1.3565426,108.80363
1.3190094,107.140656
1.3081441,105.54815
1.3061953,102.79406
1.2345892,104.550415
1.3261447,106.16934
1.2212551,99.91597
1.181679,103.05604
1.275574,97.7729
1.2968359,94.962776
1.1821804,93.047035
1.163459,93.6026
1.2376909,95.24507
1.1348041,92.80961
1.2192185,90.3806
1.0931212,87.757866
0.9277913,89.6462
1.0593628,88.178444
0.84474885,87.142235
0.83418137,86.73139
0.90298086,83.557816
0.83170104,84.76414
0.7646746,79.11455
0.6792492,81.56751
0.701187,73.65389
0.821087,75.31309
0.7846993,79.75641
0.8354793,70.99674
0.81479996,73.95483
0.7494148,73.41994
0.7944109,75.05754
0.6957238,70.82693
0.7439081,69.413605
0.65091664,67.89715
0.64082617,68.89853
0.702864,68.724014
0.5619555,69.92317
0.5511198,67.80182
0.50643,67.373085
0.57371235,69.075264
0.43552107,71.28198
0.41227508,69.03241
0.44124204,71.25786
0.45921263,72.695694
0.37766168,76.14345
0.5742526,77.67582
0.6132937,78.96794
0.6572993,79.00314
0.9165424,80.721794
0.80656695,85.59524
0.8938014,85.25213
1.0552834,88.82316
1.32294,88.96339
1.2217388,93.20512
1.4502409,98.56524
1.5618427,95.265175
1.5867938,99.59938
1.5964279,101.43212
1.6980497,101.72028
1.7879735,105.662964
1.9216486,108.226135
1.86927,106.527985
1.8689466,109.53168
1.9171764,110.115074
1.9451673,109.13069
1.9570477,111.665825
1.8945855,114.21341
1.9207528,114.05116
1.8573217,113.6633
1.8492926,114.7116
1.8136449,113.223045
1.8290571,112.59996
1.7305201,113.05967
1.7900159,109.83997
1.7962134,112.539276
1.7461381,108.9641
1.6485194,110.27186
1.6924126,106.14675
1.6398304,106.33893
1.6446977,108.607925
1.5990639,106.48466
1.5381855,103.86937
1.5262322,102.89242
1.477024,102.22626
1.5230789,101.41786
1.5179827,99.91981
1.5147855,100.96771
1.4349777,99.304726
1.482512,95.10637
1.4565976,93.398476
1.4677979,92.01431
1.4636911,93.139244
1.2984027,89.48744
1.1850775,85.01355
1.1472971,87.66078
1.2607015,89.32308
1.145505,85.65255
1.1293088,81.93286
0.9750609,83.69804
1.0347598,83.321396
0.9325022,78.336235
0.99339247,80.493355
0.95285124,78.24001
0.9429794,78.55265
0.9889366,75.83782
0.90957713,72.42142
0.9539227,73.26297
0.96592784,73.36525
0.91813433,72.77889
0.96168756,70.73096
0.8238447,69.750694
0.89550596,70.33634
0.9085335,67.74051
0.7622782,69.321106
0.77090394,68.14211
0.62435293,66.85226
0.6978261,69.34074
0.6008441,71.72043
0.52483696,70.63007
0.6007937,68.30138
0.42644554,73.10555
0.46388805,72.597275
0.6820507,74.79228
0.59089684,78.252106
0.6409816,78.14464
0.7827476,81.5988
0.9127529,83.64526
0.8774816,83.67727
1.0538108,85.45683
1.1977167,88.87797
1.2622557,88.54385
1.3731277,94.59609
1.4428465,95.27729
1.5400639,95.30432
1.5831933,99.36554
1.7860239,99.17101
1.7523749,103.02146
1.8372598,107.79014
1.9003209,106.32444
1.892981,106.17961
1.8872645,112.26648
1.9937979,108.7842
1.8350011,110.59584
1.9227551,113.04614
1.8825585,115.36946
1.8821863,112.726585
1.9425286,115.20058
1.8185995,114.22594
1.8417156,113.08486
1.8550348,111.93182
1.935655,112.29608
1.7402277,113.1947
1.7214522,113.873146
1.8623118,110.80726
1.5733491,109.4952
1.5646982,112.814896
1.4909523,107.06611
1.5796822,104.9264
1.5259391,105.3627
1.4781263,105.28196
1.5925611,106.50509
1.5430294,104.07591
1.4193603,100.90568
1.4658766,98.497826
1.5084226,97.47269
1.4437472,98.781006
1.3401684,92.32825
1.3492048,94.194466
1.3039416,91.518745
1.2615789,91.679665
1.3049037,90.32184
1.2420701,88.1204
1.2186352,90.79019
1.1399524,86.72426
1.0535699,83.53775
1.0294063,81.967766
0.88464695,86.05352
0.98969895,85.68725
0.9094647,81.44127
0.8228724,82.089516
0.8701065,78.396675
0.8731037,77.62993
0.800783,78.78082
0.81793714,76.22126
0.82701975,72.06325
0.8943871,73.784996
0.8863537,75.982544
0.7115651,74.26461
0.7381695,69.65173
0.7445343,69.83754
0.6582542,69.25505
0.67066795,67.60892
0.6007238,69.85231
0.61722696,67.59676
0.44170725,70.367744
0.4854587,69.44141
0.35367417,71.760925
0.3863565,70.92219
0.40973827,73.66047
0.5196966,71.87023
0.44065383,70.22706
0.39527112,78.92867
0.6297688,78.265434
0.64975625,80.57818
0.674297,82.81557
0.80908734,82.38363
0.83423674,87.82928
0.86834025,85.385376
1.0661213,86.47232
1.2098465,90.17867
1.2879276,95.75237
1.3965372,96.89175
1.4775661,101.35292
1.5043286,99.7671
1.512184,101.84903
1.6247915,102.85028
1.649597,108.05719
1.6743983,108.78981
1.7580445,109.83676
1.7902415,110.6048
1.7191114,111.64015
1.6664139,113.64592
1.6621494,115.19784
1.7474966,113.97278
1.6919405,111.00724
1.7558163,114.662285
1.6504577,113.23881
1.636318,116.52187
1.5856763,113.08712
1.6528596,112.27711
1.5428493,110.956985
1.4633511,113.13394
1.4821477,112.47182
1.4208733,109.225914
1.3922672,106.53745
1.2396313,108.8344
1.3114283,106.132774
1.227343,105.58462
1.2393799,105.207985
1.2833496,101.80699
1.1504972,98.6778
1.2935841,102.68501
1.2194782,97.525925
1.1927378,95.35846
1.223096,96.678474
1.1730123,96.32253
1.140174,95.5474
1.1377063,93.315704
1.0020678,91.57944
0.96894306,89.625984
0.8833429,90.297226
0.8325306,87.76202
0.77071184,88.82689
0.68816453,83.61306
0.67350453,80.14071
0.58068675,84.00374
0.5979879,81.87375
0.66955954,81.57403
0.5578643,75.91892
0.5037603,77.762505
0.5286751,74.17979
0.5458045,77.01681
0.54177666,73.64188
0.5841142,72.0986
0.49947593,72.43758
0.572533,72.20945
0.5327688,70.10565
0.5008728,71.50066
0.4053389,69.792496
0.4365436,69.48627
0.41425493,67.8457
0.43323514,66.8528
0.2631396,70.152626
0.20144711,69.102356
0.057199962,70.53942
0.17612226,69.37779
0.087792434,70.38657
0.070564255,75.313675
0.15459298,72.11654
0.14084238,75.96354
0.31110346,79.096985
0.33935407,79.96828
0.3371489,83.17909
0.431733,81.7663
0.63331753,85.49496
0.63944,84.16461
0.722483,89.114105
0.8479031,93.87882
1.0549526,92.51918
1.0796231,96.99529
1.1318145,96.84152
1.2202327,101.59109
1.4023378,103.8287
1.4023817,104.801506
1.3775827,101.50194
1.437804,105.682175
1.4637884,107.05827
1.4676033,112.66897
1.4709814,110.09249
1.5884676,112.71297
1.4709982,112.09622
1.412334,114.084915
1.4202073,115.83585
1.4745361,112.160416
1.4024665,113.254616
1.3500776,112.96123
1.2301378,112.300865
1.3596821,114.08809
1.321611,112.667366
1.2310287,108.50119
1.1539617,110.845604
1.1818657,110.20589
1.1579682,110.56656
1.0871199,105.405205
1.0653772,108.87501
1.0596035,105.553345
0.97191,100.97013
0.9955325,101.07653
0.928757,100.28312
0.8211654,99.52222
1.0379139,99.46214
0.9212503,99.65916
1.0411792,94.85692
0.8637805,94.24386
0.8823985,95.82923
0.8526305,92.01214
0.7486719,91.48482
0.6723842,90.57736
0.7092487,88.193436
0.6379537,90.388725
0.5691596,86.71584
0.5428025,86.73501
0.5019617,80.14057
0.42758402,80.39179
0.42551485,82.47054
0.36386716,80.20637
0.34939653,78.90238
0.37389913,78.56025
0.31626818,76.76007
0.33546007,74.92466
0.24302426,75.71773
0.26081818,72.65599
0.36455855,72.87411
0.40204403,72.53462
0.32518464,69.38206
0.26355484,71.846214
0.22011226,70.89878
0.16976583,73.213646
0.14447933,69.84148
0.14085916,66.927284
0.09008346,66.40119
0.060865868,70.5234
0.0553518,72.78073
-0.028687017,71.90172
-0.117484376,69.052055
-0.06332709,70.78638
0.006421797,75.15792
-0.069777794,73.556595
0.014213729,76.833145
0.062442675,79.13423
0.17850706,80.3495
0.16685785,80.13384
0.46715456,85.38165
0.46566564,86.35803
0.5916001,88.41707
0.8381159,91.08518
0.92902553,94.95975
0.95842457,97.415016
1.0653511,99.76259
1.1725937,104.20186
1.243387,99.716194
1.1941781,105.05494
1.2678106,105.469635
1.280484,106.21098
1.4062628,107.536476
1.431416,108.354004
1.3936044,111.50682
1.3505422,110.66811
1.4633865,112.45672
1.356501,113.346405
1.3528138,113.86648
1.4053648,113.229324
1.3996471,114.73691
1.3609703,113.49284
1.3133856,112.72414
1.1949483,114.89985
1.2759483,113.51192
1.1256257,113.56277
1.0999544,109.532326
1.0761482,108.47654
1.1414018,104.89531
1.0340921,109.08715
1.0032467,108.06214
1.0058142,102.86829
0.99387604,104.33121
0.93516165,104.77743
0.96639943,99.23858
0.83094656,102.63605
0.9434307,98.42673
0.97962797,98.60211
0.95721257,98.97146
0.9983251,94.95521
0.8727453,94.661156
0.8992278,93.665215
0.6729821,90.18665
0.78076863,90.776405
0.63877594,90.35164
0.6197175,90.56792
0.56925815,84.61819
0.55725116,82.805405
0.57697296,84.885735
0.43391988,83.39304
0.38734496,82.84402
0.40176377,78.04882
0.36310053,78.56722
0.3571098,77.75714
0.4350643,74.039604
0.5031649,74.22621
0.45407858,74.50096
0.3041838,71.22499
0.390322,70.71399
0.34074262,70.33229
0.36511114,70.95815
0.3967982,71.938736
0.25906372,71.18922
0.26050973,71.967224
0.2145021,69.31844
0.2380835,69.499504
0.12273549,71.401855
0.13590474,67.70528
0.15031719,67.76921
0.13201627,70.918724
0.07245034,73.40644
0.06581792,71.711655
0.094587825,72.636215
-0.0026774553,75.21192
0.22642954,79.17996
0.31546527,80.31549
0.29341397,82.4418
0.43433976,82.9588
0.58826226,81.749306
0.6210374,87.97872
0.7871241,90.30917
0.97744447,90.75997
0.8444232,89.75583
1.1208217,99.23776
1.1929077,98.84941
1.3286698,100.008644
1.3082132,100.76742
1.3939816,104.99739
1.4044226,105.47912
1.5242318,104.15918
1.5169406,108.537224
1.5460777,110.169586
1.5008334,107.48122
1.5476737,109.082535
1.4912335,114.03317
1.4589403,112.46175
1.489178,114.542725
1.5670321,113.707054
1.51583,114.847176
1.4068809,113.58197
1.4539368,110.22209
1.4438748,111.43613
1.3473531,111.386665
1.3773052,109.98204
1.2804705,113.68304
1.2936249,110.20726
1.2186452,106.87219
1.2434617,107.77718
1.3337646,106.9882
1.2066336,107.45378
1.1020515,102.01855
1.1560079,100.78719
1.2547783,101.02047
1.1962916,99.57337
1.1435678,97.867256
1.1392102,97.02969
1.11261,96.30846
1.103563,95.41988
1.1659701,92.17886
1.0065297,90.90943
0.93273675,87.44332
0.9259585,91.72588
0.8670447,89.2406
0.93541217,87.423584
0.8694082,87.49943
0.7806906,86.42522
0.7681169,87.45666
0.89794636,85.045685
0.7366379,83.911804
0.6506393,78.58937
0.6109378,78.43858
0.70016897,77.02208
0.63710487,75.82095
0.5823984,75.412224
0.5732542,76.79359
0.6563123,71.33683
0.60297257,73.307106
0.6305704,72.6979
0.5833447,71.109276
0.5861775,72.72643
0.5179239,69.863144
0.4968574,71.46415
0.5692278,69.99158
0.5082647,68.09666
0.5007603,71.59655
0.3470111,70.9155
0.3203391,71.55119
0.32002443,70.38169
0.388875,72.00298
0.2565444,74.46441
0.37500054,73.382164
0.32744414,76.99251
0.37667203,75.28622
0.54850686,77.767914
0.51198226,78.14251
0.7425555,78.78005
0.764143,87.50715
0.88092536,86.51668
1.0274427,90.039696
1.142252,90.27493
1.2630012,90.18515
1.3411268,91.75256
1.4752852,97.55329
1.5829598,100.80455
1.5306635,103.28863
1.6706055,105.98197
1.5967013,105.56955
1.7106999,105.4676
1.7244517,109.753845
1.8642819,111.517525
1.9077978,111.36773
1.7694577,110.11136
1.7764748,109.44215
1.850866,113.179344
1.9602823,111.09299
1.7326196,118.92818
1.7853247,114.12941
1.8153552,110.05579
1.7508018,114.77091
1.7856425,112.188225
1.7299346,111.7525
1.6362187,108.16015
1.6042694,109.58277
1.5362145,109.43172
1.5570954,110.25182
1.5635463,107.10017
1.6441674,105.82299
1.4864389,105.51475
1.4045198,103.75764
1.4598445,101.78016
1.5635217,102.16558
1.4538859,101.854225
1.5592362,96.70516
1.4512902,97.18347
1.4426806,97.4021
1.3704835,93.228485
1.3688188,93.35229
1.3105066,90.26113
1.3201435,90.907524
1.2282515,91.149574
1.1971301,86.31618
1.2395821,89.06838
1.2061765,87.27971
1.0714877,88.016235
1.0605978,85.83109
0.97591054,81.62394
0.8404743,80.75038
0.9870686,79.63875
0.8279056,82.03333
0.919051,76.735985
0.91044873,75.778114
0.9853595,74.424995
0.8074943,74.191246
0.91776586,73.832695
0.81225425,75.634476
0.8752395,72.43151
0.9566836,74.0294
0.8140232,70.16706
0.85983837,68.65359
0.76122063,71.22816
0.75142145,69.23515
0.70703566,68.33196
0.700701,68.50731
0.5804341,69.39921
0.54953825,71.06795
0.45589134,69.764404
0.49691737,69.700775
0.5760484,70.51628
0.58548653,73.23296
0.5685938,75.84692
0.69202673,78.33608
0.6537645,81.29905
0.8354484,77.53627
0.77626044,83.4738
0.8879601,86.49578
0.94206613,86.429
1.04903,88.73417
1.2806278,90.91949
1.3906806,92.902466
1.5185714,95.37066
1.650749,96.39601
1.667436,100.952896
1.7456355,101.68322
1.7684547,104.14021
1.7966332,103.00901
1.9114498,107.138016
2.000341,106.9454
1.9601992,107.329544
1.973356,111.82848
2.0310917,109.84366
1.8845361,109.991745
2.0264897,111.80329
1.909438,113.78248
1.9407326,113.419556
1.8960558,115.514046
1.8793089,113.05302
1.880368,114.06928
2.0275857,111.77086
1.7997915,113.72793
1.7095615,109.796104
1.7667943,111.810875
1.6776628,109.097885
1.6695254,111.02466
1.5314344,107.92423
1.6355716,109.7556
1.6775378,106.995865
1.5727267,107.41606
1.4767945,101.11159
1.4446502,99.76825
1.4869581,101.05508
1.4207705,98.314896
1.5874995,96.83688
1.4757969,98.11016
1.4895945,95.30682
1.4187539,95.19223
1.361878,93.83457
1.38203,91.670815
1.3416146,90.011566
1.2722383,90.8716
1.2076533,85.37524
1.1085607,87.56039
1.0783889,86.14681
1.128983,85.03406
1.1092255,81.612595
0.9913626,83.11474
0.95267516,77.222046
0.8325206,80.33588
0.940518,78.68858
0.95137316,79.21858
0.82637334,75.87324
0.7914848,76.3836
0.919483,72.08905
0.8629453,74.32115
0.8883996,72.86356
0.8495104,71.344734
0.86041695,71.15024
0.81786203,68.98758
0.78772146,71.558556
0.729195,68.750435
0.6852211,69.20485
0.58599013,67.9631
0.5460453,71.03792
0.5732705,69.12105
0.4545248,70.61586
0.53238535,72.71392
0.48512876,71.22164
0.46637803,74.152954
0.6902217,77.5244
0.56532145,77.35643
0.61977035,78.67583
0.7774489,79.73241
0.81120497,79.198326
0.90953773,83.399475
1.0008373,87.28631
1.0094405,85.97999
1.2026254,88.67871
1.3120825,92.139854
1.3998613,95.580345
1.470838,95.548225
1.573217,96.556625
1.6439344,100.231674
1.769893,102.39413
1.7354038,102.88517
1.784597,108.07854
1.8163034,110.432945
1.8015287,110.15616
1.7595358,108.282425
1.904615,110.26121
1.8875955,112.922775
1.832424,110.49776
1.9152191,116.24063
1.8178091,113.85313
1.8532729,114.69451
1.8141865,111.011345
1.8131379,114.18902
1.7206237,116.85667
1.6586142,110.855286
1.6203583,110.99653
1.5375751,107.74295
1.6134162,108.57707
1.609851,108.85747
1.4207547,108.702545
1.4808887,107.97508
1.4270359,107.75397
1.4936148,105.87267
1.2697233,105.3575
1.3485283,100.4366
1.3860453,101.73712
1.3103998,100.970985
1.2507504,98.821594
1.2582906,95.76042
1.2559729,99.42997
1.2106748,94.5331
1.1733551,93.81783
1.2267076,92.44514
1.1049243,86.351654
1.1257774,88.620125
0.97610664,90.78622
0.8938225,86.16232
0.9248179,87.82199
0.8268246,85.44553
0.8626985,84.5133
0.76879454,80.67677
0.8353293,81.30307
0.7210808,80.64687
0.70036215,76.569984
0.71838146,79.49521
0.7205526,76.407845
0.6778944,76.54546
0.6111485,73.216866
0.69541377,71.69757
0.6480585,72.51076
0.5983391,72.5456
0.6321784,70.75077
0.5339056,68.296234
0.5536062,72.07872
0.5055151,70.30635
0.40909225,69.5568
0.37058845,68.90518
0.31364402,70.65143
0.24009223,67.91403
0.27678943,71.746185
0.2034854,66.44384
0.21424656,71.92603
0.20892383,71.244484
0.21208137,76.00001
0.38790524,76.63897
0.40369132,80.09022
0.44316173,77.627205
0.53331554,80.83094
0.60499465,84.47989
0.6905733,85.94893
0.8804732,88.0154
0.9249792,90.08822
1.0395472,91.24012
1.1177884,91.49332
1.2212291,96.26167
1.3653213,98.801025
1.339636,99.558525
1.3308141,102.704994
1.3758785,104.57191
1.4979393,106.150856
1.4857607,108.606926
1.4608008,109.96372
1.5212233,111.46119
1.6174383,112.25607
1.6525289,111.99869
1.5351186,115.33578
1.5117881,110.92624
1.4599075,116.37003
1.6150328,115.19061
1.538453,116.448456
1.3631319,113.44912
1.4998081,110.57258
1.3507696,113.71372
1.332003,112.305046
1.2841458,110.0412
1.2684057,110.579475
1.2735401,110.37391
1.140961,109.17761
1.1417601,106.88326
1.0143869,104.90791
1.0671481,103.3128
1.1582544,104.53384
1.0570829,98.874825
0.9914682,99.9558
1.0882872,101.93011
1.0158738,100.18499
0.91965544,96.65025
0.9376223,97.98372
0.9564356,94.68455
0.92098314,93.79856
0.82374555,88.950584
0.8885316,90.994194
0.80595374,86.85641
0.77707595,90.91558
0.7514269,89.252716
0.6758179,86.33304
0.52458555,83.362206
0.49359322,81.66624
0.5261338,78.44184
0.5603867,77.41981
0.43894646,81.38654
0.38591808,74.85314
0.34948567,76.48065
0.40147486,73.11388
0.4348316,77.13703
0.39730266,74.791725
0.33024287,73.6129
0.4571619,73.55352
0.31828442,72.61263
0.42488495,71.45604
0.2789607,70.39909
0.32976967,70.92373
0.19853279,66.97409
0.18811643,65.87747
0.22706793,67.52346
0.13931921,69.55312
0.1290619,71.46622
0.09758094,74.69088
-0.01580491,70.555115
0.029680315,70.452896
0.078739226,70.1605
0.064153254,75.72529
0.06414355,76.05957
0.14754474,78.83728
0.2426811,80.6859
0.18743259,79.0537
0.4388956,86.39891
0.48623374,86.99926
0.4612434,88.83272
0.72354984,90.771866
0.75448364,93.33906
0.86478525,96.36621
0.9128397,94.75268
1.0995631,99.25566
1.2094237,103.12325
1.2078453,102.34724
1.2023408,105.64896
1.2521346,108.05922
1.2672815,108.93358
1.3928372,111.89378
1.4734929,109.487465
1.3820986,112.21424
1.4350686,111.560745
1.422249,112.67174
1.2800723,114.60128
1.2464758,114.97951
1.2618991,117.453384
1.3409528,110.74492
1.31576,112.886086
1.2847087,111.925
1.2447566,113.05244
1.1399328,109.31565
1.2305894,112.312996
1.1301249,113.00692
1.160932,110.10668
0.9655507,110.08857
0.98195547,106.19824
0.9702022,103.438805
0.91922075,100.736824
1.0298114,104.37255
0.9875589,102.05036
1.026049,103.53834
0.97979677,101.09172
0.80811065,97.85283
0.9172658,97.79045
0.79239005,97.19537
0.85575306,93.4504
0.91295666,95.68374
0.85180557,94.67847
0.73411435,91.7106
0.7297686,91.7395
0.7180527,90.02816
0.5790284,88.88771
0.5720511,86.43903
0.47842187,84.3577
0.4607435,81.539856
0.53232116,83.5328
0.3678622,81.5471
0.2702803,80.45765
0.37690732,78.38088
0.2938552,77.27653
0.26047912,76.04627
0.32629323,75.502625
0.390154,71.075
0.35832703,72.848236
0.30353513,72.976395
0.1984045,69.52955
0.3410514,70.424065
0.35080475,71.03629
0.21273272,68.77504
0.18948674,69.94364
0.12391555,68.86877
0.055905618,72.559906
0.00063640013,66.62348
0.023622232,65.61276
0.06273513,69.257614
0.012718394,71.57418
0.0069599696,68.38594
0.025011491,74.74744
0.052352183,75.759476
0.08004985,72.12628
0.14295055,79.646835
0.23850973,79.16786
0.26977572,79.067894
0.4597743,82.75357
0.4744466,84.17958
0.5261196,86.54154
0.6889156,88.88349
0.7900086,91.450386
0.916046,93.54933
1.0911908,96.00228
1.0939867,98.639435
1.1639063,100.98908
1.3212277,104.35881
1.34108,105.080414
1.3053886,108.73873
1.4222744,109.36354
1.4740481,106.595604
1.4519111,110.48865
1.3774067,109.4525
1.4819244,111.79708
1.4299061,115.3968
1.4724852,111.59769
1.5336812,112.39111
1.433045,112.53601
1.419917,114.33862
1.3524245,113.50143
1.4036462,115.37646
1.3101494,114.217285
1.2782506,111.56002
1.31372,110.64779
1.235921,110.36513
1.2242459,107.92635
1.1012845,106.55432
0.97513473,109.48243
1.0863214,104.11164
1.0971591,106.23904
1.1775305,103.252716
1.06775,103.10383
1.0292387,99.82795
1.0147458,99.89273
1.0297607,99.491646
0.8020764,98.43692
1.0314913,97.11274
1.0923287,93.672356
0.9799589,93.551865
0.9206145,93.74106
0.8635508,93.484474
1.0100464,90.05955
0.94866,87.54859
0.78254765,88.78103
0.7536108,86.07412
0.7427574,87.76163
0.5322599,85.35993
0.56607485,84.316826
0.5867954,78.716255
0.5273125,79.90653
0.5313181,80.09152
0.5814681,74.837234
0.48001996,79.368774
0.500959,78.813835
0.54787457,74.38796
0.5139134,73.06912
0.68707913,69.916855
0.4324232,71.254
0.44253376,71.89558
0.39349434,67.34372
0.4202583,69.1398
0.37606457,66.402275
0.2877847,71.08337
0.36974,67.658134
0.23595904,66.756195
0.2586824,73.06032
0.1735722,69.46486
0.25977886,73.681816
0.28599477,72.77288
0.20917375,72.20216
0.22128582,73.05931
0.27244982,78.87826
0.360196,75.251945
0.30735415,80.40404
0.57588345,79.59257
0.63073564,81.02868
0.754457,86.30746
0.87925404,86.39613
1.0428592,86.67995
0.938283,92.9606
1.2270724,94.11558
1.1523229,96.33899
1.3966776,98.75752
1.3565378,98.09229
1.4945552,103.575264
1.4575517,103.74008
1.5614648,102.4039
1.6633819,108.32389
1.7041761,111.24499
1.5578334,109.35808
1.6751715,112.51786
1.753185,111.06303
1.7088481,110.94611
1.6448165,114.32337
1.7305458,115.35196
1.6193848,113.51532
1.7047442,115.1665
1.6897858,111.02412
1.6850842,113.20854
1.6592841,115.42122
1.6195856,113.8247
1.475365,110.52884
1.5203376,108.50695
1.4104048,108.258224
1.5518161,107.29769
1.5009613,106.579796
1.4505758,104.44976
1.4817227,100.83328
1.3880919,103.39053
1.2842891,102.504395
1.3591743,98.46772
1.2934886,97.54918
1.3638864,97.73374
1.3383906,95.53928
1.223721,97.09429
1.2316432,95.4336
1.1791358,93.661
1.1563733,92.42484
1.1571292,91.74139
1.0613924,89.01375
1.1390648,86.66432
1.1145964,89.66291
1.0229678,86.30552
0.9194003,88.16598
1.0004445,83.79297
0.967952,81.957466
0.9396303,81.91723
0.769623,81.538284
0.7280023,81.771774
0.91908574,75.84676
0.86287415,77.386024
0.7863489,72.95276
0.8508949,74.29099
0.84683734,74.50045
0.74566597,71.32507
0.8128079,73.10579
0.79709494,73.81809
0.7558224,69.99773
0.76352525,69.425766
0.6802731,68.45462
0.5976467,67.22892
0.5801683,66.28409
0.5637499,71.98592
0.55003774,70.39106
0.49838993,69.90303
0.4789305,70.45601
0.5134425,71.4388
0.3516239,71.27095
0.5288429,75.076904
0.546632,74.91942
0.5591547,75.989914
0.5818133,77.734245
0.6681283,78.22089
0.7641655,82.5459
0.9841904,86.22342
1.0503542,87.42576
1.140121,89.242226
1.2392294,92.0747
1.3977119,93.08174
1.4980513,96.81536
1.6171739,97.94803
1.6010524,98.529
1.7977413,103.94616
1.7798727,105.05914
1.8064015,104.885185
1.7923973,105.126595
1.9298286,110.08557
1.8937216,109.5608
1.9739125,111.81539
1.9727608,111.20653
1.9376951,116.24515
1.9370533,113.50056
1.8397417,114.231255
1.8976067,113.1646
1.9967749,114.13899
1.8542048,112.58704
1.8712885,113.50331
1.732576,111.8401
1.8119525,110.76438
1.7407789,112.89822
1.6960225,110.66834
1.6702402,111.96492
1.5766319,109.86039
1.6192453,110.17344
1.5237069,105.696526
1.5763645,103.38695
1.5568974,104.587494
1.5786822,102.85658
1.5326592,102.351906
1.4747906,101.21067
1.5077531,98.67449
1.4174829,99.56364
1.5034484,95.46968
1.4149095,94.20321
1.416245,92.067604
1.4448079,91.23589
1.3118967,91.17483
1.3332738,93.56271
1.3895842,87.84113
1.2391433,87.65458
1.1079708,87.772354
1.1621367,86.98044
1.0344769,87.4086
1.111699,84.108475
1.0421742,82.59681
1.0223266,81.459526
0.9315691,79.972336
0.9385213,79.32436
0.9946336,75.60578
0.94913197,76.769775
0.91471004,77.17406
0.8428349,75.54336
0.8734667,72.634895
0.9191651,70.870346
0.8606542,72.583984
0.8840575,69.68655
0.8820298,70.8263
0.82580286,69.971245
0.8030859,68.15776
0.6864479,70.67941
0.72608596,71.52607
0.5841414,66.880714
0.5565016,68.34603
0.595239,68.252335
0.5667112,75.136116
0.5102645,71.33935
0.5682464,73.239716
0.6493551,74.0849
0.6850625,76.99659
0.6703695,75.5178
0.87959415,79.43679
0.98162675,81.20398
1.0885372,87.09898
1.1029009,82.09437
1.159288,89.6235
1.3778162,88.83099
1.518026,92.14215
1.484827,94.59936
1.4520185,97.6485
1.7114077,99.77715
1.7096277,101.73186
1.7849665,104.89665
1.8582559,105.78803
1.8321911,105.592865
1.8291144,107.426254
1.922427,109.296005
1.9793084,109.998375
1.8180568,110.49202
1.900646,113.01024
1.9089715,113.70761
1.9148457,113.66629
1.8811954,114.65504
1.926878,114.19293
1.8753732,117.46745
1.8044665,114.917915
1.7015576,112.95056
1.6905277,115.38465
1.6447338,111.23731
1.645846,111.6774
1.6300819,109.8773
1.5869758,108.27265
1.4700763,109.26923
1.5453576,105.35491
1.5104897,107.06386
1.5303307,102.54547
1.4622345,103.77613
1.4356366,101.76122
1.4719234,101.709175
1.4669963,98.72023
1.447935,97.84565
1.3814107,97.162254
1.3145128,95.814606
1.416159,94.089325
1.2663724,92.67566
1.1899469,91.32436
1.2393061,92.533745
1.0943407,89.25844
1.0770227,90.26407
1.1378063,89.09118
1.1136426,84.10474
1.0546867,84.784645
0.94555855,83.67916
0.7859976,78.201324
0.9418255,79.81317
0.8458332,78.8736
0.80042726,80.49781
0.864944,80.02713
0.76502883,77.027084
0.88203907,75.76757
0.7380041,75.08143
0.77738994,74.16648
0.7576762,71.10852
0.78548825,72.21632
0.7499392,69.92601
0.73337996,68.31272
0.62877023,69.79094
0.53538406,68.01568
0.5742503,66.57146
0.59587955,69.63011
0.48522744,67.48826
0.50386786,68.88897
0.3210316,69.78389
0.38357985,71.06676
0.3128995,72.960785
0.34471193,73.505455
0.33810243,73.19185
0.48375362,75.828705
0.48954514,76.80273
0.5213417,80.05515
0.6313903,80.19382
0.77600247,81.81683
0.79298747,83.99638
0.91630584,89.118355
1.03184,91.128075
1.105194,92.617325
1.2407056,95.8571
1.4216372,95.34701
1.4331212,97.47181
1.4730576,100.62632
1.5402954,104.12604
1.6064345,106.25423
1.6247559,106.59671
1.715604,106.566444
1.6686445,109.08425
1.6994674,112.59866
1.7932183,108.798546
1.7065767,112.315865
1.7921685,112.8382
1.6544018,112.074455
1.5704674,112.23577
1.6226001,110.554924
1.6525208,112.70766
1.5742259,111.68523
1.5609347,113.12224
1.4350792,113.31849
1.3861473,112.82128
1.407485,110.74246
1.363435,108.861916
1.3155342,108.547485
1.370498,106.740265
1.1704642,109.036644
1.2767401,102.48471
1.2518563,101.95289
1.202266,102.57542
1.0862962,101.7435
1.1730626,101.18523
1.0686704,95.33987
1.1543845,93.40684
1.0520636,94.88212
1.1691749,96.682106
0.9987058,94.85104
0.9633664,92.35167
0.911849,94.62114
0.9980982,90.26029
0.86497086,90.89448
0.83751583,91.88775
0.82105947,83.144135
0.6603945,87.7766
0.6018444,84.857
0.7129878,80.11848
0.5430895,81.688255
0.51154983,78.2788
0.62759876,81.72456
0.54731995,78.58763
0.45908308,73.68403
0.4590591,74.47521
0.51376957,76.324425
0.44449055,72.728455
0.4752913,75.638695
0.50861955,72.31723
0.42442733,69.95268
0.45928162,69.828384
0.38449112,70.90605
0.30446678,70.5147
0.30183586,67.75153
0.23327129,68.59481
0.18252113,69.558266
0.2551868,65.40925
0.13218714,66.84706
0.09490701,67.36876
0.074386194,72.01341
-0.040904235,70.48498
0.14015229,73.47367
0.19706115,73.80904
0.19209146,78.30333
0.17887591,76.03294
0.40856037,79.00645
0.33575365,79.93012
0.4362802,84.92491
0.58452135,84.75349
0.73257345,86.313614
0.7982116,89.05855
0.91294783,96.206924
0.99140537,94.28307
0.9789491,97.19803
1.176275,100.129555
1.1368344,98.82938
1.2777137,103.65511
1.3332037,105.69891
1.2990547,108.148834
1.4195157,107.53851
1.3269163,110.135056
1.3980483,109.405495
1.3178078,112.73422
1.3341209,110.34106
1.3360975,114.28333
1.4486564,112.875534
1.3220286,110.49773
1.4310035,112.78416
1.3683323,112.89836
1.3606226,115.62645
1.2056798,112.46722
1.1762831,114.31744
1.2022284,108.80589
1.1845438,108.20507
1.208798,110.17975
1.1699419,107.71852
1.0093256,107.45388
1.0181503,108.27714
0.9561064,103.598
0.9790933,104.40348
0.9725078,101.17862
0.9251797,99.52345
0.86229366,97.9915
1.0213329,97.60796
0.90487665,97.21638
0.8825854,96.720955
0.9149073,96.14564
0.8003861,92.9141
0.8844584,90.703476
0.8700597,90.90913
0.7288985,94.001015
0.7044975,89.944374
0.59622514,85.33212
0.5728603,86.90418
0.6055807,86.38307
0.5657277,87.997215
0.34977475,83.603165
0.40566495,85.766136
0.38959864,82.728035
0.38066337,79.5307
0.42572483,77.23529
0.35419527,79.193115
0.30557504,77.23303
0.35787156,75.75513
0.32383808,74.854355
0.3666823,75.33662
0.29160836,72.08474
0.3347004,71.892624
0.32329828,73.79389
0.22473954,69.751015
0.21472302,66.6192
0.078033805,69.1603
0.12321275,67.74249
0.065945126,65.673836
0.08392927,65.89432
0.006910841,68.97015
-0.06560596,70.01494
-0.045285195,70.985565
-0.006913094,72.08072
-0.078486525,71.892334
-0.098974474,74.321655
0.07959768,73.96348
0.070893854,78.853615
0.14899889,78.841446
0.24461357,78.7767
0.35547215,84.55654
0.4821994,86.880035
0.6325025,86.263695
0.751672,91.80604
0.7499466,90.52662
0.87634045,92.6614
0.99008733,94.43891
1.0430757,96.338646
1.0877308,100.59423
1.2461615,103.22964
1.2073156,108.846344
1.3247962,108.61848
1.2924167,107.91414
1.3563323,107.42181
1.4475718,110.334656
1.3580204,111.89931
1.4567958,113.565796
1.3593156,113.68617
1.4294671,112.369934
1.3922784,114.76517
1.4408128,114.50493
1.3526545,114.751854
1.2744302,113.55732
1.272294,113.99449
1.2355614,108.757164
1.1647022,112.7259
1.0609459,109.76423
1.0745085,110.54557
1.0811323,108.44325
1.0205394,109.10277
1.0239199,107.89948
1.0525285,103.89796
1.0853745,105.98548
1.0583451,101.60804
1.035456,101.57839
1.0071341,100.20581
0.94004416,99.73984
0.8983211,97.78653
0.93657917,98.418175
0.8966863,97.13579
0.8529417,94.7261
0.73455757,91.53692
0.8517206,92.090904
0.7994217,90.83735
0.78008914,91.72386
0.7006245,86.394844
0.664401,88.79781
0.6689369,84.18514
0.58720136,85.527504
0.59201455,83.53204
0.5393075,83.34072
0.54925257,80.484856
0.39274684,82.02886
0.3641329,78.51249
0.4333986,75.39193
0.46328303,75.26799
0.47734278,77.70631
0.44267023,71.43499
0.4150709,73.42372
0.39674076,72.5451
0.4120501,75.307945
0.39791384,67.97173
0.34801972,67.65747
0.3731475,64.544075
0.27199998,67.57898
0.29928547,66.6379
0.26158845,69.73389
0.20741995,70.236664
0.116638154,69.25596
-4.6679623e-05,73.32609
0.03439743,70.45544
0.060523894,74.35477
0.005903885,72.37617
0.16748747,73.51884
0.18070805,75.29634
0.21996981,76.14846
0.26343718,80.07321
0.43850505,81.58657
0.5884222,83.52044
0.59515524,81.567635
0.692679,87.17572
0.76190263,88.518234
0.9104439,90.86746
1.0299959,95.71511
1.093292,92.99245
1.2796994,96.626724
1.3224971,101.664314
1.397722,103.28182
1.5229298,102.44632
1.5631219,107.26274
1.5031956,108.49789
1.6441758,105.49786
1.5846369,110.03592
1.5869149,112.99074
1.5579207,110.15341
1.5676236,111.95605
1.5957781,112.760124
1.5113101,114.05577
1.5479649,113.10397
1.5715804,114.410385
1.5271423,111.72611
1.4797571,114.38347
1.5202011,113.06151
1.4421717,114.26639
1.4379987,111.19104
1.35231,112.30363
1.3530569,109.661385
1.2656887,108.74111
1.3202237,111.53481
1.3161393,106.56559
1.3226578,102.54885
1.2897203,103.3451
1.1800395,99.49782
1.0784074,100.71398
1.2945478,100.6681
1.1811553,97.387794
1.1620423,94.54872
1.1920472,98.00087
1.1505646,95.294075
1.0959432,96.18721
1.1757735,92.66706
0.9751212,89.2548
1.0183942,89.73891
1.0048223,90.075485
0.9494711,87.4187
0.9409615,83.21952
0.880004,86.884285
0.8765469,83.65446
0.77846396,80.24916
0.7038032,81.65689
0.7678623,79.66123
0.6430798,79.32018
0.62342644,76.3737
0.7526788,74.0237
0.7075547,74.669106
0.7215387,76.506516
0.7471145,71.827705
0.7014048,69.30906
0.71722955,70.71894
0.67043954,72.08508
0.60028225,70.03163
0.5812044,69.21855
0.6294068,72.20745
0.5405049,71.02457
0.5872583,64.893684
0.41689584,68.919014
0.45144632,71.46546
0.3966394,70.29208
0.3600514,72.80199
0.46909016,73.261
0.33590102,73.01792
0.4033593,78.22273
0.58929443,73.78727
0.47030133,77.21613
0.595734,80.08067
0.77028507,83.608795
0.7660838,82.52692
0.8231244,83.232666
0.95900196,87.104836
1.1561382,87.897194
1.1447276,91.005714
1.3050057,94.64404
1.4201307,94.99926
1.4932092,98.79426
1.58401,101.091125
1.7969949,104.166145
1.780085,105.10282
1.7498673,103.29934
1.7296561,105.99619
1.8904321,106.7286
1.8603244,111.803444
1.9533945,110.09572
1.8681824,112.749115
1.8805821,114.00362
1.8481003,114.92146
1.7713042,115.47348
1.9453562,114.60062
1.8498764,114.24903
1.8598956,114.56435
1.8521055,111.97495
1.8327163,113.038666
1.638339,109.57971
1.7399151,113.25036
1.7135097,109.88759
1.5856916,109.89728
1.6796542,108.64129
1.5746166,105.92915
1.4330053,107.558304
1.5009481,105.67793
1.4749956,104.66008
1.4718549,103.09841
1.4426756,101.83628
1.4498581,96.97329
1.4080895,99.60482
1.4301647,98.53276
1.3507485,94.94674
1.3311659,94.72404
1.3786756,92.79927
1.3185973,91.348366
1.3503883,89.191284
1.2953645,85.67044
1.2072583,89.11091
1.176133,89.09983
1.0865878,87.93302
1.07705,81.52721
1.0409108,83.41066
1.0112712,82.894905
0.9551352,80.24413
0.94909614,78.853294
0.9383601,76.89543
0.8570384,79.40502
0.8826954,79.72272
0.91136885,76.74183
0.98570395,74.15548
0.8446153,72.055504
0.8511186,74.57733
0.87195545,71.40266
0.83660614,70.45095
0.8450265,71.29126
0.8209319,69.11664
0.8642538,67.53528
0.73591584,71.61918
0.7223961,68.13403
0.6561439,69.54181
0.6413312,69.68828
0.55936795,68.08713
0.50373256,72.25903
0.42504078,68.970276
0.5372123,74.9404
0.68577474,74.40387
0.65698195,76.118195
0.67404956,77.23712
0.7900334,77.21932
0.81052375,79.276886
0.9497284,85.306816
0.99412954,87.6318
1.1315746,86.86567
1.2786863,87.944305
1.35897,90.91519
1.4406421,94.69566
1.6156049,96.856415
1.6152234,98.953255
1.7509413,102.34844
1.8460709,103.75729
1.786688,104.459656
1.7929507,105.842804
1.8821781,104.692894
1.9070767,109.83272
1.8341247,110.393875
1.9911882,111.642975
1.9411547,112.808556
1.9017487,113.73091
1.967942,114.08194
1.8938632,115.43103
1.9011748,114.05013
1.893715,113.13308
1.8944995,113.8633
1.9012284,112.17814
1.794252,113.142525
1.7641815,110.083496
1.8779407,110.958824
1.6585488,107.32232
1.651432,107.85496
1.7639335,108.659225
1.6100621,106.53146
1.5115473,107.52781
1.4901366,104.95699
1.5056728,103.18393
1.4385464,101.06023
1.4291235,100.7113
1.3908799,102.68177
1.4409693,99.4801
1.4759932,97.38844
1.5254226,97.066826
1.459752,95.15853
1.4034396,93.06097
1.3763448,92.74752
1.3614912,92.10269
1.3384088,90.7252
1.1571845,86.93071
1.2265724,85.74454
1.1188074,88.42269
1.1307259,88.89759
1.0567669,83.63614
0.923917,83.35717
0.8438087,85.76703
0.85724896,82.264755
0.9076046,83.156624
1.0083311,78.6202
0.88751376,75.48734
0.84716636,74.226036
0.9451644,76.13905
0.67125547,73.95788
0.81100714,73.1589
0.8983101,73.57227
0.8755457,68.00448
0.7563374,71.31802
0.8272543,68.2646
0.81526524,67.87955
0.62424403,69.59071
0.68443346,68.926735
0.64494884,67.54382
0.4597111,67.58141
0.5040687,70.90355
0.4808263,72.37848
0.45844272,68.57701
0.50724906,75.552086
0.54634327,75.406586
0.5264472,75.74658
0.6177698,77.10285
0.55758125,76.776726
0.71256167,82.50208
0.78263366,82.96327
0.9773303,85.60301
0.94303113,82.94131
1.0804495,89.76983
1.1183623,90.513824
1.2902166,91.973404
1.336028,94.541176
1.4485531,98.12475
1.6568298,99.153366
1.5879103,105.064964
1.7008302,106.23881
1.7165134,103.97341
1.7385808,108.22006
1.7954928,109.704445
1.763318,110.07529
1.7239501,110.88515
1.8051548,110.15258
1.8579597,113.65496
1.8547035,113.045494
1.7126461,114.15771
1.7753143,112.851364
1.688643,112.05993
1.6995184,113.92176
1.6039267,114.95225
1.5681258,110.54641
1.5929793,110.97747
1.4941801,111.98218
1.4228891,107.963356
1.384003,108.36802
1.5082605,110.363434
1.3523842,107.80771
1.4249864,107.51286
1.4992115,105.483345
1.3306142,103.99692
1.3094169,100.70728
1.3310661,102.10045
1.2741619,99.386185
1.3015116,103.328094
1.2926259,96.079796
1.2726177,96.787735
1.271018,95.22427
1.0912024,98.23242
1.0335882,92.78471
1.0371058,95.48748
1.042066,89.79559
0.9363866,87.01653
0.93756646,89.34513
0.8549605,87.51167
0.73496354,83.80796
0.8597653,85.324165
0.75674623,84.460144
0.8082728,82.2772
0.63086236,83.528534
0.62638414,79.37412
0.5849305,77.753654
0.65900797,76.5211
0.6188272,74.880394
0.5618838,74.5203
0.62934226,73.19067
0.59366447,73.48886
0.5149385,69.358
0.5973642,70.36634
0.45352995,67.47248
0.51620126,66.268265
0.43306488,67.66421
0.40890452,69.975266
0.34711343,67.88751
0.23716655,68.88396
0.2520862,66.68248
0.21675405,69.88319
0.19798413,69.32238
0.059783522,70.94979
0.13240606,69.96868
0.1756243,73.36438
0.116739154,76.478775
0.13976394,73.764404
0.42782804,79.043816
0.43388298,80.51435
0.4320753,83.282234
0.6142751,84.35961
0.7219968,88.422646
0.8653543,88.29389
0.96071714,90.4152
1.0606889,91.04429
1.0219377,96.217674
1.3257394,96.74935
1.3091912,97.06913
1.3867359,100.00405
1.3548473,103.59553
1.5255394,104.403015
1.4178219,103.55678
1.4952523,107.81386
1.4671171,110.2585
1.5359472,110.141716
1.5984981,111.177635
1.5188757,112.83957
1.5377138,113.02691
1.5488667,112.399216
1.4878664,113.41925
1.3941373,113.29559
1.4361858,112.88753
1.3648529,114.0581
1.3271664,112.96272
1.4120852,110.70629
1.2942978,112.559845
1.2357997,110.80608
1.1208026,111.377686
1.1963129,108.4892
1.0338587,107.6575
1.0991867,106.84162
1.1232513,109.886406
1.0254476,102.34441
1.0801736,101.874916
0.9893984,101.95619
0.9863877,101.37975
0.9772806,98.13743
1.0111656,95.71174
0.9107932,96.977264
0.9182313,97.23267
0.8700369,94.89734
0.8114764,91.945915
0.91935974,91.502426
0.7472047,91.95403
0.82564586,86.96673
0.70409423,86.75578
0.6019877,87.57655
0.66312987,86.02105
0.6203532,86.39368
0.49545488,83.884186
0.4446467,81.99834
0.4123432,80.314285
0.4404248,78.40777
0.35073912,78.1115
0.35275805,77.046936
0.3572494,74.42789
0.37135088,75.71281
0.35638475,71.00603
0.30724663,75.100464
0.32617146,71.016426
0.37439695,70.97431
0.22534275,71.43859
0.33194956,71.20607
0.22473529,67.64696
0.16238695,69.14717
0.19134048,69.89739
0.13510893,66.9808
-0.07955966,67.49203
0.0019852351,68.652985
0.00012925165,69.90125
-0.121092916,71.08595
-0.07230884,71.888306
-0.0010668931,72.990715
-0.11359274,73.42622
0.038756143,76.23569
0.17712988,78.442245
0.22714742,79.091866
0.21199161,84.69528
0.36394015,86.38042
0.5201995,87.986275
0.6614359,87.27936
0.7919658,92.37292
0.8181952,91.60142
0.80006194,96.798225
0.9928803,95.06423
1.1001782,101.28352
1.101639,101.09961
1.2297211,104.16655
1.273341,105.77654
1.3052065,106.72
1.2361127,108.871864
1.3162671,108.42279
1.2482907,113.11815
1.3466614,110.727516
1.3935043,111.00362
1.344805,111.482895
1.3988754,115.10398
1.3009645,111.578835
1.3441175,114.25761
1.341128,113.565704
1.3275988,113.26727
1.3275195,114.25012
1.2052039,112.636826
1.2115338,110.565285
1.1810721,112.06134
1.0798699,110.7486
1.0026491,109.13636
1.1029195,105.73143
1.0434972,108.51873
1.0283878,108.3262
0.97323716,102.52544
0.9089711,106.24491
1.0058758,101.270996
0.9394458,101.75314
0.96912694,99.29825
0.8515323,101.04093
0.82718134,98.468025
0.90515643,94.43436
0.8966323,94.19203
0.82775044,92.828926
0.7628305,92.6827
0.74021757,90.90398
0.73479855,89.447716
0.61754215,87.738045
0.613773,87.864914
0.5846889,88.85791
0.52306855,84.370155
0.40117064,79.11445
0.47117496,80.688416
0.5149968,80.32899
0.46181858,81.820496
0.3424583,78.33655
0.36733428,77.03138
0.407402,75.1102
0.44679236,75.97256
0.29142898,74.26989
0.30058894,70.545616
0.29533783,69.866295
0.28886178,71.0823
0.22268493,71.6944
0.31010327,69.953156
0.22618449,68.13453
0.19520098,68.30057
0.20470661,65.518105
0.14930469,69.95874
0.10299277,67.39247
0.018517088,70.32082
0.03460504,71.58367
0.07504294,70.7913
-0.029901477,72.279396
-0.001279847,74.39666
0.02170656,74.81337
0.14444947,71.80964
0.09312545,79.45302
0.26128426,80.35507
0.373506,82.70072
0.45098615,82.873375
0.60778975,81.16384
0.7263511,88.21131
0.7878995,91.23396
0.9759695,90.67718
0.9459655,95.59436
1.026035,95.20605
1.1573241,100.41041
1.1879156,101.11884
1.30039,105.74304
1.3599691,100.03912
1.3549705,104.04476
1.3788371,109.16173
1.4172754,109.29947
1.6076622,112.54078
1.5718375,111.06759
1.5428457,113.25769
1.4686925,109.82429
1.4686089,109.233925
1.4743571,113.55453
1.4972655,113.75348
1.4152972,115.67909
1.3331072,112.34387
1.3721395,111.362724
1.4077433,111.27683
1.277405,112.176674
1.2973617,109.97538
1.3242086,107.75568
1.2472216,108.549385
1.1090133,108.564186
1.2145938,107.494194
1.1965388,108.20538
1.2177095,104.57964
1.1389563,102.722855
1.1465847,102.58369
1.037433,100.50934
1.1782731,99.10989
1.0340605,98.73841
1.1000955,95.2299
1.0462613,94.96832
1.1021597,92.980545
0.9459234,95.26824
1.0516346,92.58746
0.97721094,90.92002
0.8476441,90.19804
0.9495518,87.23919
0.77470016,85.98449
0.737291,86.84583
0.77508515,84.98491
0.70899826,84.55755
0.65556175,83.1782
0.5630455,79.41504
0.6429499,80.481636
0.59283334,80.14535
0.63038176,76.28133
0.61638755,74.097336
0.5658873,76.70784
0.6844938,73.96296
0.643308,75.48515
0.66215414,73.325325
0.6656736,71.39332
0.5197665,71.315956
0.5167154,69.10957
0.5688002,70.96222
0.48144448,67.97748
0.45565018,68.38776
0.3758722,68.300804
0.33216146,68.19152
0.2541851,72.00933
0.27577627,66.63794
0.30559802,71.29303
0.29800403,74.02727
0.26725474,74.67365
0.3223312,72.40787
0.28804597,74.66359
0.46939757,78.51284
0.48995355,79.061356
0.55469257,80.76877
0.8066989,81.71987
0.816212,85.24932
1.0001596,89.51258
1.025874,89.18463
1.1309404,95.89531
1.2283541,92.91697
1.3294702,97.662865
1.4108877,98.176865
1.5680854,99.40002
1.6438329,103.76867
1.6464887,103.813126
1.6326904,108.322
1.7349226,109.65347
1.770574,109.64792
1.7692262,110.10931
1.7244874,110.24625
1.6872482,113.977455
1.7960004,110.43588
1.8216232,115.0316
1.7697672,113.35329
1.7180417,113.68924
1.7002348,112.15085
1.613379,110.03373
1.6953843,110.651146
1.5856217,112.4094
1.5573548,108.83716
1.5244879,108.179535
1.5408756,113.049545
1.5148114,109.43263
1.5436026,106.84789
1.4963822,103.54445
1.4798225,104.043396
1.4273146,105.24452
1.4096824,104.39023
1.4045422,103.473755
1.2837896,97.663055
1.4227631,99.980316
1.3615046,97.42346
1.3026034,97.93002
1.3141563,96.583145
1.3600334,94.421745
1.2610083,93.30896
1.2800683,93.39069
1.1417229,90.75094
1.2101144,89.01926
1.1277193,87.042694
1.1382104,88.008064
1.0067452,83.68157
1.0521913,85.37952
0.9226184,85.45215
1.004131,79.00212
0.9109482,82.61092
0.8687782,77.67932
0.7789739,76.068115
0.83294344,76.33135
0.7830391,74.2437
0.91813034,74.99973
0.77716124,75.1303
0.89035016,73.94952
0.773242,75.55002
0.8277478,71.39369
0.80869037,71.99286
0.76898515,68.32232
0.73186576,68.46022
0.7387932,67.42798
0.65842086,69.41835
0.6708173,69.323204
0.60651356,67.43443
0.49292168,65.7014
0.5970097,71.09404
0.47302628,69.362045
0.55482566,71.288795
0.4693957,76.014786
0.5554999,75.01567
0.55667853,74.019
0.7194926,75.20492
0.76650435,74.61007
0.83094895,80.10798
1.0251204,86.06539
0.9010172,86.00911
1.1791579,87.74755
1.2519788,89.10202
1.3435096,91.74254
1.3943659,93.86779
1.5683675,95.14934
1.724367,98.99478
1.652562,101.781136
1.6853895,102.41887
1.8408619,102.1039
1.9113284,105.1677
1.9301014,107.99959
1.8564457,108.21887
1.9417319,109.84088
1.9362334,111.29284
1.9573307,112.38619
1.8075124,114.42739
1.95116,115.318825
1.9458069,112.563896
1.9088213,111.889824
1.9582273,114.016624
1.9750978,113.01242
1.8758523,113.09479
1.8531274,112.97605
1.7758896,110.006805
1.7690827,108.73119
1.6578034,109.30846
1.7602499,109.429886
1.6155294,108.134995
1.5641719,108.886826
1.5115458,104.375595
1.5486258,105.22188
1.6326351,101.77071
1.5294445,101.33386
1.4864012,100.6441
1.4938197,103.034134
1.5074574,96.64434
1.4255731,97.54821
1.3977665,97.9452
1.482561,94.65982
1.3224264,95.83815
1.4810953,92.887505
1.403598,91.02685
1.2364546,90.45769
1.2063162,85.88465
1.2005627,86.88343
1.2037529,84.57107
1.1082188,86.39497
1.1836758,84.189255
1.0020183,84.16136
1.0053952,83.17693
0.9415282,81.44326
0.92098975,73.96634
0.8554779,75.38652
1.0255517,74.99828
0.8607646,72.67681
0.9216174,76.0816
0.9235977,73.83041
0.9625053,71.36603
0.89364666,69.67885
0.8521801,69.43491
0.90018046,70.28845
0.80024195,68.240906
0.6912341,66.278564
0.70264316,67.975914
0.70959526,71.63604
0.6484437,70.2365
0.6361742,71.930984
0.57671016,70.624115
0.5546321,70.358055
0.526078,72.19867
0.4756138,73.432434
0.50572914,75.5455
0.5519065,74.32791
0.6966114,78.03613
0.7113698,79.57988
0.73285395,79.667244
0.9126946,79.76007
1.0033937,85.671715
1.1245247,85.40108
1.2584841,91.57461
1.2750175,89.39475
1.373296,93.92017
1.54684,95.15044
1.678216,100.17855
1.6328281,100.55276
1.6836842,101.64669
1.6960618,102.45848
1.7598518,110.03895
1.8855274,106.78433
1.8610538,109.2035
1.8564073,109.816826
1.8919199,109.64823
1.8409483,113.10145
1.8669766,111.214386
1.7683663,113.04528
1.9096093,112.265015
1.8494089,111.535385
1.9511223,114.0385
1.7538155,110.08693
1.7391026,115.87011
1.5726954,109.134476
1.7101982,111.7104
1.737602,110.29182
1.5108478,111.22995
1.3981636,106.746376
1.6284311,112.58067
1.5351955,106.832634
1.5023153,105.54856
1.4584932,103.839355
1.3770876,102.27729
1.3837285,102.45791
1.3339956,100.37217
1.3763589,100.2178
1.3928157,97.905235
1.3080622,95.17882
1.279714,95.92315
1.2758948,95.923935
1.1451521,92.21362
1.1905982,92.86008
1.2254921,85.97437
1.180609,90.160194
1.0406504,89.172745
1.0311635,83.90324
1.071323,85.07498
0.92237246,85.80955
0.82398796,84.17436
0.8797061,83.87942
0.8005578,78.306694
0.7701976,78.283485
0.8339785,81.44404
0.74480575,78.87899
0.72670496,74.14029
0.7436126,75.06157
0.66292393,75.17443
0.6921149,72.55725
0.78466684,68.83284
0.7500248,71.52042
0.7257289,71.52546
0.6007809,68.68854
0.55631,67.18645
0.552983,69.22302
0.5611314,71.56378
0.59033006,69.03173
0.3843053,69.221306
0.31210545,65.970665
0.43519256,70.6874
0.31471977,68.89073
0.22005926,70.33177
0.23210342,72.47104
0.305788,71.72159
0.32393494,74.831436
0.41297862,76.24772
0.48782444,79.061714
0.6168458,83.20784
0.6526548,81.52921
0.8651968,82.054184
0.7736137,85.734406
0.9652732,87.17247
1.0120888,93.74439
1.1292344,96.23481
1.282837,96.50798
1.2544148,98.59126
1.3395147,98.46482
1.449468,102.39402
1.4562569,102.07902
1.5694696,109.16676
1.4751405,109.01409
1.6671358,110.46718
1.6571667,110.34793
1.585502,109.56541
1.7153981,111.50101
1.5332018,111.13248
1.6066365,114.4684
1.5874808,113.74223
1.580519,114.61982
1.5198754,114.2082
1.5260746,112.1049
1.3928348,116.58997
1.4659257,109.985855
1.405157,109.99269
1.4085646,108.18137
1.3486793,112.9694
1.2978585,110.41387
1.3697165,107.764305
1.2237574,107.841156
1.2548267,104.5916
1.2333933,106.308235
1.1940125,104.18023
1.1299644,98.64167
1.1445112,98.6185
1.1269553,101.074715
1.0636842,100.099396
1.0790659,96.68456
0.96527976,96.06715
1.0741897,95.80825
1.0550442,93.27239
0.91850907,92.06577
0.83273596,92.04718
0.85464066,91.899765
0.8403923,88.19118
0.75408614,86.6526
0.7759656,88.47662
0.6692489,84.39023
0.54880667,84.115585
0.52775407,85.24832
0.53531337,82.05881
0.49193466,79.54188
0.51918894,80.11781
0.45819545,74.6984
0.48270705,76.42794
0.363084,74.59134
0.42551422,75.408
0.39266446,73.14067
0.36516145,71.77028
0.57553697,72.2958
0.42482603,68.92677
0.4179565,68.819244
0.29461277,71.88574
0.32394022,68.74576
0.22522752,69.765335
0.24516927,69.77401
0.122716926,68.398766
0.12140656,68.78151
0.092682876,69.98391
0.08696081,68.92975
-0.044149775,72.32265
0.037150618,70.621025
0.0018743933,75.263855
0.028120557,74.83117
0.17838071,77.28687
0.08058804,79.1864
0.27572316,81.92662
0.46290618,82.138565
0.5028298,84.43529
0.5044865,85.77772
0.57213444,89.33719
0.7241502,89.848236
0.8962841,92.36606
0.9761891,94.4908
1.0984356,98.46685
1.050291,98.10061
1.2123581,100.18963
1.2413208,104.75537
1.3693091,103.955246
1.3074455,105.56247
1.418446,107.18815
1.2676479,112.24393
1.3620114,109.99308
1.349934,114.889656
1.4254395,113.681015
1.4443038,115.06825
1.457795,114.853874
1.3559172,112.45696
1.2427007,111.298996
1.3675311,114.601135
1.2404963,115.21606
1.1945862,112.10372
1.203313,110.57362
1.2353419,111.281364
1.1568532,109.1487
1.1456392,108.7327
1.1965164,106.12374
0.9907209,108.296936
1.081167,108.32749
1.0093485,105.41365
0.96316034,101.616234
1.0049016,104.40456
0.9085869,99.7715
0.85500455,101.55816
0.9492128,101.680466
0.90939206,98.2711
0.94190836,94.48976
0.7804454,94.583374
0.82551503,94.88989
0.8307289,95.68001
0.79801446,95.154594
0.77498484,89.934685
0.6842738,89.66665
0.64116716,90.05208
0.55520713,85.84393
0.51641387,86.878456
0.39654452,87.09606
0.4002198,82.57195
0.41734403,82.18705
0.38116318,80.291016
0.40160266,79.49085
0.3795811,75.5087
0.32759196,77.30661
0.22936781,75.351234
0.22874795,73.82985
0.2809251,70.494705
0.38111645,72.507195
0.28731683,68.997826
0.37122297,73.12975
0.32192922,69.26263
0.29967746,70.388275
0.29248342,72.76048
0.18413214,68.17579
0.11107953,69.5433
0.07792699,70.227196
-0.013829418,71.1911
-0.040774647,71.011696
0.038498122,71.41008
-0.05812037,69.552505
-0.09510463,72.64912
0.021532321,73.78091
0.014459855,72.532394
0.074247666,77.549545
0.17125212,77.02752
0.21767475,82.03359
0.246726,83.33403
0.495064,84.38691
0.56921107,87.23999
0.67512447,86.32324
0.7087698,92.30781
0.9148775,90.87718
0.92938375,95.30934
1.0535953,100.14006
1.0776367,99.931145
1.2870011,102.95741
1.1432679,104.57282
1.2521636,103.78111
1.3175294,107.64307
1.2731525,109.94854
1.4590911,110.71374
1.3895332,111.99139
1.4945118,111.59821
1.4001999,110.74439
1.3257535,113.912544
1.355118,112.57053
1.4095671,113.74059
1.3496422,114.56058
1.326545,111.46917
1.3921717,114.73637
1.3210449,114.65517
1.2165613,113.87177
1.1823025,111.5053
1.2154666,109.78345
1.1563925,109.63117
1.2186538,107.45656
1.1880015,104.63159
1.0610069,106.512215
1.044126,105.73521
1.0124313,103.57471
1.0126128,105.00185
1.026128,100.107956
1.0162104,100.73767
0.936065,98.763245
0.9121707,100.46533
1.0217265,97.63992
0.9407338,96.26969
0.9899233,95.07856
0.7990336,91.849266
0.85456675,90.08284
0.8837223,88.86705
0.8203957,87.68145
0.7558227,89.20608
0.7599713,86.236
0.69673055,86.09598
0.61779594,84.120155
0.5325797,83.05655
0.4694997,80.94955
0.5653108,81.082924
0.56672585,79.40409
0.5880052,79.28511
0.50032157,75.39863
0.549962,75.578186
0.5358286,75.87059
0.52998084,71.5327
0.5474911,71.938065
0.45566687,73.35187
0.4535224,70.63312
0.40621114,72.237175
0.38584724,72.262314
0.36864972,68.403534
0.29997784,69.90014
0.24741499,69.56128
0.14237174,71.50692
0.13835682,71.00454
0.18452118,67.346924
0.26106277,71.18223
0.11596229,71.398994
0.12766975,69.137024
0.14436284,73.46323
0.20122378,76.29724
0.3710388,75.839035
0.31228992,75.993065
0.3596585,80.38329
0.42995247,80.846375
0.61811644,83.21336
0.72549546,86.31505
0.7746944,87.51109
1.0466064,91.369286
1.0188752,94.016525
1.1593895,96.105896
1.2400901,100.21435
1.3473865,99.338844
1.5394689,100.01035
1.3627813,107.62234
1.5614558,106.90137
1.4754785,106.07958
1.590828,110.75926
1.5501127,107.29252
1.6416341,108.987045
1.6483518,112.66604
1.6786016,111.38442
1.7030188,112.27298
1.7374945,113.048035
1.5767758,113.9679
1.7844242,114.39369
1.5928334,115.0047
1.4595805,114.32788
1.494427,113.64517
1.5144902,111.69443
1.5551862,109.98189
1.6057644,109.55245
1.4608123,107.72654
1.3761073,108.83117
1.3609872,108.99462
1.3585176,107.16202
1.211675,105.44974
1.2893362,102.84527
1.2595752,102.99559
1.2196343,101.83819
1.295643,97.54483
1.2542754,97.446724
1.2421045,98.758514
1.1921571,97.73581
1.1606047,95.26238
1.1912861,97.697075
1.1928118,94.74999
1.1991007,90.08861
1.1098951,89.44291
1.0176407,88.91611
0.931897,88.36379
0.9856846,85.88406
0.94037825,84.45968
0.80415833,84.69824
0.77738833,82.739914
0.77083087,79.51493
0.8313473,83.09285
0.881115,80.63912
0.8534561,77.69597
0.7419855,77.09432
0.7478925,76.629105
0.7113506,74.10241
0.7479702,73.37946
0.8051872,72.663994
0.7345955,71.58921
0.74567443,70.52778
0.72886336,71.91183
0.6881731,72.2853
0.676875,68.48435
0.58844197,68.30005
0.58944076,70.00213
0.5040848,68.84625
0.548345,70.48576
0.49575374,68.320755
0.47482592,70.27889
0.4042556,71.77586
0.4199909,71.52212
0.5403759,74.57731
0.48395756,75.68712
0.5493223,73.32943
0.6664846,77.827065
0.70819116,78.467804
0.6742394,84.12174
0.9451194,83.46732
0.9834561,87.341995
1.1774338,88.00131
1.1551306,89.348114
1.2609329,92.9136
1.3627049,94.970085
1.4708712,94.51164
1.5759952,101.1875
1.6434617,102.68821
1.7421223,102.58057
1.8061441,104.61731
1.8789802,107.16077
1.8734837,108.433685
1.9171025,107.1549
1.8348477,110.240425
1.8699714,105.165886
1.9313685,111.01365
1.8658991,113.6552
1.9406912,112.31821
1.9057742,114.76036
1.8644347,115.68699
1.8286752,115.773605
1.9302118,115.21043
1.8207246,111.146034
1.8039966,110.682945
1.6503917,110.40503
1.6651161,108.516884
1.640232,110.83638
1.6734858,108.449486
1.5866381,108.848236
1.5242686,108.676796
1.6264695,104.83661
1.5295616,107.15439
1.4826044,102.54987
1.479103,104.126076
1.4347621,100.24268
1.5976126,98.18049
1.4143854,97.503426
1.4405494,99.186905
1.4595684,97.92287
1.4545923,96.76989
1.3917166,92.06815
1.3130562,95.048874
1.2741519,91.71193
1.3148874,89.80263
1.2421172,88.259514
1.1510836,86.82091
1.1869769,87.47733
1.1935,83.096886
1.0942768,86.31318
0.9510304,81.067764
0.9497124,83.61055
0.92779833,81.15255
0.9126991,78.57453
0.8546257,75.84845
0.9043608,75.83506
0.88648134,76.95695
0.8770944,76.13928
0.8482499,72.56021
0.9261412,74.10263
0.82621187,71.906746
0.98288065,70.84058
0.8252669,70.981125
0.8473882,69.05289
0.69923043,68.39119
0.7148447,69.41243
0.7208341,70.39632
0.6559725,72.50702
0.5243612,70.66052
0.58399886,68.24085
0.52657557,71.81863
0.6332382,72.37022
0.5691093,70.76693
0.6157669,76.85102
0.5409494,73.14402
0.76082784,79.059425
0.86395335,77.47503
0.78730136,82.371315
0.94839007,85.307045
0.9792006,83.573044
1.1884474,86.21949
1.2462282,92.10895
1.3024998,93.09701
1.4389124,96.02146
1.5855694,95.1258
1.4812766,96.2822
1.8018148,102.47852
1.7975059,103.32667
1.7864879,105.597176
1.8871411,102.27808
1.8423026,105.76761
1.8887779,108.038124
1.8776296,110.90901
1.9586859,108.746864
1.9769716,113.02859
1.9057579,116.48619
1.8901286,112.654854
2.0246837,113.08471
1.8660517,113.861855
1.826511,109.93838
1.8577569,113.98719
1.7885778,113.38901
1.786401,112.13437
1.7515832,112.5797
1.6594197,111.34402
1.6559631,112.36863
1.6111039,110.38486
1.5995873,105.96728
1.6002651,110.03465
1.6074271,107.34012
1.5771033,104.82005
1.6049556,102.33411
1.496558,99.45639
1.4741486,99.6698
1.413644,98.41542
1.4361607,98.56118
1.412309,98.24827
1.4454813,94.35127
1.3634659,93.32387
1.4748198,90.213356
1.3302486,94.005745
1.3110976,94.41101
1.2890884,89.687096
1.1375628,88.6214
1.0540054,86.67619
1.0932211,82.33296
0.8901168,84.9347
0.95852304,83.942764
1.0100348,83.70264
0.86447227,82.92031
0.8105485,78.55044
0.89284384,77.35478
0.8326573,77.64647
0.76497316,78.33999
0.78898025,73.09092
0.71715826,77.06567
0.91249126,73.77412
0.7268082,72.27078
0.78900224,70.70032
0.7768877,72.19554
0.7216787,68.07694
0.730537,69.12206
0.65318584,66.95228
0.5861178,66.34693
0.5794231,71.060905
0.6702162,69.33165
0.50954235,67.2258
0.33857724,68.45484
0.33495843,71.76818
0.36767316,70.64754
0.36054763,75.23679
0.536745,72.567444
0.46354493,74.743385
0.612049,79.16649
0.7080169,79.97445
0.7664851,79.57176
0.8033524,84.93029
0.82101685,86.26214
0.9494255,85.479965
1.0031964,88.66436
1.2177104,91.5517
1.2615248,96.47934
1.4406081,98.3311
1.5715665,99.09731
1.4902418,102.73141
1.5373466,102.61466
1.6254299,101.679
1.7394303,106.232155
1.7517049,107.72727
1.7622803,108.74003
1.7157739,108.8197
1.6861556,111.32052
1.7749875,112.203125
1.6476523,112.35218
1.7939256,112.69724
1.7609285,116.30528
1.7311847,112.621056
1.6644212,116.60484
1.6900108,111.2552
1.6443148,112.30479
1.5027306,111.77171
1.556534,109.80261
1.429116,111.29747
1.4505037,108.49963
1.4423562,110.99709
1.294135,110.368965
1.2580855,103.93448
1.3220546,104.22189
1.3076788,104.83359
1.2763132,104.69827
1.1435726,101.84608
1.1596044,100.49712
1.08848,101.67691
1.2031506,100.24254
1.156752,95.077805
1.150556,94.40655
1.166256,97.63069
1.0866839,95.017624
1.0445725,94.09183
1.0355058,90.23036
1.0406593,91.55149
0.9793491,91.235466
0.87788385,89.663185
0.801304,87.99279
0.88814956,82.458824
0.67568886,86.27466
0.6021319,79.834755
0.58520687,80.72409
0.67514044,80.075485
0.54890406,78.987686
0.55176175,76.43127
0.6151858,75.328094
0.53882194,76.37918
0.61404055,76.9178
0.5478181,73.55958
0.5037399,72.39609
0.5604891,72.42283
0.44378772,71.43124
0.5329672,70.70911
0.37636384,69.46143
0.3603101,70.95859
0.32643038,67.66034
0.30912957,67.764175
0.2786838,66.170105
0.14296061,71.561264
0.15412876,72.04246
0.08122126,69.66686
0.10524786,71.64007
-0.022142883,71.740105
0.09565362,74.333984
0.21997876,76.72599
0.22854054,78.08105
0.28938943,78.81662
0.49405712,82.38048
0.4739907,84.38439
0.6313537,82.9421
0.71281636,90.015564
0.7553846,85.85447
0.871304,90.44862
0.9842116,95.33974
1.1171352,95.75506
1.1586016,98.3126
1.181993,101.21493
1.2688043,103.66738
1.386648,103.497765
1.248004,106.54268
1.4015135,106.44969
1.394459,111.75788
1.4582759,108.95374
1.4647588,113.31661
1.4248328,110.58029
1.4336556,112.89278
1.4094478,113.74037
1.3816383,113.35968
1.2595122,113.12241
1.4024909,112.51988
1.4133503,117.007935
1.3467535,112.080124
1.3023913,110.6414
1.18013,110.4211
1.1651638,111.87277
1.1592629,111.382996
1.0565906,109.56613
1.0449612,107.11077
1.0369974,106.82474
1.0545694,104.77189
1.0416744,106.37526
0.8699911,102.32287
0.92172164,102.79757
0.96804374,103.89934
1.0413232,99.36018
0.9556725,97.09658
0.95267165,98.68837
0.8919731,95.97883
0.9889494,94.3568
0.8911832,93.76997
0.85552895,92.65528
0.7238133,91.16102
0.6938486,92.11737
0.63171697,89.76812
0.66130483,87.66786
0.47743878,85.30892
0.5449408,81.45589
0.47516337,84.75229
0.36577615,82.80789
0.4702576,83.21504
0.37187234,79.88912
0.25748107,80.130226
0.292843,78.616745
0.3071865,78.21003
0.39769742,75.05125
0.3248623,73.76847
0.26202846,69.12483
0.2724797,73.478264
0.28911108,71.84912
0.27908376,70.23548
0.28902736,68.96805
0.24249372,71.19828
0.18333744,68.552246
0.17129332,66.766685
0.057909165,71.11542
0.1371141,69.68454
0.022727545,68.22571
-0.0013525534,69.48065
-0.023635343,71.38324
-0.02097265,74.508766
0.0014296081,73.88841
-0.0065090414,76.33377
0.049168926,72.64574
0.044864308,78.05316
0.18735313,80.66175
0.31856734,82.17831
0.25957367,83.187035
0.39206788,85.29819
0.54642344,85.137276
0.6758856,89.21666
0.7449101,90.99295
0.922023,94.12034
0.98243225,95.05538
1.0756763,99.09082
1.1378814,101.25453
1.2370377,101.90012
1.1324766,101.86318
1.2723451,104.42267
1.3875583,109.98087
1.4294508,107.7892
1.3849763,109.45297
1.3240538,113.510254
1.4268078,112.15225
1.4723935,112.80387
1.2351015,116.47442
1.2675062,112.94053
1.2174019,117.94318
1.2974005,110.64209
1.3854653,113.33094
1.2343563,111.0802
1.256575,111.16955
1.148119,113.87417
1.1731343,110.40156
1.1528065,108.68009
1.0763612,108.12644
1.0408,110.147255
1.1361796,107.38529
1.0277855,105.68151
1.013121,103.71423
0.96861017,105.0274
0.97064644,102.09106
1.055218,102.542244
0.8961775,103.02812
0.9037486,99.251305
0.8468378,96.71501
0.98280394,96.23583
0.83364296,94.277885
0.89773905,94.29157
0.8121185,91.97585
0.80467975,93.46496
0.71558577,93.92051
0.629046,87.07392
0.63258153,89.89404
0.56524664,87.18749
0.5935819,86.43571
0.5244531,83.9405
0.4758617,84.16524
0.42938408,80.64925
0.4866924,78.955025
0.39662954,75.344124
0.37789524,75.72604
0.383907,74.57167
0.3738636,73.635544
0.43783754,73.511665
0.33967748,74.08973
0.44291747,71.34694
0.30752212,70.21901
0.2884242,70.94691
0.30886647,74.9998
0.27301884,71.45428
0.2912093,69.3102
0.19418205,72.81265
0.19682553,68.79085
0.19133416,66.80211
0.17287354,69.95602
0.043394666,71.160034
0.040104583,69.442406
0.006493555,68.860374
0.035608638,73.20649
0.122078024,73.1604
0.09850677,76.44946
0.13757572,74.062195
0.22481994,77.209076
0.5000919,80.103775
0.4133054,82.16624
0.5810077,87.95162
0.69677514,84.77521
0.73175657,85.72908
0.8314155,91.87832
0.950651,92.184006
1.0747954,93.607666
1.1573848,97.30043
1.2587023,100.91595
1.2766447,102.39546
1.3608015,103.81535
1.4498103,103.96687
1.4955078,107.48087
1.4825982,111.53503
1.494046,108.85747
1.4778049,108.546974
1.5912403,114.672066
1.5721416,112.902855
1.5347309,114.05971
1.5293986,115.18828
1.6082772,111.751526
1.5006558,114.40649
1.4736773,112.99477
1.4354157,110.03917
1.4344586,113.80315
1.5098261,114.35315
1.3760312,113.69392
1.3241162,110.08812
1.3498523,108.345535
1.2985803,110.728325
1.2592682,107.94247
1.2476783,105.755005
1.2423065,102.94597
1.1842754,104.49635
1.1930965,102.23045
1.1785598,102.0359
1.1445726,99.73452
1.1594822,101.10614
1.2147635,98.45814
1.0986247,99.282234
1.1603943,95.136314
1.1574273,91.3333
1.087019,94.675545
1.1685356,91.005486
0.94617,89.5851
0.96446604,89.45453
0.88954633,87.294945
0.9219361,85.739
0.9750796,84.0111
0.80499065,82.74289
0.62408054,84.28918
0.72900456,76.82906
0.7139924,78.24798
0.5917559,81.588615
0.68579435,77.669106
0.6589197,76.009346
0.5735121,77.0217
0.67618597,73.22109
0.62520117,71.14489
0.57649684,71.05696
0.6625043,71.90579
0.57071406,72.38223
0.6583732,71.61409
0.604418,68.43873
0.50448775,70.219604
0.43471688,68.03731
0.48215798,68.082245
0.49487048,69.343124
0.24899793,68.66725
0.31341404,70.80278
0.2566322,71.06356
0.29661348,71.231636
0.38721147,70.50383
0.37628406,75.03935
0.29571325,74.96083
0.40597087,73.58087
0.46800566,77.06675
0.61949533,81.44116
0.70404804,85.711815
0.8477593,84.88031
0.98407286,88.57499
1.0774618,85.30537
1.0184917,90.9343
1.3373525,90.32174
1.3190328,95.71762
1.4636215,98.17668
1.4907986,100.61934
1.6678197,103.47566
1.5564498,103.39945
1.7015703,105.059944
1.8052846,105.322525
1.761488,107.41974
1.8177872,111.27953
1.6886986,112.53455
1.7382748,112.34253
1.7563094,110.18512
1.8873063,113.70187
1.956734,112.946526
1.7875373,114.260086
1.7797887,115.05903
1.7822205,113.2649
1.7640175,116.40776
1.6762875,111.041985
1.7705953,113.323814
1.6496071,112.14893
1.6390171,110.93808
1.5969896,108.04483
1.5841155,108.65362
1.5527326,106.39824
1.5288432,107.150955
1.4472978,107.51386
1.3828251,105.660706
1.4833763,102.75201
1.3752533,103.0364
1.4532658,99.83351
1.4290994,99.249954
1.4007089,97.4718
1.4402443,97.93407
1.3627821,95.48574
1.3493493,96.63574
1.3370844,92.63331
1.3448563,93.24035
1.2152967,89.95895
1.1258882,91.16989
1.1338409,88.38445
1.1442147,88.82463
0.96124303,85.39853
1.0347211,83.91447
0.97099346,84.702415
0.9039677,81.54644
0.9315608,79.52593
0.9024499,81.32253
0.8494943,76.40171
0.7458347,75.42322
1.0141834,76.184425
0.78745,76.21175
0.9048965,76.330124
0.8611314,75.15613
0.77443874,70.90815
0.8200981,73.44527
0.87814337,72.05793
0.8168566,68.55669
0.7876998,70.26585
0.6991914,68.56711
0.63767046,68.872826
0.6243986,70.3562
0.6428235,69.805374
0.587343,69.46452
0.46909642,68.36062
0.539997,70.158134
0.4895098,72.37843
0.5645019,70.570564
0.5773386,74.76187
0.57270724,78.46094
0.65055597,77.52558
0.7164301,79.78259
0.89603996,80.98485
0.91930777,84.30668
1.0511335,87.61658
1.1929873,87.9858
1.3042268,92.725235
1.4205374,89.777084
1.5056305,98.281105
1.5976523,101.6778
1.6620215,96.60287
1.8266175,98.18737
1.7850026,102.74909
1.9285656,105.90241
1.8292365,106.89351
1.9505692,111.47956
1.8181541,108.231834
1.9609468,110.208755
2.0020452,109.94626
1.9319539,111.61434
1.9916822,111.44676
1.9830095,114.238846
2.000965,114.90755
1.9303819,114.31146
1.8484324,116.28006
1.8908721,117.24855
1.7573781,111.47497
1.703527,111.62942
1.762037,113.47683
1.6892247,112.97042
1.745893,105.64053
1.5884794,105.551895
1.6687894,108.58938
1.5227844,104.966576
1.5883439,104.947556
1.6299676,103.34174
1.5332235,101.64241
1.5762728,102.334015
1.4836336,99.18127
1.5015795,98.79236
1.5365762,97.02953
1.5714025,94.61672
1.3804522,95.08868
1.4846851,94.257256
1.4137732,92.26121
1.3454775,92.06869
1.3912255,91.04655
1.2789972,90.55853
1.268024,87.48587
1.1363838,86.88672
1.0425973,85.20907
1.101081,84.366646
1.0649927,84.5415
1.0601008,81.21823
0.9236319,80.515686
0.9316221,79.32936
0.8228668,80.03471
0.99388355,77.79283
0.826234,77.330414
0.95435077,77.78026
0.9359303,75.45206
0.9732361,72.411415
0.90344,72.3064
0.9408778,71.641205
0.8079777,68.64287
0.7131787,70.43627
0.87673604,68.041595
0.67621607,68.07804
0.6092199,71.98461
0.62305444,69.06835
0.47688618,69.7383
0.5656644,67.85429
0.4739023,71.244835
0.44731927,71.912766
0.5278102,70.40357
0.4564083,73.903206
0.45176312,75.02271
0.5533719,75.87497
0.5789255,78.18731
0.6654674,80.953156
0.917287,81.825676
0.920198,83.70701
0.9314911,86.12755
1.083666,87.64718
1.177009,87.96789
1.2560389,89.62648
1.354555,97.522514
1.5515702,99.12291
1.6462404,100.48193
1.605258,99.36648
1.663987,102.26983
1.7869109,105.08118
1.7004036,106.50716
1.7446123,109.929436
1.6711019,108.11123
1.8537518,111.112976
1.780027,113.41265
1.932942,111.30304
1.8302919,114.27368
1.8772566,111.8235
1.812182,111.13847
1.7522663,114.646286
1.7176888,113.40764
1.7469273,115.39696
1.6668224,113.71145
1.5500118,112.37434
1.593592,112.50587
1.5883267,111.77549
1.5556201,109.1777
1.4432276,109.75273
1.5573058,107.45476
1.3433986,105.18312
1.4145619,106.38805
1.4027361,105.81246
1.2820857,105.965546
1.3752866,103.56321
1.3846157,99.04154
1.3328441,98.71971
1.2417688,98.60504
1.193522,97.140465
1.2896833,93.719604
1.2105579,95.56349
1.233818,94.89737
1.2036747,89.8755
1.0845734,91.45905
1.0884768,87.976845
1.0415841,89.195786
1.0326709,83.714905
0.8586454,85.08534
0.8217259,84.87086
0.8643067,82.74274
0.85415834,80.08393
0.7416958,80.96263
0.7651234,78.38462
0.67750424,77.71456
0.5868733,77.3979
0.66266876,74.864235
0.6754942,73.55718
0.6904117,73.51699
0.6625443,74.09318
0.54206693,68.18792
0.5799644,74.09184
0.5441503,69.0862
0.5221586,70.25186
0.6346603,70.59984
0.48779896,68.84282
0.44344965,68.522095
0.43629536,68.19345
0.36444333,70.537865
0.27510062,67.25283
0.3282015,69.25064
0.19632682,71.26813
0.15797271,70.24574
0.19766669,75.72253
0.2983891,73.52994
0.20081224,75.41678
0.31665584,78.8071
0.4453541,82.08627
0.52350974,82.24626
0.7242093,86.117165
0.79445654,86.10063
0.7847459,89.42983
0.88243264,90.80212
1.0496426,90.429
1.1605937,93.17245
1.2350937,95.788
1.3606706,99.83523
1.4285483,99.965775
1.5243063,104.96596
1.4910507,103.04456
1.573268,105.70088
1.443936,104.86352
1.6296794,113.14213
1.5340291,113.53663
1.6058402,113.427734
1.5548923,110.56199
1.5620639,110.021255
1.4385929,113.21985
1.4718543,112.42538
1.6162353,114.3257
1.3741797,115.48123
1.4421082,113.14099
1.3521749,112.19039
1.371215,114.57916
1.3435739,111.43371
1.2911066,113.27366
1.2954497,111.84673
1.2416748,108.80777
1.2269565,108.991165
1.1269461,105.43792
1.1889582,105.21969
1.0894318,101.11004
1.1024723,101.06275
1.0301888,101.99392
1.0510434,98.2777
0.9693427,101.04322
0.98733157,97.267006
0.9715603,98.940186
0.9687601,94.969734
0.9241369,92.22012
0.92888606,92.03795
0.8735894,92.21561
0.7706045,86.50624
0.8418834,89.14949
0.7889432,90.19227
0.64786005,87.88872
0.6207025,84.18936
0.60886234,82.80476
0.6064092,85.91729
0.46518826,82.983284
0.38349715,82.70152
0.44724914,80.94804
0.41494858,79.28682
0.39770663,76.24461
0.37817094,78.70839
0.37413725,75.71163
0.3598815,73.73503
0.3430756,73.908005
0.34986913,72.33667
0.2928684,69.23622
0.3017899,72.61485
0.29004604,67.83161
0.16402707,69.77809
0.25761417,67.791435
0.24330212,68.156494
0.13137253,69.17274
0.12401888,70.58836
0.14714684,68.66915
-0.06644975,69.87612
0.08786062,69.643196
-0.009372249,71.72863
-0.0042709983,72.402824
0.052995857,75.511826
0.12759143,75.70041
0.12171137,76.832886
0.24966726,79.55738
0.22950935,80.82091
0.26430055,82.72531
0.58086425,86.58735
0.6437577,88.76904
0.66797537,87.09494
0.8742444,94.51378
0.84502506,92.45499
0.86792356,94.556335
0.98849183,98.56067
1.0936773,99.42955
1.2227957,103.8923
1.2877481,102.4309
1.3580343,106.68582
1.3706309,107.345665
1.3427303,110.10827
1.3693668,109.42337
1.5140941,112.23339
1.3969039,111.21535
1.303821,115.54037
1.410993,113.99191
1.3525232,112.68687
1.2683254,115.84997
1.3156431,112.07378
1.2418514,115.28365
1.2562437,113.97908
1.2406732,112.352554
1.0902119,112.73764
1.0978101,108.27402
1.0931144,109.46045
1.0615462,107.130974
0.99671996,107.45643
1.0821428,103.50391
1.0120448,103.91576
0.9252325,100.90449
0.9321264,103.65577
0.91006935,102.35954
0.97003686,100.59594
0.9816276,97.521935
0.8491173,99.23535
0.847448,98.121025
0.8870123,96.806595
0.8237919,93.17634
0.8064715,91.76564
0.7777883,93.73087
0.6232405,89.35387
0.6587682,90.31159
0.66300803,87.55212
0.6580434,86.916016
0.5342653,89.26437
0.5815875,82.4621
0.50531936,82.762375
0.3897751,84.851845
0.35534763,81.63835
0.4479835,80.40248
0.29683828,80.17959
0.2734634,79.667435
0.33133134,78.90121
0.43586683,74.88075
0.3290074,75.633446
0.34572834,75.16933
0.3270743,72.70754
0.2647074,68.952805
0.314564,69.673454
0.33588967,72.46497
0.17387901,68.12273
0.22153623,66.99049
0.1292533,68.567696
0.13356572,69.34699
0.10324443,65.98585
0.08184776,70.79018
-0.008371704,68.114365
-0.093267545,68.24255
-0.041016366,70.12297
-0.013354882,72.841064
0.07467759,73.59557
0.070332766,76.3432
0.09279225,76.50972
0.18631124,76.29554
0.20753293,80.02115
0.36953264,81.08367
0.52365965,86.20817
0.5047974,88.65187
0.78253585,89.84026
0.8145972,91.73727
0.95049953,93.74725
1.1096592,95.98395
1.0845652,100.24596
1.1719276,101.291504
1.258657,104.088264
1.2628393,104.56064
1.3878064,107.74675
1.3662136,107.956116
1.406698,105.91727
1.4187628,111.586365
1.4200448,111.39033
1.5074173,111.297676
1.4197416,111.97025
1.4459977,112.07804
1.4457349,113.93285
1.4281305,111.64129
1.3816487,114.347626
1.4184303,111.82825
1.3887349,111.95806
1.3707677,112.27551
1.2908748,110.75922
1.2994186,107.48719
1.2065159,109.54055
1.2687055,108.146484
1.2104341,107.75844
1.1663924,106.761284
1.0770619,104.865166
1.0888957,102.54307
1.065312,103.12823
1.0701702,103.07443
1.0491092,100.3401
1.044307,98.584076
1.014685,97.52153
1.068591,94.73856
0.99255896,95.660774
1.0586764,91.60778
0.97209924,94.78378
0.9509893,93.45634
0.8813782,91.411476
0.83028895,89.35348
0.85692066,87.902214
0.6907541,88.46134
0.7060684,84.897026
0.7242759,86.240585
0.6431332,85.21596
0.5538096,82.21392
0.62619853,80.653366
0.5169348,77.986145
0.4969843,79.929665
0.56097525,77.95351
0.59310627,76.7888
0.51423883,76.22564
0.50555235,73.735504
0.5267149,72.0381
0.61307776,71.39544
0.6532936,72.71558
0.4870602,69.81749
0.5072577,67.19336
0.5213358,71.51505
0.4358403,67.952965
0.34160483,68.45402
0.25774843,71.58941
0.3538047,73.3586
0.22368447,68.27414
0.22888762,69.439735
0.17718965,72.78942
0.2437153,73.49872
0.24706842,72.925415
0.31658468,74.364174
0.29701418,77.70258
0.35138175,78.31708
0.4707206,76.723755
0.47762588,79.490776
0.6204411,83.274506
0.69988745,88.452034
0.75578403,85.49801
0.92820084,85.67382
1.0091432,90.88483
1.0930998,97.24755
1.2478951,93.69325
1.3008084,97.02852
1.3764598,98.5339
1.4863508,101.340164
1.5459588,107.95578
1.5676758,104.63328
1.7074666,106.76696
1.633137,108.02281
1.6913764,110.15899
1.7937878,112.2773
1.6155521,108.948364
1.6885232,115.004425
1.7183,113.77847
1.7569035,113.117455
1.8433713,112.91894
1.6537266,111.641014
1.7159241,113.23029
1.6962656,111.680046
1.6531867,113.59811
1.6083623,112.12464
1.5748947,111.41168
1.5497881,111.88856
1.4765093,108.95044
1.4580811,107.86932
1.4554651,108.17763
1.5088416,108.03248
1.3628124,103.52252
1.414691,104.28714
1.327846,102.057495
1.2629032,102.34726
1.3320665,100.10915
1.357849,99.58563
1.3039203,98.22516
1.1914936,95.361206
1.2677366,93.69962
1.3378837,93.79144
1.2499732,94.62212
1.1616544,89.69083
1.156775,90.82765
1.1546943,86.78534
1.0850943,84.94249
0.9779102,86.50173
0.9080431,85.902405
0.92539245,84.90909
0.9323814,83.48319
0.93591917,88.29045
0.8524396,82.89632
0.8415457,76.46205
0.8038332,76.813255
0.8902754,77.41322
0.8829094,74.43337
0.86045575,71.50164
0.8750609,75.75947
0.7758084,71.260635
0.786752,72.60378
0.708146,73.11695
0.68823135,73.017395
0.7129454,69.597466
0.6352862,66.04592
0.54983526,69.42036
0.5766753,71.04911
0.5371952,70.255615
0.50097126,70.90539
0.54171014,68.19118
0.5353588,73.15158
0.49810362,73.780495
0.37013128,72.685524
0.50189793,73.45022
0.58096206,73.054504
0.55473155,75.306366
0.6226942,78.752525
0.81545365,80.22992
0.8902165,85.0481
0.9437325,86.92922
1.1179249,85.19927
1.1560409,87.9065
1.270486,91.6231
1.3448473,95.06432
1.499931,96.33117
1.4685091,98.66027
1.7538155,98.62495
1.8157908,101.54565
1.8258929,106.7814
1.8168585,104.98855
1.936222,104.91474
1.9492259,107.71507
1.9908869,106.99143
1.9167845,111.713875
2.0400622,109.74476
1.8679475,114.07
1.9194593,114.5579
1.8822516,110.82716
1.8806748,111.03228
1.9228268,114.602066
1.9052277,113.05115
1.9155387,112.25244
1.8518223,113.29851
1.791394,110.99094
1.7742277,110.58775
1.6547438,110.779015
1.6907496,106.013054
1.6319551,105.85738
1.6183809,109.904594
1.489529,106.46007
1.543631,104.07473
1.5145531,103.71355
1.4673264,102.58398
1.5481869,101.28937
1.4400407,98.63383
1.63425,92.92106
1.5175477,99.62461
1.4433732,96.34402
1.4578588,95.01051
1.4788282,94.31664
1.3872763,91.770905
1.3920163,90.63948
1.3297089,92.5278
1.1450391,88.470695
1.2118273,85.5998
1.2465237,84.91729
1.0956329,86.030174
1.1898882,84.374626
1.042067,82.87859
1.0030533,84.39522
0.98733085,82.46015
0.994751,78.04144
0.89281297,76.82106
0.86525536,73.69321
1.0013378,75.865105
0.8805535,74.59472
0.98743343,72.149796
0.86338145,72.7473
0.8868763,70.249504
0.96214455,71.39013
0.8775525,66.95391
0.89483905,67.64457
0.82432735,70.451866
0.732181,69.67629
0.6611682,70.667946
0.5840764,71.672356
0.52490956,67.81458
0.6018451,70.254295
0.62826514,69.920555
0.50292224,73.576324
0.43854806,73.28609
0.55214894,75.4771
0.6025226,75.28166
0.69372255,75.7928
0.7263755,77.27917
0.77193797,79.47064
0.9136296,80.11985
0.96298134,84.58246
1.0486242,86.48766
1.3024493,87.90128
1.3200012,90.84676
1.4905373,91.93953
1.5000639,94.44335
1.6154004,98.34276
1.6789768,98.355034
1.7238983,97.975464
1.7915572,103.33728
1.7973937,104.59175
1.791472,105.753395
1.8818132,112.06702
1.9839038,111.0014
1.9331502,110.95427
2.0363147,109.00344
1.9534523,113.02385
1.8896871,112.364624
1.8731201,112.47407
1.8492149,113.99665
1.8697754,115.34064
1.8091129,112.16141
1.7517476,112.8768
1.8239098,109.0748
1.6273574,113.417854
1.7453314,110.749725
1.71405,111.08491
1.6796005,107.83076
1.622853,108.369095
1.525177,106.693596
1.5278102,107.3361
1.5445765,104.77212
1.4728707,106.48629
1.4440745,105.836365
1.3953012,102.1842
1.4649807,97.481415
1.433978,99.772125
1.3679845,98.905685
1.3537469,95.37025
1.3270143,96.20992
1.347441,91.632324
1.2458459,93.54333
1.3439541,92.198586
1.1783147,91.199814
1.1210674,90.38114
1.1262707,86.54648
1.0252631,88.221596
1.0302855,86.97906
1.0182486,83.033585
1.0046452,83.81424
0.883349,80.17971
0.83926064,78.44403
0.7944281,79.982605
0.6924789,77.97723
0.70577496,79.41656
0.7561043,78.041725
0.806059,75.33558
0.7850804,73.50239
0.7561417,74.1815
0.8041028,73.71454
0.7750701,73.254684
0.7227443,68.73593
0.703799,68.03466
0.6720331,69.2257
0.5498182,68.455
0.5692661,67.69192
0.51943,70.51335
0.39997262,71.82873
0.3410301,68.14538
0.3704501,70.10464
0.39319864,71.25285
0.3106663,70.57355
0.3984418,74.469055
0.50546557,76.12607
0.4088438,75.73977
0.53734505,80.73524
0.50767225,78.54922
0.6255417,79.77404
0.7934331,82.41272
0.9268877,86.04968
0.99824375,90.66886
1.1284288,90.52571
1.2292143,94.90043
1.2081794,94.748604
1.3244647,99.7215
1.406527,96.80702
1.479562,103.438866
1.5114315,101.10331
1.4924755,104.49412
1.608276,104.77588
1.7301828,108.1648
1.714531,112.096535
1.716667,109.56904
1.7421215,111.61059
1.6098399,111.171135
1.8026297,111.29514
1.6367593,114.449585
1.6700053,109.782585
1.6064276,111.29334
1.5651692,110.49536
1.4687842,111.29615
1.50017,114.70789
1.4737338,113.34393
1.380914,111.11602
1.4353504,108.09837
1.3424834,108.01529
1.2654333,109.89178
1.1912814,107.68882
1.2806213,104.78087
1.1968174,105.97424
1.2652615,103.53343
1.2084947,104.45825
1.1682965,101.55389
1.2142423,101.52003
1.1583629,99.86293
1.1073316,97.35569
1.0901769,98.650764
1.1128305,93.940315
0.9279665,98.82097
0.9702871,92.248055
1.0270281,93.150986
0.94783735,92.6402
0.8511343,86.87177
0.8012171,86.13041
0.7747645,85.33175
0.7643332,87.20535
0.65051156,85.86483
0.6916966,84.807816
0.6092542,81.22901
0.483638,79.74084
0.5581862,78.644966
0.5402976,78.236145
0.46826753,76.546425
0.5326942,74.77781
0.5103541,74.75574
0.54835105,71.606544
0.5251295,74.20579
0.42603728,72.568245
0.47993654,71.63144
0.33777604,70.8068
0.4355496,69.90904
0.39688182,65.56889
0.31978446,68.361565
0.26485664,69.00805
0.1492258,67.07314
0.21359853,70.73329
0.20370473,69.29935
0.05449728,68.727165
0.048319623,70.95526
0.1101833,73.8676
0.079556845,73.50353
0.022470709,73.8657
0.10209396,77.75709
0.15629026,75.10423
0.3736628,79.2012
0.35216463,81.58691
0.5161125,84.669304
0.58947754,86.89254
0.76242036,87.497444
0.8161116,90.066444
0.87503207,93.11142
1.003846,99.4345
1.0767348,96.661446
1.1198832,99.209816
1.1937684,102.111855
1.2735652,100.57247
1.3186352,107.912445
1.3113642,107.84037
1.3473879,110.886986
1.3713489,109.95407
1.4839532,110.56342
1.3991996,112.351326
1.4905359,112.18341
1.3574805,112.61442
1.4370652,111.52077
1.4682686,115.50769
1.4132953,116.77746
1.3551903,114.62344
1.321124,111.63979
1.3737056,112.053825
1.165695,113.370605
1.2444892,110.92775
1.1904763,110.90777
1.0050466,110.094925
1.188047,107.18888
1.0933263,107.36652
1.1050009,104.26755
1.071815,105.08951
1.0563422,104.33084
0.9544264,102.57611
0.9305712,103.40436
0.94416916,101.45223
0.8765626,97.77518
0.86157054,96.71021
0.8881537,94.24878
0.84483474,97.59985
0.79098785,94.576744
0.8102373,94.17437
0.8040523,91.43148
0.7138468,92.45666
0.7008421,87.6218
0.67801565,86.69997
0.63300854,86.14723
0.5081583,86.90488
0.5691584,84.71827
0.6260735,81.45245
0.43871737,82.72213
0.417757,81.74293
0.33511138,80.70782
0.32732964,81.11259
0.34917626,78.26861
0.22343795,77.93129
0.29995766,72.29926
0.28561598,73.91002
0.33803964,72.284775
0.3059499,71.05411
0.29493278,75.15027
0.285633,70.6854
0.2661694,70.32636
0.14289837,69.88432
0.24036214,71.53602
0.07547466,71.6947
0.13367194,71.92384
0.09813931,69.73779
-0.022308487,68.158226
-0.0869337,73.32723
-0.11058028,72.19889
-0.026767153,71.00729
-0.1536851,73.78914
-0.035012387,75.91346
-0.039637696,76.60439
0.08840984,79.345924
0.119503856,78.49235
0.2413394,81.97263
0.3872655,82.4303
0.47550255,83.49078
0.5841268,88.557785
0.68693995,91.206276
0.7941114,90.91
0.95315224,94.96113
0.9790532,97.52215
1.0867546,99.756325
1.1139741,100.053474
1.0715432,103.11264
1.2357991,104.603584
1.2385406,106.55905
1.3636488,107.89183
1.3783458,107.23045
1.3757418,109.994774
1.4143497,112.61807
1.3866814,114.016884
1.3863517,112.8423
1.3571126,115.62945
1.4178932,111.08231
1.2410443,113.967
1.262743,112.48467
1.326966,114.150536
1.3191034,113.512054
1.2283732,112.25678
1.1344241,109.06635
1.18195,110.448746
1.185942,112.70424
1.0178145,108.23545
1.0538832,107.017586
1.099886,107.31032
1.120657,105.75693
1.1339166,104.8914
0.9430837,103.076065
1.0635242,101.98022
0.83083916,101.418724
0.85438246,97.82013
1.0119234,98.09642
0.9177245,97.77716
0.9488642,97.00017
0.9274946,94.54182
1.0039706,95.508026
0.88124526,91.701805
0.8359965,88.738
0.8231351,90.423645
0.7755795,87.074524
0.7517823,86.82768
0.7216023,86.56399
0.70694286,82.93133
0.50535303,83.903366
0.5661684,83.23288
0.5561365,81.60907
0.5145295,81.477486
0.38969064,78.64686
0.37537602,76.04571
0.5320809,77.27247
0.34570655,76.157394
0.47032404,73.78187
0.51112664,70.54065
0.3154504,71.50739
0.4191675,70.05556
0.19115543,67.570915
0.37582362,69.53152
0.36195183,70.74064
0.3047343,69.6643
0.210169,71.095314
0.22565915,69.34721
0.17791072,66.929245
0.20065163,68.09685
0.17041694,72.029015
0.040797163,70.12473
0.050440475,71.32724
0.19213535,73.412315
0.1634864,74.93795
0.27083796,75.228874
0.24499469,77.9119
0.3098916,79.62466
0.56356245,79.56939
0.6011231,81.50035
0.60041577,84.38324
0.67588973,88.88701
0.9163339,89.60938
0.90851784,94.41535
1.1064658,94.39673
1.1126384,94.989586
1.3291366,100.028885
1.3047112,100.021835
1.3575891,101.11708
1.3890921,104.32074
1.6438096,105.96598
1.4283164,107.444984
1.5457938,110.804344
1.5772986,109.651276
1.5930343,114.53386
1.6059937,111.753204
1.5808281,114.10265
1.5016307,114.09719
1.5728382,113.50853
1.6269077,112.97758
1.5262508,113.34828
1.6096199,114.58691
1.4931842,111.54396
1.5172884,111.9502
1.4013247,112.456825
1.4588156,110.978264
1.3183703,111.508736
1.3308774,108.05498
1.3012564,107.43761
1.2726182,107.29934
1.2008036,105.7186
1.2875475,103.74503
1.2969303,101.539085
1.2252779,103.78676
1.2083412,101.970085
1.1434585,99.3125
1.2373432,99.75566
1.071821,100.204475
1.1613405,93.836876
1.1124477,94.09225
1.2366912,94.52512
1.1033211,92.252235
1.0923784,91.35846
0.97142124,90.1897
1.004796,90.26983
0.8842373,86.00103
0.85652643,84.91005
0.93551433,84.21782
0.77556556,82.522
0.8356764,83.41627
0.68145454,83.52431
0.7156664,79.63629
0.68205965,80.07815
0.6828483,77.92681
0.6693823,77.90291
0.7395409,75.47038
0.7166264,73.16207
0.7217659,72.649315
0.62665033,72.29157
0.8115307,69.853004
0.6113736,69.034134
0.62213224,68.650894
0.55679256,67.40492
0.5191807,70.347305
0.39391318,68.47946
0.4570584,70.10194
0.47443643,68.17474
0.4193919,68.16774
0.36944523,69.8693
0.34591785,66.745224
0.3625704,70.64408
0.44972336,72.15987
0.4573817,73.77389
0.3950464,76.22045
0.43665263,75.554405
0.63914144,79.99071
0.635216,80.1831
0.87914807,80.401184
0.87188566,85.56966
0.96660537,86.177986
1.0797949,90.69492
1.1473621,92.98144
1.3009717,93.720406
1.443503,94.34637
1.5831673,96.83165
1.6091518,101.48941
1.7293919,104.18204
1.7426645,102.939186
1.8119851,108.841034
1.8137835,109.79015
1.7961427,111.613266
1.9104371,113.354614
1.8341532,112.15275
1.9437793,111.8327
1.8636998,113.344536
1.8248084,116.41548
1.8879806,111.023186
1.8740114,112.53905
1.7668126,114.689354
1.7246711,111.77746
1.8891166,114.79366
1.7281003,114.32768
1.681553,110.87387
1.5624326,113.69937
1.5847557,109.338776
1.5920675,109.08266
1.6324325,108.076965
1.5600177,108.7894
1.6138071,107.0589
1.5008224,103.97352
1.4442956,106.644646
1.4730681,104.73035
1.430024,99.48268
1.4242992,99.460144
1.4491765,98.80699
1.3829182,98.97705
1.4295492,95.70474
1.3753978,93.38004
1.3137269,91.24613
1.3333611,90.46943
1.3633515,89.9285
1.2163439,90.357315
1.2172126,90.49865
1.1739091,85.75632
1.1483656,87.76432
1.0816282,86.55453
1.0650365,86.315025
0.9711147,82.15109
0.9808494,82.94593
0.98178625,79.41302
1.0090278,77.58883
0.99415445,78.347885
0.94363123,76.18694
0.8775656,74.63291
0.8863393,75.30782
0.8533213,72.3118
0.8169946,71.797
0.97401005,73.82817
0.90570325,68.18398
0.89624137,69.659225
0.7840272,70.15634
0.8753023,69.00447
0.833572,68.56232
0.7989022,68.68373
0.7086125,72.00767
0.59881145,68.62374
0.5297731,70.7424
0.6268298,71.91898
0.5021084,73.177795
0.5617434,73.8254
0.45812634,72.90644
0.64889395,77.40951
0.6392132,77.72874
0.752408,76.50546
0.800384,80.671135
0.9665036,86.25407
1.0558692,84.463005
1.0936637,86.23729
1.2643982,90.02652
1.378861,91.227585
1.3982624,94.02455
1.4850093,91.61052
1.586482,100.078705
1.721525,101.26686
1.7794987,100.41227
1.7939278,104.570335
1.9110994,105.94444
1.9429696,110.45255
1.9199669,110.46814
2.013699,109.75406
1.8820497,116.32228
1.8553118,111.279175
1.9480754,113.94584
1.9888328,112.54633
1.9358039,115.02822
2.0109737,113.51575
1.9401762,115.22409
1.8204861,115.94707
1.8326339,111.843056
1.9181873,113.67333
1.7828163,110.48411
1.6957576,109.2286
1.7851645,109.81872
1.7875962,109.49599
1.6272193,107.62686
1.6761216,106.81024
1.5697093,103.90577
1.6752777,105.20207
1.5474417,102.06942
1.4751774,103.859314
1.544456,100.96108
1.4854103,100.61129
1.5070263,99.55081
1.4795187,98.993996
1.4541633,96.972275
1.3773787,94.43361
1.4250053,94.405876
1.2924654,91.55269
1.2771991,93.347305
1.2415469,93.56475
1.2266033,88.43668
1.2275645,89.02623
1.1277483,88.57308
1.0830225,84.72869
1.1383913,84.49176
0.99418503,84.727615
0.91759694,83.00292
0.95589346,79.05413
0.84880435,76.80048
0.88667154,81.67524
0.784156,77.05855
0.8278842,75.321815
0.8331693,74.56138
0.90871847,71.07767
0.84223264,72.113686
0.7821231,71.65638
0.8737492,72.68878
0.79453486,70.217705
0.7806657,69.99214
0.62619877,68.730484
0.68499464,68.26822
0.5800679,67.095345
0.5219713,71.737076
0.5898321,69.198685
0.5701741,66.84761
0.30829918,69.546295
0.48928246,71.03297
0.5080639,74.099815
0.48887512,74.11448
0.48576382,72.731865
0.529045,76.83403
0.5707711,79.88821
0.6770562,80.85985
0.69147915,83.79702
0.9681181,86.598656
1.040466,88.58047
1.1355363,90.31244
1.2972418,90.42986
1.296107,92.90084
1.4209299,97.14723
1.4826937,98.21234
1.6358875,99.412094
1.6133908,101.88569
1.6132905,103.938614
1.7003486,107.9822
1.7006518,106.04382
1.8065423,106.81643
1.8477671,111.27486
1.7802395,109.14395
1.7225196,111.869576
1.8221662,112.81237
1.851099,116.08959
1.7885439,112.6139
1.7980896,113.53718
1.594081,112.5764
1.7145817,111.70451
1.5896515,113.15015
1.6631833,111.15014
1.5156451,108.963524
1.489694,112.4951
1.538251,110.65063
1.458075,109.35217
1.4807601,105.810234
1.4334761,105.01866
1.4001518,103.724396
1.2644504,107.78268
1.2790692,107.581955
1.3727257,101.66925
1.2432748,100.70355
1.1761813,98.83176
1.2092772,98.03631
1.278566,96.32357
1.1432652,96.72032
1.152682,95.95977
1.1564357,94.48822
1.1848545,93.11618
1.090435,92.395645
1.1041793,89.592834
1.0328835,88.17581
0.9118063,89.868935
0.9162031,89.1744
0.9038651,83.61135
0.8336793,83.83091
0.7119182,81.29647
0.70811063,79.61069
0.52520055,80.99149
0.63150597,75.6484
0.55015635,75.82224
0.65586996,74.88345
0.6498785,74.32409
0.57169724,75.57368
0.5797853,71.475845
0.6327391,70.82183
0.509895,72.55767
0.62956536,71.43449
0.5697684,71.46237
0.44031304,66.67876
0.4654806,70.90772
0.42583036,70.34138
0.32301375,70.18114
0.35694954,70.10666
0.19068389,68.687256
0.20581385,68.873856
0.20888607,70.50366
0.14909853,72.022545
0.23865704,72.54472
0.19005843,73.7953
0.2310717,74.810555
0.26601732,76.93991
0.411556,74.707375
0.39588717,80.935265
0.51055026,83.363335
0.6198294,84.13441
0.7240163,83.81695
0.8564259,87.50045
0.9313182,90.37862
0.9785447,93.162415
1.0699874,95.03481
1.154429,97.61372
1.2604636,97.56194
1.3088735,101.74941
1.4188229,104.54276
1.4280607,103.7277
1.4785594,105.7189
1.3927501,107.7628
1.4509071,110.897354
1.4370131,109.75502
1.5674983,111.01412
1.5008136,109.34721
1.4918653,113.09254
1.5795724,115.11397
1.4987522,112.969696
1.4667202,116.589355
1.4260235,113.188
1.3845334,114.11333
1.3498106,110.74722
1.2957414,113.897156
1.2030377,113.00591
1.2300484,110.545044
1.1598055,107.88882
1.2132745,107.290924
1.1658105,107.28256
0.97967434,106.64504
1.0287063,105.98675
1.0336627,104.57165
0.98797554,101.66529
0.94206715,101.59938
0.97168326,103.01982
0.9996505,98.00422
0.89840907,97.078224
0.97643626,97.02409
0.9689003,94.33778
0.9906199,92.09346
0.9446543,93.9981
0.83834267,92.52409
0.7739914,93.24067
0.7872801,90.68584
0.626021,85.60868
0.5128191,86.314545
0.5541259,86.68311
0.64984673,86.98536
0.56022453,84.04444
0.4405248,80.062996
0.47375864,78.82604
0.39618832,77.22882
0.39152718,78.675735
0.31143093,76.33732
0.34240404,77.5317
0.4254976,72.98914
0.42088562,71.17763
0.40582556,74.24906
0.3590562,71.6897
0.3111447,69.58599
0.28364357,68.11872
0.28202924,69.69447
0.16799578,68.56388
0.12223575,67.78454
0.01622531,68.49536
0.07368134,68.274315
0.061867952,71.64664
-0.0031363105,69.5741
-0.016316898,69.40752
-0.074500464,71.1021
-0.1127772,75.17284
0.045325264,73.26272
-0.077606566,74.608
0.022475483,76.87723
0.22015233,74.00803
0.15556635,78.78481
0.34908646,82.85696
0.3385123,83.79047
0.48828703,87.74972
0.5187127,89.36927
0.7318441,90.8506
0.7535946,94.243256
0.8843392,97.482124
0.9746225,97.03997
1.1727177,98.28623
1.1656964,102.736664
1.2179447,103.138054
1.1553003,106.17969
1.2826067,106.72329
1.2682918,109.86068
1.3011259,109.01706
1.3727069,107.1422
1.3784536,110.0702
1.4161527,110.62713
1.3232335,115.54007
1.3115069,112.71271
1.2792555,111.80622
1.3825784,113.86797
1.3084861,112.360275
1.2399404,111.59691
1.3337334,115.654724
1.2108341,115.05687
1.195774,111.71184
1.1499135,114.53722
1.0833454,108.06141
1.0588864,106.07347
1.0441302,106.29795
1.1419021,106.288414
1.0303398,105.081795
0.86643726,103.22534
0.8371914,100.73982
0.9546838,101.764595
0.87371,100.01999
0.9782312,101.45726
0.9164233,100.61763
0.8424305,96.55381
0.9143854,95.539276
0.7323292,91.07841
0.88324666,93.38105
0.7724954,91.23221
0.74137986,88.803604
0.6775489,88.69905
0.64368767,90.47695
0.6387878,85.962906
0.55595315,85.525116
0.49147695,84.91124
0.44871095,82.45141
0.39440423,83.74867
0.45173493,82.570015
0.3752062,78.43861
0.29723418,78.465355
0.54414535,77.98677
0.42927927,76.050644
0.47895756,74.60051
0.2981119,75.13364
0.3721795,72.280594
0.34165797,70.05744
0.31950238,71.74588
0.44373587,70.767494
0.20768884,68.37434
0.22268732,67.35986
0.3014052,67.40359
0.10555751,70.36737
0.117416084,66.24429
0.086649396,68.871574
0.113210164,67.89413
0.042685654,68.536766
-0.011889934,69.43719
0.068033695,72.431335
0.023142116,75.443665
-0.03680895,74.74753
0.23351692,76.703804
0.20190957,72.01577
0.339645,78.44857
0.3537713,80.55244
0.5690237,85.38286
0.46237797,84.23713
0.66728854,89.95679
0.730404,88.710846
0.9367619,91.22278
1.0267559,95.090385
1.0440166,96.84725
1.2358421,101.03854
1.1707807,103.15472
1.267842,101.26318
1.3143721,105.16789
1.274804,106.57807
1.4862458,107.893234
1.352063,112.12197
1.4587306,111.08434
1.4991596,110.651024
1.4910738,110.75968
1.4922696,111.71867
1.4805107,113.76336
1.4693934,113.22898
1.3651539,115.28056
1.4177134,114.2991
1.4008282,111.54164
1.441199,111.13583
1.3252032,112.27104
1.3501786,111.15995
1.4647032,110.069214
1.1785256,110.59527
1.1502361,106.59812
1.187394,109.35408
1.1346354,107.91003
1.1399021,106.01793
1.1638395,98.8567
1.131856,101.913734
1.0557559,99.86976
1.1180279,102.88106
0.9699322,100.31453
1.0791595,96.90867
1.0746166,99.69373
1.0460767,96.86731
1.0013248,97.30093
1.0309825,92.79977
0.95979804,90.34792
1.0145123,91.21458
0.87119603,93.99348
0.84103,88.68567
0.85954577,88.86331
0.7493302,86.60466
0.73108757,86.50636
0.7023877,84.269325
0.6968116,85.511284
0.62881196,82.887085
0.6187962,77.41744
0.6587617,79.40794
0.54917955,78.953926
0.5698207,71.46592
0.5670734,74.77172
0.6070804,75.77881
0.5995245,69.80851
0.46281087,73.18096
0.66847366,72.71297
0.57023734,69.35839
0.54351336,73.01236
0.41157752,70.086525
0.47363153,70.24298
0.479332,66.56255
0.4000901,67.368614
0.39646423,72.12583
0.4218881,70.38503
0.35296082,71.05124
0.26255473,72.23549
0.27046657,67.30165
0.39595267,71.64372
0.33575672,72.25058
0.38271746,75.78096
0.5051771,75.99996
0.53160334,81.76062
0.6833255,81.66363
0.7246866,83.238945
0.80171204,84.64718
0.90958536,89.40576
1.037843,89.62644
1.183824,91.05503
1.2589533,95.08112
1.4168749,98.16296
1.4154825,99.47398
1.5116689,101.10398
1.5433931,103.680145
1.6924976,104.80858
1.6667358,106.78464
1.6568705,109.82725
1.8002503,108.227264
1.7394891,110.001
1.7491401,111.52713
1.7551111,111.579216
1.7816551,116.63416
1.745102,112.68173
1.8863881,114.26106
1.7823709,111.20389
1.6850494,115.77662
1.725012,115.515915
1.6395394,110.08549
1.7044035,111.7601
1.5802603,110.20108
1.6756622,107.89503
1.5729673,110.48719
1.5929661,108.194275
1.4851904,110.392204
1.4656171,107.67506
1.4060597,105.640816
1.4232742,106.47961
1.3121221,100.17821
1.4166769,101.324745
1.5362625,101.05145
1.3952632,102.508156
1.4403533,100.001686
1.3979543,96.97525
1.3503884,95.701
1.3359392,96.38114
1.2858113,95.00862
1.244712,90.47201
1.2821101,90.44792
1.1522748,90.08329
1.1171958,88.70989
1.1241914,86.136444
1.0739722,87.0034
1.0634347,83.47783
0.95278937,82.7667
0.93333256,81.36229
0.85865915,79.98962
0.8763816,81.00749
0.7988456,75.615555
0.81390476,76.332565
0.79475653,79.99693
0.82282233,75.13373
0.87684405,76.1925
0.7457673,75.2983
0.8432156,75.027275
0.79859775,71.36332
0.8397174,70.06327
0.8210293,68.16203
0.7180742,71.259285
0.79100055,70.18759
0.6962796,70.77059
0.683083,68.07374
0.6089245,68.787056
