ppg,abp
1.0509727,71.43472
1.1072096,73.419136
1.2049322,78.19121
1.3750002,79.36396
1.3913726,82.6203
1.4031641,87.91746
1.51298,88.688805
1.4561067,87.44148
1.5815449,92.04174
1.5513103,91.13839
1.5726289,93.17389
1.6012732,95.38769
1.6236663,97.52735
1.6649358,96.4655
1.6600226,97.53317
1.635917,102.298965
1.7811189,102.51576
1.7306685,103.89546
1.7217472,103.171455
1.7146683,101.79094
1.8129205,104.50277
1.6699477,101.847336
1.7244029,104.925
1.6926873,105.265274
1.6953734,101.94207
1.6254954,103.71562
1.7151076,101.068375
1.6129031,101.12767
1.5830841,102.28948
1.5787835,100.02504
1.5089985,97.82925
1.4621329,99.60939
1.5441909,98.20405
1.4822688,95.72313
1.4028515,96.54503
1.4091758,93.639275
1.4094486,93.99923
1.4449221,91.66723
1.3790989,91.52834
1.3257271,92.64663
1.2892307,84.88818
1.360107,84.13342
1.4309025,83.30743
1.3593657,84.56091
1.3278935,80.95671
1.2916117,80.6929
1.3270574,77.236465
1.3558112,78.23636
1.2864544,76.44539
1.29869,74.835945
1.2598449,72.647194
1.2220321,72.67463
1.1600258,71.172226
1.1435647,67.209785
1.1665843,69.72542
1.1435707,67.40233
0.8941207,67.38659
1.0647714,64.76852
1.0254968,63.0363
0.9629509,62.48336
0.8918051,60.84278
1.0010494,60.627136
0.8624804,58.35368
0.8770945,57.92134
0.86400884,55.60186
0.97428435,54.078133
0.83177006,51.296265
0.8365356,54.820827
0.83098537,48.76934
0.80240715,50.73134
0.7943206,48.724632
0.88130873,46.601826
0.83048046,45.87799
0.84460264,43.624916
0.82496583,47.43825
0.8173346,44.57756
0.87535197,42.53954
0.85956424,42.271343
0.8254807,40.57196
0.68175757,42.027058
0.79599524,40.0
0.677687,40.0
0.5959993,42.450974
0.6059769,42.37388
0.58336186,42.595463
0.58602285,41.83092
0.66181433,42.16953
0.45206848,40.92843
0.5275167,43.812263
0.5413416,45.98022
0.506931,48.218987
0.5374194,45.313164
0.61670625,46.766747
0.7198158,49.259045
0.7151802,50.979298
0.7874873,54.48292
0.7925747,59.988525
0.98034155,56.904453
0.95038867,59.473465
0.9396954,62.314327
1.0625161,64.75404
1.1808527,68.30462
1.2236398,70.87636
1.3670883,72.37006
1.4335647,71.84214
1.5791054,79.64984
1.6016126,79.86013
1.6652933,79.67973
1.6303015,87.02931
1.7564231,86.737976
1.8314829,89.642075
1.8949504,90.98305
1.8602053,91.38185
1.930071,95.26072
1.8623079,98.58642
1.9419473,96.00417
1.9006339,98.45378
2.0162313,99.66084
1.9960964,100.37044
1.9789572,105.19917
1.8860332,101.459076
2.0574732,101.03867
1.8936676,103.018166
1.9915915,102.10148
1.799795,104.41635
1.8213382,104.12244
1.8606857,104.803665
1.9318742,101.0539
1.9299054,105.9802
1.809897,102.26463
1.809723,101.90631
1.7831169,98.50062
1.8016562,100.422874
1.7171768,100.68929
1.6995898,98.095695
1.7170687,95.96653
1.6427749,96.96467
1.6175508,95.86205
1.607622,95.13201
1.5663496,93.11939
1.62503,92.39926
1.595955,90.23522
1.4874347,89.47469
1.5736663,85.72613
1.447598,84.557396
1.5114413,82.96361
1.550927,83.46116
1.477438,83.11902
1.5291201,83.79751
1.4521766,79.445076
1.434395,79.95557
1.3023803,76.32854
1.4115282,75.69785
1.3475118,73.792534
1.335535,76.3961
1.2818444,71.67641
1.2825292,71.607155
1.2341619,69.994385
1.219214,66.78969
1.1131166,68.46695
1.0990129,64.36405
1.045624,64.43111
0.9942543,61.025856
1.0464433,61.81604
1.0213424,60.174274
0.92947143,54.50411
0.9425842,56.407394
0.9231555,57.76695
0.8507999,55.78869
0.95350903,55.43279
1.0282854,48.284252
0.9280928,51.017982
0.8974421,47.290203
0.88491946,46.965992
0.88091874,45.88358
0.948631,43.732285
0.76375085,43.337143
0.82291925,43.4942
0.8035998,43.405945
0.84552056,42.932785
0.8211155,40.53752
0.7031369,40.0
0.7243291,40.0
0.6478337,40.0
0.54200625,40.640392
0.58131313,40.0
0.5768557,40.0
0.49806142,42.900326
0.42871198,42.208324
0.46620357,43.120426
0.4491807,45.00073
0.45503056,43.16229
0.45190433,44.495777
0.48098087,48.56232
0.5014155,48.58955
0.46208373,50.18564
0.55483866,54.274952
0.54202217,54.019154
0.66205543,55.1638
0.7603783,57.431206
0.7934161,57.8879
0.82802546,59.198982
0.9146392,61.219894
0.97086495,64.52002
1.1153908,68.60394
1.1840554,71.064064
1.2758114,77.5464
1.2705429,73.72664
1.3859762,77.55705
1.5026473,81.389565
1.4803118,84.09531
1.5633253,84.78075
1.5886163,85.868
1.5371728,88.13715
1.6461933,93.88783
1.7061003,92.23333
1.714528,95.15902
1.7502147,94.206635
1.7704334,98.95944
1.770407,102.91639
1.739162,102.7746
1.7541486,102.99144
1.8238628,104.28401
1.7814276,104.15356
1.7601255,104.568504
1.7846353,101.818596
1.662951,103.52172
1.6442162,104.86884
1.7000197,104.152794
1.6405034,104.12835
1.6502029,105.501854
1.5926092,102.96977
1.6485634,101.68559
1.5423211,102.92696
1.4841503,100.60954
1.504637,102.7419
1.334052,98.31367
1.4238095,98.102715
1.3663749,98.24744
1.435872,95.92356
1.2891524,95.60859
1.4038596,90.18459
1.2821413,91.831184
1.3109136,89.60638
1.2321745,91.64988
1.2367914,86.09567
1.2014956,86.395035
1.275303,86.47591
1.1916646,82.83722
1.2173975,83.368454
1.1061202,80.45324
1.1957566,77.97342
1.036343,76.851234
1.109006,77.61142
1.1575912,75.143265
1.0559272,74.60308
0.989973,72.89871
1.049104,71.94881
0.9546935,73.82233
1.0189354,68.50108
0.91310155,69.18946
0.8969318,63.405056
0.825019,64.816605
0.7101352,64.37781
0.7456583,60.5104
0.7063133,60.14655
0.6487544,61.415714
0.711972,57.077866
0.6784484,55.933723
0.71373856,57.317898
0.5863307,54.989765
0.5524394,53.718487
0.60674715,51.864532
0.55228233,51.22905
0.47682402,50.000305
0.53552735,47.564144
0.5407071,48.329617
0.49247494,46.24337
0.5612455,42.970665
0.52474385,46.63427
0.5020084,42.947983
0.46961263,43.33176
0.4514892,44.999992
0.41572374,40.900406
0.409075,41.117683
0.32456404,40.0
0.28980595,41.003826
0.2807518,40.0
0.22760484,40.368885
0.17621405,41.650917
0.19006328,43.478924
0.19112375,40.89421
0.15519194,41.809914
0.09287319,45.031105
0.13199376,44.744297
0.078563154,44.644726
0.05644264,48.266933
0.124531716,50.29406
0.15376242,51.252243
0.10606104,53.07476
0.21542813,55.384487
0.3205817,57.105484
0.4575705,58.61252
0.4431571,59.347054
0.58125603,58.38563
0.5839099,63.346313
0.7758363,66.96077
0.7453526,68.171036
0.920451,72.413445
0.935136,75.139946
1.0709186,76.70226
1.0396972,79.32609
1.1077632,81.400764
1.1951609,86.06602
1.2650216,85.31101
1.2468956,88.05904
1.25071,88.04717
1.3391603,90.83297
1.3513192,94.19323
1.4404099,95.9001
1.4107285,98.63369
1.4378403,99.70575
1.4978579,98.479065
1.439545,100.862274
1.4589475,102.916985
1.3739365,100.89909
1.4496766,102.295265
1.4310548,106.43761
1.4665318,103.03555
1.5165341,104.21156
1.2523912,104.921936
1.3286314,105.06674
1.252116,101.70388
1.3087378,100.42151
1.225571,105.692474
1.2797499,100.41473
1.2899143,101.594246
1.2294765,100.410164
1.0159584,99.863716
1.1445659,100.358864
1.1771848,100.04848
1.0778028,96.57227
1.0266864,94.440674
1.0514011,94.06913
0.95297766,90.70425
0.9594927,94.27851
1.0100574,89.747116
0.8934488,87.81439
0.9692675,88.84023
0.9906993,84.10494
0.92515796,84.80618
0.9199745,82.570175
0.881361,84.549774
0.8669321,80.902596
0.80962366,81.05754
0.8041333,77.43205
0.81317914,75.87917
0.80976117,76.758934
0.7673624,73.99935
0.7249267,72.041626
0.76759887,71.17003
0.68774736,69.62401
0.6432826,69.872665
0.57342833,69.14649
0.68398464,67.167625
0.60327226,65.23601
0.5460458,65.07618
0.5026122,61.33217
0.45639902,61.50233
0.47319415,59.193764
0.39018455,60.678596
0.44388106,59.189785
0.35427836,53.94321
0.38953647,55.14462
0.2524276,52.9261
0.31535992,47.148224
0.30872327,50.941166
0.33391035,50.25523
0.37329856,48.438347
0.27975032,48.565536
0.33277413,47.555264
0.21265718,44.593655
0.34588957,46.200195
0.29283607,41.75533
0.2359094,41.42214
0.22870933,42.24416
0.25171334,42.69313
0.15251493,41.057022
0.13203965,41.004456
0.19080189,40.0
0.055541255,40.0
0.052909356,40.005253
-0.011281388,40.800045
-0.018398393,41.454742
-0.016620813,43.802563
-0.08006333,43.574703
-0.0048886514,43.451298
-0.08459389,46.666775
-0.019814033,44.640446
-0.004393486,45.922997
-0.032470133,49.309017
0.16897978,52.70859
0.15668666,53.97406
0.13693336,53.248028
0.25490186,57.26303
0.3525503,59.795967
0.3550687,61.868614
0.52642965,62.967926
0.5329814,62.869957
0.64096767,70.202415
0.737444,71.429695
0.7701345,73.504715
0.8584901,75.78313
0.91639775,76.61777
1.0488176,81.63609
1.1144469,79.39046
1.1924505,84.40994
1.0376208,87.820175
1.0776933,87.1346
1.2632142,90.82866
1.3379489,92.41041
1.2955682,95.53627
1.3502394,96.725204
1.3768748,96.97797
1.3585252,97.4226
1.3865588,100.384094
1.4624469,99.620674
1.3990289,99.65159
1.4545803,102.99525
1.4745561,105.52092
1.341919,103.30961
1.4937946,102.99182
1.3826814,104.90421
1.3295549,104.31591
1.3254125,103.1362
1.4298666,101.44787
1.2888277,102.63612
1.4191309,101.36029
1.3377979,104.27553
1.2561165,99.16139
1.3416821,99.11321
1.177512,98.35096
1.2459773,97.06956
1.1774125,99.20921
1.1164522,98.52564
1.0858233,98.38899
1.1317679,92.81727
1.0617727,90.86421
1.0398507,89.846466
1.075511,91.77871
1.034261,88.806046
1.0775343,89.305534
1.0692735,85.46909
1.1068442,86.21672
1.0851009,84.62136
1.0705644,81.0485
0.98885876,84.7959
0.98839915,79.23424
0.946163,78.72566
0.94786423,77.60829
0.9213341,74.57959
1.0795748,77.29766
0.9422572,70.45331
0.82628447,70.09033
0.9243589,69.77734
0.80492496,67.10484
0.86210585,68.101974
0.7403131,68.772385
0.7087861,68.75429
0.64392346,63.189358
0.6095689,62.139164
0.6119242,61.565506
0.5970153,59.070766
0.6025764,59.54285
0.51392025,57.118843
0.56089187,56.80457
0.505765,55.66875
0.6523043,54.576294
0.48214322,52.255795
0.6363575,49.63578
0.56938934,45.74507
0.6393125,48.759895
0.59174913,48.25499
0.5965308,47.08872
0.57052743,45.43931
0.55284953,43.87409
0.53800076,43.977005
0.5577792,42.19964
0.49878156,44.83519
0.4310974,40.548927
0.4373193,41.412376
0.41216323,40.980015
0.39640057,42.145912
0.30130348,40.0
0.40092468,44.662342
0.3421074,42.118645
0.23697408,41.242954
0.24435347,40.52169
0.33100703,46.38496
0.289612,43.687206
0.25703025,46.526962
0.21925104,47.22619
0.18224138,47.365963
0.25961253,48.90107
0.40845773,53.579952
0.41287774,51.932632
0.42440888,55.166553
0.42543682,59.16047
0.5778639,60.905857
0.68147373,63.01182
0.88520336,61.45716
0.8310812,66.28136
0.97270775,69.799095
1.0443816,66.92404
1.1403381,71.182106
1.2282784,75.40038
1.2827802,76.82354
1.3901206,81.594666
1.4640914,80.159134
1.5130228,83.52713
1.5636401,87.09389
1.5677522,89.95789
1.6725376,90.92557
1.6373296,92.30604
1.7291205,96.30596
1.6440123,94.61145
1.6893315,98.47027
1.7679535,99.50009
1.7636682,100.73568
1.8205278,102.16135
1.8874482,100.202705
1.8196458,103.88616
1.8166019,102.85642
1.7949485,100.37769
1.7733282,104.21512
1.8271106,103.45048
1.7430104,104.561165
1.6988779,105.23004
1.7750825,102.01252
1.6340169,100.78988
1.6510241,102.58073
1.7182498,101.33618
1.6287459,97.6451
1.5893558,99.96962
1.6082009,100.42872
1.5472363,97.17376
1.5585984,99.16098
1.4294878,95.669975
1.4972548,91.9285
1.4625428,92.614105
1.3656415,92.070404
1.5016218,89.21222
1.4683981,90.23184
1.5108747,85.05228
1.3857245,87.13413
1.3698466,88.83799
1.4409335,87.497505
1.4304558,84.20599
1.4157542,82.71841
1.32117,79.631935
1.3031616,81.186386
1.3494635,76.48056
1.3303407,72.930466
1.2597777,76.06541
1.218536,73.50702
1.24827,71.72924
1.2444352,71.19927
1.2439486,67.34567
1.1540332,68.294586
1.1760089,65.856926
1.1252025,65.5736
1.0683632,65.269806
1.0622622,64.13134
1.0224557,61.597343
1.1055224,60.619865
0.9759104,59.982735
0.9587741,57.277702
0.9069993,55.452736
0.8891018,59.231407
0.87389964,51.94417
0.88909507,50.43003
0.7751379,51.87614
0.84016657,48.48674
0.8716734,52.18608
0.88901085,49.293125
0.8925438,44.980915
0.90870875,45.390617
0.91765845,44.576534
0.866438,43.076397
0.78126425,42.250034
0.83118415,43.124664
0.7455656,42.36955
0.8512687,40.452904
0.73976266,40.0
0.7508002,40.0
0.7861216,40.0
0.65278876,41.115807
0.63817924,41.219303
0.5546607,42.844646
0.56444824,41.848263
0.52825755,40.0
0.6207186,41.504215
0.60106766,41.063286
0.5320847,48.451004
0.5858205,47.00716
0.61718804,47.539627
0.6024402,48.212864
0.6088406,53.196297
0.7371054,52.571377
0.7271397,57.113144
0.88160163,56.579124
0.89487046,61.594624
1.0847709,61.478188
1.1268811,66.382256
1.1389853,66.34956
1.3182586,69.05664
1.2732881,72.65673
1.3665636,73.337036
1.5071093,74.44351
1.5650953,79.204704
1.577807,78.70787
1.6720768,83.098236
1.6898037,86.01304
1.8073272,86.847824
1.8288383,91.674675
1.7926981,88.976265
1.8579549,91.88382
1.8661954,96.321396
1.9698756,96.26953
1.8538702,97.65641
2.027633,99.26132
1.9694713,99.51209
2.0315313,98.82937
1.9915208,101.84766
1.9896388,102.87413
1.9898208,102.82414
2.0592544,104.49046
1.9482219,105.06246
1.9133582,102.42501
1.7685483,104.63818
1.9625279,101.238716
1.8009074,102.99446
1.8656347,104.243195
1.8587862,103.30318
1.7791566,102.74686
1.790745,102.878716
1.7172498,99.79031
1.7308217,97.98335
1.7159195,99.21129
1.5993881,95.935875
1.6259025,98.56137
1.50086,90.073494
1.5246719,91.33165
1.6416008,90.67639
1.5603204,89.89356
1.5383072,87.76099
1.5118457,85.232315
1.4933938,89.056854
1.4426003,83.56339
1.4554396,87.3588
1.4585181,83.4989
1.4571084,80.188675
1.4343787,80.45452
1.3675092,78.834274
1.4098473,75.48748
1.3692116,75.85173
1.3060693,73.92989
1.3422872,74.99553
1.3349496,72.93193
1.2815466,71.47673
1.2609501,68.351746
1.2205011,65.64683
1.0215093,68.30039
1.1011062,64.771225
1.021939,62.11049
1.1099246,63.831482
1.0387381,58.223766
0.9757177,59.048355
1.0062338,56.82553
0.8733717,56.84681
0.8733651,57.487114
0.90675616,55.797848
0.89844435,54.858513
0.92167103,52.91183
0.8906449,49.582336
0.8380479,51.220787
0.77462125,49.331394
0.8668931,47.23306
0.7958806,45.958385
0.8253527,44.548252
0.8400587,42.108807
0.79383373,41.629665
0.81754696,41.734577
0.8081352,42.92096
0.7629475,42.274685
0.65279865,40.50589
0.6199967,43.045135
0.6608474,41.771584
0.57152987,44.17097
0.53654265,40.0
0.46935982,41.02544
0.4365616,45.0757
0.54567796,41.199036
0.4271052,42.03216
0.41668046,41.596294
0.36698756,43.933125
0.3586389,41.297756
0.3610941,47.426003
0.42059413,49.258682
0.46550575,52.23056
0.5258658,53.832222
0.49905792,51.07813
0.61323655,57.43876
0.669459,57.06734
0.74715316,60.386787
0.86534756,63.09068
0.7990799,63.64287
0.94289625,66.476616
0.9826614,70.49711
1.2756827,71.7086
1.2528648,75.606
1.3003595,74.9218
1.3214658,79.22653
1.3928857,83.90195
1.4649217,86.1043
1.5037285,84.91141
1.6696085,88.48451
1.6669986,88.81968
1.5207516,92.116356
1.6558828,92.42157
1.7358845,96.28261
1.7038001,96.43148
1.6336501,98.01661
1.6610072,102.02599
1.7713479,103.68387
1.7170986,100.63868
1.6690174,103.231
1.736443,102.66464
1.6209681,104.40195
1.6083618,104.42229
1.7214903,104.65392
1.7396656,104.053856
1.6760888,101.0289
1.6343096,102.29446
1.5856601,100.356895
1.5467678,105.02075
1.5823119,100.67485
1.5319496,99.45871
1.4884202,102.242065
1.4259291,100.83006
1.4116292,96.86703
1.3926543,96.5786
1.3351995,97.8603
1.2235348,95.31285
1.3189185,95.69345
1.220264,91.52729
1.1809349,91.16547
1.1711408,91.01348
1.2542626,87.97441
1.2843735,88.82621
1.0851276,89.01003
1.1752185,84.03898
1.19249,85.07473
1.1572572,84.198944
1.1366242,81.4517
1.1549658,79.14483
1.0963819,79.19317
1.0602777,78.934044
1.0626621,75.59374
1.0698682,73.17315
1.000303,73.595215
0.91234905,73.0928
0.9125809,71.535194
0.90903676,68.53792
0.8781417,70.03505
0.7913194,66.14892
0.8543297,66.73341
0.75335133,64.38328
0.684805,63.146137
0.62923914,61.808228
0.619812,61.586727
0.5864404,58.210342
0.57070446,59.65087
0.50514925,54.212494
0.46794444,54.11791
0.47821894,50.826645
0.43312764,50.91366
0.46546087,51.083427
0.509618,50.631344
0.37490362,49.336445
0.38899523,46.83754
0.43681353,45.696938
0.5008896,45.177998
0.5131989,42.738567
0.5044821,44.05192
0.32511652,43.794964
0.36821485,42.387836
0.38334343,41.356846
0.32836062,41.168552
0.3393527,42.05763
0.20674677,41.138035
0.12992823,41.667965
0.2297077,40.0
0.16465841,40.0
0.117903136,45.49889
0.091368325,41.37466
0.10634689,41.19289
-0.0015118355,43.318783
0.10565891,45.396084
0.07812193,45.05591
0.118776426,46.047993
0.039919823,48.222385
0.13085018,49.31613
0.17818996,50.6269
0.21518631,52.458794
0.22066285,57.177383
0.40550035,56.835228
0.39564493,61.762493
0.4173686,61.531742
0.61929214,66.34865
0.6516666,68.78369
0.7689129,70.82222
0.7553562,73.19985
0.86496675,74.68978
1.0035523,77.15632
1.0796726,81.406296
1.0128891,82.834175
1.0992999,82.79886
1.221926,88.1721
1.3090806,89.009605
1.3267342,91.31178
1.2905046,94.16826
1.4349718,94.96929
1.4021555,97.383514
1.3848885,98.596
1.3846079,97.91503
1.4034398,100.87462
1.3952972,100.27032
1.3751982,101.56412
1.3950981,102.27331
1.3953028,104.122635
1.4368021,105.53982
1.3159028,101.146935
1.361883,102.783745
1.3995847,102.14145
1.264933,103.634285
1.3804946,103.69758
1.2545468,103.88111
1.2929453,102.53927
1.2904128,102.18733
1.2552575,100.54026
1.1878171,100.040085
1.1549712,96.638336
1.1311004,97.60461
1.0542907,97.19589
1.0857913,94.200356
1.0722213,94.05522
1.0322156,94.10925
1.0508472,95.31864
0.9642341,89.42929
0.8980703,91.5671
1.0080683,88.77196
0.967271,84.24268
0.90103525,85.29579
0.9250464,82.57477
0.923507,82.712555
0.83058524,81.01936
0.9027376,80.30912
0.81697303,80.38103
0.84469014,77.12104
0.83071905,77.6889
0.7475886,75.07776
0.85787994,73.68678
0.74244136,76.065186
0.6758775,70.23582
0.6905374,70.09791
0.6467977,68.9775
0.5941123,67.72622
0.6086077,66.75915
0.5027575,65.62108
0.5378351,63.33466
0.43243384,63.024433
0.44973463,60.17648
0.40251708,60.753708
0.40766028,57.340572
0.34464067,59.065998
0.38069442,55.566628
0.3730071,56.27123
0.3550293,54.934067
0.29134542,49.934944
0.31976715,50.570415
0.39793143,48.69172
0.41055858,50.760075
0.26811832,46.493145
0.36539596,42.76806
0.34873033,45.666046
0.36395103,41.76618
0.4132546,42.980762
0.28209338,43.65454
0.30481458,41.88668
0.26384762,40.0
0.25535735,40.218254
0.20124426,41.089073
0.18984425,40.0
0.2602972,41.73273
0.052934866,40.073265
0.012768961,40.765778
0.113670684,40.697453
0.06344662,41.12129
-0.051449712,41.669247
-0.04790402,44.7253
-0.010876771,45.028564
0.041136794,42.768345
0.024438534,49.24743
0.060724445,49.77219
0.0645829,48.720963
0.13109599,53.76834
0.21297932,55.152275
0.27347878,56.231216
0.33519718,61.851646
0.3636685,60.012913
0.49912366,63.157303
0.57785976,65.70875
0.60390586,65.78753
0.79980636,70.421715
0.84068644,74.712036
0.8337475,75.929596
1.0124798,80.46741
1.0966127,78.97154
1.1506298,85.69127
1.3010298,84.85591
1.1609188,88.151474
1.2633855,87.95199
1.3249942,89.6859
1.365803,90.415245
1.4474913,97.54915
1.4168574,98.00389
1.4612362,96.84864
1.4813707,99.5669
1.5541012,100.081314
1.4383779,100.712585
1.473704,103.604485
1.3804152,101.69004
1.4025586,104.61015
1.492893,103.58108
1.3412797,102.56907
1.4530331,105.41005
1.3744937,105.138
1.4106134,104.33321
1.33403,105.4924
1.3497491,101.93041
1.4326642,104.897
1.2361697,100.8473
1.3392034,100.21578
1.2411277,101.36793
1.2281379,101.10654
1.1888636,98.27902
1.1819671,97.91998
1.2665324,95.28056
1.1896982,93.578445
1.126528,95.0563
1.1321746,91.93843
1.117164,92.1549
1.1047981,89.26151
1.1064674,90.03502
1.1573622,84.736374
1.0955708,88.36095
1.0674187,83.769455
1.0946821,83.51478
1.088479,83.570015
1.1078446,80.55807
1.1070546,81.03428
1.027267,79.73578
1.012786,78.33057
1.0461394,72.799385
0.94458866,74.31236
0.9355869,69.71217
0.9314207,71.453835
0.9001893,69.10807
0.8830457,68.05787
0.8791484,69.216
0.81785,66.440094
0.75862706,63.631126
0.654977,59.541836
0.6914412,61.171177
0.64725375,59.996044
0.68818283,59.418304
0.63380325,56.68241
0.60362583,53.320652
0.6163849,55.972145
0.5400024,53.000477
0.60771996,49.331886
0.6310972,51.37201
0.66290236,50.65636
0.62568855,49.613155
0.5851508,48.919643
0.64597154,45.675278
0.6038855,44.371014
0.65782917,46.737755
0.5060317,43.33946
0.6098739,42.502777
0.61702096,43.56142
0.5466132,42.368366
0.5294754,40.0
0.5406116,43.36154
0.54217577,43.39404
0.5705641,40.0
0.47029647,40.0
0.39741898,41.23685
0.3665393,40.0
0.26803917,42.446213
0.29153925,42.234035
0.29351497,41.46508
0.27812532,43.59427
0.23914541,44.70096
0.37500626,46.91446
0.38546807,49.62614
0.37480596,51.411045
0.5192052,52.111813
0.54063165,51.068996
0.54818034,54.35455
0.603724,56.907017
0.79488784,59.687305
0.75946176,61.166454
0.8525645,65.04889
0.9476015,66.77305
1.0668514,69.14981
1.1079142,70.47107
1.1973537,75.0762
1.2317342,76.80256
1.3855557,78.86208
1.3839889,77.93473
1.5475945,86.20268
1.5624496,82.80421
1.5462098,87.38285
1.6171541,88.49063
1.6054341,91.77224
1.6851386,94.40587
1.7584382,99.43028
1.7290809,97.727684
1.761878,101.09371
1.8516107,98.191734
1.886514,98.50935
1.8489356,104.50975
1.9152848,102.820595
1.7684362,102.271866
1.8512303,101.78414
1.8225749,101.93066
1.8690217,102.67304
1.8053728,104.151825
1.8046166,105.58796
1.7697827,104.83941
1.8054639,101.92475
1.7331982,104.14587
1.6905472,102.3643
1.7055724,102.26826
1.751356,100.30757
1.5907229,98.7772
1.607032,98.86317
1.5717849,97.401146
1.5363371,94.740906
1.4761374,93.052414
1.528786,93.85333
1.522891,92.80673
1.499261,92.813
1.5422131,90.774414
1.4983686,88.74419
1.4551347,87.418686
1.410832,88.18773
1.430081,83.86699
1.4649532,84.01
1.4402348,81.63968
1.3631661,81.55975
1.2697183,80.49403
1.3912263,79.514244
1.3944981,78.000244
1.3208605,77.996574
1.3961716,73.85628
1.33163,72.34362
1.2511846,72.07483
1.151337,72.94237
1.2200859,68.629585
1.1898965,68.389786
1.1767099,67.378746
1.0792876,62.33648
1.144946,65.06148
1.1024759,61.131954
1.052858,61.640068
0.9976199,60.80392
1.0774928,59.862656
0.9485116,54.798256
0.9889293,55.36392
0.90968037,55.112133
0.92878217,53.944214
0.97102123,53.528202
0.9135078,50.11844
0.85612804,49.931297
0.8196733,46.15251
0.8971382,46.08535
1.0328833,48.409077
0.9563062,45.52097
0.8638024,44.1537
0.82719386,42.636185
0.91762424,44.476902
0.8571491,42.85019
0.83375615,41.348595
0.81035256,42.84561
0.7468415,43.091415
0.77391386,42.761578
0.78639597,41.496994
0.68291926,40.0
0.7115633,41.054527
0.640885,40.0
0.6752678,43.887547
0.5868475,40.0
0.5786161,43.998302
0.6314166,42.933525
0.5436753,44.887314
0.5757707,47.8443
0.660142,51.827084
0.642999,48.907593
0.71460843,51.556744
0.818251,52.067272
0.71901506,54.893684
0.9040521,58.53168
0.9336471,60.928993
1.0273658,61.097984
1.1942519,64.22255
1.2271339,66.22334
1.191422,68.721565
1.4365598,70.05795
1.3921343,73.125015
1.516265,74.201
1.593148,77.90846
1.6209759,79.799324
1.5995132,83.34596
1.7128513,86.48444
1.8455782,85.18288
1.811457,90.44993
1.8597741,93.99887
1.8474725,95.87559
1.9205157,95.79821
1.9405118,95.81739
2.003673,95.83875
1.9678057,100.07746
1.971381,102.16708
1.9342455,101.09733
2.020685,103.09497
2.0073998,104.37935
2.0216413,100.96763
1.975106,104.42933
2.02363,102.75262
1.8866562,101.33321
1.8402299,103.8205
1.876613,103.83833
1.9373037,102.20715
1.7760199,104.00284
1.7063432,100.16667
1.7866806,102.729095
1.731409,100.83556
1.7618223,101.14211
1.652351,100.01503
1.6067836,100.8839
1.640681,96.72379
1.6516527,97.183365
1.5999527,92.91199
1.6672704,96.33985
1.49023,91.47574
1.5225672,89.857124
1.500312,91.29445
1.4527484,87.467766
1.4701636,84.68039
1.458137,84.55001
1.4080365,83.01671
1.4041495,81.7922
1.4381874,80.26168
1.3992708,78.81949
1.4042783,78.8601
1.4168925,75.934555
1.3941281,75.84349
1.276405,72.820274
1.3465418,73.75476
1.3137821,73.05396
1.1911908,69.34065
1.1613631,67.651276
1.1887755,66.92599
1.1482009,67.351135
1.0446565,68.07132
1.0214746,63.04586
1.0248733,63.06141
0.9305621,60.39606
0.94890505,58.213123
0.86247647,57.31936
0.87583166,55.64782
0.92136943,55.571854
0.82201695,54.042236
0.8245534,52.94093
0.8572577,52.43039
0.8579347,52.283672
0.79745954,50.42817
0.7794983,51.11239
0.90894353,47.570995
0.868107,47.630352
0.82063186,43.774937
0.8713361,44.303432
0.85184526,44.609627
0.80821174,44.352524
0.75280285,40.0
0.71014446,40.990166
0.6286711,41.39482
0.6210557,41.711666
0.5051034,40.0
0.5059049,40.0
0.55509126,41.36771
0.5168677,40.0
0.4197595,41.733273
0.39821085,42.988342
0.39995417,42.49
0.3691023,44.358944
0.39141852,44.8311
0.3820666,46.77225
0.3633219,45.643295
0.40261814,49.63941
0.51400554,47.548065
0.4729865,52.559002
0.5945402,56.132797
0.6583687,54.40719
0.75487745,55.882504
0.7539416,62.314457
0.86519533,61.267906
0.9420553,63.44969
1.0576811,66.53933
1.0058111,67.113785
1.1670446,72.97165
1.1408708,74.30673
1.2370894,77.6459
1.3115177,79.26395
1.3380972,82.96498
1.4678711,84.653275
1.4753878,86.27639
1.4817005,90.34037
1.4857415,92.394264
1.5559484,90.782234
1.6201742,92.288086
1.6854036,98.17758
1.6620783,96.12293
1.6830629,99.65314
1.6533566,101.60446
1.7097187,102.49377
1.7045869,104.044205
1.6930851,104.72901
1.6665524,100.62487
1.6537014,103.507286
1.5852827,105.58064
1.616305,105.28396
1.6040437,104.09126
1.6483289,105.56527
1.5025039,103.3609
1.454028,104.488655
1.6185355,100.64676
1.4872787,104.97053
1.4182004,104.16256
1.4112475,102.807
1.4113958,100.49571
1.2963682,98.0259
1.3696244,96.458466
1.3106625,92.91524
1.1827995,93.30506
1.2914526,91.84172
1.1866574,93.43364
1.1970059,89.91075
1.1665032,90.10104
1.1953425,92.92738
1.0959945,89.65273
1.1809691,85.35306
1.1442726,85.078064
1.1635689,82.27772
1.0571487,84.90809
1.0985558,82.451355
1.1236763,82.35166
1.0440247,76.403984
0.94362533,74.39217
0.95073193,76.40336
0.9220413,75.11104
1.0021813,71.31712
0.9466852,72.9579
0.877905,68.17154
0.86076415,68.72773
0.72606456,68.81152
0.7919949,67.20064
0.69294864,66.039505
0.58457834,65.62656
0.55280644,64.03469
0.6208212,60.35494
0.57294154,59.13361
0.5598717,60.11057
0.49395508,53.033886
0.51294345,56.540066
0.36546093,54.19662
0.50978684,51.198765
0.49655753,52.621128
0.3572849,49.13917
0.41535065,48.341022
0.43640083,48.02859
0.4949789,45.23341
0.4351363,44.81834
0.48803037,43.48466
0.350759,41.41899
0.30726355,44.317017
0.4049476,41.98374
0.30263942,40.89951
0.23644097,40.0
0.33900806,42.777573
0.24251357,42.750412
0.18331431,41.066757
0.15631531,42.027943
0.19484094,41.78647
0.09635158,42.105164
0.059469696,40.0
0.031940695,43.315876
0.04547635,43.43962
-0.041216977,44.489845
0.002083751,44.469875
0.06469152,46.909096
0.05614811,46.61177
0.06452522,48.573765
0.15281083,52.12627
0.12598458,52.748573
0.26272893,55.213837
0.2711813,56.266724
0.42589587,58.232384
0.44386223,60.59168
0.45975706,64.74238
0.51963145,66.22474
0.6783398,67.70286
0.74658823,69.506355
0.84986556,75.43291
0.88524675,75.46409
0.96306497,78.07116
1.0215846,78.19258
1.0059514,83.098915
1.0891962,85.29675
1.0598612,87.63221
1.1702684,91.755455
1.2331045,90.210625
1.3135056,92.989746
1.211041,96.13059
1.4282488,99.25229
1.3307282,101.2891
1.3948082,98.27998
1.3743037,98.56922
1.3233511,100.48775
1.4427562,103.3005
1.4590397,102.25659
1.3152475,102.54477
1.4466741,103.14031
1.2876575,104.23802
1.3712534,103.51994
1.2439277,104.118935
1.2471687,104.39578
1.3429441,102.61088
1.2336922,105.42385
1.2641102,102.63949
1.2841965,98.945244
1.2101663,101.03965
1.2036324,100.22056
1.1850331,100.379585
1.0708475,96.7486
1.0522771,96.9156
1.0202025,94.174995
1.1429127,95.26781
0.9345257,94.97393
1.0725827,91.259705
0.9706151,91.95133
0.9212893,88.81201
0.91975147,87.08433
0.9414301,88.073425
0.9058043,84.72448
0.8260798,84.697136
0.80063415,85.06476
0.93935996,81.64715
0.92851937,79.2598
0.83224213,78.32486
0.87992233,79.05238
0.79959524,78.16855
0.7721375,75.72873
0.7549654,73.155655
0.79850286,72.80071
0.70861715,71.7106
0.5770713,68.342865
0.63111216,68.63936
0.5961194,66.98023
0.5571539,65.02684
0.4113345,63.96518
0.5226201,65.254295
0.555602,65.17012
0.44345194,61.832935
0.4392897,58.434044
0.44031703,56.61543
0.37881318,55.76978
0.4009997,54.752514
0.33940184,55.845673
0.36121345,50.018982
0.32238427,51.309948
0.26192045,49.882317
0.39139843,48.728245
0.40362808,48.13595
0.37340787,45.115707
0.41631487,45.20054
0.3208344,47.093258
0.2920083,43.0767
0.42562363,42.765495
0.34240577,40.0
0.29719886,41.894684
0.24231328,42.975967
0.23481008,40.933636
0.23618981,41.562828
0.14925984,41.162655
0.17725548,41.5894
0.067175075,42.941097
0.08119303,41.316597
0.07282047,40.0
-0.051699657,41.59168
-0.09205611,43.037746
-0.016732553,43.350803
0.017565932,46.83821
0.06216357,47.470783
-0.008687575,50.147945
0.013397821,48.99077
0.062976174,52.564396
0.19723387,53.836033
0.1937898,53.723392
0.25285676,55.708973
0.3786889,61.2943
0.454635,61.960804
0.65477276,64.09025
0.63091904,68.92805
0.7639952,69.38111
0.8040862,73.09397
0.87452716,72.84368
1.0609964,74.8108
0.93070227,79.83007
1.0341074,79.91971
1.1554149,83.72781
1.138768,85.35357
1.2953664,84.96287
1.3417574,91.96479
1.3879819,91.40282
1.4110769,93.71054
1.4975413,94.027
1.4144578,97.04548
1.4420073,99.28426
1.5119852,99.06882
1.510363,99.37951
1.5068015,102.48811
1.5837929,101.38689
1.4964381,102.25461
1.4583236,103.55537
1.5388272,106.38887
1.4817348,103.66786
1.4877448,105.135635
1.5423379,102.29431
1.477091,106.30666
1.5059209,103.37728
1.4427273,102.59009
1.3405013,100.36692
1.3339661,102.514824
1.409885,102.00453
1.2731757,97.227165
1.349728,99.88305
1.2876039,96.56733
1.2466643,96.64077
1.2253436,95.51919
1.1494116,95.98604
1.1826658,93.59702
1.2137421,92.332085
1.1907412,91.44044
1.2132983,88.73125
1.2777364,87.00358
1.1613526,85.86622
1.1585064,87.0417
1.1329422,82.125084
1.1721845,81.68186
1.1155128,79.457596
1.0393591,80.249985
1.1559836,80.216705
1.1545532,77.21234
1.1612896,74.93515
1.038295,73.08894
1.0661887,73.7772
1.0330256,74.47973
0.9692585,72.466934
0.9642899,69.85667
0.8385708,67.972786
0.89056414,64.87885
0.85202575,65.16529
0.8592023,61.33594
0.7438734,63.31115
0.7536204,59.604637
0.70870864,58.212494
0.6087687,61.306377
0.69201094,57.673862
0.6406578,57.61941
0.5996037,55.71437
0.6506831,54.8782
0.64430225,51.83559
0.72110504,50.574287
0.67946005,52.200592
0.6384254,47.83741
0.64892304,46.880703
0.6784186,46.731503
0.61147195,45.500076
0.6745087,42.3404
0.68233275,43.840183
0.6574974,42.410217
0.6716728,43.756123
0.569776,40.0
0.5330943,42.13459
0.50627464,42.64986
0.4746228,40.0
0.49226296,40.835644
0.4246766,44.58708
0.36235955,40.889095
0.4012119,40.0
0.30454814,40.0
0.3459689,42.375618
0.36058924,42.85594
0.36131564,46.42701
0.37000686,47.01238
0.43255392,46.78295
0.34938982,50.5966
0.42512128,50.87983
0.45740128,52.276684
0.5670724,55.45637
0.61259776,56.361088
0.58135724,57.336334
0.7891521,61.00862
0.8738191,63.011856
0.9288539,62.699898
1.1043279,69.04184
1.086249,72.296745
1.242432,74.551254
1.29086,78.324104
1.3202575,75.30467
1.4221859,81.988556
1.5069658,80.45289
1.5084664,85.1399
1.6366719,84.91728
1.6548117,89.583694
1.69877,90.878105
1.786383,91.156006
1.705843,92.56268
1.7634326,94.292305
1.8927298,96.17812
1.8728787,101.09674
1.802946,101.431366
1.8527478,101.13825
1.8411433,102.4813
1.8530252,100.1488
1.8741556,101.485374
1.8244857,101.453285
1.8232857,101.70194
1.8340722,103.60998
1.843603,102.88111
1.8504732,103.38262
1.8761686,106.19629
1.730737,103.23855
1.8051076,105.940895
1.7215106,104.221954
1.7667108,102.24648
1.6770593,101.57754
1.6421986,97.059364
1.518514,96.50926
1.7088485,96.17621
1.6436085,96.5079
1.5174648,94.52481
1.5990033,95.06784
1.5773076,91.62415
1.4938389,90.92092
1.5172374,90.4823
1.5478241,91.474884
1.4787139,88.88903
1.5247607,84.11273
1.4324592,85.37035
1.5143502,84.274895
1.4928472,82.46868
1.4407104,81.53719
1.5140948,79.5374
1.3708812,79.22411
1.467143,76.43151
1.4070739,76.35406
1.3628091,73.934044
1.3875061,75.21549
1.3061546,71.40635
1.2786659,71.43113
1.2267694,71.08361
1.1925565,67.071976
1.2388506,67.50276
1.1764902,65.813324
1.05173,65.107155
1.0038915,64.41434
0.9892158,58.260036
0.9986253,56.99134
0.88927454,56.817753
0.9523547,55.40031
1.0370581,55.37162
0.8906537,56.804794
0.9616441,52.94009
0.91213727,51.43081
0.92834926,50.49341
0.9115655,49.61313
0.9449837,49.544113
0.8618094,46.90913
0.8758851,45.336407
0.91208756,45.293888
0.9247732,41.506123
0.8701195,41.285313
0.8823821,41.23524
0.789051,43.006844
0.7526568,40.0
0.7299021,40.586964
0.7705497,41.809723
0.746001,43.29129
0.72849345,42.149788
0.67700356,44.5225
0.6150224,41.91034
0.60772353,40.0
0.57775605,40.053265
0.6231071,42.539368
0.5919697,41.444344
0.53371024,46.57988
0.59827757,45.445843
0.5661456,44.73154
0.62734133,51.469677
0.6359811,50.884655
0.753713,54.97277
0.81108344,52.205273
0.74790245,57.38395
0.86737204,55.44782
0.8929468,60.04944
1.0942847,62.940617
1.1145117,66.81127
1.197893,67.01672
1.1958243,70.20601
1.3632238,72.14623
1.3299878,76.37017
1.5173347,78.539566
1.6088246,82.10339
1.6171863,80.31824
1.6507523,83.64853
1.743038,84.79336
1.8110358,88.02521
1.8358625,90.536575
1.8536897,93.857765
1.8563503,96.170876
1.9165691,96.00682
1.8699278,97.47434
1.9350722,99.67689
1.92824,100.83739
2.008846,100.93297
1.9815867,104.99263
1.903271,104.387245
1.9523548,101.75611
1.9536917,104.25992
1.8356074,103.21141
1.8384595,104.57509
1.8881259,103.29657
1.8688308,103.54253
1.8441173,103.64793
1.9143738,102.22551
1.7014846,102.379776
1.7525694,103.80512
1.7700078,102.24819
1.595898,97.39784
1.6345174,98.69733
1.6651391,98.3756
1.5657952,97.578896
1.6854308,96.73535
1.5414431,98.91603
1.562616,93.2887
1.4987589,92.86281
1.5616807,90.44376
1.4843533,88.57511
1.4355631,87.93354
1.3927708,88.86363
1.4514832,85.14142
1.4045852,85.38181
1.4155494,85.36261
1.3786161,80.962524
1.463349,76.46135
1.3352671,76.43813
1.303601,77.81702
1.3453479,77.03148
1.3626105,75.526886
1.33116,73.76103
1.2277418,73.12359
1.2500008,71.87537
1.2781905,68.94545
1.2152207,70.68878
1.1347988,67.80071
1.009165,68.39681
0.9866515,64.070755
1.00472,65.802826
0.9171579,63.77208
0.90671664,61.751534
0.83598113,63.246284
0.8353401,57.357655
0.8167155,55.533684
0.82946575,55.182503
0.75079924,53.55357
0.8506384,50.970856
0.71471226,49.263664
0.769474,49.236526
0.79825693,48.502087
0.78882706,47.883423
0.7727755,46.258003
0.7520916,44.992424
0.7517655,46.726883
0.696858,43.20589
0.71206766,40.186928
0.6834547,41.955875
0.6509321,40.0
0.55261916,42.18181
0.5553221,42.251827
0.5668137,41.783024
0.5081747,40.148766
0.4252847,42.752335
0.4397949,41.85464
0.43880865,41.70675
0.35348883,41.440678
0.3637937,43.970512
0.32052237,42.397278
0.36858428,43.953903
0.31631023,43.87565
0.32372737,48.345646
0.37039402,46.633106
0.3172313,48.766895
0.4224348,52.82118
0.47435486,53.048367
0.4865335,53.204205
0.51406896,59.124783
0.5577444,59.413685
0.68862784,60.85555
0.84528315,67.28856
0.86778575,64.56445
0.93085176,68.46472
0.96361285,73.49955
1.0746175,74.02541
1.1166557,77.00691
1.2043868,80.445404
1.3013858,78.93135
1.348437,83.75596
1.4258695,86.03133
1.472564,86.37396
1.5040718,90.7937
1.429065,91.297874
1.5389127,91.99623
1.5932088,94.85161
1.5902315,96.89802
1.5736305,99.846146
1.5519305,99.34997
1.6258482,99.92723
1.666472,98.32327
1.677313,102.27522
1.5890148,106.23146
1.5331883,104.170364
1.5692893,104.369316
1.5929456,101.11957
1.6319464,107.07629
1.575102,105.698906
1.5130602,103.34951
1.5576518,101.99107
1.4463681,103.64559
1.4278998,107.74271
1.3446237,99.61495
1.463141,100.774704
1.4216784,97.85384
1.327278,97.84656
1.3069963,100.70765
1.236491,99.21403
1.2997164,97.87173
1.1966082,92.73088
1.2361343,95.47781
1.2098997,92.3348
1.1425537,90.51395
1.0849735,89.97608
1.1358812,87.9589
1.1168036,86.841866
1.1285586,84.51204
1.0780917,84.63601
1.084158,83.04602
0.9874763,79.45898
1.0516878,82.19803
1.063244,80.68437
1.0070701,74.568306
1.0509567,77.227646
0.92806315,76.76312
0.8926816,74.037125
0.9483784,72.12339
0.8580077,70.99794
0.77951014,71.24001
0.7767392,69.1526
0.70264375,66.76
0.65768486,64.622574
0.6134961,64.83991
0.593497,58.25434
0.5487191,59.006718
0.54741126,61.94714
0.5233162,56.501087
0.44136584,53.948452
0.4539247,53.79264
0.43938982,54.31387
0.41092408,51.31119
0.4316753,51.20947
0.3218399,50.809124
0.36697546,49.79475
0.31654307,47.056328
0.38751712,47.958984
0.37510452,47.51875
0.39168584,43.50477
0.39441225,47.20951
0.3572888,44.237293
0.27717397,40.292656
0.34281337,40.0
0.26774597,43.1558
0.22525804,40.985485
0.24596669,40.0
0.24233958,40.0
0.1489116,40.0
0.13013078,40.0
0.081735946,40.0
0.12976247,42.350204
-0.012500591,40.22289
0.00058452686,40.0
-0.051679015,44.819443
-0.052294966,45.05819
-0.073094845,45.567307
-0.0065395255,48.567585
0.03222696,49.378384
0.07862353,47.30471
0.0140537135,50.790916
0.10887477,53.23492
0.23496354,54.437916
0.32147068,56.3078
0.29981735,61.299416
0.4455041,60.802746
0.4833509,65.17477
0.6990816,67.04199
0.7351532,68.31935
0.70906115,71.237915
0.795748,73.16499
0.886467,78.16295
0.97977793,79.81321
0.9723264,81.1512
1.079258,83.5469
1.1755127,87.96432
1.1719644,87.18788
1.1530135,87.69191
1.3327364,93.215706
1.3363752,92.78498
1.2322104,96.13158
1.3864192,97.03902
1.2197751,99.86485
1.390012,99.19817
1.3885702,100.533394
1.3941375,102.496864
1.3889228,102.908615
1.4150357,103.03785
1.399648,102.49322
1.3751748,103.73646
1.3231742,102.16747
1.2909632,102.3774
1.2738775,101.603134
1.3601191,105.987045
1.1863496,102.73382
1.2279174,102.53682
1.1534693,101.99264
1.2105279,101.91035
1.1927607,99.91775
1.1319294,100.0054
1.1043782,99.004555
1.1123052,100.306656
1.0101271,94.97244
1.0392992,96.34889
1.0038372,91.75612
0.9743058,92.26647
0.89966494,91.23333
0.97525305,93.83158
0.9698881,87.72875
0.97835064,89.07177
0.92410034,87.05069
0.914612,86.0823
0.83006525,81.98505
0.9131784,81.31682
0.80380917,82.52454
0.95024693,81.39662
0.8709622,79.10772
0.7614362,78.3667
0.8718297,75.79703
0.81545347,73.31431
0.87094057,73.826385
0.7980677,69.656715
0.8172649,69.32243
0.70818096,68.457756
0.61817336,67.122795
0.53620434,69.62186
0.64362013,63.948177
0.490617,64.105804
0.5289528,60.003117
0.5234598,59.949936
0.3744251,58.53018
0.35161945,56.48924
0.47899184,57.05625
0.3869877,56.022243
0.34082592,54.67716
0.32148966,53.660706
0.35883942,52.973034
0.3497608,49.946674
0.38409746,47.740173
0.43059033,48.42279
0.3655873,49.68228
0.40045187,48.471157
0.36757195,47.65791
0.3674206,42.622345
0.42037085,44.1896
0.40773267,41.727894
0.30046383,45.0936
0.2937126,40.71843
0.25875464,42.477547
0.3084106,42.309444
0.23977062,40.0
0.20533194,40.87627
0.12690286,40.0
0.09539134,41.56149
0.065679744,42.848026
0.038579736,43.36964
-0.00019476721,44.92727
0.012834966,42.66687
-0.051933393,44.951096
0.030311229,44.790623
0.1266362,45.596184
0.010560324,49.88648
0.12588109,49.648453
0.18414705,51.86481
0.2662536,54.790207
0.20470119,55.559895
0.27802998,55.947113
0.4886053,55.27659
0.5599741,62.746895
0.5757119,64.40123
0.80602485,67.54435
0.76671666,71.26849
0.8661085,73.49109
0.87971646,72.68557
1.1095501,77.66388
1.0137784,79.50573
1.2878473,80.73354
1.1939137,83.72298
1.2605505,85.719505
1.3452652,88.77925
1.3464708,89.144005
1.5294337,89.20198
1.5340314,91.83784
1.4770334,97.091774
1.4873785,96.436455
1.507167,99.952965
1.5450206,96.31291
1.5841097,99.28431
1.5799359,102.76483
1.544609,102.12533
1.6512482,102.06004
1.5639355,106.57115
1.4964147,102.300575
1.3834522,104.0759
1.5145968,102.903885
1.5125699,104.733505
1.5402622,107.287636
1.4055333,102.78157
1.4115493,102.535545
1.4128392,100.15728
1.4250021,101.89452
1.3134364,101.51634
1.3145499,98.9101
1.2762964,98.72841
1.2836084,97.079956
1.3842921,95.07806
1.4206673,95.40832
1.2488693,93.596466
1.229327,94.627914
1.1568645,89.51307
1.1996399,89.98278
1.195875,88.82198
1.1336315,85.76936
1.1665865,86.866196
1.1894952,86.386406
1.226372,82.97747
1.2334546,78.82239
1.1697001,78.31571
1.1096699,79.58926
1.1316288,77.38234
1.1682416,75.97393
1.0492473,72.983055
1.1529728,73.16216
1.0525675,73.45133
1.1580293,71.931015
1.0120451,71.025276
1.0120037,70.53873
0.9402834,67.48607
0.9287609,66.837326
0.8308323,64.44654
0.7604554,65.15565
0.8001511,59.051853
0.7784137,58.75199
0.89026976,59.963367
0.75974506,59.889977
0.7328091,55.93736
0.7861528,53.591225
0.6949301,56.2377
0.72602534,52.887234
0.71891916,50.762085
0.6585923,49.700176
0.7589951,50.032253
0.735824,47.373146
0.7269503,47.040306
0.75727826,44.10252
0.6655909,43.539764
0.67335165,44.50238
0.67282665,42.91942
0.5903031,43.249508
0.7261344,40.0
0.73311454,40.45868
0.6590639,42.366318
0.57349545,40.0
0.5377917,40.0
0.54459906,42.137897
0.4799447,40.79858
0.49527502,42.21445
0.38118348,40.0
0.41708788,42.66422
0.4859365,45.224712
0.36353666,45.923733
0.3812504,43.610767
0.33946943,47.80648
0.42764685,45.152943
0.4386378,50.472702
0.4630293,50.125134
0.553017,52.203045
0.65804833,55.43557
0.60902524,58.645554
0.79185987,56.787495
0.75272024,59.715096
0.89230263,62.083878
1.0276462,65.67629
1.1092235,69.0742
1.1257714,71.91138
1.3337373,74.454346
1.2860113,75.87111
1.4969484,77.62209
1.4448123,81.940094
1.4907906,82.8307
1.5752654,83.55872
1.6282686,85.218834
1.7292271,88.772545
1.7811054,91.01579
1.8411922,94.15239
1.7430054,92.78741
1.776951,98.340256
1.9425409,97.32449
1.912959,98.75502
1.881595,102.27853
1.8824277,102.94339
1.842693,101.24265
1.9368278,103.109085
1.9305139,104.01007
1.8343103,106.6397
1.7725976,103.69092
1.8480202,101.68734
1.8923544,103.45879
1.886975,101.95089
1.8073857,101.666985
1.853365,100.54398
1.7795043,102.98878
1.7965213,100.41374
1.7143108,98.27538
1.7217529,101.93731
1.6661971,98.62412
1.6100675,97.31445
1.7008913,97.83932
1.66569,97.3465
1.581715,95.91903
1.6745902,94.63419
1.5671961,88.3823
1.5250267,89.83218
1.5760195,90.00263
1.5615495,89.55581
1.4947127,84.93004
1.4700023,85.84392
1.4311476,85.05597
1.5236388,85.79456
1.4701339,80.93448
1.428276,81.662445
1.511785,79.742
1.4168531,77.074394
1.3571784,78.68017
1.3525373,75.22644
1.4095587,73.64959
1.3223438,70.500175
1.2978202,72.55747
1.2104796,68.39001
1.3120278,69.38953
1.2255439,66.16352
1.2194996,66.63737
1.0297562,65.03591
1.1313723,66.99934
1.0333784,64.81026
1.07326,62.125908
1.0092002,60.03606
0.98257995,56.54104
0.94171697,56.359455
0.95961076,52.749966
0.92104715,53.434925
0.90987855,51.232025
0.9380864,50.41729
0.949285,46.71672
0.93590546,53.403507
0.8914823,46.18082
0.92343986,46.910084
0.957749,46.33312
0.9129765,44.88294
0.9536842,44.85958
0.9300785,41.993168
0.86524504,42.031124
0.74402416,45.01546
0.85615385,43.324856
0.77597606,40.805435
0.7524548,40.0
0.69256526,40.16271
0.73561174,42.002003
0.6791746,43.290806
0.64283997,40.89466
0.60933006,40.30785
0.633522,41.448193
0.5182766,43.15607
0.43263125,43.597534
0.6009238,45.477314
0.566921,48.969593
0.51427245,49.040115
0.56794566,49.45676
0.63267463,49.6379
0.5470607,52.37146
0.76164967,58.524506
0.7501024,56.775814
0.8247372,61.805393
0.95055056,63.39753
1.0204707,62.46078
1.0818708,65.18428
1.133226,66.63547
1.3595369,70.777565
1.3319529,72.43652
1.4094529,74.5563
1.4737903,76.89647
1.5953245,78.76729
1.7039418,84.82112
1.7279221,83.50362
1.7469276,87.11021
1.766291,88.81394
1.76284,92.74563
1.8115566,92.83789
1.8570896,93.49654
1.923455,94.940445
1.7929087,99.34029
1.9096547,101.329765
1.9259474,97.80082
1.9768991,103.51262
1.955041,99.58253
1.9072343,104.63727
1.9006068,104.61034
1.9491785,104.95678
1.9064931,105.55096
1.850503,103.10436
1.7911378,103.91103
1.8092966,102.944
1.9163913,101.851685
1.7465569,103.94223
1.762908,105.14554
1.7505229,102.4654
1.6970553,100.84748
1.6973819,98.04101
1.57697,96.924774
1.6085082,95.44968
1.5592326,94.41595
1.6379339,97.604706
1.5102412,95.01503
1.4983187,92.1087
1.4680889,91.49085
1.5173441,91.40159
1.5277694,91.364876
1.4314272,86.01012
1.3583672,85.514305
1.3426849,86.31733
1.3821706,85.133835
1.3808773,84.95593
1.3067557,81.224846
1.4022813,79.20683
1.3404896,77.489426
1.3340188,79.552155
1.2737103,74.80008
1.2792526,75.07344
1.2588509,73.42924
1.1197952,71.39142
1.1452953,72.09881
1.1495085,68.963684
1.0936872,67.44982
1.0214152,67.232925
0.9836001,63.74536
0.95547557,65.43212
0.90173393,63.343044
0.88273245,59.237103
0.82806945,58.45467
0.835529,59.04122
0.725493,60.60543
0.7733504,57.874954
0.75537175,57.141857
0.75614387,53.221844
0.71941876,50.105877
0.7725457,49.834293
0.67647356,53.447
0.69878966,50.28575
0.67670834,45.20903
0.71062106,49.123905
0.72286326,46.314194
0.6458924,45.4027
0.60079896,42.132614
0.58861053,42.922527
0.6300371,41.043556
0.5852443,45.54148
0.5120827,43.16342
0.46428472,40.0
0.5063815,40.88195
0.39704627,42.54737
0.32881448,40.201736
0.39493912,40.93473
0.39059904,44.867474
0.28366926,40.0
0.2964409,44.56941
0.2435583,41.780502
0.2121674,43.788338
0.25530446,46.783062
0.1914848,47.32632
0.3294105,47.06291
0.3513115,50.193256
0.36323488,50.954308
0.38247454,53.89695
0.5105465,54.902058
0.5632553,58.103992
0.5502855,58.698547
0.649309,61.235043
0.72501105,65.43546
0.89758885,66.705505
0.96977913,67.02538
0.9952327,70.75868
1.0507373,73.14876
1.2089287,77.93124
1.2131244,78.52955
1.3207319,79.759445
1.323591,82.268265
1.3609107,81.81768
1.379178,88.12411
1.444647,89.04479
1.541137,92.07641
1.5040796,91.26001
1.4165773,96.83947
1.5734465,97.58985
1.573534,98.84249
1.6102949,97.73237
1.5874549,99.46325
1.6477439,103.57055
1.6140275,103.34556
1.5557193,104.26948
1.577321,103.94937
1.5953903,103.10517
1.5038364,104.6752
1.4855151,106.16098
1.5048431,105.531815
1.4953169,102.085175
1.4448141,102.17263
1.3671697,102.3888
1.3734972,103.01968
1.3274821,100.39958
1.3461914,101.81066
1.3050914,100.46883
1.313325,97.50258
1.262267,96.33603
1.2009356,97.65736
1.1461569,94.57423
1.0990521,93.695145
1.1129184,95.196495
1.1892786,90.34583
1.1009241,92.85851
0.99980456,89.15341
0.9565621,86.08684
1.0127295,87.19102
1.1127282,82.366005
1.025664,85.47633
0.97598827,82.54762
1.01635,82.22041
1.0444181,79.01036
0.9566186,77.71708
0.9262424,78.13029
0.9358666,77.51705
0.8684226,74.53032
0.9106558,71.53811
0.8814153,74.512405
0.80110574,70.48584
0.7961769,67.29695
0.7000013,67.29264
0.6365084,65.87662
0.632198,64.38299
0.637133,64.19824
0.5375012,63.10258
0.51724684,61.795628
0.5292762,58.05313
0.40319663,58.012302
0.46854296,58.367657
0.35609347,53.825855
0.45948735,55.1308
0.3459728,54.377785
0.36054316,52.044415
0.3832834,48.341156
0.43924093,50.35627
0.36587805,49.02798
0.39494583,45.28386
0.293597,45.911987
0.32399166,43.48259
0.3565226,43.37126
0.34251472,46.294273
0.32460818,42.298
0.33683273,40.0
0.32665476,42.650005
0.25350812,42.108295
0.15562339,40.0
0.20324886,40.0
0.125294,40.0
0.17182437,41.360603
0.0891432,40.591812
0.10271622,40.0
-0.082926534,43.613853
-0.07475601,40.0
-0.015076337,44.413982
-0.039894503,45.89877
-0.029566957,45.69396
-0.045784537,48.589188
-0.06861373,49.311844
0.09998026,49.530357
0.12914239,51.936054
0.14745697,52.9148
0.25103915,56.448658
0.23806165,57.992508
0.3206086,61.324455
0.418562,61.525776
0.4869935,64.486115
0.5565182,66.64824
0.7177753,70.173035
0.7042858,71.268524
0.8186059,76.477936
0.8237206,78.00191
0.9935654,81.923706
1.0689745,78.78154
1.019026,83.467606
1.1032292,86.758766
1.1695148,89.62606
1.2673299,89.848145
1.2128823,95.92898
1.2426144,95.98945
1.2408265,92.92152
1.4370619,96.86893
1.3111994,98.56276
1.2980815,100.359924
1.3959602,100.85196
1.2338859,103.09641
1.3548446,103.05924
1.3932811,103.546814
1.3735214,104.01797
1.3388844,104.27854
1.3747436,102.3823
1.3177683,102.711235
1.3297145,105.57518
1.2838926,103.240814
1.2677062,104.34975
1.2435727,103.160614
1.2318525,100.89158
1.2453125,99.70923
1.2343944,101.76571
1.143097,98.6952
1.1859555,97.2955
1.1068956,98.52078
1.0892789,96.24143
1.1787283,93.82546
0.93702155,95.309586
0.98710644,93.0242
0.9254141,92.16132
0.99614245,89.88868
0.9946197,88.85157
0.90240526,85.029175
0.9410447,85.54961
0.9217466,86.457344
0.9165535,83.88214
0.8286936,80.58619
0.93332,79.7328
0.90361303,78.097916
0.88991654,77.72277
0.90711236,76.70999
0.76591116,73.495094
0.841006,76.91171
0.83053356,72.096855
0.7381648,68.72196
0.70345324,71.43334
0.738167,71.07749
0.66837347,66.65761
0.63654864,63.39867
0.65647733,66.44199
0.6033277,63.322636
0.54760617,65.2169
0.502087,63.19202
0.545078,63.141712
0.44488254,56.834785
0.39076325,55.240192
0.50393546,56.2153
0.3552704,54.1974
0.39172232,50.480072
0.3943387,52.76907
0.41006878,50.387203
0.34992242,50.189175
0.41091678,49.020393
0.3466435,47.374443
0.34568113,44.755573
0.47153282,44.160175
0.3813116,43.058865
0.42958456,43.88366
0.3476803,42.94805
0.37208927,45.491985
0.30796897,43.144978
0.2862758,42.486614
0.23470646,40.0
0.2226297,43.37745
0.15806915,41.192253
0.17284243,42.878796
0.10161564,41.490143
0.15067859,40.0
0.17409769,41.28252
0.04741994,42.716183
0.109001614,42.71521
0.07571509,46.43835
0.16109103,48.5047
0.111206755,46.383736
0.18456411,47.900093
0.23841596,52.629704
0.21333827,54.314117
0.26337346,54.052094
0.35772008,56.302696
0.49151105,60.16782
0.47113922,61.0307
0.5695528,62.47711
0.6801872,62.812294
0.7358152,71.76236
0.8813027,69.67897
0.99235344,73.16301
1.0332928,76.90099
1.0200373,77.326126
1.1913623,80.767105
1.2550293,82.98476
1.3422512,84.328735
1.3220792,86.437
1.4697814,86.47245
1.4288965,91.48194
1.5063516,91.44137
1.3997582,97.580894
1.578485,97.63545
1.6486086,96.84453
1.5341494,98.08966
1.5792288,99.70037
1.621806,99.02246
1.605195,100.80725
1.5327022,99.02409
1.5444144,102.96742
1.586053,105.08081
1.562688,104.11607
1.5128162,102.983826
1.5607555,101.13983
1.4703814,105.17843
1.584895,107.853745
1.5019702,105.543625
1.5991338,102.89528
1.4217035,102.47068
1.4934286,101.79044
1.4772706,102.25165
1.4086262,103.50165
1.3970582,99.06853
1.4642857,92.4135
1.2658168,96.53242
1.3157917,94.44965
1.4072615,95.42639
1.2617087,94.781296
1.2656118,89.11229
1.2188541,89.66426
1.193881,87.419876
1.2890308,85.471825
1.2125708,83.317924
1.3151315,83.83364
1.1659217,82.23761
1.0995114,81.05854
1.2760539,79.67156
1.2745823,78.10606
1.2175219,75.830444
1.165242,76.29139
1.1477638,75.086426
1.2005811,70.96143
1.1509051,72.206665
1.0712312,69.614655
1.0273057,67.24614
1.0591216,68.10545
0.9123943,66.60221
0.9979415,65.114845
0.9574469,64.42002
0.9153665,61.42151
0.8605678,60.654755
0.8706445,59.063843
0.81761956,59.59659
0.7719599,57.64262
0.8325436,57.72627
0.7680022,54.798683
0.7326951,54.130634
0.7218796,52.130497
0.7462272,49.502766
0.72345704,48.481506
0.68044764,49.291668
0.7982351,45.603607
0.77268404,51.006847
0.7048358,44.698795
0.6380277,48.332
0.66820943,45.156254
0.7804781,42.94111
0.79170847,40.0
0.69853836,42.692554
0.6721807,40.414948
0.70052534,41.073322
0.67274976,40.94856
0.51153576,41.754322
0.6380042,42.20716
0.48956913,42.618847
0.5011177,40.380154
0.4252316,40.914936
0.4698585,44.132328
0.5623999,43.153553
0.5159886,43.28113
0.43857688,42.626404
0.43237108,47.587193
0.50541896,48.920387
0.5709491,47.329155
0.51021475,49.498627
0.5780335,53.757664
0.7221406,53.53734
0.64161295,59.128872
0.7128046,61.6081
0.9503384,62.2225
1.0693979,64.773476
1.001503,65.80089
1.1624074,70.59939
1.1938858,69.99322
1.2900493,71.43213
1.4186865,77.616646
1.4921416,78.18829
1.5342797,81.174774
1.523373,82.84995
1.6016409,83.97838
1.7183712,87.18994
1.7999347,90.004425
1.8905951,90.6188
1.7690691,94.03207
1.8385961,92.79386
1.8434443,98.75188
1.8857415,97.73325
1.965777,100.37929
1.9399403,102.882774
1.8248442,100.899185
1.9815395,103.44407
1.8849912,105.35201
1.8687775,105.244896
1.9528575,106.42163
1.9226801,103.85479
1.9469726,101.932
1.8619461,104.83781
1.7910286,102.406876
1.8658358,103.88513
1.8711208,102.13416
1.8321006,103.24058
1.6837937,102.075836
1.7543538,101.82787
1.6773472,98.35575
1.7262801,96.5837
1.6874385,96.22729
1.6127806,95.955414
1.639722,92.55673
1.5759873,94.22918
1.5747361,91.983406
1.562967,92.94207
1.4908546,91.430756
1.5117822,91.0634
1.5253209,87.624084
1.4849472,87.45782
1.4872342,84.22691
1.4454001,84.25807
1.5831546,83.43929
1.5218292,81.15534
1.5471233,80.54382
1.4105378,78.65332
1.5078614,77.816505
1.3706262,75.34286
1.4458203,75.39578
1.3952419,73.77459
1.3667554,71.42326
1.3164616,71.0065
1.2839842,70.49138
1.1504756,67.40803
1.1257448,68.09011
1.2109717,67.27904
1.1016481,61.39221
1.1499947,63.941082
1.0304383,59.99941
0.97675115,58.435986
1.0546546,59.305622
0.98910177,58.284187
0.9777926,55.60892
0.8967698,58.01175
0.9026714,52.831425
0.89523035,50.73917
0.93221754,50.656097
0.8808149,50.503864
0.89175236,47.447536
0.957746,43.663723
0.87446845,46.709816
0.93200505,46.858505
0.91061056,44.541496
0.9707911,41.556194
0.9225191,44.119114
0.80053025,42.425823
0.81157464,41.385845
0.7909358,43.6257
0.73423845,40.171608
0.66942215,40.0
0.72471017,40.0
0.6590221,42.721954
0.5370302,44.18913
0.572963,40.0
0.57418245,41.299385
0.49410668,41.51605
0.5691027,44.107452
0.51618475,43.15172
0.5418102,45.376938
0.54114,49.097218
0.5707805,49.076996
0.6034584,48.02356
0.5569427,54.21009
0.7055684,56.943806
0.6652033,55.35972
0.75332487,57.047237
0.92257714,60.019695
1.0000328,66.03192
1.0179855,64.56245
1.0860932,66.44833
1.0926572,69.74767
1.2944914,70.78739
1.335814,78.60803
1.419107,77.13522
1.5178922,80.31421
1.6140692,82.88497
1.687493,80.74305
1.594253,87.16714
1.7011284,89.0204
1.7015173,89.334496
1.8341138,93.44208
1.8336372,93.825485
1.7700292,95.70714
1.8091182,96.57763
1.8198023,94.58505
1.8459365,100.480156
1.9154882,100.38407
1.9402686,100.107925
1.8394178,104.55602
1.8540605,102.54546
1.8883374,102.68495
1.8949398,103.0305
1.8058805,106.532745
1.7643763,102.975494
1.7671654,103.5219
1.7762859,104.21285
1.8409362,102.4927
1.7416918,107.72632
1.6988447,101.91628
1.6330663,100.32206
1.6584725,102.34232
1.6734362,99.52531
1.5470824,98.212944
1.5652325,101.37166
1.4746841,97.888626
1.4718198,94.74922
1.5601431,93.34343
1.500479,92.49003
1.4775892,93.01624
1.3909047,91.03991
1.4330863,89.70449
1.439819,86.00268
1.3511683,83.39991
1.357029,82.18708
1.325111,84.69105
1.3424319,83.85879
1.3331461,80.38819
1.2991037,79.95557
1.1774071,78.2984
1.2539496,76.749954
1.2875643,75.70918
1.1756884,75.73844
1.2198527,70.43473
1.0936952,73.92848
1.1865956,73.33137
1.0736685,71.16148
0.9194852,66.98792
0.961994,67.99843
0.8729923,62.364826
0.97803533,64.409225
0.8036335,62.964912
0.84002507,60.455418
0.8040809,59.5126
0.7988932,57.683895
0.77795637,58.6432
0.7003985,55.778065
0.76168704,56.25767
0.7250206,53.947773
0.5840672,51.392258
0.7508363,49.710033
0.6419082,50.000103
0.621279,48.17178
0.68243325,45.868656
0.6721984,47.471466
0.6596486,45.65043
0.6561715,44.679096
0.5693616,43.024925
0.541379,43.269474
0.46490484,43.638767
0.49102506,40.61127
0.5851761,42.641792
0.37080622,40.0
0.4494373,40.0
0.3378777,42.26019
0.344475,42.485043
0.3033826,40.0
0.2963078,42.186726
0.2975359,44.29202
0.2108252,43.131176
0.18754174,42.98601
0.16708201,43.4514
0.28502125,44.8179
0.28418586,48.269024
0.1842782,51.383434
0.28133404,50.894062
0.30402118,51.901375
0.44990143,56.138947
0.3974803,55.581955
0.51768726,56.76814
0.5526493,61.043312
0.66865367,61.255028
0.7199574,65.669586
0.71059436,67.28022
0.88798946,67.48398
0.9926183,72.93491
1.0619538,77.55333
1.1034875,73.80573
1.1634709,79.34568
1.3035374,81.2286
1.2246631,85.15671
1.3097667,86.61938
1.4782066,88.022705
1.4479234,90.200645
1.4838011,90.59685
1.5005827,93.4725
1.5025154,95.81716
1.5024786,96.442924
1.4382347,97.69041
1.4176357,96.46294
1.4855821,99.31413
1.4687386,102.12814
1.4929146,102.423836
1.530081,104.8951
1.5235037,103.53276
1.5150106,103.35523
1.4238136,103.89002
1.4522176,106.99775
1.4441073,104.15869
1.4323041,106.22231
1.3818188,104.2566
1.3757213,103.457565
1.2913495,100.32599
1.2759987,101.59222
1.3311398,98.97673
1.2433755,100.4877
1.2547213,96.96643
1.1200761,98.93924
1.1389822,96.97473
1.2334442,92.68081
1.0613704,93.9108
0.99286586,91.058846
1.1260103,92.420006
1.0577883,88.14272
1.089383,91.765854
0.98828006,87.67429
1.0063705,83.54859
1.037994,83.702866
1.0172881,83.71486
0.978038,78.155914
0.8681207,81.5783
0.80484325,78.21964
1.0115771,78.58401
0.86728495,76.43923
0.8486759,75.93925
0.8784163,73.39719
0.8605146,72.98122
0.7724853,72.70108
0.7611365,71.24577
0.7580151,70.23731
0.6463528,68.01153
0.62018913,68.133224
0.5764158,62.953133
0.57594347,64.99324
0.46606582,63.021603
0.4688499,60.694252
0.47997162,60.427982
0.41217244,58.121784
0.38524303,59.800747
0.3563253,54.451157
0.42857876,53.786003
0.44492278,51.78084
0.32803345,49.789204
0.38979664,51.889946
0.3642638,49.35521
0.30600762,46.670017
0.40305424,45.258472
0.3036298,45.573223
0.32359114,45.309437
0.26236862,44.16098
0.393565,40.776505
0.31763896,43.60141
0.27587548,41.51885
0.28159356,40.69591
0.20583265,41.02088
0.18516496,40.0
0.12346457,41.016937
0.06897205,40.0
0.033992648,40.0
0.073075585,40.777863
-0.031940106,40.0
0.009196289,41.187855
-0.081891246,44.501915
0.029328052,42.991627
0.004069202,47.98417
-0.091397785,45.26529
0.004861269,48.37524
0.052358143,52.157047
0.13799775,51.132828
0.11675591,55.06749
0.14602414,53.03739
0.2123222,56.12611
0.25310808,59.554447
0.40753254,60.25358
0.47767097,64.81807
0.4726561,68.43555
0.6498722,67.86817
0.6358361,70.937004
0.737118,74.222466
0.85873204,73.29877
0.934508,77.92331
0.97434956,81.890755
1.0521034,79.9707
1.1224405,85.209305
1.1406705,87.78589
1.208686,90.33325
1.1944741,88.91519
1.2336394,91.29107
1.2956755,94.478386
1.263994,97.76317
1.3714274,97.00343
1.4171941,100.022644
1.3546425,100.01755
1.2930167,101.52468
1.4073453,104.850105
1.4283582,101.86026
1.4153894,107.013596
1.2950652,104.79342
1.3644087,103.63235
1.3734318,104.52906
1.3657012,106.03561
1.364264,106.38719
1.2942873,103.745865
1.176801,103.791725
1.2625197,102.95195
1.2249624,98.07513
1.2165343,99.96082
1.2258701,98.53694
1.1499634,98.09637
1.224665,97.61447
1.0648731,97.03223
1.1066785,94.75284
1.0848612,95.569664
1.0219445,92.76783
1.1261384,94.26009
0.9907087,92.11903
0.9843728,90.5958
0.93916637,88.91773
0.9196184,88.30992
0.92918795,86.55443
0.91282856,82.34795
0.92288387,83.70912
0.93570566,79.39384
0.8834383,80.20193
0.9513129,77.96678
0.9278119,77.92281
0.8240326,76.16771
0.8613868,73.93352
0.8445738,74.05668
0.84737206,70.279274
0.7210713,70.965675
0.6954411,69.20491
0.7172159,66.95032
0.7619641,66.60166
0.72818464,63.341743
0.6367443,63.489838
0.5639404,65.08681
0.47296235,63.052254
0.45616725,60.296097
0.45587662,58.261818
0.5027254,58.166084
0.5460967,55.500927
0.38417503,55.858368
0.43881005,55.081142
0.38027728,54.430542
0.49851668,51.488884
0.40461323,52.205956
0.4301913,48.221977
0.4547953,44.6766
0.48661047,47.4539
0.41694793,45.063694
0.36602756,45.778767
0.30482796,42.69399
0.39723358,44.277622
0.41085908,46.11439
0.3966031,40.0
0.33780703,40.058784
0.22835039,40.0
0.3056484,41.69407
0.22166015,40.15326
0.28531775,41.114407
0.15983482,40.19993
0.1411069,42.808563
0.15426642,42.558784
0.11691918,40.771954
0.1513793,43.395275
0.1538716,42.706528
0.07294246,45.73324
0.015862186,45.902573
0.18024378,48.084934
0.33334085,50.07556
0.25672215,52.103714
0.27604303,52.22876
0.37548387,56.301872
0.47977102,57.223595
0.5468164,57.552177
0.5240246,59.207985
0.7241768,65.313835
0.71475434,65.591225
0.8091723,68.07971
0.9877805,69.15687
0.9035447,74.52695
1.1126908,75.858765
1.1271324,78.69291
1.1319673,81.40513
1.3523097,81.51821
1.3612287,83.26697
1.388551,87.03185
1.4262152,90.90065
1.468134,89.526375
1.5625558,91.98047
1.5427588,96.14755
1.6277528,98.67815
1.6464908,101.564545
1.5986732,99.93954
1.6607121,96.0036
1.6895592,99.37841
1.601354,102.84439
1.707229,103.710266
1.6561346,103.49495
1.6224524,105.25231
1.6294795,105.848526
1.6191703,104.485
1.5267825,104.266304
1.6800088,103.28045
1.6394109,103.11141
1.643756,103.781105
1.5771431,102.874535
1.4490292,101.042435
1.5173734,102.411255
1.532196,98.881355
1.481267,97.606636
1.4101206,96.607155
1.4186063,96.00651
1.3950932,93.86133
1.3588071,93.02832
1.2690032,93.73207
1.3030474,89.47039
1.2871062,91.27493
1.2398651,92.784134
1.2081475,89.30428
1.2847075,85.50203
1.3348298,90.185455
1.3704009,84.25659
1.3059033,81.973854
1.2202884,80.3974
1.3182427,83.56366
1.2750735,78.29849
1.274173,78.32046
1.1952935,74.81001
1.1843147,74.79218
1.1978692,74.32858
1.1145997,71.3839
1.1375237,72.36947
1.1290329,68.72322
1.044072,65.84978
0.969873,71.27582
1.0141677,65.26571
0.9814106,64.52098
0.91357476,63.5059
0.82465893,58.759808
0.8803916,58.89905
0.91864467,61.64384
0.9091395,57.553425
0.7692588,53.98871
0.8172013,56.119778
0.7895504,54.301224
0.7830003,53.346806
0.80283433,49.051735
0.77663153,50.99803
0.6986274,47.71838
0.79339683,47.430702
0.85300165,46.84083
0.7363204,42.45783
0.7469261,41.621506
0.7788364,43.770527
0.7872478,44.841625
0.7209405,41.47882
0.6952526,44.003017
0.6745001,40.46941
0.69799066,40.0
0.70942,40.0
0.66821223,40.0
0.49980494,40.043655
0.65571713,40.305954
0.5980502,41.883568
0.51828194,43.77615
0.5135472,44.332355
0.50986403,42.161392
0.5118169,43.62175
0.55440587,45.635002
0.48187295,45.020035
0.5028136,47.90656
0.55299413,50.92763
0.59209186,51.7509
0.72019,52.11715
0.688779,56.051453
0.88856536,56.40842
0.84717274,59.040104
0.97373414,62.942165
1.0712686,63.50042
1.0833907,66.59917
1.1581976,67.67345
1.2340933,71.12544
1.4061989,72.6124
1.4560071,72.985
1.5171387,78.790535
1.5644791,80.11117
1.6620063,84.34634
1.7093487,86.083984
1.7938232,90.789825
1.8277506,90.25356
1.7533059,92.55839
1.8184267,91.45053
1.8896178,96.58359
1.9268122,97.79457
1.9430789,99.91552
1.9062178,95.70156
1.9596019,103.854126
2.0158863,99.54991
1.9719754,104.176605
1.988829,100.44263
2.0612898,105.32099
1.9249338,101.181595
1.9244074,106.85706
1.8806113,105.203766
1.8907143,99.97956
1.9055388,102.22452
1.8787404,103.91477
1.8105363,101.57219
1.8466153,101.41197
1.7310531,100.64125
1.6979693,97.99051
1.6704657,99.43053
1.6802865,97.9094
1.7911898,97.506744
1.6770184,98.24712
1.6347584,94.98362
1.5264655,93.22714
1.586812,91.27063
1.5675732,91.43935
1.6257554,92.11309
1.5847749,90.083015
1.4937434,88.555855
1.5540872,86.17699
1.4911082,83.95765
1.4604967,82.20819
1.4322965,83.57005
1.4115776,80.482376
1.5004973,80.24279
1.4385909,79.93543
1.398344,73.73652
1.332004,75.43557
1.4016128,72.51728
1.3341119,68.72068
1.350648,71.76229
1.3309759,70.24212
1.251941,68.87857
1.1986029,66.80102
1.2320616,65.866776
1.1378418,68.89177
1.0765613,65.211876
1.0706513,61.686302
1.045131,59.03067
1.0680469,59.52081
0.92122287,60.403526
0.88544065,55.39984
1.0088565,57.00773
0.94053185,55.475716
0.8594777,55.318695
0.8626091,51.976635
0.9517568,49.161217
0.8990554,49.350872
0.93938315,47.622765
0.9428642,47.67835
0.91428834,44.05463
0.8197451,44.20063
0.8936013,45.3363
0.88848156,40.38358
0.8859996,42.72594
0.8148729,43.032036
0.7996418,40.0
0.75456244,42.924812
0.80987364,42.01072
0.63372463,41.444763
0.6274281,40.0
0.54936343,40.28427
0.586512,40.74133
0.52431965,40.0
0.49689957,43.50697
0.5472132,44.247623
0.52305245,42.0412
0.5147215,44.50273
0.5635003,45.937523
0.5689835,47.73168
0.5511862,48.543423
0.5577282,49.0565
0.5963419,54.59149
0.6410364,53.464195
0.7149484,58.0121
0.7893635,55.92293
0.8807031,62.34227
1.0400987,64.85227
1.0044937,66.54578
1.2171593,68.43096
1.1846025,72.38293
1.2945064,70.01907
1.410692,75.19864
1.4262992,77.92785
1.5306121,79.32459
1.5004766,81.02082
1.619421,84.41805
1.5971905,85.12797
1.7798046,90.440094
1.7558157,90.44647
1.7575835,92.28883
1.8290064,93.884796
1.7878017,95.12042
1.8238074,96.89785
1.8885998,95.82335
1.8606956,100.8886
1.8033452,99.08079
1.8549689,100.893974
1.8601301,105.30056
1.8376158,103.21785
1.7768542,104.35201
1.7832649,107.76749
1.7903763,101.92899
1.7970134,103.51766
1.7754866,104.01912
1.6631161,105.434395
1.6978023,102.59349
1.7286974,102.15153
1.6514837,103.58835
1.5222863,100.05031
1.6701019,99.97323
1.5764823,99.14021
1.4893848,100.80401
1.4642122,96.559235
1.513445,93.65712
1.4696513,95.181755
1.4522833,95.907745
1.4454299,88.68493
1.4368516,91.22359
1.2802896,91.93412
1.3765116,85.79976
1.3211206,88.1637
1.3538198,84.18975
1.2787005,80.70634
1.3001568,82.73718
1.2288567,82.94993
1.2993996,81.06966
1.1839128,79.731865
1.1489159,79.37558
1.2117965,78.40175
1.2159095,76.56859
1.144154,73.85972
1.1423132,70.383446
1.0718192,69.86935
1.0772934,67.145035
0.957502,67.23287
1.0124873,67.80263
0.9174765,68.51071
0.7906012,65.37249
0.83256745,63.846176
0.73197675,62.1051
0.749486,61.670696
0.78296065,60.369877
0.67167366,59.29816
0.69771695,54.113945
0.65016323,53.21796
0.6152155,54.39179
0.5920363,52.899334
0.64927614,52.59513
0.61284465,49.631054
0.61387503,48.71465
0.47868308,47.68329
0.5596649,46.98017
0.6325238,47.42969
0.572152,43.152393
0.56885546,43.5211
0.5709592,41.56522
0.6431248,42.73257
0.536751,42.41706
0.43813697,43.499645
0.51403546,40.0
0.436788,41.086258
0.37868997,40.0
0.29314196,40.0
0.35005254,41.57978
0.24228984,43.00635
0.23293656,41.03555
0.31485632,44.675053
0.11137641,44.364246
0.1495486,45.948914
0.16559419,46.11178
0.19593044,46.700603
0.15574478,48.055035
0.12053142,49.062565
0.19550833,50.65748
0.29714966,49.872826
0.30674008,56.001694
0.37644923,57.48333
0.40296686,59.328003
0.53052753,61.05155
0.6432393,63.96075
0.69306004,66.44371
0.81000596,67.80294
0.96402,72.14746
0.87348056,74.75023
0.99618936,77.418915
1.0573721,75.61763
1.2217758,77.74341
1.2653555,82.27776
1.249674,85.66311
1.2731217,88.18537
1.3297563,90.63183
1.4108257,93.21613
1.4096974,89.38669
1.4514476,97.65255
1.444134,95.0245
1.5515914,96.34327
1.4315407,98.031364
1.4930117,101.711266
1.5457126,100.18228
1.5515534,101.84979
1.5460427,104.361145
1.4625114,106.16968
1.4192767,104.40178
1.4284517,103.13419
1.4927759,104.95534
1.3917786,103.729805
1.3349366,103.113785
1.3554014,104.49003
1.284804,103.01002
1.3490055,103.38938
1.260265,101.4174
1.227527,99.29466
1.1754084,101.3352
1.1307869,99.266685
1.1235576,100.18892
1.1644474,99.26712
1.1031927,94.55542
1.079447,95.82762
1.0695862,93.0039
0.97413146,90.74584
1.003387,91.90525
0.92349017,89.27493
0.9768551,89.44541
0.9575842,86.31798
1.0664625,82.872826
1.0393037,83.05574
0.93347466,82.55391
0.9717043,81.44566
0.8834494,80.36277
0.8896824,77.61903
0.84927756,76.62897
0.8112122,77.41347
0.82442653,74.22473
0.78043056,72.74697
0.7043765,72.56924
0.67938644,70.38997
0.7748355,69.23224
0.6922591,68.202896
0.60621125,66.08166
0.59713,65.48752
0.6206589,66.89245
0.48342872,65.394165
0.49109396,60.678326
0.3960863,60.60388
0.45352972,60.701653
0.38207144,58.743603
0.47494885,57.679028
0.3788334,56.537395
0.42058277,55.982914
0.38485038,52.81251
0.40862915,53.10302
0.34150046,48.517986
0.34377465,48.21842
0.33472514,46.23061
0.37305015,44.94684
0.31103775,46.77006
0.32342356,45.824726
0.35803777,46.388245
0.29904732,41.88781
0.26287892,43.319134
0.16867417,40.967724
0.27658218,42.258274
0.29373592,40.0
0.17109774,41.576176
0.06840371,40.778824
0.119147606,40.17493
0.03811788,40.0
-0.02967478,41.010983
-0.09763062,40.0
-0.044700637,43.535664
-0.0807631,43.848866
-0.059826516,45.56584
0.0006279288,48.419888
-0.06966943,46.12808
0.0027837753,48.916084
0.019993672,45.80582
0.08861977,51.212708
0.13865694,51.613586
0.13775907,57.081947
0.23289318,57.848003
0.34546348,59.108337
0.38526452,64.878204
0.39572158,64.52333
0.5996897,65.60092
0.7232406,72.210434
0.67349064,68.50931
0.8428421,74.75896
1.0041757,76.47696
0.9490743,80.75111
1.0692695,80.809
1.1382416,84.89289
1.140081,87.43872
1.2212721,87.486626
1.2275201,88.83504
1.3092667,92.72111
1.2719027,91.2731
1.2985141,94.18236
1.3179296,96.07138
1.3631948,95.204445
1.381193,99.975784
1.3872015,101.34427
1.4372793,101.19548
1.3608205,104.558044
1.4220054,101.55139
1.4567833,101.18292
1.4093369,103.68953
1.3463022,103.878334
1.4148427,103.98865
1.444358,103.348465
1.3346953,103.30393
1.317522,104.50146
1.2704347,102.94257
1.2611339,103.03102
1.2119825,98.00348
1.252197,102.18108
1.1545899,99.229004
1.1663225,97.99189
1.1940415,98.27606
1.1018661,96.26825
1.196285,94.40699
1.1007167,95.949196
1.0235394,92.92515
1.0093153,91.34304
1.00987,90.70807
0.9150321,90.53667
0.9945732,88.24223
1.0336382,85.535225
0.99363494,83.4151
0.97992694,85.8829
0.93198603,82.089066
1.0217391,81.79122
0.90701264,79.886955
0.9666102,79.33212
0.8359693,76.795815
0.9626065,77.35588
0.8635007,73.377754
0.88481545,74.384735
0.8646518,69.92761
0.86199224,68.322205
0.87273705,70.15327
0.6583324,65.75887
0.7732578,64.38155
0.6863033,67.46739
0.7144353,64.87362
0.6422702,62.625652
0.57286304,61.401596
0.523485,59.31729
0.6020729,60.11523
0.51839364,58.973583
0.41847178,57.66545
0.49055994,53.443966
0.44111592,49.22678
0.53824717,50.852036
0.4734211,50.575775
0.37108856,51.465008
0.49965698,50.564114
0.33963248,48.598114
0.38205627,45.650856
0.5610553,44.34033
0.5304911,43.01014
0.45077515,41.81958
0.42263746,41.38592
0.35066584,40.0
0.39806667,42.45676
0.4125547,40.0
0.40264198,40.0
0.34371525,41.75053
0.26247957,44.559715
0.21194594,40.10849
0.27713102,40.0
0.19748455,43.39867
0.19378449,42.059166
0.2509405,40.66895
0.16457611,41.38917
0.15328246,45.689606
0.21971643,47.456417
0.20850481,48.221977
0.20938991,47.94328
0.38590652,49.978584
0.31730884,53.794678
0.37361935,52.19919
0.40049466,54.5306
0.5603073,56.801876
0.66416085,59.392723
0.67389387,64.78404
0.74974793,66.73495
0.91771746,68.6285
0.90065897,71.0136
0.9783822,71.55369
1.1117457,73.79138
1.2101495,79.493675
1.2035886,81.09828
1.4129121,85.10686
1.3573611,84.62725
1.465273,87.60363
1.4740789,89.302315
1.5199621,90.90363
1.6271366,93.34452
1.5577209,95.72949
1.5657157,97.42039
1.6248611,99.371
1.683553,98.236824
1.6724181,101.90379
1.6777455,99.42066
1.6515551,102.50434
1.6541362,101.41015
1.7452861,103.92386
1.6852717,104.5338
1.5926492,102.24285
1.7306575,102.46302
1.7194475,100.59265
1.6572657,106.20224
1.682372,105.26452
1.5956951,103.50512
1.628276,100.186775
1.5833483,101.84903
1.5493498,102.616974
1.5242224,103.1543
1.5084224,100.19592
1.5298052,100.579765
1.4620903,97.444
1.4937707,100.75935
1.3689473,95.382
1.3925984,93.2449
1.4233172,93.175934
1.4303285,90.351654
1.4295682,90.80967
1.3750163,90.9896
1.3592956,87.2662
1.3855387,86.092834
1.3300424,84.38651
1.3238187,84.554695
1.2746234,83.26775
1.3730354,79.82594
1.340363,81.72335
1.2948674,77.91791
1.3512937,79.95371
1.2296079,75.650276
1.2870721,73.983795
1.2587357,73.57433
1.1546777,69.90311
1.1794825,69.138885
1.1166953,69.41583
1.0702344,65.64071
0.99270296,65.64322
0.96739,65.1785
0.98813874,64.25064
1.031199,62.819904
0.9271286,62.534885
0.8921316,60.236942
0.8570209,61.64518
0.8393981,57.157173
0.84931004,53.37274
0.8740061,53.6755
0.8263601,52.673214
0.7836754,53.064693
0.82492757,52.04078
0.7940741,50.598213
0.8326749,48.388123
0.86275905,46.816032
0.80374515,44.139267
0.83903176,43.890587
0.7854343,44.090324
0.7232797,44.50676
0.8305049,44.209507
0.7972623,45.484196
0.8367968,41.254547
0.75945216,41.656994
0.748473,40.801006
0.65923196,40.0
0.6229758,40.0
0.61111414,40.446056
0.525376,43.391777
0.45246583,40.734577
0.5814668,40.13667
0.47484106,44.6454
0.55844593,45.042683
0.4638036,44.132412
0.51617426,44.2073
0.58931136,46.844135
0.48697653,47.478676
0.60663384,53.764973
0.6704688,50.149723
0.713882,54.798073
0.7710861,55.843678
0.91680706,55.16755
0.95331967,61.05168
0.94628096,60.650513
1.0455626,65.12426
1.0792203,68.24826
1.2612845,71.7055
1.3232484,71.35522
1.4280047,76.07394
1.4559363,76.16636
1.515315,79.923965
1.5370005,82.43854
1.6251696,84.80801
1.7223389,85.86032
1.8340721,89.36277
1.8192677,90.57511
1.8659506,91.22648
1.8958989,91.862366
1.8532699,96.78084
1.94394,97.404274
1.8365961,99.32658
1.9392574,99.55143
2.0250447,101.26137
1.9871951,105.11743
2.0105155,98.17235
1.9429935,104.65796
1.938593,104.01631
2.0285594,102.667305
2.008832,107.07618
1.8843035,105.06016
1.8472272,103.12837
1.877855,100.59901
1.8478526,102.48578
1.890668,102.074196
1.816716,101.733025
1.8659761,98.26583
1.8240961,100.21051
1.7145523,102.60661
1.7433759,97.12521
1.6352334,96.65437
1.6297563,94.807846
1.6880742,93.62727
1.584909,91.79811
1.5169142,92.64713
1.6150249,88.569466
1.5527766,89.864105
1.5678456,89.18668
1.5330707,85.78539
1.474185,84.81666
1.5037528,86.101395
1.484165,84.91448
1.5233262,83.62738
1.4174713,81.78127
1.4112488,78.128365
1.4371363,78.735374
1.4512955,76.98168
1.39039,76.891045
1.3480059,74.03472
1.3556694,70.04277
1.31434,71.586174
1.3119979,68.57713
1.2665844,69.283745
1.3069574,67.423874
1.2976639,64.95488
1.1210755,64.19227
1.0775526,63.019386
1.056584,63.28445
0.9720528,61.471176
1.0171964,61.24374
0.97041106,60.7634
0.92249435,58.139355
0.97632545,51.706623
0.87886417,54.87055
0.8030033,49.120842
0.87261385,49.875328
0.79999334,48.85955
0.92389745,50.226616
0.8714722,49.28576
0.83873945,47.423683
0.89805496,44.516514
0.80992365,46.87247
0.84356964,42.32373
0.8443981,42.642773
0.86244076,40.0
0.8113196,44.029182
0.8244573,41.219547
0.7481539,41.933517
0.6372673,40.70138
0.66684836,40.0
0.60032976,41.08117
0.5330438,40.70324
0.5691589,40.0
0.4702851,43.720695
0.48118725,42.66604
0.406441,43.23274
0.5394026,44.0124
0.4079579,44.288864
0.4037744,46.96651
0.433903,49.549458
0.51919734,46.12673
0.57781017,52.027164
0.57586265,53.81493
0.6850384,58.78169
0.6579712,57.57009
0.7888888,57.767204
0.9220771,61.941734
0.96000594,64.20181
1.0533798,66.77097
1.1193788,67.97697
1.2662342,69.353874
1.1686717,72.67946
1.3071096,75.10271
1.3210317,77.132965
1.4826438,80.80924
1.4723632,82.93902
1.5310239,85.16309
1.599592,87.84498
1.7999159,87.46411
1.8070767,90.21577
1.7084502,93.919014
1.6868088,94.32006
1.7241135,95.67922
1.8014581,98.97636
1.8250954,98.2669
1.6886386,98.77929
1.8310852,100.75631
1.9549342,101.91451
1.7391868,103.899536
1.8312414,103.981346
1.7344749,102.69774
1.7637146,104.3493
1.6264973,101.94146
1.6368465,107.16781
1.7267555,103.476555
1.6368241,100.58732
1.6184489,100.19541
1.6416256,104.60098
1.6273059,99.801544
1.5852776,103.233734
1.5562732,101.49432
1.4940344,100.59992
1.4077412,96.69505
1.4536266,94.76446
1.3861108,96.28147
1.3290176,96.12766
1.3226385,94.58356
1.269587,92.64644
1.3388052,90.39824
1.2918639,90.972725
1.2183893,87.561935
1.2524608,86.62739
1.2015171,83.0676
1.2229112,83.37329
1.2304162,82.511375
1.1636666,77.88551
1.1899939,81.49533
1.2260056,81.38379
1.2183913,77.65451
1.1850848,74.449974
1.1092253,75.500496
1.0677483,72.92594
1.0701636,71.11102
0.9903761,68.96795
0.9261999,68.62573
0.9395367,69.00291
0.9204313,68.89541
0.8517193,68.04688
0.8828332,64.75438
0.77868986,65.30957
0.75947344,61.687664
0.7215729,58.938515
0.7177188,59.47774
0.60783446,55.38753
0.57033813,57.47578
0.59228754,54.44337
0.52653027,56.575455
0.57166964,51.846954
0.6547393,49.282
0.5688814,53.23221
0.57500124,48.73142
0.57875127,47.435673
0.54934824,47.311695
0.58956784,45.63562
0.5107412,45.74441
0.5513306,41.64856
0.54384595,45.771847
0.44347438,40.0
0.48220292,40.71588
0.4446999,42.305347
0.39694816,40.46872
0.311392,40.0
0.24539405,40.881306
0.36403394,40.184685
0.24452434,43.457645
0.19185287,44.014053
0.04341777,41.02463
0.06668398,40.0
0.06364963,42.31478
0.11219539,43.58035
0.14434172,47.335464
0.085912354,45.116207
0.13664977,47.70366
0.24397127,47.49001
0.17194478,52.953194
0.21991722,54.53738
0.2954641,54.048264
0.39793685,60.025486
0.510425,58.949192
0.5718564,60.882668
0.6008201,65.40018
0.68065166,66.01734
0.65572333,68.03373
0.90781766,73.46923
0.98309064,71.32757
1.0428578,73.12984
1.0174189,83.094696
1.0852938,81.43449
1.1345714,83.78264
1.2440797,88.860725
1.2744997,85.80992
1.2632594,88.460144
1.3387307,92.9631
1.3575066,97.786
1.3909793,94.80551
1.459348,94.82441
1.4437783,98.46968
1.4048488,100.742966
1.4873968,101.29856
1.4268371,99.528984
1.4567299,103.821236
1.4217998,103.83713
1.46577,102.153435
1.4067963,103.55689
1.4819081,104.000694
1.445025,102.749405
1.390308,105.21745
1.423676,102.97023
1.2500776,103.54928
1.3770024,103.24494
1.1946838,104.55832
1.202962,103.61804
1.2355692,99.31407
1.1565514,96.98146
1.138121,97.58412
1.1545602,97.08681
1.1345102,95.37634
1.0265789,97.04242
1.1016833,96.84277
1.0529449,93.0673
1.0057384,90.30639
1.0469981,89.69709
1.0064878,87.24731
0.96035236,90.87509
0.94488794,88.226616
0.8845559,86.04781
0.9296434,85.50656
0.84943295,82.31761
0.9341456,79.81675
0.9080067,77.31953
0.9096039,75.821205
0.88496417,78.34158
0.79342026,75.879234
0.7752217,73.3305
0.80652696,74.06251
0.80422753,72.33328
0.67253476,71.26331
0.68804973,69.40858
0.57081944,67.05387
0.5563154,67.93333
0.5214473,64.43387
0.54071033,62.203983
0.52675426,61.52943
0.47154105,63.706673
0.45828438,58.957565
0.41382957,60.535507
0.36157832,56.78592
0.29807898,58.25015
0.37637597,53.750614
0.26087683,54.04495
0.3590885,51.371887
0.33686125,51.87175
0.27766868,50.76803
0.35850734,47.107506
0.2872577,47.573074
0.28860587,45.417065
0.3348694,44.739307
0.2574758,44.693424
0.35481223,41.038136
0.27345395,44.729343
0.31282035,40.24695
0.17737398,40.455868
0.18923523,40.0
0.22661915,40.735065
0.23935424,41.361786
0.09203406,42.034695
0.08938106,40.61194
-0.0032142578,40.985607
-0.029822819,41.312614
0.012582981,40.0
0.0018488923,43.100563
-0.050726242,40.0
-0.21134067,43.429546
-0.14447565,44.992603
-0.010105954,44.85632
-0.00452716,47.558975
-0.017015142,51.45197
0.08603733,50.94306
0.14167178,56.320053
0.1843472,54.041424
0.26432595,54.61321
0.45070007,61.3822
0.47066113,62.594448
0.40561318,64.62857
0.5953994,66.00164
0.7494278,69.40552
0.76218563,69.812355
0.8240509,75.760124
0.8631009,75.70434
0.9604974,77.63608
1.0269532,83.12489
1.1159745,83.556786
1.1771561,85.41735
1.1320384,88.070496
1.283934,91.195595
1.3264885,91.69697
1.3510351,94.53257
1.3019029,96.25649
1.4654944,98.67644
1.3439265,97.93742
1.3573838,97.0078
1.373307,99.77211
1.460265,104.322525
1.3527544,103.5937
1.5010768,102.346634
1.3631616,103.43928
1.482691,104.73079
1.3904394,102.96622
1.3968675,103.09406
1.3100452,104.55093
1.3470386,102.773346
1.3496658,104.23458
1.3265768,102.71792
1.2617263,102.95454
1.3473259,102.5609
1.1873732,103.84937
1.2228385,99.520325
1.1325855,97.191635
1.1958832,97.71236
1.1459472,97.62808
1.1627318,94.04532
1.1399429,94.61215
1.0722475,91.441345
1.097886,93.54738
1.1220182,89.29834
0.9550166,85.40453
1.0150706,86.98366
1.0253229,88.598816
1.0635473,83.69637
1.009345,83.2749
1.0576912,83.71213
1.0513524,81.625786
0.9660607,77.95014
0.9672291,79.18595
1.0564941,76.65502
0.91326725,76.323265
0.90878576,75.475876
0.97132957,72.35167
0.8658449,70.19071
0.93456835,70.04967
0.86230147,68.85
0.8590872,66.94335
0.80872846,67.33415
0.76113766,64.48835
0.599636,62.785408
0.64350015,63.622166
0.6590405,61.36533
0.5656739,60.629314
0.5546851,57.015884
0.59112054,57.5288
0.5229489,57.062748
0.530578,53.603386
0.5426477,53.719883
0.47467732,48.840134
0.5053807,50.736874
0.52185,49.286827
0.5612462,48.108875
0.54495317,48.016335
0.48676386,46.475113
0.50409454,45.422825
0.5586667,41.418808
0.5249241,44.582626
0.44703642,42.71277
0.5016197,40.0
0.44307473,40.20078
0.47708055,40.241688
0.34050897,41.581516
0.3573204,41.44296
0.31637138,41.33649
0.34641805,40.565113
0.32413563,40.629017
0.267454,42.90943
0.24958542,40.0
0.27418202,44.096935
0.24800031,45.29792
0.18886101,46.487946
0.24044064,47.254044
0.31916425,48.776134
0.29231587,52.225353
0.34308934,51.647865
0.31300348,51.7968
0.4489486,57.151882
0.57701105,55.734917
0.54601496,58.96824
0.6595326,58.84353
0.73113406,63.15732
0.83188325,66.079834
0.9443804,69.594864
0.9614413,72.68503
1.1112337,74.21126
1.0752767,75.400696
1.1968647,79.08131
1.3348197,79.42735
1.3294023,85.07963
1.4796593,83.601456
1.4971541,88.4135
1.5425315,89.59659
1.5452874,90.39554
1.6488763,92.29429
1.6205485,94.38826
1.6347324,96.424835
1.7837129,97.124214
1.7718527,99.722046
1.731718,101.02247
1.7410921,98.9969
1.7878234,102.67213
1.8070191,103.484726
1.799586,102.100204
1.7160772,102.95967
1.7569312,105.12259
1.7244778,104.97357
1.6523317,103.68335
1.7921151,103.49
1.713412,102.246704
1.582549,102.362465
1.5961396,103.67755
1.736894,102.9738
1.6264833,100.08395
1.5428436,101.000175
1.6331998,103.51454
1.5300583,98.50391
1.5256675,96.456604
1.4882948,95.473175
1.341859,94.658966
1.4331499,94.05446
1.4416516,92.19319
1.5090175,90.73815
1.4027416,90.16811
1.433372,90.266914
1.4270672,86.51626
1.3914042,85.24425
1.4652894,87.97003
1.3413116,87.09541
1.3153607,79.97972
1.3451453,80.0741
1.3110489,78.01348
1.314519,75.61796
1.3095149,78.06818
1.2710502,74.40269
1.2270265,73.24302
1.3339307,72.450615
1.1996138,73.22004
1.2183301,70.66386
1.1594149,71.26251
1.075508,67.96741
1.1096176,64.36951
0.988031,66.054955
0.9694725,61.91987
1.024436,59.72167
0.91929966,61.20493
0.85110146,57.323483
0.8545718,60.6621
0.8833319,56.857777
1.004961,55.29085
0.8766707,51.73187
0.9177034,54.528572
0.8610076,53.521206
0.8677099,49.456596
0.9654261,48.63079
0.8649531,49.5738
0.90161806,47.597588
0.9022831,46.0978
0.83720535,45.140167
0.84617436,44.05317
0.83736575,45.67027
0.79512846,43.25075
0.7874365,41.89828
0.7923995,42.228527
0.7963497,41.11138
0.7096047,41.28796
0.7383523,40.0
0.6611806,44.62247
0.6828213,41.42655
0.5999706,40.246292
0.40733793,41.426315
0.52289546,41.49645
0.5298138,41.09987
0.6360796,46.09942
0.49748206,47.33607
0.4926888,47.924267
0.64021814,44.608902
0.610718,49.03644
0.60117656,52.5543
0.68510854,55.693344
0.71157026,56.26706
0.81729496,57.428875
0.9280839,59.217407
0.97904897,60.287067
1.0556426,62.187992
1.0957597,69.101135
1.2748343,67.913574
1.3557265,69.649025
1.408625,70.05352
1.4523145,76.78681
1.5293542,79.71707
1.5068179,80.139206
1.7214054,80.78252
1.7205954,86.32083
1.7732543,85.75516
1.8596637,91.66248
1.6980077,91.46978
1.8535295,92.02679
1.8612175,96.47337
1.8959377,96.44201
1.8614589,98.997406
1.949875,100.39261
1.9260257,101.43669
2.0146313,98.96397
1.9640499,101.06756
2.0133228,103.77099
1.9448572,105.200615
1.9077116,104.19893
1.964582,102.74052
1.9436332,103.61748
1.8914125,105.588905
1.8872845,104.244354
1.9113053,103.41066
1.8189759,104.978905
1.7743595,101.457985
1.7338189,101.71819
1.8150177,99.60949
1.7297187,101.285934
1.6763657,97.32664
1.7153513,98.6443
1.6419473,100.23938
1.583382,96.480515
1.5840671,96.56954
1.5353272,92.0226
1.5794036,89.8343
1.5213329,93.551674
1.5576116,91.74755
1.504225,90.33768
1.4661663,86.72068
1.549795,84.07107
1.6031222,82.70684
1.5000573,83.04803
1.4619612,80.00282
1.4019202,78.54236
1.4646606,76.93149
1.4455175,77.10325
1.4332402,78.38869
1.4240626,74.96718
1.3718611,72.17598
1.2368017,72.10493
1.2892069,68.95581
1.2069687,71.73435
1.2086928,68.459625
1.1819634,69.881226
1.068289,65.47742
1.1255683,63.08567
1.0259792,60.35552
0.9822844,62.329502
0.9393022,59.42342
0.9682027,59.551266
0.9560962,59.561497
0.7670966,58.2526
0.83944464,57.269295
0.8995347,54.163906
0.8939138,53.375423
0.9893092,52.755466
0.8253653,52.17208
0.80709153,49.038937
0.80325633,47.79592
0.902114,47.736042
0.8207907,42.465183
0.8880568,43.807384
0.8706123,44.71399
0.7719766,43.5737
0.7411515,40.423584
0.71877563,43.01968
0.723561,40.0
0.6563029,40.588543
0.6591644,40.97095
0.7035534,41.050514
0.50032634,40.0
0.4776143,40.725677
0.5129091,40.856976
0.5066205,42.01376
0.449625,42.04089
0.45665026,43.103367
0.3992843,44.026978
0.41966653,46.86409
0.4315105,46.64669
0.41738617,47.928402
0.5248046,48.465393
0.48200592,52.207756
0.613019,52.24485
0.681047,55.57356
0.7973278,57.222168
0.7069827,58.118134
0.8464011,61.257305
0.9442473,64.865
1.0287716,65.354485
1.1191249,71.998695
1.2037418,70.88033
1.2698517,73.21046
1.3112355,74.25011
1.3490728,78.747086
1.4711696,81.7461
1.5363611,82.5958
1.5594131,85.409744
1.5918367,88.90414
1.6031103,90.82698
1.6694419,93.58955
1.7025374,93.451904
1.7940369,90.49739
1.6808113,98.30774
1.7778711,98.63166
1.7575506,101.262146
1.7764777,102.677574
1.6859418,101.55175
1.6856034,101.56617
1.7362621,105.59272
1.7031703,105.07278
1.640053,106.68293
1.78554,103.87814
1.6203194,105.03381
1.6903586,104.91875
1.6953474,103.76505
1.5668038,100.53618
1.6283836,105.75991
1.4723052,101.26266
1.4870788,101.544586
1.4884987,100.094086
1.5904678,99.80241
1.462134,100.578384
1.4888583,96.52246
1.4599667,97.07654
1.3606389,94.590416
1.3060362,93.06764
1.2963829,94.11029
1.3113457,89.0221
1.2897396,91.43207
1.225502,91.425674
1.3104326,90.54032
1.2705009,86.55192
1.1673796,83.91147
1.1868252,84.52613
1.2816978,83.13907
1.1749978,78.933136
1.2122442,83.990524
1.0967251,77.53603
1.0610602,74.900635
1.0711101,75.38416
1.0199262,72.2887
0.9454315,74.17839
0.9931103,69.64385
0.9624383,71.79797
0.85008806,68.01325
0.8867143,65.89377
0.76228535,68.557785
0.7911691,63.51648
0.7740211,64.9738
0.6465654,64.36917
0.6851179,60.715034
0.5660193,61.098152
0.60161555,57.352425
0.55651265,56.691086
0.58366954,57.22422
0.5302009,55.809795
0.5568902,57.083042
0.5601968,51.632393
0.49199152,51.91486
0.59458977,47.773266
0.49896944,47.563095
0.4980369,49.37445
0.4710921,49.877964
0.41064766,43.997894
0.5138008,42.349762
0.4920994,45.025673
0.45285663,40.141754
0.43565077,42.96745
0.40224794,40.0
0.29759163,40.0
0.37515274,40.0
0.23724654,40.193214
0.32099593,40.954712
0.2196178,41.015987
0.25040102,42.38897
0.16411726,40.910522
0.20785098,42.94234
0.027929556,42.535286
0.029852651,44.041332
0.0440184,44.107765
0.0056478553,45.04707
0.036643263,48.44616
0.12391139,48.935154
0.12228434,49.526146
0.18417002,51.46137
0.1877684,54.200966
0.3015162,56.168396
0.357555,57.74449
0.39040726,60.62085
0.45363492,61.86443
0.6196575,64.24518
0.64475256,67.74894
0.80561405,71.80702
0.8251441,75.01473
1.001709,71.73643
0.90638906,74.79122
1.0702484,80.02111
1.1864239,82.71761
1.1856613,83.43887
1.2131346,88.66068
1.2275841,87.87809
1.3961439,88.37335
1.3460711,92.81171
1.3265693,95.78593
1.4427507,92.527435
1.3835677,99.81159
1.472182,98.376915
1.4223856,99.73399
1.3362212,100.81825
1.4723104,102.415016
1.3907284,103.88674
1.3270478,105.25863
1.4592737,105.74061
1.3428218,101.68392
1.3305655,103.80693
1.3133967,103.80444
1.221457,103.84207
1.3481723,105.45363
1.3121251,103.25378
1.2012851,104.05903
1.1985859,100.49763
1.0972425,100.17053
1.2230415,100.617615
1.2040687,97.86764
1.0809834,98.21932
1.0982035,98.84531
0.9806696,95.09081
1.0674952,95.50848
1.0481594,92.55616
0.9863811,90.70909
0.9438032,91.27121
1.0156943,90.30438
0.8934432,88.622925
0.96416014,85.9163
0.97823274,87.08637
0.9261215,83.75452
0.9299148,82.44532
0.84020513,81.81456
0.83377624,79.12818
0.9421485,82.596886
0.86128795,79.20208
0.766848,74.9076
0.80408716,76.07713
0.75147575,74.468254
0.8231948,73.016136
0.6645331,71.99726
0.769554,69.78286
0.57904786,70.614105
0.60713863,70.5274
0.51674587,65.096
0.6038992,63.028522
0.5184096,63.91378
0.55579954,62.760838
0.4718674,60.73932
0.37504506,59.0139
0.3486032,58.28685
0.41561365,54.380356
0.38239768,56.05783
0.33902228,55.028206
0.46128574,52.26662
0.3643803,50.795586
0.34713444,48.618023
0.32289463,50.262558
0.36459813,48.469967
0.32628652,46.739223
0.34176275,44.547943
0.3403823,45.719612
0.33015594,44.356544
0.29439753,43.692852
0.2989236,43.658176
0.31488797,43.02317
0.3333362,43.76755
0.1648869,40.42734
0.1304658,41.70412
0.13709097,40.0
0.17358911,40.0834
0.0382355,40.0
0.08600343,41.12415
0.04971134,41.49045
-0.065256685,40.90721
-0.0647716,43.010723
-0.06999585,42.292263
-0.06996202,46.32625
-7.493574e-05,44.274277
-0.062093783,50.66231
0.01771897,47.409344
0.071951404,50.62107
0.20968696,55.26254
0.11980528,54.996124
0.2305092,55.780422
0.29089564,59.76005
0.4299633,60.252068
0.51398414,65.24998
0.49700877,65.24393
0.59412575,68.106544
0.76819533,70.333786
0.7736101,71.64659
0.86248493,75.70646
0.9114742,77.93371
1.1076763,79.640205
1.1609346,82.34407
1.1379349,85.41196
1.2652545,85.79017
1.2286085,87.992
1.3543335,93.63662
1.3418792,94.47625
1.3431444,93.358734
1.4444363,91.86759
1.4370872,95.896
1.3492873,97.67507
1.4500442,101.25398
1.4012163,101.22335
1.4548874,101.9121
1.4928248,105.19054
1.443537,102.82035
1.3954434,101.26385
1.48475,103.44437
1.3809842,102.97708
1.4653441,103.29682
1.4063741,103.09296
1.4049937,105.53817
1.3333755,102.829
1.3552728,100.80668
1.1575009,104.26634
1.3858129,102.4866
1.3563087,101.056915
1.2533243,97.51908
1.1938362,100.018265
1.2113518,97.0776
1.1929204,98.39917
1.1955826,97.273735
1.1629223,94.14695
1.1430112,92.56742
1.1708972,89.39906
1.1531242,88.25332
1.101673,86.8599
0.969772,88.61572
1.0022751,86.70542
1.106229,86.80756
1.1000893,84.48628
1.0667343,81.64955
0.9644269,83.46452
1.0158604,78.78608
1.054232,75.233765
1.0333533,77.04139
0.97333926,74.587654
1.0099493,75.44202
1.0400172,74.732025
0.9554876,72.371124
0.87162316,68.703835
0.8300402,68.97617
0.80597675,67.949265
0.7788118,65.3527
0.7537431,63.701138
0.7118639,63.548183
0.60178965,63.12388
0.7114429,62.071045
0.666001,60.58146
0.63854206,58.47512
0.66355616,56.606487
0.6071169,54.833897
0.5656198,55.19117
0.56663793,49.819935
0.6044554,51.94219
0.5130373,50.75603
0.62722826,47.840355
0.6117762,49.088345
0.6246177,46.812954
0.6297952,45.480724
0.57416546,46.618107
0.65920216,41.697193
0.5640112,42.758858
0.52019095,42.817993
0.56434226,40.3785
0.5411366,43.39442
0.46617842,40.0
0.3631161,40.608936
0.27975357,42.346676
0.4633692,40.513443
0.3262495,41.55159
0.43715525,40.675194
0.3055326,40.815845
0.30884627,41.404358
0.28206927,43.39075
0.21139053,44.306152
0.23137952,43.027096
0.26109126,44.319073
0.25783387,46.47572
0.32399732,51.059055
0.3885838,55.839268
0.35358077,52.27136
0.50505817,54.13611
0.61445814,55.402557
0.7069598,59.473995
0.7191394,60.00997
0.8464694,65.59532
0.892601,67.14224
1.0344584,69.055176
1.1193019,71.60486
1.2696964,71.11776
1.2191424,74.635
1.3929323,80.01602
1.4155811,82.39343
1.3621459,81.775604
1.4985744,87.443634
1.5877209,87.1338
1.6288588,90.86991
1.6865331,93.08178
1.7686222,93.32456
1.6197807,92.67468
1.7109979,95.19703
1.668344,99.930855
1.7738068,101.62371
1.859508,100.02507
1.7814716,99.18688
1.7615438,100.652145
1.8562126,102.624504
1.7663258,103.661766
1.8079063,103.50886
1.6655931,105.37972
1.8133433,103.477615
1.7255069,103.96234
1.7460129,101.20891
1.7429088,105.75776
1.696509,102.01977
1.6254923,106.58838
1.6454914,100.59057
1.6949577,99.86358
1.5774672,101.9104
1.5386841,97.77843
1.6377392,99.52935
1.5851915,95.98855
1.5390801,95.98225
1.4953028,93.846725
1.5048479,95.17131
1.4680353,90.42068
1.4570872,88.85839
1.4912639,90.52915
1.4379038,88.64319
1.4159949,87.00711
1.3975997,83.25792
1.4147764,85.75256
1.4540818,82.82309
1.3839732,80.203606
1.45304,79.69087
1.3799348,78.18502
1.3608637,77.3263
1.3839015,76.076546
1.3035704,74.07838
1.341307,72.13627
1.2983859,72.15373
1.2665931,70.60722
1.1488792,70.426895
1.220555,68.75083
1.1357551,66.59866
1.135419,65.610115
1.0892868,64.81116
1.0428275,63.91844
1.0990772,60.542236
1.0232224,64.203026
1.032285,58.577038
0.9879594,60.40948
0.97136813,54.420322
0.9511931,53.90179
0.8892825,53.119926
0.9551378,51.526512
0.8710764,53.478844
0.9367618,51.758354
0.9459576,49.489403
0.90304023,47.287388
0.9594422,44.490974
0.88185275,44.786793
0.89857805,47.650837
0.89081323,41.337757
0.7769995,42.013348
0.80220586,44.460796
0.8654616,42.428616
0.8186271,41.19269
0.7335164,43.178978
0.7259924,40.0
0.70179594,40.00051
0.66720283,40.0
0.6293246,40.0
0.64447063,40.306602
0.6207616,42.387432
0.572927,42.230396
0.4889048,44.905136
0.60071534,43.269344
0.63665736,44.02374
0.5639182,50.103798
0.55503887,48.264034
0.62617105,49.21567
0.6710322,51.34287
0.7115869,53.697926
0.8164362,53.461838
0.8693155,57.93237
0.9161559,60.808155
0.9576852,63.640907
1.0503985,64.84501
1.1123667,66.58857
1.2442131,71.55334
1.2900205,71.24598
1.4223276,75.68957
1.5349722,75.57816
1.4918163,74.970924
1.5137366,78.30836
1.7040763,82.81914
1.7870699,84.79053
1.7783914,88.41695
1.715183,90.15426
1.7857925,91.90799
1.9021817,93.0381
1.9117143,96.67822
1.9693676,96.177956
1.9763111,99.42451
1.9817966,101.162315
1.8934965,99.29596
2.0390868,102.04724
2.0801299,103.57413
1.9847087,101.375336
1.9608791,103.16893
1.9630803,106.47697
1.9006733,103.42594
1.8586686,101.37511
1.8733338,104.89422
1.9703133,104.67202
1.7895232,103.64475
1.8807425,105.588264
1.8052287,100.188446
1.7228231,104.68178
1.739163,100.833725
1.6949499,98.80078
1.6935115,99.154594
1.6944079,99.415306
1.6069442,95.13331
1.5970538,95.55783
1.5842619,94.06566
1.5545266,91.634415
1.5012678,93.39359
1.4375465,90.27457
1.5447503,88.18968
1.4994106,88.38187
1.4829415,85.28674
1.5243524,86.02576
1.4891528,84.88688
1.4783871,80.85071
1.386611,81.67884
1.4249085,80.98615
1.3610663,78.04524
1.4012148,78.54269
1.330491,76.364235
1.3883069,75.65429
1.3639996,72.762024
1.2991737,72.383575
1.3027413,70.70192
1.2424053,67.60559
1.120309,68.93645
1.1537706,66.93858
1.121906,67.567055
1.1148459,63.319977
1.0967042,63.02888
1.0082796,63.13711
0.89804995,57.759552
0.94424224,57.46545
0.89209914,57.804394
0.78954285,55.176994
0.8360122,53.07392
0.93062174,51.265934
0.8332035,55.31856
0.90121174,51.79209
0.87658024,46.486263
0.7706043,46.89205
0.78306824,47.79824
0.7887799,48.223
0.8272052,47.02808
0.7508015,47.357067
0.80969495,41.90446
0.74907875,40.355156
0.793974,42.363155
0.6506749,40.158318
0.6323887,40.327744
0.647849,42.21375
0.50061345,43.77339
0.5370229,40.532074
0.5709293,40.0
0.45835876,41.1797
0.5084084,41.420696
0.36965844,40.830925
0.3831823,42.42403
0.3153032,45.261482
0.40865362,45.384277
0.35096914,45.617134
0.44354635,46.59948
0.43958306,48.107067
0.45213598,52.003815
0.46656904,53.73066
0.55798554,52.067596
0.6209346,57.72816
0.66289467,57.043465
0.7638716,62.51557
0.79026014,60.242287
0.87059754,64.72308
0.96677196,65.22382
1.0465494,71.00373
1.1200112,70.2899
1.2096387,73.67971
1.3629298,77.196304
1.3077313,81.52134
1.4373852,83.95135
1.4825968,81.52659
1.4410232,89.45318
1.5343543,87.540375
1.6039507,88.473305
1.5635282,88.54865
1.65135,95.14967
1.6175529,94.80505
1.7371589,96.70446
1.66635,96.31853
1.6485327,101.25045
1.714554,103.04737
1.709377,102.07034
1.7096852,100.61751
1.7296566,103.09067
1.588723,103.97172
1.586667,104.338936
1.6616575,108.26149
1.6811602,103.49424
1.6184459,101.58661
1.5220621,101.78098
1.5868365,103.76833
1.5755845,101.758865
1.5303352,103.0928
1.4996732,102.59913
1.4035885,99.60236
1.3986068,97.96892
1.4016738,97.92442
1.3949754,94.38119
1.3090264,95.88772
1.3405203,94.58039
1.2685109,96.33844
1.1990893,90.53731
1.1766399,93.05127
1.1499244,90.863365
1.1870549,90.054306
1.1917162,89.38356
1.0834887,87.724945
1.1250706,85.50944
1.1196738,84.63245
1.054422,81.11451
1.2108915,79.8432
1.0869168,82.023834
1.054051,79.79263
1.0131873,77.63557
0.9992885,76.887634
0.9858593,73.52688
0.9729329,72.35738
0.9736328,70.26099
0.89415926,69.3475
0.8091102,70.399155
0.8592488,68.44617
0.74084353,67.59418
0.67133486,63.600197
0.6445585,63.823112
0.67991304,63.371716
0.54011256,60.13217
0.527151,59.822147
0.5690706,57.022743
0.54604864,58.092014
0.49775404,55.41549
0.55571175,51.61621
0.5421229,51.16425
0.42529085,53.000736
0.5307593,52.974514
0.40398616,51.221252
0.413284,50.834675
0.4071184,48.04646
0.49720424,46.195087
0.39974636,42.37063
0.4701919,41.440456
0.2920025,42.432312
0.39372548,41.923126
0.44603685,43.102295
0.2946375,43.184612
0.28808352,41.34935
0.24206802,40.212437
0.21967997,40.0
0.15115845,43.04887
0.1238922,41.128696
0.15232015,42.280155
0.07459371,40.118904
0.13082103,40.990944
0.04428171,41.720028
-0.040027726,45.196705
0.055694938,44.50212
0.03569617,45.421177
0.13008463,47.08339
0.13459107,47.318974
0.14206408,52.95863
0.13910952,51.717747
0.22423033,53.998833
0.28672603,56.80773
0.34459126,60.008205
0.42430606,61.187702
0.4258874,61.734177
0.546572,64.84121
0.6509341,68.02933
0.65556484,72.21566
0.7530188,72.12293
0.86375964,74.54854
0.97322464,78.544174
1.107951,80.60438
1.0973608,83.60502
1.1524819,85.6185
1.1797531,85.39544
1.215145,88.45478
1.2942398,94.14384
1.2435861,92.87471
1.3570269,95.02413
1.351878,96.22685
1.3413047,96.882385
1.2831498,99.77662
1.4608706,100.78336
1.3566914,99.99858
1.3600324,101.37126
1.3763273,103.11615
1.4150236,103.267235
1.3693069,101.36772
1.3815391,104.54815
1.3567809,103.894485
1.3534479,105.487045
1.3053434,104.03378
1.24652,103.88608
1.2597132,103.996216
1.2692777,103.04715
1.1951051,103.42964
1.2445924,103.98707
1.2182326,101.46587
1.1227614,100.23031
1.128028,99.16024
1.0818805,95.177605
1.014953,97.10106
1.0521902,91.978905
0.9967781,92.142456
1.0647416,90.996124
0.98198825,89.834816
0.935805,90.674736
0.9715661,87.06646
0.9740904,85.727585
0.9576317,84.0403
0.91717815,84.566154
0.88939387,83.86207
0.88869464,81.367386
0.9293112,79.82506
0.87351704,76.135544
0.87956905,78.237885
0.93768966,78.14189
0.76655596,75.54927
0.80298537,73.963104
0.7343788,74.82595
0.75177944,70.13483
0.6663646,69.6077
0.72866595,67.71945
0.5838663,67.350655
0.56297106,65.9447
0.4630464,66.33386
0.46236,63.94478
0.5351587,59.990036
0.45736474,60.10397
0.4477181,57.549034
0.4166524,55.748516
0.34307557,57.82534
0.35512924,58.529613
0.3467376,54.573277
0.32426032,51.180885
0.3273203,50.363632
0.40658394,50.3311
0.2994926,49.10079
0.31902415,47.466946
0.34020242,48.681572
0.34534648,45.847927
0.3511615,44.370876
0.25359023,43.268543
0.24260063,40.239212
0.24494109,40.0
0.15032643,40.0
0.17627478,40.894623
0.2492874,43.465286
0.12784725,41.565258
0.18093777,40.0
0.11851774,40.0
0.13139802,42.996395
0.11343313,43.213303
0.10742497,40.0
-0.099068075,41.390743
-0.04229467,42.140064
-0.017209826,44.805378
-0.024795277,47.424065
-0.040335692,48.8293
0.013444923,45.042873
0.01548591,51.849373
0.12295735,50.82724
0.09027562,51.21202
0.2274366,56.790333
0.2838838,56.7438
0.36932227,58.257202
0.53214055,60.50486
0.5269475,62.64523
0.56959707,66.70533
0.6667224,68.89847
0.7743844,70.16023
0.95584744,71.254845
0.98669153,76.98978
0.93523157,76.49769
1.0692257,81.78463
1.1108882,83.07284
1.2507548,84.94511
1.219963,87.71293
1.2622222,89.93096
1.4011512,92.18821
1.3804411,94.28026
1.4174539,95.59356
1.3578758,95.31268
1.4820849,96.712975
1.4777262,99.153336
1.4782047,99.75825
1.4665018,102.76254
1.4546316,100.8777
1.492371,103.15464
1.4150618,104.07991
1.5046922,105.20466
1.4649972,105.332825
1.4745699,104.46139
1.3995563,103.76052
1.4125522,104.552925
1.4414216,103.07213
1.3908808,104.837074
1.3821931,101.97056
1.2327342,101.15251
1.4520417,98.8957
1.3299661,97.58139
1.2520475,99.263664
1.3322488,97.00475
1.2058129,97.939186
1.2145925,97.1487
1.2217671,92.998276
1.1484911,94.50101
1.0915653,91.89953
1.199683,89.93702
1.1021025,88.785225
1.167965,90.120316
1.0606914,89.00619
1.1475158,85.3671
1.0612947,82.09823
1.1135482,81.823494
1.0829022,80.1645
1.1164824,81.392845
1.0598794,80.16678
1.0587755,75.95327
1.0934201,75.096436
1.1088808,73.66401
0.97337824,73.401634
0.8935536,71.354454
0.9188272,70.47501
0.9432947,70.823875
0.85107577,68.432976
0.7830413,67.4471
0.86334056,65.850105
0.80246776,63.578964
0.78485423,63.598927
0.7538329,60.97419
0.63778925,58.56433
0.719253,56.501892
0.7119496,59.555435
0.62625456,55.49371
0.68999356,51.133316
0.6025933,53.035255
0.60129756,52.992565
0.6410451,50.6365
0.5678764,49.452244
0.62954825,48.185875
0.55081725,46.17673
0.5802777,49.067394
0.59982145,46.306557
0.60155153,44.17319
0.58909774,44.647892
0.6325252,42.68752
0.58967704,41.962063
0.5953436,41.73555
0.5552822,40.0
0.5404789,40.14531
0.4676885,40.0
0.45227668,40.693417
0.41043568,41.2996
0.3352307,42.359276
0.35575825,40.0
0.36358392,41.85561
0.32761395,40.0
0.302506,44.596703
0.2767208,44.614197
0.26639497,47.071735
0.2791096,46.04721
0.37857008,47.151707
0.41232246,50.56766
0.4301498,50.987694
0.48557732,52.086113
0.4561031,56.95699
0.7512234,58.30582
0.83237207,61.687912
0.9213415,59.73626
1.0541188,66.0988
0.9787202,66.67349
1.0256737,68.88355
1.151349,70.74984
1.3512052,76.58459
1.2804363,76.39602
1.4008896,79.03911
1.4521016,82.137825
1.4446577,82.34317
1.5744138,84.82657
1.6732984,87.07092
1.6806959,88.41878
1.6876798,91.82246
1.8034298,94.41877
1.6937665,94.71772
1.8479753,99.07388
1.861273,99.21224
1.7788024,101.75272
1.8432261,102.73699
1.9398477,104.29936
1.853607,102.185165
1.8040199,104.55267
1.810848,104.17108
1.7699649,101.241806
1.8152939,104.5662
1.8492724,101.426735
1.8031447,103.888245
1.7561612,102.580765
1.766417,104.12157
1.6706882,104.30246
1.7682842,102.40411
1.7023399,100.99866
1.6749371,97.54042
1.7432157,100.26935
1.6914364,97.91056
1.5046202,98.030205
1.5789663,93.88102
1.5211252,99.43662
1.5506775,94.97214
1.5631225,91.12698
1.5068693,91.62415
1.4939715,89.51418
1.4748393,92.03104
1.4843211,89.929146
1.4446272,89.33855
1.4591892,86.20683
1.4224027,81.96828
1.4406427,80.95438
1.5044373,79.28035
1.3799676,83.76433
1.3990511,80.80968
1.39598,77.62474
1.3524027,76.812584
1.3596419,76.630486
1.30619,70.495155
1.2267652,71.55359
1.3309889,68.608734
1.2909566,67.37748
1.1907822,68.39989
1.1689856,69.78677
1.0741042,65.85541
1.0005801,65.53461
1.0484762,63.40742
1.1031419,60.218117
1.0474311,61.607094
0.90321887,59.199364
0.87283045,57.093243
0.9025604,57.053005
0.95882493,53.694256
0.87675786,54.689857
0.8819289,54.667656
0.8845965,51.1948
0.9198699,49.72744
0.9174503,45.024708
0.99431354,46.739292
0.9592895,45.86147
0.7835971,43.770584
0.94831824,46.014797
0.8684914,45.859436
0.9298234,41.758987
0.84073585,40.49632
0.8459826,40.625572
0.8307264,42.359993
0.8044103,41.55846
0.6631075,40.0
0.68559235,40.0
0.7241163,41.553665
0.6370268,41.622307
0.5952143,42.65699
0.5967785,41.10684
0.50754136,41.98019
0.5619579,42.83885
0.5617819,46.123558
0.46188623,43.10918
0.5488296,45.91292
0.65301394,49.72065
0.6417986,50.11011
0.5998623,53.801296
0.7315038,55.46298
0.8049702,55.27195
0.9098572,57.952713
0.9144252,57.10791
1.0029964,62.389286
1.1282935,65.69431
1.130988,66.85161
1.3150173,70.11231
1.3154739,72.05392
1.4870842,74.2427
1.5169835,75.72103
1.5848308,79.23588
1.6030096,78.112854
1.7520949,82.23329
1.8203219,87.86589
1.7929795,89.340614
1.8355883,91.75812
1.9296824,93.298454
1.9504212,92.68793
1.8406088,94.9815
1.8721306,96.81213
1.8552198,96.73154
1.9526403,98.76707
1.9940988,101.92593
1.901455,103.59261
1.9493809,100.90938
1.9257935,105.00341
1.878762,105.3146
1.9167773,104.79534
1.9686049,104.42297
1.9499359,105.06426
1.8793665,101.75573
1.8859794,104.024254
1.8147281,104.68933
1.8045692,103.18357
1.6989644,101.83856
1.6918242,97.973946
1.8647267,99.950966
1.6644939,99.22798
1.7188822,98.09191
1.6478121,96.95406
1.5627472,94.40125
1.5379874,97.03096
1.5640231,93.02693
1.5237886,91.98958
1.4667106,91.66535
1.4229797,89.72034
1.5390133,87.55213
1.4781406,86.3898
1.5149568,86.027885
1.4990665,83.84222
1.4294235,82.337395
1.4350462,81.330315
1.4013183,81.17753
1.3915325,78.94719
1.3373195,78.484604
1.3927541,76.24161
1.2990394,78.82053
1.3571787,72.67103
1.2204573,72.13888
1.3615038,72.88273
1.2006577,70.40103
1.1541017,69.24375
1.1581975,66.610054
1.0649502,65.12175
1.0426518,64.73084
0.92193085,64.24752
1.0572871,59.592678
1.029157,59.710865
0.97056603,59.49023
0.84130704,59.400627
0.83712786,57.396893
0.91746396,56.1611
0.84572387,56.217514
0.7692313,50.637756
0.69094604,51.175003
0.71018136,48.640923
0.8359108,50.10622
0.7772192,44.446495
0.80136687,45.3676
0.7744122,47.612286
0.7063874,42.5217
0.7717571,44.73997
0.7894037,43.84083
0.7193543,42.93025
0.6528024,41.108322
0.69997627,44.217354
0.5893933,40.70991
0.57846665,41.069324
0.58835006,41.679577
0.5327974,40.0
0.49169838,40.48519
0.4452235,40.04067
0.32177737,40.008068
0.28069988,42.54071
0.30550572,43.568523
0.3418059,42.681377
0.39829215,44.319695
0.23334607,46.598595
0.34085253,44.91744
0.34777924,49.419933
0.40978402,51.15437
0.4860574,52.278717
0.5286554,52.518055
0.54274035,58.152958
0.6143415,59.51809
0.7089584,61.798275
0.81194097,67.62503
0.8409624,67.986534
0.93821794,70.13152
0.94702846,70.19632
1.0659318,75.612
1.0695289,74.95401
1.3126587,77.67743
1.3067847,76.616486
1.4103079,81.077
1.4422371,86.649956
1.4710212,89.35401
1.5348716,85.31312
1.5518019,88.83635
1.5780412,93.55027
1.5921209,95.74225
1.660217,95.40145
1.5912837,97.95445
1.6367369,99.95705
1.6779284,97.3067
1.6561564,101.11874
1.5993246,103.28325
1.6810005,101.47658
1.5788039,102.77335
1.622204,105.25443
1.6576482,103.712074
1.5870452,103.87486
1.5625112,103.43852
1.5342141,103.645676
1.5346444,102.31514
1.3814574,101.57139
1.4412732,105.56719
1.3637058,99.95681
1.459748,99.28699
1.3677938,98.82396
1.3970318,99.77527
1.3483931,100.016014
1.382077,96.184975
1.2278572,94.28572
1.2308123,96.31236
1.2074642,91.59241
1.173809,92.146515
1.1327702,94.109055
1.1008178,90.309395
1.1802896,85.994606
1.094737,89.60099
1.0841887,84.56134
1.1161236,84.79322
1.0978075,84.33763
1.054053,80.1758
1.0639786,81.00851
1.109453,76.80197
0.9882552,77.22202
0.9463943,75.84271
0.9583642,75.440544
1.0095466,72.917366
0.8723898,73.13948
0.87562174,71.12312
0.7581279,69.665276
0.75149536,68.17508
0.72568136,68.234764
0.6189756,64.52149
0.6943131,64.20434
0.60406256,63.37172
0.50163805,61.68359
0.5241635,60.82128
0.5160953,55.38812
0.54829764,57.261307
0.3976383,59.134296
0.46617505,55.334892
0.4064752,53.630432
0.4840688,54.273952
0.41391504,50.47226
0.36058435,49.684578
0.45230547,49.687897
0.46711886,48.865345
0.4688273,47.020397
0.46909016,44.41113
0.4268135,46.068363
0.4312029,44.784958
0.3481054,41.76819
0.30797338,43.92888
0.30769286,41.394516
0.27686217,41.121597
0.24418378,41.64928
0.30853578,40.547634
0.1753674,41.724102
0.09614913,40.0
0.15983903,40.301838
0.021765409,44.390728
0.013540927,41.94446
0.08596391,42.7343
0.023041174,45.43031
-0.07695122,44.74312
0.061119277,40.94579
-0.070834,46.66202
-0.002950767,48.889267
0.094025835,49.509483
0.06934265,51.373146
0.1583876,51.394653
0.24389161,55.20036
0.3155341,56.865818
0.29217505,60.72437
0.4219873,63.709145
0.4673372,64.74223
0.5695585,66.0158
0.7081448,68.75537
0.7298225,69.27571
0.7279251,71.15434
0.8408205,76.87093
0.94919,80.387344
1.0110608,82.41467
1.1411282,85.38458
1.107505,86.866455
1.1098449,86.51451
1.223549,89.89913
1.1876124,90.33224
1.2466114,90.11384
1.3484423,94.34391
1.3722006,98.24921
1.3534672,97.881035
1.3475523,101.09188
1.4091947,102.0575
1.357074,101.5541
1.3692548,97.561775
1.3556421,101.59925
1.3938309,104.82725
1.4117023,105.507355
1.2955503,103.48783
1.2992842,103.29846
1.2936885,101.7205
1.281487,105.44686
1.3144568,101.751854
1.2871835,103.45759
1.184034,102.23914
1.1989517,98.66467
1.2303617,101.54701
1.1960118,97.94157
1.0403953,98.17544
1.067125,96.32829
1.0960532,96.990524
1.068614,95.02171
1.1052113,92.94751
0.931587,96.37818
0.9654839,90.448135
0.9253884,93.62634
0.95266914,91.77551
0.96536535,86.71869
0.9889846,87.63278
0.9389744,83.78798
0.81769013,85.16787
0.91524345,80.4834
0.92329276,80.83999
0.83879745,80.108635
0.8994439,77.62967
0.9159418,76.51592
0.7890393,78.13909
0.78523606,74.35033
0.80153155,72.37402
0.78297913,73.674095
0.6975603,70.81762
0.7020431,71.714874
0.67602694,69.232346
0.63621926,65.55388
0.5094027,66.802124
0.54910666,62.685528
0.5098586,64.0428
0.50522935,60.248432
0.4385956,59.032024
0.40711415,59.803417
0.39987832,57.388443
0.3289688,55.58322
0.364962,57.09584
0.37887025,50.532627
0.31601998,49.358917
0.415423,50.21302
0.40443078,51.100952
0.37242967,48.001526
0.4153147,47.8543
0.37015623,46.63247
0.37964702,45.61844
0.29409617,46.3577
0.3382929,41.44292
0.2830436,40.699318
0.3718727,40.0
0.32861352,42.93628
0.16769916,40.42283
0.16279253,40.929405
0.18902491,41.827644
0.11862982,40.907883
0.22280957,41.05358
0.13171098,41.172848
0.15394907,40.886948
-0.06492374,43.78411
0.05440791,44.751667
-0.09939254,45.96383
0.017091013,46.17136
-0.00071084505,46.747997
0.036783215,47.422615
0.119349875,46.960022
0.08270194,48.17356
0.17110017,49.423397
0.26496398,54.965538
0.31538495,54.955223
0.42662174,56.265484
0.4507437,60.355656
0.57617587,60.277412
0.5140461,63.016926
0.6685804,66.485825
0.7665467,71.03868
0.8783266,71.77604
0.90476376,74.6829
0.934381,75.30969
1.1165017,80.93554
1.0983502,82.617386
1.1221789,83.09007
1.21575,87.90498
1.285207,86.571526
1.4087439,88.97832
1.3863862,92.08233
1.4239596,95.195526
1.4675233,97.112625
1.4634174,96.190575
1.4649745,98.90785
1.5082629,97.20809
1.5772576,99.71422
1.436052,101.846886
1.5002598,103.84518
1.4854382,104.02291
1.4452932,103.76319
1.4598085,104.07441
1.5007517,104.47789
1.5195116,102.96981
1.4887681,104.495056
1.4936898,102.91643
1.4415524,104.3429
1.4826214,104.2907
1.4670897,101.80652
1.4537299,100.36389
1.4131109,99.473816
1.304211,100.855865
1.4405339,98.03072
1.2397643,98.116135
1.3186797,94.89883
1.2663076,95.59789
1.2737881,92.54955
1.2850524,93.15768
1.1843811,92.825615
1.1201613,88.499916
1.1258452,91.48501
1.1361829,86.26954
1.1221118,87.48418
1.1582757,86.33112
1.204089,84.51694
1.2236176,82.11995
1.1692188,81.53694
1.1460013,80.90198
1.1141409,77.38117
1.117701,77.39561
1.0841569,77.4423
1.0293621,71.0697
1.072443,72.939964
1.0486108,71.21784
0.98877025,72.4926
0.9685772,69.78381
0.91225564,68.45046
0.8379806,65.10139
0.8894393,66.42056
0.7945822,65.91199
0.82602894,65.358315
0.70502776,61.23915
0.7751004,61.185623
0.7046133,57.32608
0.7408754,56.02644
0.7228531,58.439148
0.65074074,55.59532
0.6725714,53.561897
0.70456225,53.290154
0.7006835,49.48723
0.70259047,48.668682
0.6379794,46.17878
0.6611044,47.987244
0.6867722,46.81102
0.6561027,47.36009
0.6550257,44.96668
0.65496427,42.501488
0.6991579,46.00596
0.55903697,43.604652
0.6773827,42.44908
0.612802,41.049465
0.5192183,40.0
0.5487261,41.61746
0.50807637,40.0
0.4949877,41.018745
0.43677616,42.817593
0.4501744,40.0
0.41275707,40.670868
0.35679477,42.691677
0.34438258,42.50004
0.3616448,46.189594
0.37717596,44.55293
0.37365353,47.76269
0.48720217,50.037827
0.46381477,48.735966
0.49143028,50.666084
0.58036566,51.846283
0.658869,59.95839
0.6694767,56.10818
0.80490446,61.926918
0.7808875,61.99047
1.0073076,65.86598
1.0345739,68.12014
1.1779244,69.28914
1.1154203,73.21798
1.2544551,72.87546
1.3791772,79.248405
1.4862199,83.957275
1.5176872,80.78772
1.5419441,85.51907
1.7469938,83.27254
1.6941297,89.11118
1.7238549,91.10858
1.7814888,92.97027
1.86844,96.329865
1.823345,97.30225
1.8345995,99.43811
1.798365,98.662834
1.8743552,97.92949
1.8011749,101.924446
1.8764384,103.00278
1.9120529,102.35953
1.8698539,104.2925
1.9227614,102.78381
1.7660669,101.8976
1.819703,104.93129
1.7709868,103.69441
1.8820677,104.11052
1.8321365,104.7576
1.7188926,100.75091
1.768599,104.24016
1.7285445,98.77497
1.7571249,101.076454
1.722238,99.35659
1.7667509,100.022385
1.7437611,97.8055
1.6301575,97.12093
1.568898,94.43846
1.5660996,91.75251
1.545419,96.38817
1.4978932,93.37777
1.5462573,93.54251
1.4873233,90.14648
1.5151184,88.271805
1.5923164,87.110085
1.4845328,83.76215
1.5030746,83.26252
1.4810889,80.73718
1.4309598,84.35628
1.4391855,82.764275
1.4107549,78.01031
1.498326,79.79597
1.3590565,75.8385
1.372647,76.05497
1.3610417,74.91211
1.283019,71.12801
1.3116693,70.113075
1.330422,69.41775
1.339646,67.64407
1.1985309,68.49731
1.0837697,64.14063
1.1736544,66.54775
1.1245488,62.980553
1.057719,62.330303
0.9929787,59.843998
0.9948281,58.04913
0.8943625,58.53636
0.93127185,58.56711
0.9182175,57.02327
0.90477943,54.422596
0.9369375,51.873615
0.85140914,54.924618
0.99740237,50.137585
0.8645081,50.88658
0.8820431,49.061153
0.9077505,47.550747
0.89317465,45.931885
0.9154626,48.807854
0.96874243,44.573563
0.8709981,44.937473
0.80854577,43.673817
0.7847726,41.533607
0.8528272,44.0022
0.8536183,40.0
0.81959444,40.0
0.7696564,40.69407
0.6827166,40.854458
0.72526306,43.991238
0.64811367,40.182037
0.5809921,43.907116
0.6201679,43.61369
0.5165485,45.62549
0.616128,43.448746
0.52162385,45.162914
0.54004043,46.03694
0.57935244,48.91035
0.5996791,49.30577
0.6491377,50.875885
0.6922426,54.722904
0.71726424,53.68316
0.83330685,56.91825
0.883077,60.285847
0.9694064,59.956856
0.99187654,64.35267
1.1799117,66.531395
1.2315134,67.52944
1.3337462,70.79526
1.3048791,72.520004
1.4254404,73.97733
1.416224,77.52114
1.5573142,80.845245
1.642222,83.2164
1.6348321,84.63581
1.7557918,83.119446
1.789957,88.68448
1.7733059,91.22496
1.8847277,92.51621
1.8787954,95.15927
1.8862716,99.125404
1.8853543,95.532776
1.8904976,97.89078
1.9217306,102.046524
1.8891842,102.71786
1.8707881,101.849594
1.8967613,104.465744
1.9052237,103.711555
1.8925924,103.62438
1.8443059,101.36278
1.9084303,104.25824
1.7976373,102.109
1.8128463,104.8659
1.7552489,103.27762
1.7822874,103.74582
1.6849685,98.326515
1.6945924,100.90182
1.7541643,99.68149
1.72827,102.47213
1.6334761,96.2876
1.6262274,96.736305
1.5713819,95.610886
1.5726378,93.7786
1.5634062,95.66476
1.5617968,95.19593
1.4977409,94.18774
1.4550265,90.67924
1.4457566,87.78631
1.3622192,90.38777
1.4505916,86.81707
1.3861058,84.85164
1.2942631,83.51031
1.4398805,87.556984
1.4142635,80.60149
1.3995873,79.08874
1.3141359,78.812386
1.3732159,75.50884
1.3032272,76.95684
1.2812668,70.92328
1.331848,73.6643
1.176821,74.3119
1.1985235,70.60111
1.1665798,68.79717
1.1906139,68.667984
1.0043399,68.90042
1.0072074,64.22302
0.97596127,66.01579
1.0364501,66.01968
0.9148248,59.217308
0.8893936,64.1144
0.86547047,62.44064
0.7515939,58.8859
0.8064079,57.731808
0.8409452,56.85566
0.8142673,54.408085
0.68190855,55.35854
0.79018927,50.06083
0.8045905,50.37762
0.7240901,48.427967
0.6911396,50.06656
0.69449794,48.351875
0.6425668,46.987965
0.7271653,44.337162
0.72220445,44.915726
0.6874604,42.518623
0.6595707,42.55073
0.6272755,42.8403
0.6232577,41.265022
0.55655897,40.832855
0.57895684,40.0
0.47014737,40.0
0.39391005,41.791653
0.44777197,40.238525
0.3969562,43.07969
0.30736828,42.413834
0.3277772,41.337456
0.35281917,42.871555
0.19877504,42.680065
0.17683046,45.748363
0.2579824,44.294632
0.3445909,48.34363
0.43546942,47.296368
0.312623,51.757446
0.47590548,53.18768
0.49253908,55.736614
0.4827544,55.722713
0.65499806,60.678307
0.6173432,63.415886
0.7692011,63.60373
0.8410836,66.98887
0.89888185,69.822266
1.0812964,72.715256
1.1072692,74.55242
1.1112404,75.428215
1.2825445,79.6311
1.2224194,80.71071
1.2707307,80.697426
1.4373416,81.25776
1.4716848,89.37996
1.4420244,90.17667
1.4680095,92.094475
1.5557184,94.43611
1.6124088,94.53696
1.6551921,97.009995
1.4851007,98.70351
1.6136944,99.166435
1.5862628,98.48498
1.6322743,102.35218
1.5458183,102.65602
1.5248424,103.72741
1.6131688,104.70869
1.5555328,101.583786
1.5238322,103.92747
1.4613638,102.31982
1.533522,106.24768
1.4652905,105.14201
1.4175371,101.52553
1.493263,104.5245
1.4677755,102.01246
1.3951256,102.255356
1.3348291,98.862434
1.1762377,100.09153
1.3663199,101.16837
1.2396384,98.21299
1.2165371,98.55441
1.1495125,93.276505
1.1775247,95.639885
1.1704987,94.507065
1.1592001,93.804344
1.1415017,90.70093
1.1018293,87.523094
1.0198355,87.12927
1.0651218,85.64247
1.0316348,85.58648
1.0705494,87.01617
0.9560629,81.88813
0.9708991,79.17266
1.054095,83.068214
0.97284013,78.28762
0.9858696,74.60425
0.9822861,77.45315
0.99100256,76.237236
0.86189365,73.23492
0.82611763,74.168625
0.85032374,70.52454
0.81468445,67.814995
0.7293877,67.76261
0.7287424,66.28063
0.74883366,69.340385
0.59172654,64.00303
0.6223831,63.970078
0.5385866,62.34483
0.50085145,57.89626
0.5150729,58.063736
0.4939584,57.201283
0.40116736,55.57745
0.43810958,52.581734
0.47887927,52.979774
0.37622982,54.61883
0.4927795,46.775944
0.40724614,48.346367
0.34649634,49.95122
0.37681314,47.27929
0.42397282,47.842842
0.29985437,43.99878
0.2836346,42.85182
0.29467598,41.64964
0.40496793,42.89066
0.31022397,43.297928
0.3229601,40.0
0.23178972,40.80905
0.21345666,40.0
0.21249881,40.06991
0.21060967,40.0
0.08715483,42.73953
0.10514026,40.0
0.12559526,40.0
-0.005673099,43.200172
-0.066137634,43.84095
-0.017708134,43.36682
0.029024694,50.603333
-0.028789632,44.890926
0.015239021,47.853622
-0.034888677,46.91702
0.081123754,52.576237
0.10249588,52.194756
0.20469558,55.10343
0.26055473,54.591618
0.22853035,60.070065
0.34355003,62.53832
0.46946675,61.530956
0.43915078,64.30402
0.5644438,68.87645
0.66896105,71.12284
0.7081385,69.409935
0.783486,73.37254
0.8435204,76.3823
0.95568365,78.84544
0.93581396,83.399826
1.052979,83.17952
1.0825558,87.07816
1.2598044,88.399605
1.3370613,91.766884
1.2572001,91.480286
1.282481,94.680954
1.2745694,94.09259
1.3468431,97.24213
1.4058642,95.3197
1.3366565,98.94545
1.3882763,102.068985
1.409393,101.791214
1.2831441,101.20554
1.3946522,101.12302
1.3344632,102.054405
1.3395658,107.18491
1.3372926,106.5595
1.3093148,103.37254
1.3662865,105.87132
1.2982745,104.78812
1.3135818,101.8381
1.2278394,101.61199
1.266443,101.01435
1.2615458,101.90145
1.1255261,102.27189
1.1792886,100.79546
1.1186041,99.69886
0.9834791,98.33885
1.0924481,95.38549
1.0063189,94.26077
0.9564693,95.6413
1.0109402,91.05808
0.8542637,88.46454
0.87139785,88.876854
0.9122608,87.0273
0.8838731,87.61127
0.9597575,85.18735
0.96545124,85.80213
0.9037681,79.92738
0.90455645,84.19574
0.91842926,80.732216
0.8910755,79.97424
0.8493469,78.644684
0.8905685,76.32394
0.8328068,78.64839
0.8559482,73.44967
0.8399904,73.97476
0.75739455,69.78405
0.71681374,70.77665
0.6643434,67.50751
0.6838423,67.649445
0.7077536,64.97748
0.55758816,67.57044
0.5537142,65.28051
0.50240904,64.05598
0.51646024,60.70356
0.4858937,62.44998
0.44881642,57.563698
0.31809434,57.247887
0.36652783,54.554306
0.32184798,59.03709
0.37539423,53.107197
0.3642684,49.57632
0.3849382,52.64194
0.3822356,51.92277
0.4257314,48.780674
0.39079127,46.67703
0.40873694,47.19388
0.46453527,43.678047
0.3431477,41.706474
0.3839887,42.425743
0.25383016,41.97121
0.3771103,40.871983
0.26138708,40.778427
0.3122872,42.21323
0.20560873,42.05841
0.17411079,41.272854
0.19604975,40.41482
0.14486551,42.475327
0.052913386,40.47844
0.14048642,40.503204
0.15246,44.72171
0.08651753,43.437187
0.03177775,43.517963
-0.031117115,44.922527
0.0781781,43.619373
0.08967869,47.101727
0.069083825,48.83348
0.20111878,50.10576
0.18298706,51.36523
0.31804806,57.145126
0.3251439,56.544582
0.40177998,61.0302
0.41324106,61.063347
0.53221184,62.607887
0.74623686,64.07969
0.7985696,66.220825
0.76360345,70.20019
0.8927706,73.90352
1.0469141,75.00316
1.0848042,79.12086
1.2135327,78.96633
1.2413865,83.64098
1.3031036,85.60567
1.3654262,83.442856
1.3362166,89.25829
1.3627315,89.704254
1.4631501,90.88996
1.4364905,93.80438
1.5648038,97.97056
1.5234498,95.45026
1.6063794,97.75598
1.5638865,97.36372
1.623314,99.62044
1.5794498,101.471016
1.5983584,103.11055
1.5615959,102.62897
1.5812656,104.30315
1.5172727,102.36278
1.5188205,105.62576
1.456268,102.62883
1.532598,104.64087
1.5286684,103.73936
1.555961,101.13458
1.4818956,104.02593
1.4617984,102.55131
1.3911159,101.3062
1.4209133,99.829926
1.337173,98.18715
1.4294293,98.513504
1.359009,99.449875
1.2968285,96.68605
1.2655035,95.96313
1.3010346,92.61892
1.3140917,94.688576
1.2075064,89.91117
1.3260249,90.53317
1.1324409,88.185425
1.155624,90.73243
1.2725226,83.32553
1.2777461,84.201645
1.203749,83.477974
1.2269235,82.820885
1.175032,80.62514
1.1961108,77.73603
1.13269,77.76654
1.1765549,75.20817
1.1227977,75.58447
1.1713039,75.0885
1.0205451,73.611855
1.113948,73.67782
1.0712744,71.40018
1.0053165,70.86844
0.9308342,64.95098
0.96385,65.89271
0.973053,63.484455
0.8548265,65.94914
0.8330447,63.05481
0.79184633,61.311073
0.8071194,58.815845
0.8014498,58.517033
0.7241474,56.509727
0.7763984,54.715107
0.72193426,56.465126
0.705697,52.423065
0.8324726,53.0851
0.6575782,48.980427
0.72717255,49.21551
0.7487005,46.59119
0.6930646,45.81853
0.6723247,46.87146
0.79702306,45.507336
0.69901687,45.922672
0.7083798,41.603508
0.6653295,42.664562
0.6703712,40.0
0.69202495,41.873474
0.57633805,40.0
0.59093183,40.0
0.63441116,42.475883
0.56936693,41.41403
0.5048884,41.445217
0.43474406,42.11612
0.51915634,40.32442
0.42873517,40.056507
0.37547588,44.024853
0.38699633,43.204254
0.45830646,45.906414
0.4457424,45.54906
0.52689135,46.504173
0.45946506,49.62883
0.58468604,53.96886
0.5630464,52.84104
0.68919855,54.814453
0.6887598,55.604336
0.85143834,58.301834
0.8309091,63.39322
0.9228463,63.893047
1.0374465,65.8744
1.1361636,69.86605
1.160526,69.67631
1.2671717,72.46709
1.3743227,76.08111
1.469641,77.21177
1.5059158,79.9931
1.592152,81.88435
1.5594411,84.732925
1.6925906,87.10504
1.672056,90.70779
1.7502147,94.76246
1.791838,92.604034
1.912276,94.92518
1.8621734,96.0623
1.8246214,95.97794
1.8876591,99.07096
1.8871517,102.4776
1.8737218,99.3764
1.9106455,102.52921
1.9355623,103.415695
1.8692644,102.6252
1.8249642,104.92547
1.8927789,104.19229
1.8291386,106.3911
1.9719675,107.12012
1.963372,106.24718
1.8392525,104.95591
1.8860784,101.29538
1.7452147,103.62485
1.7443855,104.122406
1.6961238,101.837715
1.6826519,98.65697
1.7509036,99.27605
1.6598214,97.78408
1.6944231,96.58342
1.581336,98.60763
1.5927807,93.77408
1.5652969,90.061035
1.5832989,93.06074
1.538612,90.88093
1.4445136,90.842354
1.593297,90.13535
1.4845239,88.643555
1.4699428,86.14712
1.4485911,85.2226
1.508772,82.73321
1.3573385,81.56534
1.4507346,80.47737
1.4340816,79.22857
1.4231296,78.10302
1.4070113,76.391525
1.3207058,74.51516
1.4476237,74.98205
1.320982,75.47963
1.3158653,70.20851
1.2225953,71.14628
1.2392946,65.509056
1.260453,67.82778
1.2252988,70.468994
1.0418649,65.57031
1.1500918,64.25903
1.0767052,64.87888
0.90025145,61.558342
1.0149047,57.869194
0.8698702,55.649868
1.0119227,56.56898
0.9852475,55.511677
0.9799456,52.544514
0.9667333,54.13218
0.92432463,49.658665
0.9890012,48.17322
0.89540106,48.012905
0.89728415,46.987885
0.98360944,45.762695
