ppg,abp
1.0829971,108.026665
1.0986798,113.91808
1.2381809,111.71717
1.2402331,110.1201
1.4568912,119.81873
1.4899366,120.67127
1.4621997,120.27255
1.534608,123.104385
1.5890589,131.9698
1.6884731,130.3389
1.6440971,126.8641
1.6423055,130.46751
1.7532586,131.14778
1.775222,134.92433
1.7157165,134.33867
1.6720215,135.31712
1.7097508,132.49228
1.6605479,132.16638
1.7722766,136.7915
1.6145343,132.40758
1.5992701,137.16273
1.4954875,137.65717
1.5257198,133.70264
1.494994,132.9903
1.5740166,130.8102
1.5392576,128.53767
1.4364675,127.742294
1.3826323,126.142494
1.3621719,126.13809
1.3389966,117.93746
1.3808421,125.402695
1.3595417,120.35228
1.3802476,114.45898
1.3240734,117.21407
1.3412931,117.706055
1.2232456,116.50309
1.3615878,111.16473
1.3614061,108.57018
1.2675691,112.23803
1.182998,108.94053
1.1636045,104.314186
1.1678203,105.92688
1.077146,104.82609
1.1226999,103.37005
0.970907,98.81374
0.9266385,98.35488
0.9226564,97.42431
0.8980549,99.77273
0.8089699,95.23963
0.85423034,99.66248
0.8013614,93.70416
0.8840157,94.21024
0.8024593,89.578835
0.82335925,87.53993
0.8293452,87.79677
0.877383,90.284035
0.81615514,85.064865
0.8082561,84.62774
0.8577416,83.61506
0.72847027,84.70967
0.657368,86.84145
0.6108808,78.00459
0.62375045,80.82917
0.67089397,82.55279
0.52591765,83.54462
0.5012962,81.598885
0.48080444,86.135574
0.3892099,87.419945
0.44382185,80.89676
0.54823524,91.4931
0.5413118,85.84538
0.55509126,93.12799
0.52571183,91.20212
0.73150593,93.4671
0.8543375,94.129395
0.9069658,98.27104
0.94410104,102.949165
1.0815612,101.68489
1.2517788,106.18645
1.3376793,109.33986
1.4298826,113.216286
1.4652512,115.81503
1.5844285,118.58964
1.6751223,118.78734
1.7474011,118.30892
1.7646827,132.12277
1.8417268,124.22313
1.8588489,127.258675
1.8636135,123.052986
1.8698897,131.15463
1.8688213,126.81726
1.9126958,128.33421
1.9156643,136.04312
1.9532921,136.76028
2.0132253,132.3309
1.9103682,132.51851
1.9457581,133.93613
1.863824,137.98477
1.8451408,132.1047
1.826332,139.71484
1.7470101,130.05919
1.643291,133.64851
1.718794,133.24338
1.6819009,133.27676
1.6262057,127.56693
1.5599655,126.05813
1.5934801,130.4984
1.5913849,120.09137
1.4468428,125.24434
1.557235,124.39128
1.5981319,121.33396
1.4099532,122.95322
1.589253,120.39878
1.5013578,119.402176
1.4483911,114.18802
1.3688347,113.31991
1.3973974,114.23339
1.3486224,108.28451
1.3545518,113.57054
1.2770872,111.09921
1.2779126,108.63375
1.2442869,106.115265
1.1810441,105.541534
1.1750623,104.01535
1.024978,103.1312
1.0358475,101.246925
1.0229758,102.09083
0.97344893,97.47112
0.9422985,96.54605
0.89176244,97.4568
0.9129721,90.58767
0.9735641,88.751465
0.9016904,89.7585
0.9255378,88.13183
0.8746074,87.67325
0.9015423,80.67266
0.87789357,83.190475
0.8281474,84.32419
0.83164406,83.10139
0.7860219,83.042
0.72784007,86.95194
0.7813472,83.99501
0.6989132,87.23622
0.5659585,79.54768
0.7012111,86.043724
0.53323984,89.57541
0.5602117,84.9863
0.5323444,87.38169
0.59518224,86.91942
0.5773075,86.97001
0.58525956,86.99913
0.76546746,90.2224
0.706657,93.00065
0.778386,101.46203
0.880063,106.0789
0.9992921,103.39513
1.1593105,101.27287
1.1388229,105.822205
1.3954483,110.21024
1.4562569,117.23469
1.5530567,116.0819
1.6349,110.4065
1.5885566,120.59746
1.695204,119.36608
1.7724661,124.51589
1.8103907,126.00833
1.8813246,130.54323
1.8579286,126.17942
1.9345667,130.33203
1.8935127,133.73866
1.9018136,133.21155
2.0127654,127.8682
1.8828005,134.60052
1.9180436,140.03903
1.7450815,133.26817
1.9100908,131.68143
1.8370885,131.18097
1.7835741,140.78268
1.7272416,135.59566
1.7534391,133.64096
1.8626583,130.78845
1.6228635,129.45348
1.6443092,129.16975
1.5888108,128.53114
1.4377629,122.14646
1.5653175,127.10239
1.4849999,124.008484
1.4224107,121.08088
1.4504249,123.44288
1.3519028,120.77569
1.3928134,119.617615
1.4039772,117.62085
1.5131563,118.56469
1.4647408,113.56076
1.3321098,110.98632
1.2783024,115.57724
1.3495095,106.28353
1.2399746,106.419
1.2744427,108.06203
1.2608181,105.10119
1.0164665,107.30375
1.0690938,105.43374
1.1077722,99.35978
0.9934266,100.00565
0.93501353,99.72297
0.8823765,98.00312
0.8986556,96.445755
0.7690454,92.152824
0.7872205,94.86298
0.77261734,92.35406
0.8053797,90.99638
0.7876565,89.9591
0.70439285,90.186226
0.7245539,86.508736
0.7474745,87.15626
0.7031731,82.35748
0.6740894,83.05824
0.74950063,82.02868
0.7042646,81.68585
0.57292306,80.406
0.50307125,82.267265
0.47306308,82.73009
0.4867229,79.99202
0.4303144,86.685005
0.376971,86.73391
0.29263112,86.018776
0.38208055,85.44174
0.34195414,87.98785
0.42298967,93.203636
0.39169982,89.902405
0.5196072,95.04492
0.5523828,95.31341
0.59426326,100.7417
0.67759097,100.87895
0.8221935,103.51062
0.85636,100.73214
0.9544563,103.696106
1.1339426,108.92516
1.2454861,112.17953
1.2785127,111.4619
1.3384461,115.930786
1.489776,117.43307
1.4969113,120.584076
1.5018085,126.556816
1.5115069,124.14503
1.6830969,124.385826
1.7095227,130.89214
1.725498,130.56676
1.6884985,134.3975
1.6348047,132.86812
1.7374321,134.0203
1.667247,132.34636
1.6812607,133.89857
1.6861396,133.03381
1.6528697,135.14906
1.5921557,132.1184
1.5642669,135.76239
1.5956852,135.06587
1.4548402,137.75581
1.4082748,134.79263
1.4177445,132.80145
1.2974496,128.1587
1.341672,128.07312
1.3789657,127.97395
1.2185847,127.05686
1.2041206,125.335754
1.1319503,122.63555
1.1592863,123.6096
1.1892227,121.8437
1.1859741,118.223114
1.13433,120.44186
1.1926937,111.75506
1.0608226,119.62874
1.1389169,112.09476
1.01206,115.15893
0.96540254,109.99247
0.93443537,107.940834
0.8570524,106.42344
0.8329736,104.72632
0.72555083,100.15806
0.7689133,105.216545
0.69675404,103.00507
0.670306,106.62804
0.6451369,100.331345
0.5964639,101.03204
0.5569452,94.148346
0.5108607,97.85998
0.5063979,93.70057
0.5057191,90.76619
0.48551896,93.12526
0.46202216,90.14472
0.3848059,87.53761
0.5527185,85.74937
0.5578013,89.208176
0.41766912,81.6883
0.39806348,80.58975
0.32195288,81.50444
0.21890025,85.150406
0.2065188,77.40257
0.2764374,81.46602
0.2363113,84.001816
0.14661807,84.32667
0.120825075,83.38124
0.06562312,86.51814
0.10891493,82.08257
0.11488178,84.926384
0.053055964,86.48922
0.19561018,90.24792
0.109756425,90.04158
0.18120874,90.97372
0.22041789,94.3048
0.24903655,101.45719
0.34542146,98.42747
0.55898625,101.47393
0.6688952,103.144844
0.8047216,106.391624
0.874539,109.637184
0.88403195,111.84436
0.96504354,113.35558
1.0627356,116.22197
1.1657188,124.29671
1.3072541,119.26559
1.2414434,126.253105
1.3942577,125.31592
1.3471727,131.78065
1.4002151,127.12209
1.3696804,128.59918
1.4515567,132.63718
1.3781275,130.71994
1.4139463,132.7476
1.2924815,135.52194
1.4409481,136.99739
1.315988,133.07278
1.3312949,133.52689
1.2852004,130.62387
1.2416999,130.33432
1.170637,134.8924
1.3286061,132.74123
1.1888087,130.07071
1.0381917,129.06427
1.1145909,128.36827
1.0560721,129.38098
1.0505126,124.78107
0.97354484,129.36897
0.9919848,127.42547
0.969795,125.61731
0.99219376,120.86196
0.8653619,120.064835
0.9681188,120.90215
0.8521576,119.21302
0.8971286,114.776794
0.8285642,113.39886
0.8592096,116.051125
0.8028057,110.77906
0.8352793,111.712975
0.80225897,107.98506
0.73973155,106.71257
0.6855242,103.0231
0.69271535,104.05898
0.54341245,101.071
0.51220703,101.328026
0.5230413,97.32928
0.4238517,101.1953
0.3980461,99.59834
0.44260466,93.40262
0.35409176,96.82498
0.35702124,96.06679
0.3614531,92.51225
0.3853847,88.36224
0.3101779,92.58841
0.30441046,88.36813
0.40811983,81.04408
0.32669252,84.852905
0.3498883,82.39266
0.27424738,88.06423
0.24823509,86.90405
0.21308342,84.88778
0.122473866,80.97261
0.108846016,81.75327
0.030561738,83.816574
0.06542946,85.32865
0.011660639,82.610565
-0.022547735,81.22512
-0.019541046,83.53616
-0.048727788,89.87101
-0.06588997,88.33983
-0.039629884,89.56732
0.007680564,88.71312
0.15589643,93.84651
0.15479709,94.65843
0.2645965,95.80277
0.43037933,101.212326
0.41662985,105.34497
0.62573624,102.04649
0.7661044,105.9861
0.7950894,103.9276
0.88733786,114.29364
1.025949,115.045204
1.0668609,115.49999
1.1331458,119.69859
1.2629337,120.59087
1.2225918,121.64948
1.2887468,126.438614
1.3714339,132.36137
1.3400372,127.832695
1.4301599,128.106
1.4234331,134.89246
1.3523247,134.42946
1.3496954,129.90738
1.406443,135.6327
1.3358674,131.79298
1.3342687,134.55286
1.2869247,134.21176
1.3425053,131.90439
1.2933124,135.15927
1.276877,130.76793
1.2031335,132.37428
1.2248679,132.03497
1.1532172,130.04214
1.1492064,132.37238
1.0770168,127.45314
1.0203521,122.08201
1.0456274,127.6783
1.0054082,121.09262
1.057872,123.85978
0.96064955,117.60767
1.0130292,119.12101
0.94433427,121.14833
1.0579047,118.38258
0.82458353,111.34816
0.9664139,112.95467
0.8329756,112.84291
0.93411237,112.410286
0.9385957,112.47924
0.8218212,103.00534
0.80968666,105.08263
0.76557565,106.22563
0.7130173,104.029
0.6188808,100.44496
0.6819219,100.20183
0.5531407,101.161194
0.54044324,101.27166
0.452867,96.6081
0.5168974,96.820206
0.49957493,98.96273
0.43353942,88.88473
0.4079064,93.0348
0.4007727,83.90518
0.44174078,91.78277
0.5073439,85.24599
0.4266707,85.47488
0.50197065,83.02433
0.49318573,84.95266
0.423338,86.85249
0.38064232,81.06051
0.4308256,84.82567
0.29996583,83.62632
0.31344727,85.20775
0.17011012,85.74517
0.15892735,83.042435
0.13575314,87.7626
0.14738527,80.0053
0.09101656,84.0919
0.040529676,88.52394
0.0987974,84.96017
0.19009854,86.85473
0.1783258,88.17901
0.3464906,91.5057
0.32024485,91.326996
0.40331638,95.99452
0.52111477,99.79289
0.7064615,101.72994
0.8190568,103.163536
0.88937336,103.89884
0.92823935,111.009705
1.1323115,112.71116
1.3329351,108.08245
1.1295329,115.6751
1.3243282,121.54478
1.385104,120.64064
1.5155789,121.628204
1.5451626,130.2408
1.4727088,128.0913
1.5421805,130.13583
1.6121451,132.05421
1.6504005,130.5155
1.5881827,129.44714
1.6185324,133.92026
1.5828043,134.12611
1.5949936,134.85544
1.6059406,132.2457
1.6201164,134.64244
1.5093683,135.47784
1.5114614,135.13766
1.4968529,137.56544
1.4353607,132.93932
1.4658605,133.72102
1.5162872,130.07309
1.4189821,131.43385
1.3707788,123.341515
1.3540465,122.66898
1.2407964,125.200645
1.2355283,126.44173
1.1996559,125.65861
1.2712772,120.93837
1.2933189,116.81086
1.2077109,117.79702
1.2517385,115.74674
1.2337772,115.92647
1.2468429,113.60909
1.2584342,114.30912
1.2418038,111.58151
1.1104673,109.87869
1.0831033,106.76099
0.9872849,113.438995
1.0391508,106.29304
0.9408297,101.92423
0.92076004,105.51032
0.92201304,99.8948
0.7963457,98.107994
0.8389175,94.123055
0.631026,97.676605
0.7181166,94.21725
0.7318313,95.49638
0.66864276,96.545784
0.73806643,90.728134
0.73255754,87.03375
0.72418475,90.408226
0.8271115,81.75259
0.77739686,85.69107
0.81305027,82.82731
0.7272943,81.755554
0.58312845,82.61446
0.594103,83.72126
0.63534915,80.136024
0.6465926,86.57213
0.50079995,82.810455
0.56687915,81.82551
0.45562145,86.81315
0.5534054,82.932915
0.36816078,84.65982
0.41786775,81.548225
0.4492383,85.179306
0.34187245,88.012566
0.46799713,94.44795
0.4908184,93.14639
0.6103205,93.723366
0.6894813,93.42964
0.6676245,96.363655
0.891218,97.96398
1.0488807,101.99609
1.0584298,101.85341
1.2248158,107.795944
1.3118576,108.18006
1.2968775,115.02358
1.4230118,115.73783
1.5548377,114.91996
1.6314337,113.56017
1.6302679,123.57228
1.6893321,126.35838
1.724508,129.158
1.8471942,127.44044
1.8964888,129.34009
1.8809669,128.38814
1.8881003,130.52492
1.8457222,134.88231
1.8921125,132.97672
1.9467933,132.14163
1.9420347,129.35934
1.8498582,135.77025
1.8062934,132.5889
1.8121359,132.23026
1.8404928,134.26425
1.7828034,135.36885
1.6854879,137.54301
1.6748248,131.77942
1.7351806,128.74768
1.6423919,128.74529
1.5804164,130.9454
1.5715731,127.61867
1.5277665,124.75488
1.4639469,125.15572
1.4694328,123.03386
1.5177884,120.87838
1.4827899,120.45486
1.4093708,114.97821
1.4985275,115.27258
1.4138603,116.48498
1.3775784,115.04975
1.3914839,112.173065
1.4468635,110.653824
1.3866631,113.939384
1.3408436,106.70382
1.261875,106.09929
1.2124971,97.75196
1.139942,103.27387
1.1348073,107.93767
1.2353096,104.05834
1.0488538,99.28936
1.0466237,99.33461
0.986245,99.40882
1.0394049,101.54173
0.9158198,94.19467
0.93159837,97.75118
0.96587247,93.4546
1.0084014,91.76285
0.9217981,91.353386
0.9374112,87.88626
0.88696575,88.73473
0.9351493,83.4367
0.90624243,87.37001
0.91749215,85.56
0.81429005,83.05832
0.78659356,88.47044
0.79945105,79.741165
0.7559005,87.25131
0.71821564,86.03891
0.65737027,87.45142
0.5956123,82.28888
0.56593686,83.82378
0.55392396,85.92669
0.53542376,86.723206
0.49664932,87.65125
0.5837471,86.286736
0.6764804,87.09007
0.6969126,95.16832
0.7412127,92.39743
0.89240474,96.77057
0.9290269,99.05785
1.0874623,102.03713
1.1237757,102.6352
1.3432645,104.35353
1.4443607,110.32651
1.5393072,115.26795
1.6555437,115.44222
1.6124471,117.92471
1.752619,119.08268
1.8021253,122.683075
1.8233229,119.95669
1.921785,125.060425
1.805598,127.8188
1.9896642,126.861626
1.9614317,127.37037
1.9500517,135.31812
1.9838445,131.13211
1.9282774,135.59663
1.9823512,131.04803
1.9193645,138.5406
1.9893167,131.26541
1.9551859,132.19759
1.858575,134.37569
1.8852018,136.42308
1.8737775,132.1261
1.7946125,136.3385
1.7673541,131.90668
1.7464004,129.10722
1.685331,131.80595
1.6338928,132.1466
1.5608709,126.261215
1.527926,127.66977
1.4661087,123.067726
1.6173158,121.84609
1.5811797,120.803474
1.5125337,123.312996
1.3798673,114.76519
1.4646006,122.07205
1.4710882,116.6179
1.4191531,110.88366
1.3538451,113.730095
1.3530757,113.97629
1.3418217,109.295105
1.3648834,107.75858
1.2693392,107.51458
1.267565,109.11505
1.208437,103.324
1.059413,102.510994
1.0294267,99.34048
1.0216253,99.8004
1.0559717,97.10918
0.94675547,99.10425
0.92766935,95.36087
0.9350634,95.71884
0.8003034,94.94526
0.99507856,93.897
0.8734735,86.77503
0.7687131,89.55405
0.8931191,85.31059
0.8629219,86.29405
0.95914984,86.99978
0.85259676,88.185486
0.7550686,80.27531
0.6989104,85.93923
0.7483525,79.40182
0.6400065,82.73321
0.5750701,84.48487
0.598895,83.33594
0.45778248,86.26174
0.46217445,86.75135
0.48934442,88.38196
0.4104201,89.63144
0.47354695,82.422714
0.47162676,86.87669
0.4686566,86.17571
0.529226,87.880226
0.52323484,90.62953
0.57964355,95.604645
0.7033253,97.01501
0.7881835,93.373
0.8870098,103.29487
1.0835207,107.015465
1.1537291,107.30668
1.2454351,106.78226
1.3679112,107.86885
1.4097407,114.86806
1.462744,117.24058
1.5036913,126.64231
1.7022554,120.57518
1.597639,125.2662
1.7295896,127.49876
1.8726877,125.530785
1.6453388,126.7333
1.7106138,127.50231
1.7586358,131.86676
1.7351764,133.21236
1.7791853,135.10915
1.7996783,132.44618
1.770962,129.09802
1.7148178,134.89503
1.6724365,137.49173
1.7180687,135.18643
1.6332725,131.57628
1.5541216,135.84225
1.4874668,133.75226
1.5399303,130.46904
1.4759353,129.22504
1.3839692,129.07826
1.4236276,130.76091
1.3794799,127.544624
1.3510424,126.700714
1.2816494,122.560684
1.2138869,119.80647
1.3054377,120.21294
1.2238235,117.649086
1.1242021,118.614
1.247951,117.95696
1.2206188,114.75871
1.2253504,113.73792
1.150808,114.469765
1.143926,110.19936
1.0411509,106.90637
1.0181777,105.805145
0.99727803,105.73738
0.9276508,108.11913
0.87768906,106.37982
0.8659656,102.13461
0.71966726,100.53213
0.68384457,102.055176
0.6795049,97.13652
0.60955256,95.712494
0.6120581,95.15984
0.4959061,91.34322
0.51609427,95.63364
0.51295495,93.82361
0.5504512,91.287384
0.5866202,85.2785
0.53976226,89.52358
0.5462993,86.3204
0.52281106,86.9339
0.5815674,84.62657
0.52835554,81.23884
0.44787008,86.95588
0.5025804,83.59503
0.42243037,86.45115
0.3304578,80.52683
0.35894862,83.06119
0.2315723,81.156235
0.2439482,82.1352
0.15477812,85.63723
0.0933461,85.076385
0.17709453,86.279015
0.123119935,91.71487
0.20716639,91.344406
0.21393625,88.49164
0.25815582,95.99512
0.50352985,93.0306
0.40747976,93.45688
0.51263523,98.66922
0.71280265,102.27898
0.7413356,103.69178
0.82402694,107.61938
0.96052694,109.74704
1.0635403,115.66592
1.1398333,116.71089
1.3169147,117.80532
1.2756929,116.37034
1.3943015,124.04202
1.4288266,122.63851
1.4472958,125.1353
1.4621111,127.00683
1.4469688,127.1875
1.541144,131.82378
1.4646873,133.02827
1.4071404,131.20209
1.4981765,132.65019
1.5212404,133.48471
1.4247692,136.55623
1.500632,137.68817
1.4195477,137.60954
1.4289081,134.20856
1.400901,133.81172
1.2851399,137.57675
1.2538348,132.75497
1.2090757,130.4138
1.2316694,132.01439
1.1631044,126.667755
1.1706091,127.20944
1.0875833,122.389015
1.1081964,127.87565
0.97996515,123.51568
0.9721885,124.74262
1.0110956,122.81143
0.91580117,121.63526
0.92152977,113.47458
1.0223324,117.88043
0.89456266,117.60908
0.8958097,113.4298
0.8933234,117.73331
0.9036532,108.64768
0.74966174,113.99168
0.73087764,111.13861
0.6950878,103.99222
0.7379429,106.90155
0.59770066,106.17428
0.5848937,104.62967
0.56224227,104.3681
0.5294088,98.861626
0.44690025,94.60613
0.38088077,97.43413
0.44533265,96.42199
0.37356633,93.44214
0.3109353,93.40575
0.44527513,91.477425
0.31573164,88.92934
0.34329954,87.75307
0.27460572,86.522736
0.23034088,90.49429
0.34148538,86.38225
0.28032026,84.26795
0.25184867,80.733864
0.29994464,81.62832
0.23490286,86.60325
0.08101243,76.77749
0.13155358,82.87855
0.046288684,81.17609
0.103078134,84.775894
0.026519645,87.87515
-0.0052614384,79.08107
-0.037233017,87.39743
0.031736135,85.932175
-0.042561885,84.437996
0.048967052,91.53497
-0.02541154,89.147514
0.1850923,93.213974
0.19289814,94.1225
0.3215511,98.693436
0.49115926,98.47808
0.40590143,106.5714
0.62073195,108.790184
0.69336826,106.049225
0.8434162,111.58287
0.93947697,111.3038
1.0468413,119.18573
1.0068833,116.2637
1.1831555,122.561905
1.1488346,119.33
1.2657123,123.241776
1.2748698,124.8999
1.35973,130.6736
1.3309956,128.33388
1.3597292,127.31543
1.2940497,132.71019
1.3479048,130.3446
1.3756199,138.28705
1.3561839,135.72086
1.3366826,133.49844
1.298543,137.94878
1.2771409,134.9441
1.3172344,134.81148
1.2410517,132.41095
1.2486578,130.45195
1.1876432,136.20795
1.1565983,135.15637
1.1152827,132.23557
1.0418003,126.633
1.0361875,129.34587
1.0087452,127.35968
1.0238191,126.73828
0.9914883,124.22938
0.9174245,126.95754
0.8479188,123.6675
0.93384683,121.18873
0.90603024,115.97451
0.868815,118.8018
0.9166393,114.33396
0.89732444,114.0078
0.93044555,113.83672
0.8719336,114.347755
0.79802716,113.09723
0.7812579,104.15272
0.7163796,103.134895
0.6649026,102.73749
0.6178972,103.333466
0.57963115,105.1426
0.5418594,102.48347
0.531785,97.537125
0.54498094,95.750824
0.39136213,99.53392
0.4121982,94.59938
0.45301607,95.91658
0.37683418,93.786255
0.3426806,94.94055
0.33872536,91.05447
0.3480692,87.38305
0.45691913,90.0312
0.31085154,88.53359
0.3676409,84.076355
0.38755837,85.838524
0.34143847,82.71911
0.30366862,82.03728
0.24168257,78.105774
0.22283818,81.15731
0.21398696,77.73313
0.13822968,82.36663
0.058150265,81.59451
0.081370845,81.19309
0.062714264,85.18992
0.059121963,85.29399
-0.018779155,86.98261
0.046593957,86.81597
0.07049197,88.23744
0.14710926,88.78736
0.2355678,95.617355
0.27464107,90.97998
0.43022758,99.961006
0.50852895,96.41291
0.6649542,102.205956
0.717245,106.19006
0.82666796,107.43865
0.9168761,112.58661
1.0976241,114.62785
1.0798239,119.04349
1.1942207,115.63711
1.2900035,122.26086
1.3364772,119.9539
1.422119,124.38121
1.432097,126.539764
1.5748924,127.32114
1.4939697,129.35225
1.5783958,129.28111
1.520212,130.63264
1.4228233,131.61296
1.4590983,130.49619
1.5302258,133.80595
1.5385231,134.32869
1.4822612,136.78352
1.4854969,137.43707
1.4780706,132.75703
1.3853505,132.43782
1.3499957,130.27548
1.3813312,133.08868
1.3104378,132.24554
1.2783082,133.63603
1.287312,129.73041
1.268102,126.52566
1.2266723,127.96315
1.1307331,124.17939
1.1723925,126.03393
1.1054453,121.08945
1.1192828,125.38579
1.1293737,118.835815
1.1359696,113.46232
1.1561892,117.185394
1.1691307,112.70042
1.0973493,116.850464
1.1000239,113.534065
1.109978,109.85
1.0912308,110.37243
0.92040724,112.30486
0.9649833,105.61823
0.8763131,102.35167
0.8951804,103.90061
0.8327735,99.380554
0.7512455,102.78499
0.66376436,100.145
0.6812349,101.79573
0.7288956,100.358284
0.65070087,95.24823
0.7086285,95.08781
0.56896263,94.04512
0.58767873,90.92905
0.7023568,93.314575
0.643703,83.30661
0.5433103,88.90224
0.6570732,86.246475
0.61042,88.0185
0.6530387,81.93542
0.6252875,79.797325
0.58072925,80.44697
0.51168007,82.38022
0.51956564,81.69508
0.5622582,85.05165
0.41343233,82.94646
0.3667211,81.33877
0.23186883,82.2024
0.3030625,89.310135
0.33341756,84.194984
0.23817274,82.49996
0.26645437,92.63155
0.4485675,87.68601
0.37695724,93.08654
0.44972312,95.43109
0.606111,96.36897
0.638693,97.74161
0.7901128,101.30374
0.8784237,104.34617
0.9694109,103.75436
1.1577277,103.93074
1.2471914,110.40613
1.253086,113.7173
1.3778435,116.0526
1.517349,117.72382
1.6618665,122.036156
1.6656584,124.87191
1.7045203,126.55862
1.7410161,125.88589
1.7211834,131.82143
1.75235,128.43399
1.7223878,129.1482
1.805118,130.88931
1.7461656,131.51923
1.8142124,138.61826
1.8376023,131.7102
1.7776092,132.87598
1.7646779,133.12967
1.7893032,133.55222
1.8149664,139.00235
1.7199101,130.14935
1.744223,135.38623
1.6360787,129.0004
1.6386868,132.69055
1.5408773,122.357376
1.5360283,126.67703
1.4662548,132.14915
1.3667086,128.00883
1.4422821,129.20215
1.4814833,124.19804
1.4246126,119.66556
1.4076793,116.3622
1.409386,117.934944
1.3333312,118.734474
1.4012759,118.27217
1.4286631,119.45864
1.4236076,114.283356
1.3896624,111.48222
1.342437,111.78517
1.2423836,106.86524
1.254747,108.62532
1.249442,103.34065
1.1651679,108.63986
1.1260464,103.037575
1.0251815,99.974304
1.0109303,102.047714
1.0244553,96.974686
0.8869641,100.34306
0.8970705,94.90776
0.89361227,98.050415
0.8782409,90.2364
0.86245257,90.79963
0.8630466,90.136116
0.8575756,87.698204
0.85783434,89.098694
0.85360754,87.74861
0.87479156,89.93211
0.8895772,86.045006
0.8884756,83.89163
0.8106739,82.95835
0.7925256,82.318825
0.826122,80.3006
0.67926335,85.571236
0.71889764,83.47093
0.6258442,77.645164
0.6125584,86.8438
0.50473225,85.42201
0.50271356,87.3216
0.64206886,85.80476
0.56948537,86.18256
0.6036384,84.92379
0.6034536,89.57715
0.6560704,91.92643
0.68566567,90.030914
0.8469502,97.58839
0.88346493,98.67753
0.96451426,102.21644
1.1214794,104.07139
1.2769976,106.49441
1.2475742,110.06476
1.4303808,115.16026
1.4715551,108.81029
1.667683,118.651024
1.7237618,120.557014
1.7489649,121.46594
1.8395725,123.36848
1.8656037,126.7489
1.9187359,128.37259
1.9597313,129.2841
1.9294716,135.89334
1.949904,130.818
1.9616851,134.6722
2.0351634,135.7859
1.939174,132.71042
1.9727291,135.7051
2.0506887,133.00539
1.8788867,132.80507
1.9313424,129.62038
1.8113632,131.22774
1.9041488,138.07968
1.8908149,134.69449
1.7804377,128.05154
1.7220675,128.83797
1.6613128,128.78444
1.7501601,128.0292
1.6295623,127.55263
1.6783912,128.6693
1.5515451,121.677826
1.5417237,124.238205
1.566698,121.259766
1.5641778,120.16504
1.619105,118.526344
1.4815112,122.69667
1.5072088,112.868454
1.5058697,117.826645
1.4108522,112.606384
1.47747,116.417046
1.3339268,111.69807
1.4271642,105.55855
1.3702787,105.73347
1.2508557,107.687195
1.2148445,104.76161
1.1094639,103.6229
1.101699,100.40129
1.1005384,100.767166
1.1047939,96.72145
0.9897671,96.208984
0.9525482,95.89737
0.9410503,96.3381
0.9809068,88.54079
0.9788103,94.956116
0.9015652,90.67346
0.8809355,92.14598
0.9055874,92.09183
0.963761,87.612885
0.85266817,86.00951
0.8834307,83.48393
0.8474564,85.30043
0.80110645,89.37184
0.76856124,82.16813
0.7259025,82.638855
0.69726485,82.18512
0.61637205,78.45302
0.54742664,84.6616
0.5803185,81.89014
0.53781974,86.2113
0.56990176,79.69197
0.54921097,82.96069
0.48727843,83.98854
0.58358246,84.19858
0.61651146,88.74056
0.6325343,92.28391
0.7180732,95.50113
0.76220864,92.6066
0.87413776,96.47355
0.9325197,98.48417
1.0744462,99.234634
1.0853627,107.99768
1.3751307,105.6381
1.3519572,105.96214
1.4460762,114.69998
1.5604957,116.52513
1.5387347,116.39539
1.6669588,120.81442
1.670011,118.93982
1.7573161,124.75659
1.794142,126.04791
1.7315457,126.15124
1.9268868,128.29341
1.8636318,130.52493
1.9424814,134.99289
1.9243788,137.8672
1.7872275,135.15714
1.8451624,135.49005
1.8775617,134.75208
1.8467618,132.80682
1.712988,134.94514
1.7865777,131.38263
1.6318746,132.32495
1.7545028,131.89925
1.5824038,130.13484
1.5990161,128.97092
1.5442672,130.19044
1.5158044,130.81268
1.4967011,127.94738
1.465599,126.834564
1.4833769,121.31862
1.3910671,124.78077
1.2962092,122.23337
1.389582,123.16621
1.3765111,114.62718
1.3258256,121.43798
1.2511855,120.72278
1.2138441,116.08001
1.2966748,114.18605
1.1973044,111.6645
1.1995403,109.498535
1.1446137,109.9676
1.0821477,110.08984
1.0326275,101.8683
0.9431405,106.412735
1.000129,104.950645
1.0030599,103.413635
0.8511265,105.57072
0.8998365,97.06774
0.7177493,100.394646
0.6787533,96.59408
0.7059028,93.302635
0.73276186,93.60198
0.6939243,94.81797
0.7030865,90.62805
0.71185935,92.63276
0.69974357,85.62388
0.67304224,89.52092
0.69588387,89.46556
0.7037993,90.451294
0.5887969,86.12683
0.66381377,83.73076
0.55663675,87.608765
0.4957687,81.88022
0.5034726,82.53357
0.48232466,82.25598
0.23851138,86.0644
0.33128133,83.612434
0.26673988,80.76452
0.21014895,86.52102
0.22124398,80.38241
0.1861798,86.928825
0.2455671,89.983284
0.24940808,86.69945
0.37658086,95.02667
0.46331435,94.55691
0.4797341,94.02673
0.6433503,98.87447
0.7096729,101.87961
0.7581523,100.59861
0.8856601,106.24383
0.94566995,106.59394
1.0647649,106.69939
1.2098012,114.14919
1.2891138,118.52558
1.3713397,115.06853
1.408965,126.1434
1.4391283,122.279274
1.5316899,121.98027
1.5109684,127.540436
1.5717475,132.84738
1.5760024,132.44046
1.5423824,129.7458
1.5123914,136.97691
1.5393541,131.74086
1.5315243,136.41156
1.587808,135.35403
1.5699352,135.61287
1.5699492,135.52046
1.5587912,136.20851
1.3867624,134.219
1.4757485,135.6475
1.4291722,129.09367
1.3053961,133.41542
1.3022023,130.97237
1.2999283,135.02138
1.2373464,128.51141
1.1625531,126.67795
1.138384,125.65133
1.086199,130.62807
1.0865803,120.69205
1.1186659,121.500244
1.0650645,124.177895
1.0717353,114.925835
1.0427092,122.315765
1.0735565,116.78116
0.9530789,118.09005
1.01032,115.76426
0.96250665,111.30678
0.8826986,109.9349
0.9945184,111.6064
0.87855065,112.56989
0.8139046,108.35192
0.7825578,107.76301
0.716991,102.065926
0.7940409,104.3511
0.5933308,103.385735
0.47099155,101.10876
0.55004656,97.236435
0.5308939,95.011024
0.46839392,97.477806
0.3987332,94.19466
0.35384026,93.34208
0.36379054,92.80758
0.40643203,90.31062
0.35611483,87.73687
0.3410879,87.71503
0.40391725,81.95188
0.35996324,88.50653
0.33929244,81.62166
0.3433742,86.1606
0.26221228,84.93519
0.34576643,82.64071
0.20297092,83.71395
0.22839351,82.28
0.07632358,82.235176
0.1569122,82.64128
0.030571802,83.869
-0.10303968,86.775566
-0.05077237,80.94755
-0.026624035,90.256584
0.029916406,85.10301
0.08360442,90.312096
0.086244695,87.64462
0.18345256,90.61371
0.23484564,98.65327
0.38783175,98.35532
0.35773802,96.80246
0.40858215,101.329185
0.7541336,112.58274
0.74047834,108.06472
0.8669175,110.19549
1.0235978,116.58668
1.0564225,117.92103
1.100527,116.62069
1.197348,119.98928
1.191095,125.92233
1.155869,125.36147
1.3380891,129.66313
1.3381612,131.55562
1.3378311,129.11334
1.3634778,129.73853
1.4105978,137.01971
1.4505068,133.34348
1.4171766,133.74335
1.30417,135.14815
1.2596791,137.76181
1.3615878,134.00331
1.2628704,131.93517
1.2255496,135.49364
1.2483591,133.91185
1.2663702,135.65009
1.1515039,130.85512
1.1428807,128.86879
1.064551,132.06702
1.1694125,129.4414
0.9542307,127.51537
0.9948144,126.53819
0.9650703,123.96446
0.9665958,123.43797
0.88544226,122.334305
0.90834373,115.82073
0.9420519,118.51246
0.9392095,122.02152
0.86765265,114.554115
0.84931207,118.901436
0.9522044,114.394356
0.8795556,108.656784
0.8212849,107.39603
0.75371087,108.33848
0.6966326,112.31587
0.7009293,109.44323
0.6296953,107.637695
0.5800413,103.11229
0.5525831,98.444916
0.3730134,101.694664
0.49515077,98.9766
0.4763705,97.58144
0.36535022,95.627884
0.3334631,98.61882
0.41329858,93.29138
0.3318292,92.81843
0.40325543,92.26788
0.32602683,89.85099
0.36819375,88.7885
0.28719932,87.89123
0.34471536,86.834496
0.3156901,85.349625
0.32417464,88.454025
0.27154544,82.03335
0.21870998,79.86286
0.12021054,84.62799
0.085428275,82.199295
0.05567817,83.16742
0.04597059,81.410324
0.024473086,81.545
-0.05758998,83.29855
-0.074685685,87.15031
-0.08157882,87.46326
0.08944208,86.28258
-0.07376932,88.632515
0.035368286,86.59733
0.12987547,95.40055
0.19766495,96.37548
0.29740143,94.66032
0.4201709,100.31632
0.44790843,100.81932
0.65045327,102.700966
0.71839184,110.81549
0.8788496,106.595314
0.8649827,112.74298
0.98878235,115.937675
1.1165111,117.976265
1.1262587,118.10089
1.1604612,121.250534
1.3642849,120.70725
1.3678546,123.256195
1.3625884,131.38121
1.45613,127.1496
1.4255654,128.98134
1.4686064,130.19305
1.4252261,132.84111
1.5085294,131.50815
1.3775948,134.38934
1.5324191,131.2838
1.38466,130.3772
1.4301687,132.08057
1.3469516,132.20404
1.3283893,137.2697
1.406038,133.47603
1.3533996,132.59804
1.3538296,131.98859
1.2358574,133.72652
1.2194396,133.00061
1.0721226,128.64513
1.1600771,127.404724
1.2134517,125.255615
1.0878392,123.92233
1.1165493,121.38302
1.0130645,118.53754
1.0734746,122.0423
1.0317084,120.42574
1.0295037,119.94883
1.0013239,114.83621
0.99490243,113.31377
1.0419722,114.11847
0.9284156,114.52315
0.85726225,106.04168
0.94793266,110.76982
0.8917096,110.82699
0.8506913,107.6609
0.7640687,106.27193
0.76045394,100.906334
0.7004612,102.33133
0.6699902,107.47504
0.67531806,96.94492
0.6991799,96.30158
0.50586325,91.53472
0.6014785,93.15555
0.5673863,97.39201
0.5728896,90.131996
0.56097853,89.302734
0.52684313,91.573654
0.5227393,89.872185
0.50665724,94.085815
0.50823456,87.68864
0.5242834,84.71056
0.49484438,86.24291
0.44635275,81.84542
0.42868567,84.74276
0.4093362,83.55936
0.35969716,84.37283
0.32204884,80.81945
0.26007527,81.14632
0.25433967,81.02198
0.24770339,83.357765
0.16418475,84.037704
0.22655335,86.73316
0.16498631,86.54495
0.19300906,89.05808
0.1759942,91.77887
0.30659434,94.81211
0.48909664,95.24566
0.48722348,93.74248
0.58381975,101.21248
0.72917086,103.75439
0.8886483,108.94878
0.87505186,108.56237
1.0831205,110.62806
1.17368,112.51876
1.2219565,110.8208
1.3320477,117.33435
1.4439917,121.104324
1.4720193,122.51047
1.5467665,121.16927
1.6186808,127.674355
1.5941668,126.822464
1.7504683,129.82251
1.7430223,132.09679
1.7005556,132.09544
1.7288098,132.34085
1.7282215,133.63217
1.7733362,134.77548
1.7247484,133.47249
1.6332966,132.2258
1.7174718,134.50284
1.6404374,132.46152
1.6560192,133.66962
1.5873203,134.3785
1.6200925,131.89926
1.6592691,133.09729
1.5301096,129.2502
1.505887,131.92574
1.4794806,125.986435
1.4582736,125.59858
1.3868588,125.54755
1.4188663,123.01206
1.4219751,128.05478
1.371461,119.28265
1.4152584,118.570335
1.3705357,122.221954
1.2221615,121.007355
1.2991782,113.36124
1.3794074,115.77685
1.2468112,111.31441
1.2434576,115.53778
1.2622505,111.64735
1.2142607,112.44986
1.129322,106.1574
1.1604939,101.80492
1.126832,105.67792
1.129626,103.7037
0.9658651,101.15759
0.926126,99.00883
0.9614636,98.037186
0.8461008,97.00906
0.9575033,99.599754
0.8828707,97.73661
0.8443363,94.938484
0.8380702,90.44446
0.7923226,87.513016
0.805504,87.160995
0.86882347,93.42022
0.7587285,83.82215
0.82046807,85.958275
0.8240745,86.51759
0.76820344,84.94838
0.81340986,82.552605
0.75029176,84.473114
0.7124614,79.49621
0.67462415,81.22059
0.6314628,82.2635
0.57479084,85.42765
0.5227471,82.38017
0.43339422,82.17002
0.5197862,82.56978
0.5016598,86.2985
0.49600083,90.31697
0.5410507,89.94844
0.5615214,92.923775
0.6706956,93.00332
0.5860562,92.28723
0.78268224,93.88799
0.81235445,98.03205
1.0393682,100.23488
1.0461816,102.050766
1.2147743,109.11351
1.3161597,107.54003
1.3844519,113.46044
1.5211582,110.19629
1.577817,117.35066
1.7143766,115.67537
1.6616628,123.5755
1.7554203,127.20876
1.806776,127.84641
1.883844,125.74034
1.9647157,129.65926
1.8962669,127.17364
1.9565399,132.77962
1.9526219,137.93597
1.9539305,132.18973
1.9918215,137.39185
2.032579,129.65952
1.9401646,134.77707
1.9083325,133.27191
1.8769474,134.06316
1.885793,137.54372
1.873445,135.461
1.7509673,132.82416
1.7302428,128.29063
1.733113,132.19557
1.6699216,132.22684
1.6817912,133.88446
1.5512844,124.83174
1.5349617,125.561806
1.5568283,127.01479
1.5378262,121.27798
1.4758162,124.36931
1.5384475,125.52608
1.4929991,118.51477
1.5261391,115.93747
1.4009383,116.71033
1.3919928,117.188866
1.420517,109.40161
1.4403573,111.39825
1.3946313,110.49123
1.4004021,108.207664
1.3254349,104.17754
1.2617851,103.50527
1.190829,103.552704
1.188054,104.46476
1.1808256,102.49143
1.0936276,102.91112
1.0421215,99.25231
0.9565342,100.99023
0.93647057,93.87316
1.0243545,94.82178
0.916452,96.86016
0.9378877,92.799065
0.9340101,89.64594
0.9127617,92.963356
0.93236333,85.73708
0.96446127,88.03862
0.90081555,87.98674
0.89871716,88.893265
0.8718067,85.30804
0.76385796,84.60071
0.78312385,83.22244
0.82899326,83.27598
0.77012587,84.86266
0.63129395,82.217384
0.6457229,84.53426
0.6166731,85.53437
0.575481,81.76159
0.5748055,83.36767
0.5637812,84.75863
0.592466,87.03138
0.58933794,92.55284
0.5933598,87.39481
0.77609056,89.09479
0.77445424,93.8723
0.79528344,100.02236
0.9183957,101.73968
0.9582666,101.30396
1.0706909,102.08929
1.2142214,108.39477
1.2870429,110.10045
1.4571025,110.0897
1.5898012,114.712296
1.632171,111.701096
1.6715744,121.83214
1.705519,120.55193
1.7892478,126.295265
1.8140571,125.14804
1.7948567,125.82261
1.9540725,127.33319
1.8537781,131.21136
1.9008818,133.26831
1.8650697,129.57414
1.9207147,133.36615
1.9711051,130.25256
1.860677,134.05017
1.8917885,136.16115
1.8510257,133.20538
1.8316877,134.30156
1.8651816,134.8161
1.7589128,136.93076
1.7260473,132.77919
1.5989779,131.5692
1.5914907,128.57797
1.6311276,132.91061
1.5779698,131.03253
1.5754446,128.8136
1.5221766,126.90641
1.5091803,125.877
1.4690914,118.75767
1.5280733,125.23289
1.4153448,124.731125
1.4490844,119.71293
1.4024997,112.07029
1.4338905,117.24125
1.3731968,112.84534
1.3434477,115.48222
1.3438355,111.217476
1.3299036,110.46013
1.2501162,108.24656
1.1423401,110.81649
1.1983049,107.01408
1.117725,106.97173
1.0334029,103.078575
1.0325651,98.10365
0.9333618,98.21125
0.83260095,95.62173
0.8464842,100.756325
0.86753815,94.26583
0.87147623,98.80958
0.85221297,94.34135
0.79440135,94.95638
0.81102,90.35117
0.7703842,89.88356
0.77515703,89.76324
0.7415427,85.67574
0.7494343,84.793076
0.62873197,85.52977
0.68659866,83.9224
0.71731955,85.04614
0.6247054,83.96389
0.5877961,81.79437
0.4515082,81.83058
0.474305,84.159805
0.44216576,85.085594
0.46913418,83.41067
0.3355185,85.13262
0.4132488,88.132774
0.32185826,86.20629
0.35911033,89.88644
0.36145586,84.187096
0.4267057,92.26483
0.46403888,97.20995
0.54656345,99.06895
0.61028844,97.47777
0.7369153,98.035995
0.74311566,101.9793
0.9005726,103.42318
1.0686182,105.59343
1.1278576,110.26122
1.2708739,113.82068
1.3039811,114.64837
1.4137495,113.36688
1.462715,120.66353
1.4307699,123.944
1.5377604,122.12076
1.610857,120.45598
1.6325067,128.02783
1.6262068,122.59107
1.7408394,129.66455
1.6928529,129.15413
1.7250254,132.35349
1.5993904,136.10872
1.6143122,134.78992
1.7285271,140.74403
1.6120323,134.67366
1.5969192,132.78482
1.5328821,135.22134
1.4685076,133.43658
1.5327576,130.92207
1.4188325,132.06274
1.4389263,133.50215
1.3937825,131.5635
1.4298588,133.4592
1.2875465,127.14169
1.3467962,127.08812
1.2645286,123.92122
1.1641594,124.88303
1.2352537,121.93443
1.1983035,120.42695
1.1030883,120.90724
1.122822,119.610405
1.0852047,115.193535
1.0963143,117.51661
1.0362446,110.82825
1.0886314,116.24263
1.0694531,112.62626
1.0189548,111.43467
0.962715,108.42585
0.84930915,104.41929
0.83194375,110.01921
0.8883583,103.4774
0.82492644,101.54831
0.763038,102.3296
0.67123985,103.30163
0.6716186,94.741066
0.5831057,99.98622
0.5431546,97.91129
0.5667569,100.77307
0.5662144,92.87386
0.65584475,93.54844
0.41504318,93.70276
0.43081838,91.22331
0.3846689,88.645
0.53577715,88.750374
0.49889454,84.925934
0.48739475,89.95292
0.4614075,82.19418
0.3590378,84.6358
0.30866504,83.07495
0.31925032,84.52435
0.2158804,82.5091
0.20173137,82.03549
0.11413597,80.697556
0.052377094,84.13954
0.08957905,82.645546
-0.007750268,90.094315
0.105212726,88.90783
0.056939777,85.830246
0.15733038,85.684654
-0.022312291,89.50749
0.23149477,91.01591
0.2108149,93.09679
0.36499834,98.338005
0.4726415,99.09862
0.5125355,103.84704
0.64639556,107.55904
0.68796134,105.41711
0.82092327,110.24236
0.9640458,106.346725
0.99205667,116.068665
1.1434877,111.73851
1.1474229,113.77543
1.2644542,125.32149
1.258252,120.44151
1.325328,133.52788
1.4339536,133.03796
1.3950332,129.34358
1.3377749,129.08493
1.3437501,128.548
1.4597858,136.0143
1.4663187,134.45973
1.4529316,136.79729
1.4272306,135.09279
1.3963208,135.58813
1.2896007,135.97812
1.3410996,137.98343
1.2834703,136.16257
1.2646745,135.204
1.1650267,131.4707
1.1821685,134.69759
1.1406381,128.53214
1.1574773,130.8479
1.0572735,127.23596
0.9182646,128.08032
0.9224459,126.92468
0.88204527,125.07115
0.90639514,128.28107
0.94506335,120.249146
0.9258145,120.458725
0.9836227,122.409294
0.9763195,112.31932
0.9757151,114.54019
0.8715788,112.32476
0.8811582,114.061325
0.8106775,113.95741
0.79121375,112.553185
0.7304584,111.54109
0.76868504,113.28035
0.73931444,104.51928
0.5739635,103.99613
0.5585073,100.10582
0.54873997,102.70482
0.465176,103.67465
0.42067483,100.81507
0.45302024,96.035515
0.45675427,96.44331
0.3668484,95.36889
0.35073036,93.137184
0.32732314,92.15733
0.36772478,92.95569
0.3581271,87.34365
0.25503558,91.18892
0.3418128,92.651764
0.27563477,87.41418
0.30724004,86.8121
0.28996387,84.13196
0.19339393,81.99629
0.24080983,83.32111
0.19452614,86.11556
0.12605524,79.79596
0.08374507,83.492386
-0.065377295,83.670876
-0.037651483,84.880745
-0.06520173,84.04813
-0.09705306,85.60028
-0.0079547595,87.80971
-0.13909924,86.95458
-0.038836375,89.221855
0.07265248,87.74274
0.034822106,90.19431
0.12891105,92.439064
0.34459803,94.50048
0.29087657,103.18969
0.44726405,107.37985
0.5698666,102.88313
0.74506336,102.79547
0.7906108,105.00255
0.83068055,117.19799
0.9966971,113.08925
1.0471237,113.18149
1.1509364,118.96411
1.1667372,124.27703
1.3051425,126.81233
1.3420027,125.11931
1.3402585,124.93159
1.3867438,127.65104
1.4010146,130.09526
1.4008249,137.88594
1.2974547,129.79042
1.3777614,133.23584
1.4491819,136.89008
1.3677003,134.92667
1.348631,134.52107
1.2985262,134.72464
1.3173593,134.10152
1.2560512,129.99297
1.2015857,136.56544
1.2962862,136.26935
1.3029503,131.11864
1.1433898,132.7209
1.1630547,132.61763
1.0213463,128.97774
1.0748606,127.968094
1.0844412,123.27954
0.97931874,126.13567
0.96368045,121.598816
1.0979438,120.99913
1.0095212,119.87625
0.84565693,118.55246
0.9930112,120.89996
0.8499858,115.29466
0.97564465,115.212875
0.8956186,111.648575
0.9064227,109.75286
0.8484478,110.88302
0.8620734,113.34179
0.8209283,107.37287
0.76750946,108.95767
0.6778106,105.454636
0.6727675,102.606255
0.6102219,99.44966
0.6553564,98.2553
0.50832,94.37258
0.49345145,100.0535
0.43843994,102.941086
0.46449307,91.11394
0.5158602,96.65797
0.52206564,94.55487
0.4863644,92.2194
0.4421012,87.300674
0.5150447,88.30842
0.44971526,90.31262
0.4190876,87.75266
0.40488243,83.60221
0.4155362,80.866295
0.29865423,85.77083
0.36918277,80.26418
0.29120696,85.55476
0.275946,85.61746
0.231232,82.69276
0.16187249,84.80445
0.24379331,82.1454
0.16329654,83.4225
0.145115,86.58213
0.031715814,83.950294
0.17637058,88.316154
0.168171,82.19317
0.16572249,93.88974
0.22701573,92.03555
0.30011582,97.299164
0.4337388,96.29194
0.4615262,103.91794
0.6672902,104.103745
0.80855453,103.26992
0.8812278,108.144875
0.9849474,110.166245
1.1187339,116.083725
1.2278328,110.08494
1.2704538,115.18997
1.3983357,117.9672
1.4026439,120.99214
1.4556389,121.56299
1.5102259,129.69675
1.5248649,126.93716
1.5421779,128.39284
1.6384954,128.24583
1.6283596,135.03967
1.6241709,134.8491
1.7245301,134.1829
1.6481339,133.50642
1.6363965,130.84897
1.5940453,134.07028
1.6101018,134.10092
1.5390152,132.94429
1.5722927,136.12476
1.4251312,134.43959
1.3986589,136.08084
1.4219439,133.27031
1.4722625,131.8344
1.450318,129.25427
1.3678912,125.27687
1.3177145,125.87167
1.3106922,123.36299
1.2966571,124.61229
1.292995,125.543205
1.3106631,119.90946
1.200414,117.82617
1.2795734,121.38112
1.1345123,118.426895
1.1900767,118.79945
1.2076218,115.74957
1.1797141,111.26965
1.1945223,109.49901
1.0997634,105.99762
1.0724952,107.75105
1.114773,106.14547
1.0938069,104.379326
0.92264366,98.5525
0.8389897,103.36507
0.8078094,96.08086
0.8510961,104.405365
0.86241156,97.09866
0.78013045,93.62067
0.7759568,97.24534
0.72058475,94.07278
0.697328,98.15836
0.7092984,90.70296
0.74398017,89.108315
0.7004068,87.44714
0.7806903,87.76787
0.78179765,84.66142
0.76620185,82.782
0.7493046,82.7617
0.6643595,83.32616
0.6962823,84.17027
0.68534774,84.39772
0.5862809,81.89298
0.5907361,84.58
0.49455246,81.93737
0.50237525,81.85701
0.46425176,83.392654
0.36936292,85.60276
0.41915977,84.91969
0.42794278,87.7837
0.30912372,85.061134
0.4068892,88.28359
0.5540408,92.78086
0.58344215,91.86053
0.6328888,95.89846
0.7097308,99.96517
0.8512936,97.34419
0.9651132,99.87103
1.0622106,103.915115
1.1147711,109.926674
1.2679553,107.17517
1.3592504,110.58425
1.4127544,115.90782
1.6073624,116.563225
1.6225324,118.8525
1.6656244,124.50137
1.7621555,123.401665
1.8186805,131.8122
1.7649994,127.73136
1.8024037,131.80493
1.9061759,134.82747
1.9343929,132.0731
1.9106779,134.36125
1.8560799,132.8381
1.8915634,129.68192
1.8566983,137.40877
1.9426503,135.6369
1.8320616,133.97731
1.8930255,138.18877
1.8267956,134.923
1.7501717,131.86314
1.7229389,132.39722
1.8012885,132.55124
1.6556911,131.88512
1.677389,129.93599
1.6477915,128.83034
1.5636249,123.467186
1.536752,127.804855
1.501445,121.97566
1.4628571,120.75827
1.3662915,121.27843
1.5263847,119.390884
1.5331663,116.16003
1.4533324,121.825806
1.4706081,117.312195
1.4168257,115.80929
1.3780955,114.808716
1.437033,112.829865
1.4151093,113.69028
1.3282812,109.28307
1.2634436,108.30682
1.2970232,101.28703
1.2817,106.01836
1.1332239,102.05514
1.1067348,104.67705
1.0883688,101.35851
0.98796916,96.577
1.0303766,100.91833
0.9356756,95.41327
0.8674791,97.689095
0.8894751,93.46177
0.9195131,90.70484
0.8433362,91.150795
0.9110878,88.440025
0.9615728,90.348465
0.86873025,85.90193
0.91647315,85.549774
0.8808825,80.80125
0.86318463,82.63027
0.77605945,82.93683
0.7961122,82.86263
0.76471806,79.88602
0.7547982,85.03217
0.74444306,85.78346
0.63287294,84.17896
0.6089966,80.405716
0.54339314,81.03467
0.5090505,84.30443
0.47558492,84.79912
0.4961905,88.47633
0.6515462,91.13239
0.6008051,87.19984
0.7143829,92.65125
0.82787085,96.976074
0.8548078,96.893906
0.9509916,98.46732
1.0826175,94.97316
1.2063792,104.65409
1.358357,104.47422
1.3638918,110.511986
1.4826767,111.34441
1.6638024,110.52284
1.7039772,115.98209
1.7232234,116.76947
1.8072339,124.28474
1.8784444,123.87897
1.8257391,125.066315
1.9222138,126.84123
1.9122177,133.02103
1.8699924,132.189
2.0437438,132.08904
1.9367039,136.11014
2.0019195,131.69795
1.917957,133.28307
1.9095883,139.88507
1.9721861,134.33165
1.909704,131.70029
1.867349,137.01387
1.8418182,132.0942
1.847573,131.24954
1.8370202,130.36183
1.7307464,131.209
1.698938,128.96683
1.6711899,128.51126
1.6341262,126.118385
1.616079,125.59701
1.5465314,125.02383
1.4923921,124.50451
1.4026103,122.95708
1.499371,121.50244
1.4744909,121.27172
1.4811819,122.459625
1.4262158,116.42037
1.4056394,114.7839
1.4317985,116.05401
1.4221958,111.30806
1.3683373,112.19392
1.457769,112.5765
1.3176786,107.806145
1.3146805,105.095726
1.1942081,105.705986
1.1063066,104.45064
1.0676252,103.06301
1.0924242,101.40457
1.0144032,98.89074
0.88322467,102.856804
0.9491585,96.2903
0.9568438,97.259705
0.85772306,96.921036
0.7854507,92.89064
0.84976375,93.64549
0.7330647,88.57956
0.89860165,86.89084
0.78091586,82.527245
0.8434539,85.279945
0.84377,86.39558
0.80911326,87.32393
0.822458,85.62078
0.73077655,82.82382
0.71118957,87.689545
0.694966,85.143814
0.6352632,86.257904
0.511826,79.81579
0.5347639,82.62541
0.45944166,85.44454
0.46762756,82.38464
0.4682361,88.08903
0.37164393,85.80614
0.40805352,88.47658
0.41287377,90.52569
0.5789105,87.651665
0.57327545,93.46836
0.56674665,93.27833
0.6981784,95.872
0.86196184,97.856445
0.83066326,104.76958
1.0502338,107.377235
1.1305228,109.15049
1.2313716,106.135574
1.4304478,114.284035
1.3865993,116.54799
1.4202104,114.85996
1.5701902,120.082825
1.6089624,121.103035
1.6603242,123.45436
1.7347134,125.19373
1.7466387,128.99391
1.7043138,129.62767
1.7196292,130.90894
1.747795,132.37508
1.8092705,131.55107
1.7756635,135.84958
1.6842011,135.78912
1.7641505,134.9708
1.7696092,133.31287
1.706623,136.76706
1.6692395,136.61362
1.650618,133.47697
1.6351733,133.37044
1.5529197,129.33916
1.4964175,131.3868
1.5044518,130.09981
1.4574296,127.55783
1.4727135,127.87043
1.3286245,125.9705
1.3611271,127.49576
1.2675937,122.826866
1.2586429,120.245544
1.26605,121.08777
1.3089697,121.29017
1.2718468,121.961655
1.2034285,120.07944
1.0918859,114.32339
1.1340566,119.91453
1.2034391,110.48239
1.1540774,109.7369
1.0668584,110.28053
1.0268955,104.67929
1.0631397,105.862144
0.9474712,103.01645
0.9048277,103.0819
0.8322278,101.100815
0.8310749,103.21702
0.76277184,99.27315
0.6900973,98.822716
0.7297334,98.994415
0.6450371,90.39575
0.71849936,96.2656
0.5747101,95.03543
0.54949707,89.54877
0.5606883,88.444466
0.5729952,86.837135
0.4986739,86.09148
0.59052926,89.92557
0.5240046,87.56957
0.5590888,86.16224
0.5714094,80.72685
0.5294606,82.89465
0.5065198,79.815895
0.3657547,83.41251
0.29354322,87.00189
0.28606734,84.58767
0.2043287,82.86093
0.22484134,77.570564
0.15942356,86.81812
0.16978393,83.5127
0.15968187,90.01225
0.15655959,92.20681
0.104197666,86.00602
0.31928617,91.17518
0.3393752,92.54083
0.39106172,91.246895
0.42662373,97.13446
0.53662413,104.97699
0.57687134,104.6284
0.73569655,109.71015
0.8655185,103.30708
0.96047163,113.52073
1.0167155,114.626785
1.2148628,116.359795
1.2292602,118.26137
1.2408829,121.5518
1.3370831,121.85764
1.4147484,121.44474
1.3506037,124.62563
1.4560943,127.02736
1.4379516,130.34503
1.429695,132.10802
1.412711,134.74931
1.4782444,131.21332
1.5105299,131.45476
1.4729667,135.67928
1.5190326,136.34511
1.4055597,130.50299
1.4730422,139.53012
1.4002384,136.01492
1.318417,136.8152
1.3117325,136.93994
1.3082004,132.03505
1.2871588,132.80498
1.192671,132.6049
1.1870375,125.85348
1.1622783,127.70145
1.1550897,125.05504
1.0897796,120.73225
1.0430177,120.9436
1.0242146,120.892876
1.0248654,122.10349
0.95458746,121.41178
1.0697856,121.96625
0.9753483,118.706665
0.89156145,113.85725
0.9479709,109.620705
0.9036949,109.96091
0.97066617,112.394135
0.7757923,111.04731
0.7943681,106.80481
0.746988,108.32186
0.78552127,109.16723
0.75253904,106.12951
0.60884213,105.570335
0.6084894,98.1716
0.49481097,100.3557
0.49423248,95.1594
0.41396344,95.177956
0.38634238,97.99146
0.35870674,94.778305
0.2914623,92.826
0.3208641,95.95288
0.36018747,94.10442
0.386495,86.06938
0.26408198,88.71924
0.38048545,87.846985
0.30471483,84.62199
0.20143476,87.57546
0.33819056,82.58272
0.31838882,83.0442
0.14141275,80.44087
0.20251462,83.098335
0.16964394,80.772545
0.062180035,83.81155
-0.004362399,79.509056
-0.04039743,86.811356
0.067978986,85.13122
-0.020550871,85.171165
-0.079259284,88.508865
0.04159496,91.28763
0.04758356,90.11035
0.07266781,91.560196
0.18582886,93.5037
0.21115227,95.924095
0.30970702,95.15077
0.35082367,98.18383
0.4813883,103.28407
0.5272459,106.286354
0.7461794,104.2383
0.7083348,109.10191
0.8832793,111.64761
1.1353415,116.45501
1.042605,118.798935
1.2025843,121.19434
1.178588,124.29599
1.2091969,126.5908
1.2862448,122.442116
1.2656703,128.83723
1.4051139,127.333244
1.3610537,129.74121
1.3163079,132.91815
1.3294091,135.31984
1.3036275,134.54442
1.3095819,134.45546
1.4299046,130.9545
1.3887031,136.50458
1.3099954,138.46808
1.3034396,136.68285
1.2988472,133.32184
1.2311003,132.3541
1.1856897,131.52968
1.1041175,129.8394
1.1836188,129.04315
1.1385376,126.7049
1.0659895,127.21128
1.0439488,128.74501
1.0569794,127.57943
0.95500445,124.8497
0.9050715,125.98163
1.0191714,118.523346
0.89442325,117.70391
0.9881922,116.611206
0.98267287,118.43489
0.84201473,122.374725
0.9009272,110.73373
0.87168765,113.34454
0.8400414,109.344215
0.78912085,114.684135
0.73798174,107.9393
0.7105407,108.444984
0.7408343,106.86054
0.66392154,103.79226
0.6389534,103.60302
0.584917,106.907936
0.5820587,101.92803
0.40089417,100.13835
0.42278814,99.36355
0.41423059,95.0482
0.43429282,91.979324
0.46578288,96.11572
0.35153317,90.488464
0.37025058,89.98753
0.357882,87.805275
0.38535693,87.905556
0.3765945,88.37414
0.42067036,87.97317
0.34990317,87.19694
0.24294952,81.374855
0.28904805,82.66173
0.30407527,80.70765
0.23701502,85.855835
0.26057148,80.41824
0.21631743,83.88114
0.00058766163,81.35824
0.08614633,86.830894
0.026321433,84.35673
0.06515913,84.129105
0.011918168,87.18092
0.04413197,91.54162
0.039559457,92.61652
0.1717756,89.405266
0.107535936,97.32546
0.33422905,95.02968
0.43065438,97.566025
0.44104564,98.180695
0.64123535,103.92776
0.770763,105.0156
0.8282549,108.41092
0.9966543,112.138855
0.97781867,113.168816
1.2226926,115.531525
1.2231994,116.67299
1.3197523,120.63854
1.4077418,122.56428
1.455158,123.909
1.3883568,123.665825
1.4392664,129.31937
1.5158947,127.4384
1.5389254,128.74794
1.5312546,127.805984
1.4293501,131.47018
1.5343487,134.78026
1.5505719,134.47636
1.5556256,132.75175
1.5349005,132.00839
1.4485762,132.43059
1.4154067,135.57352
1.4628696,131.78156
1.3962508,133.15845
1.3620987,126.68364
1.3662204,126.528206
1.2694911,132.623
1.3703071,125.44877
1.2093829,128.58617
1.188943,127.50353
1.2109321,125.49956
1.182144,119.25377
1.1461135,128.11676
1.0895878,118.91312
1.1151028,122.77769
1.1409633,116.06164
1.1014435,117.823555
1.1581554,117.96803
1.1045332,114.21237
1.079921,111.40661
1.092938,109.73689
1.0321456,108.35039
1.0035745,108.88776
0.94990146,108.15407
0.8758937,105.68996
0.8654217,101.759346
0.88032824,102.16563
0.8559447,100.060265
0.8297886,100.89404
0.7434143,98.71415
0.6388734,95.65554
0.6357649,94.261116
0.6152214,91.52236
0.5792134,96.359024
0.64649475,92.25614
0.65131444,91.941505
0.6034494,88.31198
0.6703121,90.00289
0.58324754,82.83785
0.61194813,85.68752
0.54205024,85.736305
0.5822378,81.859695
0.61758715,92.19741
0.44163004,82.75408
0.53353804,83.30022
0.4135152,86.1201
0.42752787,80.59782
0.34250867,85.975945
0.2924582,83.25667
0.31919223,89.37337
0.31659147,87.64967
0.30006778,87.86968
0.30074248,88.473564
0.39457586,88.212395
0.4677097,91.590416
0.49791378,93.94263
0.54567784,93.94598
0.6465128,100.098206
0.75952023,100.42845
0.8675761,105.14027
1.0781878,102.170715
1.1665219,105.31692
1.2482278,114.45555
1.3543026,107.988045
1.4012363,118.47622
1.53636,116.15724
1.5108715,123.51428
1.6687053,122.54151
1.6864654,130.47792
1.6524909,123.35221
1.7731712,129.19528
1.8159844,127.65186
1.7859273,133.97218
1.8180051,129.60527
1.8412913,135.22421
1.8752843,133.85678
1.800189,132.73471
1.7830962,138.13245
1.8255088,136.58708
1.8277742,134.6146
1.7873747,134.75735
1.6905708,133.57632
1.627765,131.96803
1.7074314,132.58418
1.6049805,129.4079
1.5366689,128.46756
1.6448476,134.06337
1.5679818,129.09624
1.4685153,119.5046
1.5121685,122.64992
1.4231911,122.701706
1.466731,119.854774
1.3823414,116.98551
1.4256854,124.96811
1.4579457,121.18047
1.461519,123.74855
1.40843,118.30845
1.3417104,119.12643
1.3763293,115.02231
1.297473,113.16392
1.2589529,109.32691
1.1967446,111.07334
1.2459753,108.708084
1.1323624,107.454865
1.1410617,105.28384
1.2021788,104.5783
1.0133111,98.841156
1.01389,102.073845
0.9893306,97.54814
0.98429424,99.0226
0.9213083,101.51614
0.8497893,98.34692
0.854661,92.37834
0.91409713,92.149895
0.8049996,90.71047
0.87550217,84.12529
0.8428536,91.937614
0.8604755,89.28269
0.8846878,90.65658
0.8238509,82.2321
0.7967277,86.381454
0.7888722,86.76431
0.8054652,84.31925
0.73791796,82.090034
0.5706215,87.217606
0.5278997,84.09856
0.53788424,82.86979
0.56173193,85.08091
0.575589,81.72091
0.5143548,86.22094
0.46894133,81.88947
0.618178,87.05045
0.6196935,87.219536
0.7122877,89.87579
0.7143794,90.1181
0.7766328,92.86643
0.8804401,97.929474
1.0031003,102.061295
1.0607976,107.306526
1.2352644,110.497375
1.3139138,104.18726
1.5088861,109.01782
1.5022407,106.83289
1.6097685,114.40252
1.683557,114.84473
1.6811271,115.22049
1.7977086,120.94269
1.8637267,125.48036
1.8534907,125.02834
1.9360026,125.43149
1.9217557,128.7237
1.9355632,130.69955
1.9953754,129.34868
1.9080951,133.64056
1.9765985,136.32701
1.9160703,135.3486
1.962834,137.89734
1.9190308,137.7069
1.9546895,134.14188
1.9457378,132.13005
1.7876056,137.75948
1.7642714,133.03642
1.8193673,130.79417
1.768151,131.09848
1.7110915,128.80386
1.6829599,129.41304
1.6292711,127.737656
1.559521,125.00851
1.6031221,123.559906
1.5479208,120.985886
1.5053285,124.679474
1.5499135,125.86058
1.4741588,117.27319
1.5007796,118.59788
1.5390879,111.36025
1.5054139,119.65018
1.4846481,113.73348
1.417589,112.29224
1.5548679,114.479225
1.3355371,113.75681
1.4008769,107.86304
1.2994033,106.885445
1.1852118,104.88023
1.138284,106.79315
1.1110351,102.89463
1.0550933,99.19701
1.0132933,97.18766
1.0187203,93.777435
0.97054356,98.01399
0.9046231,96.30465
0.9951304,90.42888
0.9985175,92.101685
0.952425,90.824265
0.87423444,93.31118
0.93182534,89.317184
0.86923903,87.44536
0.83573055,90.17857
0.9033262,86.4801
0.84430575,83.847305
0.87096876,81.98888
0.80796826,85.164856
0.7375777,82.021706
0.7163913,78.58372
0.6009187,83.62356
0.6248558,78.02364
0.5966704,83.77178
0.5019042,82.01426
0.48111162,84.43582
0.44004893,84.65126
0.53018284,84.87506
0.46413994,90.260376
0.509471,89.33831
0.56331366,93.81343
0.6334389,90.47458
0.78528583,94.3634
0.8882287,94.94581
0.8851154,97.7635
1.0443535,105.56648
1.098264,108.4515
1.3037864,111.88641
1.382106,112.030594
1.3946135,111.30197
1.5558075,114.47847
1.6240503,119.25828
1.6807691,121.57666
1.7135211,120.82517
1.6983626,122.98578
1.7741821,126.799995
1.8645294,129.84929
1.8946643,130.16457
1.7613194,133.02524
1.8407199,133.43256
1.8418852,132.2674
1.8681166,135.23813
1.858373,133.26321
1.9080218,135.00926
1.815188,136.37302
1.7632014,132.63284
1.7118452,134.11565
1.690608,133.49748
1.6437262,132.27982
1.636109,130.25957
1.5996321,129.3063
1.6017765,130.46194
1.5566359,128.20648
1.4851695,129.67451
1.4617949,124.1382
1.3622122,123.95927
1.403091,123.82997
1.4270082,123.816826
1.4263443,120.99638
1.3534814,120.09835
1.2398667,118.265114
1.2941768,117.16376
1.3747544,114.2789
1.3485159,115.741165
1.2363378,113.09397
1.2215648,110.61888
1.1741922,112.27288
1.1030216,104.673965
1.086813,103.268555
1.0756708,112.47417
1.0374149,106.67461
0.9124336,103.059715
0.8457442,101.28578
0.770817,96.62364
0.7642438,97.88991
0.79702663,99.61694
0.7014501,96.89595
0.77596354,92.83426
0.5664897,96.55523
0.67232674,94.64424
0.6270736,93.43801
0.6339469,89.743546
0.6632482,84.38313
0.64325583,87.80103
0.6129668,87.02379
0.6988339,87.01739
0.6615349,87.98928
0.5821751,82.91868
0.5341286,80.470985
0.47405794,79.40164
0.3461019,83.05552
0.31136873,82.7176
0.3612082,82.74271
0.23583792,82.896996
0.22094153,80.87288
0.24614446,86.48422
0.18918677,85.944084
0.258215,87.402725
0.3475079,86.98799
0.38211125,93.29635
0.37031522,96.91912
0.5017921,93.714676
0.6381981,99.98297
0.66592807,103.22836
0.75951684,103.25989
0.7755032,103.81902
0.99549085,109.57997
1.1157507,112.74169
1.2388222,109.375984
1.3667125,111.21441
1.2540978,116.037994
1.3159778,123.32816
1.4259386,124.214226
1.4323573,124.555405
1.5691047,125.436035
1.5540907,130.7478
1.6120603,129.70494
1.532097,131.91258
1.5778546,138.07927
1.5489447,131.26022
1.4772774,136.10046
1.6070275,136.65839
1.4954773,135.48706
1.4923507,135.56343
1.4876368,137.87466
1.4590465,130.79298
1.386097,130.86209
1.4074519,132.61716
1.2976885,135.855
1.257658,133.48317
1.2763466,130.15047
1.2228985,130.06673
1.1617357,130.30377
1.204597,126.06212
1.0872598,123.672386
1.0242345,125.5708
1.1075858,121.69594
1.0713402,119.40248
0.9422066,116.50285
0.9649384,116.91596
1.0150155,115.64015
1.0888072,116.800224
0.94013065,111.20781
1.000039,112.57557
0.99944913,110.40314
0.942272,107.36468
0.85068727,113.404144
0.7680153,108.69719
0.7054297,106.34965
0.6764275,102.53581
0.6359089,99.65077
0.5910969,99.24787
0.575575,100.998245
0.5137509,99.75461
0.5399461,99.59858
0.5350405,92.81587
0.4512197,92.88821
0.43735126,92.60095
0.5075172,89.702034
0.41399708,93.43964
0.45420864,92.7483
0.42783335,93.53092
0.44139478,88.5334
0.40688407,82.59504
0.3306354,83.84944
0.3097898,79.856
0.22717284,83.50792
0.32245103,83.919716
0.27891335,82.57653
0.1119609,83.736664
0.12495871,83.94927
0.024731215,80.05635
0.03518108,85.523224
0.032156806,86.27131
0.025373908,87.54792
-0.078210264,87.43985
0.06220689,88.481224
0.10971706,87.17217
0.13430947,89.084946
0.14191768,93.28233
0.19585606,94.23995
0.29716843,100.870255
0.44338724,98.270584
0.5560819,105.789116
0.7517736,108.046364
0.8496316,108.67693
0.90002173,110.938126
1.000754,109.82099
1.17124,113.12798
1.0673357,118.03434
1.1405379,119.75886
1.2207811,118.91361
1.2588515,126.861206
1.3400403,124.24419
1.3644898,134.35423
1.3111259,129.84618
1.3732326,133.6968
1.3055383,134.03346
1.4120442,136.82907
1.3293214,136.2164
1.3897377,137.35791
1.3273426,133.9905
1.2374116,134.21329
1.3423707,136.31924
1.3424046,135.22478
1.2805457,135.09311
1.1877573,136.97565
1.1827823,130.27484
1.1231291,134.14005
1.1167324,130.35138
1.124653,126.18488
1.087542,126.23549
0.99711984,125.87559
0.99334913,129.58192
0.9672193,126.23836
1.0336953,123.89156
0.9008229,119.42124
0.9385609,119.30318
0.90104246,117.57135
0.85813606,115.148125
0.8797447,111.58958
0.8362392,111.76493
0.8180873,112.80182
0.7782162,110.336426
0.7925794,112.24516
0.71355623,108.03578
0.6963738,105.62503
0.66754186,103.76164
0.5294245,103.28527
0.57342494,104.90953
0.45455047,95.816025
0.3523232,99.65885
0.49099353,98.682236
0.28774145,101.21082
0.38842008,96.108086
0.33572158,94.28586
0.33804455,93.17315
0.34031284,91.8536
0.23329102,86.92519
0.40023285,87.522675
0.39090338,86.41167
0.2927363,88.38729
0.31323874,83.55268
0.31350753,85.50045
0.2409039,85.04172
0.27011174,86.74365
0.23725775,78.86081
0.16302556,78.261566
0.14467333,80.459496
0.080046676,82.76216
0.0025085977,83.058365
-0.0037845147,79.981735
0.02333065,83.47733
-0.0732412,87.26433
0.015466749,91.71364
0.051961422,88.34458
0.09040349,88.20671
0.13287388,98.42579
0.17591695,95.31086
0.26744902,95.70857
0.42763028,99.2234
0.4271584,99.18658
0.55133486,103.28747
0.70267266,105.32943
0.77691776,108.3808
0.86887777,111.7843
1.0385401,112.345215
1.1179107,117.12407
1.2348629,115.14667
1.272439,125.0993
1.2760447,119.29385
1.3024275,124.95443
1.3211507,126.88968
1.404362,128.92249
1.3898787,131.43793
1.5062327,131.05606
1.4563309,134.30325
1.533589,134.9932
1.4353987,137.54219
1.4337631,134.30646
1.4872388,139.61118
1.4499682,135.25684
1.4255649,131.80339
1.3246839,132.47063
1.4541898,135.17157
1.4310372,128.87329
1.1960865,132.73318
1.2009233,130.28413
1.1979226,131.87343
1.14002,129.73334
1.1763649,127.82263
1.1043487,124.3792
1.1421973,127.323135
1.0997173,128.31367
1.1353315,124.176125
1.0018034,120.06721
1.0215112,119.57529
1.0808703,113.70315
1.0152024,113.59963
1.0389208,114.251015
1.053613,114.53766
0.97589564,112.53681
0.95911497,107.795586
0.9587234,108.930664
0.8838917,109.86992
0.8397094,105.41734
0.7586479,106.41317
0.6601656,103.39987
0.81870496,103.103325
0.56943065,99.830666
0.651376,96.881096
0.51654536,94.94274
0.5731811,100.27985
0.53726315,92.06844
0.4917985,96.73247
0.4904825,89.143326
0.5089251,88.81321
0.49880213,91.23882
0.55939573,88.59569
0.5464253,85.823784
0.5285665,87.4384
0.5285012,85.45158
0.48099348,83.31774
0.48819503,78.79951
0.5592258,81.981636
0.4550741,82.602776
0.30883056,87.33161
0.29100168,83.10494
0.27439788,82.27775
0.255067,82.76242
0.32587418,81.12935
0.21086307,84.80357
0.20310272,83.63916
0.29404834,88.11595
0.22315659,86.2441
0.359839,90.54906
0.41161337,94.00014
0.38983688,92.85617
0.5433896,98.95959
0.5389125,100.621086
0.7838737,100.85598
0.90497404,98.64156
0.94860834,108.502174
1.1317866,112.378395
1.1268283,104.71623
1.1946843,115.41056
1.3134112,115.06846
1.5234175,117.08798
1.4700564,118.598015
1.5276594,122.07547
1.5124537,127.803535
1.598947,125.80781
1.700906,126.14247
1.7260358,128.37584
1.699551,131.01662
1.676313,128.63687
1.7043555,134.14117
1.7253907,136.02136
1.6581672,131.85706
1.7004479,143.32515
1.6902237,136.26328
1.6960082,132.93735
1.7667572,134.73001
1.5892313,131.18518
1.6028941,129.35527
1.6478789,136.04153
1.4413122,131.06621
1.4919064,127.89826
1.4446203,129.51187
1.4291141,129.17003
1.3382542,122.53369
1.3576106,124.36308
1.3131344,123.91843
1.3153992,119.585976
1.3392825,122.34809
1.2963842,119.37608
1.3530695,115.34593
1.2758656,118.892624
1.2998271,110.981316
1.3073348,110.28262
1.2714938,113.21908
1.2192134,109.951485
1.222682,109.91062
1.1648729,106.67334
1.1587014,104.59289
1.083744,103.54524
1.0460207,105.361015
0.99699736,99.69886
0.8841228,99.69569
0.9083146,101.16108
0.953466,98.34161
0.8087733,94.837456
0.7954611,96.84979
0.8992365,92.74617
0.76610845,92.30809
0.8493989,91.374466
0.8196196,94.31219
0.80914813,89.2378
0.81532073,86.624466
0.82540923,88.48632
0.8038262,85.536995
0.84603035,83.24964
0.77073115,84.47926
0.7034402,85.66329
0.60230225,82.3074
0.5658863,81.7924
0.5527412,89.50676
0.59834355,85.78433
0.52301604,83.02226
0.45671138,89.251625
0.5317855,80.80394
0.4892326,90.302414
0.5036705,91.817856
0.50155616,89.59891
0.5523656,86.21207
0.5893016,92.525665
0.7205037,97.91114
0.8035714,98.27528
0.87258613,99.11548
0.99943364,101.92402
1.0390339,101.36651
1.1434665,103.32538
1.2845016,107.44639
1.4407256,112.77346
1.4899046,115.91736
1.5952022,114.59061
1.718653,125.000084
1.7278205,118.20603
1.8744783,121.05039
1.8508639,123.3818
1.8316305,123.48383
1.9798638,131.61748
1.965909,134.17471
1.9354596,134.82217
1.9721774,127.128365
1.9346073,138.56096
1.9646028,138.69461
1.8934783,136.48242
1.935116,130.1827
1.898881,133.90663
1.9346561,135.12286
1.8943939,135.47476
1.8677903,134.95126
1.7979282,129.27504
1.7576466,134.81863
1.7071077,127.857414
1.660521,133.61992
1.5755028,130.5751
1.625105,130.19525
1.5581648,131.92807
1.5966432,122.74734
1.5669048,119.08513
1.4821585,121.18607
1.571552,120.60194
1.4925061,121.49471
1.4750719,120.29895
1.4870319,117.51102
1.4753612,117.150826
1.48337,114.73795
1.3904912,112.27431
1.3934923,112.47402
1.3665335,107.52897
1.3339162,105.413185
1.2319952,105.60217
1.2411573,100.48633
1.22812,101.19658
1.1181576,103.15791
1.069174,96.717804
1.0671636,99.29686
1.0595348,99.61259
1.0112692,95.74475
0.91177016,95.76962
0.9741768,94.25118
0.91350186,96.77099
0.9412383,90.44137
0.90378976,85.19931
0.8939147,86.710686
1.002857,88.313095
0.8628825,86.85158
0.88314736,86.66367
0.8283848,83.14913
0.84961057,85.194046
0.8716282,84.93999
0.7500738,83.11318
0.72636557,83.44048
0.62313575,83.297134
0.73183936,83.49986
0.69604754,83.62631
0.60346586,83.68168
0.53725135,82.75769
0.55785936,87.28475
0.5971134,86.38889
0.5747887,90.4865
0.5953854,90.93871
0.63805246,93.91458
0.7319608,92.8117
0.79480064,94.95717
0.94167185,94.65475
0.97035474,100.314
1.1263217,102.92897
1.2282932,106.96023
1.2971491,108.89056
1.409259,108.480125
1.5925857,114.49464
1.6352984,113.26878
1.7050487,119.580956
1.7424148,124.033714
1.8101509,123.37864
1.821942,124.66785
1.850026,127.05564
1.8986654,127.628265
1.8786106,129.96442
1.9659907,130.50322
1.9237053,130.53223
1.9128084,134.86844
1.9305209,137.20985
1.8690358,132.53178
1.8968018,135.08876
1.8660413,130.76328
1.8722795,132.37428
1.807007,133.01898
1.7743435,137.09868
1.7316629,131.13588
1.7337867,130.2699
1.6263195,134.1973
1.5016773,130.94688
1.5454773,130.5565
1.4743966,127.30919
1.5769541,125.212494
1.5277487,128.06808
1.448332,123.187065
1.4249742,117.08503
1.4267731,119.8517
1.4636065,115.76147
1.4202737,114.64669
1.3928168,114.58191
1.3060795,114.66438
1.3371842,116.003975
1.3221929,114.07889
1.2997751,109.560616
1.2738614,104.505104
1.2407497,104.53812
1.1341918,107.51438
1.147754,105.24656
1.0281857,104.40984
1.0276449,99.37484
0.8810221,99.42348
0.964383,96.016785
0.85118735,100.43806
0.89702475,97.299
0.78538704,94.37532
0.7903644,94.96613
0.788862,91.54401
0.77682406,89.27092
0.709785,92.55318
0.7529296,88.06857
0.71268404,88.41186
0.7186236,83.59409
0.7220572,81.78353
0.7508639,87.01639
0.6068776,82.98355
0.646994,83.37501
0.5634883,85.4973
0.48404607,79.99537
0.51152945,80.531364
0.4528775,83.78021
0.3820788,83.82003
0.40105662,83.00856
0.36011177,81.571495
0.34628308,81.73516
0.3205464,90.59914
0.36196858,89.08524
0.4405865,87.49117
0.40072268,91.39671
0.56599706,97.99249
0.5843672,97.41419
0.7023445,103.48769
0.8179084,104.89545
0.86043304,103.4499
0.991972,106.80836
1.0420995,107.432526
1.1705078,110.62292
1.3686535,113.714836
1.3589646,118.197876
1.4616264,119.80992
1.5799618,124.71735
1.5211219,124.46217
1.5351441,127.7508
1.6331575,129.18567
1.7104623,132.45107
1.6582876,132.87335
1.64898,132.75482
1.6374966,132.1812
1.672543,133.482
1.6887034,133.34306
1.5923738,137.70656
1.6241955,138.00954
1.5462635,131.63864
1.5140783,136.2559
1.6087136,133.70111
1.5462185,135.36273
1.5005926,128.04855
1.3688384,132.94481
1.367728,129.88551
1.3984905,127.113716
1.2288412,127.08716
1.2880293,128.21794
1.2109698,123.925766
1.1315671,127.7779
1.1954913,123.74331
1.1834202,124.28349
1.1236229,120.42956
1.1811805,116.7285
1.1296,118.29988
1.0398191,118.79828
1.0559652,117.043625
1.112395,111.73168
1.1434648,115.975716
0.994009,109.05212
1.0831244,110.50359
0.9084929,103.93597
0.87155306,107.596565
0.8191776,105.33988
0.75193214,103.49564
0.7133436,99.39475
0.6833883,102.19542
0.5711476,95.99388
0.6349691,96.09271
0.5464692,92.863556
0.45430207,93.23502
0.5403815,93.37215
0.50255805,94.970276
0.5519836,87.107475
0.46365193,89.70579
0.49117175,89.582664
0.5078164,88.83377
0.39935824,87.65219
0.32908502,84.872574
0.40966347,87.424286
0.38428453,81.82766
0.40773815,84.8412
0.2609412,84.58437
0.3179283,81.360115
0.22950964,84.503975
0.1395488,80.72647
0.11028632,86.9888
0.11234532,84.8935
0.06105505,87.053276
0.06952969,83.411606
0.038954865,86.84994
0.119653895,89.0349
0.15448305,90.00773
0.2389795,92.129105
0.20415139,94.24809
0.381299,95.8226
0.46377328,94.16461
0.38825664,102.53213
0.692027,101.83549
0.7495881,106.08878
0.8948918,112.004105
0.94336116,108.561966
1.0520765,113.16097
1.0602267,118.816505
1.2593589,120.799446
1.2193043,121.439995
1.2401649,130.56824
1.3955297,123.52409
1.3851035,126.87442
1.3506075,129.66776
1.4360447,129.80994
1.4506716,132.23528
1.4024962,130.17383
1.4657279,133.15234
1.4307014,135.63725
1.4184076,132.64917
1.3784167,136.11487
1.3942615,132.68515
1.3778577,134.40004
1.2847625,129.95566
1.3144877,133.957
1.2636535,132.41971
1.2264606,129.87305
1.1995997,128.36298
1.0379105,130.42104
1.186783,126.65459
1.0009094,128.04225
1.0488647,129.22687
0.9768927,125.0162
0.98504823,120.18221
0.94900626,123.79626
0.96166384,120.33475
0.9283715,117.54181
0.92124754,113.716385
0.9298267,115.273346
0.87337947,112.07933
0.8768057,117.71288
0.8750229,108.497765
0.8214154,108.93143
0.82436645,108.14539
0.79569083,105.98306
0.6441886,105.486626
0.6660849,105.61882
0.54384375,102.57376
0.508472,102.01579
0.58047223,97.2814
0.43676418,99.55156
0.40936998,95.55294
0.4015261,93.45128
0.3419857,92.027596
0.36992306,93.7659
0.29526192,92.66198
0.2870207,89.808624
0.34117353,88.35459
0.29224712,91.65242
0.27106184,82.88339
0.23152143,87.74785
0.17963712,84.1042
0.25801417,84.78527
0.21563417,86.963264
0.250245,82.738045
0.2821594,83.313194
0.14635985,78.87789
-2.5749476e-05,84.17462
0.088804744,82.6808
0.004042432,84.3589
-0.08684633,85.36932
-0.022090273,80.35305
-0.0282539,84.65485
0.03236927,84.64759
-0.029703338,87.20692
0.023921562,90.88632
0.16280824,91.455925
0.21865496,94.45518
0.2165584,97.03165
0.30882525,96.20778
0.43711922,104.49255
0.5205438,103.21644
0.687497,106.51414
0.73390067,109.083885
0.8668518,107.97234
1.0696908,114.83479
1.0835748,116.06102
1.1633193,120.57439
1.2384648,118.40803
1.2173101,121.718834
1.3455569,125.78322
1.3748616,128.8746
1.410086,131.45116
1.3802729,131.15755
1.3703116,129.99727
1.3986168,131.6953
1.3709643,133.68263
1.4057606,131.4507
1.3472599,134.44237
1.3032682,138.1964
1.3992163,135.00435
1.3073101,136.89032
1.3141944,131.11098
1.3508015,132.81279
1.2915311,131.87386
1.1973681,129.72664
1.1444517,131.52518
1.131562,131.52625
1.047934,134.40178
1.0915486,127.27603
1.0612948,124.918396
1.018398,123.942764
1.0041656,129.04994
1.0104481,123.708755
1.0126587,118.74286
0.9334858,118.49444
1.0495867,117.738464
0.95335144,116.106606
1.0193377,117.219795
0.96964985,113.0932
0.9109253,110.13647
0.87691265,108.942535
0.7721834,107.97984
0.865543,108.92458
0.7992157,106.574394
0.73794144,103.25517
0.6911198,102.23839
0.5654269,102.49905
0.58103716,100.16851
0.5589638,102.89776
0.5100823,102.27062
0.53593004,101.93594
0.48706004,94.63268
0.3562385,92.66898
0.40798503,96.112564
0.40641826,89.60118
0.405387,86.55476
0.5128206,90.09465
0.3817701,88.7647
0.39935997,88.49097
0.44010404,82.73122
0.4116888,80.19121
0.4456219,81.81822
0.36921015,83.4256
0.25824767,82.46523
0.31811312,80.08097
0.21184202,78.786896
0.12001096,84.52388
0.1735181,87.14693
0.1131959,83.76399
0.1561545,87.17984
0.10585418,85.367455
0.072721116,82.5791
0.16973482,88.543274
0.19826807,91.39511
0.2542104,93.25006
0.36319324,93.42852
0.40504524,100.29904
0.5933407,98.84763
0.74004906,100.669464
0.7985611,104.96649
0.95516497,104.936615
1.0212768,109.62357
1.1228708,112.57258
1.1749885,114.996666
1.2480423,113.84596
1.3579876,124.20202
1.4260848,118.50415
1.444106,124.99882
1.4584541,128.08772
1.6077117,126.42217
1.5257574,129.00063
1.5541723,129.71869
1.6282448,127.069725
1.6264278,139.41948
1.5966412,127.4423
1.6432612,134.99446
1.6589758,135.215
1.6120145,133.72215
1.604921,134.98894
1.5725573,133.98119
1.5337741,133.47693
1.5142337,138.05215
1.4877473,133.29834
1.4858845,129.72704
1.4439334,129.90118
1.4528692,127.08564
1.3785824,127.067085
1.3582022,123.086655
1.2834347,124.04488
1.2699534,126.47726
1.2951838,124.37053
1.2566563,117.57676
1.2137568,116.71213
1.2177529,121.671364
1.219388,117.36097
1.2242894,114.00042
1.1344035,108.56719
1.2059199,110.25836
1.2286509,110.80195
1.156436,112.39239
1.132245,111.09439
1.0478735,106.769806
1.019279,108.64082
0.8561633,106.5214
0.96974593,109.09061
0.8413809,97.31638
0.9250118,98.56781
0.7107346,98.919464
0.8026884,96.88942
0.76920897,97.951065
0.7539061,94.96575
0.78429794,99.482506
0.7087376,88.217354
0.8040937,89.61739
0.7045717,90.92349
0.7141715,87.286385
0.8105717,86.97471
0.707948,84.54144
0.7575693,84.4561
0.69945467,84.21148
0.6178636,87.17555
0.5958027,82.441376
0.5725723,82.15036
0.5460604,80.11422
0.4969882,81.24331
0.4512001,78.29038
0.38359421,84.60107
0.44468072,82.66755
0.3305691,86.78137
0.44207025,89.20704
0.4081933,85.176834
0.48240528,81.10889
0.50149935,92.62276
0.5948967,92.18505
0.59569716,96.307724
0.69649696,96.802765
0.8305404,96.365204
0.8886919,104.6365
1.0468328,105.19233
1.1532317,104.70403
1.3429538,109.19935
1.3737983,114.40423
1.4056374,113.04418
1.595299,121.481224
1.6239992,117.29583
1.6338845,120.81051
1.7461787,121.656456
1.766558,122.5137
1.8611003,128.89944
1.8047919,125.42376
1.8648301,132.29036
1.8207968,132.4226
1.8662627,132.83699
1.8824428,135.39194
1.925637,130.13824
1.9058632,133.82541
1.7814916,133.98843
1.8445399,129.28352
1.8283174,128.41129
1.7873988,130.87668
1.919178,132.8191
1.7490518,130.8949
1.6801797,129.40652
1.6253102,130.64102
1.5996952,133.22571
1.5634936,127.195114
1.57457,127.21152
1.5750408,126.602684
1.499248,126.373634
1.5312781,123.737976
1.5338283,119.7076
1.5927036,119.64755
1.3694088,118.40233
1.5062621,112.34491
1.5142233,115.0395
1.4938759,119.50807
1.4512802,111.890785
1.4761794,109.91288
1.2931443,111.86338
1.2485358,108.32784
1.2419677,105.50283
1.2330278,107.391235
1.093244,106.435776
1.2361863,101.70581
1.1416324,103.31295
1.0367446,102.237976
1.0064765,98.34737
1.0278156,98.70516
1.0577775,98.45224
0.9328899,98.14357
0.94625455,90.78236
0.9493797,90.20457
1.0328368,92.62126
0.986532,82.933655
0.92523277,88.9346
0.8690607,86.57599
0.81570417,85.81513
0.870726,85.08222
0.8891082,81.12271
0.7908383,81.05119
0.7841828,80.261345
0.74531937,80.76339
0.77247757,81.42964
0.63548183,81.91574
0.69002736,86.63968
0.5503634,79.58893
0.5296632,92.17539
0.5752721,83.95285
0.5687038,86.72351
0.47865683,91.92886
0.5337668,89.10083
0.6974174,92.115005
0.7367344,92.49989
0.75776386,96.025665
0.84989136,99.42091
0.91896737,102.08132
1.0995327,103.776794
1.1316812,102.192184
1.2639227,108.7363
1.4455969,110.284256
1.5916086,113.14609
1.5645101,113.52815
1.6158593,117.84384
1.6820184,122.2987
1.8042055,118.932755
1.8508445,123.60091
1.9075408,124.98226
1.8794776,129.82991
1.9425287,130.19489
1.9432949,128.94962
1.8771452,132.84126
1.8997306,136.40799
1.9068701,137.31668
1.964203,134.33844
2.0013685,133.58977
1.907164,133.75261
1.8188944,135.87964
1.9179351,139.06073
1.864534,130.98318
1.8204238,132.8898
1.7839192,130.0224
1.7097601,128.65872
1.6822543,133.0157
1.5648978,131.84238
1.5535798,126.5856
1.6261573,125.242805
1.597064,124.512184
1.5131273,126.49483
1.4896144,120.73309
1.4929585,119.49039
1.5041264,122.11457
1.4850845,113.55731
1.4164642,115.90756
1.4131331,116.408615
1.413528,116.7246
1.4072949,115.3478
1.471776,110.84737
1.2705142,105.91698
1.2338239,112.353546
1.2478981,106.25725
1.1428586,106.07984
1.1289399,99.80986
1.0718752,107.47684
0.9664648,99.413475
0.9990125,101.41612
1.0296662,98.15252
0.96055216,101.08003
0.89803827,94.68574
0.8319697,92.420006
0.9087464,93.08366
0.84099627,87.967606
0.82087564,88.56775
0.7860074,88.98574
0.72510344,84.1118
0.76441234,85.83743
0.83693534,84.57828
0.8146159,84.67772
0.76163006,85.36149
0.7017141,83.85402
0.755279,79.00706
0.6515788,83.50985
0.5454055,83.81998
0.64642715,81.21549
0.42544046,81.074646
0.4586366,81.54397
0.5423785,84.29201
0.35778433,84.648506
0.42971116,87.91674
0.44962198,89.85155
0.41481256,88.51458
0.44325802,93.78055
0.6149265,94.753426
0.64871895,97.63708
0.672935,98.58674
0.7871744,100.71639
0.9168864,103.17853
1.0544115,105.57176
1.1452541,110.69781
1.2262241,103.59715
1.2461005,114.63007
1.402492,117.73149
1.4106089,114.091034
1.5702082,118.41105
1.6120076,125.61973
1.6091527,123.625496
1.7584207,127.134605
1.7218814,132.78159
1.7082895,131.36896
1.8414664,128.15324
1.8393602,133.2277
1.863367,128.35455
1.7123145,133.10843
1.7083018,136.17342
1.8360692,136.69035
1.74846,136.57962
1.6903019,137.32013
1.6574303,135.66806
1.6827323,134.30151
1.5968409,131.9717
1.586142,134.08875
1.4803319,128.27254
1.4892437,128.83228
1.481373,132.32373
1.3964938,125.40925
1.311065,129.40997
1.3183783,127.045395
1.3298655,127.328445
1.2963566,122.84182
1.2468523,119.33697
1.2776889,119.81104
1.1817582,117.11204
1.2130071,117.75638
1.2102654,117.50879
1.2009839,113.19997
1.2034333,114.861176
1.182627,114.16591
1.1053431,112.01374
0.99742746,108.477005
0.93767774,110.6859
0.90182096,104.230774
0.90217155,103.316505
0.8903295,103.93963
0.82111347,101.25234
0.7422259,102.360916
0.6583937,98.33314
0.6357015,95.97203
0.67721313,95.46056
0.5735437,92.927895
0.624893,98.61631
0.5794005,95.99189
0.5401919,91.836624
0.61155427,88.99105
0.55909103,82.93051
0.56963825,87.59183
0.5421321,83.893555
0.48724642,85.3224
0.4835238,84.62002
0.5140155,86.78965
0.44676033,83.88911
0.39735666,87.30656
0.36110973,83.3301
0.25815096,83.00964
0.25018483,87.98524
0.12761684,84.63212
0.20087318,85.71297
0.23721929,87.83483
0.13874628,84.74093
0.18506198,90.597916
0.1975258,88.24258
0.23786575,94.02416
0.26157898,94.87795
0.45985997,95.59515
0.48441476,99.082054
0.6360739,97.52206
0.6362106,102.14988
0.8435922,103.8973
0.8729973,104.04704
1.0045469,110.29549
1.0872538,114.8069
1.2051458,115.1626
1.2631501,117.64087
1.2058367,117.88404
1.314534,122.273315
1.326909,121.12124
1.4225239,125.31053
1.4988979,128.6617
1.4410678,128.73755
1.4674581,130.13165
1.5224293,129.26146
1.5170652,133.69531
1.5000304,136.73892
1.5084786,133.52277
1.4880731,132.12279
1.4279621,131.27275
1.4280013,134.34055
1.4325049,134.04993
1.361042,131.15329
1.3229388,132.60962
1.2930721,131.08823
1.3233769,129.56155
1.2930151,131.05162
1.1808565,128.79968
1.1406202,123.82822
1.0769434,127.50955
0.9958003,125.7829
1.0378008,125.90184
0.97111565,120.920456
1.0170683,120.34159
0.9209219,122.0374
0.9654328,120.787674
0.9495816,118.28414
0.8492102,115.15188
0.9509121,111.50178
0.8717704,112.717926
0.91724586,110.53391
0.8125734,108.03157
0.8357636,109.63426
0.7024747,103.13912
0.6984117,105.677216
0.6542014,97.93899
0.5461289,101.44801
0.5833743,101.13983
0.46029896,99.83934
0.4182393,97.81826
0.39977956,90.33195
0.39902556,93.8452
0.38260365,97.316635
0.36770824,89.98261
0.39659232,92.351425
0.32946727,90.54448
0.37696096,89.71651
0.3343526,89.93931
0.29385647,83.718925
0.39098552,85.3197
0.24041542,82.41701
0.28583565,84.710625
0.18201122,83.19845
0.2734242,82.91098
0.1373645,81.63473
0.18674845,84.06712
0.052392565,83.11592
0.028292207,84.49383
-0.013119156,88.834915
-0.018077092,87.334915
-0.0076461188,84.3322
-0.010550374,87.117516
-0.059456237,86.77939
0.09326804,86.1099
0.08297983,94.925354
0.16957763,92.14732
0.16954702,93.95446
0.20450258,99.4422
0.40305337,105.30461
0.5350391,101.19563
0.53829765,105.43932
0.74413,105.9406
0.79147273,111.07287
0.9255698,110.12044
0.9909895,116.01656
1.0477026,114.89158
1.1277444,120.85217
1.2174009,121.85437
1.2162437,122.23429
1.2647226,128.22047
1.3141253,128.06029
1.3256693,131.93529
1.3014824,130.89822
1.315691,129.0532
1.3453933,131.72328
1.4260772,132.95488
1.4267192,136.69624
1.4354267,136.51653
1.3254148,137.53922
1.255518,134.62753
1.256105,135.01097
1.2737968,135.2268
1.2968525,132.303
1.2241427,133.06905
1.1004581,132.48784
1.0692145,133.17769
1.1435667,129.00996
1.0282158,127.25056
1.01662,127.01258
1.038335,125.73953
0.9696899,124.79498
0.89011264,119.2571
0.92965156,124.93986
0.90462965,118.1199
0.8918431,117.62219
0.88053316,117.73873
0.9081951,114.87398
0.8801737,113.23229
0.86748254,111.97342
0.7479141,109.03121
0.83862877,113.00216
0.7492066,106.59225
0.67673993,107.20012
0.74970174,105.24588
0.605625,101.70574
0.5964329,103.69771
0.5605168,100.3321
0.46613145,99.96629
0.46762577,100.21009
0.38321498,96.46499
0.3201065,94.30112
0.3377191,92.697525
0.36553037,89.461205
0.3955386,94.720665
0.43404055,93.79348
0.37390625,90.703575
0.37793678,82.702095
0.31792262,88.84659
0.29226765,84.152695
0.2721485,84.448845
0.38477853,86.27763
0.31066298,83.04262
0.25690112,82.18017
0.20780167,81.831436
0.19528669,80.02261
0.13094865,83.31834
0.12606142,81.917885
0.116756834,84.31466
0.09093649,86.5341
-0.07670476,79.45344
-0.012763113,87.64131
0.06900452,85.986626
0.10929486,89.724976
0.14362922,90.381966
0.1985728,92.076675
0.29472244,95.40108
0.40428486,94.42662
0.4579675,100.68384
0.6707553,99.89095
0.7026158,101.35406
0.8313454,109.43178
0.90226895,110.80451
1.0496148,115.14326
1.1250055,114.05497
1.1842253,111.471214
1.268875,120.1896
1.3297652,122.02012
1.4073403,126.010735
1.5049608,125.53655
1.499693,129.13681
1.5059785,133.6241
1.5776104,135.2249
1.4254205,132.10176
1.5619775,134.09947
1.5585982,131.46548
1.532288,133.52658
1.4967028,137.02365
1.4440931,134.66342
1.4878079,133.54878
1.5333948,136.45868
1.4446845,130.35097
1.4368936,131.72273
1.3401327,134.45253
1.3162293,133.12491
1.3190914,131.25586
1.2245482,129.43562
1.2474862,128.84872
1.186701,125.661415
1.2075567,127.582115
1.1946659,120.37771
1.1458462,122.52807
1.0819685,119.021996
1.1713341,120.1555
1.1113696,117.14871
1.1576355,118.00102
1.0535622,117.7634
1.127163,116.85618
1.0532727,114.75359
1.0606908,111.138504
0.96460533,110.925896
0.9305002,105.92042
0.9881866,113.696
0.91967124,104.45155
0.7924131,101.13653
0.8647343,99.596985
0.7637047,101.14383
0.7200564,100.900764
0.7163605,99.8996
0.65644276,99.04207
0.6603306,98.56169
0.5846618,93.33916
0.5872566,90.84799
0.6582194,92.2395
0.65953374,93.37777
0.57086945,90.92392
0.5840606,89.878
0.65202045,91.508675
0.6066902,86.304474
0.62181604,83.47909
0.5183997,78.85515
0.5207537,81.348755
0.53011376,82.89931
0.5153071,87.245544
0.41642,82.999825
0.46055427,79.764725
0.33625603,83.93391
0.31433564,81.17126
0.35450992,86.43469
0.27778697,84.27408
0.31257626,84.646576
0.24489291,88.204
0.39720735,85.493004
0.4640559,91.809845
0.4268812,90.034805
0.6059852,95.4971
0.65609086,98.43796
0.8249442,100.35324
0.93298614,104.79635
1.0122081,104.24351
1.0861063,108.947525
1.2185962,111.62112
1.3437514,116.52793
1.4376991,113.23648
1.4396023,116.443695
1.495369,123.18007
1.5695856,120.49155
1.632771,124.8758
1.8298578,130.47005
1.78512,132.09653
1.8090724,129.2849
1.773428,133.25925
1.7144318,132.82233
1.7931288,135.97372
1.8546579,131.6267
1.7522738,130.74103
1.79137,135.4277
1.8078654,133.08237
1.7547468,136.43478
1.7888691,132.52747
1.6619288,135.02847
1.6755328,135.8676
1.6526003,129.57397
1.6516508,134.39973
1.5410419,130.8881
1.5346643,132.34525
1.5568691,128.32614
1.4853823,123.22694
1.5615658,124.89779
1.436042,123.332
1.4048154,121.84559
1.375932,120.07501
1.4041617,118.9042
1.4696404,119.69083
1.3229607,114.33996
1.4296265,114.54606
1.3405714,112.61064
1.3835043,113.48164
1.3556823,111.9802
1.381308,107.68987
1.3283862,112.14472
1.2002531,106.87167
1.1344016,108.5577
1.1342165,99.237114
1.1771556,102.284836
1.0619944,102.24673
0.92415327,101.23113
0.9186361,95.0453
0.9660114,96.21045
0.9322907,94.98433
0.87390035,96.26864
0.86974555,94.10655
0.96747273,89.638306
0.84580374,90.83487
0.89725727,88.140526
0.86630136,90.146576
0.84365815,86.62644
0.8593967,83.532684
0.83892053,85.462616
0.77484876,80.08658
0.771671,86.3139
0.7152631,83.70599
0.7831362,84.21622
0.7773927,85.22266
0.59323853,83.111206
0.58938676,81.87931
0.56535864,86.70374
0.527551,83.35146
0.4910486,85.59113
0.5539178,86.47203
0.57398576,90.020905
0.6020068,91.59544
0.6172217,93.347115
0.72061783,95.586105
0.85805994,90.59936
0.8342977,94.34118
0.9562885,98.3878
1.0273414,102.56099
1.2250527,107.36252
1.265023,104.337326
1.3983731,104.88889
1.4602554,112.58548
1.5753924,114.187935
1.6185743,114.206314
1.6859899,116.24308
1.7343135,123.25776
1.8841647,124.00886
1.9160913,125.576004
1.933982,122.098114
1.9213773,129.86418
1.8462348,131.4938
1.9529545,133.85394
1.9932516,133.88486
1.9578152,135.12378
1.9218584,133.68596
1.9159539,135.68639
1.8746884,138.80763
1.8468893,135.26755
1.8166605,132.0838
1.7692704,133.81976
1.8150299,136.23071
1.8401705,132.76779
1.7360848,130.90204
1.5853536,128.53925
1.7355698,129.69647
1.6009098,131.23128
1.556443,123.27601
1.5319504,127.66472
1.519537,122.62749
1.5832909,123.482704
1.5933942,120.46225
1.4995501,122.49976
1.5140116,120.30531
1.5043865,117.86517
1.4792339,116.85616
1.5411749,116.1982
1.4050853,113.54658
1.3945656,111.82293
1.3278481,105.79554
1.3713704,108.354225
1.3154821,111.68582
1.2299452,110.04746
1.1668286,105.28161
1.2208638,102.66639
0.9971024,103.57659
1.0057298,100.675514
0.9691447,96.8179
0.8880146,94.2351
0.88683426,93.93277
0.934082,92.32525
0.98165065,93.21806
0.8932554,91.91398
0.93868786,88.70737
0.8340497,88.22745
0.97016376,85.61487
0.8110669,87.06696
0.9095118,84.0378
0.87850946,84.27127
0.8252542,84.21378
0.812388,80.82481
0.79411834,85.55946
0.6989578,83.65336
0.71990985,79.742256
0.6044109,81.18792
0.6003692,84.82404
0.5967771,85.50694
0.51555485,87.31775
0.44649413,83.88491
0.5067426,89.05544
0.48966184,86.568924
0.47307017,88.83805
0.60925645,88.58197
0.55351555,96.96228
0.7227057,94.82574
0.8438216,97.921326
1.0079582,99.550064
1.0449047,102.46381
1.152361,106.59064
1.3452806,108.89494
1.3889308,114.24333
1.4414804,112.85097
1.4746459,113.17227
1.5372257,119.19399
1.5954671,118.064415
1.6579314,120.76019
1.78252,127.52262
1.7760441,127.23392
1.8219111,129.89865
1.7939487,133.44157
1.8121326,130.07994
1.9005458,136.89398
1.8923239,137.47527
1.8635396,139.53917
1.7993419,138.47328
1.7614713,131.3589
1.8149314,137.30194
1.695471,138.68785
1.8513769,133.43297
1.7902935,133.14482
1.7294248,132.15715
1.6095536,132.19174
1.6108934,132.71394
1.6413056,129.72928
1.5404022,128.01674
1.4281445,131.82861
1.4553906,128.49942
1.4317739,122.05825
1.3394393,123.916374
1.3195336,124.822754
1.3030074,119.81667
1.2793375,114.80931
1.4142989,119.54851
1.259779,116.66764
1.3191454,118.67141
1.2997187,115.5083
1.1931154,114.55596
1.2821971,111.23751
1.1631492,107.88227
1.0903583,113.02125
1.1283648,104.14233
1.0005473,104.36795
0.994089,100.53254
1.0003229,101.40561
0.852183,101.336815
0.7950837,97.80262
0.88480914,96.85249
0.7160271,98.40041
0.72714734,96.48453
0.74111307,91.36343
0.6781574,94.354645
0.68369687,92.08086
0.6858806,91.09071
0.7495982,86.69704
0.67063224,87.56779
0.6499557,87.85801
0.6168385,89.29949
0.6490789,84.72025
0.63014627,83.73624
0.545507,81.48385
0.52203095,83.51444
0.433765,85.881294
0.5053094,84.22474
0.30678457,81.49365
0.39839405,85.85514
0.21167512,84.202324
0.2843544,83.49465
0.29715654,83.81117
0.26041153,88.817566
0.3229172,83.01603
0.32721415,85.59718
0.35115576,90.28751
0.3815319,93.27602
0.47030288,95.22809
0.6059216,96.33109
0.6630288,105.61105
0.7307567,101.44884
0.86960566,101.90402
0.98361504,109.76501
1.0751448,111.14127
1.1662375,112.10182
1.3074259,119.94223
1.3314044,117.91294
1.3965477,122.26617
1.3522122,119.76749
1.4064889,123.0776
1.4829218,128.86414
1.5795335,126.37984
1.5535778,129.47813
1.5843374,133.09476
1.5292081,131.33023
1.5578316,130.10028
1.55916,132.84634
1.5751134,139.71994
1.5428547,133.96086
1.5172104,134.24953
1.4143755,132.51892
1.458465,136.1028
1.4211152,129.16345
1.3635817,129.96777
1.3579577,132.26814
1.2932326,133.8487
1.3206013,130.52617
1.2428688,130.37056
1.1840354,124.4022
1.2205883,126.50808
1.173879,126.20896
1.0959531,124.80286
1.1090363,120.613205
1.0603461,117.98545
1.0381615,123.01702
1.0531765,122.08076
0.9512199,113.70135
1.0199476,115.92626
1.0116764,111.37627
0.941433,112.31497
0.93037033,110.697365
0.87583274,108.28991
0.7856584,109.77994
0.7342704,106.26477
0.78628945,104.231804
0.75894284,101.078575
0.64885026,98.11203
0.59648085,102.57832
0.52223676,100.78334
0.49008712,100.351814
0.6200215,99.18656
0.46772674,98.22897
0.42804196,89.9517
0.41317296,91.24625
0.4410806,93.523415
0.4532225,92.6592
0.4207356,84.282196
0.377455,88.07908
0.44368136,82.967674
0.34209722,83.1044
0.33430132,80.89393
0.45064986,84.552246
0.29863608,87.1941
0.1801509,78.27384
0.14198768,82.42469
0.14574003,80.186165
0.09186679,84.10669
0.14827941,86.15554
0.11668225,86.00687
-0.025952099,83.41987
0.040020905,86.69552
0.05472439,90.155846
0.04872048,85.61262
0.10067662,89.30139
0.11435931,84.372406
0.18828136,94.75133
0.26584882,96.278076
0.35566515,102.49438
0.41241777,102.08358
0.52208185,103.39077
0.636451,105.61693
0.8362044,111.36479
0.85023487,109.31983
0.97507,113.77812
1.0234642,118.05505
1.1787366,119.291115
1.2301271,118.853775
1.2627319,125.01616
1.2424134,127.0908
1.2977842,129.31743
1.4447731,129.74208
1.2906129,127.87781
1.4060911,129.01561
1.4107555,128.97371
1.4073548,134.70099
1.3587693,131.65074
1.2982862,132.85161
1.4095026,133.55931
1.3939395,135.22939
1.3163139,133.35141
1.3048823,141.09917
1.329932,139.3212
1.1540501,134.02846
1.1306757,137.97707
1.2052261,129.98958
1.1532861,127.945435
1.110335,127.535484
1.0718344,127.49935
1.0441163,127.570335
0.95100754,124.12148
1.0047874,120.52824
0.95078945,122.77158
0.9502939,124.85404
0.88803947,119.04991
0.9376492,120.034775
0.8946358,111.30613
0.9366386,111.19137
0.8240168,115.1375
0.89400655,110.61871
0.8230091,110.388855
0.750734,111.09106
0.7872127,106.62843
0.6868318,104.678795
0.5949685,110.2741
0.65080345,104.24176
0.6000996,103.478264
0.5184275,97.071625
0.4900029,102.206726
0.44791898,100.86539
0.38050097,98.28817
0.36060128,98.28371
0.40139854,95.349594
0.33342916,91.210304
0.234602,90.49335
0.34555104,89.800514
0.28534627,89.190796
0.40513998,86.72353
0.33719224,86.61976
0.31807974,88.468315
0.38000825,81.13334
0.24909814,83.957504
0.14946556,87.20842
0.21034032,86.46655
0.17428981,85.87222
0.14738786,83.0509
0.011193925,79.94396
0.09063096,82.279686
0.02180361,83.89942
-0.04002405,84.55852
0.017815419,88.75011
-0.115343206,85.79655
-0.017208865,89.09263
0.098965794,87.738205
0.24438033,89.153725
0.23254892,93.85166
0.33061287,94.73687
0.3333911,95.41338
0.32848176,98.671555
0.5924072,104.824356
0.70983523,104.64727
0.8075562,108.09072
0.90406317,108.99327
0.97470945,116.90426
1.0319803,116.63314
1.1874608,120.11439
1.2974566,119.85961
1.2788076,122.07582
1.2968011,124.875404
1.3018551,125.32672
1.4474933,129.1291
1.425523,129.4245
1.4192281,127.925255
1.3521029,129.92671
1.4345416,132.16048
1.4250764,133.07573
1.4034129,132.64154
1.4175793,137.08698
1.3872869,137.28305
1.3353997,137.71402
1.3580204,138.07103
1.3611029,133.85544
1.2694314,132.31842
1.2050837,133.26427
1.2010336,131.93839
1.1464722,131.14166
1.1339228,130.17041
1.1172916,124.12939
1.1651686,130.2429
1.0675546,126.13241
0.999827,122.76017
1.0627804,121.3784
1.1279097,124.25166
1.1233943,119.79121
1.0401597,118.33653
1.1070911,117.301476
1.0256346,117.813934
0.9342948,110.08907
1.0104285,109.33618
0.9620966,112.86751
0.97495204,112.164925
0.88868743,109.23596
0.7995933,106.31744
0.8038427,105.14989
0.7020775,102.48217
0.76305765,101.71197
0.6072464,103.37881
0.5912215,99.13237
0.6635184,97.89964
0.5631703,96.61762
0.5226044,96.23476
0.49861652,96.15073
0.6167682,95.30806
0.5177594,92.56619
0.5414219,95.92371
0.59334725,89.97277
0.434697,85.02258
0.548393,84.60142
0.59251696,85.482346
0.4764297,90.744774
0.4117639,86.11067
0.36582434,80.94478
0.4671201,82.61021
0.41195676,79.688446
0.29245716,79.92823
0.25501838,81.034485
0.22639124,81.988976
0.20977612,79.95216
0.21723625,81.585884
0.2299382,91.43359
0.22067754,87.736626
0.18102178,93.11259
0.3072714,91.62634
0.33320764,89.42779
0.42495057,91.28982
0.47049117,94.9035
0.722517,101.35857
0.667546,99.37846
0.79809195,104.887566
0.91609335,106.25667
1.0165784,105.568886
1.0855311,111.36185
1.2350682,117.24922
1.4071299,117.83921
1.3715909,118.87086
1.515363,124.27852
1.6175588,126.15382
1.5431092,127.82345
1.5703148,126.26067
1.6445415,127.61513
1.6322535,133.48071
1.7014942,129.20311
1.6720455,131.41058
1.7489063,136.16055
1.7297567,131.88342
1.754247,132.77019
1.6924671,137.80417
1.6915404,134.83635
1.6359363,137.71704
1.6822441,134.76463
1.6434957,134.74911
1.5715777,131.82341
1.5645312,132.67024
1.4744266,128.6959
1.4963818,128.19707
1.417403,126.71968
1.4632968,127.47614
1.4439619,131.91333
1.4053447,123.041275
1.4033102,123.53232
1.2744688,122.38446
1.3696171,122.87363
1.3079351,118.907265
1.3539529,116.37488
1.3105708,116.338715
1.2957016,113.77979
1.2658689,113.44598
1.247257,109.90914
1.2848214,111.96555
1.2384079,106.34211
1.215336,107.575195
1.1224555,104.92981
1.151208,102.006096
1.0048958,104.87886
0.9889629,99.759995
0.99857455,99.31436
0.9161731,98.893326
0.89829916,95.101974
0.86393416,94.04045
0.8306216,93.9818
0.85986656,92.35149
0.81764126,92.28587
0.83375907,90.53651
0.7817052,91.15527
0.79954046,89.024284
0.7408402,88.923134
0.78077585,89.057785
0.7908209,87.3423
0.74164736,85.09277
0.6248741,85.1804
0.69962406,82.50765
0.72077274,85.25617
0.64703006,79.7728
0.5975172,86.08233
0.52966696,84.121284
0.516121,77.97856
0.4969376,85.91084
0.45517054,87.74173
0.44382274,86.92192
0.46929377,89.08546
0.55116796,89.99891
0.5541093,87.529274
0.520286,90.74297
0.6257825,89.96567
0.6969682,97.97049
0.8228589,99.11566
0.9461634,98.60567
1.0127789,99.274086
1.1810322,106.81479
1.2731806,111.30929
1.4072529,114.621796
1.4433203,112.02029
1.6292298,115.347725
1.5203594,115.340546
1.7924801,119.72283
1.7766712,123.33965
1.8944213,122.98728
1.8339671,125.30073
1.9262637,130.54607
1.8973359,130.48209
1.9377713,131.82362
1.8371251,133.44412
1.9894642,131.57835
1.9339374,135.31503
1.9917086,134.58267
1.8428357,133.9208
1.8984646,134.95566
1.8707674,135.71883
1.8772577,134.67203
1.7971047,134.07893
1.7731562,132.08296
1.7516816,135.98369
1.7327824,133.08781
1.7172862,133.83144
1.5502309,129.20009
1.6184922,126.07785
1.573759,123.86202
1.6072059,122.32874
1.4941269,123.33058
1.5467908,123.46343
1.4705285,117.54154
1.5104989,116.51069
1.5387514,116.30978
1.4998393,114.19511
1.5381463,112.60249
1.4169241,112.73233
1.3510212,113.4032
1.3702656,108.0144
1.3487861,109.70135
1.2619079,110.64104
1.2206687,110.639114
1.2554004,101.62035
1.2169358,100.10614
1.1058406,101.85755
1.0649465,105.095604
1.0004284,99.57687
1.0210477,94.20966
1.0332575,94.599014
0.95680875,98.564995
0.962337,90.01988
0.9970942,92.00157
0.8933185,89.76486
0.9814643,92.34181
0.89045805,88.137474
0.94618386,87.156746
0.90722877,86.92152
0.91089827,86.14158
0.92550623,86.7576
0.8256135,79.384865
0.74605644,80.99785
0.8002387,82.91385
0.7892026,80.98821
0.6561696,82.99129
0.6436779,80.1084
0.63929605,79.242485
0.6220057,84.784706
0.5886142,80.5158
0.5266836,84.275505
0.5924952,88.87613
0.65875715,85.548035
0.5544503,90.50509
0.66243607,87.58405
0.724828,93.62158
0.82489866,93.79208
0.9405157,100.456764
0.9905728,103.63893
1.1505704,107.63167
1.2219332,106.34422
1.3264308,108.487144
1.3840281,110.67654
1.5543513,113.93786
1.5421044,113.965706
1.647575,118.801636
1.7076042,117.73069
1.868549,121.04338
1.8732672,119.917564
1.9719783,126.85792
1.8699476,131.49847
1.8981198,132.34459
1.8287166,135.62772
1.9270579,130.70694
1.9419754,136.06642
1.8868701,135.88475
1.7978418,132.05844
1.9713876,136.3501
1.9102641,135.06453
1.8963562,134.70108
1.8504665,133.01393
1.7168152,133.246
1.6756868,130.78493
1.7361249,131.55884
1.6660991,131.06769
1.6443671,125.3642
1.595935,129.06624
1.5905609,124.685745
1.5797261,123.26786
1.5804648,126.60038
1.541582,120.76676
1.4247276,124.45331
1.4467102,124.74119
1.4353321,115.86671
1.383535,117.10425
1.3969955,116.47131
1.3937266,116.144516
1.2977086,110.73218
1.3666648,113.01291
1.259653,109.44265
1.215879,105.230125
1.1570361,108.650566
1.1902592,105.673355
1.1395195,102.24603
1.0694268,101.01368
1.0354257,103.73543
1.0061284,101.6132
0.9292544,99.68557
0.89086604,99.89831
0.83908147,87.55811
0.82205665,90.62667
0.78160137,95.06578
0.78834045,94.36506
0.7905143,96.97789
0.7141586,87.95284
0.7101882,90.130554
0.74936765,86.772156
0.6676569,86.358826
0.7055925,87.00782
0.6997792,82.85925
0.69490236,82.85064
0.69544715,83.0961
0.526104,79.852295
0.4836575,79.66359
0.57543474,85.44771
0.49069217,79.09784
0.37918276,87.41497
0.4369075,83.25401
0.35961798,83.53934
0.40450177,85.883896
0.34749895,89.36653
0.3704277,82.62515
0.33191818,91.90851
0.41988462,90.30264
0.5257839,97.069435
0.63293105,98.47644
0.73352975,97.56626
0.73452103,102.258965
0.99859977,106.6553
1.0220418,107.92711
1.1323849,107.23017
1.1306282,108.589714
1.2512275,111.467316
1.3769001,122.6706
1.4047137,114.88841
1.5002214,122.31843
1.4779664,122.34815
1.5392768,122.55093
1.5236526,121.46852
1.6344101,130.44447
1.6166883,130.76454
1.7053865,130.37051
1.6253167,134.09448
1.677701,132.19551
1.6240319,136.7178
1.6840076,135.89536
1.5868174,140.55627
1.6498189,138.19748
1.5306623,134.95837
1.4990654,134.99883
1.4861724,133.83427
1.346975,131.68948
1.4551098,133.04472
1.3438913,129.88269
1.3987796,128.891
1.2452273,125.122734
1.2941709,126.83686
1.2231225,124.98172
1.2483433,125.378784
1.1141236,122.86751
1.204476,124.52765
1.1439317,122.18592
1.1316323,117.09981
1.0995984,116.68223
1.1010405,116.91569
1.0598578,112.70442
1.0373192,114.13151
1.0058838,112.17836
1.0140133,110.99808
1.0014474,108.69765
0.95054024,107.53526
0.8256646,104.66897
0.8123734,107.74053
0.7920315,104.26016
0.7062782,101.1782
0.66503125,101.194046
0.6311944,98.17244
0.6223076,98.845764
0.5386296,99.91085
0.6248031,95.3611
0.56723857,93.08009
0.5305845,91.90026
0.5711674,92.832436
0.4953879,89.1204
0.5070594,87.91188
0.48738483,87.214745
0.5091709,86.362305
0.4880053,87.6184
0.436117,84.805504
0.39065617,81.01139
0.2751253,83.59752
0.23345686,83.52734
0.22796413,82.40927
0.16931,80.54013
0.25371355,83.07271
0.1329177,82.8867
0.06724972,80.48403
0.0557995,81.89499
-0.05413287,83.2997
0.086859964,87.18064
0.11666463,86.12157
0.055203363,91.01733
0.20087467,88.97931
0.24889995,93.5157
0.33618826,97.47988
0.43119872,102.40574
0.61557597,103.77793
0.7242282,104.42675
0.68717974,106.032265
0.7927785,107.32832
0.9476422,111.79107
1.0701656,112.30858
1.1567106,113.02804
1.1903111,119.05266
1.2832811,119.16763
1.2325026,121.08937
1.3212783,121.87646
1.3445853,124.55631
1.3733977,127.532326
1.3859714,131.20734
1.411304,130.58041
1.4612639,134.84703
1.387836,136.56886
1.398224,138.05806
1.4116876,135.02933
1.3810245,131.89993
1.3877859,138.6283
1.3037349,133.30751
1.2676904,135.16385
1.3443222,134.49127
1.2880442,127.08419
1.1456668,130.31142
1.1243875,133.0051
1.1161264,131.53143
1.1223345,126.08836
1.0688568,123.42717
1.0402629,128.34586
0.9609482,124.55638
0.92466545,122.04088
0.9461849,117.905174
0.9702366,120.22707
0.9116663,113.7846
0.96208316,120.16879
0.8354325,112.68876
0.95083475,110.429565
0.8774165,115.38119
0.81714636,116.57134
0.7830919,114.21962
0.83929026,107.305374
0.7501833,107.4797
0.70240766,104.23297
0.53858095,109.362404
0.64956397,98.591736
0.55170983,104.18123
0.5333297,100.90996
0.40232894,98.860985
0.391059,98.46171
0.3710532,98.94856
0.38548145,98.09835
0.34098378,94.49525
0.3222446,91.91068
0.4215067,90.40988
0.27522942,91.92496
0.25334057,89.74763
0.266644,84.18587
0.28046742,85.22452
0.20669006,81.49248
0.2946815,85.44153
0.25427163,85.914215
0.24436215,78.60343
0.21814424,83.36726
0.09343897,82.23396
0.0780915,80.9089
0.074083135,82.96145
-0.016092164,79.793076
-0.051157113,80.99053
-0.00014694929,84.98137
0.07594418,89.032875
-0.1326757,88.94435
0.053676583,90.573
0.095575824,88.49838
0.109843425,94.72248
0.06504013,94.336136
0.26090586,97.449165
0.38454047,97.54336
0.4472553,103.94867
0.63620186,107.14961
0.65865916,107.461784
0.7123299,104.997505
0.8999196,110.25519
1.0002825,113.89108
1.0714248,120.96782
1.1530658,118.67068
1.1486098,122.12222
1.2402323,121.929214
1.2375897,125.29654
1.3307209,128.67259
1.3327434,127.76364
1.431118,131.93855
1.3055899,130.63414
1.415304,134.08551
1.4074221,133.51294
1.3143666,131.79823
1.3649203,133.41568
1.4951601,137.76883
1.4189382,132.30574
1.3235524,132.11432
1.3773435,132.25742
1.2936944,139.00983
1.1566095,138.38979
1.2619003,135.04979
1.1877731,133.59853
1.1346473,130.2012
1.0525621,131.20601
1.040054,125.50578
1.0220845,129.35216
1.0349066,125.59088
1.0769314,126.58835
0.9949229,118.45275
1.0668976,116.59774
1.0096744,115.0397
0.9788054,115.74405
0.96602577,115.40892
0.97672427,113.25772
0.902101,112.79698
0.88204867,110.8972
0.8010856,110.07488
0.8368501,109.69371
0.83283454,108.46335
0.79190975,106.70358
0.7262798,102.546906
0.62873346,104.49915
0.5805376,99.32855
0.5332656,97.87074
0.4157109,99.301346
0.57266974,99.90223
0.48589727,99.09876
0.41183665,90.32868
0.42087626,96.43546
0.3482249,88.33453
0.44611004,89.141266
0.46223697,90.99548
0.42105284,87.8834
0.4408535,85.69348
0.35057324,85.843056
0.47326288,86.56831
0.4669001,88.06189
0.40573588,81.59533
0.4273637,84.43102
0.33597925,81.02268
0.22507323,82.6691
0.25296983,84.64154
0.14868563,82.044235
0.111192554,80.20155
0.116518855,84.05211
0.1763581,83.21764
0.12259513,85.45453
0.08146928,88.53879
0.108144484,95.80198
0.20865948,88.43752
0.28233945,93.54862
0.28363833,93.42586
0.45905834,97.39363
0.51995856,98.160095
0.6522779,99.353935
0.6536794,96.53012
0.92565805,108.97796
1.0168079,106.75261
1.1176387,113.56958
1.1279827,114.605515
1.2838904,119.56963
1.4046485,122.5442
1.3191837,121.29914
1.4701787,121.90777
1.5279478,128.52356
1.5235399,129.8813
1.5957735,128.66267
1.5880508,132.54648
1.6766548,129.25208
1.6171731,132.24165
1.5427041,130.99878
1.6314764,133.68724
1.543045,135.9327
1.6844431,131.98134
1.5956391,130.47527
1.5439742,129.8883
1.5000732,127.62894
1.6068944,133.91293
1.4555576,133.50467
1.3741463,131.12958
1.4112421,131.34865
1.3883284,127.29014
1.389196,131.83992
1.2347372,127.473885
1.1973021,133.47417
1.2976072,127.30515
1.2445719,120.18486
1.2706397,118.31145
1.2377255,121.365685
1.1637373,116.65011
1.2556669,115.82098
1.2169605,115.727615
1.1691892,112.85865
1.1841029,110.71829
1.0585947,115.327415
1.1107105,113.23472
1.1342611,106.97588
1.0801438,107.19084
1.1120603,105.5558
0.94833374,98.79568
0.93645763,108.39297
0.944867,105.860565
0.83374935,99.760216
0.7825877,98.02432
0.85517335,97.53434
0.73805374,97.62253
0.6840379,95.36128
0.68090904,94.03752
0.668739,94.66033
0.7011325,88.9038
0.7500422,90.81005
0.81704575,87.65816
0.6529143,86.37581
0.6610099,89.979195
0.7165147,83.630066
0.68220764,81.9162
0.664477,84.37707
0.64927286,84.13786
0.60119146,83.27497
0.56818163,85.25235
0.43174782,82.90221
0.44969267,83.08449
0.44723853,80.3092
0.44082353,83.45308
0.38017914,83.64182
0.4379554,84.39381
0.40048644,91.430176
0.53305715,90.30978
0.4666134,92.0514
0.58884203,93.5066
0.63310546,97.06331
0.8002621,99.88478
0.84690756,94.068375
1.0185188,98.94141
1.0132667,107.271736
1.1779509,105.78738
1.3087903,111.22247
1.3729342,116.18885
1.3988689,112.6867
1.5586139,119.05496
1.583925,122.60152
1.6601301,122.57072
1.7469423,125.11002
1.8443735,124.60516
1.8691546,130.48248
1.8661667,125.71735
1.8986303,127.228035
1.9712137,135.42802
1.8958236,131.80957
1.8681358,130.15866
1.8395281,134.72067
1.9010956,135.48158
1.8692809,134.84535
1.8045933,137.02394
1.8939576,130.28763
1.7860137,131.02336
1.8439662,131.35085
1.8198748,135.83838
1.7077764,130.83372
1.7230704,133.21344
1.6258327,128.10571
1.5245819,129.46593
1.5626757,130.30885
1.5246502,118.61847
1.5393333,124.09431
1.467144,124.95909
1.4309728,123.43043
1.5327016,118.720436
1.3820974,122.54439
1.4210259,113.93499
1.4327143,115.94493
1.3688914,116.01663
1.4276451,111.02554
1.2480599,109.252716
1.3715231,105.28191
1.3323705,110.59918
1.3963264,103.41683
1.2541054,101.73686
1.1813906,106.70793
1.1773115,104.248795
1.0443434,101.11456
1.0320778,98.63058
1.0195199,100.75052
0.95642143,95.06869
0.9734519,100.61244
0.9127274,94.70433
0.9367496,96.51075
0.91464925,89.005775
0.9810114,89.84892
0.8843918,90.984055
0.9717654,89.8256
0.92878103,86.81651
0.89043444,85.54675
0.8806906,83.02956
0.8354665,86.494995
0.7784457,84.9781
0.74111235,84.03426
0.7135178,86.53403
0.8260963,83.59126
0.70008916,78.59551
0.6434618,80.90352
0.6263303,84.1979
0.61738056,86.06952
0.52631986,89.39793
0.52185595,93.22087
0.64876103,91.48024
0.6138345,90.2096
0.6176812,91.52298
0.6626598,93.08926
0.7881565,96.1417
0.88363636,99.77129
1.0079564,103.4436
0.97037816,103.346306
1.2018312,100.34056
1.327305,109.2502
1.306888,109.219444
1.4569793,112.50077
1.5520296,113.59616
1.6447544,118.22787
1.7177312,117.85492
1.9099897,122.0923
1.8804594,125.0831
1.8694607,121.80528
1.9685299,124.302124
1.9101453,128.46921
1.933292,128.66869
1.8583839,128.8067
2.0367737,133.02155
1.9909987,131.0231
1.9857354,134.48514
1.9102063,134.45155
1.9111935,136.63144
1.8228295,133.3306
1.9084412,134.33359
1.8871051,135.92146
1.8111649,129.13715
1.7783962,134.36726
1.7379439,134.40233
1.7244123,128.60359
1.7157019,133.27118
1.6246014,125.120735
1.6885098,124.5367
1.6443927,125.84173
1.5081077,127.82114
1.4917917,121.47198
1.4749218,120.555565
1.50187,122.31147
1.5117142,117.12417
1.4983425,116.48053
1.411883,112.782
1.4471738,115.6247
1.4595042,111.96413
1.3554796,110.374146
1.336425,108.68531
1.2370913,110.5605
1.3134168,110.12413
1.2318484,104.29253
1.1183473,106.74994
1.1609194,105.84728
1.0970879,100.60895
1.0075353,98.643326
1.0546886,99.34815
0.9131713,94.966194
0.8695257,95.05259
0.90142894,95.13135
0.8898123,90.30495
0.8627793,92.17635
0.80514556,88.90851
0.8524365,93.14704
0.7382596,88.855896
0.8666698,86.49973
0.78967196,86.24883
0.8719804,82.81032
0.71530825,86.65441
0.70657873,80.4925
0.69929725,86.35633
0.61061573,83.86219
0.56236917,84.66347
0.5745578,86.15166
0.44772142,85.63977
0.54452485,81.25626
0.47284922,83.3486
0.4498495,88.15039
0.33061534,86.3013
0.42247823,89.187416
0.49948668,88.42376
0.4670536,90.382675
0.56682545,88.409515
0.6639916,93.196335
0.7640205,100.44288
0.8729667,101.23489
0.9783941,103.85572
0.9469823,104.99956
1.07334,103.46723
1.2466929,109.208435
1.3062549,111.14597
1.4121641,116.86621
1.5353442,115.752556
1.5646648,120.372154
1.6539118,122.76121
1.7198554,126.42653
1.7729977,129.03844
1.7303289,134.94243
1.6705929,130.17743
1.7396816,128.45123
1.7897471,135.1966
1.7472528,131.28293
1.7938308,132.44637
1.8028495,130.27516
1.7637783,134.45383
1.7124606,131.83847
1.7565675,132.91379
1.6741451,136.0668
1.6516107,135.11035
1.5334113,129.97163
1.6206913,131.50754
1.548603,131.05449
1.5288069,129.2012
1.3711314,131.26833
1.4556448,129.08199
1.4343165,125.81983
1.3663579,126.14504
1.265299,126.98294
1.2297199,123.11106
1.2842366,123.53437
1.1531633,119.86971
1.2704365,116.76991
1.1854484,121.42593
1.1485687,116.69783
1.2005914,114.37902
1.2035593,115.17266
1.073699,112.800156
1.0217005,108.17364
1.0675256,105.95029
1.0235093,110.81764
1.0163215,106.16615
0.85702026,102.476
0.93069994,99.668915
0.86605465,100.772514
0.77419513,99.67986
0.7183632,97.25216
0.64328545,98.65804
0.6113227,97.30892
0.6397637,96.12873
0.66799843,95.34546
0.556237,96.17558
0.5909448,91.27313
0.61059344,88.31068
0.61697507,85.69635
0.6224257,89.34645
0.58612144,87.407776
0.49303713,82.11621
0.46781993,86.57628
0.38308552,86.95785
0.5149485,80.75849
0.40623853,81.52967
0.3645308,79.97306
0.30607787,82.70621
0.16430473,81.21798
0.21538804,83.1321
0.18743542,84.51822
0.20508038,84.675766
0.09970152,86.58
0.13208939,84.249794
0.1836825,91.91273
0.24196985,88.3518
0.2824383,93.12753
0.3661794,89.080666
0.5300558,97.44498
0.44528627,100.19699
0.68121475,103.077896
0.741223,105.34737
0.9157155,104.399734
0.94101495,108.00534
1.0445806,117.42445
1.0853982,115.85481
1.1760873,118.03254
1.2119118,121.8225
1.4371464,121.16926
1.3099195,121.27476
1.4087759,125.67496
1.4468993,131.09953
1.4814556,132.47165
1.4352068,130.54526
1.460565,134.57004
1.5181278,136.09067
1.5054667,137.18575
1.5357898,132.33525
1.4695818,133.96928
1.4450845,132.72932
1.4038987,134.9773
1.3764634,134.47589
1.3454554,131.86005
1.348635,129.78682
1.2241244,135.02151
1.2593368,127.84928
1.2438761,128.41295
1.2499751,130.66527
1.2313749,127.931274
1.0378914,127.14015
1.069723,129.30133
1.0666337,122.948494
0.965049,121.03898
0.9968776,118.25865
0.91475725,119.35094
0.99544495,118.57195
0.88417506,118.37306
0.9433991,117.13203
0.9579208,112.87182
0.8871909,107.56231
0.8629216,111.5832
0.872491,110.469894
0.7677847,104.98298
0.7619347,107.332016
0.6562374,107.70529
0.65690434,107.12569
0.6610721,99.34526
0.5223295,96.64372
0.4846156,104.34389
0.4017543,99.229256
0.4435274,97.140724
0.38594395,93.878006
0.41230413,95.06598
0.41767398,90.22384
0.41180748,90.172104
0.3944621,88.22849
0.28795442,90.51759
0.33412778,86.4583
0.30778012,88.32403
0.2548992,85.535034
0.3140603,79.107895
0.31705946,84.19038
0.21332917,84.3114
0.1845669,81.42003
0.16482207,82.99011
0.15826796,76.237465
0.113800816,80.77624
0.099298015,82.908226
-0.031717695,84.46274
0.010955726,87.149445
-0.044856537,88.60744
0.00010137641,88.474335
-0.037195556,89.766464
0.016659105,91.12096
0.09062383,91.60137
0.14577337,93.85953
0.13635346,98.568146
0.29594392,95.845825
0.38710818,98.74074
0.40807736,104.75595
0.63438016,105.45438
0.74748796,108.31425
0.9162534,106.82782
0.78825426,114.33793
0.99788934,115.84929
1.1068095,119.768654
1.1646079,121.214836
1.2231859,120.56254
1.2683808,124.32447
1.3621337,127.446075
1.3430268,127.076744
1.4174424,131.58769
1.3681811,126.94605
1.330867,133.28368
1.3481625,128.77518
1.2882836,137.19658
1.3214852,132.74167
1.3235124,131.99336
1.3926119,135.04808
1.2968414,134.97966
1.218901,139.23856
1.2964035,134.27023
1.1681397,134.52402
1.1776675,131.06291
1.1906774,135.34785
1.1118121,127.179436
1.0261265,126.485146
1.0985584,128.84105
1.0551898,125.359085
0.96112937,125.77545
1.022832,126.71444
0.93000716,121.3244
0.9577992,119.1397
0.90630484,122.595634
0.91235524,120.15858
0.86821383,117.12803
0.90125316,119.55195
0.88137555,113.352036
0.9438597,112.4808
0.8257565,113.63949
0.7930088,113.90408
0.81800693,110.39358
0.7511202,104.79873
0.59648836,105.48848
0.7310764,99.97518
0.56691754,102.6909
0.5089738,100.293625
0.42302907,104.36755
0.4550966,99.471695
0.45599318,100.33538
0.45881584,99.9359
0.39054704,97.57288
0.37249473,90.18227
0.43198445,90.633644
0.44914126,87.69335
0.37909976,87.41749
0.378987,86.6259
0.3486198,84.442894
0.4077011,82.56441
0.33530527,91.551956
0.29267153,82.34031
0.33220372,85.28962
0.30751115,81.003044
0.26883763,82.2111
0.1591549,84.95479
0.084439255,81.65522
0.0035319352,86.04867
0.061999388,86.036026
0.07426608,88.89194
0.06739858,86.46968
0.03446925,90.21674
0.09490514,92.84528
0.12179103,88.25933
0.227586,87.58948
0.20568885,101.32187
0.26552764,96.38779
0.3373526,100.12363
0.5986386,98.17607
0.5788141,102.38798
0.66617894,102.90644
0.8363449,110.77505
1.057024,111.935356
0.98606795,109.75203
1.1515075,115.00118
1.1653439,116.47219
1.2351213,117.10221
1.3848323,123.59643
1.3504353,125.91409
1.3764726,127.08406
1.547463,127.08268
1.5322171,130.65295
1.585842,127.301476
1.5751266,132.0911
1.4861418,131.5388
1.5738801,132.42946
1.4740227,136.09283
1.4757864,133.42871
1.5416731,133.64139
1.4351984,131.38914
1.4704429,138.90149
1.3791237,133.61847
1.3911262,136.24475
1.316658,132.0112
1.3321522,132.2658
1.3160541,129.60641
1.2842978,126.35309
1.1892157,131.58577
1.2209257,126.23867
1.218483,125.29538
1.1602874,123.8709
1.1157975,120.69133
1.1901684,119.969604
1.1347102,119.67078
1.0602124,117.38118
1.0929652,115.072334
1.0979273,115.67677
1.0896641,110.75042
1.1628355,113.037025
1.1276397,112.87684
1.0712787,111.555016
0.88874656,109.119225
1.0148877,109.78799
0.91381705,103.46618
0.884801,102.86295
0.7400041,102.16057
0.7874063,99.92662
0.7358383,99.47839
0.71241504,101.869865
0.7069376,98.51891
0.6342062,95.998184
0.65035003,96.000435
0.59741324,93.31899
0.64725286,90.19975
0.55760956,92.630005
0.6641676,87.80257
0.6165086,88.906044
0.65863574,89.13759
0.7029648,86.948006
0.57090944,81.73863
0.5297098,84.32009
0.616035,84.053856
0.5306371,84.60447
0.4658646,81.52458
0.46157467,81.38024
0.36576745,83.47231
0.28750983,84.53264
0.29573432,83.06616
0.32232946,87.50082
0.31950006,80.81915
0.2562427,84.068245
0.3605952,91.17599
0.3515885,88.446915
0.47346932,85.29302
0.5694642,93.28294
0.5450029,93.640236
0.7083537,100.83818
0.7790963,99.685165
0.8586387,96.58951
1.0584981,105.65285
1.094918,103.92365
1.2267836,110.90844
1.3296701,114.784096
1.342876,116.85061
1.4159248,116.315506
1.5630835,124.135216
1.6145159,122.17998
1.6352906,126.04396
1.7046605,126.13856
1.7445986,132.34044
1.7460159,129.52187
1.8354468,126.55384
1.7843163,129.3813
1.8150963,132.70955
1.8085738,134.68864
1.7936687,136.25887
1.7752637,137.3455
1.7726171,134.9412
1.7795103,133.8982
1.720358,134.8605
1.7225786,128.78583
1.5928582,132.6825
1.7020777,128.62491
1.6448687,133.84467
1.6170447,131.12634
1.5326809,129.56093
1.4954855,129.68385
1.5024012,124.92701
1.4849586,129.10197
1.507685,124.69574
1.4005666,124.57068
1.47662,123.21798
1.442736,117.52906
1.4447318,119.466385
1.3280308,117.40206
1.4337757,116.815636
1.3193105,114.19073
1.3545692,111.899925
1.333557,109.38424
1.2633321,109.832794
1.2285415,111.452126
1.2443384,111.75697
1.1873525,105.65
1.131925,104.10961
1.0800954,102.85327
0.9534676,106.32904
0.9928059,100.913315
0.9409999,102.64412
0.97223884,95.02855
0.9371495,94.51312
0.94291943,99.78558
0.84971225,93.63531
0.88006157,89.221275
0.86566025,92.04749
0.8491936,87.87853
0.7983785,91.615295
0.84115577,88.461685
0.88480866,86.82883
0.87541854,83.77618
0.82193995,83.78822
0.7839142,82.89671
0.6483612,85.28723
0.7501348,85.10276
0.7025064,79.2783
0.5831754,81.22416
0.5389269,85.102776
0.58306503,80.83613
0.494291,86.533195
0.44401398,84.83285
0.48141247,84.64589
0.5092717,88.53896
0.6932069,91.24947
0.63521117,92.344215
0.6899754,95.755585
0.79901874,94.86506
0.9719587,98.82261
1.0001956,97.74842
1.0756347,102.79783
1.208137,107.49948
1.3140978,112.72823
1.3854778,111.79815
1.4863693,116.020035
1.6227272,116.77937
1.6278707,120.55996
1.7002422,117.45855
1.7574978,123.19063
1.9296535,125.16045
1.8918601,127.00422
1.9623027,127.362686
1.9470495,131.68169
1.894174,128.42441
1.8715332,130.78023
1.8551518,130.53972
2.0235126,133.92946
1.9217694,139.58327
1.9207028,134.81027
1.9284034,135.35037
1.8807467,135.16403
1.9107412,133.5483
1.8870534,132.62076
1.7751364,136.90298
1.865433,130.55925
1.7671763,131.38754
1.8020449,129.45973
1.6849921,129.61165
1.6898688,125.810585
1.6140412,125.27378
1.5694419,125.19956
1.5093515,128.76938
1.5201287,120.00837
1.4817508,117.30358
1.4920601,119.990326
1.5693117,118.02072
1.5069069,116.48171
1.5895361,113.47967
1.3800714,114.73155
1.4721354,112.756584
1.325583,111.77378
1.3876834,108.64796
1.2983617,108.246994
1.2493925,110.48343
1.2834599,107.22564
1.1894386,105.22871
1.1612178,106.21634
1.0550784,104.601555
0.98680437,100.15048
0.9579589,101.4868
0.94604003,95.94986
0.92035586,93.88206
0.9526046,91.82084
0.9711615,91.03599
0.9236535,91.97861
0.9266192,89.17658
0.8375031,89.8979
0.92526126,90.041534
0.8578123,86.74047
0.83865047,89.39897
0.84302264,83.91418
0.8597706,83.83083
0.8314605,81.14718
0.74194354,83.77661
0.716683,82.23531
0.6276167,80.53725
0.5613939,85.69242
0.5497624,88.04824
0.4487125,77.7274
0.46757063,88.12118
0.4710103,83.92302
0.44969052,81.5982
0.47132903,88.910324
0.5870553,88.708046
0.6344413,92.45079
0.68732274,95.01361
0.70368063,95.03752
0.808039,96.0798
0.97077954,103.80639
1.0550467,100.42877
1.0499641,109.514084
1.2739155,108.94676
1.3231697,113.23068
1.5367317,114.16589
1.5435619,115.17492
1.6656921,118.57787
1.6543509,121.570244
1.715139,126.72549
1.7855706,125.40753
1.7905331,120.560585
1.7784653,128.2895
1.7958654,130.43184
1.8337415,131.1917
1.8887388,129.75514
1.856911,137.3407
1.8338032,131.22935
1.8721097,132.60866
1.823937,138.04051
1.751001,136.19093
1.8340775,135.75284
1.7409011,134.10674
1.7016505,129.67984
1.6933733,136.23877
1.541884,132.41138
1.6274639,133.63248
1.5689906,133.37274
1.5446509,129.35115
1.4681108,124.05444
1.4453682,129.17342
1.4216456,124.6431
1.3305898,125.69223
1.3414838,123.09094
1.2900442,115.04303
1.3480223,123.93443
1.2559856,113.991745
1.263657,116.99626
1.2743546,116.70416
1.2679807,112.690895
1.1626313,111.88286
1.2054147,112.23689
1.1357887,112.481926
1.1909964,106.32877
1.0892205,107.67005
1.011289,105.33293
0.9410083,107.28071
0.8717379,104.52484
0.89297533,102.18143
0.75856966,101.24577
0.7955341,100.04323
0.68682945,99.5338
0.7695035,97.34019
0.65280694,95.27185
0.715546,92.74069
0.74641603,91.19655
0.64982104,90.349236
0.69761026,88.98281
0.6227845,84.41676
0.7111232,89.35433
0.69169134,86.482506
0.58231264,83.80469
0.559653,85.22467
0.6084641,86.56128
0.5850848,80.78624
0.43095252,80.02105
0.40647838,85.68156
0.3599334,84.001976
0.31291232,85.2489
0.27723688,82.823944
0.20172077,84.07636
0.23109514,87.06304
0.2189964,88.911514
0.25385553,92.29399
0.32097447,92.42058
0.32086474,87.391464
0.35750562,93.68766
0.53041327,97.67933
0.5022886,100.10577
0.66402763,102.868546
0.7705296,102.41911
0.85520893,106.08517
0.9542657,110.252075
1.0536474,108.8971
1.1940528,114.547226
1.2209902,117.34786
1.3575214,115.493065
1.3539945,121.91117
1.3962057,120.18149
1.4894258,124.57647
1.533025,126.97583
1.5240189,127.05939
1.5672323,132.97397
1.4621519,131.29951
1.5265082,131.75433
1.595474,131.97505
1.5747104,132.24455
1.6422708,138.6725
1.522702,132.72263
1.5030707,136.93793
1.4914373,135.265
1.4126316,131.60312
1.4270958,133.25273
1.3557124,129.51189
1.369616,128.23949
1.3216785,136.39977
1.2178067,129.22675
1.227513,124.76179
1.2191962,124.04523
1.2584484,124.6894
1.1100514,124.403
1.0617309,122.42533
1.1226697,123.716705
1.0541608,120.92247
1.0139842,118.23822
1.0141897,115.00601
1.0676576,116.27707
1.0988687,121.545845
1.0113721,115.32216
0.9365944,114.421585
0.9534154,111.19091
0.9427041,113.59099
0.90531826,106.20646
0.78064513,107.896805
0.6632689,105.74741
0.69511175,104.24053
0.6360909,103.04348
0.6208926,101.162224
0.5892372,100.46117
0.5053458,95.34625
0.50462395,98.7403
0.458852,96.16316
0.41596735,99.23259
0.42893723,93.92599
0.4436558,90.91839
0.3379859,90.33786
0.42064002,90.74248
0.38543898,87.48335
0.34711727,87.00671
0.36880806,80.814285
0.32457376,80.09104
0.40884683,86.23568
0.355616,82.83243
0.24912284,83.59813
0.23475966,84.38048
0.15821663,78.25955
0.074275285,81.33948
0.13432753,82.7951
0.020491948,81.81801
-0.024169888,85.838196
-0.07571109,81.67068
-0.0572216,88.06292
0.03179636,91.43136
0.0015650679,86.127716
0.1065016,95.09505
0.17229973,92.72401
0.23086165,95.339836
0.32697055,100.32067
0.47640842,98.3053
0.63923913,102.19451
0.6399554,104.04891
0.77043843,108.46826
0.8076822,110.712746
0.9179276,111.2025
1.0793647,118.78931
1.1281552,118.199265
1.1641828,119.10571
1.2914976,124.71146
1.2308382,123.85689
1.3220859,125.74782
1.3157004,130.89342
1.283303,129.20084
1.3649904,131.91861
1.2959253,135.17744
1.3243519,131.43199
1.3706725,132.7507
1.3471578,137.71288
1.4097593,134.6264
1.3551869,137.81198
1.2497635,127.724144
1.3039201,132.9427
1.2189412,134.89449
1.177696,131.101
1.1329092,131.11357
1.1405433,126.75806
1.0997357,131.79488
1.0836607,128.9584
0.97022223,127.754715
1.0869452,124.99184
0.9210949,126.862366
1.0439508,126.01195
0.9480111,121.66582
0.9721317,125.058655
0.9172433,126.046234
0.9377685,120.29673
0.82255864,120.15867
0.9204604,116.342064
0.86570555,115.96757
0.82639575,110.67976
0.7703522,113.09526
0.8174751,105.59737
0.71502596,111.12878
0.6380353,106.14718
0.6427279,105.44189
0.59025645,100.53417
0.5651479,102.9696
0.47304878,102.244934
0.47639662,99.971535
0.43485704,96.84095
0.34736288,94.237114
0.34910628,95.80292
0.44293022,93.58607
0.34163898,91.815346
0.30356407,94.13891
0.2254903,91.51924
0.28329274,89.703606
0.25168505,88.90936
0.34611776,83.899376
0.34302852,83.980415
0.34926212,83.65824
0.29134297,86.120766
0.21557657,83.845566
0.26682216,81.091995
0.116883546,83.23331
0.14463058,84.70059
0.08664429,82.94419
0.025940683,83.39264
-0.019246275,86.10885
0.03128985,88.15651
-0.06075504,85.16387
-0.048518352,85.668396
-0.09599486,91.01939
0.10482142,90.897606
0.1324777,92.173004
0.17395538,90.36497
0.2541253,91.02882
0.31149194,99.62469
0.43622863,98.95379
0.571804,104.34608
0.63223326,108.79096
0.7306273,102.96471
0.85289174,112.53672
0.9249224,115.11812
1.1042958,119.69152
1.1450013,119.19555
1.2220932,118.10081
1.2894256,124.92553
1.3181579,126.934135
1.3316915,129.74968
1.3852134,127.11239
1.4512081,131.03026
1.403756,130.25922
1.4900074,129.65747
1.4525313,133.20013
1.3929809,135.41333
1.4556351,136.57404
1.4182508,136.63222
1.3386455,134.88486
1.3691761,133.56465
1.3366665,133.3978
1.3337504,132.359
1.3162555,130.57472
1.2518219,130.22
1.2204665,130.83344
1.2543108,130.47426
1.198898,130.15643
1.1249725,127.1222
1.0895717,124.716805
1.0459099,124.6144
1.1674517,125.444305
0.9672844,121.87943
1.0296098,124.82963
1.0464474,120.32015
1.0526204,117.54197
1.0293399,117.88061
1.0635744,116.66002
0.94203603,115.082146
0.9200015,114.560425
0.91991854,113.008736
0.9307155,110.006714
0.94711536,105.17155
0.86841357,105.647484
0.7635893,107.40151
0.79860604,99.42052
0.7686128,101.204384
0.71469164,100.652725
0.60535246,102.1094
0.5935838,98.7999
0.62255114,94.73237
0.5281989,90.76423
0.5173036,93.4326
0.54804856,93.41307
0.52841324,94.70271
0.5905146,90.42399
0.5235487,90.114525
0.54667825,81.243645
0.56841886,85.92389
0.47102302,89.32616
0.5701091,85.290565
0.42437783,83.48402
0.44726604,81.16689
0.43850476,84.59766
0.3567437,82.20479
0.27248296,80.635254
0.26715612,80.59812
0.27866536,83.434425
0.26148468,86.32988
0.17511031,83.74108
0.20595205,86.703445
0.22091651,85.99744
0.2291225,87.10859
0.2557222,91.60823
0.36497164,91.19772
0.51586187,92.603226
0.50106806,96.94198
0.5490603,101.1013
0.7269722,101.159645
0.81795174,102.496994
1.0190647,107.79023
1.0060027,109.109116
1.1580869,111.17243
1.1932164,110.878784
1.3284194,115.050964
1.4151947,119.254776
1.5584017,122.07575
1.5453861,125.434044
1.537655,125.22579
1.6993009,125.43963
1.7062253,130.16309
1.7096335,132.58524
1.754135,130.68806
1.731032,130.48097
1.7013404,135.10649
1.6703748,135.78339
1.6776997,133.44598
1.763478,133.69359
1.7225819,130.7411
1.6343186,135.12819
1.6146989,133.93475
1.5636019,133.37062
1.624166,128.90767
1.5480071,130.05759
1.5629572,131.42738
