ppg,abp
1.0546383,81.83411
1.173613,82.159325
1.1518909,84.94862
1.3199086,86.58359
1.3778495,86.55427
1.4521836,90.060425
1.4801183,90.59014
1.407599,95.784485
1.5308048,100.82089
1.6115961,96.34757
1.6672105,98.32643
1.716767,97.214714
1.7168385,102.37498
1.7445391,98.96123
1.7780511,100.09757
1.7907,105.6107
1.815653,103.66115
1.7473831,101.50299
1.7100508,105.270065
1.769653,105.33582
1.722307,103.82555
1.7360321,106.2969
1.6283185,106.69518
1.5995302,102.38787
1.5413979,103.26892
1.6499513,103.482216
1.615216,100.27976
1.4986057,102.54076
1.5744003,100.25412
1.3869755,103.46313
1.4903109,98.75289
1.5394075,96.62822
1.4335865,96.73045
1.3843464,94.33268
1.3483434,93.2895
1.3631513,93.52798
1.2759877,92.71173
1.2625619,87.81986
1.4223218,90.39579
1.221946,89.98254
1.2682009,86.10158
1.3978317,86.73982
1.4246399,88.64559
1.2663552,85.37874
1.3077347,80.74963
1.2956944,80.36305
1.2879874,81.899635
1.1947933,79.66629
1.2042884,80.24291
1.2596121,76.342445
1.1087667,74.4211
1.1081573,74.99702
1.0211867,74.2973
0.90369993,76.30029
0.92807865,68.68368
0.9358849,73.47794
0.9111607,69.443115
0.8267282,65.504715
0.82287544,68.679306
0.8688268,67.14428
0.8436314,65.74395
0.83701944,60.232296
0.75968874,62.1448
0.7987144,60.099804
0.8800773,58.617043
0.77605516,58.37744
0.81480634,60.693413
0.82691324,57.922718
0.8430692,60.58802
0.87645346,56.661827
0.81032586,57.44112
0.8041117,53.690327
0.7844066,55.643764
0.6878679,55.19136
0.68072367,53.54944
0.5637555,56.56655
0.50428367,55.029915
0.54398495,54.87249
0.61045414,54.23367
0.50438565,54.547943
0.5946542,57.34047
0.42952603,59.3458
0.50186634,60.19568
0.42424804,58.843872
0.54388255,59.738796
0.652628,64.16239
0.63117176,65.92331
0.5998297,67.60014
0.7967746,69.2936
0.92610896,70.53177
0.9403358,73.00715
1.0323733,72.68799
1.1964681,75.37985
1.258189,76.850006
1.4416962,81.07951
1.4240841,81.68503
1.4730473,82.51049
1.5767604,87.669655
1.6714454,89.705284
1.8184011,90.80541
1.7711458,89.88502
1.891389,89.825096
1.7803955,93.17015
1.855057,98.19991
1.968269,101.39142
1.8432276,97.87485
1.9665993,102.627846
1.939809,102.9965
1.9577866,102.28613
2.0064175,104.05225
1.9652666,102.01201
2.0200162,103.70613
1.988002,108.38568
1.9192655,105.42723
1.9669441,106.03072
1.8316578,101.33607
1.8576204,107.62275
1.749325,104.46739
1.8727771,101.07617
1.8464653,99.49233
1.9066997,103.89616
1.6781021,102.37915
1.6721762,98.306366
1.6573671,102.27895
1.6660695,102.76085
1.5776886,97.41923
1.6032488,97.91727
1.6082293,98.700424
1.6339977,89.23272
1.5026392,93.19547
1.5368056,90.98718
1.4912404,93.088875
1.4873109,90.77849
1.4507643,90.533676
1.485277,87.62998
1.4583066,90.441666
1.4441319,82.486824
1.4456478,82.54986
1.3539573,83.7014
1.3687164,83.93009
1.3700099,80.80872
1.3781619,80.273674
1.3042035,76.53688
1.3179035,76.45828
1.3372939,75.148094
1.1727421,72.16903
1.1112592,73.92106
1.1147829,75.358864
1.0024807,71.50417
0.9990942,69.70294
0.97872394,71.41122
1.0476717,70.14729
0.89152944,67.27091
0.9087278,65.8598
0.9231039,65.91574
0.8805038,67.07106
0.92679465,63.815735
0.8687881,62.184883
0.87043595,60.777786
0.892727,61.884846
0.88946396,59.701366
0.9116681,54.57327
0.88386786,58.411438
0.88459384,51.20531
0.80723476,55.00648
0.81013167,57.910503
0.7827654,54.324356
0.7093759,55.191044
0.6477837,54.803562
0.4791791,54.606113
0.63389456,54.765553
0.56391156,57.57422
0.5196384,53.053932
0.49560344,56.957066
0.53684384,54.48462
0.5250583,59.58155
0.47582978,57.908127
0.59677345,60.31444
0.5432917,61.01714
0.53470534,60.998894
0.6841472,65.01158
0.7131144,68.20146
0.788225,68.63625
0.86176616,68.27523
0.986019,73.16251
1.0746953,76.77904
1.2287358,75.08234
1.2241459,76.334335
1.2248564,79.10208
1.3970995,82.280495
1.3365533,82.40542
1.5683211,87.22015
1.7123392,87.924
1.6185342,92.18139
1.6922317,92.99554
1.7636106,98.5803
1.7694597,92.297554
1.7992483,97.11784
1.749109,95.948685
1.8482889,100.52975
1.8701366,101.97162
1.9087658,104.90618
1.9008076,104.838165
1.7911432,101.78127
1.7710097,101.36796
1.8652633,102.15271
1.8520737,104.14281
1.8179438,102.439476
1.7410455,106.57493
1.7451631,106.856575
1.6186094,105.208084
1.6699259,102.93855
1.5348219,105.206985
1.6702564,101.04403
1.6277452,104.5229
1.5248992,101.05446
1.4601015,101.38051
1.5059102,98.15403
1.4332052,98.45076
1.4744194,94.89729
1.5195146,95.666626
1.3686947,93.639366
1.3115947,93.33096
1.3906264,91.487045
1.2741097,91.309006
1.3253301,91.62994
1.2588395,91.86625
1.3324897,89.415215
1.244443,90.08385
1.2534573,82.34652
1.2190057,85.63774
1.1781498,84.31035
1.1471602,83.76979
1.1752534,82.88285
1.1102098,80.066635
1.1038446,77.733086
1.0848402,76.229454
1.0172687,77.72447
0.9896024,72.87284
0.81323224,77.53148
0.89964324,74.90024
0.8797998,72.31421
0.60015476,72.763115
0.74372727,70.434975
0.76563853,67.73064
0.69436747,69.36951
0.66135937,66.83505
0.6894866,66.28146
0.66292703,67.88345
0.674503,63.122192
0.62281877,61.186245
0.73915255,62.94404
0.6016986,63.21662
0.6386964,56.422733
0.5675013,57.794273
0.47589687,62.58921
0.4322189,59.18947
0.50971097,55.639793
0.51848596,50.509468
0.39298788,55.22392
0.40668657,58.75839
0.16199999,56.495316
0.24570243,54.892544
0.3587753,56.149124
0.2558186,54.01336
0.1932242,52.41152
0.24345165,56.725727
0.13637292,59.75555
0.13836712,61.518547
0.17292792,56.454556
0.1405095,59.49135
0.21488436,62.867844
0.24901462,65.1422
0.32054493,64.521194
0.3303133,63.690914
0.41156098,66.7088
0.47649768,71.66085
0.5472166,71.54259
0.6301416,72.99946
0.73356915,74.30686
0.9592911,78.378136
0.88301474,78.98611
0.92453414,79.07563
1.2011471,85.243645
1.0978072,83.86512
1.2091173,86.78038
1.2595415,88.17666
1.3095192,90.63726
1.321358,90.25668
1.4156384,95.30742
1.4858339,98.33264
1.4686126,94.70762
1.487754,101.51549
1.5217278,101.25778
1.5321995,101.311455
1.5716887,99.661385
1.5026656,103.17238
1.3821377,103.6807
1.4901541,103.80663
1.5679508,104.08664
1.5723342,106.73251
1.4413276,103.89989
1.5110806,103.38984
1.4210469,105.76075
1.3759818,102.13029
1.3555627,103.43527
1.314355,102.700836
1.2652717,98.657555
1.278426,102.188835
1.262381,99.82219
1.2162066,101.44227
1.0980148,97.66274
1.1106584,97.11657
1.1245406,103.71851
1.1100705,96.91345
1.0520333,95.743
1.0856985,95.862305
1.0466074,94.541916
1.0439882,91.02374
0.9481037,92.70759
0.98271877,89.189
0.89216214,89.35577
0.9500137,83.85251
0.93078613,87.48924
0.8414044,83.25136
0.8971492,84.39626
0.83645445,83.030106
0.7512871,79.74194
0.8336108,81.1071
0.76676375,78.06378
0.72716814,77.06592
0.7114863,77.71044
0.64956975,74.94642
0.61235106,73.76503
0.5677583,75.40275
0.4694933,73.59462
0.5418249,71.8636
0.42599136,68.86482
0.42616522,67.28496
0.37311095,68.98803
0.40841702,65.6652
0.41999137,69.03304
0.3679972,64.90279
0.32723075,59.389015
0.34575185,64.11826
0.35323554,62.909138
0.276262,58.477196
0.26407844,57.801617
0.36870196,57.25492
0.35685846,56.61784
0.25961822,61.191463
0.32789433,57.244644
0.22077349,56.330906
0.27681166,55.60759
0.2523445,54.248425
0.14514717,53.01081
0.117291555,53.286385
0.006807289,55.03252
0.054367706,56.442356
-0.064782254,57.377712
-0.019858785,60.287144
-0.020555174,60.75527
-0.18540314,60.043045
-0.05133738,61.30878
-0.024402069,61.197197
-0.0097660795,62.011597
0.037958592,65.41805
0.062782936,66.37753
0.13221082,67.41524
0.3277526,67.34137
0.24200249,65.632195
0.40814355,71.4357
0.45228255,73.26565
0.62776005,73.81597
0.7315703,76.47925
0.7655571,79.02281
0.90343255,83.04082
0.90382934,82.445175
0.96385145,89.58285
0.9968479,88.39017
1.0594584,85.90683
1.2356391,92.67604
1.3552608,95.49312
1.2895639,92.80115
1.2494806,95.11562
1.3027694,100.39521
1.4158128,102.21719
1.3882545,100.64592
1.3204569,105.37824
1.3885013,102.337746
1.4326662,105.26163
1.3181947,104.57474
1.3902161,103.430824
1.3304888,104.866615
1.3838621,103.36579
1.3448381,108.94203
1.2985353,104.87849
1.2659596,104.47592
1.3946404,102.4662
1.2453612,103.90214
1.236182,103.55806
1.1867387,104.007355
1.1363435,99.89953
1.1802409,100.4012
1.0766821,101.64319
0.9856721,98.77034
1.0266987,94.19514
1.0868986,97.10318
0.9886505,94.67909
0.9876179,95.73311
0.9853024,89.905106
0.9680576,91.72745
0.9773546,91.10048
0.9763643,88.48353
0.9365898,89.32405
0.8454193,85.597855
0.72585917,89.19344
0.7845533,84.489
0.9379132,84.00558
0.9394759,82.24239
0.76180726,83.501175
0.8163465,76.27754
0.7895503,79.704994
0.7768195,76.86337
0.77760684,77.00097
0.78707635,80.30911
0.7044482,76.1813
0.4841767,70.293106
0.6101878,73.32406
0.5709865,68.543816
0.55182475,70.400536
0.478356,69.91368
0.4570811,69.34952
0.5127751,68.44476
0.4813448,61.613037
0.37454534,67.07223
0.52273977,62.78064
0.46324092,58.31398
0.43812877,60.92457
0.41295248,60.832874
0.41026506,58.71471
0.32725674,58.981663
0.35119095,54.808372
0.4185308,56.014496
0.3278201,53.749187
0.44694015,55.94553
0.37312737,55.811058
0.33424723,56.916363
0.31953818,52.095528
0.24526142,50.89025
0.3213158,59.5385
0.15933855,56.42185
0.16981466,53.682343
0.19883852,55.64967
0.14807658,58.78146
0.17893709,58.6832
0.150491,56.76831
0.07625419,56.766483
0.054577168,59.399994
0.18369497,61.118847
0.26194954,62.613113
0.25304753,64.01278
0.34893858,65.89536
0.4558074,66.32139
0.4409466,68.650276
0.5077694,69.8232
0.6886491,73.48667
0.82171535,74.55393
0.83746517,77.88146
0.87900573,81.24928
1.0724819,82.67309
1.1416651,83.77864
1.214817,86.68455
1.2123916,88.79562
1.3032731,91.113625
1.4026424,94.50129
1.4164587,94.31551
1.507005,96.35587
1.5221678,95.44195
1.5970875,97.426186
1.6547773,103.873276
1.5649288,102.23359
1.6877599,102.28575
1.6933252,101.63484
1.5424124,105.19878
1.5046465,105.49393
1.569618,106.32036
1.5302045,105.01377
1.5713916,102.82446
1.6140162,104.25877
1.598209,103.761795
1.5706482,101.259254
1.5602298,102.12798
1.4531186,104.3205
1.5081613,102.468155
1.4000766,103.489395
1.4107615,101.17763
1.45278,99.718636
1.4052426,95.78396
1.2529466,98.797844
1.3922799,99.69569
1.3582413,92.17805
1.3063465,96.41609
1.2719413,94.59504
1.2221398,92.79165
1.2982203,94.78654
1.2151308,93.675896
1.2382625,90.361465
1.1574012,89.04263
1.1678746,87.66081
1.1761247,86.31632
1.2048376,85.11199
1.1755964,85.54783
1.1106585,87.13967
1.2012355,82.95016
1.1745509,83.40994
1.0287037,81.68307
0.9816656,75.91083
1.0881579,77.832596
1.0591296,74.623566
0.9362816,74.526886
0.86653745,72.28608
0.8327609,69.82383
0.96393526,72.94724
0.8661524,73.797264
0.7263879,66.38407
0.7830146,67.6021
0.7400338,65.03342
0.71697915,65.065216
0.6929578,63.49209
0.81924313,61.428368
0.84821784,65.62692
0.8085889,62.66338
0.7957611,57.432335
0.7309065,59.18901
0.7959919,57.82881
0.6843608,60.08716
0.72846633,56.22889
0.64493257,56.9929
0.61708575,55.062984
0.61497474,54.734432
0.58676916,59.275158
0.70220095,53.946106
0.6272176,54.40578
0.46371543,53.67022
0.5002297,51.034527
0.50133455,53.85646
0.39283672,54.879494
0.4353846,56.8033
0.42690364,57.6554
0.33252972,57.48632
0.3462832,60.12521
0.5008692,58.560997
0.56483597,63.311
0.6149226,61.8513
0.642862,65.15678
0.6523934,67.81219
0.80492246,67.73301
0.87989146,74.54434
0.9736312,70.8758
1.0059111,75.251076
1.0538198,76.70669
1.1289369,82.27867
1.3366747,82.85986
1.4070424,80.72244
1.482033,84.93668
1.4903668,87.824814
1.6819366,90.935814
1.611145,88.92224
1.6584775,94.431755
1.7690707,96.75127
1.8640991,97.26049
1.8982267,95.87036
1.8538091,98.38825
1.897643,100.151085
1.7613645,104.92026
1.8885312,106.4469
1.8960816,102.65122
1.9959987,101.86328
1.9601853,104.87004
1.8854392,105.27067
1.9513767,100.95714
1.9785535,102.154854
1.9782785,103.130035
1.8877565,104.14052
1.8503675,103.20262
1.8635558,102.228035
1.8100379,107.91317
1.7730352,103.96992
1.6935844,102.02402
1.672998,103.22644
1.7040569,97.66832
1.6257123,94.738495
1.603175,100.907486
1.6592004,95.649506
1.5674756,98.07374
1.5477147,94.82316
1.5385447,92.34195
1.4547788,90.62657
1.5262586,90.40536
1.5010132,89.68144
1.4990072,92.090454
1.4899421,88.96213
1.4776298,88.092094
1.400767,86.112724
1.4114442,85.62009
1.3915051,83.12146
1.4041744,81.76596
1.4044106,82.38922
1.4719155,80.73748
1.3954016,81.20762
1.3122725,76.76019
1.23006,82.02291
1.1258205,76.6791
1.1785135,75.050804
1.1165007,71.21367
1.0461764,72.05655
1.0652133,70.42914
0.96467054,70.28105
1.0104151,68.22217
0.9680936,66.325874
0.8971814,69.35048
0.8895612,62.923695
1.0112728,63.070236
0.85015064,62.404755
0.82410026,61.35406
0.97971565,62.206795
0.8884311,60.525024
0.9361166,59.146076
0.8554099,55.732166
0.87785196,59.280655
0.8907143,55.439995
0.9679441,61.713993
0.7971671,56.657253
0.7779173,57.53156
0.7603187,53.630352
0.7022394,57.36319
0.7655131,54.607956
0.78976923,58.543983
0.7040262,52.2388
0.5948055,54.414524
0.56742877,54.233704
0.5467931,55.7647
0.61304826,57.42695
0.54111093,60.57411
0.52005756,60.55791
0.58860105,57.53274
0.56127715,62.95904
0.67028356,65.1948
0.7111026,67.691574
0.88938546,68.91728
0.9343085,71.3779
0.9866411,73.1375
1.0208112,74.21629
1.1463065,73.07716
1.139206,76.21676
1.2685885,78.476555
1.4291805,81.8317
1.5377517,81.85782
1.494109,82.72191
1.6153433,90.98239
1.6893593,88.99866
1.6089425,89.5341
1.7584985,91.07759
1.76618,95.703354
1.8233873,97.557724
1.9182353,96.19529
1.9122467,98.19696
1.9057808,99.42214
1.8548336,101.99535
1.9743973,102.61003
1.9613763,103.95665
1.9473747,104.84256
1.8503218,106.07224
1.9786681,102.163315
1.8522708,104.805374
1.8883473,107.98865
1.8782964,106.57179
1.7593771,105.95434
1.7568622,106.37597
1.7768866,104.28195
1.7179935,105.479866
1.7274014,103.09377
1.5622996,100.3834
1.6537585,101.31688
1.539287,99.79365
1.5499201,98.691605
1.6001805,98.12106
1.4817297,97.12299
1.5279378,95.53764
1.4187242,92.97223
1.5361875,93.3753
1.3873483,91.28559
1.3427966,88.02392
1.4152439,88.56893
1.3865229,87.955826
1.4634763,88.63247
1.3346027,87.66445
1.3885182,84.716995
1.1805319,83.21487
1.3475672,86.290276
1.3214316,81.91081
1.2611041,83.15614
1.1858634,78.76086
1.230821,75.9698
1.0965953,75.92908
1.1100508,74.59355
0.9882742,76.8795
1.0928564,74.92954
0.9221772,74.16566
0.89973843,69.94221
0.86680406,71.15829
0.86842036,71.42942
0.8816825,67.92417
0.8330629,69.721924
0.78965443,67.44532
0.693884,70.18565
0.7754738,62.921597
0.66252273,62.809544
0.7801115,63.041348
0.7382482,62.74506
0.7772679,56.90509
0.6879957,57.239983
0.70179427,56.7225
0.7571041,60.521023
0.763888,54.423717
0.66643584,55.87268
0.6388078,58.451122
0.6070032,54.274364
0.5991586,55.263615
0.5080164,56.824436
0.4561353,55.861156
0.42769897,56.06245
0.4468271,58.481003
0.36903778,56.07701
0.3076763,55.114517
0.34822443,54.53013
0.2995515,55.03798
0.31124103,57.314392
0.29386577,60.33676
0.255162,63.43833
0.39923742,60.927208
0.35638347,65.84142
0.5065334,67.89376
0.5551598,67.02636
0.67210084,68.31672
0.70704395,71.50442
0.82506496,72.483635
0.9880819,77.30619
0.92159504,78.85995
1.0044934,81.53346
1.1984624,83.2087
1.1763377,84.45305
1.3482144,86.898224
1.3842359,89.22817
1.4399045,89.38848
1.4953897,92.778625
1.340976,92.522865
1.5473351,93.9145
1.5054108,94.11315
1.6093423,99.080986
1.5229242,99.57735
1.4758918,98.40571
1.5570772,101.22066
1.5871816,101.70406
1.5366069,102.22395
1.5809176,103.26271
1.6373742,105.55065
1.6038386,106.40528
1.558573,102.06891
1.5571122,107.22393
1.5854139,102.502914
1.3962258,108.020775
1.4980873,101.68528
1.4741945,103.793434
1.4087436,108.52611
1.4137348,99.38825
1.3376247,104.018196
1.2766638,100.877945
1.2284018,100.53508
1.2491683,97.32001
1.1845552,94.76599
1.2244226,98.58085
1.1081653,95.98416
1.1413149,98.26857
0.98019665,94.81957
1.0871907,91.90219
1.16372,91.017334
1.0873666,91.003
1.0376604,89.77668
1.0075688,89.898186
1.0598792,85.43134
1.0884558,89.92936
0.9727247,86.05387
1.1307993,82.126434
0.9096546,80.735405
0.89813066,82.2124
0.7940149,80.00397
0.8414123,76.72189
0.7957394,75.99446
0.7753831,79.866295
0.7353814,77.61616
0.74442333,75.89735
0.6702154,72.212685
0.55138654,70.711296
0.66608024,69.584145
0.45482945,67.50143
0.50378674,69.86389
0.4081235,69.133675
0.44351634,60.614902
0.47678274,63.993557
0.43216038,63.426426
0.38646033,60.894444
0.3116312,61.06658
0.37885392,59.330143
0.40650636,57.61827
0.3540662,61.42116
0.36873734,59.369377
0.4794696,53.85703
0.32213745,60.199093
0.2823405,51.944138
0.33795938,54.95122
0.26763391,56.281925
0.16346435,53.882725
0.20760845,56.015587
0.12786521,58.94289
0.09127716,52.970085
0.10967296,57.551674
0.046561543,58.35849
-0.040720057,57.15551
-0.011913692,58.967594
-0.02033325,56.747852
-0.010643205,59.72508
-0.041657265,58.607365
-0.026425537,63.582653
0.112113126,64.86811
0.18527246,65.64474
0.187257,67.95986
0.21631502,74.01347
0.30602053,67.38704
0.47214487,71.28683
0.46805915,74.63525
0.6663423,77.16436
0.66284573,80.7092
0.81389815,80.26983
0.9144056,83.78683
1.0215359,84.85409
0.95589036,84.57962
1.0974635,87.76904
1.1771301,92.262245
1.154554,92.71334
1.2194134,93.874855
1.3090893,97.39763
1.2759919,96.01263
1.3365948,101.67831
1.3302804,99.83357
1.3405678,100.73588
1.4005511,102.269035
1.3478631,101.04073
1.2990996,103.83058
1.3788532,106.1043
1.349311,105.70358
1.2759236,103.7969
1.3279641,107.4015
1.3066993,107.16532
1.2558755,103.33575
1.2116346,102.460655
1.1889836,101.25505
1.1383169,104.10766
1.1397585,102.47651
1.146867,100.938446
1.0871863,102.85024
1.0517721,98.36226
1.0595452,98.69953
1.0712286,97.46241
0.9975279,98.358734
1.035952,99.17264
0.9719558,95.04347
0.9425302,96.81797
0.9197673,90.37291
0.8757893,91.5609
0.860077,87.90549
0.8767182,91.39776
0.91937804,88.220406
0.88127667,85.64747
0.9107152,81.93123
0.85869676,88.71248
0.8974232,85.35849
0.85132146,81.697624
0.85683227,81.74306
0.7444076,80.59311
0.7761708,82.9539
0.6572171,74.35837
0.6508162,76.41426
0.54033047,76.27936
0.6005953,74.082306
0.621836,73.05926
0.53819346,71.89109
0.42977154,72.52588
0.43625608,70.296715
0.38978812,67.85339
0.3802591,71.08232
0.39387527,66.56912
0.35377485,63.067963
0.41826335,66.38921
0.41916007,62.514736
0.2272149,63.09046
0.41368088,62.516953
0.3479408,62.123
0.35960487,58.76257
0.30504298,59.454044
0.41675648,57.471245
0.3589532,59.083332
0.30222198,55.611465
0.2744193,56.56989
0.3062174,52.043015
0.24735865,53.84974
0.18307683,57.51973
0.20397653,54.931747
0.12691134,54.501514
0.12667437,59.668068
0.013295134,55.51636
-0.015661417,55.141262
-0.0977659,61.050316
0.009281956,62.10854
0.033359107,57.842487
0.068266466,57.538578
-0.07200936,57.600838
0.10008496,61.758465
0.16284809,67.393456
0.19478111,67.41279
0.31033906,66.325516
0.3664988,70.22599
0.42440185,66.932976
0.5490532,74.75062
0.5927441,75.157104
0.6588898,75.66484
0.74884707,78.69516
0.9074632,79.7874
0.9052135,83.71624
1.1079727,85.034744
1.1608188,85.56332
1.1476419,91.645905
1.2406641,95.22226
1.341881,94.47795
1.41672,93.524536
1.3242381,97.41791
1.3745095,98.8527
1.5086662,99.26493
1.3834229,98.36925
1.5233971,101.41441
1.4604884,100.647606
1.4923342,101.9335
1.4795673,102.24939
1.4709804,104.41606
1.4638343,103.98353
1.5353944,101.72349
1.429381,103.94792
1.4143763,104.932274
1.4477613,107.95149
1.4116423,104.07435
1.4023994,105.154045
1.3983829,107.2022
1.3674878,101.54941
1.2932365,102.56746
1.2335583,103.245964
1.2087356,101.82243
1.2459877,98.52801
1.195358,101.30785
1.162351,98.09705
1.1887875,94.82306
1.183278,94.843
1.1508242,94.90595
1.1629078,94.2171
1.1576977,92.97934
1.1408664,89.899704
1.0816598,89.872215
1.1173433,90.73993
1.0279452,87.68468
0.95035547,86.220215
1.1445229,85.53235
0.9696659,82.27966
1.0593848,83.49323
1.0112197,83.46398
0.9687999,81.41826
0.92642665,78.47271
0.9682178,74.6221
0.88565034,77.994354
0.84149134,74.145515
0.90534854,75.10201
0.8142982,73.20806
0.78721106,69.50285
0.7045414,70.51647
0.7424018,68.435036
0.7148714,68.53485
0.6611485,66.30428
0.66703045,69.475395
0.6122018,63.687912
0.6933579,64.71555
0.65889436,65.995094
0.5294638,63.276394
0.6444493,61.800034
0.64890665,61.297325
0.53420305,62.743443
0.6467088,60.18725
0.57236767,57.220577
0.58760655,56.67246
0.5350995,55.073345
0.5937651,52.514812
0.5195206,51.43343
0.43296123,58.01695
0.38158068,55.963135
0.54300976,56.718315
0.48954996,54.6957
0.45939884,57.410496
0.3566444,58.20565
0.32285395,57.15964
0.3227482,57.149754
0.2925623,56.239613
0.38708502,60.212635
0.34128952,58.679993
0.3650326,59.90956
0.36832315,59.251923
0.4018025,62.946926
0.56304157,67.31569
0.6843386,68.2554
0.77671736,66.42268
0.74442333,73.30597
0.8909671,72.83112
0.8965231,75.067604
0.99511284,79.70215
1.116612,80.88072
1.1179502,80.67151
1.2615043,83.93353
1.4212904,85.9218
1.5700405,87.90473
1.5288242,89.619774
1.6069275,94.34095
1.6752962,92.55403
1.7411271,97.35958
1.7491959,98.86123
1.8354876,96.75105
1.7856047,97.42852
1.8099027,102.9042
1.7447541,102.44118
1.8158038,98.21672
1.8180553,102.554474
1.7666699,104.02612
1.8119593,102.46738
1.8427579,105.29473
1.8739371,103.97946
1.8295373,103.451965
1.8385421,104.53577
1.7300711,104.54419
1.7585464,104.02541
1.7889771,104.928825
1.7784898,105.77858
1.680529,100.76139
1.6776109,102.25321
1.6992531,98.45458
1.5406872,101.75297
1.5066996,99.24046
1.6126207,94.32177
1.454694,95.32225
1.5532938,95.88676
1.5282879,95.95437
1.5045443,94.21762
1.511812,93.40211
1.5159844,92.17555
1.4590975,92.229225
1.4607311,88.02424
1.3872231,91.26867
1.4678714,88.717445
1.5084664,84.57647
1.3851606,84.9772
1.3444225,86.122604
1.3632922,78.130135
1.3508352,83.58097
1.2635901,81.421165
1.2932947,79.40586
1.235091,77.89512
1.1823645,79.776695
1.1714231,74.807236
1.0258447,73.08551
1.0679322,70.888115
1.0943241,72.30509
1.0428678,71.43375
0.91511875,68.46915
0.9084815,67.421814
1.0148611,70.16654
0.8949896,68.36806
0.82705086,62.318306
0.97746783,68.43828
0.7971351,63.532135
0.7904052,60.266647
0.902321,59.02526
0.81723994,61.82573
0.8921633,61.39733
0.93223745,60.560783
0.9562176,59.82194
0.8518009,57.937958
0.8862869,54.34506
0.8968401,56.567745
0.7208372,57.197132
0.6951195,52.535202
0.75927407,55.439297
0.6537597,55.02699
0.6571766,56.859905
0.7141575,54.515953
0.5432444,56.56622
0.62093693,57.041225
0.5978496,55.622852
0.5217625,59.0989
0.5402231,54.895565
0.5290962,61.802925
0.5380206,65.16724
0.63496673,61.848804
0.7220707,68.44421
0.75381625,64.56074
0.8756283,70.40106
0.95711803,70.156425
1.0680534,73.7101
1.0996321,73.054504
1.0868955,76.817856
1.2679515,80.17182
1.2977188,79.404884
1.4721922,81.68184
1.4679505,85.69331
1.5568647,85.823456
1.6475617,85.905205
1.676992,88.360664
1.7591486,89.159744
1.7621142,90.90615
1.8292254,93.85361
1.8460476,95.44331
1.8905481,98.21292
1.9258978,101.348724
1.9940189,103.1964
1.9851038,102.962776
2.0783567,100.586136
1.9861737,104.12212
2.0044541,101.901886
1.932617,106.76715
1.919919,102.2286
1.9134443,108.3233
1.9147288,103.760315
1.9390826,103.187675
1.9408548,101.13836
1.8619647,103.38981
1.8227042,105.55698
1.7859769,102.88969
1.734096,105.69005
1.8020056,104.64468
1.7510115,100.52075
1.6278591,102.635185
1.5935203,97.939995
1.5290936,100.88325
1.620069,97.129684
1.5550236,97.78238
1.5772496,91.227104
1.4873853,93.69794
1.4880126,91.08508
1.5117574,93.93932
1.5264271,89.58128
1.4965429,89.23837
1.5034225,88.62872
1.3946301,88.75632
1.4987671,86.56631
1.4449536,85.92173
1.3900192,82.57378
1.3444291,82.51396
1.2844585,79.53557
1.3206282,79.07846
1.2952936,79.11888
1.1541778,77.35973
1.1607699,76.4269
1.1514298,76.982
1.0221128,74.494705
0.9697656,73.62327
1.0497234,74.26314
0.91861475,68.92401
0.94279385,70.85694
0.90703124,65.32923
0.9056015,66.55987
0.8775073,62.40802
0.8882365,60.309254
0.78512996,62.691303
0.84568965,63.163948
0.8127611,60.857426
0.8188562,64.93512
0.8601632,58.557293
0.8943355,55.22942
0.78453445,58.39391
0.80952364,57.199345
0.74792296,55.17083
0.76488864,56.53828
0.64341325,54.77951
0.6780963,58.61389
0.6562437,56.500015
0.5417307,56.11298
0.574706,58.248867
0.5136515,54.14393
0.4792293,56.01359
0.4518257,57.359566
0.46357298,58.186195
0.29826856,60.10744
0.31119022,57.16087
0.5318583,58.807983
0.4392266,61.469257
0.4245092,58.80293
0.49443537,63.726154
0.5685256,64.38861
0.6823325,65.327736
0.6999076,71.54591
0.78331625,68.6378
0.75609505,69.9053
0.89993167,74.23425
1.1108984,78.662575
1.1052364,79.88549
1.1181281,78.73029
1.3323438,82.79011
1.2397281,85.49481
1.4711365,89.97503
1.468069,91.62724
1.5426455,89.93407
1.6455461,95.9675
1.6142075,95.02189
1.7197231,95.62138
1.7440679,98.98217
1.7537315,100.51618
1.7180312,101.486244
1.6962664,102.69095
1.6355977,100.82654
1.6652884,104.41957
1.7495896,101.06215
1.7811033,104.71474
1.7636541,107.7828
1.6220903,105.21863
1.7652476,105.13433
1.6308937,105.20456
1.6060123,107.4307
1.609604,106.61059
1.6786138,104.62001
1.4775635,107.525665
1.5292337,104.575325
1.4494557,101.55505
1.4530412,98.68004
1.4755316,106.77546
1.3159158,100.575584
1.3018684,99.11703
1.1888926,96.25425
1.3708949,95.7215
1.1883627,94.820114
1.2302188,91.34054
1.2262956,93.221794
1.1677959,90.14453
1.203225,89.91045
1.1898724,91.66572
1.1676216,91.75948
1.1463072,87.880226
1.049669,86.90879
1.0813001,82.2564
1.0705613,82.56174
1.1116861,83.912125
1.0506028,83.39984
1.0175695,80.93609
0.9247428,77.479065
0.87803954,76.30533
0.84394014,77.27731
0.9186358,75.873
0.76542014,77.23267
0.8086731,72.871994
0.7097035,72.88121
0.7446079,72.034485
0.6733374,69.12913
0.5371573,68.732994
0.6111833,67.306015
0.5868536,65.09341
0.6138383,65.14727
0.49726188,64.882744
0.571849,63.297802
0.58088946,62.740704
0.53391874,62.65764
0.49449116,58.115807
0.5174709,61.227097
0.43401608,56.419495
0.53294235,58.829178
0.4658329,55.86301
0.4328388,60.217644
0.40612486,55.588905
0.2804301,57.077263
0.29888684,54.0775
0.2595803,52.72844
0.2220892,55.103737
0.20738748,55.455936
0.1638276,54.689644
0.0935528,56.47707
0.06305433,54.01506
0.022191254,58.19914
-0.06405772,57.87756
0.13179794,60.481556
-0.015542833,55.100018
0.20771801,60.238674
0.19936633,60.304802
0.23119552,64.287125
0.2714328,65.98641
0.2865361,68.71127
0.36881107,70.86221
0.42418262,72.97107
0.536034,72.41603
0.70568234,77.42491
0.7275001,76.085144
0.833222,78.74239
0.9036334,78.719124
1.0236877,86.44092
1.1171119,84.649734
1.0808316,84.221634
1.1546973,87.50221
1.2565123,94.25113
1.2569091,92.70791
1.2916659,94.50082
1.2221546,94.24197
1.3920991,96.4392
1.421392,96.98458
1.4841883,99.59445
1.3516532,99.68887
1.4012707,101.60305
1.4015912,102.932175
1.4633114,100.174805
1.5038192,103.50037
1.416237,105.17956
1.4078591,106.66042
1.3796887,104.51877
1.3796492,105.309364
1.2560388,102.96847
1.30368,102.56663
1.3295047,105.85224
1.2672056,101.52722
1.207509,102.94663
1.2069422,101.702255
1.1919858,99.075294
1.1112057,97.41636
1.0583025,96.64691
0.9616393,98.17089
1.186452,98.843025
1.0115569,95.77592
1.04771,96.49388
0.8891734,93.49201
0.9569272,95.17874
0.9403959,92.02667
0.9245238,89.144615
0.99879897,89.416985
0.89689463,86.39662
0.82918763,89.005356
0.76489055,85.81828
0.82028586,86.4426
0.91348404,85.60251
0.780155,80.8755
0.81459415,75.932205
0.8476916,81.513756
0.6949305,77.909645
0.75598097,77.80805
0.64816296,78.647545
0.5173171,76.6788
0.49520797,74.47919
0.5477383,71.72214
0.52178997,73.10529
0.4477132,71.45421
0.37166083,70.43614
0.5074539,71.94296
0.39700294,69.4331
0.2789427,64.703804
0.34641486,64.6008
0.39017594,66.01264
0.37152633,64.25578
0.3514238,62.68538
0.38399774,59.959995
0.28304687,61.197384
0.25091568,60.218273
0.23466006,55.275642
0.2571113,56.338165
0.30043927,56.839943
0.19076039,55.95677
0.18888126,54.57027
0.17802005,55.50941
0.23336883,55.367188
0.25101557,57.867695
0.13459893,55.573605
0.10568705,56.481766
0.011949608,56.54411
0.034791548,53.95781
-0.038020615,56.957863
0.0019350483,56.496387
0.012146629,60.18525
-0.08018868,59.78538
-0.007955572,60.523945
0.0018593024,62.537464
0.03820447,61.447807
0.1474958,64.402306
0.13203308,64.43765
0.17619017,66.23674
0.3398263,71.17254
0.3935235,73.59677
0.36863825,73.37205
0.47792637,77.995865
0.6872054,76.37791
0.74979293,79.24793
0.96280354,80.74671
0.99284875,85.47135
0.95813006,83.75863
1.0677115,82.42683
1.0744052,88.29308
1.2627345,91.10908
1.172472,93.52879
1.2443863,92.446945
1.3273767,97.65149
1.3456411,98.519104
1.3011856,101.1827
1.4127091,103.1804
1.3951464,102.370384
1.4555277,99.06612
1.3450484,103.1187
1.4588208,105.46671
1.4442912,103.17918
1.2997553,104.80189
1.3427386,104.9731
1.391559,104.83153
1.3378098,105.876625
1.2652086,105.24548
1.2982581,103.96824
1.2238855,101.122986
1.2717963,103.80818
1.2106934,103.1241
1.2961859,102.38372
1.179732,101.613686
1.2212176,101.95078
1.1697593,98.09288
1.1133279,101.2827
1.0803394,95.79429
1.1000655,96.58698
1.077727,97.76074
1.0588373,92.72358
1.0516541,94.89599
1.1595051,90.37596
1.0416398,89.90129
0.9472246,88.42456
0.9596648,90.67721
1.0007885,86.09624
0.93884593,87.97389
0.9762943,83.37852
0.894082,82.49415
0.98082477,80.90436
0.81765676,81.56777
0.85347253,79.91859
0.8124691,75.280876
0.8173713,76.764694
0.7267982,76.72724
0.79816025,77.74297
0.7521613,77.68026
0.70113677,71.818016
0.6682812,70.41591
0.6640552,70.00284
0.6250857,68.92643
0.61103326,68.50974
0.50748533,67.15306
0.5096446,62.082756
0.6596314,64.12302
0.5603804,66.18728
0.428101,64.80243
0.49686605,62.53567
0.58843434,61.369347
0.5554656,60.74036
0.544724,56.5195
0.49854597,55.943398
0.47374758,57.714897
0.46556672,56.465225
0.49586892,56.585392
0.36787528,56.3179
0.37574223,57.496876
0.36647913,54.086117
0.35371852,53.321518
0.3852702,54.00519
0.40014648,54.957573
0.23148678,55.917374
0.28512245,56.286633
0.15553759,56.797348
0.24654083,57.155064
0.16997294,58.57382
0.17319615,55.17598
0.18203527,61.671486
0.27955094,59.826805
0.29599506,62.405796
0.33627063,62.00195
0.48915848,66.07767
0.536103,69.147285
0.59419334,72.32678
0.6531765,69.60004
0.76922154,74.76756
0.88504577,76.72675
0.98681253,78.0862
1.0506724,81.01768
1.1073862,81.61088
1.2298211,82.83291
1.2421882,84.77902
1.3922179,88.851906
1.43518,91.37673
1.5253122,91.44294
1.5333667,91.28237
1.5517802,93.92861
1.6583229,97.27231
1.6872461,97.79335
1.7211735,97.69991
1.6593801,103.15577
1.7765615,103.59721
1.6828389,100.485016
1.667719,107.119125
1.7390497,106.20469
1.6685889,100.907265
1.7832198,108.547104
1.7812469,102.02231
1.679075,105.75621
1.6290332,105.62796
1.6704235,104.72066
1.6100001,103.65239
1.5892439,103.909546
1.5455511,104.03854
1.5461073,107.19275
1.51103,99.17647
1.4300686,99.88911
1.4700725,98.928665
1.4294739,103.556946
1.4162644,96.53543
1.4474308,96.41248
1.4057113,95.45522
1.4161551,95.75206
1.4064106,92.211876
1.4030051,94.10461
1.3264515,93.268196
1.4210798,93.276215
1.4089732,90.6723
1.3282998,87.79553
1.3143498,87.627884
1.2575468,82.945755
1.3968072,81.64407
1.311428,81.439514
1.2352183,86.34945
1.2675136,81.86881
1.2220196,79.05759
1.110303,79.99275
1.1231059,73.56115
1.1670754,76.18205
1.1216424,76.71544
1.0158299,69.011375
1.0547007,74.64354
0.9725052,69.58226
0.8589071,69.25097
0.92301035,68.30294
0.77193433,71.33243
0.904808,70.60208
0.801635,67.94878
0.846557,63.948746
0.8084121,65.47866
0.8305936,62.732403
0.7675041,63.368305
0.87479293,60.94806
0.8817081,58.42723
0.779653,57.39107
0.8655055,53.5595
0.7880351,57.567997
0.7593065,57.86929
0.79310304,55.36774
0.68600166,51.71921
0.7029332,55.43489
0.7365404,55.70622
0.63829,54.446625
0.55852103,55.98339
0.61860037,55.58702
0.6272711,55.78642
0.59181833,55.316235
0.57126325,56.734303
0.5320586,56.259716
0.48714903,59.788998
0.55673206,61.981117
0.5763913,59.13368
0.6301422,65.1366
0.693791,64.77074
0.6402116,64.621185
0.73615426,68.07814
0.82236093,71.93437
0.85593987,71.12923
1.0019529,73.5275
1.1308486,74.92277
1.0977899,77.60113
1.194064,81.11104
1.4302422,81.540405
1.4965936,82.59853
1.5329545,83.90393
1.505729,87.294136
1.7425425,87.90941
1.7814732,92.776405
1.7998332,93.78247
1.8137128,93.61802
1.8127573,91.67877
1.8298757,94.66013
1.9606004,97.41135
1.9361683,101.03029
1.8898295,95.91829
1.8982406,102.52578
2.018145,100.812836
1.9136015,100.98666
1.9458716,103.95056
1.9327669,105.81023
1.9634147,105.29893
1.8942962,104.40558
1.9929835,103.44428
1.951126,101.81945
1.8860029,107.446
1.9209659,103.14524
1.7545408,103.54938
1.8221279,102.0925
1.7889045,102.879036
1.8204341,100.47907
1.66149,101.1235
1.7332247,99.8855
1.5308814,93.27286
1.6800032,101.63669
1.6011634,96.11576
1.513904,95.2147
1.4954252,95.725945
1.4865658,97.235016
1.5685056,92.16099
1.5339532,90.00028
1.5415823,89.5729
1.4836605,85.10752
1.482619,85.20458
1.5545588,90.43786
1.4621983,86.931244
1.4721324,83.148994
1.3485188,82.27655
1.364025,80.264984
1.381081,84.565735
1.3333832,80.21735
1.2428303,78.89018
1.2069421,75.466774
1.1708713,75.26097
1.1614745,75.11734
1.1331183,74.0618
1.0751725,72.784355
1.0770799,71.170456
1.0603652,65.7842
1.0055653,69.735054
0.9957435,66.25785
0.91143197,67.208885
1.0073835,64.51465
0.9702924,64.0124
0.98000455,64.33602
0.83363116,62.97635
1.0003895,59.626953
1.0066913,61.76272
0.8812479,60.149685
0.9289175,57.55517
0.8449019,59.774567
0.91363406,55.598465
0.78397,57.144585
0.7949124,57.794617
0.7902707,51.653305
0.8191202,60.13503
0.6666604,54.702995
0.71543986,55.22421
0.6290799,54.114494
0.6214454,54.68936
0.598093,53.512203
0.53211695,56.523617
0.43306208,59.001842
0.46392152,57.160946
0.38528228,57.28456
0.45717233,60.398144
0.56852317,60.667866
0.5717575,61.158115
0.56713986,65.10197
0.64405257,66.94124
0.80019164,66.441864
0.7155423,68.19591
0.8599107,69.71388
0.92923224,74.02763
1.1033987,72.375336
1.1174082,77.645874
1.2386385,79.64738
1.3476689,79.8239
1.4065869,83.555855
1.4305239,85.98164
1.5307099,88.23748
1.618643,87.10098
1.6692483,92.81236
1.7233297,94.98453
1.802837,93.42048
1.7831368,97.09974
1.7837905,98.9209
1.766613,97.477646
1.8683972,102.52095
1.8557268,98.88257
1.8135152,103.848785
1.8525567,102.546745
1.6666216,105.77653
1.9658533,103.72666
1.8720105,103.25459
1.7881184,105.878105
1.7523551,102.656784
1.8598942,100.60436
1.7192392,102.18742
1.8035611,105.818924
1.7176234,106.12171
1.7152953,102.770164
1.643654,100.007675
1.6644882,101.72573
1.5473101,99.08756
1.4783053,98.89742
1.5341059,100.37367
1.4775622,101.58579
1.4140142,95.92108
1.4037373,97.26705
1.4200636,95.42183
1.3509704,92.70379
1.3170928,93.72773
1.4956812,93.52415
1.3377134,86.27927
1.2395742,87.00666
1.3067523,86.18386
1.2912678,87.640594
1.2334412,84.61734
1.2183889,84.65729
1.28815,87.033195
1.2437733,84.12499
1.1106076,80.001434
1.1944042,78.82527
1.123721,78.457085
1.0537776,76.19881
0.9879036,76.56457
0.9842936,75.24397
0.9357061,74.56967
0.8984862,72.006874
0.90242255,70.33643
0.7473995,68.09357
0.6611001,70.7412
0.73032767,71.39176
0.7223481,69.01018
0.7026544,64.56134
0.5861889,64.15133
0.73807955,65.61864
0.5953748,62.2971
0.7069528,63.003166
0.69164175,63.64138
0.6110538,58.621838
0.6579855,60.158646
0.6036014,58.5499
0.5837158,57.877148
0.4673777,57.29391
0.6161114,58.579136
0.50135845,55.72759
0.42504513,56.102024
0.39806685,52.286648
0.3836677,51.868893
0.3817658,52.41216
0.3723305,56.124355
0.26326692,55.441475
0.30236393,54.213654
0.22719365,57.102882
0.25941485,56.54946
0.19585367,58.4904
0.20651814,61.319443
0.15643778,57.819904
0.17635977,58.287968
0.2622595,63.279694
0.28201684,62.843212
0.3146616,69.720634
0.43865353,64.34602
0.37244168,68.584755
0.6245402,73.78324
0.6896421,75.9949
0.7013523,74.77788
0.9078901,81.33913
0.8505811,79.525185
1.045293,80.69443
1.1554295,83.74668
1.1796067,84.07567
1.2891351,84.89101
1.2296956,85.24208
1.2991837,92.92651
1.4545308,95.543816
1.442413,100.06871
1.3271704,96.01628
1.50047,98.669624
1.4784654,101.323296
1.4387999,101.31158
1.4761953,105.99078
1.6282037,102.44997
1.5363593,102.354454
1.4971579,106.23694
1.4735352,107.476364
1.4671571,103.58285
1.4641644,107.70496
1.4850746,104.625336
1.4889538,102.14598
1.503037,102.83272
1.5071359,106.33287
1.3458834,106.76065
1.2970303,104.00612
1.3086734,101.12658
1.152859,103.434944
1.2047513,97.17545
1.2430638,101.0432
1.1037768,97.85604
1.1065769,102.76725
1.1112441,99.0998
0.9886846,94.58765
1.0858243,93.143364
0.96399814,95.34412
0.98853743,92.51708
0.9606813,91.03452
1.1045946,90.877975
0.94777346,90.23176
0.8797547,88.59007
1.0067505,84.162056
0.86366343,85.00286
0.8473932,85.77646
0.9479138,86.08529
0.8641544,81.27617
0.856207,81.93782
0.8089867,79.07186
0.75865424,83.19596
0.7857899,75.55132
0.61181056,76.96339
0.64163095,74.89819
0.5725002,72.93092
0.5736419,73.78564
0.5775589,74.54263
0.46835062,69.60155
0.43629363,69.89295
0.37184793,66.58826
0.35784644,67.06609
0.44672197,66.98297
0.3275551,65.07111
0.395667,65.59556
0.3735004,63.467007
0.2789291,65.10383
0.40865272,62.932285
0.47074503,61.611904
0.24831577,59.98249
0.3637468,60.388386
0.24994871,53.54802
0.28315192,54.180683
0.24200323,58.407528
0.3161469,58.8609
0.20953567,54.868134
0.16164407,50.178627
0.07170832,55.26402
0.08729239,51.55816
0.12552235,57.268215
0.033644006,57.509476
0.002061976,55.577194
-0.045043617,56.96776
-0.036197603,58.149628
-0.11822771,57.838017
-0.08300998,58.62864
0.16341022,60.929005
0.08013224,62.169353
0.020257683,61.090176
0.03831501,62.86619
0.14456664,63.974854
0.19060874,67.18307
0.37267405,70.6804
0.4134957,73.97233
0.3899851,73.96667
0.5729844,73.85701
0.7160573,78.31988
0.7387408,79.33094
0.8549031,81.86898
0.94308317,85.5878
0.9650983,88.40741
1.0152727,89.358826
1.1088752,92.83283
1.158241,90.95689
1.1914263,91.356735
1.2231604,93.19407
1.2288722,98.285774
1.3268732,95.21946
1.3911506,99.63447
1.3418183,103.64412
1.3620439,103.38301
1.4201003,105.62146
1.3017104,103.0629
1.4112138,104.451195
1.3162663,103.31163
1.4266362,103.95794
1.3271649,103.37615
1.4283653,105.86711
1.2869385,107.40088
1.2511967,101.727356
1.3103077,100.554405
1.3528473,102.468376
1.2603668,101.78851
1.2110852,103.44165
1.1138803,100.66958
1.1351207,98.7477
1.0771059,98.90616
1.025464,97.97611
1.0367802,96.11129
1.0375162,95.110176
1.0400547,95.00229
1.0027494,93.92618
0.9745717,93.405464
0.91513,92.79653
0.95766836,88.29785
0.8640437,88.898544
0.94448715,88.54606
0.92041016,88.72219
0.9241856,87.04544
0.8778739,87.15049
0.9230443,87.71037
0.8802063,81.48852
0.87120086,80.9758
0.7379059,80.720634
0.8410489,78.64934
0.7611857,78.00387
0.8093154,80.480064
0.6748863,74.9409
0.6388998,74.71336
0.65692985,75.77426
0.5330126,71.0631
0.49362686,73.65402
0.50381553,69.50715
0.48891017,71.57404
0.5020284,66.9209
0.36059475,64.934364
0.35049278,63.99998
0.5349667,67.231094
0.42011443,65.87794
0.4318683,60.736317
0.4870647,64.929985
0.47973526,58.279808
0.41639802,58.997334
0.37728152,63.464443
0.4679117,56.899742
0.39062995,57.71305
0.55098486,54.55014
0.42672563,57.144997
0.32123244,60.04917
0.300731,53.662853
0.2808529,55.314224
0.18059567,52.364655
0.21303016,52.724957
0.1609653,55.72212
0.11407794,52.972305
0.07326104,55.22507
0.09106119,58.30192
0.10818726,55.127514
0.081467405,57.382225
0.09605007,60.720562
0.13342477,59.533237
0.19322553,60.7209
0.22584888,62.377792
0.27538162,64.7635
0.3542862,65.871284
0.41831166,68.305435
0.5417635,74.47829
0.6139591,73.657745
0.577566,73.19211
0.71306497,79.69119
0.84030277,82.43202
1.0236447,79.38408
1.0853497,82.05444
1.0908724,84.13442
1.2142626,81.75663
1.4225494,89.79985
1.3744192,90.98166
1.4271171,93.80058
1.3444767,94.63717
1.461882,96.04236
1.5162199,96.18783
1.591365,100.96307
1.5753032,96.82714
1.6678362,102.07075
1.5987189,103.48148
1.5470538,105.348114
1.6045264,101.301056
1.605346,104.60148
1.6560253,106.31556
1.7256684,104.51846
1.6430264,106.993645
1.6913671,107.384056
1.5838804,107.05444
1.5054528,105.42135
1.4866307,101.12561
1.5504813,104.07367
1.360897,102.9695
1.3883154,102.249535
1.4992354,101.92628
1.395952,100.18668
1.3770163,98.764084
1.2529655,96.4959
1.4038283,95.86684
1.2912637,97.485245
1.2496924,91.81096
1.2918551,89.54769
1.1758323,91.02474
1.2337147,95.41452
1.2095345,93.76118
1.2164085,91.858154
1.219587,90.3961
1.2702111,88.154854
1.2340199,88.02354
1.2285848,85.0659
1.269024,82.926834
1.0370717,85.27002
1.1605399,82.34211
1.1828544,81.84302
1.1626642,78.852295
1.0642506,78.98232
1.0041524,76.80989
1.0110829,76.89353
0.98855096,74.51382
0.97316104,77.42895
0.85050106,69.144104
0.8491623,72.23142
0.85984397,74.041626
0.76152015,68.02351
0.78412914,72.47586
0.7293941,67.02843
0.8395316,63.61293
0.7443111,62.34177
0.7985909,64.13869
0.76176935,60.849613
0.746808,61.351925
0.82972485,60.560623
0.6898413,56.83577
0.8182757,56.861748
0.89170194,57.904125
0.6249384,55.38545
0.7819951,60.97183
0.6158365,56.64499
0.7156722,55.495014
0.5954152,57.640186
0.5718748,56.272617
0.53919685,54.62562
0.56628644,56.310196
0.49932146,58.23686
0.47706753,55.745323
0.44481903,55.537167
0.40553582,53.33719
0.45672455,54.757023
0.42740086,56.473507
0.4202671,61.02751
0.45269603,63.101444
0.49389914,62.181793
0.47147936,65.28842
0.61558163,67.84365
0.6772066,69.180176
0.74655086,69.115395
0.838721,71.17665
1.0176005,70.49895
0.9430524,74.28419
1.1221718,77.20977
1.22967,77.18116
1.3529168,80.49768
1.4314353,82.83855
1.4735944,86.35685
1.5756786,86.003044
1.5726362,87.59978
1.6614952,92.276566
1.8033081,95.13609
1.7891785,93.944214
1.8856952,97.36552
1.778575,99.992584
1.864044,101.311295
1.9311669,99.77514
1.9646738,101.13726
1.8761421,101.04231
1.8600196,103.36089
1.8154384,106.61412
1.869623,102.619736
1.885763,103.45682
1.9265082,105.062065
1.8643918,104.24393
1.8315603,105.23999
1.8510299,105.53697
1.9033015,102.711205
1.7452893,102.07343
1.8365153,104.7806
1.8370689,101.18426
1.7080145,101.10736
1.5953882,105.608795
1.6918285,101.91238
1.6538147,97.855316
1.704471,97.558624
1.6245992,95.98472
1.6782367,97.214264
1.6104558,95.75132
1.4872026,94.62453
1.5491612,91.25452
1.4656559,92.761055
1.5763156,92.68946
1.6140273,89.53362
1.3414354,87.59652
1.5479542,86.55231
1.3689066,86.33879
1.4429423,81.47981
1.4986112,86.002594
1.456177,84.5495
1.4464571,81.45132
1.3485755,80.60332
1.3682164,80.65681
1.3362148,79.67671
1.2135156,75.538185
1.1755687,77.84094
1.0627772,77.28605
1.2216171,76.48781
1.0739571,69.577446
1.0798674,69.32511
1.0779425,72.6424
0.96571654,70.80351
0.93097454,68.661
0.9581469,62.585644
0.96190435,65.758484
0.94174796,62.671364
0.8484207,62.464783
0.93032426,60.96896
0.9452044,64.00336
0.9724508,60.970776
0.8811694,57.882347
0.9227057,56.67834
0.970394,60.094646
0.96685827,54.575356
0.6259234,55.035202
0.9192391,55.227837
0.81875664,53.756016
0.8281218,55.056
0.7421765,52.724663
0.6611088,52.54614
0.5833018,55.270046
0.5701388,51.612648
0.63393676,56.114567
0.5824003,54.881786
0.54782903,57.219097
0.58542824,58.43504
0.55067194,59.11837
0.56050783,60.179028
0.63173676,60.866093
0.53903764,62.14628
0.62387276,66.3645
0.7185741,64.994865
0.8080243,66.953545
0.90175295,68.8131
0.934112,71.18178
1.1082802,71.79489
1.0874184,75.98184
1.1617109,75.18311
1.1878726,82.054184
1.4904761,81.60291
1.3591266,85.55632
1.553619,86.341965
1.5981777,85.42032
1.6772584,90.64869
1.7575881,94.75392
1.7241743,92.74612
1.8231664,97.542595
1.7076973,95.78131
1.8568655,98.32899
1.8895637,98.236595
1.834174,101.704506
1.9025567,99.0119
1.9554358,101.93158
1.9973221,99.450516
1.9394635,102.8886
1.8788127,105.74897
1.842272,104.711494
1.8820064,108.56834
1.811955,104.40898
1.8140078,106.2194
1.8558699,106.05909
1.8227452,102.9786
1.8191029,100.85789
1.845734,101.86508
1.7217731,102.98153
1.5809033,102.116905
1.6454448,104.87741
1.5407362,99.6224
1.5079211,98.37473
1.6165293,99.48337
1.5662252,97.82405
1.5693233,94.285515
1.5603213,90.53327
1.3881413,95.879265
1.4386383,93.4493
1.3391457,91.06012
1.4479432,90.11065
1.425171,90.07504
1.3969988,87.94861
1.3610134,87.21162
1.3300564,86.890434
1.3100034,85.220665
1.2624737,83.89476
1.2882298,82.83324
1.2010227,79.220505
1.1762016,80.747246
1.1143717,76.011955
1.1663111,81.34383
1.1327373,78.25058
1.1656488,80.12599
0.89272493,74.60218
0.9637898,75.40825
0.8718152,69.706
0.93265283,69.725494
0.872179,67.25953
0.823332,67.57809
0.7496977,69.524284
0.76605624,64.2577
0.6902241,66.65198
0.75650394,63.412575
0.7365189,66.01328
0.77760065,63.792946
0.7409323,61.17369
0.7102663,58.83757
0.71013457,57.91602
0.72845,56.639923
0.5865866,54.394234
0.6238919,57.650723
0.70864993,54.00412
0.6102435,52.102898
0.6284562,54.07847
0.5312649,55.566334
0.5386228,51.026047
0.44131443,56.784763
0.40017974,55.924088
0.378429,56.652473
0.33580863,55.236958
0.3997898,56.53881
0.29866078,58.227116
0.24924096,60.185802
0.25070247,61.092484
0.25394928,61.13244
0.33600894,64.3765
0.32324535,62.73202
0.4594857,65.92355
0.43725216,65.05779
0.52534974,66.63392
0.5897117,65.69199
0.7543896,72.09136
0.8347217,75.44482
0.92857814,76.12444
1.0062888,75.47106
1.0136323,81.97247
1.0410715,82.52999
1.2550911,84.23703
1.3236264,84.28534
1.3228275,85.5506
1.3245202,88.45779
1.4672476,93.22161
1.493459,93.733116
1.4776664,96.65178
1.4967246,101.79207
1.621315,99.49899
1.6442916,99.07757
1.5769532,102.495636
1.5358092,100.52971
1.5740923,101.51967
1.686157,101.11207
1.6641299,102.72115
1.5747844,105.36718
1.5175331,104.362724
1.7029275,105.39596
1.5697458,106.24377
1.464139,103.95578
1.4806424,105.16088
1.5091534,102.53505
1.4751006,102.94053
1.3813635,103.84212
1.3953563,102.086754
1.2570988,103.394356
1.339071,99.61355
1.3534446,102.22459
1.2319282,100.39608
1.1235601,97.98195
1.1414623,98.15014
1.1326946,97.00894
1.1405742,93.921394
1.0458481,91.552345
1.066551,90.215034
1.1466459,93.81336
1.1175045,89.93376
1.0418212,87.79473
1.121767,87.81457
0.9913232,86.69599
0.97086453,84.24459
0.9735371,83.855385
0.9800546,81.90234
0.9933213,85.99676
0.8679886,82.25904
0.87454593,81.56145
0.8355389,80.127975
0.76749814,78.3117
0.6662187,78.649445
0.70990276,75.966034
0.6986442,73.3305
0.5980529,70.58099
0.5452097,70.112076
0.48098928,71.98761
0.45658967,74.11566
0.52473235,67.191574
0.44323644,67.54884
0.4755358,66.64636
0.52872896,68.531395
0.45773447,65.04204
0.47745672,58.809204
0.5139117,60.463623
0.40956882,59.458374
0.45406374,62.757366
0.4148101,56.116116
0.33056518,60.12327
0.384055,58.479717
0.42142063,56.457905
0.34637457,55.4366
0.307539,57.70464
0.1848723,55.637676
0.13960795,54.154972
0.120275885,52.794666
0.17857634,56.51777
0.11237222,54.660213
0.028213443,56.30903
-0.008723354,60.057636
0.04512291,54.485233
0.042536516,57.847008
0.012484681,56.534397
0.030069668,62.096115
0.018432638,57.851166
0.16004038,64.48944
0.02584772,62.86985
0.19808383,63.721954
0.23824905,69.02858
0.34218878,67.73571
0.32298693,70.24239
0.38462174,74.782326
0.38314974,71.531334
0.66938853,75.30999
0.70365006,75.99668
0.7815959,83.64519
0.8590541,84.66024
0.9525221,85.92579
1.0025357,87.1087
1.1227392,88.85604
1.1191442,92.010155
1.0830927,88.42276
1.217748,93.63369
1.2111087,94.8865
1.3417772,99.40332
1.3482999,101.320015
1.380428,96.562775
1.3319882,101.77167
1.2801989,101.871544
1.367147,100.30057
1.3457725,101.015205
1.3081808,102.91512
1.3551217,106.49827
1.2782941,103.56912
1.3946072,106.15921
1.3272536,108.562614
1.4435052,102.29344
1.297926,104.142715
1.2766922,103.21627
1.2328169,105.40149
1.2167293,102.29075
1.1933677,99.59648
1.2154945,104.27527
1.1273564,100.41966
1.1102223,98.88552
1.0453316,99.878944
1.072035,99.452484
1.0984308,93.99688
1.045476,92.69265
0.9175935,95.12909
0.9676096,88.04213
1.0061061,88.60204
0.93253446,93.73005
0.9000346,90.80792
0.9886068,90.072334
0.84968996,88.324005
0.8597731,84.91737
0.7816501,85.79704
0.891111,80.66452
0.7488684,79.48558
0.8897432,80.564064
0.7063729,79.41716
0.7507402,79.406906
0.66330326,79.160324
0.56962204,77.67867
0.63375586,77.02375
0.55129355,74.91278
0.4283282,75.22213
0.56699,69.37858
0.43569222,72.126076
0.4246994,74.012535
0.5690834,66.80433
0.27606726,68.32016
0.35464814,66.65419
0.40356317,67.36501
0.51787734,66.200966
0.34046012,63.18582
0.410636,62.813976
0.35562193,62.68602
0.26020342,59.395
0.3381426,59.5638
0.35859305,59.734604
0.32555103,54.010426
0.28944996,57.83347
0.3319419,57.358624
0.28200716,58.884254
0.27305138,52.892403
0.20855828,58.60602
0.16349955,56.241432
0.17870373,53.214912
0.14554788,52.050423
0.07993713,58.073853
0.063437626,54.527153
0.13559338,57.979225
-0.026021488,54.515827
0.05414589,59.6022
0.07427685,59.84726
0.11388923,61.753067
-0.023165796,60.56363
0.07501587,62.061943
0.09637024,62.07916
0.14651778,65.101204
0.2770472,66.45956
0.28162608,67.02735
0.4373522,70.928024
0.5278507,72.72249
0.5447019,77.804245
0.68137753,74.01858
0.7291921,79.691444
0.99002546,82.33871
0.96686023,85.09291
1.1072785,88.22686
1.0646669,88.6908
1.1675911,89.01174
1.2373815,90.00441
1.2880256,87.50848
1.4088882,94.534935
1.3562372,97.51478
1.3831459,98.94057
1.4715908,101.73189
1.5499227,98.938
1.4533938,102.65462
1.5558825,101.586266
1.5085499,103.73552
1.5588273,107.473
1.5196342,107.92272
1.4899316,108.079
1.53642,105.88434
1.5157633,106.43034
1.4226526,107.56599
1.4482263,103.88525
1.477715,105.35035
1.4049425,103.23207
1.4249144,106.6031
1.3962857,106.4649
1.4475428,100.636024
1.3167834,104.94601
1.3453119,100.70429
1.2585443,99.262695
1.2705406,97.717125
1.226169,97.39216
1.1898507,99.76375
1.1327413,93.758255
1.1463407,95.094315
1.1377449,92.53397
1.1683875,89.856705
1.1419121,90.78497
1.1061189,90.71431
1.1491262,88.114815
1.1452588,89.0423
1.1547556,88.76338
1.0244395,84.66301
1.0739582,85.49024
1.0197736,82.914055
1.0741457,82.74399
0.9686671,76.41529
0.895504,78.42476
0.947351,78.273605
0.9049904,76.286835
0.8451421,76.8738
0.79622865,76.7285
0.8276552,78.16455
0.730808,71.86097
0.7261207,72.16605
0.75661325,72.00341
0.6749599,72.69571
0.70808136,65.7909
0.6610669,66.76617
0.6603868,68.90018
0.6637812,63.94597
0.59157985,67.157036
0.6011602,64.17468
0.69410944,60.54941
0.62041783,58.995537
0.6483681,58.05583
0.65922385,62.08376
0.648153,57.646324
0.6847159,55.475895
0.5451989,58.253456
0.53701943,59.852028
0.5622152,57.599537
0.47018597,50.67421
0.5052641,56.245358
0.5410639,56.62148
0.43935394,54.021927
0.47130364,53.518433
0.36162004,54.707508
0.32911205,56.50038
0.35892156,60.600285
0.27213916,55.56881
0.2448,61.215797
0.29521343,58.076145
0.2516238,65.30512
0.39926067,63.503906
0.37818956,63.796803
0.5335082,64.19458
0.6300125,64.103455
0.6972792,66.47752
0.8453175,69.22272
0.90490294,74.07165
0.9678111,76.03777
1.0156137,78.86808
1.1398429,74.92526
1.119998,83.817444
1.2740766,87.073524
1.3471189,85.808365
1.5322199,85.552
1.5015415,86.55742
1.5992165,89.81535
1.6592213,90.21683
1.6316493,91.74388
1.7807981,98.005486
1.6628954,101.44815
1.8456401,96.140854
1.8369188,97.2391
1.8992102,103.06635
1.8632232,102.25409
1.8063108,105.65111
1.8630152,102.53401
1.7986075,104.78221
1.7807232,103.82689
1.8901937,107.48755
1.8940481,107.35671
1.7840906,103.085625
1.7366232,103.09724
1.8019849,106.027664
1.7613007,103.925026
1.6626124,102.04783
1.6668953,99.760376
1.6325693,99.994514
1.6009903,97.88562
1.5013881,98.97349
1.5355879,96.6374
1.4757308,102.61151
1.6206586,94.69163
1.4879987,94.16473
1.4784156,97.39217
1.3683795,91.85817
1.4875004,93.74699
1.4113925,93.51164
1.4019821,89.768326
1.4801847,90.12391
1.3894595,91.623566
1.4767947,89.466965
1.4370162,87.85769
1.4353355,84.390366
1.4147936,82.72894
1.3907173,80.63405
1.3699504,79.70688
1.2863859,80.46875
1.1841806,74.710495
1.2394542,82.16802
1.2756243,78.183105
1.0969193,76.38709
1.1562095,75.65722
1.132706,73.774704
1.0899576,70.06393
0.94549114,70.31045
0.95367336,67.61565
0.8139597,69.05731
0.8308318,67.23878
0.96077746,64.78557
0.8479504,63.839413
0.8477404,67.103905
0.9571308,64.70091
0.896874,64.74651
0.8901894,60.57048
1.0254202,58.91937
0.8310588,56.982773
0.8699391,59.50748
0.94825166,56.641495
0.9004467,56.58805
0.80220973,56.35666
0.763773,53.550514
0.83385813,54.33933
0.7720226,59.19341
0.6996113,54.275036
0.6453363,52.466705
0.6603783,53.533554
0.72201246,52.496994
0.56488264,52.31413
0.5753257,54.476517
0.59404397,57.222652
0.43407175,58.51243
0.5170403,62.79813
0.54935116,59.827885
0.57454014,59.24209
0.6461118,63.91404
0.7506728,63.76488
0.7158717,64.55543
0.75652593,65.60267
0.9455827,71.726906
0.97001904,69.934715
1.0591129,73.85997
1.0782915,76.01509
1.2274835,80.10288
1.2610586,77.989426
1.4303786,80.50599
1.5740573,81.07581
1.5133262,86.972046
1.554634,85.41217
1.7089849,90.4446
1.8342761,90.84212
1.840735,94.963684
1.8993628,93.821396
1.875971,98.60275
1.8368946,99.84659
1.9899634,99.65973
1.871508,103.594
1.9346535,102.15778
1.979511,99.76727
2.0180843,101.53342
1.9307337,104.078865
1.863113,104.121994
2.0284517,103.63115
1.9880434,104.10389
1.7506413,101.541664
1.9671795,105.3049
1.8320733,101.70177
1.8447031,97.68471
1.7321929,103.06858
1.7701739,102.88043
1.7574266,98.43697
1.7242512,98.67601
1.6457291,103.587814
1.6310971,99.01144
1.7515936,101.56414
1.5974933,94.89135
1.5684133,98.03949
1.5407711,95.03544
1.5711744,96.894295
1.5402403,87.10027
1.4885224,92.26086
1.3441768,90.26132
1.5341603,89.84137
1.3722073,87.283104
1.4523692,87.133316
1.4261304,85.1613
1.4173688,88.02559
1.397075,84.53506
1.3829789,81.14156
1.4266467,81.382286
1.3297328,83.097626
1.3848549,80.92985
1.2599524,76.538704
1.2431428,79.524734
1.1867582,75.367905
1.1585678,74.232414
1.0704935,74.7985
0.9923013,75.86173
1.0382695,74.632385
0.884234,69.41554
0.8705245,70.71949
0.8563735,67.55749
0.97329646,66.54988
0.7688343,62.331173
0.8309118,71.64084
0.80807215,63.60666
0.906861,65.19001
0.9141475,65.15316
0.7758487,63.688248
0.7871251,60.911526
0.81853163,60.752174
0.8212143,60.608448
0.77964705,58.095898
0.7735778,57.130302
0.7361111,56.842827
0.75259465,54.359154
0.6593063,56.00066
0.6337732,56.9482
0.62326247,55.496082
0.5702542,53.874172
0.4967027,53.08167
0.50586575,58.61548
0.40766937,56.05552
0.37341735,57.612267
0.42217216,62.332966
0.32953605,59.963562
0.48433685,55.918613
0.5113985,59.948895
0.35682732,57.361977
0.5050314,63.978043
0.55307806,64.57381
0.5835108,65.02474
0.72663015,70.18447
0.68646514,69.39657
0.86601317,68.2922
0.9275472,74.87116
0.96311635,79.42372
1.1042356,78.72136
1.2771634,81.99202
1.2310838,83.54201
1.3056468,83.70575
1.4256803,89.879776
1.5099894,89.40316
1.4780736,89.998825
1.5325372,93.82265
1.6016611,92.31691
1.7382007,97.71833
1.6398987,98.541695
1.6032165,99.216675
1.728948,99.57724
1.8001238,100.97876
1.6802102,103.59619
1.7509322,101.13414
1.7170736,103.94956
1.6858382,104.52314
1.7342348,106.5149
1.6943287,103.01021
1.6875678,104.88503
1.738998,106.95408
1.5903093,108.38655
1.5439627,103.58505
1.5354756,102.390175
1.59512,101.5734
1.480443,103.98183
1.547616,99.95046
1.5045003,99.517654
1.4478863,104.53711
1.4392302,102.95395
1.3896683,99.94516
1.3020005,96.90586
1.3051192,96.53317
1.2377385,92.00165
1.1823665,90.79868
1.2116385,95.01131
1.1479719,95.0749
1.2436436,91.334526
1.1463103,86.14486
1.1312811,89.14395
1.2733973,88.17254
1.2037153,87.25905
1.0461794,86.49673
1.1662985,84.042694
0.96740675,80.529465
0.9838982,83.22381
1.0950252,82.31653
1.0078717,78.235245
0.97266644,78.7275
0.82661515,77.4245
0.8579078,74.71146
0.8162514,77.16356
0.74787027,74.15786
0.70391554,70.38353
0.6473838,70.40256
0.6021064,70.28677
0.5963976,69.28274
0.589828,67.54163
0.5359397,66.03459
0.6530479,64.47446
0.5741815,63.455105
0.49603125,62.338276
0.47076297,63.307026
0.41081256,61.165195
0.555972,60.20599
0.51519305,58.905907
0.53302217,58.43733
0.48270652,59.707058
0.41732675,59.459324
0.43426058,55.04411
0.5273629,57.112873
0.32887468,60.150913
0.4205115,51.67231
0.39448282,57.78096
0.32156903,51.19279
0.2012893,53.687397
0.18671502,55.170937
0.21070552,58.728184
0.066978246,57.87196
0.025765985,58.975628
0.014076612,55.46356
0.14192583,58.57015
0.17355345,59.828053
0.097230144,60.382717
0.14344294,65.903435
0.2000208,63.472805
0.18635823,62.303967
0.2598546,65.47436
0.40601724,69.54594
0.47237864,70.744385
0.49621254,72.594055
0.61024934,71.866974
0.68420976,76.83021
0.707328,76.965965
0.89963174,80.87495
1.0239367,80.39587
1.0966102,84.29849
1.0740004,88.09925
1.0882784,89.21938
1.2045577,90.93285
1.2851299,94.508064
1.212634,92.43188
1.2940223,93.77133
1.3209163,97.1817
1.3095001,100.19948
1.4138117,99.68886
1.4432219,103.770355
1.4105543,103.07393
1.4249465,103.65824
1.3989719,103.5882
1.4570675,103.49052
1.354005,104.71681
1.4616382,102.81793
1.3314223,109.20848
1.2609504,108.48764
1.2943078,106.7798
1.2431444,105.65261
1.3073723,104.44027
1.2573793,103.25706
1.1946108,104.32431
1.2418969,102.256584
1.169475,100.59903
1.1407987,99.373245
1.0651847,101.29059
1.0660149,99.59313
1.0452584,98.67232
0.9667054,97.55594
1.0404702,97.70201
1.0108083,95.75186
0.9738789,92.22297
0.9185896,94.43905
0.9790028,86.789825
0.985109,87.64422
0.9259272,87.360085
0.86029524,87.73696
0.94578344,85.36222
0.96488285,87.08527
0.8251491,78.79849
0.87157166,82.99127
0.83370745,81.04216
0.73719287,80.458115
0.75360155,78.68862
0.72883815,74.79545
0.5988702,77.709435
0.6175998,75.30097
0.56184953,74.03418
0.48273808,71.534874
0.49512818,73.21093
0.51824677,74.59599
0.42609593,72.410484
0.3647886,69.83059
0.4096081,70.58227
0.266656,65.21452
0.36403838,65.07668
0.27578378,63.025368
0.24650784,64.47483
0.34395918,65.70924
0.2560301,58.809433
0.32011077,58.377735
0.3225596,60.8441
0.2780756,57.894176
0.24649931,57.863365
0.32575828,57.179665
0.25678056,53.920757
0.21489778,56.69566
0.16192971,56.966293
0.18361783,57.938248
0.1821539,53.447346
0.059513833,55.024815
0.12189235,56.859425
0.02297116,56.513268
-0.05326382,58.149197
0.023879735,53.362965
-0.0119206915,54.740993
-0.05841414,55.869415
0.009838727,59.793156
-0.04918392,59.45464
0.045168336,63.65378
-0.0036411348,64.30599
0.078108914,64.36291
0.108429976,67.4264
0.2331412,68.84534
0.37126005,67.64113
0.38047534,71.078545
0.51839423,75.10293
0.5743226,75.99074
0.6926675,75.31006
0.7165429,79.157646
0.74737954,80.74468
0.89901304,79.11266
1.0601734,87.24616
1.0226785,88.63417
1.0456295,87.51061
1.1946578,92.62956
1.250888,92.03882
1.308324,93.68394
1.3788502,94.861115
1.1458983,97.5649
1.3764739,95.750244
1.3610148,99.071236
1.3254333,100.28181
1.3798639,101.14112
1.4043964,101.393814
1.4942486,104.1824
1.3725773,107.17484
1.4029897,101.95658
1.3247107,106.07416
1.3303525,107.13093
1.3557724,105.91578
1.3507397,105.92457
1.3406343,103.7425
1.2485937,103.860275
1.3397632,100.61842
1.2747267,101.121216
1.1959609,102.91004
1.1813838,98.173836
1.1494317,103.03377
1.1112201,100.270454
1.1233994,98.17572
1.1899585,98.39268
1.0324103,97.67767
1.1497316,92.44985
1.0500216,94.38782
1.0430862,95.20825
0.9758866,90.28568
0.98671633,92.49392
1.0287868,88.85773
0.9640256,86.5667
1.0103903,86.920906
1.0924895,89.08088
0.92629576,85.60388
1.0263447,83.794044
0.9248418,78.39374
1.0114591,81.35049
0.8349472,79.96553
0.8019685,78.9423
0.8201438,79.797646
0.8490994,75.78068
0.77855176,76.35971
0.7348305,74.03086
0.73133254,74.07438
0.8090952,72.95174
0.49707857,70.64735
0.6599038,70.50821
0.5994217,70.56412
0.5228587,65.85728
0.44299918,64.35169
0.5293351,66.73345
0.50458914,62.34666
0.5409393,61.64231
0.4778712,62.090534
0.4416973,60.454174
0.60088366,59.01507
0.47526133,60.732483
0.52606255,56.47282
0.47891334,56.181366
0.44521105,59.626743
0.41390738,56.73831
0.53027564,52.36147
0.4264476,56.76388
0.30330902,55.12047
0.2909656,52.724915
0.2579106,57.942963
0.22102022,53.30202
0.19293608,54.987526
0.22858255,57.755676
0.1320645,55.778458
0.24902797,55.848915
0.20713194,59.511723
0.25750965,58.428905
0.34575647,59.323692
0.24145898,62.028667
0.26622832,64.809975
0.37996897,62.076687
0.4433659,67.03727
0.47020563,65.190216
0.5970555,75.43567
0.72708327,73.657295
0.81273764,72.22043
0.9188692,73.48375
0.9820224,82.38098
0.9866058,79.55116
1.1612213,82.18618
1.249164,84.41186
1.4286182,83.35798
1.4083983,88.02204
1.4116555,92.896065
1.422668,92.84158
1.5924637,93.708305
1.5530118,97.71073
1.7201928,96.75403
1.580547,98.23316
1.7078042,99.0179
1.6559073,99.8681
1.7988793,100.389565
1.7365156,102.704666
1.6866947,101.83071
1.8037301,106.46872
1.6994944,104.636856
1.7230096,105.24512
1.6738539,104.31497
1.7360376,105.612
1.6808343,108.90809
1.7251997,107.261986
1.6725558,106.27841
1.5797743,102.5617
1.5869375,103.91171
1.6132985,104.383194
1.5731103,99.194824
1.4124991,103.31782
1.5712051,98.843864
1.4672234,98.50523
1.4558766,98.096695
1.4345632,96.55742
1.406609,98.26761
1.3419663,95.94374
1.418053,91.86383
1.4323424,92.29019
1.4785812,90.71556
1.3711896,87.53745
1.33375,90.33831
1.3469036,87.46755
1.3134685,87.78965
1.2892812,86.53847
1.3213024,81.95222
1.2691826,84.39194
1.1761509,83.783875
1.2239578,83.81079
1.2411066,79.42196
1.1427402,79.04846
1.2141564,77.636284
1.115016,77.57534
1.0513643,75.83728
0.9208676,75.01537
1.0269938,73.29714
1.0130813,69.418045
1.014042,69.2768
0.9655164,71.198074
0.99507564,67.24186
0.8477447,64.23112
0.7703769,67.2123
0.8872223,63.02311
0.8896896,63.554703
0.8947692,59.451614
0.8091975,62.137985
0.7904102,60.91915
0.8582432,61.736794
0.8973507,59.16295
0.75577736,57.368862
0.74215066,55.98404
0.7816274,54.947895
0.7962925,55.164883
0.78816193,56.224804
0.7813488,59.281612
0.6898096,55.73668
0.8282059,54.446384
0.68948007,56.41595
0.60743535,54.965214
0.68291295,54.821304
0.5753561,54.174946
0.54186183,55.42505
0.41049287,58.9104
0.51675045,60.930233
0.48608384,58.583748
0.44733164,63.867527
0.6081124,60.36667
0.5634181,64.06128
0.5107334,70.234406
0.67542017,65.54925
0.81823367,65.28556
0.9729309,74.29989
0.926416,75.45022
1.1389216,74.93151
1.008428,77.18495
1.2413255,79.83698
1.3827347,81.63578
1.3881618,83.57605
1.5645554,82.577156
1.5831752,87.82543
1.6219838,89.174515
1.6631228,89.61092
1.8095813,89.76392
1.8572047,93.278946
1.8735286,96.06123
1.8963467,95.052574
1.9390795,99.58356
1.9161127,100.68441
1.8393451,102.00025
1.8743457,100.270905
2.0184963,103.92815
1.914617,109.699684
2.0283048,104.22782
1.9346468,102.523346
1.9709047,103.77413
2.009212,101.455055
1.9369875,104.18199
1.9023018,103.30593
1.9282277,107.279366
1.8803926,105.2893
1.7868016,104.37444
1.7528918,100.99484
1.777763,99.64018
1.7304981,101.05905
1.7195872,96.62538
1.6907073,100.64308
1.7033417,96.199646
1.6638559,96.913345
1.5447868,93.74682
1.5976924,96.84917
1.530915,95.568
1.5799004,96.651024
1.6086802,93.63382
1.4996439,90.226074
1.4769584,92.561424
1.4385194,85.275154
1.4887081,88.37862
1.4088817,83.40527
1.4929782,85.88563
1.4706148,85.41485
1.4227257,82.30908
1.5092069,84.25753
1.3308209,78.25013
1.364279,82.41128
1.3090011,76.666435
1.2557578,76.68599
1.13018,76.05425
1.1313705,76.8436
1.1148379,78.07841
1.1747212,71.57652
0.987074,74.81591
1.0423659,70.68141
0.94019717,68.62564
0.9944804,66.554245
0.94145465,66.143074
0.87338364,69.29906
0.8915509,65.595535
0.95395786,65.38532
1.0137388,61.35297
0.89563817,59.53541
0.8704315,60.63393
0.8700282,57.052776
0.81804794,56.968086
0.93306816,57.081753
0.91926646,58.936966
0.8486708,56.19324
0.8110717,55.116108
0.77602404,58.36005
0.77237797,56.00381
0.65694684,53.63308
0.6657908,54.184917
0.63905644,53.28535
0.63314044,55.18526
0.51914173,55.166008
0.49860692,53.170807
0.5320184,59.254517
0.56017375,60.80977
0.48639908,56.221783
0.52911764,55.435402
0.55515534,57.571903
0.51457185,62.778362
0.552957,63.427685
0.67368454,66.72903
0.64568526,68.04081
0.80889076,69.94016
0.8658795,72.322426
1.0452706,70.31791
1.0561944,73.25194
1.0725325,76.899925
1.2437165,71.679665
1.3640602,81.67784
1.3539034,82.79681
1.5451176,85.10522
1.4633607,86.809715
1.6058387,90.69001
1.6554066,89.31573
1.6846716,89.90478
1.6701429,92.96938
1.7254833,97.60278
1.7552527,98.20922
1.8423275,97.43897
1.8353798,95.61929
1.8020136,100.125
1.7809963,102.59123
1.8607188,102.19712
1.8379389,105.760956
1.9333261,104.455536
1.749135,107.58339
1.8212448,104.208466
1.9055418,105.78661
1.8571882,104.69463
1.8335162,101.34386
1.7151029,103.48357
1.6553336,106.22162
1.5651706,103.76264
1.7574334,107.434555
1.6177033,101.51483
1.5674131,99.17205
1.4319339,100.17326
1.4651425,98.890755
1.478023,98.71717
1.5149517,97.297104
1.4635935,95.559715
1.2338055,91.720634
1.3646069,93.5918
1.3465744,88.95282
1.319752,93.959015
1.3162196,87.85982
1.3433363,88.59345
1.2207305,90.83164
1.3157182,88.79443
1.316325,87.46461
1.2358288,91.27679
1.2782695,83.96297
1.1248924,84.328094
1.1850775,80.90767
1.1435187,81.3523
1.1632198,83.96465
1.1127638,80.53265
0.9579663,76.698616
0.9008348,75.012535
0.8751556,73.12076
0.79088634,74.09267
0.81791764,74.665565
0.780434,72.61311
0.798019,66.78884
0.7026977,67.03529
0.69733447,68.320564
0.6849198,68.4302
0.67269146,66.774
0.70778203,64.85093
0.7654021,67.07023
0.60694927,62.558167
0.62297934,60.467274
0.63054615,61.476456
0.5737925,54.75547
0.6609954,56.36747
0.5735337,60.29453
0.60400116,55.91838
0.59265864,53.117767
0.4283242,59.999424
0.4197054,52.02036
0.5322186,52.804493
0.34052113,56.67682
0.3222836,50.28086
0.3456186,55.592342
0.2772148,54.208984
0.29263264,58.142773
0.21204348,56.029922
0.2033077,57.848194
0.18804039,53.72417
0.14258152,59.745777
0.21486785,60.142582
0.1923505,58.989666
0.22673175,63.368263
0.3498703,65.70933
0.41763312,61.32829
0.31848925,64.0568
0.49359715,67.78231
0.48800266,69.080894
0.68772984,73.05809
0.70303535,74.717636
0.8854092,77.46665
0.88436514,78.1329
0.96024305,82.98006
1.0311387,85.20575
1.1335987,88.71819
1.2224005,87.99785
1.3618132,90.974
1.3162262,90.12712
1.318642,93.01153
1.4435672,97.47711
1.3233069,98.81648
1.4334512,97.190125
1.5072024,101.69847
1.4373647,98.90464
1.5057876,100.85476
1.5719372,99.20389
1.4651564,102.47233
1.509054,102.43462
1.5338019,107.39405
1.4134356,107.14503
1.4544008,104.857635
1.4764636,104.79012
1.4394671,105.00685
1.422798,104.920654
1.3129976,105.87986
1.2959002,103.053535
1.2038575,102.06719
1.2226918,103.843575
1.2954348,101.17437
1.2233709,104.301384
1.192882,99.74285
1.112491,95.39708
1.1245083,99.77483
1.1188133,96.304825
1.1459638,98.08174
1.0362029,97.74634
1.0735385,97.304375
0.889199,95.959366
0.97896963,90.22584
0.9704829,88.26851
0.95136446,86.66708
0.92927283,87.876945
1.0145968,86.85483
0.9011505,88.40788
0.9581701,85.26129
0.8509093,85.20746
0.94430244,82.53431
0.8783639,79.55566
0.792933,85.60374
0.72086626,80.89669
0.71641475,75.78198
0.68147147,78.138824
0.6263858,75.30435
0.5869924,76.099556
0.65384877,72.43354
0.52752066,70.13786
0.49748227,73.67038
0.48616612,66.01708
0.43996528,68.65664
0.38063192,63.48521
0.39111042,69.72908
0.39407703,68.41455
0.38407296,62.110527
0.2758353,63.783516
0.31899437,63.025814
0.4314553,60.064026
0.4154212,62.827812
0.30389312,57.428272
0.28169107,58.826122
0.350607,54.536167
0.30768782,57.129025
0.29803482,53.629913
0.34950894,56.43427
0.17883976,56.75644
0.09598314,53.688675
0.18832068,55.25547
0.06697007,56.184547
0.037883207,55.431
0.11097024,57.625088
-0.001207216,61.65324
-0.08593863,53.823177
-0.109409794,57.046185
-0.017392656,58.764404
-0.06351243,58.479733
-0.042436246,62.40936
-0.05108817,59.607033
0.05532281,60.75994
0.067372896,65.14181
0.17183335,67.22202
0.20192368,68.94673
0.27310255,69.5378
0.45856208,73.523964
0.5691146,73.19059
0.5522942,77.13906
0.64096284,75.73025
0.8429672,80.32737
0.9029773,81.297424
0.9119366,84.28197
1.0214155,84.52091
1.0935526,83.254654
1.1255385,87.73987
1.1959704,91.33097
1.0912833,93.78689
1.2214198,96.66411
1.2526201,98.26549
1.2064767,101.76695
1.3778628,101.38868
1.4520489,97.740715
1.3747268,102.41033
1.2918549,102.07188
1.3763007,104.22306
1.3220745,100.8529
1.3828895,100.81935
1.32838,108.71595
1.3739824,104.55987
1.3867699,107.74726
1.3855836,102.83657
1.2719736,105.46935
1.2033437,101.53557
1.2314801,102.71056
1.1751407,106.054855
1.1183436,102.308655
1.1414098,102.220856
1.0991732,101.654526
1.0559312,101.18276
1.1123257,97.87582
1.0340115,104.688194
0.94768614,97.893486
1.0353801,92.65668
0.9486131,96.979904
0.9362304,89.628654
0.92338604,95.93686
1.0135126,95.63701
0.9774567,87.04972
0.9798685,87.97823
0.93890846,87.63437
0.994663,84.62619
0.9115374,87.27479
0.8794971,86.483345
0.85421014,81.359245
0.82431465,79.14439
0.7930679,79.28506
0.8126165,79.75072
0.69716346,77.75884
0.74169385,76.66982
0.7463504,77.21414
0.75932026,75.31078
0.57003975,74.84155
0.6142879,73.52374
0.5214229,71.58821
0.49147716,68.358406
0.520477,66.81914
0.42408276,65.51591
0.4304399,65.45001
0.5086762,66.39146
0.40931994,69.061844
0.37050095,66.35899
0.44903108,62.832623
0.38239506,62.452545
0.47012803,56.89894
0.41281685,58.09279
0.4216369,60.366558
0.38946423,57.9802
0.33807755,57.187828
0.5062711,55.325607
0.34482098,55.37022
0.3486757,57.2224
0.23634267,53.37327
0.28975904,54.74133
0.25300017,54.62483
0.25772488,54.525295
0.17612867,55.306835
0.17699419,55.87533
0.13947776,55.202404
0.12024603,55.527317
0.09645379,57.357224
0.10631309,57.519608
0.20994909,59.66454
0.18938357,60.1636
0.19189449,63.781788
0.20003678,68.98093
0.30400366,67.17335
0.35883167,67.735695
0.3757638,71.175446
0.4616951,71.47122
0.50409496,71.15366
0.72424626,75.12844
0.7637218,75.94131
0.9028846,78.00532
0.91887987,81.10128
0.97050124,81.8717
1.1971225,85.323654
1.1358083,87.35023
1.2944018,90.65412
1.3205868,90.03569
1.4001604,92.46724
1.4064032,94.16306
1.4120266,99.10837
1.5712407,93.40519
1.6196318,97.90766
1.504124,98.80891
1.6554083,100.108894
1.5710088,102.15627
1.5640622,102.3385
1.6924146,102.3658
1.4718653,103.490395
1.7257973,105.618576
1.6417575,102.454025
1.5917618,104.475945
1.6478277,103.15819
1.52813,104.09939
1.5977898,103.25324
1.5714216,104.849304
1.5021827,105.49213
1.4780496,101.149155
1.5035337,101.400024
1.4195038,99.299774
1.3681347,99.83165
1.4052275,98.88387
1.3154664,99.94738
1.3070813,98.47644
1.2784668,92.64825
1.2217895,94.3249
1.2824947,95.95323
1.1780603,98.1875
1.1106318,93.439926
1.2638448,93.566025
1.3530592,89.41458
1.1846327,88.37164
1.1458259,87.702515
1.2866677,87.15474
1.301501,84.025246
1.1662239,85.472664
1.1636248,82.53233
1.1483172,80.793274
1.1796002,81.11516
1.1179727,83.61143
1.0482805,77.76414
1.0399694,75.50601
0.993161,74.4502
0.9139847,78.83817
1.0339167,73.67978
0.90359044,72.77972
0.8442554,71.16246
0.86170536,69.71524
0.83689696,69.72466
0.6711291,67.19127
0.77762026,67.35352
0.7239813,64.08912
0.7074244,66.40087
0.598047,61.775448
0.77753013,61.757156
0.6878412,59.473133
0.80212176,58.827545
0.73598427,61.016445
0.8048158,60.21111
0.68983215,60.61355
0.8354436,58.93282
0.68570906,55.825386
0.60671794,57.190434
0.64016014,52.701138
0.5731828,53.98271
0.55833787,56.731163
0.6757577,55.98217
0.57515424,57.490055
0.43432295,54.51891
0.46016312,57.1896
0.3797784,58.483315
0.420531,54.005222
0.46102807,60.347717
0.46028346,57.511425
0.50538987,59.455364
0.39471674,58.184345
0.5509481,58.9978
0.58848137,64.343605
0.6327315,63.186535
0.7399268,68.01886
0.7040863,66.48749
0.9247003,69.747
0.8489309,73.38195
0.9851901,72.52549
1.0318161,77.10045
1.2301978,78.54916
1.2926366,78.74156
1.4175462,85.58731
1.537212,83.680176
1.481917,85.10126
1.6751746,86.15932
1.753459,91.916374
1.6015617,91.12082
1.7586409,93.811035
1.790229,94.86466
1.9015259,96.071754
1.8473238,97.63557
1.9798847,99.50262
1.8920412,104.51814
1.9337616,99.887054
1.8211813,103.046104
1.8732105,105.410675
1.8516315,104.08234
1.9139521,102.741325
1.9712145,105.20954
1.9040269,104.69636
1.8709613,104.537125
1.8616115,105.2315
1.8258992,104.71804
1.8224355,105.66105
1.7030295,102.94563
1.7896796,101.909195
1.7009965,100.40423
1.645809,100.810844
1.6070946,99.26518
1.6265742,99.21427
1.5672379,96.35956
1.5432582,97.584694
1.5462012,95.61726
1.587884,89.48144
1.4948506,93.60291
1.5034628,96.392555
1.4648013,90.22867
1.4461025,88.48864
1.5244933,89.65185
1.4854573,87.31975
1.5151844,90.34951
1.4741725,90.42251
1.4549878,87.62881
1.4037354,80.562325
1.3223579,82.315056
1.3751017,82.983215
1.4412253,82.141396
1.2747624,81.19669
1.2325,79.86742
1.2672983,78.46826
1.2314056,74.662575
1.1763053,73.947624
1.1146641,73.41758
1.1160796,73.15985
1.1049811,72.57632
1.0739645,68.73964
0.9084253,69.50937
1.0304569,69.794586
1.0283438,68.14281
0.9032394,65.40162
0.97848123,63.09988
0.92604905,61.789597
0.9567539,61.767315
0.92453295,56.668716
1.0182678,60.47407
0.94065636,59.332314
0.86225253,53.115578
0.9379069,56.963238
0.8432665,57.47034
0.8970824,58.87493
0.813715,54.06407
0.8981891,51.37976
0.7807097,55.428955
0.64416444,54.323483
0.71903634,52.98529
0.6217054,50.30468
0.69053835,55.754215
0.5980569,54.86225
0.61370444,53.122005
0.52478296,57.201336
0.5289171,56.794933
0.5101568,61.73353
0.5075811,62.874786
0.61471957,61.244347
0.6033552,63.328407
0.6732026,63.166195
0.8376395,64.3393
0.93045163,65.5048
0.8196841,69.41864
0.95985585,70.249855
1.0411252,72.66936
1.1138144,72.11984
1.3067707,74.897354
1.2764627,81.11532
1.4181801,84.0498
1.5010053,82.592026
1.4879737,85.2781
1.5953287,89.16059
1.6811461,91.72868
1.8501002,91.923325
1.7051296,92.235855
1.7658111,94.260605
1.8227558,97.23023
1.8969281,97.37088
1.8890097,98.06637
1.965655,102.48343
1.8537395,101.70491
1.8299727,101.71235
1.9075387,106.33045
1.938822,105.32099
1.9620554,104.37355
2.022825,107.6738
1.8347145,106.75386
1.836271,103.33296
1.702649,106.16449
1.8669933,102.94289
1.8751409,105.33608
1.7581221,106.540474
1.7067382,105.79717
1.6701198,103.26069
1.6758193,99.9513
1.5723498,101.274414
1.5069497,102.47615
1.6467167,98.28685
1.5264755,99.98582
1.6018944,98.40233
1.4890416,94.30017
1.4818976,101.419136
1.4705313,94.22874
1.400957,91.86506
1.3609647,91.50031
1.3747348,92.53578
1.4122021,91.93372
1.3562148,91.24783
1.4418916,86.56032
1.2772073,87.78837
1.266207,86.8512
1.2415836,85.305725
1.3255163,79.220116
1.369197,81.498825
1.2308356,82.061554
1.0573862,76.21006
1.1271095,77.97197
1.1793858,75.59382
1.0744848,72.557594
1.0278547,75.82149
0.9938034,74.53512
0.9166282,71.03694
0.88237095,68.39061
0.8784665,67.62742
0.8618026,66.821495
0.8091301,65.00333
0.8447216,67.816025
0.8278824,64.18172
0.69244885,63.02102
0.7623321,61.633427
0.788807,63.07027
0.8601297,60.27904
0.65117997,59.60565
0.66643006,60.76101
0.6825322,57.477074
0.699148,58.813904
0.8071901,56.747814
0.68893343,54.37567
0.6389471,55.902607
0.6524419,53.350864
0.5239366,52.521427
0.4636131,56.820282
0.35188,52.44074
0.42812532,53.81673
0.32464385,56.467056
0.37987325,56.78748
0.31665477,52.656155
0.25291246,53.33981
0.19802897,56.016693
0.2987313,59.518944
0.21249455,61.05818
0.2829296,59.787064
0.42584065,65.80951
0.38418472,63.786293
0.4641785,66.029175
0.5962797,68.983696
0.6333535,67.25327
0.7069993,69.84689
0.84896344,73.46998
0.77461755,74.74628
1.0015715,76.57071
1.069861,80.37318
1.1268821,80.2371
1.1515604,90.316895
1.3833716,85.50487
1.3833138,89.9767
1.4538294,89.59847
1.4413618,91.962975
1.5665563,95.59459
1.4859638,97.48769
1.4980279,96.91301
1.5829984,96.36305
1.5678477,98.545105
1.590659,99.92465
1.6326185,100.63749
1.6365405,100.27103
1.570969,99.96478
1.5400528,104.4421
1.5738051,106.12255
1.516236,107.10807
1.5701807,104.76584
1.554012,99.18051
1.5631546,103.14475
1.4840354,103.10785
1.4460298,102.92685
1.4554583,102.319954
1.452182,104.37578
1.4495237,103.561264
1.2801251,101.06613
1.2844526,98.35222
1.3707047,99.923
1.243358,98.03257
1.187515,99.16407
1.2260014,98.63169
1.2170606,93.918274
1.1394839,95.251526
1.1259235,93.706566
1.132776,94.41433
1.1076603,91.40601
1.1123267,88.28306
1.1395131,88.382256
1.0612121,86.128136
1.1368734,86.79218
1.037915,83.56472
1.0077585,83.974945
1.0111889,84.65734
0.9254883,79.97052
0.86154443,80.26852
0.9254425,78.55804
0.7995353,81.82899
0.76192755,78.12824
0.7269306,78.23631
0.65526,72.98199
0.6157222,74.68461
0.6539701,73.74993
0.6606788,73.93776
0.5475564,71.57633
0.5007829,70.30293
0.46781027,69.824265
0.60624576,65.01173
0.3858156,62.061478
0.4972757,64.80589
0.415756,64.57072
0.42827246,60.299706
0.35957253,63.12362
0.29185414,60.048862
0.44938886,58.32743
0.3924639,57.52851
0.46824664,55.75378
0.36237568,58.65314
0.31603777,59.060196
0.41577634,57.604248
0.16993468,54.763306
0.21240132,53.376453
0.19938488,55.69652
0.17365304,55.76818
0.06345238,57.239773
0.101646535,54.022884
0.054114744,53.601425
-0.029460542,58.636776
-0.03843679,56.315567
-0.062146343,57.57276
0.07003345,57.227867
-0.03156203,59.139824
-0.022331884,59.441746
0.009052573,60.666138
0.075192496,62.09026
0.18286076,64.312706
0.19880222,68.81861
0.28389913,69.7862
0.35789347,72.652054
0.40072122,74.11264
0.5129282,73.63781
0.7126119,75.79515
0.7735211,78.96122
0.8562712,79.97559
0.84093267,81.87505
0.9895976,84.55516
1.0315791,89.89234
1.1572218,88.77267
1.1567057,90.1095
1.2304509,93.27233
1.2366428,95.4048
1.1937655,94.92665
1.310394,96.775085
1.3603864,99.71951
1.4124314,99.31034
1.3745552,99.39666
1.3214284,101.32812
1.3326892,103.61716
1.306206,102.76101
1.4528887,100.97885
1.3822403,103.67475
1.4132464,102.69418
1.3767656,104.516304
1.3300052,106.06332
1.3144292,101.42878
1.3335555,101.915535
1.2771255,101.0574
1.264621,105.477455
1.1999733,102.08702
1.1701751,101.97366
1.1219926,102.566315
1.1603665,100.2939
1.0319424,99.96214
0.9533283,103.00309
0.9533713,100.41895
1.0220448,97.303566
0.89090264,93.16727
0.9781678,95.44181
0.89801,93.17338
0.8813415,94.235466
0.94612235,95.39752
0.9552337,90.22653
0.8625125,87.21044
1.0459352,84.87349
0.87744284,86.48312
0.85833,86.75795
0.85324615,85.867325
0.92664665,83.62888
0.75583243,81.35123
0.87750465,83.22269
0.7593458,78.12936
0.6862063,78.89393
0.7983294,73.50199
0.62409973,78.99193
0.74225754,76.92665
0.5224917,75.120964
0.60349435,73.34131
0.46942508,74.09126
0.4306599,69.16418
0.4841905,68.53459
0.39488265,69.56277
0.39936438,68.36338
0.45893922,68.4925
0.39514378,62.720623
0.39026585,61.612427
0.3046032,62.788837
0.42796192,61.274918
0.36252263,62.520844
0.31647962,59.547085
0.37834483,59.045444
0.28789815,60.057877
0.3448464,54.339085
0.3435508,55.44885
0.33701172,56.30229
0.1948293,55.785877
0.31814185,53.80621
0.10841683,55.816288
0.10071762,58.649975
0.09674239,57.107204
0.088942885,59.55597
0.027600465,54.91648
0.011790546,56.392376
0.029859673,58.025906
0.0065915287,59.397842
0.05744537,63.077717
-0.052414052,57.877068
0.05912645,62.183758
0.013649445,61.21462
0.17345642,64.905914
0.30893892,66.75803
0.3620869,67.85596
0.33189508,65.80857
0.40244702,68.66074
0.3957101,72.881775
0.61195844,76.7193
0.6529757,78.6433
0.8665943,81.73944
0.8827803,82.53394
0.9892661,82.73312
1.1027025,83.373695
1.0812652,88.132355
1.2268494,87.40333
1.201983,92.00553
1.2997462,92.44087
1.2987037,95.596985
1.4152484,95.84358
1.4247588,97.331825
1.4080464,97.27844
1.5211408,100.387535
1.4070485,100.01636
1.4601663,104.206665
1.5296793,100.42267
1.5337702,104.262024
1.5131857,107.0373
1.4226732,104.46119
1.6273161,104.63201
1.5807838,108.47228
1.5137551,107.12162
1.4488906,103.83421
1.366326,103.156105
1.4297713,105.03734
1.375928,102.97716
1.3643963,103.60507
1.2604979,101.15067
1.2772003,101.73441
1.2452573,98.827965
1.2422097,97.234924
1.1391438,101.180954
1.2583641,97.63902
1.1980451,98.09098
1.1896788,96.11852
1.1777331,95.39546
1.1596023,93.63354
1.0013014,91.82782
1.1469431,95.01655
1.0801452,87.21843
1.0466734,87.077
1.1263864,85.02564
1.053075,86.06725
1.0642788,86.52272
1.0885812,81.42776
1.1006701,80.399994
1.0556113,78.49912
0.9646102,81.67874
0.91109616,79.857895
0.9112279,77.94302
0.92411304,78.91901
0.8993086,76.41678
0.8818214,75.76284
0.8152807,72.167915
0.796754,71.35832
0.7001649,74.68491
0.7236652,71.325424
0.6143824,68.36254
0.6713264,69.86163
0.5507961,69.37253
0.5217631,61.442245
0.63845825,68.619026
0.7073006,64.53004
0.6487109,60.11485
0.63421404,61.832775
0.6733108,60.673786
0.68530816,57.75909
0.6791409,61.780853
0.6751603,59.451706
0.5966589,58.170216
0.48020482,57.27773
0.5225059,55.621548
0.52160126,56.20958
0.47489813,50.849346
0.53308964,57.03945
0.46830052,56.38506
0.39728603,55.959724
0.40854576,55.38741
0.30838528,53.949135
0.38428426,57.115818
0.32266897,57.561504
0.25289932,58.80574
0.3007591,59.494522
0.3965637,58.483814
0.4369951,62.219635
0.3401482,61.859673
0.46174687,62.456776
0.529024,69.141975
0.6507473,67.381516
0.5936646,72.089836
0.66288114,69.83695
1.0226665,74.68215
0.9299018,73.74486
1.0424081,78.155464
1.2249639,79.30138
1.2050401,79.46679
1.3854518,82.97597
1.4504544,87.42571
1.4629447,85.477066
1.5380331,90.00486
1.616611,91.04052
1.6422751,93.07864
1.703196,93.35449
1.608342,99.72703
1.728444,97.5052
1.7816886,99.06226
1.727378,100.16969
1.879238,100.33503
1.9501951,103.07201
1.8540395,103.99904
1.773002,107.67702
1.9370757,104.48882
1.8067517,103.97387
1.759144,104.7294
1.8067138,106.5009
1.7642084,104.60518
1.823697,102.48806
1.7360332,104.17061
1.6889428,105.73112
1.6976064,100.22827
1.6704509,101.62421
1.7006267,99.05033
1.7415861,102.05471
1.5622911,98.90675
1.590504,101.99812
1.4889792,97.145676
1.5167462,94.30685
1.5767591,97.77963
1.538719,96.567024
1.3973337,96.22619
1.5320902,88.36744
1.4406831,92.502884
1.5284703,92.46761
1.4046434,86.412285
1.465093,88.485344
1.4634498,88.92444
1.3850257,84.16479
1.3263793,80.84901
1.343996,82.36752
1.3727063,81.44463
1.3502147,80.735054
1.1829368,77.33556
1.3322768,79.52969
1.1952235,76.69966
1.1101662,80.696465
1.1360474,78.09263
1.1285417,68.66887
1.0065348,68.59109
1.0347159,70.53761
0.9977818,73.374275
0.9477692,67.51152
0.967995,70.154495
0.8594617,65.703445
0.9304536,67.787544
0.910025,63.77527
0.95391697,61.311584
0.903036,64.81666
0.89469904,64.69933
0.89857405,59.52163
0.8594071,58.776558
0.75168085,59.734676
0.9230991,56.53039
0.8991271,57.769882
0.91879946,55.04572
0.81869924,55.276363
0.81636065,56.91403
0.82407576,54.839645
0.8027244,55.828133
0.71800417,56.348854
0.7363112,53.925983
0.7123583,55.001392
0.7033557,57.12461
0.5347203,53.16693
0.47439548,52.905304
0.6474748,56.32998
0.47884858,57.02129
0.5789927,58.098022
0.5988251,61.088978
0.52994823,61.006195
0.5988735,63.274208
0.6060338,64.98356
0.6738291,67.394745
0.8079668,67.67149
0.85290164,71.081696
1.0930209,73.44865
1.029331,73.5841
1.2007653,74.68995
1.2831048,77.286766
1.3932948,77.98145
1.4724278,79.201
1.5543804,85.71521
1.6681018,84.59913
1.7531545,89.73745
1.7155744,89.889595
1.7033062,93.79143
1.9169595,93.61683
1.7910993,103.19284
1.8170414,99.97523
1.8937461,97.08756
1.9384713,106.20076
1.8975316,100.99416
1.9699616,104.81245
1.8867003,100.984406
1.9465075,100.839676
2.0067565,103.88739
1.9918381,104.55146
1.9694368,104.94383
1.8658133,104.24376
1.9356667,107.87282
1.9605577,104.19907
1.9499972,105.010254
1.8478544,103.82761
1.8755214,102.32917
1.8143185,104.978134
1.771666,104.9375
1.6127479,102.089966
1.7350048,98.53734
1.6187639,100.63481
1.6375287,102.09506
1.5168636,96.1141
1.5694741,94.646484
1.5437456,97.14477
1.4603717,94.93882
1.488311,93.605064
1.5322553,91.345726
1.5521156,89.7365
1.4984373,90.09992
1.4348515,87.30796
1.4157944,89.406586
1.519501,83.68452
1.383452,85.48917
1.4538734,81.82407
1.3143973,82.670334
1.435312,85.66414
1.2723817,81.57131
1.2611575,85.09872
1.2281725,79.91473
1.2299756,74.82522
1.1845989,77.11041
1.1992259,72.226585
1.0505786,75.21357
1.0297235,73.894806
1.0391927,69.55118
0.9763025,71.81125
0.9083623,65.49767
0.9035126,68.400444
0.8333688,68.803276
0.7909435,66.61266
0.88664687,64.97396
0.8080603,65.10941
0.8424307,61.30063
0.8257402,60.480637
0.82320213,61.83718
0.8678133,59.326313
0.8043133,59.819294
0.74541944,53.231277
0.7496508,57.507504
0.7789107,55.05113
0.8073625,55.870495
0.6282278,54.82197
0.6907865,53.96268
0.7395149,54.714912
0.62989074,55.35261
0.5640338,55.111874
0.5570252,54.77537
0.44261956,54.057304
0.49860138,56.939194
0.35366318,57.01135
0.34518746,57.692184
0.29222286,58.102436
0.42736393,59.81523
0.49482864,60.55485
0.44808066,62.508972
0.5641629,64.09348
0.6090146,63.01653
0.5846902,68.93228
0.6022755,67.29755
0.7963556,71.14104
0.8432777,73.79101
0.8750123,76.35829
1.1164184,73.634766
1.0931977,74.43619
1.1379522,78.386795
1.280831,81.58106
1.3173683,88.243195
1.3521426,84.982185
1.4967282,87.65847
1.6189437,92.64229
1.5542436,93.51683
1.6263192,93.51735
1.6214774,96.22276
1.6272527,99.18363
1.7679399,99.824104
1.7017343,97.3894
1.7110903,101.92181
1.8169264,101.88042
1.816034,98.58468
1.8555686,103.74732
1.8107767,103.637566
1.7180908,104.67928
1.6269552,106.87447
1.684052,102.45441
1.6563406,102.43238
1.6266005,101.843414
1.5550907,105.91652
1.5977072,104.713875
1.6213157,100.923615
1.537318,103.11239
1.4572288,101.584206
1.4427668,102.5923
1.3842206,97.327194
1.3889611,96.845695
1.4206524,99.02324
1.2767755,99.773476
1.3154447,96.322525
1.2638091,97.307976
1.2158217,93.77531
1.2247661,93.55034
1.1573124,90.402954
1.2641972,88.055374
1.2307849,87.25897
1.241062,85.33854
1.0740807,85.0891
1.1121292,85.82622
1.117973,85.98085
1.0293359,82.704796
1.0099524,82.52778
1.0642327,82.35161
0.9331036,81.6698
0.9835601,78.21132
0.9287285,79.33401
0.8177535,77.1137
0.92141104,75.390495
0.9234019,72.93408
0.7840201,74.66319
0.77124643,75.856
0.80480653,70.29708
0.6736107,69.7118
0.57282466,69.49652
0.60006183,68.95351
0.636408,64.23073
0.5248526,67.58054
0.48579907,63.9011
0.53276056,64.57673
0.50389177,63.120415
0.4961929,64.07952
0.5150927,62.229507
0.5657508,60.511448
0.5500759,61.78695
0.4743317,59.92219
0.35532552,59.340916
0.52363914,55.422363
0.3807615,58.09666
0.37309334,57.50737
0.26592678,52.34112
0.34385085,54.906876
0.20356843,52.602654
0.17415118,57.257145
0.12697586,54.007645
0.10367889,52.933964
0.13103372,55.052948
0.049545575,58.942825
0.15927793,59.809845
0.054414723,59.270103
0.083700836,58.18067
0.04713589,59.96975
0.22449741,63.78149
0.14785309,64.541145
0.21235226,61.07063
0.40436092,65.724594
0.39182812,67.612335
0.49305174,72.02529
0.53961635,71.57935
0.51355565,73.25409
0.7135553,75.22332
0.80692506,78.51216
0.8762348,79.23558
1.0011998,84.752846
1.095742,83.70856
1.1658423,89.00185
1.1677706,85.44776
1.2466522,91.92155
1.3302302,90.41231
1.3907031,96.89451
1.3502274,95.04744
1.339991,97.84316
1.37957,97.72561
1.3891393,99.32317
1.4584461,101.401405
1.4151896,100.7412
1.3995275,103.52331
1.5207306,105.162445
1.4420874,103.14184
1.4193978,107.43878
1.4017868,105.86142
1.2578199,106.51598
1.334466,105.49291
1.2961793,108.08308
1.322193,107.60835
1.3358425,106.793335
1.2549149,103.6601
1.156861,98.55751
1.134906,103.284904
1.145417,100.79453
1.1241305,102.18283
0.98848397,99.10202
1.1104239,100.08138
1.011481,96.8791
0.9706011,98.12966
1.019962,97.61675
0.85395676,93.314964
0.97329885,92.02712
0.96628857,91.89784
0.92942536,88.26547
0.9384672,90.031105
0.8650093,88.1451
0.87918586,82.556755
0.8741896,86.96838
0.8574504,82.41375
0.78184223,81.214424
0.82622117,83.006744
0.80650127,82.307526
0.8095469,79.4026
0.6921081,81.68474
0.72165567,79.6024
0.66140383,76.07417
0.48024178,76.439606
0.62208974,67.98774
0.57147837,74.615135
0.4734506,74.234566
0.42068028,70.25308
0.42741105,69.37986
0.38702133,69.57099
0.30849257,68.70975
0.38392463,67.20865
0.3397686,65.7514
0.39595786,65.38357
0.33728328,65.95407
0.36262244,62.065487
0.35749626,61.37514
0.33135033,61.39199
0.30828747,55.759903
0.13944238,58.786545
0.29283032,56.951393
0.2293263,55.643456
0.30724233,53.92619
0.24959783,55.925125
0.30815035,53.331097
0.22439642,55.040035
0.087620355,59.055645
0.09871679,56.50105
0.034256432,57.429546
-0.020507183,55.725105
-0.004419787,53.725525
-0.06204171,58.497047
-0.058744244,60.08001
-0.10199474,59.17428
-0.06822693,57.110424
-0.05553208,53.61322
0.032207146,60.787666
0.112744726,64.63972
0.100217655,63.699104
0.2519738,67.59275
0.21146041,67.424904
0.2745682,72.290985
0.4004198,70.15015
0.44272983,69.415215
0.5359898,73.74016
0.678257,77.3556
0.8010914,78.44809
0.8083149,81.6972
0.9152917,80.35603
1.0979048,87.30155
1.0670499,86.60699
1.1384319,91.7855
1.1714277,94.81111
1.1622878,94.245155
1.2776854,94.10659
1.2993972,94.546486
1.3887807,100.22199
1.4212024,102.0049
1.3868128,99.176
1.4062526,100.898384
1.3775253,103.045685
1.3080698,101.97846
1.4168323,106.43665
1.4220712,102.54165
1.4758879,101.15876
1.42606,104.34401
1.3245845,103.33477
1.3774614,103.77503
1.341551,105.10837
1.3551384,102.7353
1.2397538,100.970764
1.3257511,102.31769
1.2522432,103.472275
1.2321751,102.00812
1.192519,99.46232
1.0843223,101.90725
1.1974369,101.090775
1.1823894,99.77038
1.1022228,93.882034
1.1103153,95.41766
1.0730156,91.16029
0.9454558,92.41649
1.022036,93.3312
1.0350276,90.87074
1.1108932,89.612755
1.0056691,88.34066
0.9967575,85.87376
0.88479483,84.60451
0.90311766,86.660614
0.93275326,86.68079
0.96330917,84.93321
0.97351843,83.71653
0.9003697,81.496826
0.9561855,78.497986
0.89107084,80.990135
0.7173027,75.35842
0.7386384,78.10577
0.6535254,73.598434
0.7357871,71.85439
0.6499201,72.391
0.6209713,72.90639
0.60521996,72.41197
0.5393819,73.50861
0.48366523,67.215965
0.55188,70.713875
0.4010078,67.16518
0.5241747,63.67297
0.51381314,65.27159
0.4990229,60.24856
0.46902767,62.61666
0.51569676,66.55725
0.5567517,58.614952
0.4848911,62.789616
0.60706884,58.97262
0.48010045,61.242363
0.43167377,57.052475
0.42993298,57.94992
0.47376704,54.978073
0.5038737,56.15044
0.39603734,53.536255
0.36657712,54.95713
0.3255699,51.364212
0.33180067,54.391712
0.26066056,55.021374
0.20715007,54.53433
0.13595657,57.577587
0.17272161,60.665775
0.14238884,58.19321
0.24037705,62.09549
0.15448074,60.708786
0.23938856,60.71022
0.2530459,61.08368
0.3831955,67.11835
0.44851655,66.80431
0.5252345,67.76052
0.60375345,70.23531
0.6885899,73.146
0.79887134,74.42943
0.89331794,75.1452
0.9880035,78.90833
1.0327121,77.960266
1.1085587,82.74685
1.2554348,85.625786
1.2998846,85.76145
1.3979114,89.08613
1.4229712,89.47274
1.5236173,89.46386
1.4985191,94.07415
1.5869116,93.294655
1.6361197,98.461945
1.6992239,98.267715
1.7163758,98.96771
1.6703444,102.60172
1.8227644,104.70313
1.7094979,102.44654
1.7418536,103.45349
1.8017367,103.787605
1.7197399,107.11662
1.6610086,105.571106
1.7108053,105.17125
1.6970747,107.43093
1.7167171,104.34502
1.6753765,105.10784
1.6225698,102.37341
1.6531787,107.12186
1.587194,103.144005
1.5002326,100.28038
1.5464106,101.31354
1.5347469,99.513756
1.679369,99.033195
1.380916,102.59643
1.4362267,97.33107
1.4280269,96.6003
1.3896987,96.17084
1.4304712,95.97753
1.3517381,93.13031
1.3763748,90.44905
1.4437711,90.08269
1.3639169,89.49026
1.4353873,88.001076
1.4365587,88.05459
1.2708235,88.92182
1.2639134,82.48391
1.295451,86.0035
1.2752571,82.50634
1.2731361,80.044556
1.2587141,83.33927
1.098769,82.9495
1.3030378,78.007195
1.0978527,75.239784
1.0373876,75.73337
1.0948807,78.46844
1.0028995,73.87207
1.1033343,75.6468
0.90229493,71.541985
0.93231297,71.585045
0.97475797,69.78811
0.81325185,69.826836
0.83740896,70.38819
0.8053834,67.01632
0.83140695,66.34659
0.8531493,63.934498
0.84014887,61.57484
0.93707395,60.003376
0.90396774,64.32306
0.8314847,58.544025
0.937278,61.389538
0.79777056,58.090298
0.8714127,57.934666
0.79336286,53.006275
0.8063853,57.894737
0.8372704,58.3105
0.67274773,55.187416
0.6866932,52.291435
0.73364496,55.041985
0.65784264,52.675133
0.64989877,56.930458
0.44837514,54.763397
0.543658,56.320034
0.477011,57.1286
0.40164492,59.119312
0.51532793,60.41097
0.40352774,61.0998
0.5966067,64.733734
0.581269,63.081627
0.54796183,60.34659
0.820443,65.68232
0.72696346,69.05537
0.77722454,70.337494
1.0671605,74.47782
0.9616403,72.48368
1.0360162,76.867134
1.1626023,77.045654
1.1847371,78.51386
1.3201501,78.86277
1.4710882,84.909325
1.599736,85.44553
1.5289521,85.10846
1.7140709,87.92404
1.7182385,87.87789
1.7647568,89.77739
1.7789212,93.483444
1.8536496,92.803055
1.8539172,98.44436
1.9540104,98.244385
1.9354876,102.590996
2.022453,101.59071
1.9258697,102.61552
1.8434091,101.63426
1.9044116,104.121124
2.0022018,103.22091
1.9789797,101.25375
1.8844565,104.60473
1.9831995,106.056625
1.8285631,106.86926
1.8702241,107.477585
1.9609532,101.98076
1.8677794,100.14888
1.8090941,104.80535
1.8946438,98.60851
1.6918719,102.0152
1.6465911,103.77249
1.7464378,99.62905
1.5486073,98.93672
1.6173291,100.52063
1.6270375,97.63893
1.6450615,93.56423
1.5177337,92.314964
1.5244933,97.196884
1.5011208,91.445145
1.4876488,89.81936
1.528685,90.93087
1.5595835,87.0593
1.4361011,86.58876
1.4711983,87.824486
1.5332003,82.92358
1.452223,86.86668
1.4051085,83.76564
1.328125,83.775246
1.4263633,82.548805
1.3254522,75.32658
1.2901515,79.61565
1.2879107,77.88064
1.3137752,78.41431
1.1348542,78.697495
1.1392986,75.76426
1.1677923,75.68204
1.1008699,74.76438
0.9882077,72.7379
0.9730334,71.33946
0.9270316,67.73164
0.9754175,70.705864
0.9530801,62.171455
0.9528508,64.62616
1.0246835,66.085945
0.8499533,60.27947
0.9245799,65.07745
0.9162739,63.353058
0.8819861,59.129925
0.83787656,57.488605
1.0018086,60.296337
0.8764571,56.151314
0.89135474,56.630684
0.87585497,58.248013
0.8097291,54.4159
0.7750471,57.067036
0.8022274,56.34854
0.6614538,51.227913
0.726142,60.007008
0.6652834,53.75416
0.6014562,52.71322
0.45538786,54.37295
0.51242685,57.172615
0.49608004,57.128063
0.3557737,56.960354
0.44923818,58.72042
0.47014785,61.459736
0.54353875,60.632275
0.55956113,63.400566
0.59407514,64.93924
0.6376466,63.4155
0.7249681,69.56432
0.81986696,71.53127
0.850218,73.88212
1.0596011,75.1002
1.0138403,72.24292
1.116671,78.45268
1.2220919,75.60165
1.2739528,82.986496
1.2868345,81.58591
1.4417601,85.07241
1.4901382,89.450775
1.5563776,88.86268
1.5486832,90.91041
1.6402336,94.30471
1.6801367,93.467255
1.7065384,97.43578
1.8436937,97.47805
1.8123571,95.34154
1.9344335,102.88385
1.8298014,99.31428
1.8392605,101.6952
1.8119209,105.86091
1.9082657,102.2878
1.8607013,104.32237
1.7926118,101.492294
1.8446152,100.27916
1.813464,105.52976
1.7057302,100.34313
1.832202,105.44231
1.7426106,102.42897
1.6748927,102.59204
1.5840949,103.5457
1.7588967,102.726204
1.5969688,104.491806
1.5895206,102.83558
1.5547807,100.77781
1.3794152,97.56334
1.5556659,99.178116
1.499281,98.335686
1.4073697,93.395874
1.3404971,88.27881
1.4484228,92.07228
1.3174406,90.51918
1.4230485,95.84297
1.2855356,89.44038
1.18125,89.53616
1.1436058,86.99042
1.2532805,85.76817
1.2250268,84.583374
1.2247447,82.85579
1.2233796,83.11389
1.2629647,84.42764
1.1366032,86.46456
1.1191416,81.36793
1.1326462,77.97004
1.0463344,76.62981
0.98628306,76.66833
0.98452306,74.08127
0.9248847,76.62522
0.9301624,70.45706
0.80670196,71.371155
0.7420846,70.904274
0.7698682,72.94563
0.71033114,71.39931
0.77273923,68.305405
0.670768,70.12607
0.78968453,65.8362
0.6674771,65.13301
0.6754103,62.825207
0.567551,61.85247
0.7491613,56.657948
0.65823776,59.763496
0.6057064,57.460117
0.67085326,57.647568
0.6164924,57.03267
0.6121709,57.746338
0.5445793,57.832977
0.41641617,59.05298
0.5883226,53.134422
0.3838438,57.38977
0.32305378,56.93154
0.36750886,55.53157
0.3613306,53.535625
0.2268316,54.873432
0.24497357,59.543774
0.22882022,57.15225
0.24525525,60.09252
0.22083943,57.631966
0.13372652,59.79243
0.1884708,57.99978
0.06355521,64.63281
0.18496637,63.731853
0.27725655,61.704514
0.40946898,66.65534
0.3906465,67.23469
0.50127214,70.275154
0.44561714,69.7919
0.65410507,69.35333
0.6507485,77.548294
0.8031418,79.42945
0.825834,78.27648
0.96815324,83.68215
1.0827657,84.137886
1.1286113,85.43841
1.2115057,90.398346
1.2072523,91.55531
1.28005,90.872665
1.3586129,94.234505
1.402771,93.020996
1.35861,94.80016
1.4872352,96.10408
1.5540798,100.00512
1.5344117,100.01378
1.4234734,100.15314
1.3934582,97.70671
1.556549,106.361206
1.5957019,103.53917
1.463548,102.03718
1.3927362,104.98315
1.478974,104.43555
1.4449183,107.75509
1.3854647,105.051765
1.2989637,103.66055
1.3076389,107.04439
1.3505237,104.52388
1.2816638,102.851
1.2444588,102.91465
1.2798278,102.297905
1.119703,100.85339
1.239059,99.12794
1.1386175,100.89953
1.1543008,98.58898
1.0688186,96.601
1.130778,96.62108
1.0693451,95.211426
1.0531945,95.27359
1.128998,91.24261
1.0447149,90.13916
0.90502197,89.24386
0.9404189,89.65976
0.95971686,90.19067
1.058456,86.34096
1.0098364,86.04015
0.9557954,83.73182
0.9822768,85.983
0.8389153,84.61243
0.84253794,84.4552
0.740779,83.05484
0.7464463,80.00979
0.82313824,76.64809
0.74091506,80.02653
0.63321066,75.85223
0.56133366,74.20234
0.547124,75.841225
0.5107597,73.196014
0.5163263,71.048096
0.42657477,68.15993
0.45967016,67.96298
0.30903906,70.32951
0.3940362,70.30127
0.37055886,64.38304
0.3551867,62.679497
0.46632853,63.55941
0.3552579,62.781857
0.32346082,62.190975
0.36286804,62.10762
0.35440868,58.919136
0.29167345,58.07979
0.23759666,54.86484
0.4118265,56.91147
0.3119656,55.23056
0.15779623,59.77305
0.2396734,54.969517
0.2154022,55.639908
0.11123208,58.94977
0.094105765,52.280994
0.013605489,53.46115
0.05305263,54.97154
-0.054011233,55.96425
-0.016443342,57.73618
-0.04632041,57.324436
-0.16151899,63.10093
0.004445057,58.697334
0.0014910912,59.02272
-0.041185476,60.802525
0.04320724,63.213905
0.054975003,67.66861
0.13599962,65.76869
0.17594935,68.56556
0.27493992,71.05181
0.3222958,69.52322
0.51365894,73.798744
0.5954615,77.82501
0.5371535,81.1155
0.6818164,80.494354
0.86114156,81.666115
0.86462945,85.468994
1.0202489,85.2759
1.0482254,88.261024
1.0395479,85.68522
1.1359123,96.16739
1.2794276,95.050865
1.2427245,92.4126
1.273361,97.22217
1.323041,97.3631
1.338462,97.269135
1.330485,103.01759
1.3688078,100.49398
1.4528599,102.93197
1.3282784,108.00505
1.543961,102.91379
1.3894453,103.54172
1.3734227,103.282616
1.3250785,104.53721
1.3611164,106.21291
1.3429824,102.432785
1.3596264,102.47627
1.3391325,107.67371
1.2049617,106.390175
1.2251924,106.78319
1.2275738,104.14573
1.161291,102.093056
1.1651188,103.82652
1.0195379,99.5448
1.0310351,100.85718
1.0983051,100.98738
1.0266407,98.26327
0.96968067,94.4197
0.97499365,93.812614
0.92284995,93.09326
1.0875616,94.82771
0.97292614,90.25496
0.93390775,91.6822
0.9770813,87.781624
0.9497107,88.15168
0.8480446,85.641396
0.98685986,86.66958
0.9746759,84.9082
0.79052895,80.33432
0.81368554,81.240776
0.821732,80.164825
0.7320623,79.65277
0.76975816,73.930374
0.7278176,77.68139
0.55148965,78.30274
0.6639048,79.55877
0.52603936,73.38197
0.5823665,70.22286
0.517838,70.47145
0.6053873,72.37529
0.469317,71.72072
0.499902,66.47756
0.45989203,68.49777
0.360841,65.50792
0.4179561,60.536526
0.42354044,64.85792
0.47984764,62.776344
0.43320376,61.81401
0.45751205,61.09833
0.40602362,60.538086
0.49354872,59.71544
0.4267555,57.379635
0.34469846,57.53531
0.37267187,57.18675
0.33743104,56.1825
0.3707868,56.589283
0.3008314,57.7295
0.2518636,56.784943
0.3014967,55.077404
0.16666353,54.402153
0.198849,54.116623
0.16978225,53.857487
0.12939568,57.479122
0.12867528,57.522194
0.010338913,59.625854
0.05299886,59.192425
0.12803699,60.33727
0.1596697,59.758236
0.10547759,60.193207
0.20461898,63.44856
0.30106774,65.17782
0.217811,64.10039
0.31833225,70.858864
0.53852147,67.66578
0.57419485,72.34314
0.6484979,73.5818
0.79406774,74.491035
0.90966827,82.43927
0.94221437,82.89398
1.0314122,83.689156
1.1201078,84.31724
1.1894855,87.97555
1.2474678,90.818855
1.344416,87.621086
1.3603324,90.935165
1.5009079,93.60087
1.4934908,93.760345
1.4817954,93.615036
1.5234185,98.33186
1.5639163,101.97975
1.5356549,104.2908
1.6445823,104.95398
1.5119388,103.91174
1.562498,104.477394
1.5786446,101.651276
1.6316755,104.27732
1.5879499,108.23326
1.5722626,104.90258
1.6327558,108.157845
1.4801962,103.961845
1.4791845,108.36295
1.5001953,103.41309
1.5192083,104.07613
1.5272775,105.47882
1.4259862,101.188194
1.3309157,102.0407
1.3851862,103.04115
1.3554038,98.072296
1.2608147,100.571655
1.2968825,99.31886
1.3144978,97.5746
1.2600982,96.629524
1.2260077,94.20173
1.2997298,94.44257
1.3015147,93.51449
1.3335165,93.03723
1.2306275,90.50444
1.1918589,87.69163
1.1918054,89.29529
1.2533183,87.11322
1.3269029,86.28094
1.1905632,82.75095
1.1573291,81.413376
1.2148232,80.25003
1.1806343,79.366905
1.1433986,78.09812
1.099529,79.60279
1.0496818,79.407745
0.94758826,78.01135
0.9822623,74.084015
0.8619862,76.442924
0.945104,72.53131
0.8653974,69.087204
0.80727553,73.730316
0.811823,66.05391
0.7641395,68.05767
0.7075132,67.18981
0.7689105,65.07763
0.7876258,65.393715
0.75930226,62.891026
0.7592137,66.53413
0.81477636,62.471428
0.7905979,60.739388
0.71621704,62.271156
0.68681175,57.956715
0.7519132,53.83662
0.63439626,58.192062
0.6968263,57.532066
0.637776,54.435234
0.61197156,55.536877
0.6095681,55.52369
0.5831004,54.954594
0.5380705,57.145103
0.6203403,54.428043
0.499517,58.498543
0.52349013,54.739784
0.46487796,56.56881
0.48939168,55.80903
0.37724754,58.697723
0.40743646,57.66008
0.4662461,61.28241
0.50366503,57.79548
0.5072178,60.126923
0.61457276,67.56609
0.58637816,65.275185
0.62928045,66.36655
0.66917366,66.059555
0.89111894,72.76532
0.90024394,72.937004
1.0305144,73.75039
1.0237386,72.03329
1.1946547,80.203804
1.3569162,79.32986
1.375568,85.85567
1.5152617,87.52859
1.581838,85.890495
1.608919,88.88321
1.6016599,86.88018
1.6962585,95.00869
1.801272,95.07651
1.9279448,98.69701
1.8390017,97.03279
1.82668,98.98452
1.874562,98.57178
1.8986748,103.71698
1.9318787,103.604294
1.968449,104.9017
1.9907883,100.551186
1.9852717,106.74017
1.9964626,105.28435
1.7827039,106.47782
1.8653055,104.84172
1.8888844,100.99
1.879793,104.329445
1.8169166,103.7878
1.8162086,106.20469
1.7255694,105.685905
1.7810671,102.90433
1.7673017,104.07077
1.7494484,101.28438
1.642845,100.07324
1.6401247,99.24746
1.614375,98.30698
1.6807561,97.77331
1.7059075,95.01753
1.6107255,96.246735
1.6387874,91.48147
1.4463971,92.08493
1.4628496,92.452415
1.5075302,93.306694
1.4982708,90.68017
1.5088392,86.86523
1.4889222,85.69851
1.525099,86.4237
1.447098,80.00696
1.4004521,84.13875
1.459915,86.311226
1.4853005,80.57116
1.3039069,77.57344
1.3628919,76.86124
1.2256057,78.85357
1.1623509,76.33889
1.255218,73.191505
1.1532553,76.80095
1.0481111,71.24845
1.1507155,75.02452
1.0875672,74.90084
1.0366396,71.54378
0.9548848,70.26083
0.97294587,67.86145
0.96009636,66.25557
0.89754397,64.576454
0.8714308,65.247505
0.9398591,64.33914
0.96320945,65.6873
0.8957104,61.788536
0.90904176,63.442215
1.0181137,60.281788
0.7422904,58.568462
0.89643115,55.652653
0.92387223,53.815914
0.91849005,61.356453
0.8973261,56.986958
0.8059712,51.570473
0.7658284,57.029892
0.71654856,55.25809
0.76675296,56.815815
0.7360773,55.87283
0.66468537,56.31213
0.553995,57.071625
0.5346339,53.173035
0.5091547,59.35299
0.55398715,61.842335
0.53822654,58.87873
0.6091139,64.619
0.51194704,65.71298
0.6366608,59.765404
0.6297236,64.54511
0.737543,64.92256
0.7818999,66.34951
0.8897433,70.99712
0.9069141,71.80486
1.0055625,71.127144
1.0857673,74.47991
1.2633418,77.02061
1.3780307,79.086105
1.3530023,82.58029
1.4379402,83.92382
1.6315264,84.877144
1.6186186,85.55075
1.8052872,88.97344
1.7628723,86.39172
1.870515,93.627464
1.8785928,92.31081
1.7408038,96.432526
1.8414876,101.448746
1.9046227,98.95311
1.9354353,101.2492
1.9466729,102.059814
1.8764931,104.13293
1.9507288,101.26961
1.9776174,101.173
1.9547284,105.29161
1.8953907,107.01822
1.8496503,104.9446
1.8515853,105.45835
1.8200517,104.46868
1.76962,105.001015
1.802956,104.143105
1.6817479,102.02779
1.7550825,103.20956
1.7773045,101.058014
1.7045461,103.10138
1.6792078,97.94018
1.5740271,101.67738
1.5699862,102.51897
1.6316999,97.27018
1.48069,96.36638
1.5404001,92.87949
1.5270361,96.489815
1.4401294,93.54544
1.5137709,92.49152
1.438284,90.20787
1.4414701,88.39527
1.496457,90.61752
1.3003563,91.25608
1.3695481,85.05
1.4115231,85.48642
1.3579106,86.54312
1.351088,83.65345
1.1781441,79.79497
1.232666,78.4774
1.2357643,82.757706
1.1419175,77.78893
1.107274,74.53834
1.0636629,74.20444
1.0959537,70.56656
1.0658413,72.66293
0.9399,72.64599
0.8771693,68.58286
0.86791676,73.0788
0.86294365,70.484184
0.8248119,64.75849
0.7779402,67.33772
0.8424955,68.5186
0.7498013,64.86605
0.7777173,61.84505
0.7426815,60.18458
0.68853074,64.79788
0.7342863,61.32026
0.6698565,57.15438
0.68594265,61.10778
0.77609515,61.115032
0.6855956,59.76679
0.5083308,58.061237
0.73496133,53.00174
0.6260557,54.415504
0.5763086,56.95644
0.6191773,52.701744
0.52555716,53.081913
0.49711764,56.24588
0.41405317,54.16934
0.38932472,50.552162
0.38596976,56.389816
0.24955702,58.068405
0.24991255,53.764675
0.20972799,58.54704
0.25431764,60.40645
0.30586988,58.195988
0.3217418,56.0901
0.41567823,63.56145
0.40657857,60.67463
0.49563774,64.653305
0.53990364,69.448425
0.5841322,67.39481
0.5927415,74.69242
0.8570293,74.04294
0.8939873,77.94778
1.0234928,78.95862
1.1371739,79.29084
1.1325537,82.45818
1.1481827,85.144226
1.3260294,86.68194
1.2594874,86.26616
1.3739319,89.31989
1.4280467,88.14774
1.4733217,92.81152
1.4911573,97.269295
1.524252,97.37382
1.5826616,97.092476
1.5894574,99.07663
1.6062871,100.43148
1.5280298,101.349945
1.542871,107.34713
1.5169739,103.4025
1.6868024,105.47443
1.599135,105.85589
1.6591083,103.900116
1.53959,103.608986
1.4799213,104.55608
1.4943421,104.925606
1.5435996,103.27915
1.4674596,102.37432
1.4943304,100.59993
1.4106313,102.38508
1.397039,101.79558
1.464539,100.41545
1.2965617,101.91003
1.241962,103.0696
1.2833833,99.41932
1.2347475,97.7585
1.1414803,93.37047
1.1344174,96.492676
1.1639291,96.351746
1.1281835,93.24427
1.1142145,92.77472
1.0430876,91.51967
1.0445948,93.26918
1.0600603,89.23716
1.0920863,88.52008
1.0187012,86.54756
0.92192733,84.5378
1.0664985,86.9566
1.0460193,83.250305
0.9875383,83.58408
0.97031206,80.2068
0.9066574,80.467186
0.82003814,78.02992
0.79031765,74.44275
0.7396072,77.89582
0.7407882,75.822075
0.6534527,74.86494
0.5637802,71.64693
0.64776987,72.22305
0.6003319,72.407745
0.48183942,68.48247
0.51840174,68.396645
0.44601217,69.16543
0.474708,71.01248
0.44921872,66.012764
0.42412376,67.43022
0.38186002,65.62787
0.42215255,59.544765
0.44381064,64.15541
0.31858507,57.583458
0.42452443,59.984474
0.39247406,58.337883
0.39987645,52.318085
0.35551763,58.300144
0.26701665,55.730103
0.32559285,55.114635
0.24884772,54.778076
0.18071519,53.256126
0.24615669,56.158134
0.091562636,54.39277
0.07535762,57.183136
0.05561821,56.085167
0.073925495,57.15361
-3.5701454e-05,57.926144
0.055231567,57.61009
0.0324868,56.799522
-0.052231994,57.636597
0.007579528,59.450043
0.038947307,63.366425
0.08213621,63.815964
0.1558857,65.67583
0.23104548,66.340256
0.3233755,66.62715
0.35692456,73.6406
0.51035875,71.02958
0.57988214,72.40242
0.6035829,72.56288
0.7037376,78.75607
0.81056446,81.55697
0.92010456,81.209145
0.96278495,84.492424
0.99573636,87.8719
1.0683638,88.891495
1.2108289,88.70323
1.223472,88.60182
1.3302548,95.25103
1.2224357,95.58202
1.2913353,97.84542
1.3040806,100.59164
1.3401315,100.10969
1.401782,101.91772
1.3305144,104.21516
1.3619674,100.23253
1.3481002,106.38543
1.3256693,103.956314
1.3720423,104.063805
1.3406073,106.33155
1.3425928,102.30755
1.2964798,108.008804
1.2850708,104.34447
1.2028956,108.97221
1.3031188,102.54115
1.2355393,104.48255
1.2385479,103.4387
1.1603674,103.44924
1.2173351,100.75706
1.1530749,97.89792
1.0849782,97.91566
1.0647832,97.767494
1.0156292,97.45418
1.1024212,94.77168
0.9683825,99.24413
0.94547886,92.65712
0.9464406,90.94631
0.87331456,94.18524
0.89875215,91.72705
0.88270473,89.81035
0.91118395,88.21166
0.88551015,88.99634
0.8969304,86.48147
0.868969,87.60988
0.8045414,84.74081
0.9017819,83.55238
0.7873036,79.04036
0.81931907,82.29108
0.785363,82.997055
0.7042168,75.464615
0.6180145,74.64432
0.61850965,77.608986
0.53637064,71.80728
0.5267978,72.56198
0.54428107,72.27082
0.5111145,70.12802
0.40981093,72.1243
0.4949679,68.34734
0.39819908,67.83697
0.35957098,67.40928
0.3845443,62.545433
0.35048825,63.92658
0.30734837,68.832245
0.33823103,60.764523
0.34926033,61.022892
0.36030728,59.727715
0.3632284,60.50781
0.3155568,56.530968
0.36510035,60.675816
0.37534294,56.6505
0.3328787,56.028145
0.14430244,56.43947
0.22234048,60.50326
0.1732409,53.654327
0.19872661,55.392906
0.28373164,58.15221
0.103611715,53.210938
0.09668367,57.038017
0.035597056,58.790085
0.09330625,55.61377
-0.01853598,59.09679
0.08104376,57.833977
0.0070427824,58.903393
0.043120123,61.274834
0.058874525,62.30049
0.036097415,58.282307
0.11067881,67.21695
0.20845869,65.8443
0.20651019,67.97159
0.3180759,67.01081
0.32078096,70.00428
0.48826572,76.42818
0.6654112,72.9189
0.7610687,75.96474
0.7360985,77.937965
0.88877195,81.57199
0.93795264,82.34854
1.0602787,87.41484
1.1111183,85.72668
1.2536612,88.424126
1.2170159,93.29944
1.3489308,94.2725
1.354879,91.71407
1.4398105,94.11783
1.4433829,95.81417
1.4228071,99.49029
1.4997427,103.08583
1.5436589,101.775696
1.5335803,99.07421
1.5364712,102.21053
1.4849617,102.14503
1.4292884,109.74526
1.5420663,108.97373
1.4570647,105.27046
1.5424873,108.82155
1.4545636,100.9942
1.477847,102.82028
1.4710771,106.26996
1.4537208,106.862366
1.4215139,104.57286
1.4319221,104.37221
1.3431132,101.66491
1.2786098,99.8582
1.3226547,101.07297
1.2933891,99.91297
1.2380413,98.38983
1.2928675,97.4737
1.226207,96.095535
1.1996801,96.86226
1.1840178,93.419876
1.0969211,88.55807
1.0676513,93.117065
1.2069775,93.17747
1.0213099,87.339935
1.0491198,85.29743
1.1032106,87.72345
1.0875499,86.639084
0.9532021,84.36363
1.1262352,83.84246
1.0765003,82.93258
0.9264134,82.36951
0.9549923,80.20501
0.9309087,76.152954
0.8864741,83.816666
0.8774896,78.688736
0.8536845,76.615456
0.8910462,74.70811
0.7986771,74.82869
0.66611326,72.63434
0.7949253,72.59412
0.54854095,72.36642
0.6739132,70.11839
0.69855887,70.08425
0.6288809,66.55688
0.60198045,67.87898
0.55265766,61.03689
0.66061854,63.298805
0.68165416,61.478504
0.56940633,59.83592
0.6124878,59.12375
0.6898294,60.438034
0.6231979,57.134476
0.5603227,59.271244
0.47448823,56.99714
0.595544,58.379093
0.632043,56.31783
0.5462251,55.22471
0.5232671,56.357914
0.48067623,58.796314
0.38438115,58.327087
0.38709116,54.30875
0.3569067,56.56063
0.33054754,60.23412
0.42209202,60.25199
0.33272332,56.53432
0.27510232,54.89476
0.36480236,59.748974
0.23987883,63.388683
0.3768216,57.190617
0.40432903,58.63909
0.50587213,66.01006
0.579848,60.655033
0.59897923,70.34226
0.6486145,67.93596
0.7744072,73.50826
0.8836474,77.634155
0.97514224,74.96134
1.0143642,77.68736
1.1261395,80.669174
1.2839901,78.53312
1.3346856,80.84409
1.4466534,85.9648
1.4252772,87.32395
1.6248204,89.91998
1.5574392,93.82957
1.6558552,92.58902
1.7016603,94.486786
1.6875263,98.07696
1.753566,95.40968
1.7297176,102.54103
1.7778805,100.16378
1.8281268,101.78758
1.8582976,101.12821
1.8649877,105.62582
1.8374584,101.49926
1.9174412,102.69841
1.8509736,105.98717
1.7936872,108.374725
1.7414337,101.628624
1.8701053,102.78625
1.824689,102.901855
1.7687521,105.864494
1.7671617,106.9022
1.7205405,103.77139
1.767961,100.43071
1.7110375,103.40067
1.5534161,101.64846
1.5765506,97.329865
1.5853182,100.10694
1.4804606,97.92281
1.4708979,101.21623
1.552701,97.21634
1.5598367,96.58256
1.456689,91.59
1.4278854,96.311485
1.4790628,95.620834
1.4515053,89.80229
1.4910251,90.48864
1.4691021,88.59521
1.4496554,87.106384
1.4563454,83.68591
1.3346796,84.02623
1.3530085,81.39329
1.3646891,81.15984
1.3259567,83.33162
1.2657236,80.65331
1.3583492,76.43946
1.2866335,75.51298
1.2079848,75.0983
1.1438429,75.45586
1.1420641,74.89331
1.1414987,70.051765
1.0267301,69.17354
0.9547871,70.84936
1.0344867,70.37314
0.9827954,68.68027
0.9967196,67.83923
0.9794423,65.59458
0.9162089,66.04414
1.0061891,63.863716
0.95391226,63.929943
0.8917786,62.868374
0.92178464,60.681755
0.85407704,63.114395
0.88796926,54.211113
0.9389607,54.486385
0.8283936,58.11019
0.9699761,56.292072
0.77318615,60.8003
0.8525168,57.191246
0.7646516,54.673103
0.7061181,56.979958
0.72056323,56.606247
0.7116244,53.76206
0.6679339,56.517704
0.6727811,54.863705
0.57391566,57.974564
0.5250947,57.837784
0.5137365,58.06427
0.4736267,59.43727
0.5307533,60.811775
0.5482514,56.587585
0.5301368,61.17864
0.59679246,63.517475
0.6285733,66.93978
0.8628965,62.937485
0.7727998,65.02107
0.9726796,69.21522
0.98134255,72.27224
1.0685413,73.65565
1.1482805,73.136185
1.2340986,80.75012
1.4315677,76.71815
1.4871674,81.48258
1.426756,82.228134
1.6405602,83.765816
1.7186916,86.472305
1.7710515,91.10375
1.7960299,92.722435
1.8156548,94.95493
1.8193054,88.80172
1.8404132,99.883415
1.935012,98.7239
1.9678277,99.642784
1.8527236,99.545334
1.9587646,104.664154
2.0182087,102.62072
1.8738371,103.80702
1.9012233,105.71239
1.9138004,105.02731
1.9908242,104.55478
1.9667174,107.77748
1.9271492,103.34184
1.8621857,106.625275
1.881679,106.18719
1.9354894,102.520065
1.836404,100.734764
1.8876345,99.56181
1.8171605,102.79553
1.6805375,101.3415
1.7328482,99.95217
1.6553873,95.825096
1.6762869,102.74784
1.6267378,93.71896
1.5886401,95.811005
1.5161481,97.2482
1.5950508,92.9751
1.5588585,91.06056
1.5528113,93.48377
1.4468797,89.38514
1.4617174,92.780334
1.4884272,88.098045
1.4706976,85.83556
1.5115268,85.29455
1.4672256,86.5284
1.5413281,86.47681
1.3679488,80.85142
1.370211,82.97372
1.2473909,82.169556
1.2827389,82.85245
1.2866709,79.213326
1.2017432,78.33804
1.0522658,76.317505
1.1058946,70.858345
1.01188,77.67462
1.0605146,72.47934
0.96450275,67.45933
0.9325756,70.54383
0.9287909,67.8851
0.9606474,68.40938
0.8288115,64.253845
0.83963645,65.4615
0.80993116,66.6996
0.86748326,61.520725
0.8675914,64.96068
0.8675817,61.88696
0.8243889,61.42507
0.88837224,62.926823
0.8573931,59.759293
0.9567682,58.87183
0.7661017,57.292755
0.83999926,59.71065
0.7402959,53.3595
0.66754663,60.1012
0.6489983,55.27079
0.59501094,58.046486
0.6036935,54.730145
0.5774862,53.027557
0.5481457,57.38797
0.51414067,54.271152
0.486769,57.292305
0.4675679,54.17876
0.381679,58.792736
0.4896959,56.61072
0.5064142,58.413113
0.36367443,60.840103
0.39772275,59.948
0.4192067,65.29733
0.48766991,67.71932
0.52284414,65.642685
0.70035166,69.27668
0.79603535,69.92153
0.9061662,69.108864
0.8064817,72.413124
1.0017749,74.480316
1.0599016,76.6034
1.121215,82.024666
1.282375,81.39213
1.3536679,83.290855
1.4080462,82.458435
1.4954942,90.94245
1.5808424,90.24331
1.6541828,94.02421
1.59838,96.41251
1.5846857,99.060745
1.7198765,99.920876
1.7361472,96.9423
1.6375111,99.657234
1.8110563,100.791824
1.7817285,103.05634
1.7743515,103.08545
1.8971603,102.98385
1.6779094,101.79131
1.663167,103.10897
1.6682905,102.76074
1.8202505,106.271255
1.6326978,104.664024
1.5677905,107.886444
1.5473013,104.313324
1.5435237,103.78315
1.6287476,101.23246
1.5282087,103.238
1.4842309,102.94943
1.4842527,100.32346
1.451699,98.723785
1.3664391,97.12814
1.3925172,102.65226
1.378414,98.91076
1.3069243,98.26041
1.2618587,97.594536
1.2538096,91.32966
1.2558532,92.52667
1.2823553,93.21967
1.2053863,91.95478
1.185745,93.33451
1.1373223,86.33073
1.151007,87.72346
1.0902451,87.41121
1.2156283,81.52068
1.0967176,81.66611
1.007996,82.30381
1.0634035,76.934654
1.005949,78.290504
1.0009024,79.78053
0.8533769,78.25388
0.91549873,76.90929
0.8140845,78.276596
0.8827098,74.30069
0.7583849,77.13809
0.726371,70.59296
0.6751586,73.23074
0.6181453,69.68548
0.6324111,73.23336
0.6155021,70.95029
0.49492645,70.76844
0.48572132,65.1954
0.5632136,65.99909
0.4713578,64.48231
0.503889,65.13632
0.5342967,59.745605
0.48051018,61.301826
0.51583934,60.510014
0.5518374,59.591743
0.48225924,57.80531
0.43904382,58.76196
0.40961853,55.314995
0.42060876,57.77948
0.3587577,56.677784
0.25139388,56.28192
0.32628828,57.647472
0.27474558,51.649925
0.15482001,54.320248
0.16484746,54.152874
0.012955826,52.125248
0.074601635,52.922855
0.10156138,60.401714
0.05408037,58.417854
0.02747137,58.01927
0.20622376,54.529305
0.08743882,60.423664
0.14270523,62.89153
0.13120356,62.336452
0.33494824,66.2176
0.31978187,66.84997
0.39483327,67.53401
0.40337574,71.1315
0.57305175,76.34471
0.64290017,75.402794
0.65417135,76.97769
0.7723839,79.850784
0.8647545,78.30282
0.9208124,83.28358
1.108799,85.64757
1.2014438,84.08379
1.1691338,88.44928
1.1808954,92.18183
1.2714913,91.3014
1.3572193,92.00631
1.2560105,93.38192
1.3854431,97.40477
1.3438933,96.199646
1.4145442,103.89577
1.4100156,103.53269
1.4402813,99.96407
1.4284698,100.18609
1.4239252,109.53302
1.3512967,104.26769
1.3668723,102.256065
1.3285525,107.560486
1.3825392,105.66458
1.3332914,104.37881
1.3384451,107.42333
1.3407726,105.59267
1.3076838,105.71163
1.245458,103.7737
1.1195241,97.5458
1.1491861,102.032455
1.1734387,101.99026
1.1314007,100.61752
1.0638033,97.07071
1.0664294,96.9698
1.036826,100.99967
1.0793623,95.341156
1.0836251,95.70578
1.0127825,96.523384
0.9615939,92.99034
0.9342315,89.2204
0.94555813,91.22746
0.96005803,89.062836
1.0124269,86.824394
0.85853404,86.63959
0.923961,88.989105
0.8364671,87.30817
0.8602357,82.1531
0.8773108,80.57171
0.8686506,79.06135
0.72372174,79.60987
0.69883895,77.710884
0.7797736,79.86199
0.62886316,73.6038
0.61352295,76.756165
0.54720306,79.1324
0.5032923,72.48997
0.54571116,74.24114
0.3810593,73.61953
0.39314753,69.68466
0.47402972,65.73923
0.37851167,68.17455
0.26139268,66.624756
0.28273603,64.44599
0.32480043,65.46489
0.43942493,61.60803
0.33979583,62.11977
0.323385,62.083344
0.3416511,61.347786
0.27706343,61.504375
0.26715323,57.901047
0.42394537,56.591125
0.21495011,57.82877
0.31144354,58.97502
0.20303369,54.417416
0.2783119,53.880604
0.27261516,57.165512
0.07134887,54.82676
0.11484599,56.117146
0.09670552,57.90942
0.047191165,56.189552
-0.038083564,53.009716
-0.032622676,56.205734
-0.017083833,56.461967
-0.0593556,56.42924
-0.11821184,59.58977
-0.081871115,61.217052
-0.008415198,61.221146
-0.00078400574,62.691982
0.15031864,63.717274
0.15576814,66.22678
0.13009988,68.219284
0.27675152,69.83898
0.3415191,69.088135
0.4289446,72.270706
0.5380617,76.537865
0.63091433,81.074135
0.7564541,80.45088
0.8721606,82.11674
0.91121465,82.40872
1.041391,84.921814
1.084454,86.11471
1.1377375,90.983154
1.1998434,92.79616
1.2434886,93.64238
1.2851679,90.53602
1.2992628,97.6022
1.40277,98.80904
1.3018874,99.17816
1.3929154,104.11067
1.3857503,102.64732
1.4276865,103.52569
1.3725477,103.60811
1.4099928,105.49942
1.3752575,105.45627
1.4237142,109.62856
1.3069609,106.41294
1.4024196,102.20858
1.351142,105.558426
1.337296,100.34252
1.366042,104.32797
1.2245038,103.650894
1.3941032,101.91393
1.2186598,106.88531
1.2063893,98.35216
1.1637127,98.05289
1.2012511,103.23332
1.1043711,101.02092
1.0241566,97.968216
1.0825822,99.63371
1.117587,96.77899
1.0691241,94.70296
1.0731099,93.772026
1.0426177,95.01971
1.0687175,93.01121
0.9785126,93.26111
1.0009884,87.85215
0.94469345,90.87013
0.9631656,86.44357
0.96971285,88.76944
0.8685585,83.37752
1.0718751,88.00014
1.0316267,84.61938
0.9773589,81.51819
0.9767751,80.64913
0.79892033,77.84502
0.83943343,78.94558
0.76483244,76.6013
0.67566085,73.759
0.66652006,73.48625
0.6930269,71.20868
0.57342285,73.31428
0.5841169,72.15994
0.6764768,70.26125
0.54150313,71.515434
0.5289583,67.72589
0.49226013,68.84209
0.44078794,62.771893
0.5088548,61.500626
0.48766726,60.063404
0.45900854,63.44632
0.5625321,57.219254
0.52271366,62.557934
0.56427044,59.92541
0.51997524,57.679302
0.55298895,53.798454
0.53562474,52.746944
0.48641175,59.001984
0.34109583,57.225315
0.41533282,58.872387
0.35102844,53.832863
0.3471572,55.34079
0.32749766,57.022366
0.2791648,54.540443
0.21319151,54.583344
0.22679862,55.867886
0.2456279,60.307243
0.18372785,54.55692
0.22221318,53.849316
0.23717046,56.167847
0.15861456,57.485313
0.2094145,62.889057
0.28536952,64.00189
0.428378,64.617195
0.4237524,67.13346
0.4504047,66.99858
0.5201501,70.452324
0.665312,71.86569
0.77740663,73.863
0.94245815,78.1796
0.9226481,77.32417
1.1118214,78.80753
1.0609844,82.530815
1.1650176,84.12064
1.3663356,84.31457
1.3725787,86.9878
1.4590698,87.997696
1.5987675,88.98632
1.5789247,93.85107
1.6484061,96.26127
1.6163057,98.31843
1.6861248,94.63942
1.6500998,100.05067
1.6819836,102.63104
1.729832,102.92261
1.6870596,102.76017
1.6854078,103.16832
1.7682406,101.54482
1.7343489,105.93935
1.7837,100.52142
1.7384933,106.60625
1.7424182,104.73133
1.7407285,103.52423
1.6494118,103.33632
1.6526678,102.715416
1.6912351,104.01038
1.6025126,101.80268
1.5845528,101.207886
1.5482129,103.6606
1.4730674,103.590836
1.4490238,97.75536
1.4402404,96.71787
1.48395,98.31442
1.4208795,95.7431
1.419411,97.23336
1.3329263,95.363
1.343125,92.26572
1.3000401,91.542564
1.3700469,93.50329
1.3657357,92.58293
1.3301957,89.7556
1.2234244,87.13045
1.3801126,84.35839
1.310275,87.23287
1.4038904,83.859985
1.2148522,84.09009
1.2228698,81.63263
1.2679151,81.475716
1.1230584,80.800446
1.2760259,78.67958
1.1546863,78.5061
1.0308341,77.313515
1.0412732,77.28178
1.009005,73.951645
1.059807,74.7938
1.0081513,71.125534
0.9547094,70.864296
0.90177983,70.01351
0.88882977,68.99313
0.7986604,67.57789
0.79407597,67.123375
0.9063334,66.37939
0.83959347,64.62632
0.95038944,62.708157
0.8263963,60.057835
0.8663371,66.60623
0.879517,56.31838
0.7949016,60.775845
0.7267114,58.372707
0.874225,57.878723
0.79684466,55.672764
0.85582364,54.661823
0.70185935,56.67228
0.7175354,55.657948
0.7433495,52.692287
0.6556765,55.723324
0.67021984,57.439274
0.59815866,58.341457
0.60479146,56.40976
0.47357574,53.46269
0.49618462,55.654114
0.46555474,55.62696
0.4581037,58.918613
0.5629302,57.572346
0.58770245,60.20223
0.52248406,66.97679
0.6054188,61.93105
0.70307153,66.59666
0.74798995,65.021706
0.8695113,69.034584
0.9420395,72.64996
0.9416659,70.88947
1.0890594,75.3654
1.1305536,76.47267
1.3026268,78.8451
1.3448828,79.256096
1.4669383,82.63641
1.4701562,84.7393
1.6122936,88.61799
1.6555338,91.329445
1.7384909,94.256935
1.707764,90.33238
1.8950744,95.084175
