ppg,abp
0.9941098,97.365486
1.1452525,98.33864
1.249568,100.73181
1.3161931,102.791245
1.2747787,102.0471
1.4811809,105.89771
1.6124246,108.51773
1.4757338,105.54203
1.554629,110.2261
1.5663824,112.39027
1.7274678,112.31843
1.6632781,115.41899
1.7254764,113.17541
1.7854664,116.26921
1.820368,117.17608
1.783952,117.013115
1.7409858,116.46868
1.6042585,120.04378
1.7057887,117.647026
1.6445961,121.14755
1.7013634,118.97493
1.5988922,119.10575
1.6801032,117.384155
1.5346373,121.71109
1.5732396,116.78426
1.5587399,118.19285
1.5677614,117.800285
1.4418734,114.40871
1.4586885,112.07569
1.3712348,114.88315
1.375035,114.404495
1.379375,111.57325
1.4102675,113.030785
1.3941183,107.29249
1.3139921,107.54559
1.3593563,108.481346
1.3579503,106.110916
1.4177006,112.207634
1.3486171,103.80039
1.3369402,104.18165
1.3478386,102.81067
1.3049483,101.4035
1.4037766,100.533066
1.2992859,99.52859
1.2407835,96.94006
1.2309383,97.453
1.1966519,95.550476
1.1740711,94.22764
1.0754039,94.48964
1.1046154,93.35988
1.005562,93.17281
0.9697697,91.29175
1.0370268,87.96355
0.93623406,85.95622
0.85527426,88.95478
0.83900887,87.57058
0.85719705,84.09553
0.78621966,83.59716
0.78651524,82.89652
0.846166,84.65769
0.8505012,80.10865
0.8584984,81.7764
0.91425246,78.057915
0.73186517,78.50547
0.73121554,74.247696
0.79535204,77.72355
0.70411026,80.308464
0.8784793,77.5263
0.8006336,73.42914
0.7300176,76.42872
0.69399464,75.31324
0.710383,74.84862
0.71459687,74.910095
0.58097935,75.163155
0.59085304,72.47856
0.56465024,73.724365
0.4241569,74.1724
0.5013813,76.15534
0.45380965,76.48972
0.5090313,76.61785
0.5586102,78.33638
0.4446031,78.27864
0.5247399,79.40726
0.55950457,79.6969
0.6126397,82.602104
0.62873554,84.55255
0.7604948,84.60738
0.94251066,90.554955
0.994851,89.17788
0.97294277,90.584724
1.130197,93.76503
1.2774649,95.95357
1.408097,100.6887
1.4948746,98.73292
1.4895039,100.99792
1.6182774,104.21559
1.6756735,103.799934
1.7524011,104.172195
1.7940674,109.54377
1.8044075,107.83877
1.8031924,112.687836
1.8968868,112.10579
2.000752,115.0832
1.9376605,118.001236
1.8512859,113.86132
2.042055,118.754425
1.980385,117.65191
1.9687115,118.163246
1.9271863,117.55382
1.8616775,116.41409
2.0099964,119.10816
2.0469482,120.244125
1.9236375,117.60825
1.9072465,118.90829
1.8774159,117.38956
1.8682543,118.74749
1.8490882,119.943985
1.7103279,118.11011
1.9359254,115.054184
1.5760128,117.65362
1.5676498,115.26574
1.5950893,111.22012
1.6478903,112.69312
1.7399412,113.26114
1.6083212,111.66237
1.506421,108.83603
1.5484549,108.990486
1.6002787,108.543915
1.4799821,107.93759
1.5538273,105.712456
1.4423777,107.76521
1.6253561,103.2279
1.5034035,102.39359
1.4323297,100.17837
1.3780372,100.876724
1.4067266,99.41217
1.3968678,98.182755
1.4388961,94.53386
1.4077379,95.65732
1.1620971,91.525085
1.2026008,96.42347
1.2022387,92.44811
1.244765,89.92987
1.0125301,89.9651
1.0440599,91.55803
1.0338101,87.684456
1.1096215,86.77832
1.0055256,86.73923
0.99693674,82.85605
0.8200303,85.25338
0.8997695,83.401955
1.0027092,82.44514
0.77285445,83.71465
0.94541466,79.45
0.8817914,80.3527
0.83960444,80.27583
0.82064724,77.93916
0.8949997,79.454575
0.8503784,76.82875
0.81542486,73.26477
0.86048216,74.521774
0.7742154,73.47609
0.6831501,72.84736
0.8032437,74.968124
0.599793,73.1574
0.62110806,76.22148
0.46780396,74.14207
0.56395674,72.896126
0.44464865,72.82159
0.57523835,78.75075
0.53449625,77.85601
0.5037964,79.44357
0.5109048,76.73496
0.54604495,81.138275
0.45753732,81.88776
0.64509064,82.42135
0.7378199,82.70997
0.7323034,82.467026
0.85872614,86.66369
0.9128589,89.63929
1.0847399,90.7911
1.1367689,94.53348
1.2564958,95.02153
1.2417152,97.73699
1.5203768,96.64308
1.3827581,101.38901
1.498573,103.02802
1.6904945,105.36153
1.614094,110.033295
1.7430637,108.606476
1.6749929,114.22609
1.7808913,111.56945
1.6573266,114.14202
1.8479829,114.63325
1.7661914,114.64152
1.9495893,114.94175
1.878483,119.11464
1.9260318,118.329124
1.8801185,117.77069
1.8703467,120.188644
1.8230565,116.98634
1.8505815,121.600624
1.7441703,121.62166
1.866439,119.264854
1.8540236,121.260864
1.7303073,116.02341
1.8114727,115.91382
1.6510267,119.46764
1.501616,116.61022
1.5723336,114.833725
1.6942447,116.660355
1.6304432,113.90379
1.467453,115.72654
1.4261166,114.39331
1.4446284,114.15212
1.3650304,108.05161
1.504767,111.01601
1.265454,106.57148
1.2907201,107.383
1.4197919,105.3318
1.1884999,102.04558
1.2124484,104.13229
1.3539429,104.8806
1.3097502,103.42034
1.2186452,102.42038
1.2690662,100.05937
1.2158209,99.39999
1.197985,98.4925
1.0749096,96.431885
1.1686069,96.95894
1.1185161,94.83693
1.0031834,94.36753
0.94206387,91.270035
1.0096456,91.894424
0.8284257,93.33285
0.89194894,88.49719
0.8090713,87.34739
0.70370466,86.67801
0.7060832,85.9777
0.6989675,82.94826
0.7789259,84.480545
0.75071955,84.85715
0.74061537,81.8767
0.61424947,82.95716
0.68998355,81.928535
0.6369306,79.652115
0.69404304,80.86796
0.62328357,80.432884
0.70414096,76.299934
0.56460834,76.1421
0.70113635,77.20125
0.5853354,72.04541
0.5462804,76.697845
0.5328688,75.33754
0.40443885,73.41384
0.5186355,75.11856
0.35656407,74.111885
0.21063478,74.19175
0.17910062,75.796265
0.12625222,77.33548
0.17698385,75.017975
0.16927274,76.24634
0.15023796,78.577324
0.21224104,75.436935
0.22781488,75.67609
0.25593868,77.05445
0.43124425,79.64306
0.21105644,82.15204
0.47113755,84.79361
0.6686929,85.15744
0.58311754,90.25632
0.5468801,91.90784
0.6960534,91.39466
0.8560879,90.56523
0.91936827,95.13887
0.92972267,100.50979
1.0826788,102.20205
1.2056184,99.83463
1.1757388,104.587105
1.3287688,108.06454
1.3033031,109.9984
1.4327371,109.09978
1.3072037,113.00471
1.4405956,114.7327
1.3924885,113.86743
1.485109,116.49352
1.6205614,115.41811
1.5488365,118.06711
1.5408708,118.56727
1.5429423,117.96768
1.6235156,118.20717
1.4125184,119.5412
1.4534229,121.67742
1.4840868,121.10584
1.4459908,119.80403
1.3196515,118.287704
1.3851773,119.343414
1.3261126,118.97442
1.437884,118.85879
1.2821082,116.33687
1.2547889,118.69395
1.2009087,116.37883
1.3514087,116.198425
1.1053174,112.59975
1.1803126,114.60688
1.19746,112.65498
1.0110542,112.19065
1.1012884,109.94434
1.0490894,107.764336
1.1140841,107.60153
0.95975995,108.958244
0.924329,106.61896
1.0277151,104.11272
0.93648845,103.69868
1.0713321,103.763985
0.9404356,101.498024
0.8441229,101.05501
0.99055755,98.830345
0.965295,100.25126
0.8665981,96.4545
0.7782445,94.221146
0.8219176,96.60853
0.7188735,95.25948
0.7143905,92.98021
0.65198445,91.8604
0.54692084,90.579765
0.5395473,90.406006
0.5869427,89.86885
0.579727,85.75051
0.4640473,87.720505
0.44351658,87.097755
0.3783285,86.79716
0.35038218,83.318756
0.42026606,84.48451
0.3285136,80.10955
0.35157716,79.889626
0.36326253,78.81416
0.30487046,78.7378
0.43638402,78.33683
0.28109017,77.654366
0.39612478,77.1547
0.29908708,77.606064
0.28808066,73.30428
0.2598842,76.06354
0.32120427,74.24292
0.22844668,73.49243
0.20735772,75.36786
0.15506229,73.68013
0.043051697,74.98504
0.057451554,75.52798
0.026087455,72.99323
-0.026763024,72.91114
-0.044943947,74.28075
-0.054087203,78.80796
-0.052554432,77.292145
-0.09361836,78.26075
-0.023843586,83.97489
-0.009541424,82.23951
0.07337889,82.558334
0.22510281,84.78315
0.22077817,87.28478
0.30655548,87.36937
0.36929595,87.72396
0.49073198,92.01757
0.5859877,92.37598
0.6683571,95.427895
0.85814935,97.138824
0.95130885,98.02656
0.97957814,98.94596
1.0503234,100.33832
0.83798295,103.7525
1.0906967,108.45157
1.2414097,106.74122
1.2420102,110.02798
1.2488987,112.72731
1.3254988,114.393974
1.2728679,112.565506
1.340178,114.47336
1.3142275,118.357704
1.3442245,117.995804
1.3540822,117.540665
1.3270051,117.20587
1.403325,122.28231
1.397407,119.16842
1.4589702,120.72839
1.3810112,121.84954
1.3035941,117.49798
1.357496,118.43764
1.2230691,120.70052
1.3304961,119.9582
1.220677,113.85489
1.1211728,118.39775
1.0314443,115.60025
1.0640422,117.600876
1.1029652,111.84958
1.0313518,114.68656
1.0611228,115.13378
1.0634711,111.9737
0.87714523,114.33502
0.8621872,109.208824
0.96226114,108.01016
1.043786,106.694145
1.0012505,104.8042
0.8324632,107.60815
0.928911,103.377075
0.96618253,102.326225
0.92291045,106.624275
0.89715856,101.326256
0.83533466,98.65126
0.83951974,102.4552
0.86775804,99.31235
0.63963944,97.58256
0.6389457,92.37156
0.750619,95.19458
0.65872484,92.900444
0.7197379,93.47452
0.62040585,94.047165
0.662835,92.15787
0.5981272,89.60956
0.5377371,89.7936
0.41180012,87.703285
0.37956408,87.84579
0.423159,85.87324
0.4023744,80.36551
0.53347415,82.947975
0.374317,81.805885
0.34645954,82.43432
0.4369295,79.45689
0.40614137,81.830795
0.2910158,79.169945
0.29694635,74.797226
0.414831,79.58806
0.35357773,75.92946
0.44804257,72.02202
0.39351022,75.492775
0.3460769,74.795074
0.25918505,78.50706
0.29768258,72.61892
0.26951307,72.92092
0.17804822,71.05056
0.14744252,75.471054
0.07644745,74.8388
0.05414556,73.79867
0.16028765,74.84
0.05359777,77.15648
0.103859186,79.898415
0.02244043,77.557396
0.08735825,76.99681
0.104680836,80.268486
0.17541699,83.51072
0.20514031,84.704124
0.375886,85.345566
0.38031223,87.0168
0.44778207,87.86489
0.6332614,89.7483
0.72770095,90.19321
0.70296985,98.256256
0.8244756,98.93254
1.0590799,99.997856
0.9972901,97.93819
1.0875504,100.407486
1.0965194,101.60291
1.3418862,106.734985
1.3290399,106.11041
1.3369609,109.13489
1.4271234,110.53327
1.3458346,112.36054
1.4312369,112.4805
1.5111682,112.739235
1.469309,118.73973
1.5697749,115.29805
1.5042114,118.98289
1.5942103,116.26503
1.5287011,121.37509
1.5950961,122.89886
1.4832011,116.74596
1.5948344,119.58016
1.6371372,117.801414
1.5265071,118.69026
1.4591044,120.96293
1.5703702,115.37209
1.4287343,117.47241
1.4545118,116.578476
1.461984,117.69497
1.4130392,118.38703
1.3787265,112.205986
1.4353755,118.69128
1.2625781,111.981766
1.3123786,113.09021
1.2371995,110.58815
1.1403284,112.05936
1.1336951,107.14174
1.1448689,108.69249
1.1183537,108.01292
1.25636,106.47079
1.1187415,104.51038
1.2254715,102.30646
1.1447251,105.20789
1.1606867,102.64043
1.1914688,102.98534
1.1479074,99.125145
1.1364017,99.23352
1.1207715,97.52643
1.080825,92.72281
0.9764344,94.25394
1.0024362,93.429924
0.90080076,92.02267
0.8696121,93.10305
0.8135223,89.601685
0.819286,87.31872
0.8210265,89.5549
0.76451427,87.472725
0.7468753,88.70239
0.73332554,83.53811
0.75509584,84.569885
0.6609383,83.37673
0.78375965,82.11822
0.69422144,83.25539
0.62293655,82.169395
0.6446218,75.29318
0.7241121,80.05921
0.7400426,77.77274
0.70784235,79.51008
0.61927146,77.738396
0.69191235,73.01461
0.6742874,77.481804
0.70607734,76.79628
0.6351693,75.48429
0.59860325,73.89587
0.44805512,75.0438
0.59437793,74.05883
0.57785743,72.867065
0.41652352,71.13994
0.3307279,77.30453
0.4494025,72.50711
0.29069722,76.50623
0.37667912,76.84817
0.29827082,76.156136
0.37525663,78.00345
0.394305,81.10871
0.4432404,79.39918
0.5229245,84.34159
0.5462872,84.6
0.5085784,84.570145
0.74997914,90.39077
0.8786724,90.75213
1.0265883,91.4414
0.9564994,92.12504
1.1778584,94.02631
1.2002093,96.39299
1.312825,98.647865
1.338154,101.60547
1.4582603,103.44566
1.5927745,104.76567
1.7491007,107.77529
1.7425553,110.051254
1.8025049,110.96074
1.7028432,110.64617
1.7863004,113.24017
1.7297348,114.84359
1.7864767,113.29883
1.8738471,116.072845
1.8538284,117.39971
1.9605756,119.363174
1.8807511,117.372536
1.9042099,118.2666
1.8162159,119.14627
1.8741763,118.0085
1.8171562,119.316986
1.7639642,119.01615
1.8336301,123.5012
1.7812756,120.2171
1.8650832,119.213425
1.7675428,116.44674
1.7776972,119.4481
1.6450266,116.43232
1.6321313,118.19358
1.6302865,113.57433
1.6174619,112.33808
1.4903108,115.79117
1.5212989,114.364815
1.5841864,111.369446
1.4817425,109.01272
1.4921197,107.490425
1.4160271,107.35308
1.4750023,106.001854
1.552986,105.19103
1.4213547,105.724754
1.4036412,103.60065
1.5386465,103.33225
1.5042858,105.08581
1.4479532,99.591354
1.3844802,97.71322
1.323608,99.83555
1.2393559,99.09463
1.2015262,99.67961
1.3925138,93.96656
1.2507243,93.55173
1.2140571,95.01329
1.1859654,92.78781
1.1807417,92.635414
1.0374109,90.88315
0.9613036,89.66527
0.95629233,86.77522
1.0595733,85.493
0.93772095,84.91537
0.96517175,82.90057
0.9002603,83.70851
0.9267273,79.4156
0.9168187,83.21088
1.0118269,80.16124
0.933854,79.02846
0.9196181,79.29181
0.9654278,78.016594
1.035472,73.96853
0.97882485,77.645744
0.7899842,74.644066
0.8881876,74.80743
0.8507373,73.15524
0.90816534,74.8193
0.71909696,73.38621
0.62805897,71.907585
0.6902735,74.65583
0.6681719,74.36275
0.58106536,74.24601
0.57321185,76.70496
0.6235448,74.652374
0.53450567,76.392265
0.5082688,78.5385
0.5492293,77.00731
0.62106955,80.185776
0.5236478,80.22072
0.7245652,83.66629
0.7085172,88.39209
0.7713627,85.334946
0.82829064,84.95886
0.99190205,87.74726
1.0660974,92.843216
1.0853864,90.59021
1.2533616,94.66639
1.3271915,94.858734
1.4200853,98.76516
1.3742838,98.73051
1.5900925,102.863434
1.7548156,106.50166
1.6619701,109.40224
1.8098533,107.9288
1.7882246,108.58376
1.8522881,111.21854
1.8566476,111.22772
1.8443345,113.65393
1.90591,112.37125
1.8108388,116.63218
1.862544,116.21656
1.9365671,118.34988
1.8910522,121.04618
1.9199812,119.09717
1.9587247,115.6318
1.9030077,117.8593
1.8753802,121.2455
1.9604801,118.71456
1.905666,118.78375
1.8649464,117.8997
1.8397459,117.90075
1.7415212,116.85106
1.7823657,119.43887
1.7031043,118.82131
1.6695621,119.88685
1.6449306,117.31039
1.6913093,113.73279
1.5831664,114.25303
1.6062521,111.17387
1.6249969,112.2819
1.4846886,111.92913
1.4042,109.036095
1.560321,106.75199
1.469228,108.675995
1.41375,107.17749
1.3656654,104.61292
1.361543,105.559105
1.4810696,101.37022
1.4059633,102.8643
1.3739628,103.03338
1.3560252,99.8344
1.2496558,101.5175
1.3389963,96.232445
1.3797709,97.16507
1.207732,95.65292
1.2371427,91.37962
1.190753,93.05383
1.0441649,92.19039
1.0944725,94.12065
0.9968055,90.49868
0.9649638,89.8963
0.9347059,87.48788
0.92857623,90.02224
0.92262554,87.05492
0.89876294,85.66712
0.77618366,84.90003
0.7946826,83.51978
0.80447876,81.58174
0.8748778,82.13149
0.6962361,77.83633
0.719867,75.715904
0.8319416,78.02953
0.7901841,78.484215
0.8093824,75.6648
0.8744339,75.17291
0.789159,74.24955
0.6732054,74.64462
0.6644357,78.164024
0.577765,74.13722
0.5955464,72.64978
0.60044515,72.15828
0.55259687,75.78399
0.4117592,72.65913
0.4493072,72.78477
0.49429592,74.42539
0.3293414,74.96903
0.3201866,74.845795
0.31224495,79.08451
0.45346084,76.46141
0.34707084,77.57539
0.38132814,82.11497
0.39667952,86.450066
0.6146447,86.47881
0.65527314,85.39158
0.61869884,85.238525
0.766263,91.05849
0.88527113,92.00496
1.0199964,93.42678
1.117597,93.049774
1.2219459,98.02245
1.2860037,100.73993
1.3405746,101.0803
1.290045,102.08219
1.4168242,103.49433
1.4498334,105.224236
1.611499,106.939156
1.5642252,107.73063
1.5662767,112.02407
1.6602229,115.42494
1.6085731,116.85992
1.6465753,116.49042
1.6785517,117.2742
1.6255223,118.123955
1.6184998,118.42647
1.7137699,118.424965
1.6209625,119.706116
1.6061592,119.17148
1.6960578,121.83941
1.520111,117.32891
1.5877526,121.57384
1.5555325,117.41659
1.6079545,119.444084
1.5210772,117.38868
1.4952393,117.86114
1.3714851,116.60334
1.4268588,118.57452
1.3437047,115.051216
1.357501,116.022385
1.3141947,112.35995
1.3116344,112.80662
1.2232177,113.899
1.2767724,109.61306
1.1561732,112.59129
1.1895771,106.318214
1.1834139,104.391304
1.082051,107.49492
1.2584668,106.93978
1.1270738,106.204956
1.0514721,104.54434
1.022648,99.56635
1.0556141,101.90617
1.0951172,101.66523
1.0320982,97.078705
0.9662451,98.32119
0.87730545,95.3177
1.0004873,96.39355
0.71672946,92.39197
0.7903145,94.02738
0.77707154,90.96057
0.8107035,89.23638
0.6499259,90.06945
0.53272647,86.80087
0.73062456,89.285675
0.54295635,87.09572
0.5346435,87.27874
0.5716027,84.14968
0.550011,83.939545
0.61260056,83.53309
0.54132414,83.440895
0.4418993,80.46027
0.45725808,78.83345
0.39917666,78.527626
0.5046154,80.39372
0.5003091,79.79911
0.52437377,74.22934
0.38702303,74.76958
0.34762746,74.66263
0.35715264,74.52429
0.3535913,74.11568
0.29946926,77.6292
0.18500543,71.96788
0.19968511,73.899025
0.25126383,76.30422
0.15989171,74.89539
0.08284109,74.01717
0.09217018,74.8406
0.08239872,72.94295
0.03310528,76.284805
0.057912324,78.05284
0.09922709,78.68501
0.07577249,79.63569
0.12753421,82.5123
0.153223,81.256775
0.25154623,82.975525
0.18709756,85.84461
0.41776043,87.21058
0.46974683,87.65774
0.46303847,93.20686
0.6750535,89.80315
0.7160241,97.161064
0.8927006,95.997406
0.7864901,96.98147
1.0259811,100.85792
1.046743,100.72381
1.1785328,103.40314
1.1953319,106.48376
1.2724513,106.107346
1.2974274,108.183525
1.2476363,107.125496
1.3512979,112.23427
1.3109932,115.58402
1.3710045,114.75806
1.3453672,115.70039
1.3893509,113.52893
1.454881,116.932335
1.3853211,117.934
1.4309458,117.1445
1.4475292,120.10005
1.4730675,121.84625
1.3178502,121.22827
1.3509593,120.43362
1.2549003,121.379135
1.2206861,118.8575
1.2831814,118.762695
1.248802,117.73677
1.1994011,117.181404
1.1943618,116.42937
1.2788243,118.18689
1.1105804,114.231514
1.0760181,115.44706
1.0838197,112.26707
0.9828472,113.29026
0.9667896,114.94397
0.9455712,110.623184
0.9467126,109.85509
1.0328443,106.85541
0.9234,110.01479
0.89073956,105.82989
0.99011004,101.980064
0.8982527,104.79119
0.8642268,102.30076
0.9931932,98.89721
0.91085523,100.69336
0.89672065,101.88127
0.7990275,100.6167
0.93630254,97.47201
0.69042736,97.34109
0.69092214,93.89294
0.724927,96.53567
0.66060364,91.06426
0.63226587,91.17971
0.58070356,91.12205
0.5992551,91.9019
0.58253473,89.26949
0.519176,87.14176
0.42668587,86.8055
0.33006012,88.51196
0.3702763,86.160385
0.3784988,85.07382
0.3959512,79.516785
0.35332716,82.611435
0.34606093,81.94671
0.19094597,80.002396
0.3894173,78.972755
0.20449872,78.33866
0.28894857,76.585625
0.22646978,75.35778
0.34819508,74.86766
0.19645894,76.585846
0.22608264,76.586136
0.18357782,73.01942
0.1252551,75.7163
0.17641264,71.85914
0.037920207,73.325294
0.055520736,75.79999
0.10207775,75.76832
0.07836233,75.3277
-0.04087671,73.44992
0.0068929363,78.139465
-0.007004948,75.5536
-0.0672973,77.22481
-0.031862106,78.89764
-0.10684393,78.54691
0.14394821,80.83713
0.17882256,82.17742
0.19171159,87.32959
0.24698058,88.85711
0.35878134,87.112335
0.4880244,89.499016
0.5716406,92.43325
0.56744987,94.520775
0.6836649,98.51144
0.8499779,100.499115
0.98056877,103.509796
0.96491957,102.10484
1.0438557,104.62289
1.1943591,104.799484
1.288632,106.57852
1.2136467,107.731346
1.4079009,107.316734
1.2702235,109.856514
1.2961131,113.47957
1.1586999,113.07924
1.3407631,116.38102
1.409616,114.67812
1.4035832,115.60336
1.3867836,117.3508
1.5045017,120.07741
1.4144198,117.08621
1.4312445,116.356026
1.3691226,119.76313
1.3209342,118.46932
1.4673123,118.20857
1.3685758,118.63332
1.3407683,116.445145
1.3925239,117.69289
1.2937253,120.94003
1.2451684,118.243805
1.1509788,116.00339
1.1737748,116.21508
1.1361026,113.73419
1.2611803,112.349754
1.1101545,114.94154
1.0743359,109.15124
1.1057491,113.25163
1.094328,110.23337
1.0617183,110.11022
1.0831414,106.5553
1.1143062,106.35858
1.0949335,104.774124
0.97847134,104.128395
1.0189066,102.61091
0.99226534,101.701416
1.0648122,101.87121
1.0011787,98.2279
1.0411168,100.95802
0.9344784,96.23665
0.94984674,99.16826
0.7977522,95.112595
0.8488867,94.797104
0.8979414,92.80502
0.72325027,93.66899
0.6548601,93.84646
0.7329879,91.053856
0.6569365,92.81923
0.5859452,87.1317
0.67390525,88.34446
0.5596274,86.399956
0.4889389,86.708664
0.46437705,87.36169
0.49278224,83.553055
0.50163877,81.76419
0.5504769,81.175354
0.4170732,83.45646
0.559702,80.003006
0.48838407,79.25032
0.45722252,74.42417
0.61570394,75.55131
0.4699318,75.15799
0.4980886,76.963165
0.5290403,78.2527
0.3878933,75.49603
0.39900464,75.12061
0.28385,70.29112
0.3881568,72.945984
0.24789804,74.25527
0.2986487,76.09121
0.3101734,74.85852
0.30449447,75.94719
0.3492186,75.56731
0.2424773,78.288765
0.22919664,77.804184
0.35054332,79.26875
0.21022822,76.594955
0.23009796,81.29955
0.45715794,83.99923
0.49328953,82.653824
0.3872627,85.16451
0.6803499,86.392845
0.6692714,88.63585
0.75674355,90.56531
0.88138765,92.2954
1.031372,94.66774
0.9813161,94.637146
1.2354008,96.048
1.1819898,98.43281
1.1900971,102.5833
1.3171523,103.03903
1.4390181,107.82819
1.4501263,108.26233
1.568449,110.900925
1.6863351,111.26086
1.6392801,110.2715
1.6228744,115.79986
1.6770563,114.66089
1.7414287,117.49183
1.6728116,116.77031
1.7186387,119.222046
1.7468832,116.936905
1.820929,120.33222
1.7465327,122.0793
1.7828118,119.97509
1.7349368,119.94513
1.7613751,118.84909
1.7698004,120.788795
1.6622173,118.29157
1.7444226,116.740456
1.548736,119.27089
1.5774802,116.90934
1.4322284,115.98321
1.6010066,116.16695
1.5700564,115.09041
1.528892,112.88725
1.554063,110.86597
1.448368,111.42909
1.452557,112.23953
1.4122735,108.98978
1.3403412,106.75974
1.4344472,105.555374
1.3283873,105.71365
1.4623471,105.993965
1.2903001,105.035805
1.4449458,98.84908
1.3439655,104.26054
1.441395,102.58131
1.3075373,101.58925
1.2814933,98.34123
1.2094548,96.28429
1.2012455,97.87587
1.2682451,94.75533
1.2100999,93.81298
1.302959,94.79961
1.0537726,95.296394
1.1466116,92.359634
1.0341457,90.11314
1.010136,94.10726
0.87849414,88.93851
0.9787282,84.32005
0.9707859,84.661
0.88867474,87.76784
0.91908306,85.80253
0.95878464,85.22624
0.8308175,82.73848
0.8789155,78.95244
0.92801625,77.83845
0.8379641,82.652596
0.8087474,79.27896
0.85719675,76.1514
0.8209124,76.11539
0.8360623,75.723045
0.8666918,74.86423
0.83699083,75.41724
0.7761113,76.75502
0.7583235,75.64667
0.7226826,74.39669
0.660564,73.35592
0.69078195,70.3044
0.59966886,72.54354
0.500068,75.08629
0.59165674,74.815575
0.4680603,75.0496
0.5795142,76.62686
0.5283348,75.10808
0.49384916,78.87428
0.5386847,80.00817
0.5356534,80.397156
0.5572821,80.71515
0.651946,83.60489
0.73286414,83.92509
0.8718266,87.996925
0.87493914,89.9141
0.8974228,90.61053
1.0360038,91.8199
1.1867864,95.90674
1.1854836,96.96191
1.4641954,96.71096
1.4203289,97.45218
1.5040553,101.91325
1.5325079,102.304
1.7189871,103.94579
1.7665313,105.9825
1.7893302,106.881386
1.904313,109.492485
1.8921933,110.20365
1.9154667,114.45489
1.9916077,115.737816
1.8362114,114.56952
1.9638952,116.26519
1.9455938,115.71419
1.9453876,116.44124
2.0424297,118.09926
1.9895916,118.024155
1.9182773,118.45799
1.9859868,118.864815
1.9933186,116.67427
1.9934081,121.21956
1.8880284,118.16083
1.8968253,118.95907
1.7610737,117.35853
1.7496837,117.57791
1.749,116.08809
1.6707683,114.69025
1.7783393,114.9943
1.7486974,117.29847
1.5621417,111.71598
1.5828524,112.057335
1.6401919,111.9229
1.5854594,110.93565
1.5470444,109.25038
1.5428598,109.28533
1.5881488,108.45714
1.4868624,106.54126
1.4531392,105.08858
1.4487727,104.33384
1.4716039,102.01538
1.4846042,102.00805
1.5253453,100.22806
1.4080286,99.99606
1.4561644,98.707504
1.5086186,96.629524
1.320811,97.67714
1.3894948,98.16025
1.1627643,96.78738
1.2002344,94.39733
1.094617,93.67876
1.1020375,89.983376
1.0421072,91.30263
1.1136521,86.97849
1.0183691,88.1406
1.04041,86.507706
0.9970549,86.24234
0.83466154,82.725266
0.96017635,84.21126
0.82325405,82.93881
0.7915044,80.7664
1.0280255,78.46612
0.84362066,79.54593
0.9105977,79.35856
0.91047454,78.47169
0.8733937,76.733444
0.86294967,74.946815
0.9095523,74.84062
0.9314527,75.90213
0.7366006,74.046684
0.70673114,77.40845
0.8188453,74.02717
0.7324336,70.50393
0.6686952,72.02494
0.6373736,71.12169
0.6870968,73.94014
0.46902725,77.06891
0.53131616,73.47114
0.5937849,75.09027
0.58052814,75.3857
0.42195868,80.22077
0.45203546,77.9193
0.5633117,80.79678
0.5454419,80.989525
0.57876635,83.62499
0.6165305,86.62233
0.7480249,84.60574
0.7874711,88.684586
0.9621564,89.45501
0.95526457,88.846275
1.0715406,94.62693
1.2066363,95.997894
1.2353177,98.37602
1.3842343,98.88008
1.4564543,103.86707
1.5032353,101.70612
1.5866923,104.744064
1.6563038,104.57661
1.5252869,108.85211
1.7883878,109.44304
1.8740124,111.58265
1.796128,112.40069
1.8056864,114.26567
1.7794228,117.059814
1.7948835,117.053665
1.7798188,120.12864
1.8126838,120.11271
1.8739167,120.971634
1.8438252,118.621635
1.8238832,118.82667
1.8244593,117.8049
1.7979705,118.24603
1.8156136,120.14285
1.6470336,119.50161
1.724291,118.19491
1.7426769,121.12942
1.6687098,119.94359
1.6038082,117.59508
1.5632575,116.719215
1.4425454,117.98291
1.3678005,114.58908
1.5623286,112.68825
1.384337,112.617294
1.4877793,109.80818
1.4369462,112.16775
1.4999659,112.34625
1.3769419,107.02598
1.3582474,107.765205
1.2954621,107.32388
1.3044462,106.9772
1.3146936,103.3708
1.3363007,105.82577
1.3059467,103.560776
1.3146408,103.75843
1.206736,101.82141
1.2604896,97.88213
1.1617383,102.25308
1.2211908,98.249794
1.0479046,94.21218
1.086428,96.58707
0.99298424,96.37923
0.98817015,92.4497
0.8450506,91.242905
0.829561,91.13857
0.71399665,88.68821
0.7922733,86.31799
0.8133218,89.10836
0.79710436,84.84979
0.78257823,85.01123
0.66436386,84.09418
0.7045726,82.036835
0.6224682,82.831696
0.61763066,80.578
0.5311278,79.602196
0.59981686,78.10577
0.6280373,80.32841
0.53007025,77.937325
0.479462,78.078995
0.5503039,75.82912
0.5958582,74.538284
0.56530964,77.2287
0.5671245,72.43847
0.49448523,72.34456
0.38468096,73.47672
0.36872205,75.608795
0.45209238,75.067116
0.3700383,75.325615
0.29356945,71.86785
0.07263682,73.25982
0.23455729,75.479416
0.1892773,75.86763
0.27691293,77.90736
0.21110694,79.3285
0.28457573,79.675354
0.2611337,79.0137
0.2402745,79.6542
0.34250024,87.470055
0.42031744,81.29427
0.36608735,85.24275
0.58019996,89.286514
0.6434123,88.998764
0.6216932,92.17004
0.8369572,92.50193
0.93854547,94.28835
1.0647237,98.0861
1.0724616,98.29781
1.1146833,101.35287
1.1142597,103.57075
1.256641,106.199135
1.2824911,106.597664
1.4336108,109.92232
1.3933907,111.46178
1.3913455,114.505135
1.3862036,110.666466
1.4769725,112.09303
1.585734,114.83196
1.5158559,117.641525
1.4757051,115.343254
1.5374534,119.90014
1.4848465,117.36964
1.4722879,118.19541
1.575184,120.32724
1.5124478,120.23741
1.4507885,119.230255
1.4697602,117.89645
1.2811091,117.90838
1.3554914,117.507614
1.329408,117.94064
1.3889828,118.152466
1.2421334,117.326454
1.2885052,117.102486
1.3013382,117.096146
1.1619887,113.41536
1.2132664,111.792366
1.246675,110.43654
1.1351058,111.02736
1.0977,107.07241
1.1302114,110.15648
1.0015333,109.41632
1.0249182,106.88367
1.0321273,105.165825
1.0380259,105.694954
0.9168726,100.547424
1.0657767,101.56369
0.97892034,103.93805
0.94981647,102.88219
0.8991519,97.53292
0.8779049,100.53908
0.8941163,97.881355
0.7385583,97.547455
0.705935,93.51445
0.7961858,95.16388
0.68682724,96.50949
0.577398,90.38042
0.62089366,91.13311
0.53614384,89.668236
0.4895011,88.243484
0.53265005,88.85651
0.42845154,87.70277
0.40102825,84.88599
0.38705993,86.06161
0.36745492,86.057945
0.4499098,87.545494
0.41087154,84.12249
0.41730443,79.82529
0.34969556,81.1525
0.35006705,79.36113
0.34532964,78.182335
0.29111075,76.18351
0.3149333,76.54233
0.26629117,76.53586
0.37450337,74.78585
0.32722458,74.58897
0.24073347,69.275795
0.2783163,75.08235
0.21265464,74.97611
0.011911875,72.35162
0.19877811,76.54358
-0.04437681,71.03
0.023248661,72.49716
-0.06703509,73.80233
0.008702099,75.817635
-0.08438493,78.822
-0.037750013,77.3047
-0.011324787,80.34827
-0.059607208,80.46137
0.06620169,79.94352
0.100228615,80.66278
0.27100408,84.61169
0.20423456,84.157364
0.37597683,87.04952
0.43353808,89.56611
0.51605487,90.743515
0.56509686,95.24505
0.67644036,95.58344
0.7077035,99.678764
0.93855613,96.46064
0.91426265,98.68251
1.1117655,104.56873
1.0338582,106.327354
1.1229969,104.97811
1.212449,110.57628
1.1594955,108.614914
1.2002625,112.749146
1.3131549,113.70435
1.3897591,111.59372
1.3571333,115.73511
1.2916625,115.68607
1.3685964,118.65043
1.4256877,121.080925
1.3206917,119.402794
1.3474255,119.58065
1.427629,119.568535
1.3378268,118.9039
1.1406523,118.51404
1.348713,118.42851
1.329514,115.92416
1.1802415,118.479706
1.295916,118.47329
1.2320744,119.89154
1.2742552,115.15077
1.0807637,116.840576
1.1152878,115.83901
1.1213233,115.66418
1.0601958,114.449936
1.0758927,114.95389
1.1304564,111.660446
0.97916245,110.20068
0.96400183,109.878586
0.94703645,107.17244
0.9620742,106.59832
1.0289867,106.217575
1.0059625,106.334114
0.95681,104.322075
0.8476921,101.53093
0.891169,101.750786
0.8120851,102.00495
0.8597225,99.63882
0.75874513,99.097824
0.8007734,99.02987
0.81480074,95.50101
0.7549034,94.770355
0.69707596,97.67028
0.72682005,95.80048
0.63131905,94.85602
0.62860125,90.66186
0.61987954,91.82085
0.6072689,92.13474
0.5897316,89.858185
0.5428954,90.903885
0.32163027,87.50837
0.39068228,88.57584
0.4027072,83.46027
0.45761523,83.39929
0.2873671,84.650276
0.33963853,80.93141
0.39192754,79.39738
0.4559401,79.33019
0.46653312,80.44446
0.41837993,77.41691
0.49862465,76.81369
0.34504783,76.43907
0.4520791,72.97959
0.36181858,75.389114
0.31119552,73.39187
0.27289292,73.79377
0.34811756,70.92492
0.21365277,73.29381
0.30483797,74.594086
0.21456428,76.67082
0.09368044,77.44304
0.18307371,73.70761
0.016625397,76.908745
0.07256037,77.13266
0.12431408,74.72965
0.25389236,76.546684
0.046937637,78.810486
0.111170314,79.319786
0.13579118,82.74747
0.26482767,83.13396
0.4372772,83.34171
0.49305636,87.69804
0.44708055,89.366516
0.59310746,91.17978
0.7636834,94.27322
0.75375986,95.258766
1.0393823,94.20586
0.97943866,96.98001
1.0623466,101.272316
1.1495072,104.52251
1.1380436,102.00656
1.2427853,105.91305
1.2141583,108.712265
1.4288471,106.9059
1.4478258,111.92691
1.5267209,111.73744
1.5604225,111.16921
1.5327533,111.76734
1.5457819,115.37821
1.6090958,117.022385
1.7209747,117.424355
1.5141256,119.25892
1.5322968,118.746025
1.5861019,120.07071
1.7045075,119.4824
1.4931091,118.288345
1.5920419,119.753555
1.5031952,117.475746
1.5578833,120.48991
1.5132014,120.711174
1.4730068,119.99667
1.3696966,121.49805
1.3444942,117.50115
1.4329249,115.13484
1.3233566,113.91699
1.2899946,113.16163
1.2595283,113.44942
1.335781,111.391396
1.2042279,112.91821
1.308728,112.066444
1.2065632,110.642876
1.1930537,110.796844
1.286819,109.74616
1.1949022,105.29891
1.1270787,105.92152
1.2174361,103.11966
1.2315754,103.73034
1.0961179,102.94195
1.1846186,101.27725
1.1375302,99.9788
1.1358005,100.45272
1.128323,95.00933
1.1456194,96.41589
1.0674974,96.48844
1.1924483,95.78283
0.9536614,94.627144
0.8785659,91.85632
0.9676935,91.07999
0.90516937,89.27972
0.87080526,88.85183
0.793307,90.15027
0.7917587,85.62767
0.82079357,83.51823
0.74502623,82.84824
0.685218,83.43829
0.7027144,85.0136
0.77319443,81.88596
0.7836626,79.18739
0.6606227,78.81978
0.78143775,78.606834
0.65670377,78.0431
0.7671562,76.15623
0.8588406,76.84218
0.70447385,74.43763
0.741063,72.98116
0.6499431,74.82872
0.5265463,75.7823
0.6604012,71.83567
0.5531964,71.47566
0.6488307,74.88855
0.40721095,74.00759
0.50145,73.24015
0.47654003,75.910995
0.31572196,76.45998
0.37984365,75.33436
0.38696787,76.057625
0.4302164,80.65354
0.36727682,74.55454
0.46808192,78.957115
0.4439562,81.64542
0.48760012,79.454056
0.5747198,81.98624
0.78096473,87.31508
0.8406667,86.99579
0.8727387,88.11435
0.93324363,93.554184
1.0366955,94.37853
1.2302215,94.66518
1.2389654,95.43419
1.3223083,99.22719
1.3654939,102.1698
1.49387,102.02931
1.4339777,104.94033
1.7013323,105.33611
1.678914,107.8636
1.7505871,110.68496
1.7800201,112.214226
1.8110899,110.40752
1.8041447,116.79847
1.8416613,112.417816
1.7326037,114.399635
1.8916101,117.84784
1.9368247,114.66546
1.727991,118.072235
1.8137103,118.1861
1.8518578,119.66157
1.7862959,117.95283
1.9121588,119.06713
1.7977062,118.569374
1.8642476,119.45342
1.8190207,118.588776
1.8131255,116.09439
1.829531,117.06634
1.7522327,117.35141
1.8031566,115.56077
1.7099303,114.5809
1.5717026,113.8544
1.5426639,115.88567
1.6432142,117.02913
1.6132989,114.22134
1.480607,112.18153
1.5216807,110.77983
1.5663996,108.22077
1.5375688,110.149
1.4557515,104.82984
1.3704203,103.893776
1.4620839,105.87839
1.4733346,101.2612
1.4691341,103.429375
1.2930266,101.23166
1.4816939,102.4267
1.4010417,100.82489
1.3784267,97.5242
1.3986456,99.203804
1.2640167,97.76705
1.3121023,96.19741
1.210222,93.63013
1.2495049,96.60474
1.2049836,93.369675
1.1599985,92.030785
1.0811863,89.46953
0.99274826,89.484985
1.0547179,91.49243
0.9092797,86.37082
0.9430911,84.918564
1.0397537,85.10245
1.0289614,83.88182
0.8845392,84.89225
0.9990147,83.75009
0.85793877,81.33171
0.88546336,79.94882
0.83140856,77.01418
0.86095,79.17482
0.98219025,76.719086
0.90713364,76.21099
0.93232095,73.90944
0.89462554,76.44341
0.9709513,73.97078
0.87903637,75.21982
0.6989473,73.57273
0.7299428,73.33066
0.77284515,74.405
0.6228457,74.977646
0.56695455,74.44315
0.67768943,72.29637
0.4640506,75.62845
0.64172775,77.337395
0.41798934,79.77243
0.6135026,76.180855
0.61146903,79.62892
0.63680804,77.858116
0.7103391,82.66679
0.6271964,83.56223
0.74765307,83.39454
0.82751065,88.591805
0.8509798,88.91909
1.0559398,90.082825
1.185075,91.6902
1.2525355,93.67478
1.3917631,97.153984
1.5169493,101.06121
1.4794301,101.41768
1.53966,102.31592
1.6827098,103.64654
1.6178811,106.347694
1.7830279,106.984985
1.6171209,108.23124
1.829459,110.387184
1.8647708,111.396286
1.8954878,116.10874
1.9234531,115.44155
1.9151961,117.12726
1.8810074,117.37504
1.918994,119.530846
1.8787072,115.85993
1.8341869,119.28446
1.841101,120.23803
1.933657,118.2764
1.9416442,119.8164
1.9713281,117.94398
1.8460875,120.11755
1.7007211,115.732086
1.9050386,118.88828
1.6721952,118.510956
1.6924171,117.5045
1.7123045,115.705185
1.6320939,116.015045
1.6199156,114.223206
1.6325268,114.065796
1.5337603,117.71455
1.5764312,113.25713
1.579358,112.17785
1.4137853,109.99397
1.3352722,108.66734
1.5082113,107.326256
1.5209734,105.886406
1.4930214,106.045105
1.3652759,103.342186
1.3596929,100.704315
1.4332043,101.22803
1.3473192,102.171364
1.2678887,101.41271
1.3259445,97.739426
1.361676,101.38844
1.3939738,99.31118
1.2780831,96.083954
1.2316291,94.49883
1.1230174,97.1842
1.142128,92.6782
1.1853371,94.14607
0.9719534,89.27427
1.0997266,90.28478
1.0564805,87.30219
0.96472687,90.52904
0.8798545,84.09444
0.8332663,83.59715
0.8206733,84.6123
0.8571294,82.1296
0.79706454,82.65795
0.7861451,82.96255
0.8435404,80.723274
0.7989955,81.299934
0.80554676,79.78538
0.7422262,77.98487
0.78660405,79.60992
0.70485806,76.68591
0.78957176,76.614296
0.8334369,76.179756
0.5637793,74.43669
0.52489597,75.60681
0.5972485,74.00552
0.6432692,74.637695
0.4945084,73.21479
0.54907304,75.05853
0.4458553,75.59039
0.45513552,71.54157
0.4061465,76.32459
0.3271881,76.84974
0.3705713,75.51135
0.2627234,78.330925
0.32909393,78.24364
0.31724915,81.25873
0.43393224,83.14619
0.43185696,83.19852
0.48596156,85.66988
0.5301373,84.46888
0.5927141,90.29424
0.7908753,88.6307
0.7832388,89.34489
0.9623694,91.46919
1.0024713,93.20652
1.1203692,97.54876
1.1807187,100.37565
1.3478966,104.1524
1.2716281,102.102455
1.4305979,105.71073
1.6011747,105.63058
1.6025344,109.00927
1.617767,110.12875
1.5993735,110.79379
1.6709625,111.741516
1.5855168,115.00101
1.5365571,111.81131
1.6013371,117.74277
1.7935538,118.46423
1.5665146,116.841515
1.6136451,117.33753
1.7036196,117.24928
1.5721842,119.506035
1.7543191,114.30559
1.5265977,117.319046
1.592534,119.68531
1.6154683,119.49481
1.5491374,121.208
1.5325767,116.861244
1.3077599,117.402565
1.4786161,116.61104
1.3902471,118.3233
1.3513725,116.76927
1.3256127,115.91782
1.3278618,115.05467
1.2605983,109.85556
1.2505449,113.135994
1.2376356,110.914925
1.2304428,108.20645
1.1251463,106.22142
1.1906551,106.36287
1.1254241,105.955734
1.1822939,106.31226
1.1143084,103.23659
1.0496684,104.79794
1.0452002,100.40676
1.0777937,101.17716
1.0099945,99.39683
1.0371745,98.499405
1.0176277,99.69822
0.7566996,93.57535
0.8856672,96.60003
0.951328,96.359
0.8339655,94.139694
0.82228297,95.264885
0.6575322,93.78173
0.75626636,88.618416
0.5510574,90.03058
0.6178741,86.75599
0.5392086,86.71898
0.552868,87.68599
0.5999652,85.26753
0.48991504,82.84694
0.42207944,80.60687
0.47589692,80.82806
0.39025384,79.781166
0.43543988,80.54673
0.48904362,79.39386
0.4651937,77.55225
0.41672045,75.90062
0.46662626,75.84426
0.42614138,73.05786
0.39631596,74.21294
0.28110436,75.87517
0.34541214,73.17701
0.21696651,72.70544
0.32179257,74.6256
0.25136554,73.73763
0.17541385,70.56386
0.14135721,73.509636
0.086704165,72.29479
-0.0530524,75.13232
0.02846604,75.81594
0.068812385,77.103424
0.07806304,76.27824
0.04984045,77.52577
0.028161224,80.06798
0.10603402,83.88406
0.10844133,80.31892
0.11849221,85.217545
0.18683344,86.15959
0.29409853,88.26132
0.2660071,91.070335
0.36711362,88.64989
0.60600656,91.405846
0.62727034,91.930214
0.81409585,96.57261
0.84264404,97.794395
0.914428,99.812416
1.0597461,101.82622
1.1155081,107.46651
1.1910281,104.856384
1.266626,106.97284
1.2167395,107.68703
1.290239,112.64132
1.38311,114.2267
1.411014,116.43412
1.3093199,116.724464
1.3008974,115.72033
1.4251153,118.01209
1.3093714,116.925285
1.346326,116.02819
1.3247035,122.39207
1.3819329,119.61483
1.4448088,119.17431
1.456645,121.02207
1.3133429,118.75195
1.2868216,118.607864
1.2725139,116.56388
1.3615493,118.498604
1.3076962,118.36599
1.243718,117.42429
1.0883538,116.308655
1.0152557,118.06982
1.07568,117.86108
1.037998,114.39814
1.068895,113.02096
1.061881,112.767105
1.0898784,111.08438
0.9850071,110.94091
0.99757737,105.947845
0.9997092,106.87476
0.92868716,107.10751
0.842268,108.0533
0.8400051,103.76946
1.0016444,104.60958
0.8599525,102.24988
0.91820014,100.56824
0.8553675,98.31669
0.8085506,100.082016
0.80735356,101.321686
0.81177586,97.52606
0.79322845,98.02144
0.64617294,95.23775
0.6546052,95.6198
0.61883765,93.519424
0.60496736,93.74375
0.46671835,89.37767
0.57653135,89.25507
0.38577962,88.63334
0.27270946,89.129
0.41526708,86.758446
0.4431512,84.70197
0.38924566,84.99888
0.47342354,84.49226
0.3616452,83.96393
0.27904117,80.357
0.30509597,78.09937
0.38344413,78.062164
0.29882565,77.96329
0.36888388,77.75735
0.24884337,76.677124
0.29756168,74.715775
0.33889014,76.68439
0.2775871,71.865746
0.32167232,75.63173
0.2716348,74.94723
0.20948353,75.006935
0.16578807,71.00271
0.11801212,76.79294
0.06355654,73.08833
0.10219712,70.167
0.05862681,76.515045
0.020747876,75.79429
-0.008308218,76.53547
-0.01000837,75.6181
0.003666043,78.45149
0.047349613,76.39012
0.059744835,80.72989
0.025556399,79.06302
0.1469603,84.55326
0.21514818,84.44205
0.37292212,87.65605
0.3690761,86.80165
0.4154165,87.184425
0.6449947,88.09644
0.7210872,93.29927
0.74002457,95.03037
0.8817037,95.11074
0.92448056,97.48619
1.0159314,101.28344
1.2127699,103.10258
1.2077713,104.29772
1.1893561,106.62792
1.2527469,107.823654
1.283547,109.51903
1.414766,112.32024
1.3564912,111.47021
1.4181762,111.61795
1.3912987,112.7791
1.4231358,113.61799
1.5810683,116.6486
1.3937844,116.18517
1.5011119,119.29702
1.4896264,119.17412
1.5000936,120.474815
1.3251096,120.98896
1.4469501,121.97096
1.3861694,119.977905
1.4621947,120.808624
1.4644881,118.766235
1.3382015,117.784325
1.366886,115.913445
1.2962267,114.068665
1.1905074,114.97988
1.2262739,116.47799
1.1675798,113.509895
1.2055156,115.53218
1.1502331,113.079666
1.1016934,114.70473
1.0520011,112.879875
1.1976788,109.508545
1.0407817,110.34619
1.1213435,105.033455
1.1499181,103.39868
0.97125155,107.35164
1.0442454,105.5749
1.0378904,101.564575
1.1184944,104.613625
1.0786122,100.27261
0.9913134,100.01903
1.0196404,98.84619
1.0014225,97.4506
0.87958,99.12193
0.90272075,95.61306
0.9689407,94.259254
0.82972705,92.47578
0.9259406,92.16986
0.71088016,92.169846
0.67224133,90.645355
0.65708286,89.828094
0.6433881,86.658
0.57413256,86.41516
0.52204317,87.65333
0.5774261,86.87951
0.5093842,83.00296
0.57959175,83.50895
0.6022708,80.54469
0.5752677,79.21277
0.52836615,82.2442
0.5421515,76.641525
0.39570966,79.166985
0.622013,77.85947
0.5890119,78.23563
0.5297053,74.2333
0.532541,73.98484
0.5476495,74.588615
0.53006965,76.013336
0.54111844,72.71593
0.3643166,73.43859
0.31424132,76.282745
0.39705655,72.82544
0.37550262,76.23156
0.36264402,75.64879
0.28169253,75.20193
0.37727076,77.69267
0.25825945,72.29122
0.301962,74.17098
0.34048605,78.41634
0.15998778,78.80379
0.35446522,80.108406
0.33620024,81.27605
0.48958606,82.330505
0.456901,85.414024
0.61225086,85.83784
0.6630793,88.749054
0.72029996,88.65931
1.003685,91.51833
0.9979932,93.95064
1.0481076,95.295135
1.2423615,98.73882
1.2262542,100.46844
1.3353581,102.22422
1.379846,105.35972
1.4132254,106.624695
1.5259736,105.85858
1.7246019,110.38864
1.6992575,111.591095
1.6108614,111.32634
1.6314273,116.35937
1.7414757,115.4865
1.72457,114.66829
1.6810557,119.217
1.6275564,116.474754
1.7696798,117.03075
1.6979806,119.50677
1.7691816,118.46999
1.7259736,117.932594
1.7204478,118.18632
1.6956894,120.40992
1.760343,120.26933
1.7048359,118.41039
1.6444033,118.68682
1.6658266,116.43517
1.631529,116.262505
1.6106697,116.45087
1.6383402,115.115906
1.6510714,117.54465
1.4832027,114.80754
1.5218966,113.29029
1.3841035,111.10219
1.4131391,110.153114
1.353847,109.36719
1.4456182,109.995224
1.3726383,108.448586
1.4698336,106.7997
1.3865322,103.30703
1.4143065,106.42286
1.3616884,104.59955
1.3914763,101.59603
1.4563044,104.00044
1.344735,103.480774
1.3101692,97.37827
1.3001602,95.79029
1.2822309,97.88126
1.2288411,94.95441
1.2791228,95.558975
1.1680453,94.166176
1.1342695,92.8583
1.0683041,91.19356
1.1034582,91.80892
1.0292544,90.993385
0.97735393,88.11412
0.8876338,90.61046
0.8942066,88.08281
0.9320897,85.6442
0.8962132,80.718
0.817813,81.09022
0.89045876,80.61845
0.84332633,82.46375
0.7324036,77.93652
0.87954074,78.40616
0.86664546,79.32416
0.8585622,77.43581
0.97152615,78.642044
0.9383637,75.69181
0.7897684,74.77093
0.7770724,76.527534
0.85767025,72.87062
0.7872819,73.45454
0.73751044,74.7386
0.71409607,74.77592
0.6252668,75.45574
0.61388826,73.979576
0.47344372,74.06653
0.5592508,73.99891
0.52390486,71.48481
0.6246945,77.26061
0.47865385,76.038574
0.5676017,78.372894
0.47265348,76.9694
0.56312716,80.541885
0.6818212,81.32299
0.6201125,81.77663
0.66088814,83.91688
0.91884595,87.20066
0.88154274,86.71991
0.984511,93.0059
1.1256711,95.24128
1.2446386,93.55527
1.2423879,91.04514
1.4078311,99.97427
1.5257156,98.51983
1.475327,99.37825
1.6306885,103.22776
1.6562715,107.10305
1.812421,105.58929
1.8233206,108.07894
1.8754708,108.941956
1.9766253,111.2552
1.8879608,114.68068
1.8633102,114.114334
2.0624993,116.07593
1.8651973,116.79741
2.0217237,119.43851
2.012881,118.91793
2.0170388,117.8535
2.0503855,118.26337
2.0397744,120.13901
1.9609841,121.28111
1.9937749,116.89416
1.8675511,118.4838
1.880386,120.181854
1.8674662,117.14533
1.7808844,118.58878
1.8598875,117.68491
1.7746646,117.07405
1.6783369,114.770645
1.8035914,114.347694
1.7121804,117.07709
1.7229683,112.46267
1.6534741,114.823746
1.5457867,112.91122
1.5405756,111.7973
1.6189463,111.37456
1.5527309,107.838295
1.5608776,108.85043
1.4810417,107.08286
1.4835738,102.3344
1.4811445,103.47092
1.5182285,102.55978
1.5710971,104.34372
1.4304706,101.80239
1.4535711,99.724754
1.3436797,97.720245
1.2836587,97.450325
1.3041342,96.2648
1.3483391,99.26206
1.2730919,95.742226
1.2425292,93.36942
1.1520388,91.89093
1.1039071,93.05165
1.0949119,92.64507
1.042732,90.666336
1.0424204,86.559204
1.0005693,88.5755
0.8545358,88.43337
0.8846998,86.62713
0.9071652,83.71849
0.82552177,81.9826
0.9750783,80.38441
0.9472258,81.35426
0.9057367,79.34966
0.89144504,80.33129
0.90373355,82.586
0.92323613,77.2941
0.83028805,73.74304
0.8393862,77.02147
0.74721056,74.30052
0.810845,73.34112
0.90703315,74.10565
0.6855953,70.805855
0.80498403,72.16322
0.6545925,71.09585
0.622348,76.44309
0.51099414,72.44168
0.4287985,77.18073
0.5347677,74.38986
0.46084735,75.3999
0.53953034,76.229614
0.56170416,77.88344
0.45550665,75.64795
0.522365,79.41329
0.45380607,80.761086
0.5963376,80.823715
0.63484615,80.4721
0.61132836,83.81279
0.76885,89.32003
0.87997633,90.10654
0.995881,91.220894
0.97679895,93.27593
1.0544232,95.13549
1.1947304,95.38973
1.299324,99.01936
1.4756815,97.3694
1.4216796,104.04543
1.5376804,104.73625
1.6549128,106.87505
1.7074491,106.45151
1.6359243,113.124725
1.7324424,110.27636
1.804052,110.59419
1.9006448,114.602905
1.8631014,112.301445
1.7720947,115.843605
1.6775423,117.434784
1.7526635,118.50261
1.8903384,119.2622
1.7940031,115.39693
1.8596582,118.84848
1.8241993,121.348785
1.7678245,119.78081
1.7237877,117.62204
1.7641653,118.90974
1.703002,119.715546
1.6508234,117.713554
1.6208504,118.33841
1.5723492,117.862076
1.501832,118.15044
1.5503206,114.331375
1.4884095,117.651474
1.4787561,116.11586
1.3192031,112.94774
1.344863,111.91611
1.2877942,110.83613
1.2012748,109.58646
1.2926372,106.72753
1.3109487,110.89558
1.3595114,107.43361
1.1521394,104.59438
1.2563138,106.64926
1.2995557,102.19037
1.3486907,101.91723
1.1714386,101.45029
1.1616293,101.24048
1.1359469,98.61039
1.1427692,99.16114
1.0764568,100.60633
1.0493842,94.0652
0.91539425,94.42625
1.0269825,92.70989
1.0160933,92.37724
0.8971141,93.850395
0.87942934,90.905464
0.83987576,88.19234
0.7575052,88.8707
0.7519928,89.28682
0.6107525,86.98945
0.57747734,83.44908
0.63847864,84.79033
0.55367446,82.72388
0.6563749,84.354225
0.63847077,81.419495
0.6190222,82.36921
0.59541243,79.717804
0.6393651,79.2809
0.5570433,77.1211
0.63754493,74.16917
0.6080501,79.616264
0.46684682,74.60452
0.6575018,74.22928
0.4549978,77.37429
0.49083257,72.99128
0.4631445,73.311516
0.34108883,72.91358
0.29763952,73.90142
0.3412618,72.449486
0.3152113,71.11238
0.2038206,73.96695
0.122384705,73.63934
0.16133083,74.03778
0.11967795,76.201225
0.19450599,78.533455
0.13358848,79.0251
0.19886386,80.95159
0.26063445,85.1984
0.3147975,87.729
0.39064696,85.6217
0.49190256,86.17767
0.49789518,89.96939
0.59936917,88.99519
0.745342,94.13573
0.74778575,94.11518
0.93540883,95.54342
1.0748276,93.85712
1.0890143,101.1255
1.0799158,104.269554
1.1631194,102.09955
1.1862241,107.20303
1.3354203,107.88738
1.3370649,107.7722
1.3577377,109.49652
1.388327,111.449646
1.4853749,114.275536
1.3597172,112.23872
1.5468228,115.142876
1.5224645,115.38988
1.4380916,117.81437
1.465623,119.82833
1.5226454,117.47924
1.4788185,120.20427
1.5022968,120.03298
1.4872097,117.61792
1.4304986,118.32893
1.3687713,121.82104
1.3982464,117.94626
1.330932,120.17786
1.3314043,120.12187
1.355614,119.28591
1.2230253,117.25886
1.2564443,116.869026
1.1585184,112.359566
1.1627741,113.99378
1.1186311,116.45107
1.1747708,111.808174
1.0116154,111.2015
0.9952829,111.03039
1.072556,106.8683
1.0319561,107.15068
1.0067507,104.16276
0.9217649,106.54344
1.0196108,105.04813
0.91185904,104.65239
1.0154301,104.37628
0.94699395,97.84305
0.9076286,101.485695
0.8572713,103.09024
0.792978,99.7042
0.9063709,100.34335
0.79543805,99.62507
0.88727784,96.153625
0.63079244,94.781654
0.8068064,93.15824
0.5946342,91.21726
0.6060263,93.933716
0.59124863,90.1756
0.5198169,90.92387
0.5161884,90.199265
0.41833803,87.1269
0.5073303,83.887276
0.43861267,83.91934
0.3817218,86.353165
0.37458664,81.96814
0.22804892,83.06784
0.3407537,81.34466
0.37910247,76.867485
0.3796819,80.40608
0.32637072,79.074974
0.22516425,76.62273
0.23787501,77.1347
0.3018415,76.071205
0.23516576,73.386505
0.21273464,75.00949
0.12520157,75.290146
0.22136083,76.18159
0.19146791,73.96955
0.026477423,74.50637
0.06816554,74.84575
-0.018111227,73.282776
0.13743794,71.94725
-0.06545472,75.532455
-0.11907177,75.98223
-0.051133156,75.19254
-0.12913546,76.519554
-0.104197726,77.28125
-0.0811962,81.19032
0.06273217,82.88509
0.13847546,80.49966
0.14043735,84.8174
0.120913036,83.23662
0.386477,89.1653
0.34694478,89.07865
0.37387222,92.467674
0.525148,92.225075
0.6608197,92.51125
0.8099285,98.57831
0.8324074,97.39103
1.0652792,98.357895
0.87371826,103.815445
1.089048,103.80424
1.1662595,104.94179
1.083445,107.262184
1.203684,110.49118
1.2882658,109.67323
1.2061995,113.745895
1.306857,116.69519
1.4041378,114.74864
1.4030763,116.87489
1.2873996,117.92495
1.3761528,118.62848
1.398961,116.19719
1.454325,121.00354
1.2737325,120.62117
1.3327469,118.28474
1.3568913,116.91343
1.2946018,122.98956
1.2881429,119.26045
1.310435,120.11435
1.2871202,117.16077
1.1983712,118.5362
1.258765,115.89986
1.1576368,117.05578
1.0901092,116.58173
1.1229942,114.23867
1.0574882,113.69147
0.9489455,112.5959
1.1010736,116.297424
1.0390836,112.07041
0.9847308,110.584854
0.88665354,107.87066
0.9237921,107.72966
1.033188,108.68013
0.9461073,106.52682
0.9563946,105.65787
0.84574515,102.53038
0.9392638,104.966835
0.96605825,102.20949
0.8943525,99.33645
0.84779733,99.33073
0.9920583,97.1863
0.9014551,95.17951
0.81290966,97.28014
0.8186564,97.44109
0.6795423,94.03643
0.6132251,92.819214
0.6304745,91.6925
0.6029391,93.44123
0.49636963,88.99549
0.52900285,91.337585
0.58268297,87.17408
0.48958266,88.29384
0.41119394,84.85809
0.39350677,84.04604
0.4882213,83.838066
0.35988602,86.03794
0.46512657,81.21762
0.3454355,80.35437
0.51280653,79.49508
0.4680702,79.68012
0.43886152,79.374306
0.33375204,77.54916
0.37351093,78.5455
0.3769953,76.18871
0.45890868,75.25003
0.30696595,72.83683
0.29222694,75.57294
0.309562,76.847824
0.32675225,73.208435
0.19082846,74.01888
0.13476825,71.30072
0.15660019,73.92423
0.13190377,73.90441
0.07790963,74.80784
0.10619524,77.69727
0.057201296,78.70996
0.10571723,76.06674
0.086177826,77.16792
0.17314193,80.16636
0.20796447,81.367805
0.22764434,80.26215
0.39678776,84.14584
0.42580995,88.60795
0.45414072,86.93884
0.5861527,90.790115
0.7230174,91.243996
0.8557606,95.747505
0.88042885,95.26686
1.0075487,96.90706
1.0978712,100.02585
1.1574556,101.85573
1.2570354,102.614555
1.282778,106.181404
1.3400878,109.08607
1.4560359,109.501205
1.3387595,109.0888
1.5383874,114.76087
1.5633065,113.86192
1.5258819,115.10632
1.538873,112.696304
1.5957177,116.75997
1.5994127,118.22283
1.5286878,119.90513
1.5160856,118.099304
1.5791098,117.707726
1.6589371,117.45073
1.6886303,122.36579
1.6709814,119.9162
1.5712956,119.1508
1.5800278,119.35944
1.5741247,116.66485
1.4332978,120.84123
1.3885745,116.98288
1.439005,115.363815
1.4656049,115.578735
1.4543525,115.27484
1.3823761,114.82933
1.3569875,109.43006
1.2530068,114.95918
1.2033216,110.78327
1.4844785,109.19668
1.2839023,110.36995
1.246243,108.45659
1.2667272,109.22093
1.2709973,106.30791
1.2468445,106.57998
1.1246625,104.93508
1.2997848,104.233246
1.2810695,104.977585
1.216685,100.85127
1.1412594,100.311066
1.2074423,99.496574
1.1852164,96.991974
1.1417075,96.43122
1.1240399,94.397865
1.0899473,94.822815
1.0158501,92.02545
0.9970242,92.97278
0.89555585,91.456245
0.8718206,89.17957
0.86866236,88.31168
0.8520969,88.93579
0.73585266,88.15339
0.7652715,86.751305
0.63015753,84.73899
0.6660853,78.99645
0.7704847,81.105835
0.6257424,83.632965
0.7425702,81.47766
0.6126763,78.70809
0.7837092,79.19317
0.78556687,73.31883
0.85095924,78.17589
0.7926063,77.86732
0.77664524,75.167336
0.7067023,73.38414
0.64545405,76.20139
0.6748323,75.27424
0.65135217,72.15763
0.6570608,76.0972
0.5646591,73.49764
0.5857036,73.39496
0.5267121,74.556305
0.40634963,74.94812
0.48217335,74.51369
0.36713088,75.15453
0.33787486,77.74228
0.42833838,77.37387
0.34839195,78.45205
0.5256102,78.31017
0.51034105,78.298965
0.5766723,82.688934
0.62215465,85.68186
0.685261,86.66233
0.81127197,84.623276
0.81332076,88.996864
1.0518616,91.133095
1.0863426,90.357025
1.1812567,93.45172
1.2307307,93.45681
1.2692771,101.35488
1.3754307,100.8762
1.5795777,100.9242
1.6550937,103.97175
1.6357,108.24884
1.7252032,110.61797
1.6429223,110.89131
1.7067868,110.58308
1.7802398,114.989525
1.8021485,112.547516
1.9822564,115.02417
1.9160348,116.484245
1.8219,116.664825
1.8935508,118.364204
1.7761556,118.6305
1.9271739,118.37879
2.0050647,118.90583
1.8795983,116.728165
1.9794677,121.84363
1.9524169,115.4524
1.8166219,120.393166
1.7164462,119.47052
1.8480883,118.65488
1.6974036,116.40694
1.810053,115.04238
1.7200098,115.464294
1.6884917,113.09986
1.6889898,114.09658
1.6920158,111.7338
1.708136,114.89994
1.6574616,113.207565
1.5188638,109.92615
1.6367189,108.03649
1.5876948,108.65474
1.484396,110.46376
1.6189651,106.05626
1.611976,102.93254
1.5105556,108.09322
1.5701954,103.98214
1.5534273,100.470505
1.5012934,102.618996
1.3772583,100.12762
1.5087786,95.96352
1.4797242,95.29034
1.3401425,95.414055
1.2599663,98.634674
1.2525806,99.03535
1.2716886,94.72804
1.2573432,91.25896
1.0817189,90.034966
1.155691,89.337524
1.163668,90.03399
1.0917733,88.380516
0.9663946,86.41494
0.9482452,86.558044
0.9736234,86.09645
0.9433424,85.85572
0.9038695,84.12534
0.8010353,79.78842
0.8279736,79.51909
0.91166556,79.69218
0.8938355,80.81878
0.97393364,80.577576
0.9991937,76.87331
0.8953936,75.2851
0.9069699,73.62375
0.95056325,72.702
0.8368987,74.654564
0.8019679,74.95029
0.7256468,73.27444
0.7705376,73.65829
0.6946332,71.44664
0.74853253,74.22346
0.5691257,73.678314
0.50892967,73.435295
0.56045914,72.41195
0.5645102,74.40653
0.54172325,78.33161
0.5029346,74.14985
0.5725304,76.53429
0.5253699,80.941055
0.4937678,78.659424
0.6134575,82.59946
0.7905513,83.81362
0.737987,82.971245
0.7938071,85.37084
1.0719546,85.87786
1.0427474,91.318214
1.0463916,91.00369
1.1149701,93.73941
1.2669195,95.55548
1.452797,96.85682
1.4825367,96.71517
1.4915385,100.74594
1.6915673,101.33194
1.6124507,105.74546
1.7502962,106.28412
1.6388059,110.65963
1.8258879,113.50252
1.9438099,112.63446
1.830155,112.51084
1.8687407,111.134766
1.8121713,116.189896
1.8723342,115.46735
1.9238472,117.30274
1.9299974,117.04487
1.9811875,118.24833
1.9690329,117.6063
1.9086941,120.62113
1.870382,117.12504
1.8641121,122.13279
1.8970382,116.585175
1.8725888,117.301834
1.7786453,120.898605
1.8559983,117.99806
1.6832982,118.12537
1.6501744,115.153595
1.6238644,115.631386
1.558764,115.93237
1.6398015,111.800026
1.5452632,111.13206
1.5471507,111.38912
1.5018892,110.13473
1.5637882,112.634224
1.4046321,109.98511
1.4869528,111.45436
1.4295248,108.182526
1.4623902,105.35865
1.4279306,105.255104
1.4677129,104.829056
1.3843969,105.35666
1.4290007,100.86997
1.4540929,103.17452
1.2964453,100.123566
1.318553,97.95288
1.1646097,98.509895
1.1452298,97.23125
1.1982993,94.58781
1.1559458,93.95785
1.0888861,95.379326
1.0800512,93.28601
0.943899,92.95633
0.9349975,93.4176
0.97190297,90.095955
0.9306191,90.720726
0.86911154,89.69297
0.84553707,86.00147
0.797462,83.29462
0.78718466,83.45984
0.83502614,81.8258
0.91033244,84.07762
0.8139526,80.88581
0.8042241,80.341
0.624307,78.634315
0.750825,76.341736
0.8013622,76.163765
0.6685038,77.59069
0.7871765,74.6958
0.6881323,77.37506
0.7325251,73.780624
0.5598775,74.33878
0.66585886,74.311386
0.57308024,75.10253
0.52765894,74.08356
0.4450311,74.882744
0.49915332,73.77403
0.23268744,74.23742
0.44881633,74.9229
0.36781505,78.32624
0.31693077,75.59522
0.28456613,76.254654
0.40090707,79.12563
0.3514855,78.119965
0.4104683,80.60144
0.43949416,81.78299
0.49716255,84.897804
0.4914843,84.50484
0.7565584,87.09654
0.68744516,90.64553
0.8477664,88.9175
0.88928646,90.26286
0.9996075,93.03809
1.1477695,95.58036
1.1750728,95.878815
1.1963155,99.9135
1.3759685,101.44281
1.3531663,105.716225
1.409916,105.035545
1.4308964,106.72124
1.5896504,110.49014
1.4849814,113.88115
1.6583523,111.30375
1.5916475,114.86294
1.6696968,114.58365
1.5716953,116.146194
1.6315178,117.345474
1.6970748,116.698425
1.5545634,120.569435
1.7635727,120.95033
1.5318174,118.81592
1.5628693,120.05626
1.5236139,120.43797
1.5349636,119.48942
1.5209054,121.57136
1.530372,120.985886
1.4599309,119.9557
1.3645165,117.759605
1.3991139,116.29651
1.4836752,117.50693
1.2792565,116.64415
1.2373493,115.19941
1.2054342,116.41892
1.1712458,114.23997
1.2419072,110.83294
1.0647707,110.451866
1.2120278,111.45014
1.1232436,110.18356
1.1071645,107.003716
1.0990213,106.415474
1.1126969,106.14527
1.0133901,104.97174
1.1532142,103.67683
1.040336,103.20753
0.9751253,101.54282
0.9776339,96.18436
0.9725505,101.965004
0.90788424,98.80731
0.91535205,97.74896
0.90310544,96.29534
0.81776464,94.960815
0.7230862,96.82523
0.7360888,94.48221
0.73766214,92.01851
0.7332871,89.37098
0.7162284,90.79732
0.55437535,88.00577
0.6230137,83.35504
0.5731419,85.01334
0.45515612,82.03283
0.40182805,84.544266
0.45192817,83.749054
0.4421479,81.97456
0.4652949,82.53482
0.5077575,81.93277
0.51162946,75.71433
0.47149003,77.51772
0.38323104,79.767715
0.38420764,76.01382
0.36713135,75.58361
0.36596557,76.82496
0.45240074,74.50059
0.28648332,73.372604
0.3336162,74.91434
0.25488007,73.87331
0.10277042,73.93115
0.26933408,75.77099
0.0075413114,73.7125
0.17161894,74.63678
0.0900108,73.10573
0.030376744,75.83064
-0.028091893,74.888626
0.043002147,76.170586
-0.068131015,76.14454
0.01338638,77.92422
0.17822185,80.72903
0.09167576,82.52592
0.23032933,83.036255
0.21002612,86.59055
0.34260893,89.27547
0.3517208,89.33295
0.35163435,88.687454
0.5833396,96.40223
0.6899567,93.006615
0.77685845,98.559326
0.86908597,95.14725
0.8711388,102.161705
1.0539992,103.000824
1.1403885,100.40556
1.0945593,103.33564
1.1541302,105.75936
1.1472054,109.13128
1.2917111,112.73531
1.3118544,109.83159
1.290655,114.52346
1.4119169,112.69052
1.4609103,116.03764
1.4102411,116.220505
1.2057357,115.22278
1.4164754,115.10376
1.3426723,118.670135
1.4581096,116.91584
1.4223622,118.80314
1.391194,120.745705
1.3927538,118.35032
1.3679631,118.85594
1.3128389,118.3743
1.2897855,120.48712
1.289733,121.642235
1.2690512,116.66773
1.1473994,116.771996
1.0776095,116.076935
1.1251421,115.13992
1.0593463,113.26676
0.9952351,114.275314
0.9895996,113.12976
0.7927527,110.53982
1.0155478,110.726166
0.99959254,108.8945
0.99852204,109.37418
1.0118625,109.66333
0.8721734,103.932915
0.85703224,105.486275
0.9374705,104.124504
0.84465235,102.45537
0.8131068,100.950165
0.8780651,99.58535
0.75832534,95.942635
0.9038279,98.85554
0.8723102,100.9017
0.80756307,96.91555
0.72349364,95.04875
0.7010995,95.28163
0.6267966,93.88118
0.60037315,90.78591
0.4782436,89.58853
0.46040466,88.42628
0.49267572,90.56495
0.492435,88.51346
0.3778685,89.00315
0.41500497,85.2757
0.2022625,87.0903
0.3142103,87.96067
0.33934486,83.295654
0.36953086,82.023636
0.3830234,79.86639
0.30115047,81.25248
0.3585514,77.64225
0.2994662,77.981026
0.42302993,73.88711
0.4336355,77.789894
0.2885794,76.23135
0.36802456,73.25144
0.29466254,73.83192
0.1848124,74.453514
0.2501999,74.82967
0.18668689,75.99334
0.05720543,78.68916
0.08912833,73.49494
0.12440122,73.861
0.074519806,76.2018
0.0006110934,77.73793
-0.1380242,73.14784
-0.10205474,75.800865
-0.0015267708,73.00095
0.011757742,77.35561
0.07486039,79.971306
0.1488844,83.74874
0.19604766,80.354675
0.34131977,82.204315
0.28829086,83.531006
0.47074255,87.17083
0.43141064,87.26513
0.48974234,90.13485
0.6772253,92.87478
0.7491109,94.59123
0.84892076,95.35857
0.9288393,98.744545
1.0139704,102.51298
1.0588628,100.61219
1.0504869,104.87516
1.0591902,106.37566
1.2422711,110.880066
1.2222422,107.84236
1.3038639,111.3823
1.4715647,111.25899
1.4590014,112.99102
1.4777591,115.02861
1.501251,116.6719
1.3600448,116.993416
1.5607358,118.62417
1.4766784,117.65855
1.3962685,120.87451
1.3673539,116.937386
1.4754037,116.46949
1.4654675,119.808266
1.3506303,120.37257
1.4558659,119.74263
1.3860192,122.352936
1.3223723,120.86877
1.3446923,120.10976
1.3036057,117.424255
1.1604853,115.702484
1.2682598,114.165855
1.1892443,115.144005
1.1753718,114.419235
1.1205558,115.90847
1.093509,111.0271
1.2432858,112.36666
1.1577013,109.28974
1.0607985,106.52759
1.101724,106.99208
1.06714,109.46989
1.0959109,103.74547
1.1891935,106.08239
1.0754985,103.47413
1.1401452,102.993256
1.0682368,102.114845
1.0298803,101.10054
0.93552613,97.099045
0.9731356,100.60472
0.95837134,99.551506
0.95646495,98.97499
0.94817287,99.94702
0.82577044,91.58641
0.86226296,93.1983
0.76165307,92.586426
0.7474113,90.840324
0.6959455,89.398415
0.7690482,87.84112
0.5208395,88.90621
0.6245544,85.03066
0.54581684,85.481926
0.5694693,85.82075
0.61919886,82.22597
0.55814403,80.77755
0.45168883,79.09104
0.7061757,79.17372
0.6554233,81.01508
0.5494263,76.88165
0.6726595,80.38369
0.56330943,79.78485
0.5834657,76.00375
0.5294071,76.13359
0.5265052,75.62989
0.50061345,73.09026
0.4587483,75.47957
0.5048257,76.20092
0.4317858,77.11096
0.36906496,73.74939
0.40419975,75.14953
0.32162714,75.85842
0.22789854,76.16541
0.31089017,75.70494
0.26460066,75.006096
0.25660354,78.94303
0.3801961,78.095146
0.29277697,79.87936
0.3716938,80.44673
0.37050205,83.39486
0.5928761,85.22588
0.6008689,86.0419
0.6663318,88.62718
0.6921271,88.54191
0.7158791,87.67337
0.8676292,92.62142
1.0254909,95.02565
1.0644195,97.451225
1.2128454,101.314224
1.2629658,99.31866
1.2476801,101.02597
1.4586936,103.41179
1.5402704,109.214775
1.4860412,106.58335
1.5925282,110.073875
1.6378664,108.934746
1.6746153,113.16257
1.7488319,112.70414
1.7774829,113.46026
1.7785927,116.959755
1.6474824,119.014206
1.7207596,119.62291
1.7077228,119.72966
1.8012424,120.30728
1.7315664,120.5372
1.7745574,117.96347
1.7512211,116.5254
1.8076884,119.703
1.7164078,120.05753
1.7061553,119.131645
1.7684335,122.01021
1.654,119.01209
1.7125218,115.514885
1.5770453,115.497826
1.6706663,114.67938
1.5860105,115.05486
1.5147545,113.78015
1.4730532,115.52734
1.4512175,112.10473
1.4667773,112.01745
1.4154787,112.88326
1.5106778,108.42023
1.4671153,108.55906
1.474165,106.09857
1.3725208,105.458984
1.4146667,102.56575
1.4176953,103.98973
1.3446275,102.83008
1.3869886,100.5675
1.6099374,98.54234
1.3988467,100.61445
1.303037,96.933266
1.2522454,97.86526
1.2477684,97.92171
1.2317009,94.15684
1.2439197,97.57242
1.0973543,93.40084
1.1461112,94.11638
1.0247043,92.72646
1.0498148,89.2581
1.0603596,86.65289
0.94801915,89.67925
0.9417678,85.34996
0.92723507,86.12784
0.9522395,85.208176
0.96331304,86.30472
0.9440431,84.927475
0.9544189,81.101906
0.9143267,80.59023
0.84925,79.52332
0.954544,76.627686
0.7609414,77.45022
0.85345805,77.16542
0.89224005,75.21136
0.8263767,76.751076
0.8718271,73.53856
0.77320784,74.08674
0.80706054,74.62409
0.7411784,73.195
0.75309926,74.777115
0.60962206,73.697495
0.59775555,72.464745
0.63094616,73.85316
0.47532335,73.38647
0.58964294,77.644104
0.63430923,77.62259
0.5510357,76.848694
0.50512105,78.45681
0.6485484,75.77076
0.5727708,82.42273
0.58358055,81.01028
0.61986846,84.414314
0.6488754,84.022995
0.81510204,84.31578
0.89296556,85.63364
0.99586725,88.57411
1.1090693,91.88917
1.0210506,91.704704
1.2376151,96.96358
1.4841578,97.30416
1.5391515,100.096115
1.627576,101.15362
1.6724313,101.30624
1.7081158,106.77019
1.6944864,108.92642
1.9162527,107.70838
1.8279799,112.812325
1.8976889,110.91915
1.8564541,112.69637
1.9639503,114.913025
1.9397744,114.34054
1.9968039,113.993965
2.0353603,116.82145
2.0258737,119.0448
1.9439439,121.8329
1.9425088,116.808914
1.9316589,120.13748
1.9797316,117.78368
1.9335752,120.736984
1.9259593,120.04142
1.8653482,119.32211
1.8003856,117.607155
1.8900805,117.91549
1.7941419,117.207016
1.7136041,118.51912
1.8321472,117.622505
1.6936511,115.86515
1.6857506,113.49644
1.7589787,116.40183
1.6515381,113.11012
1.477034,111.20213
1.5463989,111.151146
1.4781117,108.326485
1.5516922,110.34391
1.4069428,108.59612
1.5875293,105.12716
1.542737,105.21349
1.4549495,106.653114
1.5378873,104.43656
1.5110385,97.87432
1.5045761,98.951225
1.3987037,100.10461
1.3300954,99.35095
1.4650496,97.6903
1.3802783,99.355225
1.2609187,96.51544
1.2410055,96.44067
1.2096487,94.91758
1.1355311,96.33498
1.2071443,91.72956
1.0754673,90.2321
1.0314757,87.633026
0.986049,90.79541
0.9165203,87.007484
0.97888565,85.273224
1.0431278,88.44364
0.90930694,81.42392
0.90786725,85.825676
0.8276532,83.26896
0.81253844,83.85929
0.9026969,80.33705
0.8658754,79.026855
0.91527027,80.22025
0.94183236,78.509544
0.8523282,78.02271
0.87139225,75.28933
0.7810724,75.80934
0.7113905,73.878654
0.7863885,74.91484
0.69347477,74.396904
0.79651284,71.04229
0.5857371,73.11582
0.6275149,71.961044
0.5129078,73.804214
0.5014903,74.851524
0.5647925,73.94987
0.50819355,75.12026
0.44116196,77.16355
0.40205142,76.69608
0.47126085,77.42815
0.43851963,78.85534
0.53795487,82.10528
0.561665,82.234695
0.63942367,82.48632
0.48151767,84.7516
0.73256314,85.883354
0.89676744,88.5789
0.8785804,89.1135
0.9502737,94.13568
1.1045979,92.51604
1.141926,92.25343
1.3694146,97.53008
1.3778595,102.82041
1.4402637,101.068535
1.5790696,103.48035
1.530659,107.41649
1.5778536,107.14172
1.6445874,107.19829
1.6639173,108.48717
1.7382348,108.71605
1.7762761,114.17023
1.813181,115.60987
1.7889413,117.12445
1.7613211,116.82248
1.7764663,117.94153
1.782343,121.08326
1.8826509,120.08299
1.7796837,119.45545
1.6552255,120.6436
1.7615775,119.899086
1.7654154,123.18708
1.8037755,119.15755
1.7871583,118.0559
1.7167056,118.4713
1.5611053,119.220726
1.5817283,115.61962
1.596428,115.849014
1.5317861,117.91596
1.5279235,115.31553
1.422091,115.47702
1.392987,112.75079
1.3425318,111.1451
1.3582402,111.98797
1.307425,113.42645
1.2424318,107.30372
1.2715718,107.344284
1.2891557,106.403625
1.304438,108.283195
1.2684349,105.83016
1.2460568,101.08059
1.1455396,104.16212
1.1904871,104.161156
1.1824429,100.87902
1.0573815,102.42482
1.09437,95.00427
1.0034492,98.650764
1.1512998,96.48805
1.0684141,94.49306
0.9724862,95.23423
0.99976146,91.93759
0.91079414,92.806015
0.7585653,94.28529
0.8172315,92.3283
0.8082515,88.858864
0.73144525,86.38286
0.67201895,85.25892
0.5871938,87.704056
0.63391113,83.5951
0.59196967,82.771255
0.5914795,83.20244
0.6606449,80.51944
0.514318,82.16317
0.4645076,79.050674
0.69175357,75.80044
0.48496467,78.44491
0.61648154,78.00752
0.71481705,77.54418
0.56919396,77.89654
0.42498234,76.7892
0.4771612,73.684715
0.38851288,73.652504
0.34753942,71.032394
0.3468922,74.665115
0.24848223,73.26892
0.26840267,73.9639
0.32171455,75.24089
0.2141092,75.24411
0.116730854,75.999214
0.12261626,75.51355
0.1724126,76.91523
0.1370653,77.89901
0.10978962,78.378296
0.15996923,79.67161
0.25345853,81.93027
0.25315616,82.587166
0.4005734,80.73653
0.45805833,88.81872
0.43999135,86.588745
0.565522,91.35942
0.67580813,90.70042
0.7649558,90.90519
0.9442761,95.94872
0.98894006,94.09286
0.9957102,97.63346
1.0796142,98.75959
1.1545417,102.028915
1.2834461,107.1976
1.2642992,107.84991
1.2783673,107.64067
1.3865045,110.47714
1.3722329,112.80782
1.4090735,115.08031
1.5776317,113.21824
1.5391154,113.224045
1.5017024,119.171326
1.3869972,119.55357
1.382741,118.5875
1.5934573,117.22911
1.5147069,119.83315
1.4915009,118.27546
1.4030498,115.27357
1.3934958,119.64587
1.5056279,118.43138
1.3245971,119.5295
1.3245454,119.30724
1.3935189,119.11878
1.2660792,116.64676
1.2605671,115.92238
1.1459916,114.13527
1.224615,112.3115
1.1858741,114.23181
1.1837586,114.145454
1.0790513,113.75908
1.0072125,113.96959
0.97424805,108.34294
1.0381621,107.12443
0.9442149,107.34976
1.0450172,108.14402
0.96602166,106.03156
0.9446299,104.51314
0.9825797,104.063835
0.85234565,105.3293
0.80977196,102.272644
0.86372274,100.38582
0.9743061,102.15748
0.8356653,100.8764
0.8608816,94.84227
0.7490062,98.08378
0.7453281,93.62412
0.69404596,95.319984
0.6480138,92.91303
0.6942569,91.78154
0.6585238,94.92622
0.52684116,88.2736
0.57150024,93.08863
0.48577288,91.95813
0.46889618,89.052086
0.3080652,87.161415
0.39106154,83.76808
0.46913385,83.68157
0.36712953,83.17473
0.31506634,81.98715
0.33140728,81.80671
0.45246425,78.530655
0.38608813,78.96411
0.33628786,80.11314
0.29136407,77.528885
0.41398972,77.75542
0.273336,73.80295
0.24101187,76.35138
0.22914028,78.10807
0.23223114,73.63613
0.22823353,71.34541
0.08001543,70.524445
0.05829173,73.40456
0.002729552,74.851906
0.14903012,72.0217
0.0034975219,71.59694
-0.013817253,77.264854
-0.031045202,76.64085
-0.0065742545,76.07235
-0.13723439,75.884186
-0.025184214,77.565796
-0.015355457,81.832375
0.03365211,80.49998
-0.07131078,83.54588
0.08290757,83.11056
0.1776267,85.313126
0.2912499,87.43499
0.26279262,87.289185
0.36131722,90.380905
0.4468147,89.557686
0.7084745,93.67985
0.76362157,96.9201
0.8271034,98.835434
0.95359284,100.15388
1.0283321,102.59826
1.0648258,105.234955
1.1879569,105.67668
1.1606746,106.391945
1.2442554,107.07098
1.2422636,109.71451
1.348697,113.60997
1.3689781,113.26082
1.2646546,114.5223
1.3345678,117.032364
1.351302,116.819496
1.402684,120.94787
1.2969722,116.36411
1.4169571,117.89367
1.3303943,117.89097
1.4196433,119.589485
1.430594,119.84909
1.3462553,121.55663
1.3087122,120.51457
1.2693167,121.340904
1.2778863,122.67017
1.2791622,120.67944
1.2284214,115.19596
1.1730024,117.48857
1.1081502,115.03619
1.1950445,116.04485
1.0626367,115.63918
1.142554,111.1938
0.9807286,113.1869
0.9953863,110.35462
0.87510884,110.99173
0.9974334,107.806595
0.80374116,106.85937
0.9643811,107.33943
1.055982,106.36567
0.7732704,105.86035
0.9797577,102.73557
0.93745,103.80993
0.86848503,102.25694
0.8559263,98.207695
0.908144,99.36971
0.7997434,96.22009
0.8365719,100.16412
0.81321234,95.256805
0.75829166,94.223915
0.7611221,94.57507
0.67851,94.748405
0.791937,91.03191
0.61681914,93.85969
0.6499656,89.429306
0.5692034,90.43335
0.47049323,87.07246
0.5174776,85.147064
0.50987065,86.08248
0.5251665,84.23667
0.46883252,82.561646
0.51787645,84.97986
0.4969282,81.17857
0.42785707,80.183945
0.40494227,79.70374
0.4496727,79.28136
0.41343412,77.61561
0.4675128,77.96161
0.43963096,73.435394
0.40546304,78.280304
0.3372895,72.6996
0.452174,72.867546
0.29302457,73.495255
0.36465436,75.14086
0.39859742,74.37286
0.28963587,73.63442
0.18474615,71.1901
0.15300192,73.85706
0.09885935,76.62292
0.16465048,72.01483
0.112295814,75.55719
0.23637748,75.481
0.13792752,74.69399
0.1733488,78.51109
0.10618301,82.31722
0.3120201,82.48408
0.24533778,81.038315
0.37845403,86.17846
0.49172246,86.02164
0.48625562,87.804054
0.64236945,89.805595
0.704415,94.408295
0.8853781,90.89965
0.8210994,93.82191
1.0735337,96.03481
1.1491008,96.76268
1.270784,102.2532
1.0832291,105.10359
1.2520602,103.80678
1.410242,107.845894
1.4075267,108.53495
1.5626395,108.20345
1.4988304,112.6351
1.5350503,113.46848
1.4996457,114.01741
1.6029516,114.86318
1.6330236,116.04009
1.6469657,119.44102
1.6701769,119.104164
1.675111,120.62815
1.5842355,117.84148
1.5633249,118.28834
1.5530138,120.66969
1.5367734,119.85264
1.6173129,118.22274
1.6282088,120.2729
1.513278,118.68365
1.5317025,119.12577
1.4359308,118.513596
1.5115744,115.87347
1.5390176,118.53795
1.3776846,114.275696
1.490975,114.56682
1.327985,114.263725
1.4158926,113.362724
1.2390734,114.7328
1.2798358,110.2611
1.3333124,107.71468
1.27682,108.7471
1.3482654,107.41107
1.2166846,106.94649
1.1510171,106.01638
1.2867922,105.92172
1.1976564,103.16548
1.2622257,98.237465
1.3778577,99.9326
1.245403,99.34277
1.194385,97.68989
1.2224765,102.70698
1.1293902,99.91441
1.1623678,97.10611
1.0768385,95.75779
1.1276315,92.96963
1.0198866,92.69487
0.9092073,93.22066
0.93831825,91.29322
0.7904051,91.7962
0.8345346,88.774605
0.76559484,87.90043
0.76529956,88.84557
0.7577621,85.85493
0.70234674,84.04547
0.7819551,85.775604
0.80697745,81.87842
0.82391644,81.47173
0.6860655,79.148445
0.86139995,81.86486
0.7432915,78.64114
0.7585608,76.06955
0.75255966,76.37359
0.71901816,78.438675
0.632174,73.52186
0.7894606,76.64172
0.5919203,72.66277
0.72095674,73.44545
0.53379834,76.50401
0.56923544,74.218025
0.60940784,75.17184
0.48637143,73.14172
0.45404607,73.86473
0.51843226,76.3158
0.47269526,76.5234
0.35892925,76.96272
0.43701807,76.76129
0.4962184,78.68026
0.48439634,80.64636
0.508878,80.827255
0.6702367,80.36501
0.6252562,83.58044
0.76290995,87.63828
0.8119228,88.966125
0.92601186,88.24898
0.93492466,90.30861
1.0667416,93.05034
1.2531551,92.92957
1.2390776,94.15091
1.310169,97.60795
1.4590036,100.25856
1.4506321,102.0965
1.590086,105.19485
1.5962926,107.75414
1.7182268,109.24809
1.7946258,110.02526
1.8135109,111.75774
1.8265259,112.602585
1.7847021,114.08464
1.9560076,114.95116
1.8885862,113.85052
1.943443,115.45044
1.8759239,116.33191
1.9590161,117.80192
1.985151,121.68105
1.9689262,123.5545
1.9331737,119.335236
1.9155952,117.12003
1.9790779,118.508575
1.8770155,120.75624
1.8519862,119.14181
1.7565888,118.130684
1.7988665,121.182915
1.8086442,117.60323
1.7629303,115.32697
1.7043846,115.76473
1.7013667,114.858025
1.6610271,116.22742
1.6183314,111.77676
1.6555696,112.366936
1.5830559,112.74478
1.6082729,111.253685
1.5090345,111.26038
1.5254436,107.90348
1.5040599,107.807465
1.5132217,107.596
1.426342,103.19404
1.5267069,102.79772
1.4846456,101.5122
1.4439077,101.67019
1.4274241,103.28617
1.3731283,97.96785
1.4007818,96.90856
1.3991586,98.752365
1.2770411,96.187805
1.2670119,96.28818
1.3490554,91.81599
1.1785315,90.757614
1.1195275,90.94924
1.0784371,90.04815
1.1301167,91.19888
1.1084055,88.15199
1.0884912,86.91714
0.9876551,84.05528
0.97346956,82.39123
0.84593844,82.479515
0.95015013,82.83204
0.9467673,80.34106
0.96534824,80.172386
0.9313587,80.26003
0.7830405,79.41575
0.91422564,79.92915
0.87798274,79.918304
0.9101773,76.350006
0.8752481,75.73536
0.8924522,78.985985
0.8901304,75.493324
0.89896834,76.36224
0.9532154,73.47033
0.728876,75.53955
0.7166277,75.56443
0.81166995,72.08522
0.67724067,75.001076
0.69873625,74.7395
0.6075369,76.408165
0.5794305,73.90174
0.58598065,74.66029
0.50541407,74.766495
0.61745304,80.066986
0.43181172,79.45695
0.5940962,81.304306
0.56848204,84.68742
0.6513091,83.08632
0.7326605,84.71281
0.7694328,88.45955
0.8462412,89.23166
1.0699131,91.142715
1.0098021,94.74042
1.2119068,92.59828
1.20314,95.51984
1.3473864,95.85145
1.5538409,99.06698
1.5790304,102.83227
1.7134452,102.28761
1.6410661,103.71633
1.8115126,108.09274
1.7427112,111.65197
1.8633164,108.294464
1.916817,111.74199
1.9508952,111.90773
1.878138,116.49004
1.8836372,117.72032
1.9064872,115.20306
1.9465164,116.65264
1.8947238,118.35069
1.9619995,115.46704
1.8599995,118.31461
1.8058579,117.42702
1.8430157,117.60547
1.7765404,119.475426
1.9492631,119.56936
1.8052545,119.66643
1.8566811,118.482346
1.7152822,118.39955
1.6306134,119.72068
1.6559545,118.208595
1.7387381,117.22121
1.6154523,113.39488
1.6306555,116.363235
1.4386876,113.23129
1.4493177,112.637695
1.4881157,116.19634
1.5025214,111.01724
1.4658157,110.7719
1.4447161,108.52765
1.4697903,109.54344
1.4790958,110.0839
1.3537145,103.0981
1.5172237,105.33486
1.369515,104.70345
1.370512,102.79631
1.3272336,101.91557
1.3814718,102.46161
1.291134,99.31765
1.3605342,95.64278
1.1555893,98.013916
1.2140243,96.550255
1.1818858,93.4304
1.1242404,92.22107
1.0346175,91.57836
0.9868487,92.23202
1.0258523,89.58738
0.9335147,87.41593
0.9323454,86.59001
0.97629255,84.88557
0.8796733,85.28934
0.85618526,84.83494
0.8422022,82.93391
0.71309745,84.37533
0.7085632,83.29152
0.7383957,80.14649
0.85254985,79.31382
0.6798019,78.34492
0.83416665,76.42639
0.6703578,75.872
0.6631129,74.17849
0.7153174,80.23036
0.6770797,75.1445
0.65509516,72.039856
0.64940095,76.16649
0.46134704,76.573586
0.461194,72.41197
0.42903337,75.85663
0.46035236,73.92164
0.4546055,73.587456
0.3356039,71.98068
0.33439064,76.94439
0.26256666,74.3685
0.3614062,78.95454
0.3853135,76.060745
0.31732118,80.69598
0.25514224,78.70511
0.3892462,78.11099
0.3761407,81.15252
0.49075124,82.18867
0.5112737,87.26365
0.67810947,85.05696
0.7262788,89.344795
0.7552099,91.75544
0.8261115,92.63778
0.9398304,98.742386
1.0834801,95.32878
1.1097544,100.003876
1.1672313,98.89736
1.3066392,102.32146
1.3665789,102.006256
1.2890109,106.87336
1.4092654,105.787704
1.4856504,110.76093
1.5449175,109.8612
1.6330028,114.31115
1.5030593,116.17967
1.6080185,113.96235
1.5872242,118.46043
1.7702538,115.52811
1.6117377,117.5389
1.6381931,118.19269
1.67352,117.79268
1.4903802,118.10824
1.5822327,118.52322
1.5684505,120.76812
1.6214334,120.05553
1.5083638,118.6865
1.4180257,120.62962
1.4654702,114.76165
1.4593564,119.03108
1.4242376,115.65448
1.3751026,117.78023
1.3940091,115.585396
1.4091723,113.44704
1.2692336,115.95328
1.309449,114.98714
1.138741,113.47245
1.1607912,108.70023
1.2214164,109.943474
1.1985729,107.756676
1.1455479,109.0397
1.0240644,104.08054
1.0634559,104.438065
1.0021942,104.90247
0.97650504,104.33444
1.0202266,102.64742
1.0239266,103.41717
0.8630559,99.38178
1.0077707,97.434586
0.97394174,99.12287
0.7771182,96.63429
0.9929406,97.46
0.8945051,97.98558
0.7053224,94.9052
0.6866985,94.76247
0.6676036,91.34313
0.6456991,93.25331
0.69097537,88.96619
0.5482173,92.52656
0.4786888,88.48616
0.4290521,87.33349
0.4638608,83.022995
0.4153233,84.86731
0.46082002,84.70228
0.5033978,80.87605
0.42995915,77.755585
0.49484253,80.75686
0.36213353,78.855064
0.42298293,76.236
0.37477374,73.45822
0.41279054,76.74916
0.26968977,74.24137
0.48633602,77.64359
0.2891206,74.12852
0.31107143,74.74768
0.29634622,72.849884
0.266976,73.69365
0.21631652,72.60427
0.25942504,73.502304
0.14509659,74.63577
0.13146189,75.34817
0.12245386,74.388306
-0.056232017,75.2801
0.13991177,75.82264
0.009842615,75.95479
0.040880952,78.1293
0.074473135,78.85485
0.033957686,80.32953
0.16831344,84.09269
0.16419272,83.516914
0.19837008,83.84783
0.20186102,85.94373
0.2433097,85.7358
0.42791146,91.54021
0.59975463,90.39837
0.7878385,96.03995
0.7293701,96.278015
0.81014735,97.73771
0.95454013,99.1789
1.1032237,102.03178
1.1181861,104.58467
1.1082184,106.42501
1.1681472,106.956894
1.1734753,108.42066
1.2220023,112.59216
1.3285153,114.09117
1.3640187,113.73689
1.3315213,114.85225
1.42543,115.80854
1.352638,114.92459
1.3743814,116.84052
1.4593256,120.280624
1.426782,118.92898
1.4850751,123.642296
1.3135011,116.83328
1.444446,121.028046
1.234907,122.59646
1.3291036,120.285774
1.3537946,118.019264
1.2753636,119.50733
1.3073812,118.58818
1.1343807,115.32226
1.1660734,118.19452
1.1307788,118.734535
1.0894367,117.10251
1.066043,116.113914
1.0374018,115.43707
0.9153304,113.41918
0.9124523,110.69924
1.0200102,113.944466
0.9858689,111.184715
0.98390675,110.08621
0.9141088,106.30804
0.92666614,107.402466
0.9175424,100.491974
0.9907032,102.15461
0.8560676,97.99306
0.7881057,101.12487
0.8077963,100.95667
0.83108556,101.39078
0.7932501,98.51072
0.8897429,97.52607
0.79255736,93.72193
0.6541023,94.9386
0.65611726,96.78549
0.5775655,93.46058
0.6663744,93.25998
0.572802,91.85429
0.60409397,88.83772
0.43135682,85.779755
0.48166433,89.58606
0.34917676,85.35095
0.41117218,87.24142
0.4194651,82.76718
0.4230376,83.91229
0.3097066,83.54016
0.3299968,82.713524
0.3359563,79.48535
0.40409288,81.79694
0.37196144,80.93209
0.22877383,79.65762
0.34328324,77.88769
0.38252702,77.03098
0.29955453,75.97917
0.44334087,73.35802
0.31235245,74.57773
0.1990566,75.040085
0.23293248,71.58784
0.14819378,71.44054
0.1705727,72.42591
0.11085567,73.70052
0.13704364,74.39059
-0.057215996,73.95343
0.08649529,76.29423
-0.008622141,74.677574
0.08865012,75.24892
0.022027683,76.90117
0.023288172,78.543785
0.09731508,80.06426
0.0561551,80.07251
0.15495162,80.265205
0.25237933,85.28252
0.38331285,84.68308
0.45858386,88.18136
0.5845061,89.995895
0.5517665,91.09337
0.6009042,90.2077
0.8442692,94.038284
0.79219455,95.96006
0.8619933,101.082085
1.0466181,102.34006
1.0308231,104.816696
1.2537534,103.28925
1.2290238,105.013115
1.2178608,105.181
1.2693633,109.44429
1.3825061,115.36132
1.3486596,113.50384
1.4276307,112.82976
1.4135777,116.80534
1.4257362,113.31617
1.483191,117.24532
1.4493467,119.04433
1.4519303,120.73195
1.5555569,117.47319
1.5086756,122.93265
1.4329382,116.426414
1.5555931,119.60266
1.4309165,118.523285
1.3816961,120.60586
1.4542797,117.10106
1.3948575,116.35088
1.2890764,117.931915
1.3974832,115.95145
1.2567619,115.21436
1.3506545,117.76781
1.3177825,117.1779
1.2234428,113.8328
1.0699781,113.83876
1.1228544,110.89422
1.243216,113.95083
1.1777729,110.529144
1.07389,109.510765
1.0422646,109.86625
1.0585028,104.711235
1.035367,108.39948
1.0389482,107.684784
1.0789365,102.778076
1.1339337,100.588135
0.97099006,104.082306
1.1320579,100.481415
1.1284152,101.421715
1.001692,97.113365
0.94287235,97.53496
0.9665936,96.81765
0.8808823,92.18348
0.9199141,96.27315
0.8716485,90.18667
0.777151,91.8792
0.7397085,88.250465
0.7554977,89.072105
0.74919605,88.28791
0.66347784,88.129906
0.6580603,88.825516
0.645459,88.55649
0.6444046,84.879166
0.5841988,83.01691
0.6072499,82.69402
0.5792542,79.67839
0.55190784,80.601746
0.6075458,80.78714
0.5658822,78.267525
0.62885374,77.23893
0.57267576,76.40839
0.60858697,74.24941
0.4965687,75.98213
0.62166893,74.68946
0.69056445,71.80472
0.46877605,74.176254
0.5071243,75.15276
0.47015685,75.6688
0.43279913,71.62423
0.38083637,76.43885
0.26384997,74.46403
0.28443658,73.75653
0.33316517,77.08209
0.2630242,77.08846
0.3597529,79.469246
0.39243466,79.98142
0.32778057,80.34086
0.4066534,80.32757
0.3903845,81.29488
0.4501441,82.4979
0.5822259,82.15702
0.61741525,86.43272
0.7833111,84.091415
0.795861,91.18455
0.9730942,90.91826
1.0211066,89.33341
1.1490752,96.09631
1.2657928,94.492516
1.2354795,101.01676
1.1936085,99.5497
1.4607102,104.00344
1.5519572,107.14651
1.4946467,105.060486
1.5900443,107.3436
1.6236972,112.82859
1.7000917,109.526764
1.6708239,112.615814
1.7670151,113.23607
1.8036605,117.992355
1.7049359,116.578995
1.8226365,118.82806
1.7853132,119.152054
1.8785322,117.83128
1.7722421,118.05632
1.821193,117.65711
1.8822322,120.743324
1.7868277,118.19592
1.828266,121.16465
1.7036009,121.92586
1.7225572,119.116356
1.7494924,119.83923
1.6152849,119.3961
1.6662554,119.14453
1.6112539,118.56351
1.6127061,114.08619
1.4556141,116.08827
1.5617267,112.72169
1.5490311,109.0104
1.5436184,112.93014
1.5036757,111.13634
1.6034464,110.517395
1.4457061,110.17141
1.409005,105.67164
1.4504718,107.42409
1.4594687,105.61571
1.5251708,101.1578
1.3367745,104.62383
1.3365555,102.87649
1.3642842,104.26829
1.4506023,100.86869
1.3704997,99.77844
1.2711865,98.18478
1.2046045,96.4137
1.3264865,94.8168
1.2623596,93.11231
1.1726115,90.75779
1.0982852,94.01003
1.1452997,91.49176
1.1087255,89.041145
1.0284754,88.35586
1.0623825,88.534515
0.9085487,87.1784
0.9437474,85.572
0.9159653,86.2958
0.8902845,81.481766
0.93959486,83.7746
0.84998226,79.21261
0.92082745,79.89416
0.8963187,80.4066
0.84643334,79.92239
0.9967776,76.831985
0.8537677,75.80063
0.92191935,74.70042
0.91101515,75.67212
0.758386,74.35934
0.8714009,75.234566
0.9222224,75.42745
0.7429834,73.9609
0.65348953,71.54229
0.7067383,73.33807
0.6696093,74.67959
0.63748366,74.74766
0.42055315,73.91253
0.54979897,76.9664
0.42287424,75.043976
0.58810204,75.5009
0.5648566,77.0931
0.57772887,79.776596
0.49311396,80.656265
0.6521463,79.71281
0.6969332,84.766655
0.8455005,84.709724
0.8458005,84.304054
0.8580642,85.24686
0.93271685,88.2271
1.0420344,93.15363
1.2086028,93.909874
1.4150846,96.844666
1.3814925,98.23837
1.4482487,101.44231
1.5007863,98.26234
1.5399556,102.08154
1.6401162,106.20076
1.8266624,106.00173
1.7841843,109.70074
1.8171117,109.77576
1.8863984,110.62897
1.9405367,112.807816
1.9502885,112.64054
1.8293371,116.53281
2.0356572,118.042145
1.98275,115.32341
1.9919568,116.796715
1.9837776,121.56831
1.9891454,119.4155
1.9371024,118.83453
1.8807156,122.88431
2.0088656,118.60369
1.8601791,123.00259
1.8769844,116.57787
1.7889513,121.195076
1.8663253,121.66564
1.7789224,114.24185
1.8321462,115.68523
1.7181909,116.01291
1.7344563,118.21624
1.7234904,114.4979
1.5858529,113.16445
1.6217632,115.576614
1.5685037,112.430374
1.5662364,107.11548
1.5533309,112.02734
1.4998245,108.249664
1.4959031,107.41433
1.516181,106.705826
1.4749937,107.179054
1.4940224,103.2159
1.3963819,104.11951
1.4017317,102.37911
1.4839535,101.49704
1.3804247,96.75404
1.4370548,99.14604
1.3073459,95.47773
1.2538999,98.597595
1.3544811,96.84549
1.2408398,94.472404
1.2017167,91.34497
1.2456794,91.21622
1.0755208,93.58537
1.0979042,95.03689
1.0351863,88.7624
0.95941716,88.053856
0.95672584,88.97793
1.023828,86.42118
1.0010349,86.05918
0.9869801,83.30672
0.9194284,81.41263
0.92209595,82.76335
0.8632126,80.81887
0.9347695,78.78139
0.82086116,78.77174
0.9708199,78.50545
0.9250639,77.9545
0.9213952,76.91586
0.89740723,74.311066
0.7889692,73.74785
0.8266872,76.315125
0.66912943,74.417786
0.5950603,73.11744
0.7100294,71.2757
0.6474892,73.333305
0.51127416,75.647026
0.5825853,76.144936
0.5194858,73.65555
0.5108877,70.03441
0.48399216,74.25987
0.37577605,75.6248
0.4750096,75.16658
0.43176544,78.64469
0.4333217,78.59143
0.44923046,83.16013
0.5076636,80.31198
0.4799935,83.99375
0.7324283,83.52385
0.6482111,87.801155
0.7221177,89.04424
0.9958438,85.89797
1.0630985,94.183556
1.104217,95.06438
1.1722264,94.9574
1.2278426,96.08961
1.3648134,97.646484
1.3680515,104.75095
1.5494405,103.669205
1.5852854,104.011055
1.4923646,105.44438
1.6618586,110.504524
1.6383663,107.81352
1.7074221,114.374855
1.702772,112.883736
1.7465969,118.563736
1.8627868,115.986
1.7971456,115.21762
1.6694677,116.97273
1.7587998,117.48481
1.7452244,118.10392
1.811445,118.23556
1.6906345,119.71744
1.8317506,121.00901
1.6371813,120.982
1.6437416,122.581085
1.6862397,116.90832
1.5696528,116.32683
1.5585058,117.32619
1.4618998,116.3462
1.4375947,117.03368
1.4685683,115.602036
1.4459971,112.58719
1.3580791,113.00094
1.4245555,113.13308
1.3859779,112.992004
1.3682177,112.79044
1.3322965,112.59541
1.2972368,109.290596
1.3483584,104.16945
1.1699187,106.235954
1.2771037,103.88428
1.1480068,104.79298
1.1331073,103.528404
1.1506091,104.64497
1.113137,102.99586
1.2301484,99.768585
1.0314568,101.10087
1.0798688,97.97807
1.0292649,96.33094
0.9457904,99.855576
0.8875368,98.82118
0.9111874,92.253136
0.89749646,93.23528
0.8433114,93.489876
0.8162656,90.803345
0.78126764,91.06853
0.7853983,89.76928
0.6649857,87.513275
0.7805452,85.13003
0.6848948,87.29576
0.5978206,86.103325
0.6017809,80.465096
0.5875986,82.9693
0.48283353,81.70456
0.53071266,79.99997
0.49847636,79.71687
0.48046046,77.17238
0.598987,78.08413
0.5335157,76.23118
0.5842676,76.60103
0.5082768,78.48169
0.45812064,75.11885
0.5109095,73.36776
0.42323714,74.680725
0.34044895,71.39626
0.38861245,75.57092
0.18553048,68.42225
0.25216007,75.620735
0.21832779,74.263306
0.32155797,73.13984
0.12328425,76.74701
0.14012584,78.239334
0.08275143,75.043304
0.19583817,77.87326
0.11636993,76.17386
0.082132295,81.79481
0.16498642,82.58287
0.2684444,85.54905
0.32508639,82.23237
0.36866385,84.654434
0.4521143,88.18048
0.4984853,86.879814
0.61221015,88.371086
0.73640466,94.26117
0.9829259,96.26894
0.7882662,99.68491
0.99252146,100.45141
1.0117768,99.825226
1.0875026,102.120255
1.1669879,104.44589
1.3875065,103.33314
1.1831034,105.07654
1.3637652,108.33579
1.3464066,108.07974
1.4460078,112.42243
1.3514096,114.497826
1.463387,116.24992
1.4576528,119.889336
1.4210895,114.90851
1.4415365,118.31401
1.5960889,119.24992
1.3534467,121.797455
1.379784,119.5033
1.3970959,117.93487
1.4096928,121.20292
1.3663472,121.93092
1.3985239,116.04213
1.3439348,118.78725
1.3013462,117.4577
1.267399,119.46004
1.2852696,117.83542
1.147307,113.935936
1.2684697,112.08984
1.2186356,115.83792
1.1466094,113.9841
1.0908457,113.68095
1.1126207,112.9117
1.0738099,110.3723
1.0608653,110.16827
1.0363429,109.914345
0.892329,107.01909
0.96639,104.91614
0.90031487,105.34548
1.0069842,103.41073
0.89284617,101.275406
0.86871177,100.00584
0.93904614,98.63329
0.8843467,102.54122
0.9765168,100.2289
0.8023627,98.26461
0.7743796,94.34167
0.78247845,93.02187
0.66400117,98.26265
0.6354324,93.31333
0.63697565,92.06965
0.57172567,92.88138
0.50173295,88.80068
0.40808293,90.037735
0.52142894,91.572495
0.49199328,85.692245
0.5380614,85.105644
0.35650745,86.9629
0.3319777,83.99274
0.35394529,83.9404
0.3803973,82.633316
0.31927413,82.166885
0.29672718,81.130516
0.33620766,81.39198
0.31829843,75.61918
0.36435974,78.20114
0.29707578,77.21323
0.3701172,74.9226
0.18600623,77.941345
0.27304485,76.62853
0.2811875,75.99031
0.19171447,75.784645
0.09887392,73.64966
0.06739083,73.41407
0.15030645,73.36168
0.09254953,69.82843
0.039791398,71.76
-0.04303043,74.42074
-0.018498087,77.1668
-0.04437802,75.003494
-0.118854836,74.688965
-0.06967635,77.19213
0.13480417,77.13004
0.0538653,80.19893
0.041136082,81.450905
0.154367,83.284706
0.24441874,85.109505
0.25165108,86.13172
0.3373027,87.16494
0.45100138,91.466736
0.52342033,92.82993
0.69191355,93.7171
0.6494974,96.83052
0.80346286,100.488235
0.91072583,97.46499
1.0037547,99.74067
1.0320525,101.97676
1.1612875,104.81392
1.2157221,108.26199
1.160178,111.5175
1.2015904,109.67393
1.3358924,114.48309
1.3873522,113.18216
1.4523718,113.24339
1.3591439,116.30365
1.3605871,116.11036
1.2825644,116.10859
1.3508141,116.45822
1.3755149,114.32421
1.4770814,121.87692
1.4081866,118.44837
1.4013036,122.10757
1.3215654,120.27146
1.2605349,121.57139
1.3488444,115.93588
1.3030142,118.30716
1.2377183,118.110695
1.2683132,116.1087
1.1577817,117.45049
1.0809475,116.61282
1.0736258,116.52667
1.2587389,116.38583
1.0624491,112.22924
1.0705997,112.10129
1.0731325,111.20058
1.101852,110.86511
1.0915781,109.05754
1.0859944,105.74398
0.89725363,109.655075
0.88236415,104.74636
0.98567593,106.45582
0.98769665,102.76421
0.9350948,103.083336
1.0139414,103.75198
1.0151125,100.85026
0.85118455,99.154434
0.85937095,101.07008
0.8108233,100.06735
0.81046546,95.54147
0.8325689,92.068665
0.75639987,92.8863
0.76138437,92.95525
0.61155117,93.12941
0.5229305,90.93583
0.68884444,88.10784
0.5326495,88.44723
0.5165284,87.42019
0.42888984,91.32223
0.49254018,84.39369
0.4942221,86.40984
0.4272048,84.1061
0.47294307,82.99664
0.48395625,82.337364
0.516191,80.53254
0.42592755,81.218124
0.4851759,77.81935
0.43710834,75.62335
0.52958703,76.105286
0.42267942,74.02463
0.36565948,77.75287
0.38866442,76.994
0.37701243,74.0474
0.40912792,74.103676
0.37048182,75.33337
0.3276158,73.39049
0.15992267,73.487976
0.19451265,75.465034
0.2431641,76.59008
0.07619623,75.294525
0.20948544,75.220406
0.17964317,75.64043
0.13950028,77.05711
0.15045884,78.220116
0.13097617,78.25454
0.24391387,80.41408
0.25658387,84.52468
0.3013026,81.1996
0.47215295,87.06764
0.50106645,84.161316
0.4601103,87.68536
0.652666,89.4827
0.68450254,90.846214
0.81267005,92.73698
0.9612842,94.18213
0.9790167,99.58027
1.2262864,100.19778
1.2339665,100.441505
1.1603397,103.773705
1.3358952,104.93137
1.360539,104.541534
1.4491534,106.45624
1.3650726,108.5675
1.5373207,110.955215
1.5710317,111.58943
1.6965977,116.10564
1.6746838,114.79892
1.5634971,116.63563
1.7298372,119.05064
1.628151,119.43836
1.5648592,117.56568
1.6044132,121.03475
1.7069865,118.243195
1.5492766,117.7905
1.6367091,122.36972
1.5638663,119.72179
1.6207284,118.96368
1.6041274,116.444695
1.5403445,120.21662
1.5693237,117.08737
1.5739771,113.75629
1.4172899,114.87095
1.4582754,116.661385
1.4435887,114.775154
1.4510309,113.872025
1.3212912,111.81926
1.3226162,113.7929
1.343066,109.2323
1.2502373,112.26953
1.3037752,109.650696
1.3510445,108.17534
1.3931047,107.234955
1.3103257,105.911575
1.3225981,105.30812
1.3072132,104.16975
1.1836658,103.975044
1.2129086,101.72426
1.1699797,98.37961
1.1678623,99.614586
1.1663656,100.10237
1.1453587,96.5403
1.0904382,98.57775
1.0680925,91.271286
1.1222997,92.064735
1.043708,91.116035
0.9724307,95.90371
0.9832031,89.406204
0.8433236,89.31619
0.9845262,89.448494
0.8235264,84.66269
0.9534671,87.10726
0.6419116,84.63039
0.7485457,85.67147
0.7586898,82.401054
0.72952974,82.091324
0.6962804,79.752754
0.86543804,81.69198
0.70263636,79.94474
0.6957569,76.14282
0.8456114,77.18843
0.8195806,77.096085
0.76329243,75.84731
0.8101175,75.705986
0.6880579,75.45831
0.6972,73.29616
0.7021498,72.26266
0.67094123,75.91874
0.6472577,75.82793
0.47618982,71.466774
0.5949921,76.19031
0.47815698,77.2836
0.58812416,75.65886
0.4250844,73.85092
0.4492515,73.42691
0.42273757,77.28782
0.37600425,78.680405
0.46970037,79.88537
0.5039949,82.58422
0.6362901,82.21984
0.6305297,86.12942
0.8873236,86.85241
0.7810967,87.79383
0.8879099,85.4368
0.99452746,86.1748
1.1004435,92.34842
1.1802489,96.930916
1.3161432,99.53285
1.3565857,97.0754
1.4651556,100.33742
1.465092,98.76172
1.624461,106.06246
1.6048336,106.12711
1.6827046,106.17574
1.8121006,108.86631
1.7292064,110.3785
1.8918538,115.90641
1.8011321,110.64695
1.8969458,113.273575
1.9576107,113.905716
1.9418235,116.253975
1.969112,116.934944
1.8855451,118.86238
1.9207664,117.69562
1.8762124,118.02856
1.9273427,119.42899
1.8000022,118.553505
1.9709412,117.04095
1.8619931,120.76391
1.8851973,119.12022
1.9574287,117.88848
1.750871,116.6011
1.7037024,116.24138
1.6984882,118.77682
1.6023905,114.65538
1.7963333,113.798775
1.7054821,113.41571
1.5289415,114.82635
1.6047995,114.01168
1.5735316,111.27714
1.5431545,110.233025
1.5405444,108.19647
1.4383985,107.28902
1.5000093,104.85567
1.5224695,105.120865
1.5597553,106.140656
1.4336735,104.92461
1.3864354,100.94755
1.4984881,101.3586
1.5221218,99.62267
1.4260175,100.06207
1.4043715,99.55525
1.2856655,99.8062
1.4273247,94.547226
1.2418495,94.294495
1.3100564,93.551704
1.2278093,93.87039
1.213877,92.426926
1.0598516,92.78543
1.2062953,89.57474
1.0883706,88.21618
1.0415033,89.345146
1.0126199,87.80941
1.0769535,87.12584
0.98928684,84.271225
0.85817266,81.04043
0.97527426,79.373856
0.93130827,82.317726
0.82782924,77.26493
0.79585516,80.439995
0.96323943,83.5246
0.93201846,80.672676
1.043631,76.85945
0.7888376,78.90892
0.9512531,72.946014
0.8119389,75.625114
0.791866,72.39439
0.8025705,77.47268
0.6875809,76.53706
0.77282155,74.38598
0.66846925,75.920715
0.72102785,73.742744
0.615345,76.67449
0.6180346,73.23765
0.52162725,75.50375
0.6063562,73.959305
0.51270723,77.74678
0.4771236,79.880615
0.5028262,76.86501
0.6222548,80.94746
0.5583302,80.99006
0.6394965,84.56961
0.7451955,86.09647
0.8017782,85.86191
0.78084874,86.77905
1.0207602,88.19993
1.0268803,93.84916
1.1775038,90.373116
1.3180019,91.13021
1.3744664,104.34162
1.4917876,98.3951
1.4411411,101.350876
1.5611522,100.8296
1.7165074,104.39673
1.7107357,107.6344
1.7230736,107.00745
1.7850564,111.91729
1.7535655,110.921616
1.7128378,114.46377
1.9784501,113.2142
1.7980566,116.25311
1.9164094,112.519516
1.9668163,117.207535
1.981394,118.59013
1.8132021,117.99936
1.942844,119.73428
1.9009558,121.25971
1.8740621,118.16112
1.7619696,120.26651
1.8364565,118.310394
1.7616211,119.492035
1.8428836,117.65551
1.7458291,115.962875
1.7732722,118.67655
1.6411113,116.84085
1.6862054,113.82584
1.6089864,115.59315
1.5509757,112.736145
1.5936205,115.22692
1.4828281,111.64291
1.4606923,114.09087
1.5293381,110.84102
1.4664896,107.77289
1.4787995,106.987305
1.3676231,108.39103
1.3136483,104.96169
1.4455926,104.58371
1.3219528,103.88835
1.4569155,102.18075
1.3081825,100.65711
1.3393483,101.7606
1.4136788,98.36675
1.3323249,95.74921
1.1608226,99.18223
1.1376162,100.12532
1.1832663,92.93714
1.079947,93.64332
1.1659955,93.268295
1.0581483,96.311295
1.0553797,91.608345
1.0059047,90.39629
0.93412304,89.719696
0.86711377,86.88128
0.7932217,86.41405
0.7765002,82.878525
0.8054282,86.38411
0.7607079,84.72514
0.75876075,81.43203
0.8162805,80.897385
0.7806377,80.91473
0.7190192,79.271164
0.6881937,79.458084
0.7250269,78.69458
0.71815735,77.047646
0.6875345,76.93273
0.8024723,74.47004
0.5758758,76.171974
0.63690954,75.11894
0.5384748,74.62513
0.5077537,74.56419
0.5762508,72.8048
0.44329953,73.20707
0.3668993,71.11687
0.25733423,73.822266
0.40701672,71.942245
0.3023074,72.09841
0.2702029,75.627
0.21347706,76.85569
0.20376006,76.799255
0.23424007,76.91783
0.33601183,77.56258
0.33826798,79.71949
0.3344693,82.87885
0.49394616,82.5531
0.55618364,85.473755
0.60175973,88.81283
0.6963051,87.33895
0.7332111,90.755585
0.8475711,91.67912
0.99734753,96.59641
1.003495,98.81875
1.0838598,97.93501
1.1832067,98.13092
1.2896159,102.113495
1.3520157,106.05164
1.4912888,106.53468
1.3818033,106.21098
1.4246178,107.45642
1.4439989,113.02425
1.4921179,110.68748
1.6429949,116.33248
1.4973828,115.41335
1.5528505,114.19116
1.586549,118.647156
1.5907471,118.86012
1.4976051,119.38785
1.6596241,116.10127
1.5936215,119.85208
1.5257045,123.86285
1.4908495,120.78033
1.565063,117.500336
1.4802884,120.069595
1.5162536,120.08604
1.4239227,120.05811
1.3531125,117.822815
1.3804979,116.98127
1.2997009,117.74843
1.3037108,116.5827
1.1766849,116.3376
1.2279834,113.69823
1.291186,111.82524
1.1546001,111.76143
1.1691333,109.74079
1.0739733,110.82151
1.2993609,109.856636
1.0931182,110.71438
1.0044616,106.90569
0.9971061,107.515175
1.0700622,102.33109
1.0856793,103.79141
1.0129266,102.0907
1.0078318,99.556725
1.0003324,100.8665
1.0471345,100.95855
0.91634226,95.972275
0.8728946,100.291885
0.8832335,95.93926
0.8344164,97.62952
0.87037873,94.34903
0.78458816,92.579
0.8442464,90.52973
0.6914645,91.09949
0.549929,93.368546
0.49852416,89.267075
0.48333272,87.47653
0.5261993,86.42791
0.48832014,85.87333
0.442596,86.033615
0.3761057,85.14737
0.3042598,81.77384
0.44384298,76.93088
0.4464928,80.09122
0.4019477,77.09751
0.41391143,76.45122
0.3225037,76.411995
0.4390655,76.65194
0.3287542,76.34633
0.34613895,75.90788
0.40500137,76.20991
0.23097774,74.29037
0.17599642,75.52371
0.23195387,76.08583
0.12533507,75.0641
0.12745179,73.43466
0.11202226,74.15267
0.099854685,74.145905
0.1336997,75.82793
-0.020488136,73.331665
-0.033798926,76.64457
-0.08683221,77.350624
-0.13298646,78.251686
-0.0029132064,76.95202
-0.015298851,79.740166
0.020043612,79.32612
0.18773815,80.52996
0.109659165,85.923584
0.25801107,86.79487
0.3574676,87.32881
0.36721596,91.87404
0.55252725,94.244446
0.5973028,93.73133
0.60261124,95.740746
0.6770085,95.97064
0.83501714,96.502396
0.9520825,102.67747
1.0298201,102.43931
1.1141193,105.08318
1.1587112,106.61798
1.1455914,108.411476
1.3246602,111.23957
1.2325644,110.124886
1.3216522,115.93536
1.2309334,112.60441
1.3152077,115.27044
1.3760844,117.3543
1.3173469,116.913216
1.3794054,113.498924
1.2968076,116.39434
1.3325372,121.634964
1.3120828,120.76868
1.4022481,119.190025
1.3361613,120.633415
1.2931818,116.26021
1.2681715,118.82252
1.2810671,117.857475
1.2694385,115.117836
1.1848581,119.88795
1.1180816,119.25069
1.193027,116.33458
1.0371116,115.97793
1.0883758,115.93221
1.0559902,117.507095
1.0289013,114.35157
1.041146,111.45678
0.9899112,113.40293
0.9032998,108.84353
0.87680906,108.35942
0.84509397,108.32249
1.0010349,108.27609
0.8153836,106.62979
0.889348,102.54711
0.9216257,102.99741
0.86288446,102.754005
0.87418705,98.98654
0.81638664,99.62699
0.8120322,100.37611
0.88093776,99.13586
0.75155085,97.82179
0.715924,95.133896
0.77860016,95.87508
0.7162223,94.36048
0.6735827,90.26194
0.6295072,89.7566
0.52633506,91.221306
0.51846635,87.776566
0.3577155,89.55618
0.44399372,88.687836
0.34216568,85.864174
0.3959342,83.85676
0.43749827,87.63228
0.4140405,83.04312
0.27535763,79.002914
0.3397464,80.360115
0.4235598,78.030136
0.4144007,79.54415
0.381556,77.10267
0.31729323,79.67764
0.36288455,79.56471
0.23328792,75.75822
0.2939847,76.60079
0.27178717,74.5819
0.34272823,77.821754
0.22476213,73.232895
0.22939879,72.294464
0.2293174,74.46319
0.22445941,73.8618
0.20943798,73.64723
0.123337574,69.38858
0.01977048,75.79839
-0.016925871,72.17458
0.037018236,77.91225
0.028333995,79.53176
0.04924615,78.66005
0.17344154,81.60762
0.10967859,79.56883
0.11141349,83.07495
0.30977836,84.66195
0.37774882,85.6974
0.30739698,87.82761
0.40719008,87.638176
0.6089898,89.688965
0.77123135,91.5741
0.8324203,94.85387
0.81172913,96.702156
0.9794138,99.14734
1.0226603,101.60073
1.1226261,103.13496
1.0778184,108.02425
1.2147255,104.742546
1.292771,105.68318
1.2935553,109.39692
1.335309,112.25931
1.3233615,111.966034
1.3859348,114.19621
1.5207199,117.03205
1.5266981,117.83453
1.4390359,118.629
1.5434153,119.24758
1.4443457,118.61889
1.5494738,119.75271
1.4875411,118.99909
1.5142782,121.74502
1.5060595,118.67835
1.515345,118.69426
1.4654645,120.270294
1.4370406,118.438095
1.323442,116.7769
1.3211048,115.72886
1.3887696,118.67179
1.3027651,117.949104
1.3553333,115.18562
1.2148666,114.786514
1.2323499,114.48388
1.315999,114.04826
1.2124367,113.15513
1.1384141,112.67191
1.1364751,110.66978
1.1469504,110.88095
1.08251,108.49801
1.2288809,103.98315
1.1325483,108.728485
1.1702179,106.50342
1.1669058,102.52081
1.018903,103.49676
1.1823703,101.8831
1.0691569,99.34361
1.0854206,95.4516
1.026725,95.41584
1.0486925,98.201485
1.0225786,97.27998
0.90700847,96.37232
0.89627135,94.016914
0.92593485,93.90221
0.81002384,91.294495
0.8358761,90.28602
0.7107789,87.90333
0.73496735,89.026955
0.73458964,84.69844
0.7521538,86.091194
0.79896635,84.61154
0.63799775,83.676956
0.7052755,85.35257
0.6683266,83.511856
0.5517988,82.64499
0.6062493,79.393166
0.6733119,78.06625
0.6492412,78.8788
0.54017717,76.966644
0.6142096,75.682
0.62305355,78.36664
0.53618324,76.00749
0.64071816,75.64322
0.584975,74.55195
0.6046272,75.369194
0.58896685,76.80643
0.61472875,76.588806
0.4745421,74.75653
0.34130484,74.58027
0.3788047,73.824425
0.368164,74.770386
0.3445878,76.30817
0.33395064,75.78065
0.34181303,76.87447
0.3504128,77.45589
0.3334853,79.54621
0.4721859,78.90527
0.40696472,82.59092
0.3978692,84.0228
0.4635687,84.045364
0.54255766,88.47037
0.708531,87.420235
0.8356267,90.14669
0.961871,94.38964
1.027374,96.62704
1.158131,98.41637
1.3535722,98.491165
1.3789562,98.54804
1.2981907,100.4996
1.4158624,100.83893
1.5961488,107.8919
1.5483016,104.06242
1.6494809,107.90454
1.6603655,110.85386
1.5580938,109.546326
1.6694192,112.74074
1.7259265,112.08611
1.7229259,114.8581
1.8378587,113.617485
1.7623992,118.20481
1.8803815,120.856544
1.9079151,116.295654
1.8909369,118.01913
1.8329377,120.802155
1.8602821,117.946205
1.8216434,120.18078
1.8317158,119.96302
1.893835,120.624435
1.8117995,118.21162
1.7249328,115.90023
1.7024498,118.24261
1.6015354,121.318
1.6511874,119.10101
1.5807083,116.05438
1.5464956,112.889145
1.5317769,113.77741
1.5994257,109.85532
1.454546,112.747246
1.4315096,114.04541
1.4781262,109.185875
1.4303361,110.24585
1.4790335,107.01219
1.4108409,108.816025
1.515002,105.382904
1.4448385,104.11349
1.3686413,104.48158
1.3478533,100.0295
1.4617158,101.13456
1.3553139,100.16863
1.2857978,98.42346
1.3571931,99.139595
1.3367689,95.60651
1.2687881,94.254364
1.3216834,95.5976
1.3030312,96.384125
1.2309085,92.481186
1.1007365,91.4446
1.1034853,87.57
1.052282,92.228485
0.9850422,88.42391
0.91756254,86.56303
1.0356724,84.47247
0.9272575,85.06929
0.91395277,82.43065
0.88319683,82.75984
0.9446491,83.34927
0.8833179,82.59742
0.99865204,80.7286
0.90045273,78.56098
0.8516892,78.92766
0.8679514,80.01798
0.9013874,78.53416
0.7996006,74.600204
0.7809697,77.44159
0.88038343,74.34045
0.73631674,75.923294
0.7392254,72.7194
0.6514295,73.38135
0.791177,71.69899
0.61285335,75.55989
0.588673,72.4921
0.62278485,80.12739
0.5669826,72.994286
0.5922491,80.78891
0.6092321,78.96017
0.7091901,79.96694
0.56149167,79.470215
0.69487,80.56335
0.57253,83.883575
0.6899877,80.814
0.8528195,81.87856
0.8776229,86.37507
0.8690504,90.727745
0.9254586,92.937744
1.0861504,93.14626
1.1969353,94.48162
1.332786,97.116806
1.342312,96.11715
1.4387926,98.90507
1.5715265,101.18764
1.6403751,101.09831
1.7910349,102.05365
1.6857883,106.59958
1.8042296,108.18494
1.7444328,111.19412
1.9169358,111.50277
1.9049331,114.14123
1.8743374,113.67367
1.9873201,113.0202
2.0120504,115.08147
1.9650617,119.463425
1.8973632,118.47105
1.8906318,115.47846
2.0328708,117.914375
1.9363129,118.23995
1.9036676,118.38856
1.9171264,117.08847
1.9470183,119.24422
1.920943,118.34953
1.873462,118.42061
1.734784,118.155495
1.7330927,118.864426
1.8229581,118.04717
1.6982932,115.95941
1.7054067,115.32229
1.6853752,117.178635
1.6545762,115.40079
1.6382338,112.18892
1.6163251,110.5819
1.5643346,112.208786
1.5422812,112.88662
1.6011024,109.31098
1.4231821,107.28232
1.4989209,107.32938
1.4292245,105.62147
1.5036948,104.29127
1.4521353,103.72142
1.5098556,104.22951
1.4325954,101.432915
1.4762682,101.6112
1.3827384,100.06946
1.3688265,99.83182
1.2634932,96.78122
1.3496101,93.16222
1.084177,95.55486
1.1810485,94.14724
1.1743138,93.19204
1.1858277,92.70123
1.0293051,90.3139
0.95916796,91.92839
0.98895586,90.90715
0.9659385,87.36264
0.96276706,85.495186
0.97341526,86.509415
1.0334922,84.03006
0.91183937,82.65503
0.7878049,85.93838
0.85823417,81.88038
0.9371501,80.13969
0.91894555,78.44192
0.8021836,77.36025
0.8584358,74.69466
0.8998563,74.48352
0.76356584,75.91793
0.7968402,76.070465
0.7710051,79.699265
0.7400109,75.11783
0.82865494,75.19436
0.63190174,74.490105
0.6401062,74.62395
0.5588656,73.28274
0.44700626,72.04608
0.44095662,74.113594
0.44594455,74.02942
0.40649304,77.41347
0.4561538,76.37173
0.5083409,78.601265
0.4098794,78.170784
0.45588577,75.592224
0.45053396,81.12332
0.6264999,80.90196
0.5382459,84.76318
0.7244783,84.118805
0.695072,84.68651
0.76515967,90.42308
0.8378313,91.38021
0.98388714,94.07542
1.0179206,94.69706
1.1371888,96.911865
1.178545,99.45274
1.4012654,99.12363
1.3573227,101.15293
1.5743434,102.302536
1.6335284,105.532646
1.5822747,105.629654
1.6020573,109.38312
1.7656531,111.93353
1.5961776,114.12822
1.7548562,115.15711
1.7170221,114.67618
1.7396504,114.986244
1.7845984,115.40436
1.8223686,116.64758
1.7224207,116.824715
1.7537509,118.91599
1.7244098,117.53407
1.7761047,120.895584
1.6941109,120.48715
1.7634778,119.549866
1.702357,119.032936
1.6945697,120.89338
1.5622436,121.95961
1.5873626,118.81201
1.5874437,116.897606
1.6155169,119.93689
1.4539589,118.900345
1.4812527,114.443565
1.4149324,116.09541
1.2252046,113.38936
1.2751957,113.56779
1.3734646,109.68425
1.2461541,109.60762
1.2246189,110.96398
1.1058438,108.51436
1.1730611,108.01099
1.1117735,104.65451
1.2579978,102.84367
1.1601508,102.22555
1.2243384,99.499115
1.1701648,104.27489
1.0573726,101.55037
1.0999532,100.4809
1.0685302,98.62282
1.1089619,95.84914
1.0210563,94.46574
0.98431015,97.881454
0.93901986,93.64918
0.9368803,93.05078
0.8558632,93.54105
0.8126516,91.959915
0.902501,88.0288
0.731433,90.59507
0.6039691,88.42221
0.57489413,87.21845
0.5475493,83.241135
0.53450537,82.82829
0.48470646,81.9088
0.5293886,82.73116
0.466728,84.55738
0.47349238,79.0851
0.5708705,81.29401
0.51143134,73.23425
0.5199151,78.93877
0.5418967,80.46995
0.5457682,78.306244
0.43449447,75.19362
0.52413017,72.68051
0.42178854,74.65069
0.4126055,74.98009
0.33451942,73.59843
0.38314486,74.639915
0.23216368,70.72135
0.21130821,73.876495
0.15934119,76.184555
0.209822,73.37816
0.18413407,78.86166
0.2696256,75.84723
0.105047755,78.44386
0.03264803,76.149475
0.15206878,75.91148
0.21620889,76.604904
0.26069057,78.85561
0.19814518,81.597435
0.33945277,81.306946
0.38560557,87.11178
0.4354851,87.578735
0.5694152,89.359726
0.61274403,89.991234
0.6172328,92.28212
0.80541563,94.78309
0.8445484,95.97294
1.0189517,100.42752
1.0482601,101.78584
1.1250678,102.05743
1.1517512,103.7764
1.1972613,104.06036
1.3465989,107.05046
1.4284586,109.90387
1.243602,110.227425
1.3285192,109.39978
1.402982,115.341934
1.4108595,115.47369
1.4134066,114.67161
1.4116237,116.50956
1.4544944,117.307205
1.4690576,121.16088
1.4866897,119.71961
1.3727505,118.12491
1.3902373,119.63351
1.3465952,121.64248
1.3274728,117.43347
1.4087684,119.152916
1.3446832,118.59954
1.1923624,117.67941
1.1749513,116.46609
1.3289965,121.27094
1.1376971,118.64224
1.135803,117.00872
1.2007385,114.1699
1.1032152,115.742775
0.9713782,112.664604
1.1302328,111.084465
0.95067304,111.36267
0.9660909,111.52284
0.9277106,106.79745
0.9754508,108.72413
0.83900213,109.10195
0.97205603,105.749176
0.93533444,102.99016
0.8020172,102.113716
0.9602658,102.9471
0.90126145,100.4689
0.83132315,101.238716
0.837385,99.24568
0.8553284,100.421906
0.90428084,97.50818
0.6686002,96.04546
0.6876729,99.12876
0.7730846,94.03374
0.5824704,93.27961
0.59083825,94.039505
0.46824676,91.43149
0.5294348,88.16693
0.44448593,86.55546
0.389927,87.63037
0.33875147,85.75756
0.38336414,84.01968
0.3923444,84.575035
0.34027752,84.027245
0.32485375,83.42053
0.36485878,79.23415
0.3452781,81.51239
0.33153486,78.44408
0.3531913,75.42149
0.42784238,77.25866
0.355511,77.35433
0.28596,81.098755
0.1771784,72.972115
0.21066998,73.888596
0.2707986,77.65804
0.25818625,74.33165
0.23082872,73.92041
0.25478828,73.738716
0.10053329,74.695496
0.06743797,72.58905
-0.059559777,74.81981
-0.049200047,74.534676
-0.105526485,75.96959
-0.030478735,76.687
-0.038524896,76.85431
-0.09190075,77.93041
0.0005605362,78.84022
0.05012472,78.97468
0.03705205,81.25857
0.074812196,80.669395
0.16095054,83.578545
0.3100307,85.90318
0.260915,88.136894
0.48021844,90.92716
0.6627764,91.51945
0.72884053,94.34563
0.6516899,96.369286
0.7455701,98.07816
0.90750295,98.43535
1.0030628,101.888756
1.077662,102.20765
1.2396654,107.329765
1.1463075,106.884125
1.1716337,109.48477
1.2389046,111.61401
1.3643608,113.66696
1.3373674,112.82462
1.2918937,113.43151
1.4325707,115.90673
1.4344585,118.24343
1.5009679,117.12519
1.4239445,117.22382
1.3061063,118.204285
1.3371627,116.723755
1.4237217,118.80339
1.3827567,118.80752
1.4404128,118.12471
1.3493204,118.480896
1.2623243,118.01668
1.305328,121.21933
1.3013066,116.67368
1.1696092,116.19536
1.2308882,116.511444
1.1870097,115.68282
1.1959057,114.40408
1.1643006,113.48201
1.2047721,113.4564
1.0778427,111.316605
1.0692582,109.568
1.0529225,110.95799
1.0482485,111.36478
1.0240167,111.19594
0.9626466,105.89273
0.9157198,104.46964
1.0649846,105.82788
0.91090405,105.60799
1.1449589,103.57037
0.9575158,102.27916
1.0221957,102.79667
0.97126806,99.01276
0.8291745,96.58948
0.9347048,97.72469
0.86291116,98.697205
0.81575614,98.00146
0.7693662,94.72094
0.81631494,93.979164
0.6926474,90.8186
0.6971104,92.27654
0.6395656,91.702515
0.55610454,89.25162
0.5316693,88.63532
0.5831826,88.45836
0.6952024,86.583626
0.40364337,86.801544
0.3799589,86.40283
0.5546458,87.25968
0.51559365,83.17357
0.4664589,78.46816
0.4412465,79.487686
0.43094426,80.73549
0.54198235,75.27319
0.4347986,79.25058
0.48533764,74.70175
0.4542696,76.21586
0.3755866,74.39931
0.378791,75.09949
0.5048421,72.67271
0.32095647,71.61941
0.2489863,72.70481
0.31571132,68.66083
0.30816045,78.41548
0.2598458,73.96624
0.26204967,75.897125
0.16903552,71.948166
0.13280325,74.86113
0.18728746,79.1089
0.173223,79.60597
0.19790994,78.88335
0.18521827,79.07708
0.27397037,81.47835
0.2843066,78.81789
0.315459,82.84971
0.42345178,83.07819
0.6009264,87.356224
0.63411653,91.93527
0.8013014,92.31484
0.7960851,93.74351
0.92064345,95.04118
0.95560664,98.56278
1.0940762,99.77887
1.1640764,99.88937
1.1642348,102.5275
1.2909681,103.528244
1.401027,104.00546
1.4212854,108.64358
1.4528174,107.41529
1.5369768,111.08269
1.6527294,110.3477
1.5901262,113.49568
1.5961812,115.50899
1.5672598,115.67525
1.6771997,116.821075
1.6548666,116.86156
1.6186209,117.578415
1.6850606,117.14092
1.7342805,120.78079
1.6778634,119.88023
1.7063063,118.952095
1.7374153,120.1683
1.7351998,121.20461
1.6361595,118.98902
1.480958,119.9455
1.5524209,115.90317
1.512074,118.694405
1.4376104,118.07114
1.3986285,115.87061
1.3989847,114.07676
1.4711423,115.09707
1.4058325,115.35477
1.4220197,114.556366
1.3510163,113.34762
1.2611556,110.65165
1.3607244,105.65053
1.2374068,106.14847
1.4398974,104.77938
1.2851056,106.74285
1.455475,104.14959
1.3278365,102.97767
1.2773473,101.913445
1.1190184,103.688545
1.2199527,101.43513
1.3938241,100.3468
1.2140541,97.65874
1.1191803,92.430595
1.1666535,95.858574
1.1670502,96.571144
1.1075957,97.36389
1.0358392,93.67552
1.0424825,94.19871
1.0621892,90.27819
0.9561537,91.67385
0.9182427,89.255066
0.86208797,88.6133
0.85447145,89.10461
0.7736295,82.79839
0.8680279,84.42675
0.75761205,80.150764
0.71804017,82.61029
0.8297749,80.356155
0.7543765,82.74384
0.7825703,82.094124
0.78188354,78.40583
0.75100297,76.89941
0.8182414,76.33178
0.84811956,79.01854
0.7966204,72.33362
0.80363876,76.24333
0.7636998,73.403114
0.70928794,74.81181
0.6913275,75.99762
0.6355931,72.04783
0.6246526,70.14314
0.44640306,75.45835
0.48008546,73.77307
0.5402551,73.10655
0.49329445,77.830986
0.5153323,77.95209
0.5178212,77.68024
0.50261194,79.20112
0.52923054,75.46622
0.5043201,82.071266
0.5206273,82.574066
0.67460287,81.48909
0.72595173,84.87183
0.88907146,86.44291
0.95075464,89.36145
1.0215764,94.20343
1.0617414,92.54344
1.0937704,92.06138
1.3356093,94.92146
1.3586501,98.4491
1.5157686,101.5708
1.5311947,103.57958
1.5168931,102.149635
1.6127044,107.61302
1.7471874,106.0189
1.7884223,111.56769
1.8321533,110.304565
1.8640591,113.10738
1.8961781,112.89108
1.9362656,114.0334
2.0269103,115.162155
2.0273662,117.989845
1.8854722,116.701004
2.0112963,122.423515
1.9548262,118.97901
2.0229669,120.632614
2.0094583,118.23881
1.9154799,119.786415
1.8782948,121.28136
1.8598741,121.83829
1.8190168,117.93092
1.7844741,116.00325
1.8846815,119.28506
1.8473966,115.55882
1.8014632,117.82907
1.6871408,117.61856
1.7315518,115.699585
1.5548832,113.56043
1.6486171,112.3514
1.61757,112.336845
1.51922,111.63559
1.628058,107.69277
1.5182239,109.12326
1.5825082,108.56722
1.5388744,109.47616
1.5144846,103.714485
1.566648,105.0217
1.5041419,101.565125
1.6563189,103.10949
1.4169163,102.078026
1.4478974,101.53564
1.383695,96.438705
1.3517686,97.40968
1.3858926,97.62389
1.2822877,93.3034
1.3323085,96.105515
1.2739811,93.32023
1.2597164,91.65101
1.2084116,92.60519
1.0843723,93.49734
1.1045477,89.75864
1.1136559,88.94716
1.0889274,85.63903
0.99594533,87.085526
1.0197275,86.81495
0.8864444,85.35723
0.93342155,83.31806
0.9727128,79.42336
0.85736966,84.50801
0.9221347,79.607796
0.89069074,80.56321
0.86634797,79.81132
0.91304004,79.749825
0.9171086,79.203064
0.89936596,74.33229
0.83034277,75.71261
0.8894667,73.22186
0.82625556,74.59217
0.7967762,71.96602
0.6652554,75.42973
0.72537893,75.10337
0.7707545,73.502625
0.65707505,72.94631
0.5737332,72.94051
0.61317605,74.39149
0.5903054,79.36005
0.5629507,73.9886
0.5638664,78.609474
0.47837287,77.28012
0.42616883,77.519005
0.61869663,82.06093
0.63163483,82.66227
0.67791575,83.37098
0.7446781,84.012856
0.80225694,87.80112
0.814265,89.75077
0.8895758,90.9853
0.93060917,91.69106
1.1703542,95.047325
1.2411487,94.2892
1.3044649,100.88596
1.4265404,97.21895
1.6027781,101.96619
1.558769,103.10668
1.6454684,103.01403
1.5501515,108.87022
1.780149,104.512764
1.7219824,108.49145
1.9602762,113.21098
1.8169142,114.78749
1.9278607,116.84321
1.9107835,115.088425
1.9924483,113.254456
1.8184159,117.67608
1.8408581,117.87033
1.8147882,114.17537
1.9006691,119.43175
1.9381437,121.155266
1.8805112,121.39814
1.9090337,119.10053
1.7335923,119.33919
1.8609862,123.09277
1.724645,117.48807
1.7994782,118.40431
1.7275293,115.2277
1.7609332,119.01484
1.5478203,117.86256
1.5599759,115.78567
1.4995991,114.323296
1.5151783,115.24871
1.4544439,111.90517
1.4327531,110.9665
1.4711196,110.857925
1.4108653,111.18122
1.4390467,107.21443
1.305496,109.060074
1.3044527,107.79377
1.3951211,106.44718
1.318979,105.49943
1.3972323,101.31342
1.315458,103.01737
1.2181052,99.92014
1.2236813,100.660904
1.3816582,99.39268
1.3197075,96.321335
1.1778551,96.97684
1.260553,93.71978
1.1683123,94.10736
1.0145134,94.86293
1.0138731,93.51946
1.0048151,92.363266
0.95066726,86.69916
0.8053977,88.61069
0.9031903,92.29066
0.78103024,87.87702
0.8343217,85.44745
0.671874,87.862175
0.8971508,82.80549
0.65489584,82.02722
0.6145315,81.67009
0.76909536,79.543686
0.61025846,81.4503
0.729267,77.634834
0.69266975,75.884476
0.7099674,77.922455
0.649487,77.82928
0.6359633,77.039894
0.5352426,75.17094
0.63791484,78.96171
0.6341135,75.39054
0.51577026,73.40814
0.5434241,75.553375
0.49035054,74.551
0.47820818,74.76268
0.308631,74.83292
0.26048237,72.38603
0.26605654,77.01446
0.42960364,77.85767
0.25373134,74.31411
0.30115667,78.27369
0.2705531,79.52073
0.2528639,81.89929
0.40434906,78.57979
0.26443565,81.54268
0.30206144,82.37221
0.4425893,83.331535
0.44282964,89.54878
0.5647897,88.22589
0.8017523,91.20102
0.7345659,93.688614
0.8329228,92.38926
1.0323206,94.61764
1.1523134,96.12291
1.1111023,99.42517
1.3044978,101.7394
1.2898363,104.055145
1.3326949,104.975006
1.3421721,107.76454
1.447476,110.68776
1.432755,111.92499
1.4218205,112.12512
1.522862,113.074165
1.574439,112.239685
1.6275798,116.41191
1.4615648,118.9823
1.5260502,118.88479
1.526643,117.85026
1.4958106,117.2505
1.492108,118.67635
1.5631018,117.00007
1.5715389,120.05066
1.4386209,117.261444
1.5953074,117.89645
1.404119,120.72873
1.4907061,118.45292
1.4171773,119.23755
1.4009292,117.97934
1.267845,116.11434
1.2959278,117.15161
1.2087984,116.37029
1.2975014,115.97284
1.1452748,110.53176
1.1548638,110.94256
1.2204689,109.18736
1.1726524,109.96421
1.0268059,106.57735
1.0782866,105.771454
0.9497801,110.00634
1.0795501,107.35031
0.97624284,107.231834
1.0231212,104.19669
1.0312954,102.14815
0.9306795,104.400246
0.8772875,103.40607
0.8999335,101.56334
0.90197635,96.96083
0.880525,96.161354
0.8408633,96.4204
0.7178983,94.48417
0.81002814,95.23639
0.76002675,90.253494
0.72041106,96.89253
0.681545,89.44376
0.5210535,92.377396
0.39637163,91.934944
0.48719096,90.93403
0.44191754,89.113625
0.4789444,84.466064
0.4487875,84.0869
0.36319607,82.9843
0.42232242,82.447395
0.42384624,83.10505
0.37339008,84.726974
0.45196745,80.326416
0.500379,78.37434
0.4646525,77.931274
0.38146275,77.61099
0.38923034,76.85279
0.33595532,71.14624
0.29268196,75.11969
0.24088326,76.286095
0.27823702,73.127716
0.16553536,73.84736
0.097019285,75.23488
0.0013710026,70.37591
0.09528445,75.203545
0.04341767,73.20999
0.071923785,73.16589
0.04621343,72.87716
-0.016366411,77.04691
0.029956557,78.655
-0.021089762,77.01443
0.004246332,80.30183
0.052288957,77.942924
0.13983689,80.96741
0.09644336,83.17472
0.11612564,87.07596
0.2519552,87.856575
0.3936833,84.6875
0.42796162,90.66921
0.50980604,93.96098
0.63791335,95.39421
0.7269194,95.354294
0.8039399,97.2392
0.880228,98.27157
0.92533034,102.035965
0.9600982,103.43085
1.1304674,105.35021
1.11059,106.58385
1.332162,108.164345
1.3218013,111.26702
1.2732155,111.19666
1.2988094,116.49532
1.2562251,113.98959
1.4278228,116.025215
1.3338667,115.33488
1.3478311,113.67953
1.368407,121.00191
1.3649852,119.28701
1.289674,120.90748
1.2643583,118.9714
1.3598269,117.72496
1.3243221,122.78391
1.3202068,120.71171
1.2617323,122.19776
1.330265,118.458244
1.2399851,118.51918
1.2184119,119.89757
1.2173865,117.37581
1.1567118,115.93627
1.1366366,114.67862
0.99626887,116.018295
1.0293878,113.31871
1.0825803,112.251625
0.98836964,110.667206
0.9412671,110.77326
0.93793505,108.600784
0.7927401,109.032745
0.84598696,107.93573
0.9300736,102.996185
0.8550007,103.839516
0.9090195,104.835144
0.9295862,104.323105
0.78218544,104.88171
0.8541735,103.685844
0.865382,98.94643
0.79913265,97.95538
0.7924968,95.700775
0.80734986,94.73122
0.7326406,96.7554
0.662748,94.61001
0.7313674,93.5623
0.6743319,90.98729
0.60062206,90.58565
0.6130029,91.25591
0.5028991,88.93838
0.45393956,87.26555
0.4709394,85.70668
0.44212574,86.197205
0.37564194,83.60692
0.38719022,84.70961
0.34567338,83.357285
0.27055147,80.85131
0.3880671,83.12427
0.30193377,81.17501
0.43944287,78.46795
0.34022844,80.98477
0.32236472,77.40068
0.34199858,76.88069
0.3440863,76.289024
0.22362848,75.50652
0.19940734,75.99473
0.32943076,73.85971
0.21120831,72.6873
0.23558033,74.82304
0.23278135,77.618324
0.23861568,73.873695
0.18732691,73.424934
-0.04762095,69.93131
0.10279557,71.05938
-0.1376989,74.00506
0.06383555,77.46024
-0.023164803,79.21034
0.07468797,77.068245
0.011054191,79.56776
0.06672754,82.040726
0.1909474,79.89377
0.28378904,83.60202
0.33338583,85.07518
0.43485934,86.68595
0.4277835,88.04787
0.61623293,88.78827
0.7169322,92.1238
0.82448137,93.32251
0.811315,94.96152
0.9340425,96.8185
1.0146732,101.36353
1.1023784,103.28872
1.1875298,105.64287
1.2988428,108.2049
1.3926028,107.94923
1.3169907,109.21772
1.4095405,111.58074
1.4643332,112.829666
1.506775,114.57152
1.5469489,113.75431
1.4165076,115.73034
1.5140676,118.56615
1.4549086,119.82148
1.4901011,118.43147
1.517779,120.02938
1.4894937,118.841576
1.7118528,123.844894
1.5084869,119.38022
1.5355259,117.32773
1.4991413,117.19328
1.4232612,118.47536
1.3578839,117.097824
1.4452417,121.26313
1.4397507,118.27111
1.3912284,115.25636
1.3411232,114.587105
1.3129987,114.86253
1.2043808,114.14963
1.2493769,114.26794
1.317303,111.3668
1.2232486,112.15956
1.1959314,109.29309
1.1990042,108.6044
1.2514987,107.149055
1.1271777,104.7064
1.1287366,106.147354
1.2235632,103.95459
1.1816612,104.68338
1.1439441,102.85806
0.9772841,102.46873
1.1517287,101.99443
1.0549513,101.883545
1.0572522,96.37726
0.9110532,94.500755
1.0243317,96.43553
0.9965601,93.65384
0.96016365,95.326584
0.834183,91.08187
0.9538336,91.652985
0.73576593,91.657555
0.8879254,88.77107
0.8096018,88.32518
0.69173217,86.92281
0.63210845,87.647285
0.64852077,84.96126
0.7188374,81.436066
0.72500896,85.02543
0.68824226,83.244865
0.72475433,81.99103
0.73127,80.91008
0.6922701,78.4666
0.7165434,78.686745
0.7083351,76.6745
0.6019914,77.3794
0.62548196,76.61768
0.62333244,77.649
0.51553696,73.02724
0.6024314,72.124176
0.6252881,74.06185
0.4991062,73.3139
0.48393157,73.74913
0.4753057,74.239296
0.3885581,72.36012
0.47486877,72.951515
0.39320746,74.38419
0.32401073,77.97424
0.3263176,76.482605
0.3419753,75.794815
0.3883502,76.29352
0.265656,77.89916
0.4003634,79.54913
0.48197237,82.96085
0.4823554,80.177284
0.5176929,89.17686
0.59860504,86.37394
0.767463,87.48519
0.84999377,90.135475
0.9633987,93.12884
1.032276,95.13556
1.1381742,97.24306
1.2035753,98.96237
1.3145434,97.308136
1.3627717,99.317635
1.4332098,100.11844
1.6050617,102.42605
1.524444,106.94362
1.6830926,108.70229
1.690833,107.620926
1.7901145,112.219734
1.808818,113.82117
1.8405993,113.940605
1.8389897,116.45067
1.7984419,115.92108
1.843317,119.16893
1.8015434,114.45864
1.9058179,117.337746
1.8332449,120.52903
