ppg,abp
1.0937718,91.93906
1.2276015,93.09214
1.1685213,94.52526
1.4196186,95.82454
1.4234601,96.7988
1.5077124,96.848114
1.5314977,98.12892
1.6286047,97.87407
1.5667956,99.276985
1.6618223,97.736374
1.6547867,104.08774
1.6710978,104.628136
1.7351123,105.00209
1.7681125,104.23743
1.6690608,104.17867
1.6754595,103.976906
1.6620485,105.20777
1.7439957,103.350815
1.5916982,108.42711
1.6531194,105.41949
1.6267799,102.18254
1.5607713,105.40421
1.5469581,101.420616
1.5196025,103.493835
1.4597762,103.21772
1.4040847,98.82732
1.4415078,99.291824
1.3503612,96.64624
1.3774207,97.22522
1.3527124,96.346535
1.2534478,98.32574
1.3082064,99.7931
1.3259563,96.31743
1.3096688,96.11243
1.3035989,96.32089
1.254034,94.526695
1.2119985,92.76092
1.3056316,92.91159
1.2022241,92.062164
1.1459956,89.83203
1.1893924,92.8408
1.0535102,90.77503
0.9873286,89.27938
1.0059743,87.73561
0.9681108,90.1206
0.92450994,85.4483
0.85358006,85.6444
0.7963939,85.668434
0.8006791,82.436424
0.742545,80.878395
0.83516246,82.072426
0.8823923,82.13747
0.83435225,84.14048
0.8667127,79.26439
0.7982303,76.49012
0.7909426,81.71855
0.7824252,78.19894
0.8281208,78.58364
0.7540976,77.40138
0.7403239,78.19689
0.6743382,77.81162
0.5483976,81.16452
0.49068698,81.11897
0.54679805,78.563065
0.47595403,80.09854
0.48643503,78.48014
0.3947582,79.90105
0.49935433,78.06613
0.55169445,81.90218
0.5974757,82.758316
0.63972616,84.11171
0.6010136,84.448166
0.7813296,84.71587
0.99224716,87.152565
0.9695582,88.79624
1.2037126,89.229836
1.2693765,87.90777
1.4186513,92.08244
1.4119679,94.193596
1.4897355,93.96743
1.6465045,96.3421
1.7256445,98.17911
1.7489723,99.25737
1.8129499,96.715904
1.8586105,100.20486
1.8127344,99.42367
1.8818269,100.18101
1.9480398,100.55308
2.0099475,101.59751
1.915961,103.61511
1.9273149,106.07
1.9245834,104.45484
1.9146467,105.15738
1.8667065,103.490456
1.8559958,102.51662
1.8602681,103.58369
1.845226,103.86484
1.7744348,104.75489
1.8050423,103.60283
1.7031107,104.62388
1.7067308,99.501686
1.6619095,102.01736
1.6678101,99.636055
1.5837138,98.88985
1.4776155,94.219406
1.5029763,98.90206
1.5493275,96.6118
1.5079063,98.915695
1.5286185,93.867256
1.4842842,97.498
1.5185648,94.37849
1.4630618,91.49611
1.4000199,95.25913
1.4053203,91.27461
1.4037187,97.78576
1.457836,89.700806
1.3322085,90.18694
1.2221557,87.85489
1.227044,90.94957
1.1372528,87.88105
1.1039306,85.88639
1.0676516,85.5342
1.0278594,85.9394
0.9905619,87.07366
0.9856414,84.64832
0.92882025,84.650475
1.0024768,85.66798
0.9073216,80.72861
0.9309966,82.26854
0.85400677,82.52639
0.97265345,80.72633
0.9095499,77.92813
0.8510378,78.27613
0.9085623,78.76567
0.8773576,77.95226
0.8089255,80.10845
0.76850325,79.64516
0.78739905,77.87248
0.6715639,79.71506
0.59756,78.912926
0.5768499,79.07475
0.6076491,78.8808
0.63110393,78.91843
0.5768173,81.4853
0.56527674,79.101944
0.576344,80.68958
0.60826194,83.960205
0.69392985,84.44289
0.86169446,81.46179
0.9019816,86.51314
0.9827993,87.9578
1.0825644,88.42083
1.2153374,87.32273
1.3937742,92.422005
1.4264427,90.69114
1.5571312,96.1993
1.5822386,95.46718
1.724757,98.534424
1.7034868,98.70759
1.8126236,101.64531
1.8063389,98.952415
1.811741,100.15473
1.8616775,101.958916
1.852471,103.5846
1.9264987,101.66048
1.8215841,103.61035
1.9082657,104.559906
1.889038,105.46568
1.944426,105.402794
1.908753,105.69458
1.9146801,106.32645
1.8560499,103.69254
1.808361,104.806816
1.878255,103.37644
1.716343,103.044716
1.7206223,100.88169
1.700155,99.29184
1.5642599,102.37057
1.5764593,101.61784
1.5463792,98.45046
1.5806715,95.16982
1.4926884,99.88886
1.4704025,97.45984
1.4439244,94.237465
1.3831508,97.58266
1.5350765,95.31225
1.412034,95.55841
1.3592796,92.816734
1.3850653,93.1976
1.2894375,93.3734
1.3484803,91.72059
1.2687962,91.93324
1.269265,91.62373
1.1757137,90.09336
1.1842549,89.158905
1.0906262,86.88814
1.0378454,84.66943
1.0045608,88.60627
0.8922547,85.97616
0.9034427,88.42038
0.82038224,86.2947
0.82545966,86.03808
0.8007209,84.64237
0.8077422,83.87376
0.7510695,81.76156
0.79957175,80.67269
0.8365746,79.58793
0.8498277,80.08046
0.7375163,78.20553
0.7695738,77.86353
0.6256861,79.293625
0.684281,82.61603
0.7038553,78.368256
0.61443913,77.39685
0.62617195,77.65746
0.5180901,80.3782
0.50339055,78.25611
0.38317168,75.7953
0.33270046,82.71177
0.26763153,81.17439
0.40638375,80.13571
0.3745619,80.99614
0.35201728,80.04059
0.55654037,82.908195
0.5264017,84.7313
0.6607151,85.98894
0.7214597,90.64319
0.872664,87.762665
0.96595836,92.89065
0.95600766,93.23599
1.204343,91.163994
1.2454283,91.52315
1.2841594,92.69286
1.458441,97.82075
1.526105,96.14365
1.5579605,97.57815
1.587886,99.34548
1.6961293,101.04796
1.6952838,100.580315
1.6435581,102.09208
1.6873273,102.390785
1.6448814,106.32169
1.6269547,102.346375
1.6521763,103.47327
1.648738,104.43066
1.6830819,100.46045
1.5850618,104.71965
1.664492,106.17275
1.5433078,104.67491
1.5882239,104.26497
1.5393324,106.781395
1.405365,102.11411
1.4354886,101.106026
1.3954011,101.635376
1.3782009,100.03645
1.2672478,97.72386
1.2533715,99.00186
1.2496643,98.90255
1.2728757,98.47002
1.2137275,97.18766
1.2047907,97.29569
1.1359731,97.42492
1.0879912,94.54506
1.1392789,94.10221
1.180386,93.66765
1.0692893,94.34496
1.0700527,93.24106
0.9722304,93.17825
0.87335706,87.593956
0.93315244,90.918686
0.8912751,92.302704
0.8400387,89.724815
0.69947404,88.33459
0.6681155,88.36748
0.7601132,83.641815
0.5403982,84.930824
0.46987253,86.853806
0.5211318,85.08632
0.5097683,83.0444
0.52226996,85.78864
0.46596208,80.14513
0.5112788,79.54906
0.50068504,79.88297
0.43668136,80.43411
0.48742342,78.98217
0.42177007,78.83907
0.4798148,80.383736
0.43107575,81.12149
0.2452244,79.79343
0.2868523,79.209
0.24166587,79.26835
0.20768471,80.323654
0.1589736,79.218605
0.09741538,79.37474
0.15425582,76.76938
0.0083342455,80.55786
0.022495184,78.827515
-0.000635126,81.405975
0.19365688,82.76134
0.19884193,81.426125
0.24375592,85.22401
0.33833337,83.533424
0.42138937,86.5529
0.4945732,88.158295
0.6909444,88.951256
0.6784283,91.43903
0.8730063,89.32144
0.94552183,95.4474
1.0316691,93.429344
1.1256614,94.783264
1.1600604,96.87928
1.2972289,97.5068
1.2379836,100.12764
1.3753053,100.95921
1.3686424,101.473785
1.4926809,103.461464
1.4311025,102.22583
1.4202805,104.31281
1.477192,104.25347
1.4036572,105.20094
1.436851,107.989174
1.4484775,105.03564
1.4201325,106.058136
1.3339598,103.766045
1.3625127,105.09985
1.315153,104.046196
1.2561244,105.668526
1.2619302,104.271385
1.189902,102.64075
1.1278149,102.22108
1.118497,104.912704
1.1590034,102.988785
1.0918106,102.9625
1.0410813,95.83041
0.9821807,97.21004
0.9886044,96.01491
0.98063964,97.349915
0.97169363,94.45085
0.9367926,96.9563
0.90629905,91.77353
0.90993065,94.557014
0.912259,93.41443
0.82811755,95.22056
0.7840049,93.286736
0.7582971,91.3049
0.783364,89.548416
0.75532097,92.62579
0.61701715,91.7842
0.5615567,85.60139
0.50842154,87.02947
0.5557559,88.67738
0.480424,83.976494
0.41030535,86.02455
0.36543715,85.232376
0.33413553,87.700096
0.31792104,80.85437
0.34392035,85.44176
0.36063623,83.62112
0.33362275,84.48999
0.24238886,76.87026
0.32952708,80.785866
0.3367665,80.959274
0.21467066,78.47376
0.21335596,78.19959
0.2639329,79.14615
0.20191988,79.64085
0.19938003,79.69405
0.12964346,79.51425
0.07734751,78.66156
-0.02285872,80.04574
-0.0153853,76.18838
-0.047592577,80.6714
-0.064852506,79.53164
-0.022039969,82.044
-0.012287585,81.608604
0.042858616,83.64283
0.04345727,85.80294
0.1463306,87.24284
0.32639918,83.56026
0.29251537,87.32462
0.47225308,87.407745
0.56816983,88.6174
0.6025275,90.640076
0.73470145,91.09052
0.8375568,93.23341
0.94405735,96.45268
1.0664344,94.49977
1.2504085,95.60807
1.1479521,98.73981
1.167137,96.55275
1.3187999,98.997536
1.2905695,101.817154
1.3859885,101.99512
1.3445672,101.63634
1.3114698,103.430954
1.4348689,106.24033
1.3863167,104.72382
1.3527488,106.27088
1.348306,103.402405
1.2867751,100.27793
1.2848239,101.88627
1.2842742,102.47037
1.2548143,104.73164
1.2763385,103.51655
1.1747445,105.605156
1.1531799,100.750755
1.1318045,102.24841
1.0240002,99.09179
1.0276929,100.32055
0.9950916,101.45912
0.99396336,101.01307
1.0131906,97.00564
0.94730926,95.09185
0.9607975,98.05041
0.9567926,96.43018
0.947787,96.172676
1.0169088,95.42107
0.97126186,94.860405
0.8665753,92.79313
0.9390484,92.75819
0.8588901,94.21375
0.83485985,93.39806
0.6381502,88.91461
0.6421632,90.46982
0.6155482,89.18951
0.678417,88.86402
0.5770503,87.94602
0.54123014,86.370094
0.444543,86.53068
0.43658525,85.11221
0.42420435,82.29033
0.48394033,83.59546
0.34398073,82.36429
0.36812076,80.47531
0.4381391,80.38572
0.32464713,79.51773
0.39241156,81.2592
0.38458177,79.94535
0.32645774,78.1489
0.36884177,82.390594
0.34236467,76.56547
0.25847876,76.889366
0.27774334,80.11096
0.16283925,77.87982
0.22374886,78.0991
0.11674998,78.25284
0.11997933,76.72484
0.0876035,82.412796
0.026542168,79.73408
0.112394236,79.46237
0.07329472,84.22407
0.114201896,84.400055
0.14757936,82.86129
0.2947884,84.226906
0.37849212,86.85305
0.51390135,85.03779
0.5729143,89.09576
0.59766954,89.81116
0.7443151,89.27984
0.897928,94.096725
0.97894394,93.11737
1.0762758,92.56161
1.1722877,96.282074
1.2034795,97.222984
1.2985972,96.728806
1.3908652,101.07576
1.5396631,100.46007
1.50956,100.32091
1.5039483,106.45898
1.5575391,99.7888
1.5707524,101.175964
1.5524694,103.204506
1.6327353,102.94815
1.630634,103.90483
1.5485463,106.245636
1.6254549,102.39408
1.5498221,102.5959
1.4948303,102.538025
1.4126413,103.03601
1.4402028,102.634186
1.4615619,104.4392
1.46494,98.723175
1.3458912,103.77204
1.3988963,101.56926
1.2443725,100.90483
1.2452024,101.14756
1.2468442,99.56535
1.2132844,102.68326
1.1906753,99.86985
1.19494,98.844666
1.1541078,97.45783
1.1610377,96.60629
1.1189576,95.422066
1.1184407,96.0441
1.1713129,94.886986
1.0982144,93.129395
1.0160748,92.5749
1.0193394,92.933914
1.058408,91.293175
1.0206132,90.029755
0.89001215,87.50734
0.9070739,89.87566
0.90200967,86.78202
0.7286834,85.964775
0.75252867,85.78838
0.6581845,85.60656
0.6671832,83.629616
0.74734765,84.35583
0.7365323,84.0342
0.72472286,83.72005
0.6721239,81.050705
0.7015587,81.83891
0.6336169,81.423
0.62454396,81.59509
0.67264205,81.176285
0.6034962,82.39985
0.57080144,79.87728
0.61359835,80.564224
0.5861848,80.32838
0.52238905,80.17686
0.47674325,79.51893
0.435562,79.649254
0.3667629,80.10223
0.36398476,79.0749
0.32315418,78.578156
0.38693,79.94052
0.26603407,81.664925
0.38348004,81.28208
0.40919468,85.225006
0.48271585,82.76746
0.5826312,86.04397
0.70655,85.04677
0.7421831,86.74408
0.84229213,87.865685
1.0316675,88.49516
1.1536225,91.92567
1.223989,91.36099
1.3309597,96.63006
1.4872144,91.32948
1.4350197,93.84281
1.5646416,93.89635
1.6001638,97.18275
1.6108547,100.74285
1.7084774,100.13284
1.7565957,99.3588
1.8758713,99.29129
1.7406046,101.815475
1.7973652,103.29046
1.7783393,105.94168
1.9239825,101.912575
1.8278368,106.01887
1.8651172,103.45807
1.8151734,103.28835
1.7288283,105.92577
1.7853233,103.657326
1.7242734,106.90745
1.797154,105.55909
1.6539767,104.3922
1.6297165,104.068436
1.5991662,98.61062
1.5698255,99.81806
1.5912373,101.162865
1.4673235,95.721054
1.4895436,98.2852
1.4873751,99.65776
1.4866618,97.49327
1.3879004,96.61742
1.427076,95.64239
1.394603,93.83274
1.3932304,94.387535
1.4056726,93.984024
1.3630885,90.69364
1.3585358,92.24933
1.3049564,93.072266
1.2484552,89.93847
1.2275115,91.670105
1.2217195,86.93605
1.1266681,92.96723
1.1868091,85.19846
1.1329728,89.86874
0.9987066,85.98998
0.9626589,84.93871
0.917822,88.05244
0.98649967,86.02926
0.86811215,82.92725
0.96071666,83.44264
0.8600534,83.61775
0.8599743,85.229225
0.94602287,82.28604
0.9329826,80.38814
0.9559754,78.81347
0.9087196,78.72298
0.88466763,77.86551
0.8098068,74.94066
0.77264345,77.899994
0.6795609,78.44089
0.6753466,78.75064
0.6245527,80.67536
0.63640296,79.140465
0.61009926,80.09287
0.5824285,77.61065
0.57418156,79.473015
0.59257215,80.77378
0.50793976,80.31985
0.61339504,79.97443
0.6338688,83.917725
0.7201321,85.967316
0.83666605,84.33015
0.83054364,85.72997
0.9659749,88.02296
1.039824,89.357124
1.1837124,91.612144
1.3718846,91.51638
1.4581523,95.456154
1.5226252,92.91972
1.6061877,95.17669
1.7153579,96.93124
1.808392,100.47372
1.8399835,98.05114
1.8583008,102.65572
1.936344,102.42594
1.9436862,100.72658
1.9506805,103.9965
1.8906741,103.775505
1.9999626,101.87108
1.8844066,105.041756
1.9827027,105.01814
1.9409041,104.98905
1.8756233,106.46668
1.8307948,103.132
1.994644,106.48617
1.816836,101.7156
1.8347839,105.373825
1.7570646,102.182
1.6979831,102.93287
1.6897087,99.9567
1.6446941,102.44594
1.6247514,101.53898
1.5741298,102.19432
1.6458101,100.96413
1.6037037,97.61225
1.5265057,98.84122
1.5421648,97.91514
1.5073297,101.15613
1.5125493,95.752914
1.4990466,95.10746
1.4853959,94.376305
1.4398869,95.15461
1.4704895,95.68401
1.3719597,89.94532
1.3257443,92.66257
1.3540161,91.077286
1.2781371,90.784485
1.2199434,90.46159
1.1454376,90.680016
1.1050185,88.950005
0.99413717,86.776
1.0091794,87.08997
0.9978027,84.16913
0.9514712,84.33007
0.9087036,82.75621
0.89038515,81.51978
0.8902639,81.16845
0.9104836,79.790184
0.8593571,80.04636
0.9129182,81.826096
0.8945411,79.916916
0.92937857,79.82563
0.82776374,77.91521
0.8420127,77.88912
0.7290377,76.577774
0.7820142,77.57624
0.68460995,76.28878
0.67885965,79.44702
0.60798645,81.31142
0.5144477,79.08513
0.53944445,79.96903
0.4366039,78.85223
0.5034027,79.31591
0.36870176,80.73928
0.60997766,79.62293
0.48379123,81.05142
0.5469403,87.2614
0.70138997,85.34735
0.76355296,85.27424
0.83680576,88.33609
0.9003584,85.90291
1.0248096,88.49371
1.199953,88.5676
1.247813,91.73492
1.3353274,93.68115
1.445564,91.60744
1.5098101,96.55895
1.6563321,94.14032
1.6645077,96.34679
1.662777,96.87956
1.7929652,99.69571
1.71568,100.61003
1.823123,100.95254
1.8795565,103.80008
1.7731177,104.58656
1.8991185,101.69151
1.8592815,105.78438
1.8368963,102.9433
1.8392082,103.34298
1.8197377,100.94908
1.7167685,105.23757
1.7493834,105.71905
1.6933954,105.78278
1.6332868,105.024574
1.5805376,101.35823
1.5477467,101.510506
1.5878824,100.59357
1.471111,101.110756
1.5002502,98.77668
1.4732256,100.84104
1.4132938,102.043625
1.3746649,100.34532
1.4441586,100.54477
1.2978442,98.05306
1.2950783,94.92413
1.3165362,96.7364
1.3220099,94.64534
1.2893459,94.03196
1.2918762,92.43532
1.1957012,93.747604
1.2072246,91.17089
1.2219837,91.27477
1.0240631,91.834236
1.0496378,89.11287
1.0671844,90.62189
0.97112876,87.311844
0.926737,87.092834
0.8009196,87.04861
0.8196246,86.70501
0.7880676,90.044586
0.6950514,83.776245
0.71274984,82.78253
0.6756218,83.30809
0.7425244,84.17477
0.6423746,81.04726
0.67476666,81.4306
0.62970954,80.33412
0.63483036,80.984055
0.62218916,80.020134
0.5831259,78.4312
0.59785527,77.144226
0.61411774,78.770035
0.5440869,80.212555
0.45052707,80.19717
0.33966348,76.75471
0.38630193,77.38454
0.29287758,81.47544
0.27989033,80.89626
0.23593318,81.578285
0.19978973,78.033966
0.16596937,83.62435
0.23612309,79.3121
0.29903248,79.91735
0.3872203,83.218544
0.3801982,84.64076
0.4901203,81.86372
0.61952657,86.461655
0.72019446,88.194595
0.9118065,87.61704
0.9675439,89.9906
1.0645107,91.8373
1.1944883,93.76835
1.2732345,93.854004
1.2901102,96.695244
1.3859712,97.88434
1.3981626,97.83133
1.4520699,98.91474
1.5354096,99.08914
1.5755498,99.514915
1.5847867,101.95355
1.5523711,101.455185
1.5926918,104.13511
1.5819839,101.966156
1.6488439,104.57059
1.6171528,102.868034
1.5086445,105.0916
1.4482813,106.91469
1.4887775,103.447876
1.5354736,103.53124
1.379625,101.72701
1.3963307,101.734055
1.4033003,103.51057
1.2606099,104.51171
1.1912352,103.54752
1.2020046,102.419685
1.1458213,99.0464
1.1219696,103.11461
1.0798603,100.289665
1.0805022,100.60772
1.0969079,96.72808
1.0839283,96.578514
1.0085142,94.169174
1.0232422,96.018394
0.9658402,93.59936
0.90528625,96.76318
0.9444749,90.91823
0.97361666,93.95322
0.88588905,91.67944
0.8187109,89.73372
0.77920586,87.42202
0.76618624,89.66153
0.69960403,88.60979
0.6214233,87.73287
0.5326886,88.37948
0.56390077,84.79289
0.46950066,82.164825
0.4459795,82.7497
0.45866323,83.0651
0.4735438,86.0444
0.4754479,85.45577
0.4159056,81.00751
0.42245045,78.976746
0.44106588,79.49473
0.37740943,80.4889
0.40450785,80.75379
0.4362784,81.873436
0.3964493,78.421646
0.35070652,79.79711
0.23677377,78.04492
0.2484669,76.11027
0.17095356,76.78341
0.19146505,75.94435
0.041308388,77.2804
0.01892381,78.80774
0.0020529388,80.69994
-0.012235216,81.91859
-0.018788172,79.813416
0.008251555,79.643265
-8.032839e-05,78.866974
0.028644389,81.48117
0.1829571,82.82791
0.20762412,86.08775
0.30878288,85.37503
0.43865016,85.43774
0.58799946,91.80675
0.6799056,91.301605
0.78549135,91.84576
0.9168857,95.4552
1.0100809,94.14913
1.1152047,95.48191
1.1662102,97.95789
1.1719314,96.52511
1.2435323,98.10118
1.2921954,98.87997
1.312056,102.65403
1.3749901,105.12119
1.3535416,102.3806
1.4011877,102.34765
1.4319791,106.07811
1.4007362,104.136986
1.3191844,105.4008
1.4188106,104.919586
1.2964083,101.99978
1.2068448,103.18226
1.2803814,105.28348
1.2307469,104.691376
1.16233,102.36498
1.1794893,99.53711
1.0779927,103.4228
1.0866977,102.08893
1.0908302,100.35577
1.0101429,100.62618
0.9780219,96.547104
0.93669343,94.02483
0.95686036,97.6527
0.9634172,98.07507
0.8904687,95.965576
0.9113112,94.422485
0.91407615,97.12768
0.91054666,95.40008
0.82623,90.00336
0.79192466,96.61729
0.7730086,91.01007
0.83165467,91.751305
0.73985195,90.85927
0.7998077,91.59955
0.61998737,87.76887
0.53460157,86.7524
0.6552149,87.28925
0.51301354,86.002594
0.45734546,88.070816
0.45879322,84.15183
0.3440239,87.9473
0.3634233,84.57147
0.3565719,86.7743
0.26011932,79.535805
0.30003354,82.33272
0.37145525,81.40752
0.35736263,80.78093
0.35399958,82.53269
0.32122043,80.52224
0.3482105,77.80908
0.36961174,78.52102
0.20315368,81.26187
0.21635385,78.21093
0.26091874,79.34116
0.13550237,75.5315
0.0796916,77.40912
-0.01053169,80.5778
0.05012854,79.39866
-0.0031408553,78.26982
-0.0071422774,79.37099
0.0008077136,80.52351
-0.06821363,83.919205
0.058461025,80.74617
0.09418985,79.95223
0.19763626,83.62146
0.2720476,85.22634
0.32300815,85.506424
0.36488235,90.01387
0.4341104,89.492744
0.66070145,90.097824
0.77110225,93.68076
0.84977674,89.24928
1.0580702,95.74744
1.0274981,94.99616
1.0437713,97.661
1.2154914,96.612404
1.2855554,97.9908
1.3170191,96.808365
1.3386506,100.716644
1.4319692,102.84128
1.4337252,98.97003
1.4093053,104.04346
1.4601817,102.02541
1.4173183,102.47166
1.4301091,106.63069
1.3798559,103.66768
1.4875859,103.88473
1.3729517,100.13395
1.3960979,102.38622
1.3967882,103.43789
1.3547741,104.56413
1.2827477,103.424225
1.219382,102.21776
1.2821169,103.50691
1.1739583,103.18236
1.1590239,100.18112
1.1057508,101.56548
1.0571376,98.35043
1.0660173,98.60758
1.0427759,101.08841
1.0168252,98.77846
0.9969747,96.96926
1.0422828,94.72463
1.0556145,95.393196
0.95426625,94.84898
0.9362953,98.56426
0.9877852,92.47062
0.9223339,94.03565
0.9778506,92.13889
0.8734256,95.54897
0.88333005,87.739494
0.8313939,88.066956
0.7006336,88.53575
0.72389853,88.43067
0.59162927,88.30495
0.6432569,86.68836
0.5550814,84.10973
0.5075934,83.04339
0.5534438,84.284325
0.562934,85.26447
0.53527737,83.889755
0.49883902,81.294785
0.5229845,81.836136
0.46472454,78.799164
0.5256658,82.45933
0.40210092,79.628845
0.4708734,79.54689
0.54763883,81.86224
0.38870403,80.21096
0.38401103,79.09727
0.3448874,78.207855
0.37478575,79.12179
0.30143583,79.590744
0.21369904,77.59297
0.15569293,79.65375
0.21520045,80.133
0.11484909,80.14137
0.13675004,82.677086
0.34544742,81.1798
0.19950965,82.175934
0.3148965,82.83776
0.42099556,87.240105
0.5272027,87.39005
0.6020369,83.6611
0.73834383,84.34763
0.7403524,93.62917
0.90012115,88.2897
1.0575968,92.28825
1.185084,91.67613
1.1665618,91.936554
1.282337,94.6062
1.3878994,98.31258
1.5215076,98.173195
1.606912,96.426186
1.6204977,101.07286
1.6481365,103.287346
1.6683123,103.33936
1.6916113,105.15264
1.5961736,104.043304
1.7012035,104.24065
1.6918728,103.72466
1.747233,105.70978
1.7169772,107.36749
1.6852949,105.588165
1.7081522,105.465614
1.676943,104.93588
1.5542352,104.82921
1.5881113,104.03726
1.6458511,103.616714
1.4677808,104.30174
1.4759368,100.97902
1.4287975,100.54329
1.4220004,101.606415
1.41861,101.900734
1.2989203,99.385704
1.2921656,99.67282
1.347332,99.83392
1.2948283,96.26913
1.384363,97.280975
1.3318936,93.94976
1.3114724,94.563934
1.3549076,97.70218
1.2302121,93.42551
1.2081907,90.28274
1.1761898,91.9441
1.1530204,92.49149
1.1183844,90.027306
1.064372,88.83563
0.9943058,89.4173
1.0063338,87.431885
0.97672427,83.581345
0.90632546,86.05906
0.84524524,88.64688
0.86019456,85.311806
0.8035674,86.01611
0.79602325,81.91332
0.79728955,87.35594
0.7483212,82.512115
0.79893243,81.66964
0.7634076,83.029076
0.8614506,79.148415
0.7143624,80.42995
0.67943704,78.99622
0.79967433,78.451485
0.74594307,77.68553
0.7275268,82.643
0.67031753,76.822655
0.6263336,80.1448
0.5669381,78.91463
0.4801644,75.37776
0.56803304,78.83726
0.4811361,79.78799
0.5310938,76.857834
0.45129487,80.02801
0.46161276,80.44551
0.47653443,81.163956
0.5980245,83.04677
0.6310042,83.60102
0.703999,84.074936
0.7871585,86.69822
0.8539444,87.26541
0.98122394,86.92334
1.087646,89.26286
1.1819451,90.386635
1.3599612,90.38282
1.4509336,92.23641
1.5909722,94.81098
1.6793562,95.08259
1.7904683,96.92191
1.7431867,98.33135
1.7801552,98.42771
1.8952054,98.932205
1.8229407,101.01275
1.9024931,101.012596
1.940134,104.791435
1.9082781,104.627205
1.9674473,104.06606
1.9205761,103.22476
1.9222115,105.15153
1.9661194,106.55126
1.9309487,104.022545
1.8610294,104.601456
1.8663155,101.60045
1.8377773,104.246994
1.8059133,107.17734
1.7390983,100.48566
1.8086711,101.09765
1.5767335,104.57262
1.6027766,99.38768
1.6255798,98.95035
1.5527669,101.23422
1.518911,98.59344
1.5398899,99.501526
1.3897394,98.219986
1.5467308,95.55306
1.5392293,93.49979
1.4018569,96.22382
1.5033835,92.17363
1.4422258,93.01626
1.4967958,92.55957
1.3709824,91.71284
1.3606554,89.869736
1.363773,88.98077
1.262812,90.20347
1.2453368,90.20295
1.1167164,89.62093
1.1860135,89.729195
1.1415572,90.780334
1.02215,87.74048
1.0023402,82.97336
0.9171954,84.815025
0.9369715,85.02235
0.88975096,86.57032
0.9017312,83.539894
0.9755378,81.52715
0.9022862,83.60728
0.89281017,77.85084
0.8936459,82.140175
0.8201408,78.386734
0.88188195,84.9845
0.8068617,78.0455
0.8164655,80.521774
0.7343464,79.298325
0.73578644,77.219185
0.69677866,76.71292
0.7303551,75.46863
0.64498687,78.39641
0.51520014,79.42959
0.59421074,79.76987
0.51712024,78.383804
0.47844377,80.51105
0.54467434,78.62383
0.5845536,81.516464
0.66450125,82.51389
0.75059307,85.06815
0.8330155,85.336105
0.8545386,87.34593
1.035429,84.52085
1.238488,86.20385
1.2161831,89.983734
1.372296,92.30751
1.468144,90.35549
1.5268109,94.47863
1.677538,96.40341
1.7192577,96.909996
1.7188513,97.86345
1.7917912,97.41251
1.8753928,100.769775
1.9015471,99.60573
1.8979037,102.7791
1.904698,102.364365
1.8701204,103.9706
1.9267466,107.53613
1.9462198,102.54876
1.9479992,105.0338
1.9231107,101.18697
1.8333422,105.79334
1.9084669,103.13905
1.8440995,102.724976
1.8881905,104.64009
1.7057157,104.552795
1.7320688,103.58505
1.6918341,101.59561
1.6330312,102.70268
1.6275977,102.056694
1.5596197,100.463264
1.5331817,101.66164
1.5892028,101.43217
1.5842711,99.12466
1.4983854,96.78503
1.4518502,98.868126
1.4233358,97.48791
1.3899802,94.20121
1.4349415,96.30058
1.4412339,94.430504
1.3422217,95.05291
1.3336227,93.36486
1.3896309,90.11774
1.2468735,92.52721
1.1963496,93.01189
1.1385444,93.80437
1.1095685,87.61906
1.0083154,88.08285
0.9502228,85.65222
0.94311833,86.888275
0.8687865,82.734634
0.93523836,85.437195
0.87966347,86.25742
0.8189428,83.87377
0.84804916,83.37549
0.84402114,79.06186
0.74823606,80.32183
0.82198256,81.73818
0.75601727,81.27424
0.81986755,78.71387
0.78339064,79.421394
0.72199893,77.922714
0.7553225,80.242325
0.6328271,76.81076
0.6624647,80.28257
0.5943349,78.80386
0.5482425,79.49813
0.5272533,78.046005
0.4012267,77.30652
0.4081947,76.60974
0.29326105,78.50176
0.42766622,79.49891
0.37618512,80.70696
0.389348,82.31671
0.45646,82.383255
0.46442878,83.81469
0.64446247,83.759476
0.6787916,85.6531
0.7720686,87.44602
0.80556667,87.67437
1.0067692,86.52298
1.1315593,93.131615
1.2684722,90.935394
1.2957938,91.28113
1.4233992,93.1661
1.4722695,97.84616
1.5437204,96.232605
1.624523,96.6091
1.6048318,100.01622
1.6493087,99.56724
1.6931349,102.15276
1.6383535,100.342445
1.6599048,101.18921
1.7561095,105.86972
1.7151235,102.627426
1.7133901,104.90152
1.7866346,104.821815
1.7203823,103.46509
1.7025084,105.324005
1.6440781,104.43178
1.6304219,102.62508
1.6062359,104.56344
1.5050929,105.65259
1.4578705,105.91768
1.4326006,101.77016
1.3961706,103.325096
1.3912374,100.43583
1.3700616,99.45521
1.3039654,98.02742
1.3356744,99.434784
1.1874907,97.505356
1.1828123,97.42482
1.1826535,98.00897
1.152202,95.6246
1.23206,96.20242
1.1193564,93.62888
1.1602943,94.52935
1.1242969,96.47956
1.0160596,90.69056
1.0071701,90.93423
1.0245278,94.03346
0.96971655,89.348785
0.8620131,92.18496
0.8543599,90.10582
0.6768192,85.295715
0.7108892,85.67869
0.6697132,86.14287
0.6609048,86.79174
0.58964217,85.500305
0.5648453,83.01022
0.52315176,85.36892
0.5736909,82.087425
0.51540715,83.36653
0.5389577,81.31713
0.48773423,80.549675
0.482265,78.71307
0.4521838,81.503654
0.5989141,79.429955
0.5117505,80.95672
0.5000874,77.7064
0.35206705,76.88083
0.3610587,78.41289
0.30189738,78.521996
0.22811012,79.13517
0.21394561,79.35114
0.17487483,77.20145
0.05316069,79.62942
0.09284092,76.74993
0.15206623,83.20052
0.14707002,76.62803
0.08782359,81.77551
0.25645766,82.47129
0.30776644,85.1983
0.32200155,84.04039
0.3889654,89.953186
0.63036245,88.98439
0.6467344,86.06897
0.7398124,90.85022
0.8278587,89.14717
0.9936379,94.79173
0.9956891,94.52397
1.1591163,95.915085
1.269846,95.8681
1.2774843,94.690414
1.4078556,98.97881
1.3566717,100.284805
1.375103,103.56425
1.4229472,103.511665
1.3980906,101.692924
1.4470955,104.90378
1.4613814,101.22888
1.4379195,103.54379
1.433603,103.21669
1.5075507,103.714966
1.3466859,102.14828
1.3974684,103.196686
1.3266252,105.70113
1.2832837,105.96408
1.2351476,105.11634
1.2613101,102.305565
1.1760935,102.53917
1.1163846,102.226585
1.081281,101.31014
1.0758072,102.28213
0.9945269,98.24145
1.0484278,99.05966
0.99319726,102.9996
0.99520886,99.35283
0.90063965,97.53462
0.9853555,97.043724
0.9226738,93.40523
0.8810541,95.41653
0.8933876,92.19455
0.9002066,93.05341
0.86954653,94.41325
0.8731427,93.97117
0.83322614,91.2336
0.8019703,94.04394
0.63122064,88.38644
0.6836422,88.92577
0.60785,89.264915
0.6216123,87.42847
0.4865896,85.65759
0.4737128,83.87587
0.4372231,86.30719
0.3941155,85.36607
0.44067952,81.9601
0.35916972,83.08102
0.30841178,85.32872
0.3664308,81.844315
0.307275,81.308495
0.3789701,82.57248
0.39227512,81.48365
0.2695135,79.395256
0.30558866,78.64944
0.37488618,80.10272
0.2928874,75.85745
0.23251589,77.467804
0.100922026,77.2097
0.13385856,76.086205
0.022480763,77.592804
-0.008106538,78.86151
-0.031805884,76.67562
-0.044195697,79.68188
-0.058068506,79.38266
0.022191571,81.10836
-0.012426558,83.66233
0.106200315,81.25647
0.15773305,85.18774
0.121048175,82.87116
0.2643809,87.59276
0.3561812,86.02969
0.5152583,87.49005
0.52471745,88.19675
0.70240027,90.61422
0.8554755,93.89513
0.8739783,94.04514
1.0302395,93.40211
1.022502,97.0465
1.1139796,96.00271
1.2270981,98.33416
1.3156925,98.27124
1.2729175,98.66089
1.272809,99.78273
1.3323442,100.65196
1.4439636,102.0544
1.445504,102.08789
1.4410514,101.35238
1.3478956,103.04428
1.3439393,106.72859
1.3041372,104.93514
1.2808586,103.02395
1.3847258,103.48564
1.3598591,103.14558
1.2276092,104.201645
1.2395465,100.778145
1.2351024,100.89873
1.1034458,99.33161
1.1104641,104.8413
1.15197,100.878914
1.0090284,101.30392
1.0249311,99.833755
0.9358399,102.191475
0.97812253,98.23198
0.9391375,94.12816
0.92176276,98.05188
0.8636893,94.46461
0.89179474,98.24822
0.97916687,96.57865
0.91602975,96.39785
0.885614,91.905174
0.8829824,91.862564
0.7301704,93.82499
0.7561922,88.064835
0.74407667,91.21817
0.65011597,90.00083
0.7271538,85.91987
0.5347223,88.118546
0.5517291,86.44277
0.46207714,87.22792
0.53558934,86.512436
0.45163083,89.57563
0.37350416,82.65899
0.35189584,84.743
0.3850179,83.48933
0.35506347,83.55803
0.40505278,83.44044
0.37755844,79.65599
0.3908414,79.72493
0.4726908,81.074165
0.3945326,79.27806
0.3342128,80.26555
0.32550684,79.21793
0.30085498,75.23635
0.22519836,81.1845
0.26007935,75.831924
0.21382743,80.10196
0.06484712,79.34197
0.04839429,78.20471
0.058733176,78.15511
0.07810179,79.24237
0.017181413,79.54659
0.0721496,79.94157
0.13362588,82.48856
0.142272,83.263695
0.21766113,84.26068
0.39252087,84.6598
0.41169828,86.56071
0.46764705,86.24129
0.6614289,89.71682
0.8070397,90.323204
0.88714516,88.65814
1.0105356,94.33387
1.0947698,93.300125
1.1246269,98.72705
1.1829515,95.59227
1.3990594,98.18698
1.349146,97.91987
1.4526159,98.04801
1.4048246,100.64328
1.5479094,101.22188
1.4869908,103.5741
1.562082,105.71356
1.4815475,102.34006
1.5488007,104.17693
1.6023676,102.922745
1.4948795,103.378075
1.5124108,104.66457
1.4956555,101.60176
1.4793926,105.93331
1.4966208,104.922874
1.4929916,106.61617
1.3372993,102.4473
1.3224931,104.05947
1.3376669,100.34593
1.3261772,101.124825
1.2632623,101.72085
1.2619945,96.78961
1.2683465,98.774155
1.2450558,100.22214
1.1795259,95.09825
1.1928852,93.272896
1.0955098,98.54656
1.2101299,96.712296
1.1651299,94.65675
1.1029035,92.68998
1.1258614,94.66916
1.0315456,91.91037
1.0088252,93.433624
1.0108548,89.58555
0.9957458,90.9972
0.86208624,91.80279
0.8987551,87.34741
0.8855085,87.96916
0.8404521,87.20368
0.76219827,87.7294
0.70495003,87.74129
0.6782854,87.00141
0.7254007,87.05971
0.70961565,88.28519
0.64338213,84.358
0.6001458,82.99228
0.6205005,80.60481
0.68184924,78.64371
0.5884286,83.229805
0.6769521,79.10083
0.62657285,81.44128
0.61896247,79.3069
0.56101644,83.099045
0.57114434,76.370544
0.46193793,80.673134
0.5332457,82.66071
0.5100627,79.352844
0.42057163,78.72572
0.34357786,79.9052
0.30339235,75.92146
0.3854234,82.352715
0.29280406,78.92562
0.37877482,80.204384
0.32411584,81.8221
0.42719918,82.184654
0.4788145,82.57958
0.5621908,85.15368
0.65630764,84.17467
0.65492934,89.35394
0.77077574,88.80599
0.9885585,89.70083
1.1340191,91.74224
1.1427542,92.72718
1.323001,92.48723
1.4450591,93.53616
1.4285829,95.75167
1.5711342,96.72772
1.6812481,102.149826
1.7334882,99.6192
1.7714458,100.04887
1.775276,102.87323
1.8224661,100.69168
1.8435599,101.58006
1.7878485,101.91414
1.8558618,103.59803
1.8034946,102.41276
1.7927914,104.81232
1.7748642,105.219505
1.7743688,104.04216
1.731142,102.28082
1.7449118,104.32383
1.7544525,103.4657
1.7677438,104.88234
1.6597039,102.49883
1.603353,101.69236
1.6252514,102.815956
1.6164882,99.52561
1.5743412,96.82174
1.468276,101.43635
1.4600216,98.574066
1.4398869,97.88936
1.422251,97.91674
1.471719,95.94991
1.3978436,95.316025
1.3687333,98.66124
1.31664,94.452835
1.3233374,92.79007
1.3769624,96.61179
1.3403803,92.465034
1.2847798,96.399704
1.2645475,92.21672
1.2460562,90.90109
1.1871824,88.977356
1.1880647,89.80278
1.0922257,86.52312
1.0535636,89.339836
1.024514,85.5027
1.0228814,85.29801
0.97123605,86.321754
0.88627374,83.88961
0.8550414,82.984856
1.0227509,85.133995
0.9193285,80.98589
0.97582567,81.62885
0.9347101,82.84417
0.8592429,84.64761
0.8624646,82.048325
0.9543946,81.86639
0.8974462,79.71693
0.83982456,78.81299
0.796627,79.1941
0.76177144,78.24281
0.7064946,79.91416
0.65060985,79.560036
0.6774897,81.78974
0.6025986,79.31756
0.5522126,77.35544
0.5132605,82.71047
0.4878666,77.83964
0.5720218,81.144035
0.6131625,82.92984
0.58958817,80.51031
0.76672715,82.650505
0.84698135,86.44876
0.8539434,84.77115
1.0041285,86.8805
1.21701,89.64117
1.1743706,87.929535
1.2978023,94.011406
1.4598347,94.448944
1.4439048,94.048004
1.5428044,96.21535
1.7027003,92.51665
1.7639215,98.52275
1.8075954,96.34818
1.8903418,102.58843
1.8490504,98.15475
1.8956685,100.643135
1.9552286,101.24785
1.9604868,102.92576
1.9412541,103.715034
1.9881171,102.48994
1.8673966,103.37826
1.969203,101.322464
1.9236474,105.40672
1.8904617,103.90686
1.9217546,103.6286
1.8489025,102.61118
1.7465421,101.40401
1.8074803,102.48127
1.7351911,102.690346
1.6952901,101.24065
1.679295,100.502335
1.7203084,100.01941
1.5598944,102.32281
1.5590146,98.89489
1.580431,99.31101
1.5657208,95.046555
1.5213655,100.16183
1.5371588,99.037125
1.4682525,95.02477
1.4521732,94.03843
1.4849396,94.33683
1.4676964,95.22614
1.4297533,93.82786
1.3521593,92.872154
1.3351662,93.176254
1.2944716,87.9951
1.2897692,87.83715
1.2611064,90.193375
1.1531506,90.367226
1.0828735,86.57086
1.1102815,85.32115
0.9532247,87.01654
1.0199071,88.40081
0.9216354,86.30175
0.8206034,85.59588
1.0380576,86.944084
0.8818764,84.739265
0.9850486,82.96626
0.94014233,81.11423
0.8955131,81.36655
1.0016872,79.870544
0.8209905,83.275375
0.88235956,73.97396
0.8630159,75.80589
0.76384014,78.76536
0.74865055,79.693756
0.7491593,79.05363
0.6774719,78.93885
0.58454055,81.25005
0.55551285,82.00022
0.5954596,80.17635
0.5538618,75.70653
0.4885421,80.55159
0.44824472,80.16775
0.529013,83.993286
0.5752058,80.91424
0.6171093,80.58355
0.70514214,82.841896
0.74076366,83.74825
0.81301177,85.63077
0.9894274,89.332596
1.1002092,90.25774
1.1555511,89.26604
1.254117,92.54152
1.4407855,93.41336
1.556442,94.75335
1.5894259,96.53718
1.6535872,96.52115
1.6676663,98.29511
1.752883,99.85422
1.8300492,97.358284
1.9023358,101.145164
1.7936772,101.43388
1.821989,96.0521
1.8541627,102.38665
1.9639959,98.84734
1.9140316,101.62376
1.8625495,105.9344
1.8706803,103.363396
1.8016595,104.61551
1.7301495,105.288666
1.7526907,103.74782
1.7074544,101.195244
1.6699488,107.52278
1.6655581,101.142784
1.610177,100.97037
1.5401433,101.32201
1.524231,100.739716
1.4739311,101.25202
1.403958,98.10541
1.4577314,101.96532
1.3800206,99.77134
1.3034219,98.529686
1.4007136,95.83737
1.2576491,97.38728
1.3255224,96.32948
1.3963237,96.3961
1.3413236,93.43235
1.2295531,94.91546
1.22545,93.17952
1.1256387,88.95512
1.1468691,91.43853
1.0927601,89.626816
1.1021225,88.1919
0.98956525,91.320206
0.9536364,89.94896
0.88051367,87.07864
0.8722187,87.14168
0.8241184,86.22634
0.75242287,82.56798
0.7701795,84.04067
0.6755673,84.76193
0.66622066,83.32658
0.66975486,80.95699
0.58262134,83.6297
0.65743613,80.771324
0.6052652,79.77845
0.5548732,79.411285
0.6062667,79.17357
0.6082869,81.70792
0.69251865,78.9468
0.5257784,82.14833
0.44701928,79.37995
0.46361583,77.07868
0.40978917,79.821365
0.3514759,78.59978
0.34144315,78.66306
0.14833228,78.31004
0.2937445,82.292175
0.28383484,79.96539
0.2838001,78.49222
0.3361616,82.40797
0.35778457,81.35317
0.38673437,83.740486
0.39017797,86.150215
0.5596163,87.47186
0.65873504,90.28915
0.76202756,91.378235
0.8810311,87.57349
1.0178256,92.01431
1.0751573,91.996796
1.2409774,95.91176
1.2494912,98.569305
1.3194723,94.76079
1.452477,98.68856
1.4857417,98.60733
1.4796625,98.71534
1.5465487,96.98425
1.5537311,101.32811
1.5982081,99.862854
1.675102,103.938896
1.5544653,100.55245
1.6357757,102.33711
1.6215887,102.25856
1.5365661,105.49365
1.476791,103.664986
1.6109719,106.495094
1.4581952,106.40166
1.4168607,103.58817
1.4242351,104.92834
1.3666302,99.828026
1.3802556,102.14882
1.2225693,100.887054
1.246448,104.12001
1.2800955,103.26673
1.1864178,98.97145
1.2039057,98.804634
1.0987614,97.99861
1.1135765,97.13283
1.1096616,97.74489
1.0388898,98.243286
0.98398125,96.71832
0.97847295,95.59304
1.0095954,89.68079
1.075207,94.00384
0.89363503,91.57838
0.98000586,90.78231
0.86003965,87.86882
0.77303576,90.532326
0.84439653,88.43748
0.8564192,89.53538
0.6513446,87.14221
0.6956015,86.30176
0.57248354,88.769745
0.5270868,85.96347
0.53212833,85.0133
0.541921,86.674995
0.46079177,84.778496
0.42276138,85.055855
0.43814576,84.50839
0.44315925,80.85537
0.42961234,84.98093
0.39597753,79.617744
0.36149132,77.516045
0.41347727,81.67617
0.3951672,80.01028
0.4229909,81.12392
0.30731922,75.86791
0.21410948,80.15189
0.17693187,76.72959
0.1164863,78.856995
0.101805866,81.363815
0.07719234,81.80671
0.022194406,77.89846
0.022391645,81.18482
0.039353013,79.11835
0.078616194,79.59083
-0.02030815,79.73638
-0.019641524,83.43798
0.07890454,81.932076
0.13959445,83.27717
0.33844283,85.73783
0.34013128,85.00305
0.4733806,87.8929
0.6010658,87.37067
0.66460997,91.683784
0.80327964,92.67178
0.85077304,91.13307
0.9462283,94.88282
1.0856835,96.06239
1.1479077,98.02329
1.2308711,98.36019
1.2625749,100.40183
1.4054013,101.283676
1.3152751,99.7185
1.2811786,98.86052
1.3745762,104.39602
1.3697135,99.8955
1.445921,103.60554
1.3384469,104.337006
1.2887985,103.190254
1.3265094,106.118324
1.3476126,107.14918
1.351139,105.00742
1.3740754,104.771545
1.2254654,97.6056
1.1639382,100.95991
1.1937342,105.62651
1.1212158,102.13262
1.1024011,102.93672
1.057214,103.18592
1.0140476,98.68591
0.9529647,99.23259
0.9353067,99.95972
0.92821765,98.70929
0.9086785,98.79797
0.98297125,96.024765
0.9065011,94.95426
0.90250516,91.55497
0.82924795,97.059814
0.8193943,91.86081
0.88906676,95.36217
0.82775784,92.015594
0.8381462,90.20119
0.632077,94.13757
0.70725954,89.95937
0.6578279,91.715744
0.585187,88.49781
0.58374876,83.49246
0.49012733,86.254166
0.5494722,86.7647
0.46509463,88.519455
0.43802714,83.48198
0.41465634,87.72603
0.40672064,85.314476
0.34550735,83.29911
0.35971233,82.91104
0.3000106,81.717064
0.2727093,83.91963
0.32485953,77.70181
0.2946893,81.4426
0.29732016,80.186646
0.30632475,79.61188
0.27977857,77.5195
0.16032259,78.457054
0.1353488,79.396706
0.12620625,80.85098
0.044751957,80.61071
-0.02191231,75.522514
-0.0014390303,81.31981
-0.05973236,79.47278
-0.019572604,80.875786
-0.02473437,81.65002
-0.0030964224,79.5241
-0.0015213101,81.382996
0.042017374,81.24018
0.1461971,84.89554
0.19419254,85.18979
0.28890628,86.781815
0.43903953,89.26604
0.5102479,88.07267
0.6622637,90.43786
0.7168966,91.2699
0.85954934,91.41308
0.92069745,94.38182
1.0612805,92.09287
1.1681397,98.40805
1.2350703,97.12021
1.1552503,96.87122
1.2615527,100.44697
1.3842907,98.181076
1.3846704,102.50159
1.419773,100.710396
1.395696,104.02423
1.4442022,102.52243
1.4587103,101.51252
1.3352503,105.06721
1.4182029,103.96146
1.3779687,102.62529
1.386999,105.83874
1.2911385,104.81471
1.2926016,102.785126
1.3691689,102.589966
1.2370017,102.42199
1.2687994,105.83954
1.195414,104.810776
1.1669136,103.66375
1.1530313,101.00378
1.075826,99.70092
1.104258,98.48941
1.0800053,100.02039
1.04843,97.48622
1.0424038,97.30162
1.045478,97.48418
1.0305521,95.646286
0.9643413,95.52814
0.95497924,93.21
0.9128952,97.32846
0.8993325,94.40145
0.9041403,91.91132
0.8940626,91.996254
0.9082314,87.706276
0.77704096,89.95445
0.8433129,89.06935
0.69930464,88.04652
0.63228226,88.52848
0.6082962,87.67167
0.6633197,88.268524
0.56422573,86.31778
0.5243921,86.18128
0.50510764,86.58021
0.5190381,81.86145
0.54434735,82.7614
0.45778945,84.13392
0.47933367,81.595924
0.5514982,80.38662
0.54698,80.36636
0.45692003,81.353516
0.5339126,78.34829
0.44003984,78.65745
0.4369414,78.66018
0.44326875,79.19894
0.38167226,78.46473
0.29362494,78.33667
0.19073221,81.12827
0.24564461,78.363815
0.18466245,79.5415
0.14322159,80.5026
0.17752786,80.933525
0.22817582,79.15701
0.23090327,82.98837
0.25010425,83.85176
0.31713024,84.546684
0.38807085,86.18331
0.44626006,84.33033
0.56833845,87.29656
0.6352865,91.34399
0.734751,87.71664
0.83956194,90.15581
1.1147221,90.54997
1.1456069,91.974495
1.1956339,92.01879
1.2804484,96.85716
1.3260138,97.200005
1.4707104,95.186455
1.510667,100.03867
1.6070554,101.21197
1.6087172,101.82059
1.6183825,102.16755
1.6517226,101.77398
1.6882328,100.045525
1.7284697,105.12154
1.6750866,104.50819
1.6642867,105.10104
1.6234478,104.14256
1.6237993,105.96694
1.6659139,101.58357
1.559958,100.70113
1.5827948,105.02837
1.5504965,107.31994
1.5671744,103.90898
1.4887447,102.16001
1.4892998,102.24268
1.42949,99.70974
1.4010972,101.733986
1.3210602,100.23455
1.2566308,99.13379
1.3196789,100.690216
1.3506547,99.04459
1.3361003,97.72373
1.3414081,96.365486
1.3065133,97.19905
1.2370423,95.0137
1.3101616,94.642395
1.1845467,92.73527
1.1784168,94.13076
1.1438031,96.19422
1.1061257,90.17637
1.1692044,94.14025
1.1295817,89.121635
0.94929934,89.194534
1.0113443,87.42117
0.9905585,89.71916
0.927411,87.51394
0.9151915,85.52164
0.8800273,84.76557
0.7201744,82.54568
0.79906434,87.909805
0.7571266,83.04155
0.76262003,79.265396
0.83535033,80.615265
0.7498479,78.15566
0.812408,80.609436
0.8299473,79.782745
0.8677919,80.40278
0.66958106,78.05477
0.67912954,77.644394
0.6788152,79.04509
0.6276111,76.06878
0.70207,81.15261
0.5465152,75.99842
0.59337395,77.80771
0.4885319,77.19041
0.4668053,80.45373
0.36078846,79.54422
0.33480945,81.70643
0.4548396,80.61281
0.53736645,79.97189
0.547077,83.568016
0.5747238,85.31761
0.6840344,86.11872
0.7286645,83.6955
0.8785971,87.19623
1.0539943,92.404205
1.1229119,90.48977
1.2682076,90.98241
1.3562467,88.128494
1.4490943,90.79658
1.5016501,95.96445
1.6492388,93.81703
1.7039661,97.958405
1.7341646,99.03291
1.7822409,100.07409
1.7634717,99.882225
1.8399438,99.00163
1.8710953,101.26142
1.8802485,101.99577
1.9491231,103.00461
1.8991759,105.6909
1.9180409,102.67072
1.9250977,106.47668
1.8853271,104.819786
1.8730489,106.08018
1.8933011,104.348274
1.844002,103.22385
1.7557623,105.51117
1.847657,104.09998
1.7565037,103.888725
1.6470457,103.89565
1.6300715,102.11537
1.624581,97.06985
1.5698366,99.7635
1.6489208,103.01559
1.5282125,97.27756
1.4930772,96.53035
1.4961463,96.60199
1.511764,99.12471
1.5049268,99.233475
1.4752556,93.99457
1.5062501,95.96941
1.4717257,92.91597
1.4734033,94.582825
1.3519768,92.395134
1.3599259,88.656364
1.3106915,89.98426
1.2724298,90.639435
1.1923971,88.7488
1.1805528,88.72544
1.1488341,85.55651
1.0634753,85.79946
1.0059278,88.6159
0.97976726,86.97753
0.9692109,85.961975
0.89384377,84.74366
0.96211296,80.73982
0.93987954,82.942116
0.9219858,81.93878
0.94097704,83.549736
0.8938154,82.97864
0.98358536,82.49865
0.8374261,77.12342
0.90808994,77.00983
0.8939593,80.369446
0.87068933,75.42935
0.78008264,78.876915
0.8063012,80.09003
0.63859636,76.83343
0.665337,78.285034
0.62694925,77.05902
0.5840943,81.354576
0.5826208,80.416
0.6022315,78.456604
0.60431397,79.20864
0.50750786,81.89898
0.5911839,81.451225
0.65139437,82.65276
0.7273494,84.762215
0.8269115,82.30863
0.85854954,85.04609
1.0105567,89.18094
1.2033392,88.700134
1.2391486,88.77619
1.3890576,90.61978
1.5540287,93.565506
1.5236715,94.13755
1.6736243,96.60815
1.7092606,97.454254
1.8386636,100.50018
1.8816566,97.23145
1.909393,99.81813
1.9267154,99.74026
1.8484654,97.56974
1.9804307,101.02226
1.9555427,103.29545
1.920515,102.05453
1.8403169,107.1923
1.9977047,102.59149
2.0087724,102.256996
1.9480174,104.33896
1.8224981,104.48404
1.7872488,105.93264
1.8482907,105.58794
1.8065071,105.075
1.7067204,103.759285
1.7459655,103.47203
1.6102219,99.98936
1.6479295,101.816124
1.6435881,100.902435
1.5552095,99.58742
1.5393044,100.07521
1.5464892,98.81326
1.4688421,97.70343
1.4744109,97.60928
1.5182043,97.93073
1.4068428,96.43337
1.4231534,95.27402
1.372663,93.42174
1.3944483,95.46511
1.3498876,88.588295
1.361345,92.6539
1.3764067,95.27025
1.2661088,91.344154
1.1695652,89.9545
1.1964971,89.80199
1.0575153,84.8497
1.035059,86.68624
0.9609233,88.653145
0.9739213,88.18356
0.9446634,86.40252
0.92824084,84.81555
0.83184946,86.15884
0.814747,85.81639
0.8588457,83.8205
0.78749573,81.9693
0.7988241,84.305984
0.8698672,82.85233
0.7988581,81.712715
0.8069556,80.111694
0.7985653,79.3894
0.7357456,78.361244
0.69262695,75.16967
0.59177434,78.179886
0.61348873,78.839775
0.5107388,81.17386
0.44594765,79.42671
0.44995156,75.480576
0.40477884,76.958176
0.40817025,79.43565
0.3773729,81.20462
0.44665727,78.90513
0.46272412,81.798325
0.5001479,82.6289
0.6303394,84.911
0.5829672,83.82362
0.8023754,87.586624
0.8278992,86.8742
0.8230087,87.941864
1.0256196,90.07315
1.1375617,89.09106
1.2633852,93.709
1.3882576,94.57312
1.4023613,94.70345
1.4723786,96.20569
1.5329,97.6344
1.6224195,98.58891
1.6690294,98.8234
1.6933815,99.11945
1.7937831,101.70099
1.7275269,103.8265
1.69812,101.932976
1.7825937,107.37819
1.7387087,103.21835
1.7523602,104.36722
1.6852187,103.76557
1.7300295,103.157616
1.621147,103.563675
1.6713778,106.85205
1.591387,104.30586
1.5234947,100.69357
1.5377585,104.880806
1.4851373,102.138115
1.391298,102.56209
1.490423,103.73981
1.3393387,98.67852
1.3961768,100.519554
1.3570138,100.922714
1.2516369,96.99151
1.2094799,96.87985
1.2515929,96.90056
1.2657303,98.36985
1.1502986,97.37915
1.188022,98.22753
1.20136,97.89502
1.0835772,93.10103
1.0609088,94.10723
1.1221317,94.21053
1.0044562,92.88638
1.0635394,93.01646
0.979481,88.9433
0.8920412,86.4576
0.81734407,90.780754
0.704894,89.21093
0.7450842,86.709175
0.672099,85.740585
0.68358904,85.88753
0.5540724,85.56119
0.60755354,84.83103
0.6083717,83.448494
0.56978595,81.687004
0.58080184,81.4118
0.5315003,79.02329
0.51250523,80.44526
0.5634548,77.62036
0.5276805,77.63927
0.39762846,79.651535
0.4635954,78.53369
0.42437825,78.15744
0.41318268,77.43104
0.30606237,78.046326
0.26528323,79.61855
0.25341585,76.03792
0.3496278,79.76644
0.117331654,78.9223
0.1432834,79.72181
0.08210607,81.39173
0.093091,81.308945
0.11368976,81.776535
0.15145622,80.67688
0.17754371,79.87491
0.31438655,83.24902
0.32047865,85.065155
0.519487,85.58102
0.5718649,85.085846
0.70470613,89.50309
0.7836661,90.5201
0.8601566,87.397156
1.0058643,94.451324
1.0546494,90.2391
1.1100903,95.869225
1.2119818,93.39766
1.3175981,96.74198
1.4287347,98.552
1.4494716,100.858574
1.4571304,102.26941
1.4074602,98.72623
1.4236162,103.76971
1.5127108,103.63014
1.5190834,102.55973
1.4725641,101.0857
1.4323212,105.0441
1.4154483,102.89424
1.3993936,101.29862
1.4499086,104.68658
1.2794508,105.03994
1.2770933,104.016174
1.2891374,103.82106
1.2375777,103.86768
1.1496621,103.43777
1.194919,101.65115
1.1297256,103.79913
1.0742394,102.924706
1.1653357,100.8887
1.0676504,103.562035
1.0142236,99.591446
0.96599686,100.86578
0.9251255,95.36629
1.015543,94.93379
0.98634994,96.37361
0.95712614,96.54767
0.9204302,91.653015
0.89601326,92.59158
0.83811253,92.52182
0.844907,92.39096
0.76524013,90.73915
0.67605525,92.561264
0.707642,87.513054
0.61498475,90.00229
0.55751824,90.755745
0.5485442,86.23203
0.4703638,84.89431
0.43912455,85.20344
0.3826239,87.92123
0.4082254,85.45457
0.38568014,85.78253
0.26371533,83.27154
0.33256847,84.22376
0.34942636,79.371056
0.43169007,79.899895
0.27099097,81.791725
0.3728385,81.62191
0.24870476,78.66904
0.30119637,82.561356
0.22782274,79.84414
0.21529262,80.923676
0.20863624,77.85908
0.15122631,77.87813
0.13761203,75.69001
0.0639427,79.14717
0.038485475,78.34208
0.0038885723,82.23573
-0.0071088807,78.93796
-0.02759076,79.6077
-0.014685408,80.05265
-0.043499224,80.55842
0.028128307,80.673416
0.05051373,85.16228
0.2012437,85.55238
0.1928912,84.2258
0.4231625,85.47661
0.46461675,87.65734
0.58003116,90.74602
0.70159656,89.8158
0.86113006,93.56517
0.95723957,92.67411
1.0394831,95.04735
1.1145478,96.7809
1.0659219,97.482315
1.1524591,99.15831
1.2335643,100.79827
1.2344586,101.100586
1.3308733,103.58561
1.2747442,101.364624
1.3935614,102.682144
1.4334927,101.16257
1.3625463,100.17507
1.2949085,104.77588
1.3509969,103.91741
1.3337736,106.02004
1.3839257,104.46156
1.2295759,105.900444
1.2830579,105.329
1.253686,103.37499
1.1012435,104.091286
1.1361536,103.27848
1.1565174,102.54068
1.0751821,99.84066
1.0998561,100.51388
1.1095357,100.15795
1.0309399,101.71075
0.9791248,98.38196
0.8941093,97.42252
0.95222664,96.69014
0.8789953,98.54859
0.92185646,96.715836
0.8655801,94.73061
0.96416676,96.52868
0.9169962,94.29916
0.81387347,90.887
0.8756036,92.02467
0.7730123,89.2526
0.721667,92.74299
0.69819325,89.99878
0.6755125,91.325226
0.65559787,90.87891
0.5574721,86.21497
0.5341262,88.12531
0.4963101,84.22771
0.35725698,88.66718
0.38640708,87.25094
0.3915634,86.47482
0.34420007,83.85489
0.42187637,85.34417
0.35121122,80.31817
0.41693795,80.3481
0.51147544,78.53264
0.45253876,76.865204
0.40861967,79.10537
0.32920313,79.90718
0.37842545,81.09738
0.34020913,78.77302
0.25339893,75.69262
0.26297742,78.89083
0.14248867,78.154915
0.19729908,77.12044
0.0801295,77.72615
-0.012227193,78.74254
0.037523724,78.60643
0.020111157,78.08176
0.075784944,80.87514
0.07988143,79.861786
0.08846216,80.00715
0.1666371,81.85884
0.19717838,85.5685
0.40084484,83.53591
0.47383714,84.59694
0.5608782,89.727295
0.6720794,88.52738
0.7456372,91.620865
0.8628733,90.9417
1.0119281,92.55871
1.1283996,92.19924
1.0956513,96.03892
1.2095088,98.26243
1.3829339,98.489494
1.3760396,99.11633
1.3774049,99.84749
1.4505366,102.513855
1.4690815,101.76913
1.4763943,103.156456
1.5011438,103.76207
1.6094941,101.64483
1.4744419,105.87185
1.519223,104.662605
1.5023419,102.67485
1.5670246,105.44879
1.4942042,106.37556
1.5231861,102.25153
1.4025525,103.89563
1.3722072,105.70117
1.3320488,102.9526
1.3604915,99.155136
1.2679961,102.310555
1.2070953,102.37406
1.2134274,101.352356
1.2419304,99.615974
1.1772252,99.00518
1.1259212,95.430984
1.1203514,98.37031
1.1220218,93.497604
1.1111404,97.10998
1.0552593,97.59744
1.0630605,92.44136
1.0903436,93.51655
1.1104764,92.43755
1.0572108,97.01944
1.062087,91.936035
1.0536059,90.90245
0.9225154,88.975174
1.001815,92.39913
0.9161449,89.782936
0.8425441,89.23051
0.74312013,88.77459
0.8176415,88.065346
0.695226,88.44607
0.61081105,85.61691
0.7137542,85.58611
0.70804584,81.91884
0.595085,83.85803
0.5987053,84.38629
0.6014934,80.65144
0.6230135,81.41177
0.59832764,78.04294
0.67859626,79.618095
0.6559659,82.93877
0.60119444,79.713394
0.5903248,79.15356
0.6057655,80.03108
0.5163097,79.2515
0.517452,80.180824
0.36256787,81.27263
0.34695414,78.5814
0.34141278,80.85268
0.32859376,77.14706
0.348376,76.25597
0.3247392,82.50574
0.39257434,81.66603
0.35936436,78.849075
0.36712098,79.72696
0.3875304,85.37795
0.53486395,84.903824
0.61169696,86.09342
0.7951251,86.26757
0.864896,89.26259
1.0039189,89.96585
1.05682,93.866516
1.2311379,92.64613
1.314161,92.41159
1.4366531,95.63548
1.5198622,94.26972
1.5256063,93.79616
1.6245991,98.91364
1.7688782,99.09299
1.7379087,100.27462
1.7550813,103.548615
1.8452137,101.97592
1.7989328,102.433754
1.8280603,104.265205
1.7595339,103.36332
1.8295854,106.27654
1.8083003,105.31316
1.796397,103.13647
1.74421,103.59579
1.7124552,104.07407
1.6991391,102.42076
1.6863322,104.8181
1.6130321,104.08886
1.5955935,103.84771
1.5859035,103.81282
1.4809369,105.57085
1.5282916,103.1634
1.4153892,99.95324
1.4615183,98.90579
1.4982485,95.907455
1.4976199,95.5846
1.4129535,96.56924
1.4189205,95.09384
1.4804069,95.35964
1.459425,95.59582
1.3335735,92.24339
1.357945,94.73951
1.2916666,94.6911
1.3831652,93.1898
1.2642663,89.272285
1.2759768,94.21727
1.1803901,90.20588
1.2256641,86.7728
1.1849395,89.711815
1.1110831,90.76109
1.0479348,88.51228
0.9921207,85.92214
0.97545344,87.24612
0.9149722,90.221016
0.8842886,85.48539
0.93679535,83.23239
0.82824516,82.24784
0.99989015,81.31527
0.9181922,80.72246
0.8953565,79.24349
0.8773784,84.1744
0.8499177,81.92423
0.8302529,77.50601
0.82585806,80.71331
0.9011987,79.46787
0.7322242,76.65578
0.80287266,81.63217
0.6573771,78.37785
0.6503765,79.58645
0.53206784,79.57091
0.61895937,79.233765
0.51292545,81.97605
0.60489446,81.04455
0.5724448,85.09402
0.57872146,80.7447
0.5961068,85.08536
0.6425715,80.43393
0.7627394,84.03391
0.6884024,84.12651
0.9315074,88.66471
1.0695028,86.46964
1.1088605,86.73072
1.1687167,90.506966
1.3704623,90.40828
1.5197401,92.76877
1.5297886,92.67049
1.5877512,93.84373
1.7290217,95.55258
1.806987,97.14428
1.7966799,99.50299
1.8613014,97.503845
1.9360547,99.62515
1.9580078,106.29446
1.9405289,100.9711
1.9362562,103.87583
1.9193127,105.12441
1.9568422,103.7812
1.9172838,107.026115
2.031254,104.14634
1.9009558,106.73846
1.8779205,103.47489
1.8467649,103.93082
1.8288786,102.443016
1.8405427,103.80646
1.6910098,103.16053
1.8195754,101.71492
1.7963127,101.214615
1.5755858,103.183815
1.6837482,100.22453
1.5334296,100.09567
1.6053581,98.8771
1.5664971,98.45758
1.5450839,99.33525
1.4836581,98.627846
1.5225959,94.80274
1.4584286,93.42431
1.490095,93.95612
1.4559586,96.762184
1.4604996,94.386925
1.4632926,91.71888
1.3539721,92.61048
1.4151804,89.522835
1.2297307,91.45895
1.2621515,89.651695
1.1942655,91.59469
1.2831786,86.567825
1.0810251,89.11352
1.046679,89.56702
1.1423419,87.47736
0.9550316,86.71825
0.9152689,81.767365
0.9604319,87.30012
0.9692357,85.05564
0.8587238,84.311745
0.90228367,84.793564
0.9705576,81.87371
0.8537775,80.5189
0.8611414,83.860664
0.84263635,78.77306
0.9230822,79.8054
0.7751479,78.70864
0.78597647,79.67837
0.7569002,75.567635
0.7160988,75.108986
0.7374796,78.73389
0.62133443,76.81371
0.5442477,75.154686
0.5433085,78.600235
0.540679,80.53495
0.5553626,81.18562
0.54608566,81.8117
0.57604146,82.336174
0.5633107,82.56437
0.59106714,83.306984
0.7736643,80.0698
0.81928116,83.39454
0.89750534,85.91672
1.0285516,87.74474
1.0467452,87.730354
1.3120347,87.409485
1.2664127,92.5173
1.3667558,92.240974
1.5433697,94.119675
1.4850359,94.7721
1.6597477,97.46193
1.7080493,100.28681
1.731715,99.43084
1.7822244,100.546776
1.8378166,101.52123
1.8602184,98.93506
1.8283701,104.393425
1.8137004,104.58449
1.9379903,103.79187
1.789919,104.541794
1.7938514,103.32876
1.8612736,101.49148
1.8551897,103.469475
1.8019757,102.310104
1.8268143,102.86701
1.6801106,103.4532
1.6274261,103.95345
1.5745456,105.58469
1.5727625,101.71574
1.5436622,102.692856
1.5196213,103.498856
1.4673004,98.4022
1.5202991,100.072716
1.4022334,99.47881
1.3986735,100.747894
1.3994944,98.12352
1.2954868,95.80821
1.373632,96.43927
1.3041154,99.36091
1.3111632,96.447136
1.3172425,95.053116
1.3148088,94.26208
1.2312895,92.86324
1.2448496,88.92414
1.2158461,93.8103
1.0917513,87.66912
1.0928122,90.815445
1.0417327,92.928825
0.92472976,90.2765
0.9111679,88.02653
0.81483114,87.29814
0.77990764,85.882256
0.795087,83.463524
0.719723,81.62547
0.6570602,83.929535
0.7628845,83.32948
0.786927,80.08489
0.6491867,82.321815
0.71797645,80.34272
0.6595546,79.25704
0.6725533,79.98267
0.7003542,80.68645
0.56345856,78.55385
0.639629,77.617424
0.50343895,78.21814
0.4605167,76.807785
0.41121322,78.84955
0.46715137,75.62385
0.31406972,79.50025
0.3648597,80.38467
0.30272564,78.505165
0.274903,78.03319
0.35554153,80.064384
0.28598943,79.39024
0.29115245,82.30528
0.43835756,81.87019
0.41459137,84.38801
0.44680068,83.32438
0.6573793,87.53366
0.70225036,89.029465
0.8332639,85.29618
0.90541106,89.4825
1.0508901,90.549164
1.1442995,94.144196
1.1832561,93.725555
1.2528427,94.415
1.2472767,94.258385
1.4265704,96.605125
1.5192368,97.14958
1.5395684,101.251144
1.5237575,100.433914
1.5477575,100.831604
1.5509696,100.2913
1.5941615,101.47298
1.4759847,103.285934
1.6418642,102.73164
1.5545481,104.02734
1.628309,102.436165
1.4930648,106.46679
1.5752538,105.766464
1.5237298,101.90209
1.4588377,105.348785
1.3608717,103.72327
1.4252166,103.59475
1.3571695,102.92684
1.2706633,101.47713
1.2915416,97.68715
1.205378,102.521805
1.1476692,102.26251
1.1777633,95.293396
1.1820139,98.11488
1.1155672,98.12599
1.0831655,99.54386
1.0578598,94.60847
1.0126039,95.08584
1.0373644,98.64723
0.9989128,93.29977
0.9771876,91.0695
0.9899281,94.41034
0.9462042,94.77629
0.9342745,91.62849
0.8604074,90.61611
0.7637724,88.058784
0.7888691,86.84042
0.6728928,88.97552
0.67555714,89.741615
0.6307432,89.22408
0.5150307,86.89618
0.45415646,87.05126
0.46057263,85.49555
0.41601554,86.84202
0.5081769,82.78475
0.43304005,80.67914
0.3205247,81.13339
0.50078475,81.59502
0.3879087,78.80899
0.43462667,77.71942
0.42275855,81.31736
0.365218,81.468094
0.33699155,82.62768
0.35724032,77.93996
0.2467544,77.93231
0.19721448,78.791534
0.16342746,79.350975
0.09733655,77.233246
0.11238263,79.36384
0.09832024,78.70349
0.051638927,82.273
-0.007925539,79.84693
-0.0022992913,80.76583
0.08378972,79.27401
0.17284127,82.97441
0.08878752,85.550476
0.20006715,85.904884
0.27261648,86.28681
0.4681158,85.6077
0.5255025,87.87484
0.60443866,89.15587
0.7351656,87.667
0.8858744,91.114235
0.95384586,93.23026
1.0303097,96.926765
1.1044258,96.400276
1.1572946,96.846886
1.2995163,97.92281
1.3267142,98.048996
1.3609697,102.47668
1.297222,100.464554
1.3525125,102.09007
1.3540543,102.24995
1.4190768,103.16047
1.4020404,102.77939
1.309099,103.295944
1.3444309,103.53049
1.3323394,106.40241
1.3561519,102.77779
1.2823616,104.0739
1.3122054,102.47143
1.2644593,102.08311
1.2398605,105.48205
1.1394699,104.81677
1.1818678,104.11901
1.053717,98.716446
1.0355959,101.61869
1.0226172,100.289154
1.0443826,100.53692
0.8882813,99.247765
0.9190711,99.7742
1.0013081,98.29347
0.9329743,99.776245
0.9170946,95.86036
0.9124507,98.45985
0.8485014,94.605255
0.890775,92.571915
0.788566,94.319336
0.88115424,92.59574
0.7689591,92.447624
0.737967,90.928535
0.6698244,88.04714
0.73111993,88.93659
0.55308044,91.12439
0.57575876,87.3524
0.4498424,87.46228
0.43986225,83.88949
0.39166754,84.14427
0.33228907,85.72067
0.4131656,85.827484
0.35965377,83.098305
0.3635153,81.54153
0.26562044,84.46739
0.3764726,84.39638
0.31096363,82.05684
0.28735292,79.999825
0.3368965,81.97756
0.24829482,80.290474
0.2948241,79.408844
0.1941926,76.88203
0.2155592,80.655
0.16616236,78.12337
0.12207495,77.92369
0.106399454,77.6375
-0.008887602,76.25056
-0.023644289,78.55894
-0.000555008,78.65426
-0.0650003,81.35091
0.0021876355,79.942154
0.012626759,81.86935
-0.016247671,79.9479
0.0042474456,87.71652
0.13674676,85.39008
0.2062042,85.909485
0.33658245,84.257935
0.45453745,88.855576
0.50576276,86.545006
0.6857633,89.01507
0.77534795,90.12541
0.9046433,92.357605
1.0191514,91.62628
1.0943303,93.35071
1.207184,96.80268
1.1297619,97.78123
1.2281436,100.17442
1.2919552,98.435844
1.3000534,101.063934
1.4225996,103.35654
1.3946098,101.788
1.4317039,101.97676
1.418162,103.661255
1.404384,101.23369
1.4538122,105.13773
1.3743706,104.73244
1.3865901,103.91056
1.4797218,105.608734
1.2942513,104.15863
1.2822796,102.13122
1.283819,103.78455
1.1618505,103.84838
1.3023424,102.91541
1.1405162,103.23321
1.1226782,104.21774
1.1424139,99.848175
1.0415211,100.85667
0.9825173,101.96125
1.0906506,100.34773
1.0266731,98.901886
1.007419,95.92749
1.0027015,94.71025
1.0319179,99.60481
1.0465174,94.35134
0.9232085,92.37555
0.9431924,91.6011
0.9765977,93.012314
0.8982788,90.932976
0.81951475,90.270905
0.78342587,92.92754
0.74647987,90.6316
0.700897,92.193344
0.73258626,89.948456
0.63951284,89.57228
0.5617772,88.40882
0.540975,86.41089
0.5178912,85.15635
0.51843655,84.51821
0.49954572,87.36786
0.47908878,84.93391
0.50392026,82.59806
0.4782272,82.84895
0.47057343,79.62887
0.47864828,83.470894
0.46871057,80.44513
0.41486728,79.32357
0.4674823,79.9803
0.5355769,79.66564
0.4159161,79.0634
0.33836055,79.28923
0.33481207,81.96785
0.27024895,77.24236
0.27640948,80.22661
0.21509281,74.968285
0.20202237,77.05383
0.184937,80.314705
0.20178203,78.525314
0.12655081,78.86882
0.118960686,81.76644
0.19482778,82.08551
0.3092482,81.510635
0.3524548,87.1354
0.5508477,88.25272
0.6668356,84.16533
0.68258965,89.85856
0.76745975,88.882484
0.84162676,94.35667
1.0510924,92.60269
1.138524,90.40218
1.2211924,93.88706
1.387221,96.906
1.3905091,98.5693
1.3433036,99.16251
1.5139314,100.20892
1.5445305,96.56323
1.52427,100.475945
1.5231292,100.33943
1.6313221,101.21096
1.6832789,102.18922
1.6654155,103.12924
1.6894878,102.251785
1.7185986,104.2349
1.7081788,102.41162
1.5559528,102.899506
1.6911412,104.74552
1.6059258,104.0871
1.6437292,105.76489
1.5107042,101.2492
1.5458075,101.52435
1.4820219,102.28469
1.4055859,101.702705
1.4521517,103.94926
1.2945728,101.41424
1.3175362,98.025314
1.3510237,98.87004
1.3551911,97.161995
1.2471873,97.06629
1.3465962,95.51242
1.2966639,94.87631
1.2366819,95.71289
1.2139199,96.03764
1.1844401,94.25826
1.2400494,93.6296
1.1513568,91.201164
1.2114989,90.65124
1.1256987,90.22738
1.1538537,92.35597
1.0269098,91.354645
1.0158684,88.42187
0.9571178,88.07537
0.9093024,89.50465
0.78635836,87.43457
0.8018965,87.67337
0.80610013,84.22868
0.71753794,84.2696
0.75137365,85.01544
0.74215496,84.504776
0.78047454,84.32389
0.66372967,80.44349
0.7485653,81.40184
0.8047225,81.35469
0.7967106,77.96763
0.7221184,79.17933
0.6553581,81.18643
0.7074334,77.67201
0.7245322,77.31857
0.57577986,77.18007
0.521702,76.308586
0.4482125,81.32306
0.51761127,77.56656
0.4802207,77.38991
0.4058393,76.376114
0.41806638,81.140656
0.4758407,79.87714
0.41111284,81.978455
0.53765696,80.31555
0.51812685,81.54575
0.5426103,84.73262
0.6547894,86.189186
0.77507585,87.57373
0.9081988,84.588165
1.0469037,88.98764
1.1348954,90.657906
1.260059,89.447655
1.3712711,90.92779
1.4406035,91.878
1.5340471,96.30902
1.6254183,98.23012
1.6585276,101.06176
1.7226574,97.83806
1.8775166,100.10224
1.8782187,98.45528
1.8377272,103.232475
1.8879507,100.99411
1.9059287,102.81715
1.9032595,102.76044
1.9624037,100.04259
1.8811685,104.18602
1.9108405,102.41242
1.872589,103.935715
1.8783283,104.79206
1.8584028,103.08982
1.7657151,108.63841
1.7347987,105.314186
1.7254391,103.581184
1.7020652,102.32367
1.6992925,103.48207
1.6779296,105.86095
1.5949293,101.11073
1.5343219,100.592995
1.5152699,96.15531
1.5368779,99.593605
1.4085022,97.36218
1.4553798,96.2599
1.5019041,98.14654
1.485496,94.59666
1.4345067,95.25717
1.4934673,94.910866
1.4778788,94.971176
1.3494067,93.64633
1.3780979,96.371796
1.3478153,90.601204
1.3040732,91.042984
1.2695823,92.222824
1.142328,90.18553
1.1716266,88.35255
1.0797533,88.18744
1.0731208,88.10144
1.1204244,85.9234
1.0470513,86.048195
0.9936141,85.13061
1.0455272,84.09228
0.93282944,81.758194
0.8325279,82.32354
0.832541,82.178185
0.9828968,80.2313
0.92803496,82.43836
0.9223323,81.45774
0.9089255,79.15628
0.8432435,79.6313
0.8001793,79.21256
0.8718236,78.78541
0.84389484,76.10681
0.7791438,79.85003
0.7218811,77.15113
0.68495667,78.63733
0.5616489,78.012314
0.6022592,79.89929
0.6220242,77.26546
0.63089514,80.65615
0.6696895,80.53798
0.55690926,80.79352
0.6270262,79.825264
0.6724603,84.188385
0.7323316,80.40024
0.85990435,81.49351
0.96309215,87.62708
1.0648284,86.39635
1.1356992,89.35787
1.2568933,89.581085
1.391998,92.48604
1.4366008,92.033424
1.5708622,95.89141
1.6186616,94.45448
1.7698607,94.210396
1.8395233,99.98627
1.7903787,97.9246
1.8721834,97.02393
1.8969258,101.96609
1.9445106,100.95836
1.9300281,102.49514
2.0067875,103.331184
1.9509443,101.59529
1.9662689,100.14949
1.9689612,102.162315
1.9183146,105.06703
1.9843793,103.96875
1.8778957,101.546326
1.8571444,102.42783
1.8316687,105.06121
1.7985551,103.61868
1.7781268,104.27593
1.7401313,103.851364
1.7003435,101.73948
1.6115324,102.29918
1.6460484,101.18618
1.6097457,101.36839
1.5106901,98.816055
1.4147472,98.0607
1.527018,99.34115
1.4996519,100.02016
1.5454156,95.472984
1.4860375,95.89999
1.4879955,93.46514
1.4184375,95.19914
1.3988448,92.445274
1.3564644,90.80333
1.3290282,92.44387
1.3159763,93.34057
1.2440969,90.97764
1.2832289,91.176796
1.1954831,91.191956
1.0922437,87.09102
1.0124592,86.39568
0.96951187,86.551926
0.8966771,88.37893
0.96316975,85.036995
0.9305336,86.61648
0.9101773,86.10574
0.84598696,81.9301
0.8648374,80.49609
0.7991597,81.65483
0.901637,82.65778
0.8833529,76.4156
0.9228799,81.99319
0.80139804,81.47082
0.7599361,79.0905
0.68773097,76.97247
0.6306507,77.44653
0.6070653,78.963104
0.5915545,75.90925
0.5589904,79.46763
0.50807226,75.153885
0.4538288,81.12706
0.37274367,81.517365
0.38705114,79.25991
0.4230609,77.574776
0.47578767,82.046646
0.40313366,79.92013
0.50407887,86.55352
0.5566661,83.14131
0.6688968,81.52977
0.7724484,83.80403
0.8524489,87.36658
0.9883162,87.97253
1.039672,90.26693
1.2104537,86.43439
1.25493,92.988045
1.3867317,94.351776
1.4357839,95.8469
1.4545577,95.61015
1.5874819,97.928856
1.5690495,99.37067
1.6882498,97.0658
1.6984252,96.79345
1.7662026,100.87054
1.7515802,101.11497
1.7416129,105.26131
1.7180673,105.12442
1.7583511,103.9349
1.7897155,102.04427
1.7643793,107.98271
1.7340215,107.66031
1.746126,103.93683
1.6885728,104.51845
1.6442512,102.68698
1.6247001,104.32342
1.6028115,105.386406
1.4913329,100.83806
1.5401437,101.69926
1.4401842,101.41685
1.4297727,101.49664
1.3329397,98.891396
1.3366241,99.97259
1.208565,99.62325
1.2656431,96.55898
1.2652537,97.277916
1.2238567,94.8856
1.1985855,98.736786
1.2363864,96.46076
1.1980783,91.539345
1.2045537,93.839165
1.0789778,95.88948
1.141138,92.19177
0.98828983,91.74665
1.0336992,92.07031
0.96321315,93.78469
0.9438179,91.6032
0.9011212,91.01641
0.76892334,87.940544
0.7184132,87.752304
0.67105776,87.17037
0.6630369,87.777306
0.7070625,87.0005
0.5964175,86.227234
0.5997206,82.43256
0.59643704,81.761635
0.55579,80.32125
0.5249276,81.862595
0.59821546,82.27554
0.5149491,78.901985
0.58234817,78.61778
0.5111502,76.883766
0.5288685,79.61452
0.39814627,76.8545
0.4041898,78.64392
0.32407227,77.64801
0.33183774,78.8987
0.2940515,79.45804
0.24808012,76.86083
0.22638366,76.50741
0.25383165,79.68043
0.17035627,75.86884
0.122243315,81.17954
0.10209848,79.62855
0.18788385,82.05845
0.2105429,82.84135
0.37853485,82.84804
0.4322729,86.85027
0.47946376,85.661674
0.6261512,87.43552
0.7488077,85.36972
0.8609286,88.370705
0.8710756,88.79278
1.0226508,93.34773
1.1500798,97.285614
1.198438,97.613785
1.2542948,98.948425
1.396435,95.36107
1.3908722,96.43995
1.4134113,101.297516
1.5194328,103.95796
1.5139995,100.45659
1.4244306,101.8065
1.4400334,105.118164
1.4752518,105.26612
1.4232252,106.05422
1.4644523,101.98954
1.4227669,101.69632
1.3668647,103.46514
1.455988,106.40191
1.4316163,105.39714
1.3890042,102.58419
1.2767453,103.69356
1.3007112,99.644714
1.1849146,104.8045
1.2013651,102.31746
1.1951952,99.222
1.0630224,102.20137
1.0340922,96.82299
1.0679944,100.10269
1.025972,101.74404
1.0170915,98.67715
0.962375,99.03772
0.9571963,95.29466
0.9605761,97.45764
1.0172169,95.214584
0.8818306,90.49378
0.9246957,92.971146
0.8547267,92.72208
0.8510383,91.21108
0.81292236,89.45374
0.79014605,91.26795
0.71311706,90.37284
0.60145324,92.8331
0.6257318,87.141
0.57562345,89.37737
0.4979547,86.61849
0.45191038,86.53425
0.4327304,84.6924
0.42441928,84.540596
0.37070554,85.917046
0.2793378,82.9264
0.34069663,83.08262
0.3258989,81.63109
0.30963048,81.47267
0.34402353,82.17003
0.34065625,83.07545
0.35030702,80.182
0.339605,77.936295
0.28039545,79.29742
0.31225976,79.603935
0.18503205,73.58063
0.17780259,77.96437
0.112920366,78.29567
0.084157996,78.91961
0.050636657,74.985016
0.002503267,81.56265
-0.03897316,79.69419
-0.053847548,84.46584
0.019503305,79.48361
-0.016153468,81.55954
0.036360364,83.81381
0.081219256,81.68246
0.21808085,85.4955
0.22708257,88.46378
0.34985968,88.51274
0.545515,91.09548
0.66022795,89.96096
0.75887436,90.40881
0.8961852,91.684494
0.8729504,94.03418
1.0269653,96.62498
1.0246072,95.33856
1.1372705,95.18759
1.222311,95.05808
1.27849,101.3947
1.279362,95.81738
1.3326162,100.07594
1.4429798,106.09352
1.2813821,105.1308
1.4341786,101.21513
1.283867,103.68646
1.4150217,105.62083
1.2782389,104.43011
1.2665462,101.300934
1.3338964,105.30421
1.2684628,105.29298
1.2617445,105.09359
1.1580354,101.12579
1.2005816,104.363014
1.0815752,104.40594
1.1524868,101.48414
1.1349612,101.99063
1.068129,98.38665
1.0368592,99.83106
0.9981293,102.34919
0.9726425,98.50561
1.0269941,97.717735
0.9634878,97.44862
0.95250636,97.315125
0.9215707,97.802505
0.923969,96.32242
0.9346678,94.26688
0.8534705,95.138084
0.8741373,93.40483
0.7908138,92.280846
0.88303775,90.330536
0.71445864,89.04372
0.6773463,91.37419
0.722783,89.90991
0.5937785,88.964836
0.4763103,87.71968
0.5708927,90.22287
0.4375812,85.81921
0.38653594,85.69832
0.39389434,86.00809
0.36704192,85.72869
0.37063104,82.60638
0.36439607,82.5259
0.38473955,81.02248
0.4052444,84.074234
0.38395837,80.9835
0.3426886,79.61529
0.34623063,79.61457
0.30099916,75.526985
0.36966428,81.57022
0.30456188,81.22485
0.20715873,77.390335
0.21689649,81.42098
0.18846047,77.41821
0.166254,80.17315
0.07555756,79.79552
0.00337962,80.156906
0.014470423,78.51881
0.08252587,80.52174
0.04578469,79.48036
0.06216668,81.56043
0.048684355,82.54498
0.15739925,81.981094
0.15856005,86.55576
0.3294552,87.50158
0.3920576,86.304085
0.47674584,88.521065
0.693704,85.525055
0.76739407,91.486176
0.8770954,90.905846
0.9505883,92.2691
1.0467674,91.88593
1.2407504,96.06019
1.3178372,99.543144
1.3347073,99.93314
1.3422359,99.118286
1.3782679,102.623856
1.4618685,102.10169
1.4591103,99.035736
1.5475873,100.885345
1.4764552,105.86657
1.4821149,98.93755
1.4623842,103.78579
1.4732428,102.85181
1.5258405,105.72039
1.5051192,103.588326
1.4214084,104.56361
1.4000285,103.10635
1.4251375,101.47833
1.3710324,103.37567
1.3877238,103.007225
1.3058318,104.15566
1.2091211,102.475044
1.3878452,101.403465
1.2962518,99.67615
1.2531111,99.69145
1.1765352,98.8851
1.2174249,95.79937
1.0957632,100.21205
1.1859139,96.18854
1.192515,96.59992
1.1765976,93.378944
1.1261675,95.967384
1.129754,96.33413
1.0530664,93.069664
1.0709131,92.10352
1.0897636,94.085266
1.0427388,89.095985
0.9196511,91.8423
0.9627884,88.68363
0.8325493,90.32948
0.81495607,86.92782
0.7294031,88.25382
0.63424194,86.78375
0.6709856,84.186966
0.6506572,85.375435
0.59852123,84.73548
0.67647344,82.66704
0.6235375,83.98631
0.65153515,85.20395
0.619632,84.51068
0.6146951,83.09863
0.58835256,78.20589
0.62764865,81.20013
0.6203928,78.86969
0.6207402,81.03857
0.487434,74.44472
0.49116525,76.96727
0.47702694,78.20013
0.43499517,76.622604
0.43693528,81.268425
0.3358991,81.81593
0.35445938,82.51976
0.26782632,75.936295
0.3062088,79.2872
0.39779687,80.04212
0.35539278,83.04205
0.31691498,81.234634
0.40405604,83.587135
0.4527659,82.39925
0.5400448,83.012505
0.6881046,88.159775
0.7010232,88.68748
0.872894,85.77678
1.0002729,88.519325
1.0949296,90.784225
1.1570625,91.216835
1.2851804,92.627396
1.4406686,89.76713
1.4112993,95.309875
1.4759306,95.87158
1.618248,97.90134
1.6132389,97.650345
1.681231,100.68335
1.7919251,101.38139
1.8353088,98.85226
1.7826225,101.91273
1.7013074,101.82497
1.7925888,103.814804
1.7435931,107.18359
1.8215828,105.308334
1.8169291,101.37488
1.691549,103.50514
1.6944499,102.19764
1.707454,103.366196
1.7297559,103.04986
1.6584909,102.40327
1.6029874,105.17966
1.6165532,102.425865
1.5529287,98.925766
1.4850525,98.83181
1.4802935,100.82995
1.3931822,97.88852
1.438199,97.06213
1.4426508,101.07295
1.3573709,98.37344
1.3546625,97.48251
1.4079485,97.273605
1.3817334,95.7335
1.4005054,94.141884
1.3903822,93.33903
1.3453801,94.11589
1.3373009,93.620384
1.2829784,89.95116
1.2188504,92.1585
1.213941,87.64422
1.1527513,93.96158
1.1195799,88.27152
1.0411905,86.50528
1.0831957,87.27414
1.0163723,88.36837
0.93099135,86.85324
0.9270727,88.79576
0.90554494,82.404015
0.92894304,82.007835
0.86840516,83.74866
0.9391915,83.85343
0.940179,83.09396
0.8858815,82.15211
0.909468,83.114265
0.8673885,79.30706
0.829068,80.01035
0.8169259,77.55553
0.75560004,80.21242
0.7190419,79.935425
0.79358584,77.312
0.6436533,79.43364
0.60617685,77.813896
0.5633016,78.062805
0.4872076,77.869064
0.47210976,79.27646
0.57598037,80.93536
0.48008662,79.161934
0.5755267,78.47503
0.5573563,80.10382
0.6060205,80.59635
0.7101603,80.11424
0.7407576,85.35343
0.8635458,89.29734
0.9805931,85.54051
1.1035811,90.69761
1.2152706,91.96105
1.395833,89.72098
1.4198486,92.821304
1.56122,93.173645
1.6307567,96.54372
1.6586624,97.3967
1.7645665,98.37624
1.7967417,98.21819
1.8405399,100.51546
1.9050258,100.93513
1.9444244,103.50011
1.9119138,102.467
1.9779669,103.889496
1.9804579,103.17224
1.8945993,101.04314
2.0151238,103.990295
1.9052835,100.94967
1.8851846,106.53736
1.8775562,103.91488
1.7951981,104.42094
1.8349771,103.356804
1.7752193,104.084694
1.7015418,102.41997
1.7089208,106.37852
1.7155596,103.44076
1.7172554,100.86735
1.6021514,103.39515
1.5735995,98.12159
1.5386776,101.104095
1.5933813,98.09532
1.5175322,95.94291
1.526126,96.26422
1.5906855,97.13096
1.4658244,95.436905
1.4779445,95.63154
1.4575585,91.52904
1.3944268,93.99206
1.4835917,93.66631
1.3352082,91.04257
1.4615148,90.50856
1.3052146,90.75526
1.2319889,90.46888
1.1202596,89.45575
1.2407031,89.0324
1.1759838,85.15685
1.1306639,87.795364
0.9798603,86.01518
0.9872952,82.195755
1.0182705,84.09448
0.9660133,84.199814
0.9642368,85.35475
0.88322675,84.4178
0.9542131,83.845535
0.93434286,83.324455
0.9032929,82.968155
0.8657965,81.26122
0.9387694,78.12613
0.85456806,79.28612
0.77255714,80.14636
0.78020746,76.56853
0.7568118,80.36768
0.72629076,79.99015
0.6498486,75.38185
0.60458624,77.2451
0.5792165,78.14389
0.5778462,77.9779
0.4660046,80.8174
0.5213756,80.37049
0.556696,81.92601
0.5304045,82.08206
0.5688481,85.14599
0.6700164,81.37346
0.6952959,86.369026
0.78307384,83.679115
0.92716074,89.722496
1.0169427,87.7954
1.1401066,90.01005
1.1905701,92.206764
1.343616,93.480316
1.4455597,94.09949
1.5874084,93.60658
1.591592,97.34337
1.6775277,95.65735
1.7287294,100.98174
1.7504282,99.79453
1.8090632,102.974464
1.863868,101.256546
1.7787374,102.78076
1.8538654,102.241615
1.9048146,104.59185
1.8952527,102.98939
1.8799764,103.99207
1.8013326,103.78461
1.8440505,105.38716
1.8129321,104.82063
1.7944889,106.44376
1.7274529,102.12951
1.7816383,104.09224
1.7221514,105.49061
1.6337107,99.64408
1.6010932,102.72786
1.5666822,103.65361
1.5084623,102.35474
1.5374094,100.19978
1.4153949,99.07304
1.3899629,96.39847
1.3598554,99.486084
1.3325706,96.59388
1.4000968,96.91511
1.4165751,92.43789
1.3330657,96.70575
1.3733282,94.41082
1.3422493,91.664185
1.3391942,94.1717
1.2595642,92.278206
1.1307364,91.704796
1.1862242,90.21695
1.1301688,94.63962
1.063894,90.0551
1.0107193,87.23721
0.9579219,88.83107
0.882745,86.83347
0.90997,87.00063
0.87678,88.835526
0.6801001,84.28985
0.7678375,84.73953
0.7817644,84.82083
0.7494774,81.272995
0.69070977,83.28992
0.68037087,82.11877
0.7175011,81.59856
0.696622,80.51304
0.7238522,79.99323
0.67843616,79.1677
0.56952626,75.62253
0.651697,76.08506
0.5366319,81.046005
0.5796497,77.27167
0.51424724,77.97019
0.4652616,78.1092
0.40018094,78.81758
0.26634976,77.58524
0.3035473,78.218925
0.2497403,77.28013
0.30894333,79.98147
0.3039212,81.830574
0.35333666,80.515915
0.4155343,83.93593
0.48863953,82.49256
0.46663925,84.52214
0.63125664,86.94572
0.7410499,88.07766
0.83090967,89.39203
0.9297025,88.28834
1.0457327,89.561554
1.1802273,93.17883
1.2170777,92.97685
1.3283603,96.31832
1.3240715,93.49041
1.4119287,98.85237
1.4834697,100.43804
1.6020687,101.37082
1.5903469,101.42747
1.662665,102.2545
1.6280795,102.09151
1.6878217,103.37883
1.599678,103.85825
1.6609545,102.95729
1.6102298,105.58344
1.583505,103.09028
1.5606931,104.77022
1.535079,104.4682
1.4729195,104.665985
1.4897552,102.70546
1.4571565,102.92387
1.4179717,103.55356
1.3114487,104.54695
1.3266122,101.87171
1.2167662,99.99726
1.2323192,99.31136
1.169555,99.02417
1.1761216,99.77823
1.0836895,98.05858
1.1344155,97.820206
1.0045068,93.81651
1.0605049,96.20774
1.0707252,96.99002
1.0508846,96.75961
1.0009221,91.97746
1.068516,93.38457
1.032811,93.34569
0.9217144,96.02304
0.84368217,91.88209
0.8187805,93.07906
0.8189103,90.14469
0.7967679,89.79832
0.69850343,90.85788
0.7830194,88.5435
0.5901644,88.76086
0.58122766,86.81284
0.573428,85.39725
0.5232031,87.45214
0.46648726,84.72581
0.4631459,83.205124
0.51886255,83.19272
0.48253915,85.83169
0.42104942,81.04648
0.406763,80.11486
0.35057226,79.39571
0.42567682,80.69423
0.38006195,77.85629
0.3593026,79.50439
0.25036114,79.637146
0.33475402,77.42901
0.16887872,79.18637
0.22209175,79.2234
0.13682568,77.676384
0.11322612,79.06447
0.10195278,78.40166
-0.020781666,75.50266
0.058380682,79.533676
0.063076526,81.2606
-0.014859283,82.344025
0.08918586,82.58726
0.17043686,82.51743
0.30496675,82.141075
0.3207287,85.48409
0.44349566,88.37653
0.48488727,89.96611
0.6481925,90.679375
0.79354566,91.412544
0.86962277,91.673744
0.93686414,93.04186
1.0213152,93.90176
1.0947386,97.98955
1.1105467,98.00679
1.1916156,99.63867
1.2574604,98.481415
1.3140924,99.19963
1.3171715,99.87659
1.3969969,102.81702
1.3544221,100.06145
1.4381756,103.87445
1.4317107,102.50059
1.4236835,102.4175
1.3254082,103.291794
1.3468548,103.989365
1.3681862,103.581406
1.3102472,106.23051
1.2485677,102.795586
1.2658509,103.35153
1.2555648,102.05902
1.1579338,100.46335
1.1381513,101.72504
1.1723984,102.14089
1.0342411,102.84233
1.0445343,98.75536
1.0823996,100.20683
1.0541316,98.34831
0.9900853,98.683716
0.9518196,98.81935
0.91590136,96.07983
0.91421235,93.177765
1.0043204,96.766235
0.90939945,97.060776
0.88776255,94.83159
0.79970133,93.87902
0.8406168,90.29001
0.83163553,93.32288
0.7348408,90.63818
0.7083537,91.35347
0.6080484,89.91551
0.59538037,92.19299
0.64404744,86.31436
0.489749,90.92849
0.39413136,87.864815
0.42036712,87.74901
0.37197188,86.646576
0.35120434,80.53538
0.2853695,85.62752
0.27268693,81.66568
0.32226095,80.52812
0.33369198,80.09736
0.259034,81.66539
0.35083154,79.552475
0.3009901,82.10499
0.33762798,81.708046
0.31177473,77.51245
0.16305657,78.89952
0.17210941,77.836845
0.12768033,77.91083
0.08421212,77.8909
0.17182638,78.61983
0.010333157,77.4216
0.02221587,78.668564
-0.045104604,77.396034
-0.054003768,80.051315
-0.070958495,82.646614
-0.007887145,79.66837
-0.06608137,82.49177
0.074475914,81.48169
0.18175365,80.77539
0.19860929,84.25593
0.3246322,85.641106
0.46910894,84.18863
0.5156659,89.70538
0.61938626,91.643974
0.6905576,90.90807
0.92865556,94.37052
0.973943,94.285446
0.96372056,95.52851
1.1170982,96.44569
1.1687177,97.11781
1.2635211,99.07114
1.3547156,98.7115
1.3518913,98.025444
1.4119213,98.56362
1.3428828,103.972206
1.3840457,99.15879
1.4113784,101.955345
1.3630539,98.12547
1.4464128,106.55263
1.35108,105.433105
1.4002177,104.55001
1.3228523,104.082565
1.2947016,108.27136
1.3052217,107.71944
1.284975,102.78797
1.3014888,101.68927
1.2110258,100.45369
1.1852083,100.4157
1.0914868,100.69627
1.0531626,97.94446
1.0562345,99.70588
0.95690763,96.861626
0.9643947,98.290695
1.0045086,97.26145
1.0252395,98.23823
0.96581584,98.02439
0.94975954,96.78684
1.0256724,96.1287
1.0080837,93.23748
0.9501531,93.04068
0.939115,96.78359
0.89851254,93.2289
0.88364434,89.18166
0.7696872,91.37509
0.7925258,92.03747
0.73989445,90.37201
0.6131575,89.18415
0.67101437,85.929695
0.62695664,89.45681
0.5789734,85.01182
0.53884697,89.174805
0.48683232,84.74452
0.44570377,88.07525
0.49418777,85.180374
0.48108858,83.65603
0.40086913,83.75577
0.4865093,81.790695
0.5454766,82.362015
0.480054,78.4749
0.33877426,78.00496
0.36207798,79.089935
0.39174736,78.005745
0.4160581,81.56397
0.3489218,76.58613
0.277213,76.58714
0.37461394,82.30306
0.23007983,78.48517
0.18301824,78.17668
0.03569837,78.46164
0.10638032,80.4481
0.13167135,78.99497
0.14907011,80.79208
0.17915115,79.955124
0.19793276,79.2085
0.36346462,82.76931
0.44821915,86.62853
0.4313823,86.3778
0.5102655,87.8155
0.7082677,88.31651
0.7356224,87.91215
0.91387314,92.4134
0.93888766,96.366486
1.1171385,90.622025
1.2770013,97.07505
1.3115059,95.7743
1.4083654,96.32351
1.4681071,98.990326
1.4275497,97.13093
1.5302169,100.010345
1.5835334,100.32391
1.6441226,104.48448
1.6682426,103.039665
1.6202558,102.5574
1.6436712,102.65929
1.6306162,103.40377
1.6316879,101.24757
1.587845,106.56833
1.6249499,103.89968
1.6021448,105.15012
1.5857599,105.23672
1.5671144,102.55337
1.5122811,103.070724
1.4659721,100.71356
1.5200765,103.314735
1.4141695,105.67442
1.3796374,103.24039
1.361569,99.35097
1.3149762,101.37022
1.3820225,100.0257
1.3388224,98.18366
1.253204,97.758575
1.2508094,97.136024
1.2673687,95.38873
1.2492933,98.10099
1.2889708,93.436966
1.2328439,95.13486
1.2661484,90.862495
1.1887236,91.42295
1.1431469,92.66962
1.0553741,88.67821
1.0299242,88.026695
1.0791538,89.4851
1.0469835,86.88816
0.8949308,89.41026
0.8408417,86.1615
0.7935116,88.84321
0.79356223,87.03021
0.7742462,84.2353
0.74067545,83.868835
0.7269712,83.55605
0.71308374,84.09303
0.8528778,83.366516
0.69271827,79.639275
0.78909796,80.584206
0.73662037,80.39179
0.7809117,82.25324
0.7427886,77.58637
0.7212067,77.81274
0.6638935,78.09649
0.6595493,80.8693
0.5946769,75.478966
0.4928837,75.33013
0.54457337,77.84097
0.45362547,78.58461
0.44703418,78.21786
0.3961622,80.16038
0.34782597,79.21863
0.41305116,82.33608
0.33284467,80.59413
0.46385774,82.12424
0.53141135,81.975555
0.66802186,83.16387
0.5703141,84.33335
0.8017089,83.73993
0.8971887,89.58177
1.0615147,89.06775
1.1370379,93.97025
1.2435228,92.22874
1.3402314,90.719246
1.4177529,91.09224
1.5437571,95.19556
1.6686051,98.69011
1.6808698,101.26027
1.7356853,95.799736
1.7443225,98.60202
1.8298802,99.08164
1.857289,99.64138
1.8907027,102.429756
1.8187965,104.875336
1.9056479,106.15628
1.9329641,105.02672
1.8666725,101.665596
1.9494363,104.12385
1.8483163,101.6666
1.8378652,102.64599
1.7763002,106.75725
1.7982701,103.89418
1.8348691,104.0717
1.7140104,103.879166
1.7328076,99.95827
1.722167,100.8128
1.6101695,103.02303
1.5959098,102.347145
1.6181344,95.127594
1.5028358,99.95981
1.4492325,97.931915
1.4516062,100.02835
1.4759326,95.04748
1.4407998,96.67551
1.5153608,96.95424
1.4107436,91.256905
1.4110997,93.72477
1.4285374,94.26454
1.3722581,95.881935
1.3810475,91.760605
1.3665653,90.57449
1.2803206,90.68593
1.2433109,89.50705
1.2176338,89.41651
1.233487,90.08955
1.1446081,91.37971
1.0720683,85.16898
1.0367508,85.89073
1.0241381,86.638306
0.95211804,84.446724
0.8755733,82.96902
0.95646006,83.29205
0.8714247,84.75902
0.9197659,83.310745
0.8791204,83.19208
0.8717332,80.591354
0.9724244,78.38997
0.93275565,80.91653
0.8880707,82.09644
0.88437235,79.92429
0.9338329,78.83066
0.8505233,77.24513
0.75281036,76.551575
0.7282988,79.518265
0.6263184,78.153305
0.58403975,77.12915
0.5396191,81.98337
0.54614997,75.37638
0.50788826,81.70611
0.5528931,81.260506
0.62137383,78.21084
0.6371691,82.2773
0.6609256,84.045265
0.70145595,82.143326
0.8654296,84.37933
0.9481935,85.5667
1.0845741,85.48587
1.1793875,87.10964
1.2915634,88.28448
1.406137,91.47889
1.536943,96.11433
1.5844591,95.19327
1.6551651,96.87994
1.7648166,98.54477
1.8016309,96.793144
1.8214432,100.63098
1.9204679,99.58225
1.9380738,102.018715
1.8623484,103.49276
1.9236783,102.08871
1.9321517,104.685486
1.9444433,103.20879
1.953917,101.77207
1.9534357,104.21886
1.9006014,103.659805
1.917801,105.13128
1.8971249,102.533714
1.8297838,104.42055
1.7634338,102.57835
1.748303,104.868614
1.8165431,103.24984
1.7561531,99.1495
1.7603233,100.52347
1.7077456,102.88181
1.605894,99.70292
1.5589566,101.331566
1.4831333,98.309006
1.5367125,100.85986
1.5155727,98.04681
1.4222708,98.81937
1.4120927,93.77303
1.4573922,93.49881
1.5037627,94.92017
1.438007,93.898315
1.4185029,91.2113
1.367576,93.13318
1.3179795,92.02987
1.3214225,94.21943
1.215011,88.99764
1.1989787,88.33725
1.2135712,88.019485
1.0882932,87.99055
1.0707128,85.616165
0.9877068,89.24121
0.9758959,86.61021
0.90928924,86.432785
0.86232,85.24163
0.8370389,86.169464
0.81648624,83.46811
0.8762991,78.28368
0.8014884,82.07103
0.87169313,80.884476
0.8713233,83.526955
0.8408606,78.65368
0.8249338,78.98182
0.7564487,79.46814
0.75989836,85.260414
0.73979783,81.1149
0.6162853,79.843895
0.58877236,79.083664
0.57457775,79.199715
0.5339987,75.95816
0.5482962,77.77231
0.49855006,78.14648
0.5084542,82.17057
0.3540476,78.31417
0.5021998,82.05886
0.5135401,83.13827
0.6022962,79.575745
0.6294862,81.78098
0.69909996,87.338104
0.72507524,84.09414
0.87283295,89.84481
0.99893004,88.57954
1.1060238,88.58622
1.2250575,91.77132
1.1994073,91.989456
1.3773857,90.67818
1.5514898,95.247375
1.4846753,99.363914
1.6242833,96.949936
1.636876,98.87496
1.6835223,96.803116
1.7174008,102.603714
1.7124499,97.96878
1.7692744,102.98519
1.8606495,100.762634
1.8099096,101.1941
1.7890522,101.653206
1.7269088,103.86715
1.7950218,102.70677
1.7159091,105.67992
1.7935346,100.79346
1.6768018,105.72723
1.6456352,105.29249
1.5853621,101.845146
1.5400343,102.778915
1.5215638,105.14268
1.5130402,104.54305
1.4440422,101.92586
1.4308051,99.8066
1.2936108,101.25543
1.296135,99.85715
1.2946632,100.72644
1.3342957,99.21085
1.29123,98.72491
1.2080424,95.15256
1.2210859,94.26304
1.1863202,94.41902
1.2607257,92.46028
1.088758,97.09758
1.1261152,92.816185
1.1053782,91.524475
1.0759519,93.70053
1.0271298,90.095245
1.0486139,92.008316
0.9659736,92.26654
0.9292335,88.99269
0.8390876,88.38819
0.6862396,85.12964
0.7260801,87.334785
0.6884637,86.982376
0.67934734,83.900894
0.64571214,84.27318
0.5670773,85.55382
0.60752887,85.88607
0.5911779,81.53952
0.57730675,81.723854
0.5621469,81.88395
0.5529414,78.362
0.5274773,82.91084
0.55996495,82.51695
0.46861264,79.31856
0.44608825,77.90292
0.474674,77.57852
0.44946253,81.09216
0.33067822,79.017395
0.3081206,75.58205
0.30407232,79.29444
0.13620268,79.773
0.1743227,78.85479
0.13401148,80.654175
0.14244138,80.632935
0.12815066,79.31294
0.23396018,83.50654
0.30071172,83.24307
0.34963813,83.33447
0.49911603,85.613396
0.50712496,84.800606
0.59548056,88.689766
0.81671655,92.1025
0.82515097,92.406204
0.9878367,95.099144
1.0295731,95.312614
1.1262752,94.463036
1.2327362,97.526
1.344027,97.11778
1.3143766,97.041466
1.4221926,96.23771
1.5247318,99.500015
1.529236,100.59522
1.4350028,98.61817
1.4584111,103.14848
1.4673561,103.487274
1.4672226,106.75394
1.415705,104.61501
1.4949828,104.55759
1.4780054,104.45601
1.4052444,108.5347
1.4682478,106.03735
1.3292345,103.43825
1.3502445,102.35319
1.3246042,100.93813
1.3162767,105.3954
1.2631967,103.2033
1.184846,102.6895
1.1440789,101.51015
1.0982952,102.185265
1.1124035,97.36361
1.1285923,98.04047
1.0452446,98.45202
1.0128771,96.93507
1.033296,97.25709
0.9684619,96.35892
0.99757516,95.24126
1.0018605,96.706024
0.9309912,97.072495
0.9580959,93.63962
0.87185454,91.76757
0.90583545,91.078575
0.8381814,90.1214
0.7768753,90.24973
0.688387,89.49208
0.71690583,88.49565
0.6092089,89.278534
0.56506455,89.06958
0.47404125,83.85024
0.45766756,88.6103
0.47796997,82.07689
0.4672805,81.86962
0.2789451,82.56631
0.4095089,83.85707
0.3391858,79.59384
0.3853222,81.894035
0.48341215,79.78954
0.37944025,80.307304
0.42254615,79.11145
0.26733595,78.497025
0.23748142,79.04481
0.27649644,74.24504
0.3207556,77.00663
0.21694988,78.640976
0.11399886,77.880394
0.037029736,78.23542
-0.030823609,75.15584
0.067204,79.97343
-0.063158505,79.34367
-0.00023812156,80.678406
-0.045066267,80.64454
-0.017417919,80.39741
0.022002162,80.32291
0.038386736,81.501175
0.09535755,82.527916
0.22539707,84.92032
0.2839732,86.10018
0.40784,87.76849
0.495123,90.49941
0.60252833,94.05271
0.7424148,90.02504
0.7175718,93.1466
1.0304666,96.567276
0.9845271,93.12971
1.1243094,97.224915
1.2005483,100.38434
1.1797523,99.7697
1.2085329,100.678505
1.3287337,101.147545
1.2903042,102.04139
1.3418456,99.61954
1.289829,100.8011
1.3612006,100.08539
1.453964,107.403076
1.3250005,102.419586
1.3679528,106.10387
1.3300521,105.97444
1.3005514,102.21743
1.2508194,103.73957
1.2864915,103.23316
1.2288572,104.267845
1.2717268,103.08153
1.139856,104.21008
1.1844662,103.670334
1.0678474,102.144035
1.0566877,100.185295
1.0084407,101.94578
0.98394215,101.0299
0.9665473,99.0116
0.9358854,94.87443
0.9203341,95.95279
0.9087102,97.085266
0.90885603,97.17672
0.93298125,97.39485
0.8516071,90.607956
0.8438133,95.24412
0.8061603,93.48666
0.7511252,92.334595
0.80261403,90.73828
0.70874083,87.37723
0.76032877,91.863625
0.6324889,90.50815
0.58786875,87.2072
0.5268461,89.227585
0.47852173,84.12049
0.5546545,83.22799
0.4474621,85.094765
0.42551085,85.20897
0.3748401,85.48411
0.41929728,83.160515
0.32282177,82.86306
0.38005304,81.67066
0.35079607,81.64462
0.33670694,81.525154
0.35230795,82.04112
0.31763434,79.92225
0.28493246,79.3546
0.3766292,78.615425
0.2912794,79.21873
0.22458713,79.65187
0.15070985,77.16299
0.15642077,78.261925
0.15604313,79.229935
0.06989362,79.015305
0.007337149,79.51082
0.033878837,81.38572
0.046299003,79.82649
0.055292945,82.771164
0.054018985,82.119995
0.10765987,79.83339
0.13764766,84.390816
0.1659605,87.672554
0.27515966,83.68909
0.39365548,83.9604
0.481458,88.42271
0.67533743,89.48928
0.8177304,89.968864
0.81889296,92.27452
0.88371456,91.597694
1.0944222,95.61665
1.1540805,95.33792
1.1894455,96.24065
1.2609652,98.199646
1.3336284,98.413826
1.3969126,101.41294
1.4432669,103.43328
1.4387329,101.850296
1.492465,100.84023
1.4762032,102.28096
1.5534065,103.45229
1.4853287,103.93386
1.4916067,102.16865
1.5015326,103.40854
1.4675943,103.50021
1.3916038,103.004555
1.4789656,101.16197
1.3079947,103.07189
1.4158888,99.69652
1.255389,105.239685
1.2582124,103.00976
1.256693,104.55826
1.2247525,100.013535
1.2174865,98.06349
1.2239015,98.882545
1.0857936,99.77204
1.0940839,100.2994
1.162328,96.327705
1.1057403,96.26496
1.1152141,93.36627
1.1212962,100.1819
1.1046648,96.18352
1.0536728,93.983055
1.0313307,89.97536
1.1284424,93.235794
1.0068412,90.130714
0.9556592,91.136856
0.80979264,90.81335
0.9095223,90.131386
0.85155475,86.019714
0.7484973,90.905846
0.77512574,89.71049
0.72917235,88.17291
0.7032239,86.01508
0.6385554,86.45329
0.6361044,87.39284
0.64348483,82.55868
0.542732,84.28302
0.5392149,83.19476
0.5584226,79.55965
0.63218766,81.42544
0.6003208,79.91056
0.6379321,80.22461
0.5616067,80.147194
0.6163516,79.54443
0.5964601,78.97432
0.5300524,78.22187
0.46112013,78.24958
0.37191516,79.845314
0.35945028,73.515205
0.3453416,78.66747
0.37774488,79.85239
0.2592817,78.88997
0.28015158,78.1196
0.2833882,79.23848
0.30120057,82.53395
0.30539432,81.86721
0.34619346,83.15683
0.4496028,85.38486
0.54516584,83.92225
0.6086556,87.17298
0.7034814,84.73975
0.840119,88.67306
0.9968966,90.69202
1.1553687,88.511444
1.1864274,92.35271
1.2719048,96.148094
1.3858565,93.16024
1.380972,92.78643
1.5475711,94.99325
1.5969558,96.17136
1.5666157,100.441475
1.7084284,100.36632
1.7100166,101.98294
1.724349,103.17284
1.7090838,104.523125
1.8233709,104.63217
1.730106,103.64033
1.7787308,106.32917
1.7732577,104.56419
1.720826,104.107086
1.7370224,102.019196
1.7820121,104.54145
1.6892694,105.54519
1.670169,105.84653
1.5744839,99.285515
1.538823,103.76531
1.6090628,103.697655
1.4891837,101.1685
1.5092587,98.6735
1.4214009,98.27848
1.4301366,98.25431
1.3717023,98.59021
1.4151627,94.68745
1.3864279,97.3643
1.4791007,94.67973
1.3477181,96.24771
1.3983086,96.05809
1.3802917,94.249756
1.3620853,94.10488
1.344998,93.66242
1.2318082,96.696655
1.2172878,91.995735
1.2030407,90.13999
1.1140412,89.24169
1.1285217,88.17018
1.0808766,87.941635
1.0402819,89.38661
0.991191,87.476395
0.9057646,86.06332
0.90029526,85.95483
0.91221035,86.23099
0.89285564,87.46558
0.83214754,86.336235
0.8720427,82.98914
0.89032847,81.746994
0.8267243,85.00379
0.8223875,80.42412
0.80721015,81.51698
0.9020386,78.37798
0.8243667,79.28764
0.8424691,76.99487
0.80797786,78.23833
0.7955743,76.43078
0.61744326,79.25107
0.61080843,79.71287
0.67115754,82.22377
0.60217196,75.786606
0.4791304,80.70862
0.4850872,81.533646
0.53388757,80.09802
0.5216302,78.73263
0.50821674,82.97635
0.5698176,78.16282
0.72014034,83.86473
0.67465883,87.70858
0.7438394,83.3238
0.8718341,88.47503
1.0025561,87.92176
1.0836607,90.34214
1.2177536,89.710014
1.3717941,91.39568
1.4012715,91.399315
1.6222911,94.80485
1.5843859,98.29297
1.7518338,97.66141
1.7550747,94.89923
1.8163273,99.469574
1.9031712,99.894646
1.9417999,100.04147
1.9065589,101.516266
1.9549087,100.96174
1.9734613,104.68154
1.9508576,105.04087
1.9261537,102.30516
2.0365605,104.05996
1.9356059,104.82232
1.9373095,103.66002
1.8840762,99.600624
1.8361667,103.38776
1.8690021,103.261765
1.799684,103.63379
1.7170153,102.90606
1.7607734,102.83222
1.6822511,100.282326
1.7057084,99.94699
1.7296715,101.12917
1.5418897,99.709465
1.6070733,101.799286
1.5305941,99.41254
1.6110773,96.20863
1.5065495,95.4993
1.5231016,98.086525
1.5139767,97.67462
1.4601489,95.86941
1.5153551,93.59393
1.4651631,90.05351
1.423137,93.324066
1.4062581,93.18924
1.398651,94.363716
1.2692525,88.22722
1.2427647,90.74812
1.1391973,89.46765
1.1108032,87.896515
1.1212876,87.65294
1.1208224,90.192894
1.0313404,85.96424
0.9697523,86.486984
0.8754459,83.85373
0.98765844,85.146286
0.9810619,84.94123
0.9663491,82.888016
0.86446744,84.7416
0.85009116,77.12617
0.9060231,82.10146
0.92381454,81.47907
0.9161571,82.92756
0.9252564,82.10317
0.82174295,77.15361
0.8337775,81.127594
0.6963881,78.48095
0.6809223,77.94711
0.72000825,79.322464
0.57243866,76.07133
0.5858839,78.603165
0.5815383,77.494415
0.4597924,79.80858
0.40015885,80.19609
0.45893273,82.83378
0.5348118,80.90091
0.6161377,81.15269
0.67501897,83.21649
0.70240116,85.06982
0.8649599,86.198296
1.0390488,87.05671
1.0788054,91.13543
1.2229582,91.10763
1.2235622,91.15731
1.4838893,95.50092
1.541692,95.42709
1.4375461,91.67876
1.6401082,95.04381
1.7121575,94.85312
1.790805,98.65619
1.8234775,97.89327
1.8107752,100.01401
1.8791803,103.72007
1.8880781,101.255424
1.9508165,101.45388
1.940056,102.91632
1.9656975,109.03891
1.9691731,103.88458
1.8527147,103.60922
1.8440815,105.31404
1.8847446,104.50772
1.7764677,102.770676
1.8061402,104.43933
1.7923379,102.47568
1.7004983,103.16343
1.7081313,103.366936
1.5945415,102.13274
1.6000193,99.95308
1.5350677,100.288605
1.5685513,97.65813
1.5084426,100.29701
1.4203643,100.16172
1.4585546,99.426216
1.409187,99.80058
1.4066914,96.86479
1.3133862,93.46946
1.4178693,96.146645
1.3631939,93.337
1.2899147,91.59493
1.2898539,95.043106
1.2908208,89.92487
1.3025042,91.937675
1.2411332,89.9542
1.1828018,93.20584
1.1141837,86.1523
1.0651217,86.98244
0.9386829,85.62781
0.9460898,89.01689
0.940308,88.37523
0.776205,88.54156
0.7954445,84.18331
0.7690599,85.34297
0.7570214,83.44508
0.72239774,82.43184
0.8431537,84.9488
0.71239364,81.20022
0.619677,82.21778
0.6695315,81.40914
0.7017156,80.78622
0.7107555,79.55492
0.7063569,79.81173
0.61430734,75.85709
0.56810623,77.97546
0.5711157,75.96191
0.48000038,77.91884
0.3334379,77.57809
0.42178258,78.88236
0.38187253,75.45128
0.32289165,81.445724
0.35328674,78.64291
0.2896668,78.3876
0.27244657,80.6246
0.45117298,84.27769
0.4360085,84.47792
0.34228656,84.39202
0.56526387,83.40242
0.65154356,83.29865
0.7993363,87.39387
0.8837977,87.29942
0.9244107,87.21561
1.1136695,90.46652
1.2118568,92.39653
1.2645338,95.858284
1.3854189,97.773
1.4995885,99.79742
1.5005989,93.924545
1.5186188,99.01427
1.6274252,99.3951
1.5754977,104.01971
1.5716357,98.359795
1.6629215,103.4021
1.6441317,103.24527
1.5506291,105.195656
1.7028836,105.8782
1.5900364,105.4594
1.6018834,107.19479
1.6415473,104.502335
1.5399486,102.64094
1.6054059,104.61617
1.5696408,107.32167
1.4001793,105.04317
1.3796756,106.47426
1.3994032,103.63064
1.3712878,100.64943
1.2903202,102.89995
1.2396297,98.149826
1.1932989,101.1994
1.2351217,95.966805
1.2242795,98.902176
1.1040843,97.46409
1.1355215,95.93581
1.0613054,93.555756
1.1303616,94.81611
1.0401857,93.99715
1.1649419,93.98016
1.0482844,94.80452
1.0307587,91.45888
0.8827087,93.86491
0.9078781,92.21701
0.7829888,90.12007
0.83686596,87.48979
0.7784918,89.54618
0.6975612,93.0984
0.7237446,89.90028
0.64458436,88.2979
0.61503774,87.413124
0.5540276,87.471725
0.5940557,85.57913
0.5211297,86.06378
0.5425509,81.58367
0.4631278,80.46302
0.4405892,83.16476
0.43579373,75.71693
0.46798506,82.87121
0.42684755,83.17368
0.45955545,78.38685
0.3738171,78.08841
0.37247384,78.254745
0.32466775,77.93796
0.29913792,80.649414
0.29643136,79.398605
0.15779799,78.80182
0.12700725,73.53273
0.122318745,80.527725
0.019623887,77.41293
0.029662838,80.30814
0.07375087,77.252335
0.006941023,80.75038
0.09067487,78.89496
0.08509855,81.71599
0.14763436,85.025444
0.2089707,85.01658
0.41101202,84.02976
0.46153548,86.67128
0.5097079,86.67563
0.73129094,86.36174
0.7642364,92.840355
0.95857877,91.83687
0.9298309,91.11198
1.0494205,92.63297
1.1155765,97.570854
1.2463588,98.25852
1.2829325,95.55235
1.3088983,102.39602
1.3620039,103.013695
1.3647888,101.50283
1.3659244,104.70733
1.4486592,100.77074
1.4348024,103.18929
1.4050938,102.1106
1.3976508,104.75394
1.3713313,103.033356
1.3662486,105.68054
1.3263574,104.77743
1.2798326,105.21478
1.2724708,103.99508
1.3524894,104.776245
1.2735505,100.86806
1.1879038,103.85257
1.1008861,101.45434
1.0730845,99.87306
1.0517478,96.54413
1.0432184,98.38094
1.0676482,101.35993
0.9574523,97.81735
0.93742967,101.72822
1.0335352,94.67602
0.85086256,91.941025
0.94339615,97.77539
0.9262902,94.222244
0.89823943,95.55067
0.87359023,95.07665
0.9056934,94.46429
0.7798339,92.70715
0.8422046,93.575264
0.7894738,91.4709
0.72575307,90.89579
0.6439745,90.853676
0.58422935,89.32257
0.5496477,87.276115
0.5416798,89.75088
0.42256328,84.34299
0.36547017,86.57676
0.3818738,84.76479
0.33679456,84.09072
0.2840065,83.51684
0.2799335,85.884514
0.26587853,83.97109
0.38338724,80.74307
0.34535554,79.768486
0.16786984,83.97798
0.26747224,80.857956
0.29476365,82.518555
0.2875714,80.071976
0.18931603,76.72738
0.24119738,78.63647
0.22470476,77.805534
0.15598531,78.23464
0.11509483,78.110664
-0.021574082,78.41866
0.046269186,80.068085
-0.033735245,80.138725
0.0068441965,79.04561
-0.0070851143,79.593315
-0.048371203,81.59908
0.028374963,84.82738
-0.019389654,81.984764
0.11663733,83.36708
0.2626207,82.53691
0.38357243,87.531906
0.35050553,87.41503
0.6060205,90.000015
0.62691927,89.91086
0.7638914,92.0013
0.8934347,92.26546
1.0082674,93.48846
1.0235978,98.10988
1.0872813,96.43188
1.110714,94.131065
1.2115276,97.7784
1.2706615,101.540215
1.3523321,100.50653
1.4415946,103.49934
1.4610428,103.89648
1.406237,100.11885
1.395547,99.34055
1.4225267,104.25532
1.4683448,104.91088
1.379061,102.95356
1.4312884,104.58128
1.388763,103.68697
1.3042825,104.0552
1.2849288,106.132355
1.2677273,103.57694
1.188462,100.688225
1.2275394,101.4413
1.0892541,100.7714
1.0928736,101.33806
1.1602681,99.06991
1.1159703,98.929375
1.0465009,100.51371
0.94839776,97.04487
1.057028,98.76996
1.0493916,96.31543
1.0403085,94.9762
1.004047,96.85635
0.95078266,98.049355
1.0271988,92.599594
0.94519264,95.6734
0.88886136,94.014114
0.87066054,93.84137
0.86260164,92.78973
0.8860082,94.096275
0.7590399,92.36058
0.74340016,89.68129
0.6676871,88.62768
0.64870024,87.54568
0.55326647,86.502556
0.5237604,87.15343
0.43942845,85.5777
0.502397,86.294685
0.43741146,85.06403
0.43988904,85.126724
0.49312645,82.375946
0.4336937,79.83078
0.41213548,79.71425
0.45280597,78.086334
0.4471195,80.22061
0.3852415,80.21898
0.41924286,76.55536
0.42170775,79.51307
0.2893345,78.92457
0.38264868,76.6141
0.31392232,78.4554
0.33181253,78.35791
0.18862133,76.58274
0.08781144,76.34481
0.12784663,76.47494
0.11348978,80.84236
0.09466432,79.30241
0.14038326,80.540436
0.16233365,81.56212
0.17252792,82.720085
0.22474001,84.76421
0.26629704,88.52161
0.4910107,85.84699
0.54141855,85.443665
0.706412,87.31121
0.6716681,90.004326
0.9015247,86.56971
0.9949461,92.93823
1.1006774,91.88386
1.2417693,94.17351
1.3105825,95.78336
1.3781972,96.044876
1.3837839,99.1046
1.4943026,101.78695
1.5430728,102.0575
1.5378238,99.51392
1.5794625,100.06708
1.6544404,103.00157
1.566037,104.136024
1.6062241,103.20364
1.6202031,103.648544
1.6087556,105.49966
1.5511223,102.91489
1.5582055,104.931564
1.5739142,104.64596
1.5603652,102.24067
1.5405682,101.67149
1.4929632,106.419785
1.5534409,102.359856
1.3850956,101.65848
1.4287211,105.652176
1.331929,98.40179
1.317343,101.63063
1.3190508,99.89161
1.282265,100.50865
1.23273,95.74587
1.1722368,95.96014
1.2434669,96.14984
1.199698,96.14253
1.2452296,96.04108
1.1682725,94.941605
1.1155759,96.387665
1.2399848,93.95761
1.1826369,93.488266
1.1034213,91.59108
1.0954652,92.60376
1.088013,89.80411
1.0574108,88.35939
0.98278403,87.39541
0.9305254,87.295555
0.88364744,87.599556
0.83244866,84.647644
0.7839447,85.89287
0.77808946,82.76704
0.7265195,83.32086
0.79161835,81.02198
0.6777337,83.05858
0.74808824,84.67456
0.71798116,81.82513
0.6984487,82.22811
0.71963054,84.12579
0.7335283,79.88219
0.66865396,80.91384
0.57500976,82.29232
0.65283877,76.87841
0.6563047,77.77248
0.6098206,80.967766
0.60103774,78.535904
0.47597212,82.27997
0.49351794,78.7891
0.4365208,77.4309
0.363625,81.01124
0.393192,79.10143
0.36737782,78.29263
0.43997177,83.41718
0.4670324,79.42491
0.48917913,82.58658
0.51846814,81.994835
0.71577835,86.15925
0.84127957,84.56891
0.822849,90.188736
0.99711674,87.339615
1.1908554,91.271774
1.2874556,94.16136
1.3550539,93.23003
1.3904214,96.44106
1.5194969,92.73551
1.5616646,92.5211
1.6923114,98.5614
1.7308253,97.259056
1.6680732,98.30876
1.8175867,100.43964
1.7573572,102.79585
1.8135959,101.46813
1.7745502,100.00756
1.8638364,103.464096
1.828364,102.17682
1.8786851,106.45191
1.8243382,106.1229
1.913752,102.14876
1.9181556,105.971115
1.8385247,100.311806
1.7729993,104.2079
1.7282947,103.23754
1.6782022,103.429596
1.626969,100.566315
1.6719729,99.863235
1.5628687,101.742775
1.5912335,102.928406
1.5988325,103.69228
1.5046729,98.61994
1.5062492,98.561745
1.4995832,94.55415
1.4947956,95.58034
1.472882,94.77165
1.5139904,94.49319
1.4372623,96.32583
1.350686,95.15603
1.4575409,96.40252
1.5058194,94.594025
1.4237437,91.212654
1.3400316,92.23852
1.2139488,89.43334
1.2655032,91.74277
1.1619818,89.55818
1.1509311,88.33901
1.0871761,85.19184
0.9956043,88.15406
1.0583508,86.18253
0.98239094,87.090805
1.0223097,82.398094
0.98496085,82.35332
0.9232228,82.84378
0.9226222,82.79098
0.9265168,80.42947
0.87873244,82.91218
0.94671124,81.27542
0.9171775,80.1818
0.86984307,76.465034
0.9448653,81.32792
0.9341127,78.27749
0.81887,79.05311
0.79083544,79.55688
0.7529059,79.88271
0.7130998,80.88355
0.6605446,79.31685
0.50487477,80.11693
0.5544343,77.645744
0.49740773,80.26958
0.57942796,79.922615
0.51420057,79.37376
0.6236452,79.74579
0.5926878,80.942955
0.709833,83.335815
0.7334105,84.44113
0.8114217,84.020096
1.0083798,86.08366
1.064124,87.188286
1.2183229,89.79843
1.3319256,88.47525
1.4154679,91.17623
1.4143323,90.324196
1.5752602,94.066475
1.7246,93.61558
1.7661419,97.35538
1.7607807,99.177895
1.7727782,100.42103
1.9072298,100.6494
1.9890838,97.4667
1.8796597,102.32591
1.9223422,102.873
2.0038161,104.60586
1.9148543,103.909645
1.9352567,103.061874
2.0270646,103.938934
1.9341724,104.36411
1.8607914,106.49164
1.8692446,104.167465
1.8804685,104.34894
1.8359559,101.25775
1.7770536,104.69101
1.7489706,99.848114
1.6582626,99.48894
1.641863,98.66616
1.6334441,103.52869
1.5687193,101.76343
1.5985941,97.69736
1.5920882,99.81643
1.5410262,98.59444
1.5430902,100.44636
1.501059,96.24678
1.4067665,96.09362
1.490052,97.4054
1.4728152,96.19012
1.3774413,93.87561
1.3563485,93.63331
1.3879356,90.24584
1.3445737,93.71516
1.2575467,89.0095
1.25678,90.31216
1.2266203,90.772484
1.1960958,87.21898
1.1173921,87.69279
1.0161922,87.46593
0.960371,85.92147
0.9828883,85.3513
0.91929156,87.88787
0.89713496,83.519585
0.7954319,88.42595
0.939144,84.017075
0.9112915,80.45581
0.88055974,87.081635
0.864093,81.045334
0.88243556,79.93143
0.82848245,78.497734
0.83304095,77.4574
0.8464419,75.390015
0.743049,77.7586
0.74029326,81.50741
0.69137466,74.3492
0.63225144,79.07361
0.56519794,80.307434
0.53398055,80.31621
0.51050293,79.533066
0.45237204,77.99446
0.47174653,80.37397
0.4304745,82.58575
0.5452635,80.45491
0.47901988,79.28906
0.634229,81.7025
0.65322006,85.4742
0.71182466,84.125885
0.72253364,85.57507
0.8897227,85.58155
1.0056093,89.72819
1.0402641,86.07687
1.2211579,93.68305
1.4112176,92.47707
1.2981718,90.39071
1.4992132,97.19601
1.5199027,97.132225
1.5683839,96.93398
1.6372963,97.167145
1.7233948,100.53788
1.8066328,101.9236
1.7722815,98.08889
1.7304555,102.78839
1.7577218,105.08503
1.7317371,103.73319
1.8390203,102.84849
1.8588628,104.16836
1.7338947,103.318504
1.7610965,103.130066
1.7565447,104.73984
1.7311141,106.720695
1.6231136,100.834885
1.6530031,103.25834
1.6015946,102.52024
1.571165,102.21318
1.5035588,105.31094
1.4985675,102.707016
1.4033581,103.47619
1.3816496,101.117065
1.3071572,97.66806
1.3160195,99.77735
1.3383663,98.41849
1.2561244,92.75649
1.283609,97.18115
1.2548596,95.71538
1.2703415,96.64997
1.1679677,94.18846
1.2757982,94.53515
1.1691437,94.68531
1.159233,88.82174
1.1301436,93.06243
1.0382837,89.542336
0.96272254,91.7681
0.9641021,90.53395
0.88810813,90.5671
0.8542325,89.54808
0.8248415,85.09854
0.75139296,87.204704
0.7782851,86.01916
0.65986776,82.08726
0.58800143,82.88657
0.568806,82.395874
0.7380005,83.124054
0.6132589,85.72406
0.6169243,80.0092
0.60409045,80.94767
0.56043565,78.23951
0.6147857,77.841324
0.63120544,79.46843
0.48646167,80.849396
0.4849042,75.376945
0.44887403,77.33927
0.3245975,79.375114
0.37198454,75.348175
0.27302718,76.72391
0.19942217,77.79197
0.21103029,78.59092
0.1249598,82.75315
0.14076838,80.07755
0.2930498,81.62141
0.20673344,79.10615
0.21852256,82.168205
0.27762792,82.602745
0.40535045,82.95505
0.4886047,84.07925
0.5015506,84.81682
0.60965174,87.7788
0.7910477,85.774086
0.92448556,90.694664
0.97387844,92.20242
1.1198858,90.54616
1.1553041,95.418
1.2602304,97.8527
1.2635379,95.29142
1.3145455,96.9446
1.4198964,97.3463
1.4882356,98.83535
1.4525477,101.954735
1.5451627,103.7643
1.4554682,101.686806
1.5419124,106.79857
1.5191916,104.72327
1.5289011,105.23033
1.5504037,101.5705
1.5716641,103.346825
1.4274151,104.2257
1.3688061,104.74552
1.4161031,101.243866
1.3768046,99.924255
1.3503683,102.050735
1.3029548,101.295074
1.2999185,103.35001
1.2331725,104.44007
1.218278,101.55189
1.0378221,97.85206
1.1337078,97.52358
1.0184964,98.14659
1.0208666,96.859146
1.0551207,98.18577
0.9921432,99.631454
0.9832341,94.21839
1.0254936,93.95318
0.9233473,95.24698
0.9749703,94.41084
0.93193084,92.29893
0.87147886,91.13838
0.8602899,93.26723
0.8231451,90.157585
0.7302245,92.34338
0.64119536,93.16711
0.6598656,88.11096
0.6965517,88.143105
0.5349425,88.39224
0.4556921,86.90624
0.47854614,86.41524
0.47505736,83.60044
0.37492868,85.214386
0.3675046,83.30247
0.38287586,84.30998
0.3654343,82.16111
0.41029638,85.64508
0.4707031,79.81439
0.38575557,83.24982
0.40634236,81.26286
0.38374105,77.67844
0.26329467,79.124825
0.26211986,81.077866
0.22131808,74.53392
0.22819218,80.27883
0.08611698,74.98996
0.07615044,79.467834
0.027322438,78.45445
0.057201017,79.6774
-0.035264812,76.402885
-0.01022795,80.27256
0.016934598,80.32962
-0.030126302,82.5386
0.040347267,82.95323
0.057700105,84.86378
0.05665158,81.21474
0.18942867,82.7613
0.33993152,84.344894
0.4108828,86.437454
0.53059226,90.94442
0.627761,89.51835
0.73249996,88.39722
0.7841813,92.4919
0.9412972,94.23957
1.0147046,92.96567
1.127419,95.90774
1.1607187,98.6294
1.1707951,98.94236
1.2976955,100.08496
1.2960798,98.501175
1.2600273,100.53119
1.4149591,104.766815
1.3981991,101.17749
1.364291,104.57545
1.4052763,103.0595
1.3842661,102.72503
1.3615075,103.77933
1.2209555,104.12797
1.3458898,103.27494
1.3495193,103.70814
1.2674702,105.67996
1.2250311,100.91031
1.1857458,102.20281
1.139157,103.35127
1.0922328,101.351746
1.0678633,103.08817
1.054848,100.40264
1.0085151,101.36421
0.9647296,103.54042
0.97816724,97.04135
0.9621552,97.045525
0.9173425,95.57023
0.94447654,98.80649
0.938244,97.39331
0.95123255,96.92201
0.8751435,95.184364
0.8944641,93.50239
0.88487077,95.7539
0.77853006,93.32544
0.69052756,89.76544
0.724664,92.55298
0.7292798,90.86183
0.68252105,88.597626
0.5669545,89.28552
0.5417682,88.721825
0.47893173,88.251656
0.44523722,89.701744
0.48707655,84.46712
0.39711264,86.38075
0.35414034,82.532295
0.33300436,81.64002
0.38699076,81.112946
0.3378499,81.426125
0.33748204,80.4786
0.31388062,83.1422
0.40175426,78.1544
0.30839044,81.45559
0.354514,79.37413
0.26769668,79.286125
0.25927353,79.35603
0.20249385,79.24784
0.12748559,79.92666
0.08158669,78.50856
0.122149,80.991264
0.057674877,81.57614
0.038417503,78.880875
0.0364869,77.90982
0.008570391,81.83288
-0.052040137,81.50798
-0.00022807154,82.12579
0.12358284,82.84495
0.10373638,82.869835
0.22135237,88.475975
0.3545073,87.04994
0.39413843,88.57834
0.5280672,89.00907
0.59559244,90.50114
0.78606766,90.37122
0.79193205,90.2433
0.86560315,92.44079
1.030486,94.88088
1.1275237,94.301346
1.2817129,99.04723
1.3113157,98.60274
1.2993827,99.52707
1.4105113,103.13985
1.443819,101.76061
1.4133132,104.47927
1.4419926,101.71743
1.454828,102.67367
1.4970424,103.469154
1.4805346,102.941284
1.4215146,103.86245
1.471001,104.96763
1.5326935,105.44534
1.4464468,104.15565
1.4983605,101.475945
1.3371602,103.714134
1.327894,104.112656
1.3145704,101.72968
1.2487574,102.14507
1.3393589,104.74832
1.1495757,100.32338
1.1797891,101.26715
1.122765,98.72133
1.1006017,99.48243
1.0887598,95.256714
1.1097946,97.91586
1.1257155,96.812614
1.0707369,97.95001
1.113017,96.36121
1.0845743,91.319275
1.1013007,95.03072
1.0011098,93.73353
1.0100234,93.24565
0.944003,93.01122
0.93627894,91.16686
0.84533906,89.80513
0.9205392,91.04175
0.8599285,88.98217
0.77542907,87.69805
0.6604627,87.272644
0.7173859,88.9548
0.62733215,86.55859
0.5914579,82.72382
0.60453707,82.14952
0.54678965,84.15765
0.55848765,81.228424
0.58679295,80.53183
0.5473738,83.6738
0.5767853,81.843315
0.5407459,81.3769
0.5098384,79.50637
0.54468685,80.349144
0.57183826,79.19235
0.5119408,80.91132
0.5136051,78.98705
0.5203413,79.6658
0.34449103,77.98032
0.40527076,79.91776
0.28382477,77.49065
0.24755175,78.65962
0.24942344,78.68198
0.2786698,81.55981
0.2774321,79.466156
0.36511502,81.18628
0.3528838,80.56173
0.38143215,85.75408
0.41611308,85.91645
0.5502645,85.22063
0.6125669,84.75154
0.6949996,90.658554
0.7928526,92.04863
0.97294396,90.11516
1.1420568,87.94237
1.1169544,91.31985
1.2866861,94.47725
1.3131088,92.268684
1.4482484,97.51339
1.4575596,96.13526
1.6032578,101.22073
1.5610131,98.73825
1.673534,102.200005
1.6352208,100.4049
1.7145075,102.44484
1.7810704,105.401215
1.7887155,102.92797
1.7479302,103.90047
1.7070364,102.11923
1.7588794,104.36392
1.7840233,106.27355
1.6190597,106.294174
1.7416738,105.80233
1.7140086,105.13539
1.5911622,103.64094
1.6258249,103.180214
1.5708162,103.44643
1.5616466,102.25532
1.5127089,100.98146
1.4629802,100.3609
1.4421222,101.61637
1.397219,99.45537
1.3880471,100.020905
1.3128376,96.453224
1.4323586,97.15494
1.4073273,97.98538
1.32247,96.9944
1.3646384,94.54767
1.2979769,92.38766
1.3254374,91.99931
1.3047363,91.40538
1.2235337,91.886444
1.3146857,91.6809
1.2653142,91.13269
1.1480316,89.69767
1.079666,92.7825
1.1442868,87.72057
1.0299991,93.06641
0.9674817,85.46687
0.8798218,84.49307
0.910614,85.44397
0.9273838,86.71485
0.86326444,86.87202
0.80796796,79.84126
0.80946416,82.80893
0.8272883,78.234085
0.78054804,82.68966
0.8264828,82.61392
0.8300742,79.449234
0.8435451,82.74698
0.8057197,81.68722
0.8141435,80.10329
0.8167517,80.36922
0.7002442,81.40191
0.69430274,78.39325
0.62271357,79.02567
0.5876733,80.034546
0.58520615,78.43754
0.5037756,81.90223
0.48169008,81.604576
0.50402963,79.03955
0.44914094,81.29684
0.49037713,81.18994
0.5268942,83.62752
0.6203248,85.915184
0.67723787,85.699844
0.854554,87.22429
0.8667036,89.89456
0.9953857,86.51778
1.1296304,88.52464
1.2463851,90.27883
1.3174726,90.17608
1.4803505,93.026
1.4891068,92.46831
1.6630157,95.0593
1.7332251,98.84807
1.7366996,97.8566
1.8349922,100.44118
1.8109608,99.55624
1.9117397,103.59054
1.9001291,101.9747
1.9014264,102.37493
1.9054002,102.11717
1.9127545,101.084724
1.9898095,105.87712
1.9497291,103.40439
2.0129416,106.350006
1.9819745,106.335686
1.9226547,106.018005
1.9076238,103.08715
1.7984744,102.017624
1.7786485,103.03041
1.7457356,104.16779
1.7266217,101.97694
1.7145506,101.345894
1.6986322,99.32808
1.6722612,99.2486
1.5885754,100.98895
1.5251422,98.53311
1.5456455,99.93805
1.4432437,95.50112
1.4732285,96.771324
1.4638699,96.02522
1.4020203,94.37474
1.4676983,93.52891
1.5128586,95.325966
1.4202474,97.006096
1.3638965,92.30418
1.351714,91.55081
1.3928354,91.16969
1.3089985,90.498665
1.2989018,88.58066
1.2224745,88.479515
1.2066411,82.557556
1.1772966,87.47841
1.0856214,87.162926
1.0422151,84.16086
1.0071328,86.99202
1.0012764,85.93478
0.9232003,83.09061
0.96896243,83.19265
0.9435144,79.80872
0.89977264,84.640015
0.9095566,78.5733
0.9159184,80.52072
0.888232,78.65699
0.8658513,78.02075
0.9028545,77.84562
0.8142525,78.46981
0.8529236,79.35826
0.6870219,78.48164
0.717537,80.110855
0.6860871,78.1362
0.5648638,78.37444
0.5987507,77.156494
0.52973235,77.07505
0.5583435,79.0203
0.5103186,79.59323
0.49036703,83.23475
0.5814662,82.439026
0.60620576,82.12689
0.6782322,86.2754
0.68383354,82.312645
0.86266726,86.52429
0.9562179,87.01079
1.1332523,91.77552
1.1752373,90.4574
1.3121856,88.637054
1.392907,89.27103
1.5544729,92.9451
1.6000978,93.11434
1.6508876,96.05519
1.7384169,97.73181
1.8096628,99.496826
1.8219135,98.92106
1.8751202,100.87099
1.839446,100.51221
1.9233073,97.27394
1.9820487,103.76531
1.8970598,106.00779
1.9150397,103.08036
1.8613757,101.79725
1.9216799,106.42484
1.8955694,102.79191
1.7730792,103.13681
1.8460356,107.38505
1.8085723,103.920105
1.7146043,101.588036
1.6909107,104.62312
1.6325172,103.39814
1.6527295,100.03549
1.6066169,101.19638
1.5712874,99.51155
1.4981514,101.941345
1.4785786,98.47945
1.472719,96.012566
1.483051,97.06759
1.4039648,99.17168
1.3087565,98.15614
1.34542,93.8381
1.3877023,96.778305
1.4164648,93.44576
1.319688,92.225
1.2820858,94.37388
1.3421155,90.70625
1.2040204,93.34262
1.1864331,90.5258
1.1462286,89.23734
1.1161366,89.00459
1.0569199,89.53249
0.99399114,92.1207
0.97344065,86.10353
0.8644874,84.08661
0.8489778,86.243515
0.7645141,83.50982
0.7442978,85.17288
0.85891736,85.11329
0.6879621,82.29259
0.775026,81.44552
0.8371181,80.9524
0.8337928,81.30403
0.85946554,79.23916
0.68495864,78.06708
0.7349016,79.92222
0.674986,79.43276
0.6179765,76.011185
0.5763996,76.99322
0.59142023,79.58644
0.52679265,79.71841
0.3933968,77.27733
0.45717213,78.45709
0.32234377,80.97321
0.33196253,79.56422
0.3404554,80.51241
0.31213284,79.67291
0.34718075,80.09835
0.33065635,82.424194
0.4349842,84.68736
0.5040383,85.28233
0.5901426,84.563644
0.6686638,86.36903
0.7222568,87.45767
0.90168583,88.06595
1.0311427,91.518196
1.0850658,92.15409
1.300342,89.79484
1.2599801,97.48193
1.339693,96.7655
1.4876409,97.01963
1.4984179,97.479706
1.6075997,98.01723
1.6208023,103.940834
1.586405,99.45077
1.6441381,97.548294
1.5877113,104.806465
1.6046714,103.22376
1.6541469,104.90121
1.6599277,103.30641
1.6332195,104.621155
1.6254945,105.31171
1.6064678,104.71257
1.5594788,106.37575
1.5826333,105.82743
1.5856882,105.154724
1.5202562,99.98738
1.4593107,101.45286
1.4706382,100.7891
1.3251171,100.35724
1.2752357,100.98788
1.2949451,100.814514
1.2723033,101.08088
1.1168996,96.40744
1.2477156,98.87412
1.1525571,99.64704
1.1936561,95.53586
1.0797743,93.214264
1.1389769,94.61118
1.1097361,96.22489
0.98848814,94.834526
1.034732,88.66107
0.9825766,91.524734
0.92948365,91.117645
0.97445333,91.98834
0.9664815,89.590416
0.891922,90.36005
0.76233655,89.49719
0.72755593,86.3351
0.7112308,87.44222
0.70987326,84.69449
0.5941498,84.01999
0.5024198,85.982315
0.51050556,84.92522
0.567888,84.265015
0.50800455,83.7352
0.5354741,83.21522
0.4530891,80.45428
0.49810058,82.94668
0.44756478,80.10598
0.42264515,82.969215
0.44223413,79.352516
0.5086158,79.74368
0.4290344,80.037735
0.41730684,80.603165
0.34989107,77.08275
0.1834944,79.8379
0.17333968,80.277
0.059377056,82.27669
0.0979173,80.2602
0.08284638,76.04281
0.10880678,81.04718
0.075336635,79.583145
0.08712021,80.63262
0.061401952,80.168106
0.14854816,81.371185
0.17699872,83.52154
0.2536004,84.806274
0.3380296,86.57883
0.38353258,87.01737
0.6366163,88.74156
0.7592925,89.09111
0.7747081,91.9903
0.8552634,96.81709
0.9500157,91.95688
1.0188347,95.65368
1.166459,93.79242
1.1467073,96.11139
1.2361118,98.417114
1.3495203,101.50622
1.4227225,102.17232
1.4105569,102.12778
1.3763763,99.6427
1.4731077,104.17119
1.4385577,104.432495
1.4486407,100.2391
1.376833,103.54931
1.4635546,106.065216
1.3239563,102.80755
1.328862,104.585266
1.3322587,103.649155
1.3099447,105.86707
1.2131072,106.06056
1.2846586,104.22739
1.1893874,101.85486
1.1957185,98.440475
1.0617174,101.43861
1.105761,99.11092
1.068717,100.85785
1.0210887,100.70015
1.0106494,94.46361
0.9011405,99.19413
0.98944026,99.184845
0.916021,98.373856
0.8953053,95.309296
0.898609,96.18691
0.93215364,93.5219
0.8630131,95.24581
0.8747706,93.58922
0.7595198,92.100136
0.7747219,94.33095
0.74108744,91.427734
0.72910404,89.16548
0.688917,89.84789
0.57340866,88.158195
0.58076817,90.0083
0.4622255,88.25871
0.50798935,87.326744
0.43340808,86.48825
0.31335783,89.096
0.4120497,84.99296
0.26002026,85.013
0.33188424,86.4331
0.26967645,84.389565
0.3086074,80.79277
0.34898445,81.8963
0.34645495,81.09459
0.38395765,80.92945
0.2690961,77.971115
0.19063278,79.11488
0.23215556,78.37276
0.2252429,79.474304
0.06264619,80.230194
0.0897388,81.15164
0.11301475,77.85872
-0.0044807317,78.85211
0.0011619537,78.054665
0.012324145,77.90665
-0.0016673326,81.521706
-0.1341092,78.6197
-0.0037488942,81.72507
-0.0041788933,82.1727
0.086433165,81.81462
0.15860364,83.715935
0.27184802,87.118904
0.35557368,85.00187
0.41531438,87.01693
0.59155554,88.54663
0.6727902,91.87171
0.7496003,91.33691
0.83675647,94.59374
0.97537625,94.76638
1.0046637,94.39762
1.1481134,97.566284
1.1238105,98.96871
1.2129966,101.17108
1.3119949,102.48013
1.2870238,103.05183
1.4151405,102.469055
1.3897531,101.12916
1.3848419,101.19327
1.4409308,102.979355
1.3503083,102.95611
1.3576634,105.472046
1.4280165,104.4733
1.3211454,100.2628
1.2948488,105.51806
1.326442,105.90014
1.3163333,106.49181
1.1808113,104.99068
1.223429,100.92617
1.1272554,104.05034
1.2362875,102.637634
1.1033816,101.522224
1.1069942,100.47741
0.99138093,101.51923
1.06844,99.64797
0.9168739,97.40347
0.98808074,100.70066
0.86509246,95.60995
1.008006,96.56238
0.982592,95.36656
0.87350917,96.86737
0.9003215,93.91578
0.9747521,94.8751
0.90769106,94.67275
0.84590423,93.94218
0.84849596,91.59088
0.76864314,89.14988
0.78754616,90.36765
0.73453355,87.92358
0.6934767,87.73875
0.64658046,87.81152
0.5278317,86.55308
0.5542157,88.282776
0.49956113,85.403336
0.4560623,83.78679
0.4273002,84.621735
0.41387418,82.31239
0.43494588,81.39642
0.47107622,82.87146
0.42571795,81.74648
0.5255902,78.53823
0.3549833,79.52506
0.44055745,79.11992
0.43786573,78.824394
0.40099025,80.02725
0.3679169,81.90316
0.2893713,79.091736
0.29533246,75.407074
0.23304226,78.911934
0.20448494,80.972084
0.17150211,76.82393
0.19377477,77.89649
0.041108366,75.88173
0.09528182,81.75275
0.14699224,79.948105
0.17426601,83.76556
0.18810034,83.52297
0.2298619,81.4885
0.34315455,83.92397
0.5425835,87.33245
0.6176218,89.718994
0.6289591,88.157715
0.65489376,87.62761
0.83052725,90.16455
0.9780218,91.47152
1.1228017,94.76835
1.191571,94.14634
1.2999904,95.792
1.3662671,95.72746
1.4498141,96.49346
1.4506553,101.42969
1.5156256,99.300934
1.6287875,103.1612
1.5515258,98.719734
1.5729294,102.02353
1.5630815,103.52509
1.6432562,103.76619
1.6986172,107.10907
1.5876317,105.66709
1.5063515,104.69002
1.5251923,104.801254
1.6000024,104.25312
1.4953675,103.893906
1.4531842,101.26777
1.5298662,104.11117
1.360964,103.799355
1.4410897,102.4728
1.3410374,104.70035
1.2920173,102.866264
1.2823728,101.50731
1.2353728,97.82555
1.2204654,98.50268
1.2202404,100.25562
1.1806879,98.142334
1.195054,100.273254
1.2167639,97.1607
1.2164465,94.97687
1.180305,92.91142
1.1302379,92.0121
1.1368505,94.108376
1.1393638,91.77425
1.0247271,91.84697
0.951958,94.37122
0.9784671,90.49838
1.0004455,92.843376
0.9499151,87.11898
0.8811219,89.055885
0.86121255,87.148994
0.715567,87.49819
0.78691566,86.56534
0.6766961,87.40842
0.71070975,83.7771
0.66521513,86.38952
0.70805484,84.08253
0.6837389,79.337204
0.7337772,79.24008
0.64946556,80.39856
0.7185667,80.49641
0.7072841,80.20275
0.6366107,79.75334
0.70995647,83.9657
0.64700156,80.45865
0.5763946,77.98036
0.55495965,76.5008
0.47384635,78.92748
0.44108433,79.87894
0.5036637,76.84244
0.44364345,78.71456
0.39773095,79.921974
0.35518885,79.97426
0.3732316,79.51104
0.479329,80.50196
0.438517,80.788704
0.5491839,81.39285
0.5058494,82.18841
0.69157314,82.7592
0.75044733,87.182976
0.9278104,86.009514
0.945214,86.070915
1.1391983,87.303734
1.272688,90.61505
1.3451914,94.41609
1.3886864,93.60755
1.5335187,97.86331
1.5874703,95.41825
1.6750737,97.62615
1.6885753,101.15636
1.8143979,101.196625
1.865552,100.30675
1.7864629,102.576454
1.8464578,103.03051
1.9225899,103.59194
1.8641294,102.26636
1.888489,103.28787
1.8864858,102.0597
1.8514142,106.269356
1.8740801,104.82528
1.8580384,104.470314
1.7649943,102.76029
1.7964057,102.62402
1.7641371,104.64479
1.706105,103.808334
1.7014304,100.632385
1.6105901,100.49453
1.5095042,100.22644
1.5332621,99.26406
1.5035217,101.97165
1.6017653,100.482056
1.4900641,97.894104
1.4607394,97.99718
1.5036608,98.3928
1.4949073,97.44835
1.4328066,95.54326
1.4858043,95.496315
1.4771965,95.854485
1.3899294,94.56502
1.3707994,95.5001
1.3605651,93.889984
1.3400346,94.18853
1.2220074,91.76595
1.2475418,89.12118
1.2297158,90.009796
1.1452141,87.222206
1.1131035,88.4209
0.9587381,88.72122
1.0429574,84.36273
0.94903374,86.48665
0.9543958,85.335396
0.8753709,82.73974
0.917139,82.589035
0.91558415,82.24822
0.89604753,83.65961
0.92723465,81.993416
0.9502475,82.61787
0.8657056,81.37468
0.86283964,78.986786
0.90618056,76.72167
0.91124344,78.58015
0.85475445,79.17422
0.72072136,77.88661
0.68024516,79.39485
0.69057703,78.74184
0.6738922,77.35868
0.6184898,77.47448
0.48576504,81.172325
0.5169235,78.337234
0.58912146,81.244705
0.5142324,79.49693
0.62537426,83.60216
