ppg,abp
1.0066656,98.43621
1.116467,96.84368
1.2180462,101.019165
1.205856,98.74612
1.2702097,99.407585
1.3417779,100.77397
1.4184873,104.990295
1.4482555,105.46476
1.4423962,101.547905
1.4585135,104.19952
1.5219069,106.62276
1.5952055,108.95814
1.5425076,107.06062
1.6234493,108.536064
1.7591345,105.10322
1.7318599,108.4914
1.7589004,109.38747
1.7375557,106.76318
1.7354336,107.11524
1.6254505,109.01403
1.6897243,107.56756
1.8175797,107.40036
1.7019585,108.26584
1.791902,109.47551
1.7291453,112.71584
1.7137438,110.34798
1.7705226,104.911705
1.8122452,110.95159
1.7203982,111.338196
1.7135874,110.69178
1.7069339,107.431885
1.7483089,106.36735
1.7754799,111.24518
1.7618465,109.13649
1.7387916,110.95365
1.6115427,109.97478
1.7485846,109.062775
1.6395655,108.31079
1.6339711,110.77265
1.6277223,111.14343
1.5826336,113.09174
1.5510963,106.662704
1.5702801,107.968704
1.5773195,104.477196
1.4817594,107.06343
1.4401311,105.027664
1.4978346,110.56396
1.4180487,106.49772
1.4679013,105.49876
1.4933093,106.742035
1.2780249,106.10922
1.3865023,105.62893
1.398709,108.72793
1.5781496,106.676544
1.4946914,103.07257
1.4265469,106.071465
1.2596478,109.41784
1.3913363,105.33282
1.3912263,99.12819
1.3463364,104.977
1.4436358,102.46644
1.4607933,103.60653
1.38736,103.28514
1.2823522,99.47121
1.3753757,102.90663
1.3544022,101.779335
1.322203,96.71473
1.4012089,99.307846
1.26396,103.11482
1.3832976,100.626945
1.1891946,98.31655
1.1830258,99.90174
1.2365433,96.59783
1.1284852,95.082855
1.1342782,98.64079
1.1196293,96.10277
1.0330145,95.67503
1.038135,96.3962
1.0363798,96.422165
1.003347,96.043304
0.924859,93.45305
0.95643944,95.21156
0.9541127,94.80868
0.9311715,93.21135
0.8282143,94.81762
0.84955215,92.808495
0.9262503,89.92343
0.88461363,91.27768
0.9303532,94.28172
0.95116866,93.52452
0.9319848,95.882965
0.922642,93.32704
0.9285971,90.42557
0.8427461,91.961235
0.8331802,88.90064
0.95670587,89.19986
0.86548716,87.9378
0.86332494,93.145775
0.8740821,91.227196
0.8085705,89.59142
0.89260185,89.47881
0.9197746,86.90313
0.8951814,91.18128
0.85357255,89.696075
0.8505243,90.687164
0.8302083,90.4237
0.6581572,91.82473
0.8625049,88.47342
0.6757717,91.020615
0.7532632,88.0813
0.6335616,88.415115
0.61347413,90.211586
0.6321893,91.383934
0.5710414,91.83604
0.59628,88.79342
0.56573325,87.42991
0.6038885,87.672264
0.5227081,89.507904
0.50053173,89.38615
0.59757847,88.56202
0.49567032,95.208786
0.59466696,93.02749
0.70590425,93.76004
0.65173537,92.96873
0.6702823,88.7895
0.64555657,96.773254
0.7781865,90.98514
0.7883544,92.00454
0.8594407,92.88597
0.89852846,98.1302
0.94975924,94.78693
1.1072371,97.0974
1.0927459,95.16065
1.1630975,95.585304
1.283033,98.69266
1.2850392,101.41565
1.3193314,99.43636
1.3554105,101.14417
1.4515857,100.48208
1.4782091,97.33277
1.6078562,104.10605
1.5773458,103.09903
1.6938068,100.70049
1.770735,100.445885
1.7412181,105.0954
1.7387166,103.073
1.8654474,101.14119
1.8323302,104.70562
1.7591021,105.91441
1.9532536,107.16678
1.8914138,108.45159
1.9054163,108.484604
1.809239,108.150925
1.8777266,109.17561
1.9430382,104.94062
1.9947934,107.22198
1.9902388,109.53237
1.9546411,109.80982
1.9657049,110.33947
1.9139123,108.763504
1.9486829,106.117195
2.0005403,108.3863
1.9442006,107.94093
1.9070297,108.02633
1.9289691,113.881035
1.8518277,109.95302
1.8481526,108.40645
1.909728,110.41248
1.9010907,108.0525
1.8354651,112.63212
1.8454148,112.17674
1.7573822,109.20261
1.7471362,109.08996
1.8347493,106.71093
1.7660965,110.12815
1.6748316,109.26976
1.6729703,107.484795
1.6838913,108.51016
1.5955011,107.29295
1.6147789,111.31014
1.5705518,110.07247
1.5636196,107.45742
1.5819716,105.1389
1.5974361,106.044174
1.5177324,104.88243
1.4867091,106.69669
1.4953794,101.44313
1.4777702,103.26721
1.5122666,104.3544
1.4451439,103.36584
1.309517,104.02974
1.3914906,103.8967
1.4057823,105.558365
1.3985751,101.25785
1.3636119,103.107414
1.4021643,104.19747
1.3991839,101.95931
1.3528405,102.13174
1.2755966,100.158005
1.2506006,102.037575
1.279345,100.75023
1.1710176,101.53738
1.218908,97.9831
1.2515261,100.52729
1.2380491,100.79157
1.1988125,101.53855
1.2357882,95.87131
1.2139305,101.69543
1.0600725,98.51079
1.0564718,98.746666
1.0393757,95.63254
1.0410843,97.78236
0.9509119,98.615265
1.0360461,97.71044
0.9320753,96.68734
0.83353347,97.20068
0.92867404,95.84536
0.73327726,95.37244
0.72226423,94.60225
0.8049008,94.131096
0.69521636,95.22935
0.80790675,94.35516
0.7177663,93.937325
0.69092804,91.95107
0.67690873,89.49777
0.7631856,91.18726
0.80031514,97.737175
0.68730694,92.4413
0.7813124,88.46184
0.75939196,93.683624
0.7556754,87.512314
0.72221875,96.592186
0.70717853,92.37947
0.70785356,89.6774
0.6649211,87.647064
0.6626954,90.49448
0.5979301,90.966095
0.61437684,94.8044
0.46366534,89.71967
0.6378344,86.47125
0.7162654,93.20101
0.50313246,89.95682
0.5355905,91.59581
0.5329309,86.599335
0.46077728,87.946754
0.39823768,90.181366
0.44835815,87.07836
0.33211598,89.44585
0.22175932,91.48125
0.3320307,90.24358
0.19857182,88.17923
0.30211672,87.6112
0.29879618,89.75681
0.24330798,87.450676
0.21073529,86.53635
0.14267783,91.38573
0.28142893,89.95841
0.23412085,93.28418
0.27722123,93.86262
0.22919728,91.62194
0.20849006,96.96975
0.3546237,88.89608
0.344169,93.27192
0.402267,93.271706
0.4839313,99.639854
0.5417626,98.67659
0.6563733,93.85026
0.62183523,94.94972
0.6916919,98.21925
0.8665992,94.55797
0.8004358,97.5916
0.9356221,100.34013
0.9098769,100.204994
0.99238014,101.100716
1.1042932,96.743454
1.0561382,98.2157
1.1375976,102.61538
1.2263534,100.48343
1.2978895,103.65834
1.07922,104.375565
1.2846746,105.222946
1.3419012,105.45717
1.3321013,105.41842
1.403349,100.697395
1.4255477,106.12596
1.4145977,102.24635
1.426837,105.68905
1.4471222,106.31816
1.4915774,107.70203
1.3778497,112.3611
1.4105511,106.425514
1.4852061,105.4149
1.532129,107.09725
1.5787243,111.785034
1.4572183,111.05489
1.5361228,109.93654
1.5740314,112.35269
1.4939166,113.252396
1.554299,108.23377
1.529279,109.96732
1.3681318,107.99291
1.4303018,109.06062
1.5489225,107.762146
1.4170321,107.971596
1.3921701,109.45689
1.3490417,108.39905
1.4089856,105.22693
1.4161645,111.66445
1.2274672,112.573944
1.274581,108.81702
1.2537915,105.55941
1.2009747,106.445244
1.2420548,104.497536
1.2236427,105.97652
1.2071677,107.561066
1.17267,107.94618
1.0930551,107.47583
1.081315,110.43445
1.1154615,107.57764
1.0543734,103.47261
1.1522186,108.94531
0.96946615,106.292816
1.0081712,105.19475
1.0245069,106.90293
0.94690007,105.39699
0.99996656,104.230835
0.99344724,102.36595
1.0524707,103.3683
0.9448065,107.60068
0.9718427,102.12604
0.94374096,102.17966
0.9160144,104.39029
0.9809708,103.85818
0.91012925,101.236916
0.885185,102.78629
0.8908745,100.930664
0.8146655,100.46359
0.8165722,97.05153
0.9041395,100.72749
0.8710651,100.21393
0.8184603,99.378395
0.7836228,102.38428
0.7063503,98.31849
0.7568398,94.90227
0.61573917,101.92605
0.6507486,102.04589
0.4972953,101.59817
0.6409764,96.71549
0.62131673,96.239
0.5291397,95.91038
0.48111954,95.72558
0.4997304,93.70945
0.48260936,94.025986
0.493972,95.012054
0.38963908,96.60883
0.42046905,94.75477
0.4471874,88.402504
0.37761754,96.89147
0.32089686,93.2808
0.38527733,92.35382
0.36069968,93.41778
0.33870602,90.145226
0.36022747,91.39744
0.29125172,93.633446
0.34457627,88.593864
0.2763366,94.049866
0.33394605,91.90559
0.47847947,90.775085
0.34271058,92.259964
0.2728616,90.3737
0.29488617,92.93536
0.3304658,92.74031
0.3458682,90.19052
0.3203367,90.437386
0.16650952,89.488914
0.29363653,89.82421
0.23200116,89.77821
0.26377857,87.98581
0.1985499,87.340385
0.1894679,86.21446
0.18104681,87.63473
0.08361856,91.09716
0.10956476,92.66467
0.008907096,88.51313
0.0074787685,91.77912
-0.07153752,89.036125
-0.11694651,89.8357
0.05612277,90.95694
-0.10177985,87.05093
0.025642969,89.29278
-0.12739919,89.02984
-0.061470006,90.58014
-0.013352386,93.05686
0.010632181,91.083244
-0.036954295,89.86755
0.074463904,92.72695
0.040314704,93.70707
0.10447458,92.34661
0.145415,92.36315
0.18869264,92.96847
0.24322502,97.13699
0.29057896,91.35835
0.29913375,98.31101
0.34617263,97.156555
0.39492762,96.84993
0.56764317,98.508835
0.6805741,97.428894
0.56943977,95.05667
0.85771614,97.89678
0.82438743,100.01254
0.76844835,98.95005
0.83090186,102.16737
0.9678021,100.99645
0.9951537,100.22916
1.0379096,101.84825
1.1275201,104.19275
1.1064056,104.60736
1.1429946,102.17009
1.2323813,103.59256
1.3080715,104.7144
1.3451021,104.75175
1.2559402,106.958885
1.3522234,105.48896
1.3445281,104.25871
1.3863939,107.214325
1.3401932,112.06233
1.4337618,109.79233
1.3781595,112.46009
1.404692,106.194595
1.4420925,103.92809
1.4299003,107.14036
1.4408985,108.42745
1.3987819,112.45311
1.4116395,110.106094
1.364266,111.48469
1.3605787,109.71205
1.4937013,109.36673
1.4309584,110.51405
1.4315404,109.22798
1.4872836,108.15197
1.2912163,113.78485
1.3373526,110.573074
1.3849858,110.81069
1.3234379,111.63045
1.3492693,110.28089
1.2614255,110.05437
1.3484893,107.829346
1.3632158,109.600845
1.1925453,108.586266
1.2828571,106.69296
1.234229,105.429855
1.2244021,107.075066
1.2357938,106.37727
1.1312646,108.84031
1.2129773,108.293465
1.1113465,104.728325
1.1377772,107.58684
1.1614001,107.11515
1.1473255,109.08806
0.988591,102.681076
1.056186,104.20717
1.1353691,103.27224
1.074142,105.7597
1.1227573,105.972435
1.0608699,105.48102
0.96043795,105.86098
1.0977222,103.40432
1.106224,102.03112
1.208399,99.387314
1.0750319,102.40802
1.0470952,101.823586
1.0100898,99.93021
1.036147,101.95562
0.98818296,101.30677
1.0637059,97.65504
0.9912936,103.04199
0.94828296,98.33494
1.0035509,102.911865
0.8664331,102.76109
0.8384392,97.84387
0.935548,97.43825
0.8262464,95.824165
0.8858743,97.45715
0.8753798,103.172874
0.7645438,98.057755
0.77128136,98.2043
0.77551365,98.47385
0.7772131,97.91536
0.7467755,95.08582
0.6257996,96.46164
0.66105133,97.52023
0.6884182,96.451965
0.7117725,95.348335
0.61953217,96.0195
0.6197555,91.84698
0.657666,92.46857
0.75627524,94.130356
0.5993494,93.8591
0.60578245,90.92368
0.6306142,91.32224
0.6189357,94.76285
0.64737815,95.99656
0.66523445,90.88036
0.7268771,91.48511
0.59746623,93.774315
0.6811955,87.40473
0.6089939,88.824066
0.7322401,90.023346
0.6976506,96.25734
0.54609776,90.547676
0.5822415,86.39808
0.5317178,86.42795
0.4586323,91.784874
0.6212757,89.27931
0.62212664,88.53857
0.4499033,88.755875
0.5132071,84.45214
0.44797343,89.35523
0.4514454,86.6742
0.46766073,88.058235
0.520669,88.208176
0.3974221,89.98097
0.42060676,91.14747
0.3738111,89.47935
0.36635476,88.05225
0.3246962,86.93061
0.40149176,92.254814
0.4319138,88.07622
0.3978205,90.139336
0.39209569,89.58377
0.39989033,91.481834
0.4398821,90.35041
0.38684568,93.399475
0.54924846,87.63524
0.4606961,93.56138
0.5644391,90.16172
0.6678773,94.606415
0.68491626,100.01541
0.771712,99.32284
0.89689225,94.013306
0.8131494,95.92955
0.9238606,95.57668
0.9746697,98.374
1.1052276,98.562164
1.0310782,104.93877
1.1682597,101.11362
1.2259161,99.47075
1.3094329,99.898705
1.3452678,102.67615
1.4445376,99.29437
1.492338,103.65141
1.4855715,105.15918
1.6013684,103.892876
1.6238757,102.21193
1.6568203,104.64715
1.6451222,106.13549
1.7631321,107.19514
1.692288,105.81847
1.7455294,108.319984
1.880354,104.73265
1.7525865,106.86836
1.8805438,107.58048
1.8111299,106.536865
1.8463362,110.0494
1.8612245,106.78174
1.8228638,111.29919
1.8630074,112.72662
1.8430175,106.5894
1.9384409,106.743416
1.8499669,110.59397
1.8767568,108.618416
1.8096777,111.64184
1.8389074,113.7495
1.9467455,110.56875
1.8487773,107.935455
1.8155464,112.54796
1.8350401,107.79509
1.8326623,108.99034
1.7862153,111.18914
1.8507706,109.925125
1.7572504,109.26064
1.8219546,107.15409
1.7176105,105.2383
1.8410826,110.03838
1.6479362,112.323746
1.7222085,109.91904
1.7048157,112.26012
1.4787382,108.584694
1.6258839,109.65572
1.6510453,105.20406
1.647795,108.52219
1.6195823,106.810616
1.4938536,105.51013
1.5461946,106.62475
1.5424417,103.484634
1.5831437,108.166466
1.5296106,111.38216
1.5567776,106.74451
1.5385442,100.77417
1.5043753,108.964294
1.5706881,104.64723
1.4638184,104.02816
1.4538805,101.92565
1.503814,102.06155
1.4199942,103.58602
1.520306,104.517075
1.46589,102.90521
1.4770888,100.02038
1.4877629,104.96417
1.4856585,103.06798
1.4549056,104.62039
1.3760968,102.03749
1.334829,98.24863
1.3938985,95.152306
1.4296042,96.11442
1.3495828,95.25579
1.3474206,98.14998
1.2834295,94.70772
1.2693669,101.77147
1.1172539,95.20312
1.1930513,95.75151
1.167367,101.81467
1.0974227,95.361305
1.1126925,95.4878
1.060076,96.09486
1.0950763,95.94756
1.0075322,94.85772
0.92202,96.06528
0.93570805,94.699066
0.94206214,94.7762
0.9498205,93.13793
1.0652847,93.32642
0.9499656,92.6929
0.9954862,95.94662
0.99665195,89.16786
0.9009149,90.85889
0.88406676,92.368004
0.8686273,91.88027
0.930126,91.33082
0.9936244,90.830505
0.8745267,85.35616
0.91955036,92.094444
0.86193895,87.21171
0.85081625,91.310486
0.8645978,91.94381
0.87118596,92.47
0.88124174,87.768135
0.7890921,91.70105
0.8683193,93.15477
0.8464934,85.059044
0.81339616,87.505974
0.7344693,91.11095
0.8105752,91.74854
0.7148738,92.874565
0.69907874,87.543495
0.62822044,93.22249
0.6535465,91.29151
0.6008439,92.18169
0.6449956,91.96872
0.57653004,89.556145
0.52962106,88.09097
0.49651268,91.10225
0.4361238,87.081215
0.46819553,89.6879
0.4913344,91.58366
0.5764683,89.969795
0.52599263,93.02897
0.6205014,89.20994
0.5679428,92.66727
0.5228634,89.49988
0.5502076,93.496544
0.6852985,94.759964
0.7144127,93.83641
0.765803,98.7963
0.8297318,93.50014
0.8001789,98.57029
0.94339794,99.69128
1.009727,94.88808
1.0056291,99.316025
1.0545609,98.01683
1.1936297,95.8344
1.1729125,97.21712
1.2984617,101.57575
1.4357913,101.603935
1.4248413,101.438965
1.5366728,101.53409
1.4924543,103.451
1.5535233,101.805725
1.5487853,103.62028
1.6630217,105.18141
1.55633,101.14692
1.6153098,107.095116
1.7786664,106.89239
1.7223883,106.2297
1.8535353,106.83065
1.8719736,107.16692
1.7889366,105.45335
1.7432194,106.575264
1.8622336,106.46925
1.7850546,108.75593
1.8596756,112.93026
1.8475028,109.47439
1.7530278,105.80131
1.8743504,110.805016
1.8929508,115.245895
1.8753948,110.07087
1.8780353,111.27362
1.742247,108.975945
1.7829236,107.5469
1.8021873,111.063484
1.823389,107.4168
1.8528194,109.78538
1.8360765,109.60523
1.6934062,111.20912
1.7304721,110.115395
1.6752038,108.76126
1.6911713,109.853004
1.6699026,110.306725
1.644084,105.05752
1.6775415,106.80118
1.5599623,106.94422
1.470424,112.06607
1.4660841,108.044815
1.3915641,108.228935
1.446786,107.18756
1.4619163,107.4872
1.467825,110.651535
1.4672871,106.38149
1.3553236,104.519264
1.4735245,104.88194
1.390455,106.41473
1.3340063,105.11953
1.3278757,102.05935
1.3526295,106.61741
1.4482253,105.8263
1.2292042,106.6182
1.2655525,102.23986
1.264408,103.983475
1.2161844,100.25996
1.1146481,101.01528
1.2308496,100.03309
1.2056744,101.6609
1.2883805,100.78794
1.078439,101.0546
1.1302469,100.24914
1.0427599,102.0347
1.1214074,102.19691
1.1153346,104.6867
1.0747821,98.52587
1.000195,103.957825
1.0300136,95.23542
1.0917215,94.31701
1.0142821,98.78783
1.0023907,101.529854
0.9435539,100.82282
0.8796892,100.33027
0.8184319,98.313576
0.79020214,98.65593
0.79723847,96.73438
0.84763753,94.931015
0.7218162,99.20559
0.73494154,98.52128
0.6075381,95.455956
0.5920981,93.202065
0.6301372,93.945526
0.6782138,94.95468
0.6135625,94.64983
0.62743706,94.91551
0.6584475,95.90064
0.50588316,93.20465
0.5131026,92.379265
0.561377,97.59238
0.583155,94.85448
0.42754892,92.69886
0.44526485,92.346214
0.6333248,92.0737
0.54711735,92.91278
0.48072413,93.95817
0.4723201,89.00914
0.45989177,87.25247
0.45508698,89.36986
0.4204158,89.698746
0.5058713,87.968216
0.44342276,91.85812
0.51274496,87.484375
0.4483638,87.468605
0.42232063,85.774796
0.3260395,91.61314
0.3238867,89.40878
0.32951695,90.259705
0.2078716,91.52116
0.18985492,88.010185
0.13554098,88.50635
0.13082558,90.94639
0.18812919,87.602615
0.11377592,89.32455
0.16682132,90.88311
0.1452193,82.75261
0.043013647,91.77429
0.05403908,93.330025
0.09700933,89.44916
0.14319389,90.370056
0.081846036,92.59078
0.025049452,90.136986
0.0791387,93.95563
0.18359034,94.243515
0.21752255,92.63864
0.35446864,92.92231
0.291007,97.07716
0.3062385,92.51524
0.29738832,92.39513
0.34244934,95.44991
0.47798896,91.369064
0.5929384,97.333496
0.61757094,96.68339
0.58550245,95.24607
0.6274454,100.23032
0.7180124,101.442604
0.7210316,99.46362
0.80399156,101.62435
0.90790397,98.02554
0.995513,103.033844
1.040693,101.62476
1.0986305,103.44325
1.0076343,102.14359
1.2083715,103.421165
1.2027869,102.17694
1.1570448,105.72465
1.3061163,105.099144
1.3502774,106.43409
1.3600565,105.68275
1.3043278,107.48718
1.3586285,104.45532
1.2983868,105.62754
1.4702109,106.18207
1.4544882,107.38843
1.4125797,110.61419
1.3623506,105.474106
1.3445877,107.47055
1.360288,105.83796
1.3855664,110.04232
1.3959074,109.808815
1.3651128,107.708855
1.3652488,110.56761
1.290086,108.29489
1.3406086,110.33192
1.4820043,111.727974
1.2930012,107.33498
1.4098607,107.66865
1.3056316,105.721466
1.2289699,107.96382
1.3120298,112.24939
1.4458747,110.406906
1.2896693,111.76548
1.1428291,109.43603
1.2481617,111.531876
1.2560707,107.34775
1.171886,114.78317
1.0975013,107.796974
1.2102249,106.75032
1.0125654,111.54104
1.0072147,108.818565
1.0000716,104.875244
1.0170199,101.981575
0.9662326,105.18696
1.0905212,106.2324
1.0539327,107.20605
0.9389229,106.81677
0.9564936,104.97501
0.977946,107.76705
0.9704102,107.73779
0.9094204,104.56082
0.9680617,102.75176
0.9605718,102.428894
0.8477223,104.58293
0.95664185,101.16774
0.87582,102.39437
0.7700491,101.82848
0.9905056,103.456924
1.0099026,98.873665
0.8213753,98.06627
0.8410721,102.51233
0.9419169,101.99915
0.7160778,98.15861
0.79666066,104.15742
0.7042206,99.64323
0.74384516,100.18987
0.71686506,96.67905
0.7805062,95.23653
0.7368986,96.975586
0.54848975,100.110565
0.62708926,99.02538
0.54884005,99.45505
0.65581894,98.77262
0.5186134,98.3172
0.53004616,96.762825
0.47377914,93.049675
0.46605852,94.253296
0.44135135,98.49799
0.43800658,97.81631
0.47419208,94.94905
0.36184016,97.17007
0.3724742,94.53576
0.42038897,92.99646
0.41092047,90.299995
0.38213637,89.21027
0.29281798,93.855644
0.39721316,90.712456
0.30659947,94.65299
0.40617335,94.27172
0.38646048,92.90081
0.3664831,90.04648
0.29713485,89.76439
0.32210258,92.034065
0.32345086,92.70672
0.37957644,94.075745
0.355014,92.369225
0.37218308,94.70963
0.32772273,91.55375
0.30007595,87.91953
0.27836654,90.08601
0.28457928,87.679245
0.27678746,89.10279
0.30406323,89.75373
0.21562216,91.019615
0.27331862,89.09714
0.21812105,89.538605
0.13549852,87.90481
0.061412223,88.663574
0.07754133,89.46848
0.07815195,86.55863
0.08790903,86.50466
0.018173076,88.20246
-0.050912127,89.41132
0.01153008,92.15211
0.039639402,90.715706
0.091624334,93.57898
-0.020418713,91.357956
0.13152951,91.89466
0.07581258,95.0524
0.1276185,92.34405
0.12469337,90.986336
0.17986633,98.20928
0.18140899,94.13148
0.11870169,97.03235
0.25008652,93.55404
0.3884941,92.5607
0.4716653,92.99518
0.50315076,92.91282
0.44177943,96.64084
0.5461192,96.76918
0.61195105,101.585045
0.7388503,96.20469
0.78774244,100.250114
0.7534235,97.39775
0.9295293,97.36167
0.9304764,101.570335
0.99768084,100.12403
1.129187,100.47234
1.1401951,103.78409
1.2022684,102.35103
1.2868862,107.92161
1.2468057,101.56594
1.3120667,102.71081
1.3317008,105.73107
1.3970466,101.47599
1.3455014,105.38041
1.3151377,110.20693
1.4467828,107.402794
1.4340901,102.41572
1.4359062,107.39427
1.5364048,110.50277
1.5222718,110.640976
1.627063,108.29323
1.617102,113.19768
1.6416138,111.023506
1.6387899,108.947556
1.5315328,108.8601
1.6065838,110.93852
1.6428356,109.6537
1.5942037,110.85491
1.704499,111.918015
1.5453584,109.685585
1.6301743,112.00815
1.5297734,108.86979
1.569888,106.93469
1.5474689,112.499435
1.5486249,107.300514
1.443979,108.7138
1.4881276,108.544815
1.4483558,108.68774
1.5590191,110.01093
1.4154813,109.22655
1.3878895,109.1007
1.4489577,109.403076
1.4413915,106.540924
1.3601779,110.83584
1.4757676,107.15087
1.3650115,107.800156
1.399918,107.604065
1.371132,106.548676
1.2561659,105.64365
1.2676309,103.851944
1.2358435,103.24446
1.2361339,105.79612
1.1739044,104.944336
1.2313851,103.84857
1.2470269,104.76806
1.2671207,106.461876
1.3066633,105.05657
1.2497951,106.41049
1.2712156,100.7501
1.172634,104.90109
1.3143046,101.31508
1.1926175,104.15884
1.2399285,102.95584
1.2136353,102.02977
1.3151284,101.7147
1.2184606,103.976906
1.1362245,99.27838
1.2511611,102.65895
1.1588762,97.433754
1.1437124,102.77104
1.0149807,102.17022
1.1201752,100.381584
1.1004367,97.866005
1.0926595,102.42145
1.1004062,99.20956
1.0151899,98.33846
1.0345064,95.1282
0.91506386,96.70005
0.9837057,96.70973
0.8785857,95.57411
0.8987444,95.49666
0.82286716,91.85011
0.7619531,96.69431
0.79125553,92.26013
0.8144895,91.667465
0.81890774,96.67659
0.7281334,94.05989
0.8283801,95.432495
0.6700373,91.88332
0.85126257,95.41875
0.87638456,91.48785
0.8759407,93.54575
0.77502275,92.16954
0.83909637,92.99002
0.711121,94.14572
0.75136185,88.7373
0.7326144,92.461464
0.77396655,90.356346
0.8525994,91.69881
0.8596995,87.709564
0.779569,89.903114
0.70881385,89.731834
0.8034085,88.69632
0.8080259,90.46193
0.6735827,89.76704
0.67625827,89.25972
0.66215616,90.40132
0.708909,86.60108
0.66112643,90.73903
0.6698755,87.42235
0.58240604,87.16162
0.6637372,87.26405
0.58780867,87.0229
0.6255719,91.8677
0.51613754,92.556816
0.4706507,86.87903
0.47317642,91.649826
0.45902345,90.35532
0.45110655,91.53183
0.45044604,90.302574
0.47128394,92.526535
0.5154351,87.66933
0.5652235,88.732605
0.51686746,91.56884
0.73281246,91.35652
0.64348984,94.80247
0.63081884,93.51809
0.64371073,95.072395
0.6747693,95.51546
0.76124424,94.05366
0.79582965,94.050606
0.92907166,95.79857
0.9028047,96.35916
1.0732734,99.79691
1.0960293,92.15702
1.0925004,95.09542
1.2173636,93.51133
1.3266741,99.65841
1.3423842,99.85145
1.4574126,103.76048
1.4693478,102.360634
1.4957005,99.72499
1.5680468,105.30706
1.6436093,102.46451
1.7434055,104.10833
1.6970232,106.4095
1.7628027,104.76064
1.8528436,105.46498
1.8774393,99.456406
1.6905341,104.071075
1.8874085,108.41428
1.9040794,104.72202
1.9843096,108.78001
1.9102376,109.65998
1.9215609,105.98152
1.9136437,111.12609
1.878599,109.51813
1.9892136,105.82776
1.9162798,111.766685
1.9880875,113.05895
1.9317266,110.47945
1.8786305,112.38943
1.9880297,110.551346
1.8870125,112.10206
1.9076445,108.058586
2.077203,107.62588
1.9001758,113.230446
1.8887523,109.92689
1.818525,109.23277
1.8295977,109.900154
1.8806497,109.284836
1.8492028,108.864334
1.8905636,109.40677
1.7645061,108.68732
1.7290282,110.675354
1.7964919,112.49844
1.8773777,113.52997
1.7575303,107.69299
1.6695466,110.17858
1.7352934,108.47532
1.6481392,108.63428
1.6785741,108.07329
1.5733738,105.619064
1.6109325,106.203964
1.5739465,106.09049
1.6816562,107.54229
1.5347698,103.9661
1.5759379,103.99413
1.5937284,106.62518
1.4769855,104.89139
1.592677,108.81815
1.5539786,105.11497
1.5788866,104.25505
1.5611556,104.94925
1.4845243,102.74792
1.4705371,104.24514
1.5083973,100.54579
1.4743336,103.889595
1.4589281,102.96277
1.4381561,100.99682
1.4707917,103.80533
1.4476392,102.67417
1.4683278,99.43975
1.3582374,100.99855
1.3394523,100.14367
1.3965116,98.808464
1.2950495,98.362335
1.2582716,102.09248
1.2440579,99.87731
1.2478989,99.51468
1.3148391,104.95743
1.1790668,97.59997
1.1334087,100.09576
1.0870706,96.63292
1.0989672,99.35507
1.1104777,95.01918
1.0285126,96.55742
1.0304998,95.25371
0.978893,96.9423
0.9497921,93.11874
0.9232486,92.83463
0.91740024,92.9311
0.9425059,92.483246
0.8268355,96.251114
0.91530347,94.97555
0.88830966,94.57908
0.9052415,91.64385
0.8970859,92.67562
0.7915686,94.06725
0.9335881,92.080986
0.8524519,93.35625
0.87681913,91.17934
0.7657342,88.7459
0.92930436,95.05253
0.90776217,90.8014
0.7844834,90.57297
0.81444645,89.742485
0.76146966,90.77312
0.83041626,86.4701
0.681401,87.22394
0.7166831,89.556114
0.7041318,92.505356
0.69410086,88.48058
0.67205215,86.285484
0.64252585,90.82773
0.6031623,90.443146
0.65960956,90.717064
0.69437027,88.93977
0.42552358,92.39249
0.4403676,85.86617
0.4265195,90.72032
0.45923123,86.904945
0.4201085,89.186066
0.49485472,89.142
0.43699107,93.15226
0.4012365,92.823265
0.44776395,91.972435
0.5154572,89.07117
0.4834188,90.27108
0.4210624,92.75334
0.49174225,93.15735
0.49914742,92.46703
0.43820596,92.969795
0.57808286,93.1664
0.5579089,93.391106
0.5294697,94.08983
0.6562573,97.4892
0.6407585,91.2142
0.7277906,92.10883
0.87244153,97.14511
0.93581873,94.97228
0.9265127,96.50604
1.0810213,96.92329
1.0753961,99.304184
1.1548712,97.46493
1.1902109,98.33639
1.2898341,100.947815
1.3536212,99.64657
1.3625389,99.95614
1.3604923,102.389854
1.4144453,101.28656
1.4089074,103.62193
1.5311295,103.65953
1.4974666,103.84014
1.5399153,107.30174
1.593631,109.997345
1.5012378,105.19418
1.6186455,109.842674
1.553255,106.03005
1.7083706,105.02463
1.6693938,104.13812
1.6801866,109.79477
1.6146916,110.26525
1.7553678,110.503586
1.7139465,110.63541
1.755608,108.83542
1.671301,113.723206
1.60688,108.15612
1.6573328,107.28404
1.6207922,109.80039
1.6924366,112.1612
1.6244578,108.741974
1.6855218,104.574066
1.5504018,108.39894
1.6180218,109.58568
1.6316085,109.48833
1.4532926,106.30299
1.5446941,107.96434
1.4817305,109.1221
1.4891135,114.111115
1.4073541,111.06661
1.4458126,108.75605
1.510348,108.45584
1.4153613,107.88292
1.4005845,108.33359
1.353699,110.69723
1.3163201,105.902275
1.2612252,108.57028
1.2203943,108.24864
1.2734388,107.01792
1.252868,106.11645
1.2702931,104.14827
1.231613,106.59662
1.2292335,103.13863
1.0642642,107.28801
1.1164379,102.97007
1.1142883,105.4006
1.1597407,100.50889
1.1228015,102.97977
1.1429904,102.95435
0.9879236,103.30902
1.1159197,103.215805
1.1473237,102.63148
1.0874047,103.62565
1.0890023,103.353745
1.0367335,100.62617
0.9936565,104.35895
0.9787342,97.07646
0.94940865,100.09429
1.0317624,103.17141
0.9814069,102.77328
1.0412933,101.7776
0.8639049,100.43004
0.9082709,99.5293
0.88726753,101.31069
0.79335344,98.185555
0.85285044,97.63167
0.62678516,100.27305
0.72561616,98.62458
0.6089454,98.40449
0.68868923,97.24747
0.5064852,99.53125
0.689852,96.85283
0.58477503,93.09077
0.49514824,97.19145
0.4986703,95.12434
0.5420148,98.3396
0.56661063,94.76963
0.47947633,92.89483
0.36091173,96.01479
0.44251987,96.478775
0.41748983,91.36481
0.4617194,91.93853
0.3987092,93.41837
0.51814556,92.45752
0.38386267,91.052574
0.34184036,91.200935
0.32622626,94.710106
0.3877441,92.9137
0.4282215,89.810295
0.3208323,92.248955
0.32067668,91.27906
0.34195635,90.46404
0.3797508,93.173996
0.39189634,92.116745
0.3747702,89.57921
0.27251682,90.96167
0.28789145,93.8117
0.24066171,86.82669
0.28101,89.91247
0.22518809,89.500015
0.12829344,88.64542
0.16191566,88.48551
0.1724438,86.721
0.18895604,89.7298
0.11826488,91.48227
0.037349995,93.528305
-0.028670438,89.51798
0.06267172,86.945786
0.03847457,90.18055
-0.051950064,89.500046
-0.036859784,90.40105
-0.012302109,92.17145
-0.05205788,90.3094
0.042069893,88.80403
-0.039929893,91.96182
0.06926148,88.47978
0.06494145,92.92796
0.00305834,92.5099
0.1836812,97.79693
0.13510308,97.138855
0.19454752,93.89251
0.19192354,98.72731
0.2624308,99.00622
0.3628341,95.659775
0.43137866,98.88612
0.41610667,96.98832
0.59764004,97.260345
0.5572923,99.55793
0.7325998,95.01226
0.7864246,100.87055
0.7703465,102.34416
0.82427275,100.0144
0.9029308,101.7926
0.96955276,100.26085
1.0694485,101.888336
0.92705315,101.06688
1.0323495,103.41157
1.1886637,106.56426
1.0783633,105.65203
1.2098256,106.11074
1.2841269,103.40752
1.1755496,105.58385
1.212006,108.80818
1.2878286,104.14096
1.3267475,107.64962
1.2564281,108.659966
1.2955927,106.62231
1.3432784,108.11499
1.3159219,110.55304
1.3580409,108.87267
1.343652,109.66214
1.3605672,110.16733
1.3764921,107.28516
1.3526555,111.40754
1.4234444,107.554
1.3742645,108.78462
1.2812278,109.07891
1.2745277,109.65456
1.3776985,113.63629
1.3220866,108.51487
1.3345697,111.25168
1.3879288,108.640724
1.2766908,111.09229
1.1970435,110.0252
1.2942344,108.645805
1.2172,106.22265
1.2007933,107.54485
1.1749781,108.882126
1.2184576,107.302666
1.1779495,106.65909
1.142771,105.59447
1.0652573,107.51609
1.0678812,107.55987
1.0386752,104.32577
1.0437844,107.177124
1.0282336,100.74559
1.0732052,105.52382
0.96049243,107.20697
0.98184645,100.58643
1.0473862,102.92324
0.9903705,103.62356
1.0704254,107.78055
0.9481319,105.08567
1.0292921,105.20588
0.9849563,100.887726
0.8902462,104.62035
1.0075933,106.306725
0.97302246,104.536476
0.97360474,105.98342
1.0010337,101.39804
0.94722503,105.62619
0.97208506,98.68708
0.96525615,100.01171
0.96075153,104.44422
0.9163841,101.19024
0.8016192,97.75862
0.9609815,98.99492
0.8766751,98.28401
0.75918275,100.43142
0.80188316,96.564095
0.87632215,99.28554
0.7338066,99.53499
0.67145175,96.78462
0.8315088,103.73201
0.63877773,99.47628
0.59397143,95.161255
0.6285965,93.11629
0.7012083,96.343056
0.56516147,98.4502
0.5910192,98.40854
0.5090473,97.62666
0.51117414,94.96319
0.53112876,93.11264
0.48135424,93.52352
0.46261597,93.67141
0.5318431,91.48768
0.33861297,95.87156
0.56075597,95.14738
0.5199176,93.93586
0.44735596,93.094574
0.49114552,90.24365
0.4460106,91.211494
0.5411998,91.41005
0.43253422,90.91495
0.42132592,88.151665
0.35056266,95.10778
0.4709816,93.043396
0.4956666,88.88528
0.41641918,88.04112
0.46855727,92.84263
0.43026197,88.600174
0.5045512,91.948006
0.4151675,89.020065
0.43903837,88.85911
0.42747217,86.39918
0.3289488,86.49767
0.3640529,88.97035
0.3370962,90.35593
0.38009226,92.420166
0.26141986,89.98062
0.34974736,88.80769
0.24451484,89.73825
0.16806136,90.638054
0.21283153,88.40376
0.20520176,86.46049
0.13880247,90.530594
0.1521526,85.451126
0.0906508,87.90128
0.18111591,89.904
0.24414816,90.06036
0.2209983,88.54288
0.19388866,87.53025
0.24561977,91.71096
0.32617533,90.902824
0.3083578,89.67196
0.393829,95.905
0.42256632,95.101166
0.435932,91.930275
0.5441679,101.61094
0.68238986,98.06661
0.66831565,96.939606
0.6715502,99.41117
0.7132863,95.16134
0.8219202,98.89306
0.84560245,103.270805
0.9445149,98.7789
1.0496504,96.03093
1.049013,100.96075
1.1612852,99.217896
1.2037715,99.425705
1.28706,103.73555
1.2656853,107.33351
1.3327309,97.578445
1.3921696,104.74013
1.4140911,106.30775
1.49603,99.248825
1.4658513,108.23191
1.579188,107.016136
1.6505395,107.56312
1.6939027,106.73021
1.7025535,103.991684
1.6640313,109.15141
1.6645563,108.20879
1.7094071,105.26091
1.7725415,106.275085
1.7688144,108.015205
1.7787757,109.003586
1.7729064,111.13305
1.7484763,107.956085
1.6834581,111.82953
1.7575784,110.647095
1.7803173,109.68493
1.7564502,109.55089
1.8150336,107.44269
1.6547736,111.013756
1.7666872,106.66043
1.7228947,111.40473
1.7426692,106.89088
1.6743059,110.201675
1.6506497,109.95436
1.6502116,113.50319
1.6753039,108.43046
1.7150475,115.49751
1.6118006,111.36016
1.5944793,109.27404
1.564132,108.44871
1.5902487,111.99434
1.5799592,110.06564
1.5831666,108.106
1.5312419,107.11056
1.5252001,108.44683
1.5153617,106.79891
1.4774952,109.29293
1.5278051,108.453674
1.495976,106.294876
1.5484188,109.725945
1.4540563,101.852974
1.4688896,106.52609
1.4517598,106.47012
1.4378439,103.89896
1.4593155,103.406975
1.3637098,103.779076
1.5363145,101.360985
1.3472658,103.93973
1.3729701,104.54607
1.4036758,104.3807
1.3542337,103.94819
1.4192744,101.9259
1.3485148,106.63959
1.3126969,103.22656
1.3069015,101.91863
1.2815434,98.4911
1.3303443,101.99743
1.2090378,98.697014
1.3557086,97.14076
1.2892746,97.936935
1.1712523,102.33846
1.2174895,99.21752
1.2364949,100.32046
1.1716367,98.45719
1.1887782,98.67267
1.0933086,98.956314
1.0457817,100.206535
1.0362531,101.64158
0.9983657,97.98247
0.93311894,93.330124
0.9813208,94.90713
0.95146745,91.63962
1.0243965,98.46254
0.9088848,93.75615
0.889331,94.91976
0.90652144,93.6054
0.94395185,94.56754
0.86564195,98.1326
0.86981666,91.19812
0.85744953,90.98763
0.8505138,91.550934
0.9642788,94.73896
0.8797974,93.17744
0.8782521,93.883934
0.96397555,90.04671
0.8762458,91.387535
0.91259766,93.30392
0.86766744,92.36046
0.8073468,94.53267
0.78966206,89.49226
0.7900042,89.434906
0.88969743,88.6843
0.89751923,91.634476
0.7850852,92.027824
0.81628376,87.8195
0.74202824,90.05941
0.7213319,91.33848
0.76031446,87.12457
0.72255486,90.30879
0.7459799,89.82343
0.60712427,87.76091
0.62317896,86.41356
0.5088714,88.91726
0.45571265,88.158005
0.6181439,89.97742
0.48690364,92.10644
0.55077535,87.5138
0.59873074,93.34625
0.5736781,89.04948
0.522064,88.62941
0.5550057,88.860565
0.6331943,88.22239
0.6192941,91.228065
0.64761484,95.063484
0.577899,94.86575
0.711401,93.911835
0.724643,91.69356
0.7804101,93.087456
0.85565823,91.26708
0.87735844,95.18911
0.9405626,98.640526
0.99165493,96.70899
1.0823362,93.43595
1.1527826,96.699104
1.2824118,100.73134
1.2370133,98.14381
1.3036538,99.833916
1.395805,103.1915
1.4063715,103.74431
1.548876,104.94627
1.519082,102.389984
1.6122888,107.861206
1.6334686,108.66754
1.7276947,102.44664
1.7972721,105.28115
1.8251106,103.25048
1.774245,104.705376
1.818176,109.473274
1.8470688,106.414215
1.884935,109.03203
1.8665745,110.11529
1.8042212,104.23071
1.8932859,109.5261
1.8788704,108.339554
1.8657093,106.02483
1.9991143,109.10725
1.9286929,109.76301
1.9321299,105.76188
2.0334263,106.903046
1.9138235,108.12821
1.9019336,112.35237
1.8388529,107.7322
1.8599885,108.41313
1.846789,110.24787
1.9322494,106.60704
1.9890155,107.857635
1.890027,113.20705
1.7924104,112.16178
1.8352345,107.706795
1.8217,110.83134
1.8172966,106.45312
1.9497606,110.04881
1.6866225,108.94508
1.7345493,107.814606
1.7513127,107.32559
1.6993326,108.611755
1.7050304,107.98687
1.6303129,112.99654
1.5383719,106.81295
1.6964562,107.17861
1.5289844,108.939705
1.5334868,105.52657
1.5433725,108.501114
1.5790902,107.5237
1.550344,108.40534
1.4861556,109.8774
1.5373794,105.34364
1.4809567,105.47572
1.363969,107.76459
1.543051,105.39281
1.4614762,103.131
1.4556276,105.51254
1.413028,102.49867
1.3435849,103.3901
1.3648657,102.56984
1.3512481,98.23856
1.4193213,99.11575
1.4034615,104.13315
1.2761569,98.6511
1.324231,102.82731
1.2276182,99.623764
1.2002426,103.98102
1.126189,100.10622
1.244607,98.05312
1.2432032,99.12151
1.108735,101.95463
1.1083487,95.67546
1.2309636,95.687965
1.1143173,101.14653
1.0494812,96.98852
0.9815471,97.800575
1.0353432,97.5391
1.0464903,96.43103
0.9884879,98.85093
0.9999702,97.64959
0.810622,94.139
0.88751435,95.903786
0.7753568,94.3057
0.89082223,94.965355
0.79746044,93.92354
0.77650726,90.815865
0.7427881,95.95562
0.718542,91.0184
0.6961545,91.08562
0.68866473,91.977974
0.67404044,88.71663
0.7256551,93.34758
0.69717693,93.001816
0.76133454,93.700584
0.6578857,92.6648
0.62338316,92.38771
0.6548385,90.05123
0.6949603,92.94849
0.65289116,90.363686
0.6267304,90.91939
0.712185,88.028076
0.65963435,92.91292
0.6511267,90.58552
0.53509116,90.279655
0.5673938,88.7832
0.5452373,85.35506
0.5505502,86.6987
0.467844,88.604355
0.54133826,88.744774
0.45466697,89.43706
0.392734,89.150604
0.45721003,91.26798
0.4146036,84.860016
0.26974553,88.1973
0.28155217,89.28252
0.3258212,89.376854
0.15053259,90.571655
0.25261575,91.76755
0.23490514,90.013084
0.1946257,91.374695
0.2223723,91.50591
0.22190484,89.62345
0.24975243,94.72748
0.20534845,93.67083
0.2180541,94.931366
0.23954752,90.93279
0.28051537,97.25338
0.44209188,96.10011
0.44203857,95.90643
0.42039347,94.42896
0.53622174,94.847176
0.5546044,92.926
0.63370675,93.670845
0.7643051,98.782715
0.7358469,97.11651
0.86349607,100.24216
0.8827748,97.58503
0.9128314,101.620636
1.0069873,99.064674
1.0623229,102.186516
1.1460646,96.671425
1.1037955,99.62242
1.1427704,101.28956
1.2384253,103.12689
1.2158809,104.95948
1.3289459,105.790054
1.2897425,103.36856
1.3735025,104.293564
1.3916264,105.85438
1.4190195,105.20435
1.3993609,106.118065
1.4994216,108.208084
1.4516275,110.49509
1.405152,107.87235
1.4695505,106.164536
1.4317455,108.88601
1.4853308,108.2832
1.5043617,111.87018
1.4985105,110.31795
1.5723058,107.952446
1.4388025,111.618454
1.5498883,114.115456
1.5915446,106.22351
1.4231708,111.99814
1.4645567,111.609344
1.4631274,114.911804
1.4661968,114.94847
1.4150107,110.000496
1.3480859,114.8305
1.4309485,109.4095
1.2994971,107.65557
1.4168562,117.0413
1.4034312,109.07181
1.3385944,112.63474
1.3004309,107.07578
1.3271166,106.911865
1.2296543,111.563194
1.2686743,108.01845
1.2231516,105.967766
1.1654357,108.61678
1.2646737,105.51035
1.1255454,107.6622
1.1571414,108.930405
1.145634,102.77617
1.0290135,104.85912
1.0220305,107.42576
1.1129278,105.12753
1.0690392,105.90814
1.0979172,103.94686
0.9929431,106.468864
1.0598598,105.07678
0.9911509,109.265724
0.96500593,104.30878
0.99086756,104.40138
0.9797346,105.21315
0.9837534,105.401566
0.9059376,98.51178
0.9654413,104.13211
0.83335525,100.69779
0.8639679,103.34148
0.9626794,99.37935
0.9671699,101.94584
0.90948373,100.309235
0.8304722,101.457275
0.8377584,103.75575
0.8694117,97.44026
0.74329376,100.34499
0.7566387,100.75953
0.710806,102.15433
0.66437644,100.16081
0.65238297,95.77659
0.66229457,100.747604
0.69255805,101.64731
0.5373375,99.59218
0.6174612,98.37266
0.53329146,93.678116
0.48391962,97.06095
0.4576427,93.830605
0.42766806,95.581024
0.3577354,93.43081
0.41267818,96.80437
0.35726058,99.12999
0.36594528,100.59308
0.33230492,95.32684
0.36775017,94.38234
0.4419323,96.12714
0.31633246,94.24687
0.3271952,93.73754
0.3283381,93.57154
0.34626436,95.00372
0.3669886,94.60735
0.29797143,94.295815
0.31663936,94.72616
0.31032428,92.27008
0.31124893,89.66003
0.24313399,91.696495
0.3458726,93.29489
0.36702552,91.15902
0.29223013,87.59168
0.2718541,90.812805
0.29774782,90.690285
0.3127894,88.80952
0.18416676,88.98366
0.20127311,91.04631
0.1366048,90.82973
0.08538095,88.711266
0.09043849,86.31849
0.10301434,88.23854
0.012765083,90.711365
-0.004093142,87.217094
-0.02677581,86.739204
0.022220012,90.27056
0.09190677,89.61839
-0.09503965,89.72105
-0.15421422,90.71943
-0.056712113,93.754
-0.028859444,87.27533
-0.058429547,93.27194
0.089299254,91.98418
0.035510175,89.91879
0.04774523,93.303406
0.07624857,94.128174
0.1335365,93.20356
0.13769603,93.61975
0.11483504,93.766235
0.19597393,96.64037
0.21732159,95.19006
0.34009403,96.16484
0.41671813,95.294395
0.38902837,95.453995
0.5476016,89.824844
0.5393654,96.139305
0.6368192,97.05536
0.6872013,98.69476
0.79087484,101.329025
0.8601223,101.01464
0.92005384,99.98445
0.9295791,101.04988
0.97513807,102.29433
1.0694392,100.789566
1.085404,100.58487
1.1078831,105.87803
1.1964203,104.63694
1.141882,101.21523
1.2715942,102.708466
1.2779046,104.22771
1.3069636,106.33411
1.3546033,103.877754
1.4305235,106.78152
1.3467927,109.306175
1.3198793,106.63691
1.397583,105.092705
1.4013917,106.70335
1.3979464,106.7649
1.4444916,109.204575
1.489565,106.90366
1.3692707,107.85921
1.4952167,107.00329
1.4272815,106.55222
1.454514,109.39566
1.421882,116.26244
1.3309245,109.0991
1.4523804,108.80886
1.467095,108.81393
1.445522,114.19356
1.3999238,110.71501
1.4041291,110.67137
1.3741413,109.01502
1.3439218,108.73517
1.353281,109.1813
1.3521887,112.8472
1.3887787,107.97692
1.2472804,111.766655
1.1913737,109.2851
1.335542,107.286255
1.2030019,110.49112
1.1085804,106.915016
1.1795548,107.230965
1.2960491,107.46624
1.2087628,103.03692
1.1203187,107.63722
1.0685192,105.704994
1.1719632,108.13681
1.0594585,106.5477
1.1218084,100.79577
1.0871412,107.17093
1.0819604,104.20515
1.0637441,102.20713
1.090496,99.253815
1.1116033,102.64046
1.0938613,102.9813
1.1020445,101.16156
1.0527679,103.43437
1.042561,102.375114
1.099983,103.33145
1.0452572,102.58128
1.1106405,101.36844
1.0248482,100.168564
1.0712129,100.734566
1.0214832,101.84724
1.0154535,100.013405
1.0567467,102.260864
0.8677168,97.01976
0.9415729,102.32457
0.9382107,101.48031
0.9177347,101.9979
0.8280372,99.8894
0.9180104,98.25245
0.8890399,95.51482
0.8164619,99.70721
0.79749787,101.80988
0.82516426,96.9131
0.7182488,99.13622
0.70442283,99.38756
0.7080348,99.517
0.72555435,94.54745
0.62223357,93.99224
0.6477871,90.22184
0.6834171,95.32699
0.7317153,95.82099
0.6758217,94.319695
0.60706145,94.24503
0.62692964,91.80327
0.64069325,91.15251
0.57844037,92.082726
0.64480567,97.14273
0.70629483,93.05622
0.64697343,90.68763
0.7341687,93.32388
0.71678966,92.1759
0.6522034,94.82435
0.6388338,95.05906
0.6850887,88.59155
0.52925223,91.63544
0.64413977,92.74592
0.5652545,96.186
0.5948995,90.420944
0.6245555,89.534454
0.5490652,90.83965
0.60234773,88.64898
0.51865673,87.113525
0.5860982,88.47493
0.44851136,90.93313
0.46717373,88.70637
0.49270123,85.70402
0.39255905,86.18989
0.3853352,91.33016
0.47432783,92.51444
0.4219016,91.569954
0.35250887,91.74393
0.29710844,90.04439
0.3827236,92.59168
0.3407085,90.39871
0.3359129,91.205345
0.33740118,89.378586
0.3703518,90.517105
0.3592694,93.46934
0.4121895,88.03308
0.4024805,95.95261
0.6192382,94.215675
0.4870557,92.169365
0.61064565,91.79989
0.706836,91.47514
0.6485678,98.67743
0.6983451,94.37559
0.7952337,95.32803
0.93404657,96.73162
1.0484796,95.54274
1.0651561,97.42369
1.1766107,98.44903
1.1183232,101.935844
1.2421656,99.80101
1.3059367,102.705185
1.4015913,100.14339
1.3895816,97.23168
1.5083874,100.894806
1.5092173,97.758865
1.5727533,102.1773
1.6160525,103.98683
1.6240377,103.40241
1.647872,105.75149
1.6796122,109.31501
1.7892858,102.34451
1.7843269,107.19528
1.8233163,109.55568
1.7327142,109.54424
1.8302333,108.57698
1.8130804,112.139626
1.9839636,105.86158
1.9277705,106.60247
1.8990247,108.85492
1.9427311,112.732155
1.8429079,107.675125
1.7734544,108.12265
1.9125606,113.400505
1.9476143,110.96641
1.8313086,109.91793
1.9516853,106.834236
1.813897,113.51284
1.8630103,110.145584
1.857186,110.72876
1.777425,107.00164
1.9408709,110.20387
1.810084,107.80037
1.8023236,111.24453
1.8162159,107.15773
1.7475839,111.6233
1.6873301,106.457596
1.7986662,106.6676
1.7588993,110.879845
1.6976646,110.35404
1.6712871,110.30609
1.7022918,105.60271
1.555239,106.33301
1.658118,110.287605
1.5289786,109.38808
1.6136872,109.39849
1.6281176,106.33859
1.5791707,103.67238
1.5992365,106.16239
1.5664881,110.70819
1.5739834,106.87272
1.5006971,105.80986
1.4940348,105.927536
1.4994985,102.48832
1.5377122,106.816444
1.4558058,104.55162
1.5100509,104.56396
1.4555864,103.03342
1.4677556,104.01445
1.4400961,100.1123
1.5057448,100.79833
1.4954215,101.90067
1.4192712,101.804115
1.4642699,100.636185
1.4153131,99.65723
1.4670513,98.45486
1.3291839,102.21485
1.3741643,104.40455
1.3141865,101.988525
1.4240973,100.184715
1.2852968,100.51755
1.2445922,97.97223
1.1087809,99.00546
1.1507499,99.11712
1.0638821,101.65095
1.070644,97.21091
1.16694,96.92718
1.0563335,95.93644
1.0943975,94.33826
1.0599229,97.21336
1.0776814,97.90522
0.9738413,93.071976
1.0028526,97.319046
0.8345363,95.49009
0.9259853,90.4925
0.97167426,90.22694
0.85976034,98.625244
1.0031698,91.528885
0.95635647,91.42759
0.99120635,95.08099
0.9689664,92.072075
1.0056853,94.91251
0.86991525,89.45403
0.8570021,90.93026
0.90696967,92.00178
1.0659286,88.39638
0.79156095,89.20382
0.9585929,90.14361
0.9024966,88.899506
0.86625564,90.76182
0.9250786,90.06167
0.8114817,89.747154
0.87543845,86.754845
0.7460542,87.75538
0.82079625,90.55173
0.81838375,85.8063
0.7087025,90.09065
0.7745789,87.30494
0.7232283,90.88566
0.6339048,91.00971
0.59294194,88.58178
0.5507643,89.71938
0.49631783,90.93415
0.46802083,92.8682
0.5853281,88.636475
0.62197065,89.317604
0.5054163,94.50514
0.48515034,88.62126
0.50311726,92.81409
0.52078515,90.55755
0.5315157,91.74856
0.72363156,94.61796
0.5160315,92.67361
0.606449,91.54423
0.6458707,93.580765
0.63527954,95.50084
0.7651562,91.33171
0.7278149,93.50854
0.79142666,96.05013
0.8553068,96.121216
0.95761937,97.69638
1.0031923,96.7653
1.1127356,98.79918
1.0875643,98.119804
1.1068027,97.642654
1.2619823,100.11076
1.1912854,100.45126
1.3420782,100.95149
1.4585059,101.82533
1.3949218,103.80455
1.5175937,103.83385
1.509476,103.32232
1.6580434,104.60936
1.6975707,105.37656
1.530161,107.75839
1.6852386,101.1055
1.7715296,104.70183
1.7538307,106.361046
1.7855293,106.412315
1.7510633,103.821686
1.8222455,111.69917
1.885807,108.34953
1.9115074,106.35259
1.7709773,110.03777
1.775083,108.05599
1.8420275,103.90448
1.7380495,107.65586
1.743384,109.83009
1.925522,110.81862
1.8361804,107.45805
1.9546912,109.70879
1.8379973,109.835
1.8423465,109.50351
1.8308848,110.803665
1.7852644,111.731415
1.7630322,110.26463
1.8216037,112.00439
1.6829958,107.31949
1.6774708,107.956825
1.6454141,111.09599
1.723954,108.31088
1.6818365,111.3719
1.6435834,109.03316
1.5670501,112.88108
1.5003781,111.5964
1.6137782,106.60117
1.4852854,110.47819
1.5128992,106.107315
1.516697,110.668304
1.4094845,105.41957
1.3623066,106.16125
1.4090856,105.47713
1.365226,106.67983
1.3925409,103.30155
1.3416811,108.847855
1.2934093,105.06607
1.2676235,104.001396
1.3352035,105.071465
1.3307017,105.38338
1.2461096,107.04716
1.316773,105.46637
1.219818,101.97569
1.2282296,99.315956
1.2689152,100.358505
1.1658031,103.900696
1.2512527,103.29346
1.175558,103.39646
1.2154496,100.84486
1.187757,102.3107
1.1699545,99.664055
1.0669582,99.88129
1.2027777,97.96249
1.1063352,98.73449
1.0325269,101.34876
0.99030125,100.66902
1.0631967,98.71447
0.9065116,97.39145
1.0574024,98.51312
0.90088594,94.58178
0.8784132,96.57934
0.8273931,98.00474
0.8669576,99.9115
0.68476653,96.54837
0.85678244,98.26992
0.7132211,97.97185
0.6290186,96.709724
0.5912073,96.37214
0.7293858,93.697495
0.6670398,97.51912
0.59257984,93.85163
0.597004,94.29233
0.6002676,94.06419
0.56282437,95.071625
0.5142861,93.803024
0.48098236,98.01612
0.5272454,93.66819
0.5276481,94.6605
0.5197501,96.73035
0.49112144,95.714615
0.58054507,92.381615
0.48689926,88.32155
0.48037633,91.93101
0.4833388,92.36595
0.4687635,90.10157
0.43980086,90.87518
0.4484993,89.21311
0.4345477,94.08677
0.4083358,91.20028
0.4205187,90.6173
0.5443516,91.82964
0.31585297,92.05652
0.39884683,90.830734
0.33093196,88.46584
0.3163601,87.803925
0.29465762,89.22214
0.30490333,88.59778
0.28175452,88.601974
0.23403825,89.41782
0.19633733,89.70704
0.09514041,91.06115
0.07372806,92.07349
0.077727005,91.937256
0.08564665,88.98024
0.09263987,93.13147
0.08844501,92.67842
0.04706715,92.28394
0.057943333,91.67968
0.16976148,90.12295
0.06708078,87.858055
0.15208514,92.40187
0.26823732,94.74274
0.28215986,95.50586
0.33457693,93.24042
0.2971302,98.32256
0.2911989,97.003944
0.44372347,94.19551
0.4846402,99.738106
0.4520448,93.29209
0.6323861,96.559
0.5313478,96.31448
0.6996408,98.964386
0.80637664,98.688805
0.8161651,99.94304
0.8512163,98.30374
0.9333312,104.4653
0.95412993,101.72243
1.0201086,103.038666
1.0986477,101.18818
1.1164817,107.92741
1.0847502,104.97484
1.1613631,103.9577
1.2259614,105.15112
1.2238201,103.44894
1.3019336,109.982834
1.3380344,110.138214
1.3819859,105.54824
1.362769,107.55513
1.3619454,102.07621
1.266059,108.70423
1.3842802,105.19918
1.456051,110.583305
1.4685427,109.93241
1.3790535,109.58406
1.4271224,107.30889
1.4595053,111.38265
1.3340026,107.752205
1.5032759,108.966736
1.4541764,107.8835
1.3598943,108.82032
1.3511518,109.13238
1.4923162,112.02807
1.3172883,110.51336
1.3453891,113.163506
1.2411706,107.59771
1.349658,113.8645
1.2737247,110.45425
1.382222,106.24895
1.2214882,108.6517
1.1816343,107.382065
1.2390301,109.612175
1.1161139,108.833305
1.150875,106.175804
1.0991712,107.545906
1.1339449,111.34055
1.1432811,108.01657
1.0929937,107.52485
1.0488156,109.14925
1.0656629,108.31238
1.0474107,107.998
0.9393484,105.87428
0.96382123,105.13246
1.0020682,106.772995
0.9745401,105.95455
0.9152233,102.25756
0.93201804,105.1414
0.8900466,102.786285
0.94678366,105.09209
0.9681598,104.50095
0.9394121,103.43783
0.8803296,103.3454
0.92167157,106.78864
0.90004474,104.66861
0.9020135,102.143616
0.84320295,103.99628
0.94269806,103.630844
0.8638513,102.60699
0.8245397,99.382904
0.7745827,105.3662
0.7885359,102.21143
0.78375316,102.20566
0.814323,99.507675
0.72061205,97.132935
0.6136038,95.41851
0.65667075,100.09573
0.56705254,99.11346
0.6013092,97.03927
0.6399149,93.43691
0.61829376,97.786736
0.56104994,98.29799
0.60766923,98.23491
0.4973418,93.057045
0.4774395,97.8567
0.4205712,94.81522
0.40708068,94.952446
0.42915618,99.07375
0.4736085,92.17548
0.32320383,95.17193
0.33803082,98.071175
0.28759372,97.435104
0.35558236,95.12073
0.39304504,95.4299
0.32301608,89.908325
0.29915288,93.92551
0.3673551,93.399635
0.393593,96.38194
0.28963315,87.76665
0.26906088,94.0899
0.39474443,94.1701
0.29142818,90.58735
0.27868876,86.75967
0.36903223,91.05444
0.3304395,91.74051
0.4033479,90.51173
0.2556956,88.162895
0.30096468,89.669426
0.15795685,90.62064
0.27340782,85.9776
0.2723673,83.98418
0.21751836,88.779816
0.15788303,84.98028
0.18050146,89.85341
0.20335504,90.74074
0.12163587,87.643845
0.08089892,84.66797
0.037338592,89.82201
0.18037751,89.25232
0.053586826,85.42794
0.036537036,87.42305
0.08544616,86.86798
0.13025317,90.53156
0.027971236,92.637375
-0.051692966,88.611786
0.10969368,88.68077
0.057303715,91.322914
0.1639589,87.899666
0.082149275,92.33477
0.05253953,95.4747
0.19802001,93.42793
0.24165931,94.02499
0.2620116,96.66368
0.44233036,95.94434
0.4469309,93.15761
0.45240662,93.299065
0.49935752,100.367485
0.5628456,98.159935
0.61207044,102.569214
0.65108806,96.12209
0.73619074,102.22644
0.8511119,99.49702
0.90682614,104.057495
1.0328702,102.95177
0.93015075,100.805916
1.0381047,102.501755
1.1252474,103.336555
1.2728049,102.66665
1.2678398,103.59871
1.2977643,100.11339
1.3428658,104.9398
1.308623,104.947495
1.4550848,102.635086
1.4184896,108.272156
1.4993302,105.58657
1.477604,110.52936
1.4719503,110.304756
1.4823798,107.28123
1.5577927,104.48885
1.5262557,111.881355
1.497736,110.357735
1.621054,106.19503
1.5212067,110.07453
1.5599796,110.78987
1.5477598,110.46022
1.4899652,114.04862
1.4331393,109.25284
1.6329454,109.194016
1.621313,105.12106
1.5978838,105.00121
1.502062,108.78952
1.5708091,107.79446
1.504923,112.93949
1.5658221,109.69598
1.5512624,110.849205
1.4916373,109.27822
1.515101,110.65735
1.4524924,108.13106
1.4987766,110.19127
1.5622492,113.081955
1.3738266,110.2489
1.4177084,108.92879
1.3804339,107.80387
1.3963312,104.87346
1.4218547,106.51375
1.3639362,109.450226
1.3892823,108.66034
1.3153111,109.91651
1.2949616,107.69934
1.2558868,103.2063
1.2796795,105.36378
1.2818879,107.5846
1.194749,106.329994
1.2420748,104.017624
1.1730907,104.43001
1.199609,101.58348
1.1995854,102.346375
1.1379861,105.20269
1.3578334,105.33536
1.1949041,100.394875
1.2487063,103.32521
1.2173401,102.10468
1.2538933,94.84385
1.170261,99.865585
1.1531286,102.9211
1.1188043,102.48057
1.2363118,96.74272
1.1893857,99.632835
1.2257894,101.82391
1.1849834,101.559105
1.1457877,104.00684
1.090283,99.5396
1.1849743,101.5451
1.031324,94.61
1.0188158,98.84647
1.0040241,101.437645
0.9781023,97.7548
0.9664915,94.509026
0.9946429,97.9239
0.9275023,97.13042
0.84194016,95.12328
0.8778997,93.36413
0.8642961,91.91832
0.8123385,94.13812
0.747521,94.00662
0.81790584,93.919685
0.82037616,94.04982
0.77023697,93.88907
0.7763295,99.13343
0.71877664,92.15987
0.7574006,95.534836
0.77067715,96.19391
0.81710005,91.3709
0.7798816,93.71757
0.81535375,92.97418
0.74460465,92.075035
0.82392305,96.4426
0.7285323,93.52764
0.73017,92.88743
0.8363517,91.43165
0.8243896,90.492546
0.73808867,89.224915
0.7752519,87.460655
0.7272145,92.76935
0.7706885,91.24256
0.6670567,87.43011
0.6169965,88.38934
0.749087,85.50763
0.5918054,91.35976
0.6025965,88.067566
0.56560516,90.84343
0.6675232,91.23796
0.6250484,91.705894
0.5447485,92.8656
0.57660604,88.31907
0.56001556,91.101776
0.48441923,92.34588
0.52226293,88.94507
0.46241087,90.11731
0.45651487,89.891365
0.31258532,93.85329
0.41081357,94.94205
0.5104151,90.72492
0.5600939,89.772835
0.5092686,94.708626
0.6654848,93.48481
0.5950631,94.43679
0.70127,92.73474
0.7957336,97.99267
0.78342474,92.27817
0.8156381,95.00591
0.92657954,98.30364
0.88708156,100.79678
1.0371233,95.924644
1.1438783,95.05475
1.0779858,100.10056
1.1916536,97.88337
1.2613218,99.62025
1.2446353,98.38287
1.4063892,98.69613
1.4390395,103.37814
1.5439479,103.00893
1.5859479,105.08658
1.6362314,104.82115
1.6297871,107.85685
1.6616473,99.38111
1.7676045,99.98293
1.7791963,106.88665
1.8398122,108.0119
1.8156701,106.126884
1.9148064,104.21882
1.9103614,105.35116
1.8881207,105.668785
1.8607707,111.05097
1.8920717,105.98344
1.9359714,109.44539
1.8641925,108.28263
1.9011087,106.11334
2.0084713,110.430504
1.9405236,109.4741
2.0322113,110.540726
2.0027497,109.777145
1.9617575,110.768326
1.9667994,112.315056
1.9079939,108.0936
2.01332,109.99292
1.9619615,103.9239
1.9070481,104.66856
1.8886658,107.86337
1.9178281,107.28989
1.8719885,110.407005
1.8532009,111.76071
1.8823853,113.97617
1.8237463,108.176285
1.7596954,110.27683
1.8844287,105.73136
1.7270142,107.44052
1.7351376,108.939575
1.7074628,105.96547
1.6735429,105.587326
1.662793,107.405304
1.6316164,107.135155
1.5609888,106.80346
1.593587,110.40363
1.6212642,107.65925
1.6279602,107.625145
1.6164728,109.63683
1.5865834,104.01285
1.5370386,102.61721
1.5724621,107.89903
1.5581789,103.05794
1.4647524,103.996254
1.4614584,104.09741
1.4861923,107.577
1.5105723,105.721344
1.4310423,103.692215
1.474594,101.90888
1.5268555,101.949066
1.4186004,102.03207
1.3960043,101.08044
1.539438,106.14536
1.4623258,103.024475
1.4023391,97.10417
1.3372022,100.92104
1.3854315,103.48531
1.3247758,96.48347
1.3544444,97.43117
1.2384515,102.770706
1.1706908,99.763535
1.2368284,99.24805
1.1104957,97.11254
1.2503271,94.55737
1.1104544,102.13641
1.1258626,97.30407
1.1068745,94.67924
1.0357466,97.56707
0.9971274,98.59309
0.96639043,95.11371
1.028663,95.82602
1.0316904,98.219124
0.9964451,95.89953
0.96801627,94.20838
0.89447707,92.08942
0.861676,94.45697
0.8509066,93.422356
0.8591889,99.13233
0.81719846,91.64928
0.907253,93.85092
0.7957516,93.90815
0.8743513,95.65384
0.8709067,91.46292
0.80558205,90.23677
0.78287023,93.155174
0.8143697,89.58947
0.8426219,91.93782
0.79761094,89.017044
0.8271924,91.696
0.8316118,87.29031
0.7870015,92.7454
0.8189191,87.615074
0.7172719,86.337006
0.7373808,87.73951
0.7028056,90.78529
0.6578068,84.59743
0.6109456,92.03751
0.6577567,89.59529
0.60143626,87.547386
0.50693333,94.02217
0.5913853,88.11943
0.4801937,88.81441
0.5361674,88.51395
0.47467375,95.60308
0.56713754,89.920685
0.49464577,92.52339
0.39529866,89.85866
0.3673064,91.17395
0.44756702,95.830635
0.4569022,91.59291
0.43024123,90.61353
0.37467858,91.80083
0.4511302,92.54516
0.53210235,92.97439
0.48489976,92.58434
0.54890025,92.57465
0.5715313,94.396965
0.5325577,92.96812
0.68988836,96.176025
0.7007338,101.48193
0.8329383,98.125854
0.7513799,93.70684
0.85981894,94.82871
0.8897598,98.911194
1.0399066,101.542336
1.0328993,100.51476
1.0642577,98.877106
1.2158219,97.07236
1.2343155,105.92069
1.2568339,97.13226
1.3749628,102.10165
1.3824339,104.211624
1.4901793,100.66466
1.4283009,101.35107
1.5072869,104.84285
1.5417727,107.16169
1.5270358,107.679634
1.5930486,105.86459
1.6383502,110.940216
1.6326642,104.87546
1.6462873,104.36567
1.6577548,107.0343
1.6862175,105.439606
1.636929,106.80518
1.6285905,108.46942
1.6698612,105.57284
1.715117,109.88519
1.5878178,109.31253
1.654722,108.16574
1.6153765,112.27388
1.726886,109.22602
1.6596123,110.35417
1.7088885,110.21171
1.6727244,109.63441
1.6458063,107.07434
1.604827,109.15648
1.5952804,108.8202
1.5788491,107.29349
1.5927349,107.34147
1.5677607,104.00562
1.5195987,110.17789
1.5284685,109.01909
1.5253944,109.34786
1.4573269,108.99576
1.4894239,108.547935
1.4293389,108.49097
1.3438482,111.03899
1.3817838,102.16535
1.265492,104.46398
1.311261,107.82248
1.2352506,108.14824
1.1930404,109.128624
1.2686548,106.18479
1.2037295,105.64185
1.2231371,107.61514
1.1481348,108.15233
1.155948,106.58219
1.128316,108.35177
1.2113314,103.18626
1.1439633,105.406006
1.0837128,105.608635
1.049014,106.339874
1.065445,99.72177
1.0758666,102.59532
1.0331452,99.35691
1.0052258,102.640755
1.0050613,106.04133
1.1043637,98.919785
1.0081975,101.4472
0.95208097,101.70025
0.9787694,99.31624
1.0154785,102.02393
0.89358604,101.074425
0.9236292,100.21407
0.9112942,100.80006
0.80863714,101.28712
0.8342583,101.56296
0.7360743,97.40285
0.7424986,98.13397
0.7798576,94.35487
0.7185364,100.83486
0.69031215,101.88945
0.65934944,96.92653
0.583397,94.992004
0.62391794,93.56787
0.51697505,101.43053
0.64482754,97.40906
0.5806414,98.06824
0.5124262,96.99827
0.52293664,93.33402
0.37375185,95.96698
0.43547562,91.997086
0.47285247,96.765495
0.4639495,95.66529
0.45002547,94.41658
0.44097522,89.952385
0.49363342,92.0977
0.3569788,91.138084
0.47522354,95.91873
0.38876483,96.71995
0.4173419,95.38475
0.36960748,95.29869
0.39424446,93.15587
0.39761502,95.68731
0.36826375,91.33214
0.33647624,92.6139
0.30070668,89.44263
0.30806345,89.193375
0.36099887,87.76086
0.19245204,90.75929
0.33246815,91.68268
0.31273893,88.726875
0.25281096,86.27628
0.2248241,88.90081
0.25442925,91.000015
0.13778153,91.38924
0.13682877,93.87159
0.033669163,89.406395
-0.04008974,89.173584
-0.00141651,91.41246
0.012199328,88.50209
-0.021991177,90.01703
-0.034816746,87.11834
-0.09046428,92.1853
0.068758436,89.6327
-0.092437394,86.974915
-0.05302313,91.40391
-0.012723954,88.88596
0.033857517,91.80838
-0.004432873,92.5159
0.11663704,91.63912
0.06026375,92.631516
0.14001219,91.42968
0.19133833,97.18446
0.26936373,96.34131
0.20388655,95.249374
0.41074392,98.3425
0.3719931,100.5338
0.5655427,96.93827
0.48944038,99.14098
0.6061114,95.486275
0.6816438,99.26261
0.6901647,97.17325
0.7942494,101.25778
0.7775636,102.8693
0.8042992,103.99905
0.933848,104.54739
0.9380234,101.32528
1.0733488,105.15197
1.1239263,106.05177
1.0587325,105.87392
1.1591787,104.63963
1.1885575,107.37853
1.2443855,106.74529
1.2703782,105.4096
1.3243715,107.96375
1.3509711,106.757866
1.3793695,111.413826
1.3342755,110.8171
1.3177544,105.1178
1.3213726,108.257034
1.3305813,108.42497
1.3923708,115.30332
1.322667,106.032585
1.4571972,109.44653
1.4054619,112.50648
1.4210113,108.700066
1.3653681,110.356384
1.3917091,111.02304
1.3081528,110.53437
1.3926407,111.96165
1.3956552,111.35459
1.3640966,110.300156
1.2307253,109.51987
1.2772616,110.57509
1.2252951,112.43004
1.3138671,108.024345
1.154377,108.6353
1.1329454,109.98233
1.1846261,104.93338
1.1913817,113.25141
1.1835806,109.45604
1.1835386,105.96182
1.1391802,104.82611
1.0560769,110.01792
1.0570468,104.69092
1.1138877,105.75106
1.0162184,109.75095
1.1171783,108.024315
1.0900747,108.514305
1.0502481,105.07055
1.03038,104.99494
0.89618933,109.421555
1.0297557,108.00414
0.9689024,108.766304
0.8493608,106.72338
0.99976724,103.34029
1.0317423,101.1849
1.0128281,102.95058
0.88734525,107.332016
0.95871246,101.949585
0.9602614,101.96366
0.90560323,99.99624
0.84123635,99.91763
0.924711,105.06607
0.94903094,99.48026
0.8529343,99.89156
1.0110778,101.573105
0.8108889,101.75184
0.83930385,99.50631
0.88182914,96.25271
0.8750109,98.942795
0.75674033,95.59468
0.7892148,99.796974
0.7667869,100.393166
0.72216815,96.205894
0.69484884,100.066666
0.739672,96.95213
0.5715207,95.792114
0.6499905,95.47476
0.56169313,96.12653
0.4307841,100.696465
0.5130144,96.127884
0.53349197,98.77099
0.517382,97.623474
0.5172308,94.9792
0.54894346,90.58744
0.38392067,87.74839
0.49234676,95.212685
0.4029627,93.908356
0.46050885,97.502106
0.49842,92.42261
0.4793726,90.90566
0.48948848,89.97645
0.45262876,93.47377
0.44862697,92.11583
0.616995,91.56171
0.51250756,93.86628
0.4728747,91.31445
0.5079706,91.33829
0.45246363,93.25196
0.49475268,94.625854
0.41152596,92.59014
0.42378724,89.87831
0.5327614,94.76702
0.4087975,87.468056
0.37648878,86.82407
0.39434838,86.00192
0.3426188,88.035904
0.4156382,89.35556
0.32439065,90.21229
0.35728943,85.70001
0.30699876,88.2928
0.2235011,93.26343
0.21871571,90.30337
0.19479597,89.47781
0.24183975,88.64815
0.09370212,90.399666
0.21051815,91.15905
0.20266657,90.394135
0.15997627,88.12393
0.17596535,89.521545
0.26605675,87.58802
0.15839826,92.98918
0.28263417,91.432884
0.319949,93.28564
0.24974777,91.305984
0.36277434,87.34827
0.386509,93.462
0.44905433,99.48798
0.5366399,90.79302
0.55224234,98.1581
0.5980553,96.37623
0.5921171,97.16376
0.68651706,96.266045
0.79453874,100.891
0.8127237,96.26329
0.907356,97.33543
1.017138,97.9412
1.0600979,99.91448
1.116239,98.497574
1.1867789,98.12788
1.3118879,98.825554
1.1845223,102.820786
1.4370984,104.48638
1.3990434,104.17906
1.4071503,105.02129
1.5044876,106.59851
1.57767,109.61279
1.498306,103.233475
1.5475212,106.78532
1.6259353,106.11782
1.6473377,105.65523
1.6055033,109.37502
1.7387093,108.867676
1.7706914,107.78074
1.7490841,108.1628
1.7771051,111.40758
1.7146231,108.69977
1.7462484,107.558426
1.7277347,106.678795
1.7602533,109.01066
1.7564042,107.398964
1.7798512,111.728165
1.7185196,110.85175
1.7087166,110.827995
1.759171,107.015854
1.8169892,112.603806
1.7188996,112.22288
1.6591228,106.77412
1.6848079,111.52654
1.6699328,109.48037
1.6693298,108.743195
1.650546,108.33639
1.7610987,110.90306
1.575529,110.9661
1.674746,111.424446
1.5868865,109.0365
1.5717179,108.812126
1.667082,107.89924
1.611819,109.65124
1.5883135,106.70134
1.4820408,109.30623
1.4171765,107.07581
1.5921047,107.201096
1.5393822,106.81087
1.4338635,104.24545
1.4378177,104.83615
1.3277414,106.24665
1.376165,110.60704
1.3193072,104.93292
1.4320666,107.84176
1.412076,102.984184
1.3821967,99.69984
1.3572862,106.49947
1.3907853,103.26725
1.3477052,103.25911
1.4537458,103.33246
1.4176068,102.15051
1.3465691,105.480095
1.3792863,100.776596
1.411647,103.7288
1.3958653,103.46339
1.42017,97.89421
1.2506124,102.11823
1.3517165,99.52253
1.3313338,96.69853
1.3573273,97.74767
1.3014357,101.28401
1.2378366,100.64961
1.2289736,100.47351
1.1831995,97.29832
1.1234248,98.59457
1.2031057,97.107735
1.0881625,97.43234
1.0352341,95.34942
1.0080193,97.9322
0.98683566,91.529305
1.0337344,94.481026
0.9653428,94.249084
1.0241033,90.9966
1.025248,93.882576
0.86367387,91.89369
0.9618672,93.89282
1.0131859,96.34251
0.8504504,93.053406
0.8277854,91.76791
0.8435064,93.433784
0.95380723,92.547485
0.87049454,91.68362
0.8590075,93.80273
0.9058616,93.15027
0.8352334,89.01092
0.9555705,92.57262
0.9264977,91.59288
0.86303633,88.660484
0.94463253,93.51476
0.9124122,87.198265
0.8887392,92.08977
0.8439842,89.17584
0.8060379,90.5116
0.9021416,87.093346
0.8464248,86.87626
0.77278143,86.65852
0.70806825,86.28057
0.70023525,89.36494
0.6630198,93.72627
0.6624414,89.407646
0.7104036,89.756874
0.66834944,86.626724
0.60249436,86.55699
0.59454435,90.215065
0.60789204,88.12559
0.5493225,89.829315
0.5647594,89.36293
0.54501,89.72423
0.5877547,89.27408
0.48077813,87.66031
0.5183781,94.08962
0.625559,92.8356
0.61810803,94.35324
0.5530827,91.43715
0.6502399,89.26378
0.6222657,92.64776
0.6586281,91.64823
0.65605915,98.11424
0.7256129,93.74554
0.785717,98.43056
0.8819778,97.27529
0.8655117,97.41311
1.004025,97.41609
1.1417475,97.61945
1.141511,97.42108
1.2308798,98.40349
1.2668372,103.04701
1.265793,97.07593
1.3830091,103.31816
1.3708526,100.272896
1.430865,101.77877
1.5267675,99.51102
1.5824383,99.513466
1.5842844,101.14051
1.7767347,104.60635
1.6601174,99.42445
1.7210124,106.59499
1.7816554,106.28207
1.8485394,105.510925
1.8265561,104.53732
1.7419978,105.74371
1.8107774,109.44776
1.8741847,108.40824
1.8698804,103.460365
1.981533,104.90633
1.8500348,113.4257
2.000849,111.15253
1.9455153,107.19088
1.9800057,109.86856
1.9699476,106.093216
2.04503,112.39183
1.9945577,111.6739
2.0609345,110.71156
1.95112,106.564186
1.9715906,114.006325
1.8518364,108.3944
1.8154229,109.72834
1.8889084,108.94157
1.8253783,114.331505
1.8305839,111.370895
1.8942136,109.7121
1.7466917,109.44326
1.751907,109.83686
1.7899665,110.42309
1.813623,112.03889
1.7747645,104.03926
1.6669556,109.50222
1.6354156,105.92844
1.6648676,105.32397
1.6749392,109.17396
1.4886527,103.555046
1.5141864,105.13899
1.6644678,106.94896
1.6115811,108.10145
1.5008596,102.85688
1.4805797,106.58466
1.4847785,104.759605
1.3672489,104.96499
1.4509095,103.087555
1.4836769,107.72755
1.4749767,98.10055
1.3854141,104.46036
1.582153,101.356804
1.4379097,104.83953
1.4117562,105.19144
1.321165,103.41133
1.4428675,103.837204
1.393182,103.70834
1.3666687,97.5901
1.3647814,99.68525
1.3482059,103.70863
1.309799,104.02283
1.2950331,102.62597
1.3160918,101.13756
1.2965754,104.35577
1.1759144,99.37204
1.2245286,101.443474
1.1901839,98.43332
1.1567694,101.78476
1.1084799,96.79768
1.1933756,97.87584
1.0080779,98.95009
0.9655843,97.37927
0.98309547,101.70971
0.9624656,98.18649
0.9780563,99.43277
0.7753989,93.92857
0.8977821,97.78817
0.76988196,94.28218
0.8172901,94.79395
0.9041412,97.786385
0.732545,93.082726
0.75077385,93.717125
0.7988776,91.93201
0.7804575,90.91683
0.7975991,92.74653
0.7091803,91.32303
0.70870274,89.62524
0.71048117,94.63915
0.6432877,90.71903
0.7665257,90.38746
0.6684516,91.934425
0.77406305,90.70786
0.7551586,89.640594
0.6012115,88.3389
0.68398386,93.79063
0.7095909,86.94927
0.6063029,88.28845
0.7187239,89.51661
0.5982181,92.2271
0.61133933,92.73943
0.7512634,89.07994
0.6037806,87.989746
0.51692206,90.634895
0.57880974,89.971825
0.39659747,93.83654
0.4978142,93.489655
0.38698184,86.86762
0.32671544,92.92671
0.35305387,91.158615
0.25849888,92.60323
0.31500506,92.04196
0.3586945,90.96254
0.2093274,91.39393
0.18519905,90.15137
0.2510727,89.86588
0.2557325,92.31838
0.25695166,95.73156
0.1985959,96.441444
0.22958161,92.77198
0.26039854,90.77812
0.42938966,92.50429
0.35362113,98.458405
0.27072042,91.56587
0.3798811,94.0271
0.43326047,92.5059
0.54017395,96.60348
0.5888513,98.46803
0.6802564,93.58535
0.64334935,95.177185
0.72056276,99.51486
0.8573879,99.88515
0.8319964,100.111046
0.9428121,96.14403
1.0420477,96.97704
1.0267377,102.45679
1.0431887,97.65672
1.1508816,109.34686
1.1800908,103.46687
1.2109437,102.43691
1.3586621,101.12953
1.2714717,107.25574
1.3858421,100.470955
1.3678029,105.52871
1.404641,105.20094
1.4963485,101.58079
1.4029024,106.17466
1.4572235,103.87737
1.4911604,107.388725
1.4355037,107.237785
1.5303322,112.749695
1.6359854,108.54337
1.4844784,107.807175
1.5435706,108.46205
1.5342468,112.39145
1.5033613,113.2666
1.497489,110.9401
1.4924353,110.36615
1.5124117,112.221504
1.5930271,108.113075
1.4734188,107.152145
1.4833679,112.676056
1.5496037,108.76611
1.4146274,108.80488
1.4149727,112.486496
1.4083878,109.55236
1.3668077,108.48968
1.3318197,105.9097
1.3127055,107.348816
1.2740297,111.45644
1.3679672,104.42042
1.3149331,114.302216
1.2280846,109.667366
1.2827494,107.0315
1.1627086,107.16462
1.1917272,109.1672
1.1966313,107.62196
1.092266,108.10277
1.2036177,109.15715
1.0736419,110.37015
1.1105081,102.24878
1.1266164,109.18446
1.0562325,111.36035
1.037566,101.12284
1.0000722,103.15284
1.0248917,105.03822
1.0291734,103.72722
1.0494459,107.852715
0.9507998,105.32973
0.98031723,104.76765
0.9421784,101.31066
0.96399707,103.517845
0.9401203,104.88657
0.94274426,98.54449
0.8616196,101.03945
0.8278117,102.14164
0.9546327,98.9055
0.8620666,98.96585
0.85325056,100.82233
0.79106194,98.80715
0.775369,98.61287
0.7971345,97.57633
0.72088283,96.02152
0.73680747,100.58467
0.66913086,101.15375
0.73861784,95.1336
0.6360228,100.547295
0.6600137,97.79227
0.6798331,98.25402
0.5360977,92.760796
0.5194789,94.33974
0.54807,98.19149
0.568336,95.74644
0.38948384,94.74535
0.47088122,93.41681
0.43139395,93.22133
0.464162,92.26646
0.38345942,94.51032
0.37541267,92.76362
0.38982782,92.8455
0.35789755,92.75695
0.32132447,96.63796
0.3490472,93.2132
0.36686224,94.03763
0.4072253,89.20933
0.32633612,91.23518
0.27474225,92.87302
0.27450252,90.59444
0.29518756,90.638504
0.30760595,85.73734
0.44003767,88.773476
0.2278371,92.048615
0.26446193,90.70399
0.26035953,95.24512
0.26145625,90.7572
0.20400107,91.27182
0.25108358,88.992004
0.27489325,89.18766
0.20025529,86.76966
0.22291923,90.251144
0.10515407,90.381485
0.15085082,88.97356
0.12833412,86.88496
0.07166067,90.9491
0.015970688,87.64313
0.040559128,90.86608
0.039090376,92.02355
-0.0034941598,85.94319
-0.05672823,87.77292
-0.050241668,90.050156
-0.0042381804,91.23826
-0.09031194,89.764015
-0.07574659,89.90838
-0.03622399,89.995575
-0.049348865,91.73154
0.089181274,90.50686
0.053900693,92.3758
-0.023221305,95.58296
0.05814089,96.259575
0.19518422,92.90078
0.16848268,92.36075
0.24601862,96.07631
0.22033228,92.726265
0.35155275,95.877884
0.4266133,95.67133
0.47286376,99.39076
0.48458642,99.244125
0.60148036,97.787834
0.6407807,97.91438
0.7393173,101.75207
0.8263163,92.71064
0.777077,98.266914
0.8464874,101.33599
0.91124886,99.97399
0.96683747,104.18874
1.0406659,102.74183
1.1387264,100.415276
1.167719,104.12949
1.0512419,104.03192
1.2665155,102.246796
1.2404937,105.105446
1.3253686,103.8676
1.226272,107.706726
1.2691574,104.78487
1.3368845,109.409164
1.448322,103.59615
1.3339095,104.5673
1.4886968,106.104065
1.3889854,107.16128
1.4404476,108.00459
1.4447376,110.211174
1.3693984,111.009766
1.3488121,108.94338
1.3755511,111.29385
1.3156651,110.67599
1.4238657,110.48104
1.4694552,112.404465
1.3979108,107.37349
1.4547774,107.910965
1.362238,106.55347
1.5323517,107.96569
1.3728698,109.724434
1.3134784,109.74348
1.4475763,113.170334
1.2717389,112.086716
1.400162,113.25203
1.2943915,111.44171
1.2522774,106.146355
1.1873535,109.59265
1.2982061,110.05496
1.2948656,106.11781
1.2728758,109.55257
1.2952597,112.509605
1.1269903,110.35459
1.1588728,107.19535
1.174434,106.15703
1.1610893,107.42529
1.1728867,107.02133
1.1200596,105.709694
1.1598939,103.96545
1.2325838,108.68198
1.1238153,108.84126
1.1173686,107.310295
1.0686476,103.82516
1.1315688,105.444695
1.0563123,105.74232
1.0297296,107.97192
1.0592097,102.2455
1.07427,101.31891
1.0257664,101.78471
1.0219054,100.07603
1.0381796,108.45666
1.0790111,104.65083
1.0674424,102.708244
1.0659401,102.15385
1.0447917,99.32158
0.97087246,102.258224
1.0029104,100.77402
0.91848856,103.97096
0.990904,97.0674
0.9623865,99.48907
0.94377434,100.71197
0.86807966,97.582756
0.7803128,97.04821
0.883876,97.03204
0.8766471,95.21073
0.7768875,95.15297
0.7524355,97.03529
0.7572714,94.36308
0.696736,94.93334
0.63729244,96.34125
0.6662976,95.8856
0.72807455,95.24281
0.6464466,97.102486
0.6103893,94.80379
0.6377745,94.39681
0.5033327,93.677826
0.59484,93.84045
0.691136,94.04544
0.69365317,93.71843
0.65424436,92.54945
0.6518409,94.43804
0.5575757,90.95315
0.65258217,92.38224
0.6055668,91.51835
0.6216774,91.76474
0.5873354,92.339455
0.6510097,87.621994
0.6647134,88.78839
0.7109783,88.72437
0.65460217,88.274216
0.6180845,92.766106
0.66771793,88.2698
0.5940931,88.91198
0.57639873,88.26416
0.6036758,91.81755
0.50741386,90.63885
0.526389,88.2454
0.50524545,90.28286
0.43645787,86.83349
0.4531599,93.292114
0.46363753,92.08143
0.37981942,88.024315
0.38589078,89.693665
0.3719389,91.58919
0.3904273,89.33326
0.4126761,89.1553
0.38800886,91.97211
0.34295085,90.25186
0.3473592,91.03437
0.3773604,90.688675
0.37667543,92.5674
0.4564715,91.728546
0.48649088,90.67393
0.5381256,94.35277
0.46033046,97.93028
0.5575332,92.8781
0.6205345,95.57213
0.6145526,94.08393
0.6630105,95.97342
0.74679273,92.19401
0.92719674,94.55856
1.0264393,92.606735
0.88472956,93.9049
1.1679696,96.33899
1.1442615,98.783264
1.2994424,101.588104
1.2511255,101.06497
1.3434331,101.981316
1.3359598,101.6263
1.4121002,104.54181
1.4973177,101.996254
1.4684937,105.53138
1.5735668,102.43281
1.6407924,103.67432
1.7219489,100.73857
1.7126368,106.526794
1.7456679,107.07747
1.7073665,106.18278
1.8175317,110.074326
1.7787861,101.53254
1.7948985,109.93912
1.9349952,107.523415
1.9337538,109.542465
1.83126,112.25352
1.859096,109.09877
1.9265951,111.564285
1.9370347,111.14903
1.8999196,110.128555
1.8992243,109.049164
1.9538659,106.834656
1.8310295,108.736046
1.8788147,113.388565
1.8711305,106.92966
1.827664,106.43754
1.8356065,109.80496
1.8150004,109.529655
1.967437,109.60133
1.7762749,107.38485
1.8158149,111.83362
1.8292949,112.74125
1.8541805,109.662315
1.8113484,109.165955
1.7855405,104.38795
1.6977736,110.17523
1.787932,110.15785
1.7269591,106.85928
1.6072026,108.57298
1.7269341,110.871506
1.6799622,103.97373
1.65595,104.18377
1.5944327,106.674385
1.6406622,108.49859
1.5554804,108.72341
1.5094173,108.0686
1.5820519,105.930336
1.5865513,105.587715
1.5931832,108.770134
1.5605799,104.8922
1.4821748,102.09792
1.548812,106.71002
1.4725351,101.85797
1.5659719,101.31943
1.5273681,104.405045
1.3732785,102.02804
1.4857951,101.314514
1.429567,104.00111
1.3735743,103.54389
1.4336905,100.62516
1.2837236,99.396614
1.386015,102.120186
1.4921186,100.92923
1.3587439,99.79682
1.3039641,98.031395
1.3630385,101.4098
1.3483783,101.30943
1.36097,94.56792
1.3084774,98.16052
1.1852897,99.447876
1.1775022,96.94336
1.1851714,100.13092
1.2187672,95.54721
1.0997972,99.08907
1.1112076,94.421265
1.1010354,93.85694
1.0731221,98.426445
0.96261454,91.85527
1.0676246,94.513
1.0676711,99.62073
0.9639232,96.13376
0.9910529,94.54298
0.9579001,95.8327
0.9388013,92.44707
0.866395,95.9781
0.9743801,90.774025
0.9519666,92.40202
0.83764946,95.53111
0.9192087,91.44589
0.9482598,92.13815
0.9754824,91.18126
0.9432316,89.65583
0.8956544,92.752884
0.900976,90.044365
0.96532434,90.841866
0.8668077,93.38174
0.7953176,89.75033
0.8562307,90.61534
0.8556168,88.18024
0.8209949,85.735725
0.91776615,90.68556
0.8073284,91.348915
0.80827296,90.66977
0.78688776,87.44344
0.77236515,92.16182
0.8136094,89.8924
0.6834906,90.58406
0.68291533,89.772064
0.7236101,87.97718
0.58092576,87.28002
0.5276811,88.90994
0.5364085,88.82411
0.49665284,91.97934
0.45155427,89.377975
0.52077085,92.93903
0.5156437,87.65499
0.5656635,94.54985
0.5026304,91.77768
0.5870932,87.82673
0.53961325,96.76212
0.64330614,91.99082
0.524321,93.21593
0.72131133,93.777306
0.63549984,95.85446
0.75180465,92.04018
0.8005486,95.84337
0.7391922,91.651596
0.9156653,92.694626
0.94989645,98.26837
1.0163952,95.06474
1.1424211,96.89625
1.0873464,98.37347
1.0294945,97.15595
1.2517447,95.555855
1.2636955,103.28065
1.3855841,101.194725
1.3715988,105.159004
1.4900236,101.95083
1.5292695,102.29013
1.5437253,102.41566
1.5635607,103.54035
1.5924265,104.11259
1.7299967,104.02082
1.6832695,105.375854
1.7208867,107.81147
1.8572148,104.42505
1.7803319,106.03004
1.8337479,110.85347
1.7231877,108.51815
1.8041152,109.29129
1.7797513,107.77957
1.8528612,108.90153
1.8217158,110.59926
1.7694218,109.475815
1.8779126,109.71703
1.8902309,109.05694
1.8671951,108.92289
1.7736086,111.246376
1.8886721,106.872475
1.7580998,105.85044
1.8131496,107.38855
1.7894616,115.0351
1.8711027,107.327385
1.7386184,108.86647
1.7499186,113.34397
1.77368,112.16143
1.6899935,110.988304
1.7407829,108.87054
1.6738635,109.021645
1.6678761,111.87029
1.5195645,107.60483
1.5210896,108.728546
1.5461465,113.43692
1.5610042,106.16764
1.5910344,106.62839
1.5613893,107.3283
1.4765838,110.801956
1.4812648,111.903145
1.4415421,109.50854
1.4346296,106.12108
1.371976,112.86127
1.3914379,108.203766
1.3787028,106.86999
1.2506478,105.40581
1.418445,104.49595
1.2804081,103.47103
1.3348417,106.37973
1.2798591,104.88256
1.3077803,104.85413
1.2912172,99.078674
1.2555817,101.89758
1.1805822,105.35962
1.1720821,103.87504
1.2570632,99.32416
1.2045339,105.126724
1.1709772,106.4424
1.1498922,101.25633
1.1881456,102.99487
1.195243,99.7018
1.0966493,101.84183
1.08418,98.45118
1.1237134,98.192726
0.9815279,97.012955
1.0267649,97.17502
0.9974934,98.66928
0.9749552,98.27524
1.001557,99.69271
0.8850951,97.59921
0.8872032,96.7402
0.8864328,96.166245
0.7792156,94.27392
0.77537227,94.7616
0.74713945,95.65241
0.6855267,94.33768
0.6976313,99.608574
0.6558823,94.93386
0.5523833,91.951294
0.60891944,93.996284
0.6163022,94.1861
0.56696534,92.80069
0.4765951,93.23047
0.63920325,96.09275
0.5031389,91.89256
0.49528557,93.111435
0.5861913,92.74437
0.55131763,91.42991
0.578388,93.45734
0.51425,92.5938
0.56195706,92.09401
0.47567117,93.72131
0.5078655,90.91654
0.46793088,89.28129
0.51489574,89.07326
0.47099128,91.104385
0.43162078,92.03486
0.38767946,89.5184
0.43227592,86.33931
0.4523212,89.93483
0.35280108,91.11576
0.3725608,90.81028
0.3678428,86.87404
0.24484812,86.14255
0.21814191,87.47804
0.13685629,86.95526
0.18211912,86.70889
0.16543296,86.756714
0.1216992,88.59491
0.068013705,89.20667
0.0865834,90.86302
0.06903799,87.08824
0.049983006,89.620964
0.09111925,88.52198
0.06201368,86.32972
0.101539455,90.36723
0.098924115,89.76851
0.083511196,91.85104
0.20510744,93.87047
0.12186845,94.23312
0.22749883,95.138916
0.21899143,94.684326
0.20441304,91.61032
0.29144922,91.98626
0.32133397,98.48877
0.37465546,97.508446
0.49152035,97.27549
0.5528079,95.60309
0.5207383,94.79044
0.68100625,97.657814
0.6816811,96.28061
0.7631574,96.20395
0.81546134,101.707726
0.8973947,103.105705
0.9076768,100.810616
0.98495895,98.95296
1.0033132,104.302055
1.079973,100.6889
1.1713598,103.293144
1.1099812,101.71364
1.1803266,103.73758
1.2472483,103.181244
1.3162049,107.91845
1.342924,108.00768
1.3086585,107.363914
1.298839,107.57719
1.4137571,107.92967
1.3633128,108.65046
1.3426212,104.96264
1.5046302,107.19554
1.4330318,109.96706
1.3762939,109.10799
1.4008199,110.149284
1.4223945,112.952484
1.4895753,110.83875
1.3775342,109.55941
1.4021821,114.31548
1.3073789,109.309235
1.3761431,112.10486
1.3717713,111.47745
1.3252624,109.35461
1.3617983,108.88151
1.3873742,111.230354
1.3769622,108.88989
1.2810876,110.81085
1.3944811,105.53603
1.2169963,109.93065
1.2335974,108.1696
1.2336051,108.49677
1.2619401,113.254616
1.2472596,107.512886
1.2107668,107.55281
1.15063,104.97487
1.2019991,108.01433
1.0983984,106.197624
1.1777536,106.25079
1.0335066,109.003235
1.0368172,106.35492
1.0116578,107.17402
1.0178578,104.71656
0.8832757,108.21725
1.0090197,107.7934
0.8946627,106.786285
0.9978703,103.81993
0.90563196,105.47721
0.966807,102.84639
0.86669195,105.08052
1.0033628,106.05855
0.87414664,107.758736
0.9072642,102.97057
0.87360436,103.16647
0.990966,103.394966
0.7722243,101.23364
0.8852369,101.58202
0.91287786,100.33649
0.9688326,104.48883
0.82169473,102.00229
0.87639254,98.8574
0.7675449,99.19739
0.8057897,95.72779
0.8181322,104.83572
0.7092523,101.15814
0.74321073,101.53075
0.72097635,99.57469
0.65862626,95.56383
0.7056112,96.535995
0.57258666,96.02973
0.6147454,96.49251
0.4533764,97.65309
0.55108166,98.90575
0.45993876,95.20121
0.47362715,96.98637
0.52320373,96.98765
0.52823246,98.0657
0.4429549,95.79128
0.4408089,96.567604
0.3515861,92.575714
0.3513929,91.255394
0.30940577,96.212105
0.33390203,91.67312
0.29939634,95.28487
0.3496707,91.44678
0.3385194,92.2038
0.33455652,89.394135
0.34391698,94.02601
0.26639476,86.47142
0.44358376,93.94807
0.33272472,94.63324
0.36576772,88.62344
0.36124688,93.73009
0.37263483,89.728386
0.3194572,85.88979
0.40976533,92.49435
0.35427684,90.6172
0.33764002,90.12912
0.25099328,89.75902
0.34369162,87.66002
0.29440668,86.41457
0.16157153,88.63302
0.21061282,90.13664
0.16976812,92.22388
0.11646217,89.72696
0.18485251,91.13159
0.17640106,92.98525
0.09569045,91.692795
0.02372021,84.864525
0.046367936,86.09092
0.0056616645,91.02922
0.044063747,90.77377
0.045426447,88.74725
0.015914256,91.64076
0.064559534,88.7326
-0.012654279,92.70979
0.06393549,93.46524
0.11018593,93.38476
0.10341899,94.26263
0.18773575,90.945656
0.28752702,96.72809
0.13197449,93.41863
0.22508973,96.014244
0.39737898,96.57773
0.3717474,94.11997
0.44937888,96.19133
0.43486416,99.28386
0.5847618,97.004875
0.65884376,97.854
0.70833296,97.35136
0.7597884,99.8542
0.87996596,96.98114
0.9359811,101.30104
1.1258103,103.36028
0.99511117,100.4869
1.04268,101.1004
1.051514,101.30492
1.2626557,100.672806
1.1923043,103.99699
1.3176795,107.86629
1.344541,105.02012
1.4642357,109.37796
1.427925,102.22316
1.4497732,105.08666
1.4231267,107.073204
1.4247973,105.13078
1.5105441,108.86756
1.5380251,110.55427
1.5291331,109.70758
1.4908189,106.81623
1.5502238,109.386154
1.5306025,109.02607
1.6166713,110.75015
1.5999453,110.83046
1.5116329,111.692795
1.6155684,107.631805
1.6142368,108.61956
1.5672163,113.25358
1.505031,111.24988
1.593268,112.643394
1.5318499,113.80072
1.4990664,109.60521
1.503406,107.49492
1.5480762,109.80565
1.5262603,110.013275
1.5245268,110.439545
1.5872684,109.32995
1.5663613,112.38709
1.458144,109.10341
1.4712639,105.66193
1.3549379,108.855644
1.3734727,108.504166
1.4103491,110.218414
1.3685138,107.53374
1.3885868,106.29342
1.3273126,105.38927
1.3151566,104.79229
1.3083848,110.15274
1.2624117,104.76551
1.3029687,106.10189
1.2721732,108.22223
1.2813905,101.98749
1.2091606,106.15908
1.1638614,106.26785
1.3037664,104.135956
1.3454248,104.1087
1.2827042,106.90107
1.2154683,98.89695
1.2611463,102.990875
1.2411903,104.00639
1.2192931,104.36161
1.2108471,106.66655
1.2170936,101.63035
1.2830006,102.580986
1.2567257,99.20629
1.1647836,98.979355
1.2685237,99.607254
1.2651141,95.29019
1.1362526,102.09107
1.1892971,102.79102
1.2126558,95.801
1.1189357,97.53227
1.0583825,99.660965
1.0037425,94.11396
1.0321778,98.82964
0.9542033,101.42649
0.9816333,95.73213
0.90881497,94.379135
0.9249738,95.73853
0.9537625,95.31698
1.0020592,96.77393
0.96945214,97.21721
0.8457162,94.88167
0.85606587,93.98243
0.8429618,95.954926
0.84736764,96.74924
0.7944321,91.55146
0.8772735,94.78522
0.8544711,93.08544
0.7352003,95.291626
0.7642094,91.28646
0.8788301,94.23515
0.84544075,91.68008
0.81658536,95.61337
0.80353373,90.100395
0.79196817,86.581154
0.82745206,91.29144
0.79659826,91.55456
0.8303122,91.0407
0.71589136,88.23803
0.83000594,95.38899
0.8874596,90.64021
0.87652236,86.954636
0.740319,90.09941
0.7350227,88.04297
0.75252134,90.39213
0.8165651,85.1694
0.6527883,90.657135
0.6951571,89.940926
0.6473598,96.276245
0.7089456,89.17373
0.50964844,92.98621
0.6666957,88.62777
0.524237,85.28241
0.45796204,87.3829
0.49089018,85.18491
0.59186673,90.27203
0.403381,87.94401
0.59859294,90.00419
0.4470913,93.72115
0.43601662,95.61625
0.53425026,92.30271
0.5070796,89.62005
0.557254,90.54099
0.59645975,88.34018
0.5220827,91.72209
0.6301086,94.37742
0.61952275,94.6907
0.7412723,96.41164
0.8105167,98.89099
0.7854889,93.134186
0.81375355,95.78148
0.8847143,94.19557
1.0360922,100.07352
1.112092,99.04584
1.1085354,98.20762
1.2125175,100.00205
1.2439684,95.675865
1.3031888,98.01391
1.4435576,97.917274
1.5002993,99.753105
1.4455184,103.52337
1.5412437,102.192955
1.6165045,100.12405
1.5533372,101.26849
1.6550364,106.704025
1.7224677,103.72677
1.756462,102.605835
1.9066213,106.20713
1.8641776,99.95999
1.8063378,101.57503
1.8310156,103.621956
1.8846546,109.32093
1.9621265,108.58908
1.9539936,104.48132
1.9411091,110.21784
1.9342343,107.300125
1.9645032,104.49161
1.9662886,112.61221
1.9695592,111.291595
1.9342521,110.045265
1.9398574,111.26041
1.9346012,109.6653
1.9687533,106.416306
1.8706646,108.37253
1.9475576,108.056625
1.8948662,112.27933
1.9801856,108.23996
1.975806,108.48961
1.8386481,110.18225
1.8553563,111.02619
1.9847039,112.07968
1.8751439,109.446236
1.8400211,107.15744
1.8157512,106.53399
1.8662871,113.805595
1.7643856,108.34925
1.6885856,114.26298
1.6617078,112.08862
1.6421819,108.14338
1.7253474,108.03397
1.5583347,107.87509
1.6614333,106.72829
1.6736542,109.61805
1.5854441,107.07552
1.6440276,108.579056
1.6138628,105.25111
1.485562,104.43737
1.5405074,102.75867
1.5210103,104.577805
1.5133246,101.526825
1.5162543,104.736534
1.5439404,106.14734
1.402759,103.25415
1.382862,106.9343
1.565665,103.95767
1.4657878,105.41784
1.4174166,103.797455
1.4381127,105.48655
1.3905281,100.298004
1.4880089,103.33119
1.4133515,100.74645
1.4888889,101.49036
1.3560544,100.60781
1.2601253,102.6479
1.3322242,101.80126
1.369506,99.83128
1.3001201,96.040665
1.2579998,102.76917
1.2575659,98.67935
1.2688063,101.330864
1.1985008,97.99086
1.157328,94.95531
1.0957993,93.65289
1.0428268,99.98021
1.0910676,97.078606
1.0599155,97.63385
0.9441446,95.21236
1.0504233,94.89619
0.96628183,95.77898
0.88682127,96.91107
0.9188577,96.29857
0.88792515,93.74785
0.89999455,93.89937
0.8752628,92.96419
0.8117332,92.39208
0.80573577,91.946815
0.8614808,96.25908
0.84649235,91.91775
0.903366,92.63939
0.9470774,93.063614
0.908314,89.785194
0.8481467,92.807625
0.8669765,90.374535
0.83237547,90.26031
0.84369624,90.736046
0.7779196,94.39029
0.83716315,87.86789
0.7725092,88.9076
0.83835053,92.279854
0.723386,90.226166
0.67502385,91.22717
0.682761,91.94495
0.71581215,85.28924
0.60930127,88.439804
0.6131444,86.82929
0.63987464,90.597305
0.5582093,89.891655
0.45395738,85.90585
0.55583847,87.43487
0.46744162,96.58903
0.34456745,93.935974
0.5021663,89.68036
0.45517096,89.39812
0.36616623,88.96837
0.4100231,90.14933
0.37216425,92.09142
0.34842873,91.29182
0.45223263,94.826
0.5386685,91.33149
0.528808,93.38113
0.55757153,89.68321
0.47669387,94.899025
0.5467406,91.29701
0.42024642,93.69867
0.6805322,93.039246
0.64080834,95.632774
0.74619436,94.35702
0.80729973,98.887665
0.7758366,93.78176
0.8486969,94.96346
0.96673167,98.64596
0.9561977,99.53872
1.0962768,97.96985
1.0880995,99.00169
1.193373,98.65061
1.2690849,97.137115
1.2016398,101.99882
1.2984076,105.909164
1.3577378,100.58755
1.417013,102.741455
1.4859327,103.12381
1.4698246,101.03243
1.5579579,102.82134
1.6522692,106.17019
1.540362,106.489235
1.6816269,102.27007
1.6257163,110.78745
1.6486553,109.394516
1.7514145,110.07141
1.7548238,105.61174
1.59017,108.33593
1.6931409,112.45368
1.6605968,109.22828
1.6574607,108.15172
1.6189777,107.448906
1.6784699,107.61382
1.8171934,108.49561
1.6944718,111.62466
1.6610494,108.1225
1.6252028,111.49558
1.5742495,106.870735
1.6391724,111.44054
1.6504102,110.8274
1.5084438,110.07073
1.5865304,109.06627
1.6002434,113.95824
1.429309,107.883995
1.4799818,112.18923
1.5926012,107.964905
1.4538364,110.24446
1.4623837,108.17789
1.4025967,110.8209
1.451239,106.859985
1.418544,110.03253
1.3687742,110.70669
1.3460683,104.51412
1.3140689,107.50282
1.2609179,106.354774
1.0933505,107.7401
1.2693092,105.75113
1.2371287,103.89163
1.1652937,106.95122
1.0912144,108.7542
1.2088734,105.41319
1.1945256,101.89378
1.0505537,106.31335
1.068134,104.904396
1.0377431,108.508965
1.0863082,107.23203
1.1029104,102.9173
1.1049572,103.63424
1.0387567,105.74474
1.1125356,105.03688
0.9752562,100.4179
1.0599679,102.58649
1.0805647,100.83242
0.9400487,102.80123
1.0195507,101.09354
1.0317717,102.078285
1.0490553,99.307274
0.9556346,101.05802
0.8765306,101.68292
0.915439,100.36745
0.87071365,101.68178
0.8856417,98.22126
0.7251062,94.597626
0.87736696,96.63496
0.7574244,101.45345
0.77369714,95.19016
0.5811752,100.78636
0.6859298,94.81053
0.5641121,100.07534
0.5953059,91.993
0.574009,96.12348
0.5421251,96.32353
0.5249455,93.63753
0.51276,98.21582
0.39900908,94.08123
0.33362272,94.404366
0.45476127,92.16013
0.36178052,98.46383
0.42844918,93.29101
0.4619957,90.57982
0.41819844,95.160645
0.34466085,87.42882
0.31194806,93.696365
0.3104042,92.323074
0.39000258,91.93972
0.46857145,94.40406
0.39311308,92.66054
0.37645558,90.44458
0.29593495,91.61368
0.28518015,93.68481
0.28203294,90.03485
0.27975705,88.49637
0.3208191,91.782684
0.2738276,89.49614
0.29005596,92.05914
0.26314816,93.12119
0.17942429,87.59273
0.158504,94.382065
0.13759652,90.03894
0.123662464,90.59993
0.1721183,85.29189
-0.026927508,88.309326
0.07873094,90.780594
-0.0013640784,86.906494
-0.009846705,88.38009
-0.0003825996,86.25462
-0.08053671,92.27878
0.026839582,89.632835
-0.023860846,86.37686
0.05958115,92.64298
-0.06683411,92.46306
-0.0047446275,90.69205
0.03324702,95.33974
0.06541207,95.12864
0.066222526,89.51167
0.2599615,88.899666
0.14290848,89.93915
0.21380736,98.86203
0.20062949,92.66994
0.25264585,93.147865
0.25183013,96.0837
0.34524766,97.87924
0.49334276,102.023415
0.4446393,99.78109
0.6056737,96.3155
0.70690876,96.82219
0.7512918,95.086586
0.7978731,105.566246
0.7963146,96.62521
0.9198913,102.65798
0.9452169,96.07446
1.0504459,102.32862
1.0597363,105.14164
1.059548,101.474335
1.1170454,105.37739
1.201632,105.22353
1.2040253,104.51344
1.1526966,102.36675
1.269232,103.991264
1.2128875,107.71792
1.2909924,111.17234
1.4084411,110.67627
1.3181067,108.04629
1.2979461,109.67246
1.3909681,110.57194
1.3954651,106.64635
1.3530375,107.056526
1.4295907,112.427246
1.4379357,110.01432
1.4140946,108.78197
1.3362546,112.02797
1.4251707,107.044586
1.4566747,111.64169
1.3107884,109.79503
1.35084,113.31229
1.3329935,109.80152
1.2450517,107.588806
1.2729958,112.977615
1.377663,110.21536
1.341341,109.92454
1.3070691,109.68561
1.223288,109.84954
1.2955405,105.05524
1.2808131,106.5373
1.11957,110.3319
1.1949676,106.858406
1.1666924,105.932724
1.1680942,108.22976
1.1241628,107.962616
1.1386485,105.56177
1.1241602,109.74121
1.1118526,104.69499
1.028993,105.296196
1.0200007,103.95015
0.9889642,105.449875
0.9981809,107.81449
1.0885125,105.29957
1.0051389,106.16866
0.97294676,103.4136
0.93473035,107.91599
0.8524483,105.21807
0.9028415,106.913864
1.079465,102.51404
0.93010104,102.31063
0.945969,107.71195
0.9587689,104.47532
1.0321305,102.65581
0.9380943,97.55107
0.90038234,100.82223
0.96996945,101.05085
0.93356746,100.3805
0.84267855,98.675224
0.831253,101.522545
0.8244735,101.895874
0.87352705,97.41716
0.8093092,98.140915
0.7364817,98.6392
0.85826933,97.574875
0.71946555,98.065
0.77548736,100.00811
0.63737786,100.69266
0.67560405,98.806984
0.6836908,96.717384
0.6655966,93.57545
0.62041676,95.50563
0.55828184,94.43173
0.55511004,95.832726
0.5697411,97.80233
0.57184696,95.47048
0.45610318,95.8026
0.52005017,92.071556
0.50783473,96.52218
0.53131664,95.07324
0.45694968,93.72607
0.37142912,92.54304
0.45703506,91.56191
0.50387275,93.137985
0.5688771,92.10888
0.3652034,92.0737
0.5651346,92.831024
0.4864869,92.8706
0.41103497,92.420334
0.5311655,87.21989
0.4229136,90.88343
0.40378225,88.837685
0.5051402,91.64067
0.49232462,93.25719
0.52480185,89.65256
0.46052948,87.64662
0.4265247,87.83212
0.40497562,86.30322
0.4400245,88.32967
0.38458884,91.39106
0.44587693,89.70963
0.22019736,88.858826
0.33483568,86.13138
0.2560149,84.666626
0.28625998,87.44873
0.24267446,93.81815
0.17184517,87.291695
0.24788223,88.38438
0.305843,88.80583
0.16950947,88.54278
0.16966248,91.28547
0.17884083,91.03894
0.21155076,92.000435
0.27286753,94.15304
0.20563973,90.95101
0.23244277,97.459404
0.2781777,96.043526
0.29773706,95.94802
0.323421,94.86205
0.43679217,92.216324
0.40209496,92.305725
0.48274922,96.14773
0.5742868,94.294716
0.6038981,96.283455
0.6639774,95.696075
0.6235465,94.10293
0.82506436,98.831375
0.8242696,100.19399
0.9022031,99.11934
0.93655366,99.26638
1.1398085,100.4037
1.1257361,104.0967
1.1008763,100.26552
1.2009664,102.32897
1.2138747,103.915565
1.3160114,100.37943
1.387432,101.529915
1.4616292,103.66373
1.5470555,103.24209
1.4750273,107.817924
1.5990262,107.66721
1.5688215,107.03099
1.6492054,106.810196
1.6127855,107.01927
1.6999656,107.10696
1.601066,109.674614
1.6741589,106.10812
1.699604,109.293785
1.6574292,106.3266
1.6759484,107.624664
1.7365218,112.60992
1.7091175,111.44341
1.8007507,109.17644
1.7592567,106.973015
1.7271998,106.121376
1.7920666,109.19376
1.755152,108.10942
1.8230313,114.37565
1.7152463,110.11395
1.7510681,111.61862
1.8001689,112.40093
1.7085128,110.21741
1.7734458,109.983116
1.7448027,109.246735
1.6845047,110.74693
1.7350776,109.35277
1.6827378,106.236725
1.5612617,107.01329
1.6361444,108.23946
1.5838437,112.0367
1.5160528,107.14708
1.5730938,109.27654
1.5837021,107.58558
1.4824209,106.183754
1.6094791,107.61958
1.4754591,105.33123
1.5066285,110.12293
1.494622,109.36015
1.4111012,104.97348
1.623802,106.44252
1.4175186,103.928
1.5585959,102.404396
1.4367223,103.57643
1.414122,102.72481
1.4046625,104.99708
1.4493653,99.313866
1.4584727,102.42795
1.2587847,101.18505
1.4320943,102.314964
1.3041236,101.73596
1.5016105,99.50432
1.4306873,104.11465
1.3683738,101.76947
1.3691936,101.5933
1.3090072,104.218155
1.3291287,102.233406
1.3141873,102.37728
1.2533455,98.19995
1.3278189,99.86764
1.3254625,97.80292
1.2517496,101.11162
1.278391,101.02988
1.1205797,100.8022
1.2504238,98.05306
1.1642799,94.69516
1.132277,98.04611
1.0911698,97.68548
1.0589132,95.76967
1.0894473,97.710754
1.0315335,98.03057
0.92831683,96.60204
1.035152,94.35364
0.93669593,95.70901
0.90274245,96.008484
0.90568835,89.79906
0.8515688,94.13973
0.93588483,95.03788
0.96779835,93.44261
0.9184099,91.40099
0.8183009,95.79214
0.91253495,93.00334
0.8654659,91.371056
0.82125664,92.559204
0.8987043,94.13142
0.89333147,92.67048
0.95678097,90.800766
0.9045344,90.63601
0.9526428,87.01911
0.87159556,89.96386
0.89652574,91.93664
0.8774437,87.318344
0.78995544,90.608604
0.81778324,87.56844
0.79709196,90.47185
0.84504724,89.04973
0.80214316,91.49639
0.7109661,88.05545
0.639182,92.95006
0.76544917,90.021675
0.70879155,91.70617
0.6712105,85.54879
0.57504845,86.76714
0.64139485,92.571945
0.550596,90.59686
0.61101854,87.6714
0.55984694,93.1132
0.5909444,89.79158
0.55575806,95.15775
0.5818564,87.338524
0.57745224,88.53675
0.53347135,92.04303
0.5702425,88.58784
0.6622401,96.18859
0.6225491,94.47477
0.7280814,89.04905
0.6791068,92.14102
0.7507149,93.54995
0.75643516,92.50865
0.8653286,93.83306
0.95664585,96.02787
0.9977994,89.78391
1.1016133,94.58262
1.0208712,98.40987
1.1506336,97.8489
1.1233426,101.45731
1.2469194,98.40383
1.2755351,98.1177
1.3416009,101.63767
1.5474708,99.56162
1.5168198,103.508934
1.6160496,95.91461
1.699895,103.90266
1.5620533,104.248764
1.6489496,104.72273
1.7416945,103.0753
1.7766874,106.102
1.7095406,105.22633
1.8707664,102.1689
1.9500148,109.43245
1.8557729,108.25869
1.9033493,109.23274
1.9310789,104.47401
1.8810732,107.2839
1.8972458,110.16431
1.9237393,107.9671
1.9944357,108.32705
1.9498078,110.17067
1.9314678,111.82443
1.9183037,108.53929
2.023248,112.152916
1.9371326,111.57303
1.985604,106.849014
1.8844147,107.27846
1.9378262,109.72991
1.9037296,112.59973
1.8908662,111.95515
1.8543688,111.91643
1.854657,113.32514
1.9100622,110.86479
1.7756373,111.24865
1.8391382,109.00622
1.8980232,110.038475
1.6898154,106.96786
1.7304779,110.36449
1.7481959,106.643585
1.7393358,110.57496
1.676583,110.678696
1.7129431,108.05298
1.6859851,104.49581
1.7041316,110.9978
1.5495019,108.46193
1.5745473,104.502525
1.5790557,111.128654
1.4861784,105.43971
1.4293245,106.3753
1.5272226,107.61708
1.4179456,106.358635
1.458775,106.552605
1.4220346,104.84067
1.4265705,105.19719
1.333779,104.852936
1.3468543,105.240074
1.3922013,105.90929
1.4601934,98.894165
1.4641014,100.79936
1.3365945,102.55688
1.3891742,107.890976
1.3947533,103.24091
1.4235877,99.21449
1.3694803,107.032135
1.2760675,102.47676
1.3173745,99.33674
1.3730085,99.79858
1.2121798,101.367004
1.3348981,98.3068
1.1958911,98.428215
1.1764247,97.21252
1.1786298,100.48463
1.165812,103.664635
1.0659224,99.454475
1.0146668,99.80018
0.966003,95.757065
0.9252642,95.87831
0.95758265,94.0129
0.9928264,96.1034
0.9766294,94.169266
0.92605025,98.2695
0.82279044,93.18225
0.8011285,96.22077
0.7216521,93.41135
0.880357,94.58308
0.74077135,93.60882
0.7849897,92.718796
0.7794817,93.04246
0.6801318,94.84379
0.6980796,96.164665
0.6324712,93.74108
0.6799647,89.428406
0.5946324,92.5714
0.75880116,90.75893
0.6644176,89.38874
0.7593724,92.390076
0.67811614,91.66249
0.6735691,92.336784
0.70231676,90.57464
0.7017599,87.135445
0.71211356,88.030945
0.62555647,92.12459
0.66848785,91.556854
0.5973066,94.88117
0.661904,90.005264
0.5708256,88.06333
0.55379665,89.816765
0.5418129,88.548355
0.4841615,86.86056
0.3870695,92.074875
0.3950313,92.85968
0.33393517,86.82508
0.33662474,91.74988
0.3127132,92.074554
0.26918474,92.29171
0.28915417,93.46665
0.3030317,89.516396
0.24092683,90.29606
0.32346728,92.28331
0.1974322,95.46573
0.30157638,88.74137
0.262608,92.81948
0.27327624,92.54613
0.2535102,91.04647
0.26088634,96.6575
0.2817787,92.711845
0.42484242,90.74314
0.4195718,93.51182
0.3904016,94.518036
0.4839921,93.48594
0.526004,97.27208
0.69432354,93.16805
0.6908766,95.898315
0.7458491,98.13362
0.78512484,98.18316
0.96674645,98.95099
0.8787511,99.15829
0.9344639,98.42737
1.0332662,102.55057
0.99962115,104.13801
1.1699165,104.30483
1.209333,101.016136
1.2646918,102.31271
1.2497605,105.13076
1.2701385,106.18217
1.386629,102.48047
1.3297051,108.89302
1.3474348,105.9408
1.4079999,106.776535
1.4609946,105.38899
1.465532,109.743645
1.4377272,107.3647
1.4862508,105.457565
1.5209591,107.49035
1.4908997,112.017845
1.5516042,107.94619
1.508808,112.52571
1.4566698,110.60667
1.4641217,112.29922
1.5083001,110.844894
1.4821296,110.508194
1.5028768,110.14988
1.4359653,108.71511
1.4197302,109.39671
1.4240084,111.33723
1.5086006,109.88654
1.4263271,108.06904
1.3926082,110.3993
1.4954975,107.843765
1.2371063,110.5531
1.296202,105.0046
1.3324591,105.83111
1.264586,109.54908
1.2669135,109.26628
1.2019311,108.30965
1.2223498,106.84985
1.2022954,103.88692
1.1798067,109.21037
1.2287984,104.49891
1.2133858,111.51797
1.0608379,107.70936
1.150832,106.9632
1.0600048,111.0215
1.1177889,103.84325
0.9877358,108.60399
1.1300491,106.003044
1.1121722,105.88306
1.0896609,102.92973
0.9830718,108.12129
1.0323347,108.6838
0.94548523,104.274
0.9574269,105.980675
0.92661583,104.9228
0.9317294,102.61405
0.80794924,103.374
0.9105967,104.55521
1.0354004,102.21864
0.87276465,103.53925
0.89515024,95.56234
0.91673684,101.96657
0.9065982,97.25036
0.8741817,103.14684
0.86385775,99.505516
0.85497284,103.91714
0.82259554,100.387535
0.73223305,100.327896
0.6793805,96.286545
0.7777073,98.776024
0.6559949,101.64457
0.68538076,98.09093
0.7057005,100.58841
0.48593134,96.799675
0.5827672,95.46441
0.5788275,97.93521
0.56018317,98.771065
0.5203834,94.23402
0.45611253,96.59046
0.38975996,95.200226
0.33174488,95.544846
0.33428842,97.5691
0.43175486,96.883804
0.48286083,94.444374
0.40391958,94.65087
0.26867273,91.13635
0.35087833,91.46071
0.3032566,91.25264
0.34709585,96.157974
0.42058095,88.78019
0.34667268,92.23263
0.34764737,96.40411
0.39968377,90.825356
0.3775069,88.96504
0.34052083,91.90551
0.29138643,89.65081
0.32333714,92.87755
0.3633863,89.81495
0.30659407,95.047104
0.27689973,89.59735
0.28302136,88.5994
0.26757306,91.69814
0.21787314,86.46904
0.09157517,87.96625
0.19520219,88.52638
0.12551625,90.00163
0.101441644,89.5452
0.13562302,91.93378
0.09810593,90.08799
0.022111302,90.65148
0.05578218,88.65403
-0.057350107,90.77237
-0.10741685,88.53775
-0.010612254,84.40431
0.03661887,92.13656
-0.032724716,88.26176
-0.11962295,89.572266
-0.047504593,90.46259
-0.0052048215,93.37016
-0.007910077,94.98869
-0.02443802,90.22849
0.06505742,90.91561
0.02253982,92.02979
0.08440593,92.924484
0.087804444,94.28474
0.13888168,99.16641
0.26862797,94.99164
0.3304329,88.72651
0.32912153,97.109474
0.3296182,95.65034
0.49470946,96.52127
0.52435994,98.21716
0.5027549,99.69248
0.64269394,95.5943
0.7096632,97.90414
0.76777804,98.79303
0.7799909,98.77919
0.9559144,94.949295
0.9357392,99.87904
1.0168989,98.52
1.026722,100.17417
1.0631777,103.75914
1.1591741,96.187775
1.1882789,102.60165
1.1803972,104.97791
1.2631347,105.1075
1.382144,105.66217
1.2471037,108.4315
1.4199198,110.10056
1.4519393,109.69165
1.287459,101.9556
1.4643267,108.06825
1.4599471,107.94205
1.3989104,114.822014
1.4527934,106.11923
1.4271396,106.07821
1.447272,106.30943
1.4557925,109.93761
1.3509476,106.207245
1.4969783,107.88741
1.4825513,113.58008
1.3987882,111.436966
1.4537067,113.237976
1.3871223,105.30786
1.437029,109.05629
1.3459995,110.50876
1.360622,108.52333
1.3215507,109.69877
1.4155222,113.10607
1.4031018,109.124695
1.2438262,113.36343
1.3080466,109.29834
1.3095245,107.82106
1.2396852,111.03685
1.228461,110.345215
1.1382847,110.233116
1.297579,112.288895
1.0881675,109.77845
1.2034602,111.95891
1.2280222,110.633995
1.0733982,109.5472
1.1865494,108.07644
1.1317313,103.71851
1.0918232,106.39757
1.1913848,107.16329
1.111818,104.91845
1.1003138,105.62517
1.0846548,105.901665
1.1818312,106.0621
1.0203409,102.71137
1.157951,103.2829
1.0647686,105.42734
1.125543,100.56503
1.173125,103.095406
1.0036114,103.99356
1.0847782,103.909645
1.1369717,98.24322
1.0343595,102.3225
1.0670669,102.91814
1.0091809,100.10388
1.0655578,99.9947
0.99396354,98.15727
0.94332004,102.68706
0.94305164,102.030014
0.810572,99.02175
0.9465234,97.376686
0.8528309,98.417725
0.86665934,95.79141
0.82018864,97.50977
0.7887602,99.43945
0.74957484,97.696365
0.7713864,99.192825
0.7234323,98.27611
0.6703748,95.718994
0.7350764,99.530334
0.6692204,96.218346
0.6432643,94.34962
0.7167187,99.47871
0.72750926,99.43358
0.56072485,95.47311
0.6502923,93.78829
0.58441323,94.41039
0.6729425,93.297325
0.6637429,96.05986
0.63888836,94.32075
0.56913143,91.7483
0.62070656,94.01894
0.659548,92.64696
0.7358301,92.725525
0.6854897,91.70152
0.66836745,87.99512
0.5919388,94.83782
0.61728656,88.997574
0.644887,95.984985
0.75992304,90.4589
0.6686177,89.798904
0.68799454,89.118454
0.5152019,91.66377
0.5872725,88.86782
0.52798665,87.756134
0.60902005,86.66606
0.42744547,90.305664
0.3926068,89.49443
0.506411,88.00101
0.45531446,89.36603
0.41930187,92.40066
0.39406225,90.57724
0.44503132,88.39324
0.39966395,90.19294
0.41393,88.146965
0.31234676,88.915955
0.39662287,91.59006
0.25055566,93.6902
0.34575418,91.43062
0.33949003,89.72197
0.3136562,87.25695
0.37357697,92.19674
0.34829438,90.89402
0.3862594,92.78993
0.41900933,97.992
0.4950144,90.785095
0.5470998,99.16423
0.628979,91.82274
0.6624089,97.54726
0.68790823,96.80826
0.75150573,96.94969
0.81145334,96.74603
0.9716919,94.980515
0.94463617,100.82791
0.9967626,101.22826
1.1123917,101.53302
1.1714189,95.677925
1.2588224,102.75567
1.2915813,104.03123
1.3925614,104.3221
1.4157298,105.71105
1.5163481,102.12879
1.5292047,104.46789
1.5694901,103.71721
1.5887529,113.0046
1.5550373,107.44451
1.6737237,108.043175
1.6546199,101.39967
1.719648,106.528694
1.7807031,106.9799
1.7662116,108.55439
1.7942876,104.61446
1.8159049,107.21092
1.8114544,109.0582
1.8263891,105.878716
1.853812,111.74171
1.776671,112.73708
1.8842615,110.63902
1.9261154,108.82503
1.9010273,107.142
1.9693692,110.68295
1.9403023,109.78453
1.9403771,109.48777
1.88791,108.86975
1.9932,110.9938
1.9010375,113.380295
1.8730838,108.664055
1.8884811,111.39946
1.8222613,109.537415
1.8956548,110.92726
1.7655526,107.56743
1.7187992,107.44461
1.8369014,110.968864
1.6456293,107.77018
1.7583846,108.34656
1.7654124,111.0027
1.6966405,108.44651
1.6164705,105.57075
1.6778655,107.74767
1.6921388,108.295166
1.6089439,107.025116
1.6522899,106.77605
1.6015816,109.49645
1.5697775,110.40094
1.4576331,105.19117
1.5461183,109.414696
1.595331,106.30768
1.4528359,106.19469
1.4550105,103.145065
1.5107962,100.2659
1.4677124,100.27963
1.4193124,104.99618
1.6058321,101.9656
1.5918529,104.923134
1.549091,99.12601
1.6215712,101.16809
1.4719036,101.70583
1.4934717,100.10415
1.4124205,102.382706
1.3837725,102.37136
1.465922,103.70716
1.4464778,101.067245
1.4069136,99.32162
1.4062003,98.267006
1.3466309,99.11882
1.3541899,98.739815
1.2178158,98.103325
1.296461,94.682335
1.2446629,98.06433
1.2060835,97.98087
1.2239381,99.48904
1.1408876,97.23153
1.1340517,99.986984
1.1588646,98.36464
1.0954148,98.78039
1.1405481,94.93343
1.0993202,93.44653
1.0018173,94.78318
1.0259643,100.20409
0.9509961,97.99821
0.9285016,94.93683
0.95920837,92.13069
0.90176046,94.54236
0.9424161,92.453224
0.8622564,98.175934
0.90765065,94.79363
0.94458735,93.40472
0.9007844,90.01403
0.94555277,87.60418
0.9016559,91.24788
0.9322644,87.177704
0.92635965,90.06534
0.9008403,89.047745
0.96941787,89.05597
0.84869397,92.79628
1.006305,90.09913
0.89401686,89.35654
0.8753612,88.59485
0.89763933,89.04203
0.91504866,89.2591
0.8198886,88.53769
0.7885073,91.26083
0.80178916,86.996
0.7755515,90.3461
0.72460544,87.79198
0.751635,89.931274
0.6152545,89.85649
0.6535455,90.817345
0.6008433,86.95295
0.54179704,91.60948
0.59168774,86.73677
0.5577022,90.892395
0.59245133,86.09264
0.38925245,92.47519
0.48247272,88.23245
0.5349874,90.8189
0.53320396,93.94174
0.46949005,90.270645
0.51268333,91.856064
0.605535,92.26591
0.5065724,94.07173
0.6717651,93.194534
0.7033709,95.272156
0.56534106,96.192825
0.80323464,94.324875
0.860321,95.28803
0.81109816,99.96448
0.89433396,94.7038
1.0297683,96.11429
1.0973811,98.05951
1.2129048,100.8228
1.1497402,100.46202
1.1091933,92.80027
1.2627704,102.75441
1.3603383,100.03428
1.4017378,100.17741
1.4530504,100.018394
1.4413669,94.941925
1.5508909,103.6628
1.5495819,105.16192
1.6387422,107.15508
1.7095546,107.480835
1.736034,104.09361
1.7545931,107.16363
1.7891814,105.2009
1.7281883,107.50863
1.7919652,107.92859
1.7870055,106.83199
1.814553,109.98054
1.8909339,106.30388
1.8174244,109.73217
1.8877544,109.132225
1.881394,109.595276
1.76131,109.94054
1.9081014,111.13752
1.8241678,111.50403
1.7864612,110.59389
1.7749786,104.245735
1.8472174,111.43121
1.8420686,111.56918
1.7747712,109.27383
1.7726809,108.486465
1.8494008,108.55007
1.5891867,111.978004
1.8430226,110.43121
1.7029439,115.33758
1.6487968,109.37766
1.7139943,109.58739
1.589065,107.96112
1.6686046,111.04293
1.6676925,109.73687
1.4858986,112.93742
1.5937936,111.98321
1.5347573,109.568
1.5195065,105.86859
1.4737052,104.95552
1.4373686,109.05126
1.3817092,109.75512
1.428619,107.74768
1.4821314,105.661736
1.3357795,107.9398
1.2830596,104.81443
1.2585015,108.49624
1.3072928,107.0748
1.2697237,101.90281
1.3661724,106.79994
1.2833846,106.33232
1.3126622,104.97585
1.3109392,101.835625
1.2882077,102.55485
1.2943751,98.49669
1.2331265,101.46134
1.1780412,101.53459
1.194638,102.577156
1.116806,101.76138
1.1610177,100.28488
1.0715888,100.598114
1.1517931,100.6404
1.1377656,99.51878
1.0443702,100.909836
1.1420134,102.606865
1.0185314,100.23632
1.0616903,101.04431
0.9677491,100.36515
1.0758402,100.130196
0.89155966,97.68637
0.78849363,95.343544
0.9166199,99.20259
0.7893838,94.58922
0.8781921,99.48815
0.8203303,95.53473
0.7549552,98.01097
0.7298292,94.01113
0.71329266,93.02102
0.65549016,95.278206
0.6768257,94.412384
0.6109587,93.08592
0.58235943,91.15144
0.56859,98.85644
0.57182616,89.72185
0.48188213,91.027565
0.59671146,94.960396
0.5215316,94.46291
0.576655,91.6928
0.55365366,90.924614
0.4923711,91.04553
0.43284282,95.36318
0.48415285,95.14352
0.49461803,87.47584
0.48185155,90.8888
0.41543293,91.833885
0.5672643,90.533615
0.5175069,89.26042
0.4864089,91.95914
0.6080207,88.04494
0.48114473,89.71335
0.4106815,92.45254
0.40478152,88.50927
0.32897946,90.778404
0.24659427,88.63061
0.3308622,91.28091
0.36037585,91.90076
0.17411657,87.911865
0.14856227,90.73087
0.23267682,87.790016
0.08134036,88.36982
0.016056862,92.34128
0.19153032,90.349594
0.091210105,90.03559
0.1671268,87.94883
0.074431874,89.185875
0.08435417,92.69037
0.06771533,92.03622
0.09927373,89.83263
0.12562399,89.47768
0.16714476,90.78725
0.043240644,92.6019
0.24728413,94.17754
0.16472006,94.22705
0.2798191,94.52979
0.33798236,97.834564
0.31948364,98.03891
0.40686303,95.8108
0.46308643,94.14983
0.4912631,96.52232
0.64889944,102.49651
0.6228125,98.167435
0.706859,103.613235
0.7898787,101.02994
0.7736355,99.71966
0.8523484,101.179756
0.98433816,102.13794
0.9135161,99.076836
1.0850415,102.072945
1.133521,101.65325
1.1136272,99.82004
1.0716778,106.208015
1.1624619,104.81248
1.2329029,104.65394
1.267324,105.73731
1.308107,105.104675
1.302878,106.671486
1.3541663,106.021675
1.3394814,106.64101
1.2614843,107.074814
1.3607185,104.38244
1.309026,105.623024
1.4118235,112.94212
1.4769675,110.46427
1.4062964,109.41778
1.5100818,109.44297
1.2729193,109.81698
1.3621429,109.01522
1.440666,111.526535
1.3177696,109.728966
1.4569156,111.54827
1.3893819,111.314285
1.3237356,113.06474
1.4235967,109.154854
1.3475175,110.58662
1.2436528,113.5951
1.3060657,110.64246
1.2499639,116.215034
1.3255261,108.01162
1.319793,109.16612
1.1827466,107.762505
1.2064134,107.418015
1.2110624,108.350845
1.1768392,110.98724
1.1522603,107.65121
1.1474365,112.68766
1.1605521,105.6354
1.0069569,111.63468
1.0654225,107.671585
1.0835929,104.8647
1.0382423,108.84315
1.0990413,102.23397
1.0124536,103.12634
1.0102108,105.005035
0.9929152,104.40724
0.9084364,103.25882
0.9506253,107.11404
0.9201378,105.59964
0.894055,103.21785
0.8770752,105.2113
0.9112871,103.73872
0.9252492,104.26025
0.91777164,106.520096
0.8448073,101.9203
0.8443106,102.41731
0.8815071,101.47167
0.86945105,104.89533
0.81128746,103.62542
0.8025659,103.14148
0.77650803,98.18102
0.79366004,102.13794
0.7830111,101.05059
0.7762907,100.410446
0.78335893,100.204414
0.6613156,99.677826
0.59560186,101.18188
0.6095341,99.40575
0.6599932,93.04905
0.59345454,97.843956
0.5759417,91.42151
0.6010062,97.114716
0.46587217,97.80785
0.5241132,94.637436
0.44156036,98.276764
0.49077442,93.89509
0.5020133,97.09762
0.4637849,94.86466
0.40943104,93.48441
0.45825252,94.046524
0.3717245,95.77089
0.45235032,97.16232
0.38660544,92.16019
0.33171135,96.61582
0.30311668,93.980286
0.35326442,94.22241
0.3937107,92.53038
0.2721283,95.67816
0.40538114,92.836494
0.33101523,93.69134
0.3236499,89.48113
0.32800925,96.70295
0.2484645,86.11527
0.35284775,90.192764
0.35484046,93.04471
0.41499624,90.92751
0.36038002,90.228165
0.31155637,90.328384
0.23691054,84.81388
0.28375742,88.17848
0.19595675,90.850586
0.19507425,86.338455
0.12858862,88.18215
0.31320223,89.56128
0.15880218,90.03345
0.18171449,91.781746
0.10310467,93.29717
0.16436414,88.14042
0.04199659,89.15093
0.13525628,87.077515
0.081762776,93.08528
0.12649995,88.68804
0.020696113,91.066246
0.047045104,92.79911
0.056288548,93.472786
0.06689332,90.398315
0.106735095,88.90094
-0.018268287,94.797485
0.08341066,92.08938
0.14578378,91.372635
0.14266445,93.665276
0.2817136,94.99916
0.32190394,98.03061
0.3354632,91.41314
0.41847646,96.21244
0.4756615,98.71123
0.58063644,94.71791
0.54624736,95.28645
0.7495068,96.32366
0.66449624,95.45096
0.8256167,97.160835
0.80139095,101.006096
1.0493102,97.230194
0.98596054,102.14837
0.94645834,100.35235
1.1103389,103.949234
1.0430604,99.32949
1.2271858,102.13502
1.2876656,105.71318
1.3360424,104.8515
1.2493527,107.28081
1.345598,104.27849
1.5097989,104.04537
1.4446436,106.29458
1.3799863,110.05017
1.5133276,106.18249
1.4433273,110.33256
1.4653738,106.29582
1.4358609,110.30269
1.4774798,109.44933
1.5620677,108.47143
1.5758796,111.48521
1.519314,107.54787
1.6065696,108.12234
1.5310339,112.74059
1.5840452,108.38902
1.6409726,110.77611
1.571134,109.42536
1.4926878,109.347206
1.6212561,107.91758
1.5236835,110.96447
1.6397723,111.399185
1.5226114,108.41365
1.4381424,108.94451
1.5695193,111.31957
1.4809668,109.66358
1.5061402,109.37013
1.5027032,112.7415
1.4891901,108.80456
1.4918128,114.35176
1.3977312,111.09277
1.4482723,108.76435
1.3568444,110.40352
1.3082749,106.82159
1.4286164,102.437546
1.3484845,107.056114
1.3138838,105.522385
1.3490785,107.97139
1.2450103,106.00496
1.3358952,106.37855
1.1678734,105.05065
1.2676542,103.60139
1.2490896,105.06238
1.2091724,101.51437
1.2839575,104.31019
1.2182904,106.291695
1.2657018,104.26786
1.2148272,101.91016
1.3270538,105.51822
1.221374,100.5914
1.2614498,99.99334
1.1874213,102.2739
1.2357826,104.40782
1.1960703,103.09588
1.1771173,100.84918
1.2648643,99.50459
1.1860198,104.37523
1.1950423,102.23065
1.2195033,101.10785
1.1669251,101.29923
1.1042911,95.99152
1.1626269,98.41104
1.0539305,100.95935
1.0301398,95.23505
1.1371785,97.91012
0.88593066,93.43878
1.0772034,96.97603
1.0839386,93.214066
0.91116714,98.29114
0.9113851,98.473206
0.9897111,98.13132
0.8937333,93.4471
0.8333572,93.88668
0.7999195,98.042885
0.7944625,96.90259
0.79568946,93.14544
0.74103606,90.25259
0.7337783,96.194824
0.83986056,94.027275
0.8368294,92.350845
0.6962198,95.81171
0.7139994,92.59075
0.8367454,92.3605
0.8248169,94.05567
0.7346789,91.809616
0.7789489,92.270584
0.8089588,90.53615
0.8580917,90.17651
0.75173146,91.63791
0.84454507,94.24313
0.74626714,89.50251
0.84833676,89.31853
0.76722825,88.463326
0.74794996,87.66459
0.7733531,94.28412
0.7640141,89.38821
0.73655325,87.76471
0.69116664,92.2809
0.6422416,89.76634
0.628912,85.107254
0.59741765,88.16931
0.6658815,89.81665
0.6031955,87.66949
0.6561132,88.568275
0.47097695,89.0453
0.46699747,88.95938
0.43069488,92.81065
0.54948735,91.60886
0.38975623,89.5638
0.47854972,93.31771
0.43379664,87.25604
0.47279382,95.382355
0.52422667,90.14511
0.62317455,94.268936
0.55092144,94.03897
0.58430636,93.933945
0.67884845,95.66111
0.63953364,94.79267
0.6733296,94.77603
0.8345016,96.79097
0.84513235,98.71244
0.96702653,92.61117
1.0006802,95.49086
1.0493017,97.8228
1.0904605,93.993996
1.074729,99.446846
1.1385417,98.91774
1.2641131,99.32173
1.2215183,99.297295
1.3340952,99.115425
1.4160131,103.078316
1.4567058,102.72945
1.5003775,100.78458
1.5859368,103.00631
1.691338,99.11212
1.7263796,108.37734
1.7587171,105.98583
1.6291558,105.27943
1.9231172,105.160355
1.7777382,105.14117
1.9190794,105.39476
1.8232124,105.57235
1.8101581,107.17631
1.9455882,105.84433
1.8637766,106.19701
1.9322253,109.354195
1.9690022,109.80955
1.9531081,112.3852
1.9718571,110.80747
1.9312427,103.232994
1.9328159,106.631485
1.9328059,109.64194
1.9588927,111.44597
1.9324589,110.28418
2.0004215,111.762375
1.9133334,108.74402
1.9081717,114.556946
1.932759,107.86564
1.8988135,113.90093
1.8567109,109.1636
1.8420881,109.29108
1.8606424,114.11541
1.8372008,109.45596
1.925326,105.58852
1.8251345,108.48691
1.8581061,106.42236
1.7205945,109.30474
1.7786521,107.45862
1.6960458,111.33158
1.653286,106.10072
1.6920629,107.355545
1.6102982,105.078766
1.5753222,107.38863
1.6910763,110.3365
1.5234584,105.753265
1.6064153,106.46171
1.5435909,106.63645
1.5143421,106.49323
1.5295442,108.64409
1.5438825,101.92979
1.4226735,106.634735
1.5934113,103.622604
1.6141347,100.626755
1.5348374,104.39278
1.5204965,105.866455
1.5125202,106.16398
1.5291394,103.74328
1.5215394,107.228226
1.4672883,101.9778
1.3976657,106.14472
1.4528989,104.94045
1.4041631,103.5093
1.3243245,99.26243
1.40944,103.70699
1.387239,102.39876
1.3455119,99.14871
1.3129122,101.03682
1.3719645,99.20612
1.2036493,95.43085
1.3064612,97.23378
1.2067493,96.54545
1.1696218,97.08461
1.2462999,101.5329
1.098654,97.41755
1.0999622,98.37891
1.1197053,96.032425
1.0537063,96.54729
0.97073144,95.58045
0.99820405,97.32297
0.93715847,95.56522
0.87589586,93.99313
0.9843422,94.21632
0.93856776,96.20618
0.889647,93.6485
0.89143527,96.09049
0.85363346,93.97485
0.8108623,94.61983
0.91969097,90.35469
0.81108963,92.51182
0.7563778,91.980515
1.0279658,92.97282
0.8849625,95.03612
0.88976145,90.87517
0.77790314,89.778496
0.92976403,88.76387
0.8911195,88.94796
0.85231924,90.0724
0.8133152,85.119125
0.66859263,90.30632
0.7477368,87.18933
0.630083,89.074135
0.7723188,86.905594
0.6746537,87.54336
0.672817,90.8884
0.7310779,86.06974
0.45911923,87.843636
0.8029895,91.556595
0.5491846,93.40339
0.49029645,89.994896
0.603366,90.31762
0.49360797,91.23486
0.46296898,87.60184
0.44879422,91.67397
0.44829106,88.19085
0.45807374,92.44285
0.43946922,89.95586
0.3998364,89.98684
0.26217487,89.61569
0.4246587,88.62059
0.33263698,94.23797
0.4135773,96.81689
0.44625306,92.65991
0.4644362,84.88886
0.51538724,96.23945
0.55599964,92.03492
0.59154516,96.50311
0.6660175,98.577484
0.7328874,93.3919
0.6504793,94.90676
0.7222654,94.33392
0.9062833,96.01489
0.9135987,93.54572
1.0223739,98.41718
1.0673952,104.525665
1.1894614,102.61683
1.1550895,97.415344
1.3368798,99.25122
1.2538528,99.93705
1.3075238,101.82797
1.3592951,102.09508
1.4852898,100.84146
1.4562569,101.41427
1.4488068,104.131805
1.4701258,107.79972
1.563505,102.72721
1.5391734,104.25727
1.6046073,107.28863
1.631758,106.70668
1.60809,110.655205
1.6354004,108.10461
1.6936285,109.33272
1.6833977,109.70681
1.6684211,109.050385
1.6824198,112.823616
1.6281524,110.636
1.7076385,109.21052
1.6673405,108.51751
1.6321808,109.3529
1.677616,105.95691
1.6191981,106.7827
1.7020259,107.7733
1.6821966,110.72719
1.772096,113.257416
1.530997,110.45541
1.7526412,110.37806
1.6122175,113.60062
1.566558,112.293976
1.5022244,110.75787
1.5384921,107.53984
1.4197392,108.16671
1.3692181,109.72847
1.4302067,110.629585
1.4127818,106.88278
1.4448422,111.43238
1.3841628,107.73272
1.3239836,110.7322
1.2185371,105.52254
1.2966348,104.498566
1.2292135,104.84921
1.2355218,108.91171
1.1920327,109.796814
1.1511499,109.01963
1.2201796,107.468925
1.1418567,104.94594
1.0802022,111.728966
1.2067908,102.7259
1.2252101,109.83215
1.1603001,104.345985
1.1453016,104.017136
1.1879045,104.81591
0.9422089,106.50643
1.0714879,101.265015
0.9662889,98.96736
0.9334367,102.964806
1.1179454,101.10225
1.0270064,101.10641
1.054365,102.48093
1.0230037,99.05079
1.0125971,100.5956
0.99432504,100.990456
1.0162278,100.14931
0.87440574,103.50404
0.7747145,99.543365
0.7936402,103.00114
0.85011864,102.76604
0.76264125,97.708084
0.7622397,98.55454
0.7149868,93.83509
0.6726021,99.12919
0.6479541,100.01857
0.62552685,94.15871
0.60487664,98.93328
0.58746004,95.69692
0.57102257,97.744804
0.5191834,97.62125
0.53575754,98.67908
0.5374448,97.147835
0.4706038,94.43953
0.38364837,93.70969
0.5418762,94.38801
0.47982448,90.809364
0.42856425,92.19109
0.4215465,92.14053
0.40084398,94.3002
0.3909566,95.365265
0.36107385,88.75035
0.38172254,90.69919
0.4009261,90.754135
0.36787578,91.023224
0.38868803,91.11975
0.3103735,91.1726
0.34327736,89.67839
0.3471265,88.568756
0.35461792,92.00928
0.33439413,87.1221
0.34590992,88.66768
0.2873047,90.51767
0.2580265,88.37259
0.3292651,94.19373
0.33280706,84.809105
0.2355796,87.272285
0.20261383,90.43315
0.2004341,87.361984
0.07718,92.33603
0.26071712,91.41594
0.071250245,90.78588
0.17046365,91.494965
0.05431759,91.19468
0.017378468,88.901215
0.02841078,89.73577
0.063486606,89.19098
-0.053493984,91.85135
-0.012406677,91.42199
-0.077834934,86.30421
-0.0002928404,89.323425
-0.01872405,89.03422
-0.049395375,94.67352
0.120464265,93.333786
0.03134531,95.03792
0.081115775,96.456665
0.15205783,92.666534
0.18419735,94.027504
0.2815872,92.136284
0.31599525,98.87127
0.31961817,99.34425
0.43905514,96.699234
0.49163842,97.740845
0.540029,94.98476
0.5385925,96.54567
0.57579386,103.15196
0.6975394,99.48459
0.7863833,100.104355
0.73800296,105.281075
0.86839974,94.64418
1.054416,99.66635
1.0310143,104.18241
0.9402422,102.327484
1.140784,99.79042
1.163523,104.47246
1.1156542,104.45609
1.2954131,104.76394
1.1868477,106.93989
1.2555354,108.12323
1.3508812,107.862564
1.3427154,108.38256
1.261789,104.94718
1.2651348,109.90008
1.3948475,110.48657
1.2697209,105.263466
1.4271755,112.8547
1.3206121,107.39595
1.3914114,105.44184
1.4024166,108.67458
1.3911531,106.68024
1.2802271,110.15184
1.447877,109.20696
1.4119418,112.29117
1.3550926,114.501854
1.3745804,106.728455
1.3675851,109.11925
1.3494936,115.891624
1.2936031,113.54708
1.363213,106.80453
1.2819221,107.075836
1.3527439,115.48218
1.1931902,109.30485
1.1759531,111.278114
1.26183,105.05751
1.239162,108.3254
1.0739237,106.364525
1.1894182,109.870514
1.166593,105.20867
1.1558642,107.64958
1.1163787,105.9572
1.1269042,107.00212
1.1092955,106.488144
1.0345035,106.88419
1.0490472,105.19424
1.0375303,105.25968
0.99397135,108.54738
0.92941326,103.40335
0.9571084,103.51883
0.94591326,106.59232
0.9616011,109.91745
1.0249087,107.385605
0.96659267,109.10492
0.94899803,104.855415
0.9560663,103.92441
0.8927326,105.179535
0.9796989,103.39918
0.9171519,99.93498
0.8746667,100.45336
0.9263243,96.64838
0.98402107,99.690346
0.97332245,100.32448
0.9411093,101.14831
0.7553711,101.09655
0.85654217,97.61422
0.8786798,98.04296
0.82103056,98.94692
0.76326925,101.430756
0.7589816,97.36287
0.75772595,98.37056
0.86368155,96.83101
0.6860451,99.709045
0.68486,98.79591
0.6416542,96.271935
0.66089904,96.82769
0.55177134,93.485245
0.5622664,99.69221
0.6210954,95.340324
0.47579488,95.09721
0.53882676,95.38865
0.61874753,94.46414
0.55121243,94.84206
0.38948813,95.24035
0.39988372,93.15371
0.46821424,92.36924
0.4525244,93.84839
0.4317036,94.21499
0.5146012,92.62311
0.49328962,92.1139
0.45326898,88.96464
0.5334813,89.46603
0.4971445,95.60144
0.47708383,93.885
0.49292347,88.08972
0.51725,92.06494
0.4436314,93.15685
0.4250931,90.96642
0.54857874,88.256676
0.37451833,87.82841
0.4145298,92.1959
0.5148023,88.666145
0.32788476,87.34546
0.30846068,91.39903
0.38360906,88.4194
0.34951314,92.62108
0.27282915,89.636406
0.23533194,90.18045
0.25126773,91.90726
0.24957481,89.97897
0.25156567,89.71672
0.21984236,92.87909
0.21653472,88.42808
0.13552648,86.15348
0.120825954,89.55237
0.12841761,88.77725
0.15481703,92.204056
0.20855522,86.15181
0.10387482,93.31919
0.22429785,88.059135
0.18925922,92.563324
0.24397427,92.87872
0.32326454,90.47676
0.27257577,91.310234
0.2797939,95.79849
0.39406714,96.29188
0.47582373,94.352776
0.51374894,92.3639
0.6673741,94.18873
0.5785579,94.49342
0.70160854,91.97304
0.80172867,100.0535
0.8206619,94.248695
0.9482148,101.396545
0.99357176,101.49313
1.0268819,97.57012
1.1194853,99.93973
1.1566551,101.82052
1.2415963,101.888824
1.2678108,97.41111
1.390298,100.651375
1.3906915,104.49856
1.365175,101.80476
1.4382819,99.31072
1.5956297,104.48565
1.4686632,105.02238
1.5519592,107.35331
1.6198684,104.585434
1.6623958,112.06593
1.6110387,107.28579
1.6211758,106.8848
1.6793747,110.68641
1.652656,109.72062
1.8034853,110.73017
1.7491559,103.80622
1.6317197,111.194885
1.7605263,108.53753
1.7230434,109.265175
1.8273093,112.510254
1.7427517,109.08793
1.7073975,109.49767
1.8356372,107.364296
1.7056048,108.71825
1.7259492,111.249596
1.7575408,109.20536
1.8098433,109.281715
1.7172292,109.74684
1.6565721,110.06096
1.7240655,109.81537
1.6333354,109.55726
1.6173264,109.99786
1.6470844,108.83679
1.6669616,109.37733
