ppg,abp
1.0860263,91.903435
1.0949476,92.689384
1.1669766,91.9239
1.1869473,94.06128
1.3763928,92.66168
1.2437408,95.755
1.3938608,92.70709
1.4901744,97.00267
1.4504155,95.781784
1.5459781,97.22582
1.5302887,100.1231
1.55072,102.85668
1.6616704,100.01693
1.5675839,103.65282
1.6975294,101.76603
1.6865499,102.37977
1.675908,102.860825
1.6379421,105.94952
1.7160167,106.73432
1.8437597,105.7996
1.6979462,105.47628
1.7786789,107.31585
1.7965479,105.95958
1.7447681,106.12852
1.7537298,105.78773
1.7389452,104.63951
1.7864686,107.33301
1.7722107,107.79537
1.7398496,109.972466
1.6731852,107.613525
1.7458637,107.96933
1.7610155,108.01598
1.6807349,104.840324
1.6635113,106.966515
1.6976686,106.58298
1.6254442,107.43652
1.5537431,106.97845
1.634563,107.90303
1.5701059,103.29895
1.5172582,104.46465
1.5284278,104.13493
1.5440625,105.303986
1.5015613,100.72891
1.5068678,103.0035
1.4515643,100.12371
1.4816557,104.310196
1.4831965,102.51008
1.4730034,100.58038
1.4474319,102.5546
1.4935385,99.381424
1.384056,103.612595
1.4746206,98.90131
1.4443586,98.90273
1.446824,97.04498
1.4546796,96.81681
1.4199907,95.29361
1.3839512,96.65993
1.3835341,95.36685
1.3846116,94.06797
1.3777916,93.46623
1.2944305,95.54869
1.333903,92.08637
1.3315032,94.185165
1.3924669,89.21648
1.3521903,92.14632
1.2584232,90.257545
1.3068311,88.969505
1.2477076,90.72882
1.1421483,87.47462
1.1954098,89.68381
1.1336145,87.998604
1.0988611,85.105446
1.1569641,86.13162
1.1036049,85.708786
1.0689472,83.534996
0.9868208,84.51049
0.9864006,85.100525
0.99864364,85.53486
1.0181267,83.73111
0.9180438,82.1625
0.89115447,79.88901
0.9063232,82.13674
0.9030161,79.83341
0.93010426,79.79349
0.83265483,80.52548
0.89459,76.77414
0.8862956,82.41968
0.95102006,79.10932
0.98963535,79.30019
0.94275993,78.91909
0.916633,77.52836
0.94550085,78.785706
0.9528517,73.919365
0.8624486,74.87749
0.92422265,74.99568
0.86783725,74.07605
0.9188287,73.55502
0.83319503,74.496025
0.82524604,76.426346
0.8495264,70.88033
0.8783647,72.40292
0.85057634,73.215
0.7074481,75.653465
0.72452956,74.25516
0.7817523,73.1809
0.71070695,71.38536
0.62133366,74.571075
0.64726084,69.527565
0.56007326,69.472755
0.6379201,73.92912
0.58080524,74.330055
0.63744956,74.175186
0.5400632,74.316826
0.59277767,74.06241
0.59868556,73.548416
0.5275049,77.45603
0.5763961,74.10554
0.5565723,76.68383
0.6705422,76.175316
0.6495103,78.60261
0.6543285,80.11924
0.70720196,78.875626
0.80335045,78.39791
0.77790374,80.57993
0.91331357,80.34631
0.9739825,83.28434
0.9882972,86.57236
1.0937889,83.009926
1.1244166,85.095695
1.22419,87.33026
1.2629402,86.57125
1.3646835,87.355125
1.4135101,90.21684
1.4212534,90.41567
1.5236979,94.926125
1.5406511,92.98942
1.5794748,93.47636
1.607877,94.81386
1.680064,97.80175
1.7350242,96.838066
1.7681507,98.18307
1.8715163,99.38353
1.7437823,98.3002
1.7815728,99.911385
1.8792963,99.4694
1.9394804,101.96374
1.9419554,101.98589
1.9022971,104.3825
1.9187514,104.54593
1.965806,103.297264
1.9452378,105.14496
1.9514313,109.0867
1.9734759,104.831505
1.9482381,106.49262
1.9892669,109.825356
1.8999742,103.19944
1.9720241,108.15454
1.8743815,104.56119
1.8703388,107.600784
1.897467,105.295975
1.9281963,108.5316
1.8510782,108.176476
1.8352625,108.16291
1.8782175,108.93068
1.7845042,107.85264
1.871517,106.1031
1.8144935,108.97987
1.7704916,107.72578
1.7291323,105.38842
1.7718201,104.41371
1.7003341,104.30472
1.5192623,104.70924
1.6139612,102.8436
1.5033438,105.333664
1.5840564,106.4243
1.6424062,101.14082
1.5204198,103.65358
1.5430808,101.29892
1.511782,99.87595
1.5958878,98.78504
1.4592652,102.410835
1.5175134,95.13197
1.4974321,98.69455
1.476333,98.899414
1.5018059,95.25376
1.4051166,99.0431
1.4929237,96.24587
1.4255763,98.112335
1.3675855,95.214226
1.3431122,92.42978
1.348684,93.35662
1.3116633,94.48023
1.365896,94.361694
1.3174071,92.182755
1.3196112,93.85937
1.3359991,92.30537
1.2961919,92.60528
1.2387915,89.25452
1.2508004,89.73064
1.217011,88.94413
1.0994248,88.774284
1.08607,87.76044
1.1035675,84.95531
1.0712225,84.22001
1.0903009,89.96109
1.0171343,83.8421
0.91026145,86.6774
0.8800245,85.59739
0.8877672,85.31547
0.87857676,84.3069
0.79797524,85.37919
0.880895,80.20402
0.80247235,82.41652
0.7857806,80.371956
0.7650844,80.12463
0.7456121,81.6413
0.85562485,82.53584
0.84718436,76.85954
0.6998097,76.16569
0.71957076,77.38336
0.8022667,75.73596
0.769241,77.58971
0.73833793,76.665886
0.7120721,75.090164
0.7190965,75.50855
0.644897,73.36183
0.71240735,74.46449
0.6581584,74.21529
0.6611233,71.91886
0.56932807,71.766174
0.6025539,75.7857
0.55987674,73.54394
0.5019432,70.54875
0.52736473,74.57487
0.47271514,75.33432
0.46589932,74.212494
0.42910188,71.19558
0.42348304,73.43618
0.3875101,73.41681
0.3159377,70.893974
0.31636906,73.829216
0.32947105,72.4693
0.263388,75.26896
0.31202918,71.23595
0.2349496,73.09219
0.29788503,69.928024
0.2835164,73.8534
0.27021778,76.649605
0.27820966,77.70314
0.3000774,78.06819
0.2325153,75.03479
0.37605304,78.08753
0.46069553,79.94397
0.45514637,78.93917
0.514886,79.65469
0.51074344,81.989815
0.5348406,85.75745
0.6574777,84.08594
0.7138703,85.85101
0.7978767,86.42482
0.75825185,87.75806
0.8709611,87.15061
0.8985294,87.64679
1.0005015,91.40805
1.0553163,89.47145
1.1161633,91.42893
1.1151187,94.30295
1.2650844,94.11558
1.3173953,94.13188
1.3074198,94.64528
1.3245399,96.15344
1.3877308,96.66419
1.4147946,96.92818
1.4278376,98.29387
1.37307,101.32835
1.5083967,100.20203
1.5049356,104.39799
1.4751137,103.76345
1.4749471,102.51904
1.5473568,103.8492
1.563194,105.62144
1.5814524,104.36749
1.5645561,103.863235
1.5814514,106.565315
1.4844984,107.46653
1.6442536,107.22041
1.5535034,106.38951
1.5206002,106.46813
1.5137261,110.09059
1.4543421,106.63498
1.4554921,109.17955
1.4405445,106.41783
1.4016542,105.51331
1.3939165,106.38591
1.4853728,106.16256
1.3547117,107.92347
1.3702575,103.79764
1.4058522,107.4145
1.292141,105.58387
1.3272779,104.18919
1.2408992,102.90109
1.2762222,104.90356
1.2773263,105.20738
1.1951964,105.54987
1.1698369,105.85705
1.196314,104.93722
1.1247936,103.0909
1.1638764,102.52233
1.1570386,100.68837
1.1432092,101.62465
0.9954809,98.76758
1.0415558,99.762436
1.0463796,100.77544
0.9655764,100.784676
0.96039367,99.34554
0.9983161,96.65187
1.0523169,98.70177
0.99004966,98.36383
0.9589786,94.93372
0.9636366,95.62898
0.9667119,96.99404
0.97264093,93.592094
0.91417277,95.468666
0.9072779,93.16238
0.83729047,91.79071
0.86586416,92.426346
0.9106325,94.614914
0.9194741,90.90394
0.836999,91.16061
0.75249124,87.96434
0.81524384,87.810974
0.72713697,90.32853
0.69384384,86.71786
0.7326416,86.264595
0.6715054,87.18929
0.5731332,87.278076
0.57023233,85.402954
0.4982747,84.909836
0.47463247,83.36305
0.5343783,83.55657
0.554042,82.49776
0.51276004,82.83429
0.37200767,84.83569
0.3943924,80.23301
0.4219168,83.39871
0.41674083,80.52934
0.39516348,77.902306
0.38023695,84.646416
0.32938525,77.28961
0.36072466,77.39408
0.33947852,77.27441
0.34097257,77.13073
0.38458636,77.9416
0.36099094,77.58521
0.34100214,76.39862
0.38954017,77.08547
0.31835952,74.9449
0.2941849,75.193886
0.21103153,75.99218
0.29678175,72.75453
0.33334047,75.77893
0.27781823,73.696655
0.2140129,69.13014
0.176146,72.51875
0.12758659,72.23033
0.11746456,69.81163
0.17394437,70.73796
0.12177677,73.617935
0.11370745,72.17293
-0.033110432,69.47194
0.10458177,71.91764
-0.013546594,73.89164
-0.0021451612,72.951706
-0.0026127961,70.25897
-0.066527426,75.57604
0.014623452,73.36715
-0.020269899,75.498055
-0.007870644,76.61053
-0.045431424,75.58696
-0.010629137,77.10338
0.062033743,76.103424
-0.001868845,77.34798
0.027113948,76.06719
0.063246034,80.03621
0.2101024,81.233055
0.17440826,82.981544
0.20856762,80.459335
0.25003213,82.68959
0.3004766,84.21892
0.30923507,83.92645
0.41872332,85.70695
0.43231767,87.59556
0.5990967,88.1984
0.58245796,87.561386
0.6244283,90.758125
0.7435585,86.90315
0.7447162,91.75381
0.9127891,92.972755
1.0033717,93.14271
1.0219136,96.462296
1.0111706,95.51976
1.1263906,95.155876
1.1869562,96.31705
1.1463966,99.07162
1.2551364,98.75108
1.2400151,100.29532
1.3465811,99.01201
1.3250692,101.60127
1.3514035,102.84714
1.3469217,105.194786
1.3668903,103.66205
1.4333329,104.80405
1.3605351,104.98366
1.3741055,102.979576
1.2508337,107.025894
1.3281739,107.49426
1.4065233,105.949005
1.4659854,108.41911
1.4570776,108.629234
1.4451673,107.27757
1.3861735,108.8485
1.3885396,105.00811
1.359381,106.77563
1.4107918,104.970245
1.3043507,106.14208
1.3150694,106.710815
1.3198516,108.413605
1.3464274,107.85296
1.2606562,105.0982
1.3201573,104.216095
1.1730562,106.22922
1.2939554,105.01444
1.2161751,105.71549
1.1907904,105.623924
1.1991891,102.570114
1.1607515,103.03607
1.1752158,102.9582
1.1350197,101.11836
1.1246834,102.77596
1.1512719,104.32545
1.1049933,102.68905
1.0995387,99.777016
1.0705745,101.02754
1.0586354,97.14721
0.92880327,98.274605
1.0706623,101.00358
1.1094278,98.09764
1.0631155,98.367645
0.9592264,96.19943
1.0333596,96.675514
0.9974604,98.86027
0.97437125,99.08504
0.9304235,90.01211
1.0597206,93.03739
1.0087286,94.20259
0.99037516,94.85743
1.011739,94.56462
0.98005646,94.12789
0.91709596,93.223816
0.88960695,90.9289
0.8623434,91.97669
0.95880723,91.059814
0.86799186,88.39296
0.81179476,88.39498
0.8868986,85.29749
0.8055586,88.26318
0.72094977,84.10082
0.78457826,87.167496
0.6706831,87.52719
0.724869,86.73492
0.6550034,88.99391
0.6615516,81.840416
0.6653222,82.34462
0.62852544,86.51057
0.6025592,79.46089
0.5974328,81.59134
0.5570658,81.09692
0.5192901,79.38142
0.58387476,79.533615
0.68390644,77.33973
0.48122445,78.606926
0.5423542,77.00155
0.5769443,78.92635
0.6142241,77.22023
0.5793235,77.22298
0.550473,73.76776
0.5822826,76.56908
0.54859275,73.438194
0.59001523,72.70232
0.5842408,74.62653
0.5612915,78.223694
0.4767695,72.94185
0.53899115,72.03951
0.528684,71.16626
0.5528058,73.73578
0.46171442,71.87612
0.47450784,72.95272
0.4593328,72.04879
0.43597963,73.6646
0.43186614,70.93277
0.39202568,74.186104
0.40932888,74.05563
0.3356781,72.767395
0.40035167,74.71978
0.28104928,75.22499
0.32122168,76.46391
0.26617146,72.65585
0.26652044,76.04486
0.308674,73.27604
0.38390765,76.802025
0.2887865,74.86741
0.28228444,77.66013
0.34157032,77.69965
0.37974632,77.1188
0.45228395,78.67915
0.41421345,78.2282
0.43742305,79.62556
0.5732451,81.80139
0.6617112,83.42041
0.68593866,81.449036
0.69196534,83.16343
0.7658312,85.081955
0.85170054,82.60509
0.9113691,85.63919
1.0595163,86.988945
1.0740758,87.71057
1.1289676,92.66752
1.1796536,91.67877
1.1902409,92.60916
1.2909032,90.29161
1.3906373,93.144424
1.4201732,95.82885
1.5019327,94.903725
1.568878,93.589294
1.5524815,101.638725
1.610774,99.138985
1.638998,98.90012
1.6574085,99.46404
1.6124303,101.00897
1.7180697,99.119095
1.667127,104.620255
1.7242107,103.30206
1.7161673,103.609566
1.802407,104.62228
1.8877932,104.75618
1.831167,106.003815
1.7927275,103.55858
1.8694588,105.644875
1.898914,108.98426
1.8726507,105.38993
1.8350275,106.55837
1.8601562,110.57187
1.7951003,107.2663
1.7425593,106.61079
1.7226889,107.650566
1.7459091,107.283875
1.8475317,105.120735
1.7316433,109.36323
1.73372,106.55888
1.770478,108.02158
1.7359688,104.9761
1.8180298,107.119606
1.8117702,104.30546
1.7143129,105.37556
1.6628907,105.157455
1.6070466,103.58788
1.6061304,103.79495
1.6547773,102.47571
1.5152181,103.34648
1.5221165,101.203445
1.5312611,103.30442
1.4837974,102.192955
1.5905402,100.933426
1.5553323,99.65507
1.4419012,96.889
1.4914371,98.09502
1.4629171,99.67222
1.4620632,98.290955
1.412803,94.38057
1.4620676,96.330345
1.4936663,97.09065
1.4780799,96.72754
1.4712116,93.15931
1.4268109,95.07092
1.4377087,92.54348
1.3961383,91.78508
1.459983,92.92941
1.3692172,93.85441
1.4145917,92.02634
1.3247937,95.261055
1.3383096,93.303474
1.3953463,90.45083
1.2980298,89.89926
1.3881081,90.61117
1.2631555,87.76278
1.3352281,88.55266
1.2137754,86.97227
1.2008661,84.79903
1.1232646,84.71337
1.1708528,85.29468
1.1131278,86.667274
1.1403124,87.29014
1.0215933,82.43885
0.9871844,85.210495
0.9841093,83.07811
0.961434,80.65727
0.9927701,82.11136
0.9803714,81.96254
0.9659115,78.299126
0.94949067,81.78143
0.8975796,79.562706
0.9681747,79.97484
0.96260107,80.63734
0.88566417,78.086914
0.9263525,77.38391
0.96793205,77.83004
0.9742418,77.64266
0.8752625,77.0008
0.8697386,74.39767
0.889002,72.053345
0.8550369,77.58537
1.0142937,73.63703
0.8344155,73.40348
0.8717155,74.370544
0.9024721,70.45216
0.83231205,74.21256
0.8313004,72.31289
0.798769,75.58318
0.8073208,70.4272
0.7866789,73.98404
0.75840646,69.89121
0.7220779,70.05903
0.6894679,72.043304
0.6530264,75.02401
0.6225987,69.25292
0.6081781,70.67175
0.5753428,71.11462
0.58896667,73.931145
0.5437634,74.17857
0.50180954,72.698296
0.5691785,79.734634
0.5026484,76.6866
0.5504066,76.4708
0.5941551,75.2317
0.63024145,77.01067
0.6446512,80.59992
0.6926864,80.79326
0.82126325,77.274826
0.7444835,80.39348
0.765665,80.76257
0.8607925,83.175575
0.9655733,82.01054
1.0425347,82.03223
1.0668592,84.23905
1.0996963,83.54263
1.173412,90.34714
1.1398002,86.87492
1.3065488,89.05999
1.3158721,89.4924
1.4380709,92.77381
1.3519348,95.34171
1.489647,92.02379
1.5522779,97.31392
1.573996,95.64747
1.6717952,95.382484
1.6948863,96.168526
1.6754072,98.7812
1.7107717,99.72064
1.7619278,98.474754
1.768731,99.69224
1.8755895,104.246666
1.8949054,99.044815
1.8550199,99.303474
1.859009,105.47766
1.894862,105.07869
1.9505917,103.38354
1.8548574,104.51389
1.9026115,106.53699
1.8834474,104.19969
1.8193996,106.92014
1.9018425,108.17776
1.8679082,105.10549
1.8773327,106.35907
1.903814,107.85223
1.8364165,108.10469
1.904239,106.684395
1.881993,105.251
1.8860061,107.89272
1.8110523,106.97194
1.8384662,105.824974
1.8205607,106.494125
1.675026,105.799164
1.7610782,105.329025
1.7368411,111.608444
1.778398,106.00655
1.5832754,105.14884
1.6082988,101.87398
1.5908474,104.97937
1.5752928,102.78554
1.5571667,102.67614
1.4579724,103.22502
1.5093685,101.31671
1.5443642,102.13906
1.4854598,103.74453
1.4169772,99.877625
1.4253057,100.55533
1.4250178,100.29249
1.4011804,96.88829
1.42305,99.16311
1.3371128,101.01891
1.3458313,97.27526
1.2929767,96.095726
1.3377795,95.80746
1.3765569,96.14463
1.3327731,94.50317
1.2989908,94.74787
1.3288361,94.22165
1.2809019,96.674286
1.2859124,95.36993
1.2558773,92.93712
1.1331894,91.33939
1.222843,92.966866
1.1732771,91.53239
1.1564573,89.96512
1.1459358,92.5517
1.0838313,88.831985
1.1364044,88.158455
1.0255548,85.29016
1.0307485,86.40057
1.0026028,86.54189
0.9296002,86.07788
0.8763744,87.2306
0.91348153,88.145996
0.80840915,85.731346
0.8156189,83.37889
0.82032335,83.26521
0.70326245,86.113846
0.77311975,79.114395
0.6984806,80.96744
0.6907799,80.41803
0.6828139,81.04646
0.72969145,78.267006
0.6896813,79.572
0.6040417,78.73617
0.6081604,80.98291
0.6936913,77.34084
0.7145931,78.6039
0.6304445,74.547966
0.5963524,76.176216
0.60393953,76.33073
0.6058819,75.61522
0.594285,75.65144
0.67900693,72.86025
0.60262674,74.73123
0.65136504,77.483284
0.5515294,76.926346
0.42860582,74.92521
0.5476393,74.250046
0.5397465,73.54899
0.42992672,71.62975
0.4025252,72.252464
0.39398152,74.503075
0.36845958,72.22579
0.30062982,76.3517
0.3203027,71.480354
0.2837735,70.18892
0.1898517,73.58314
0.24141143,73.38536
0.19751441,74.65869
0.23523805,74.31796
0.19841036,74.88723
0.052349832,75.287674
0.14126079,71.39142
0.1802248,73.94972
0.11399028,76.61046
0.24586694,79.13917
0.22252165,76.1707
0.26241398,74.11414
0.22039014,76.89642
0.34616926,78.39367
0.2996608,81.120285
0.4367697,82.85389
0.5480564,82.77957
0.5964913,82.43566
0.54186887,84.74104
0.6171068,82.53035
0.7156205,86.930336
0.84006923,85.54768
0.78566414,89.983574
0.7782331,90.35957
0.9200552,92.44719
0.96336335,90.077225
1.090397,92.296646
1.0456424,94.55467
1.1771921,96.27194
1.214072,98.25252
1.2246642,92.628845
1.2727141,96.8883
1.2738472,98.67333
1.3101308,97.97637
1.4040005,97.02035
1.3617927,98.94426
1.3486304,103.713776
1.4116657,100.83056
1.3865808,102.70554
1.4567336,101.97943
1.4481831,101.1971
1.4407367,105.82664
1.4768935,100.81948
1.4037378,106.65983
1.5104853,107.20646
1.4287562,106.07062
1.4834207,107.21809
1.4835496,107.02025
1.4806329,107.010605
1.4135692,108.750015
1.4144105,105.91294
1.4093292,104.27859
1.3378956,105.47225
1.3478389,109.04011
1.4934388,105.65515
1.3523321,103.661415
1.3158982,108.12647
1.3077738,106.09468
1.2259188,105.435
1.3001034,104.69086
1.1833616,106.693
1.1907909,104.97387
1.1731399,102.06042
1.16741,104.55238
1.0948347,101.826866
1.0878633,102.65276
1.1321774,104.26159
0.9690697,101.43425
1.0068028,102.87111
1.025533,102.73833
0.97686017,100.45604
1.0776632,100.15737
0.9975802,100.01304
0.9406562,97.22219
0.9454537,95.419655
0.9483391,98.073715
0.95194733,99.12917
0.95072114,97.522995
0.8083367,96.3649
0.9554806,97.72663
0.9406964,96.54383
0.91836315,95.55378
0.9100062,94.00486
0.8739684,97.459564
0.8779004,92.44872
0.8769273,90.74278
0.8837657,91.12724
0.7753264,92.6817
0.7938412,88.353424
0.70989,89.83803
0.7827815,86.65131
0.709199,86.23341
0.6862586,86.111015
0.6423928,88.97595
0.593639,89.08595
0.6145245,86.65346
0.58025455,84.460365
0.51658404,84.50567
0.5838149,81.754776
0.41783804,85.29323
0.42554852,83.550125
0.47978902,82.11735
0.34258646,80.602776
0.42154962,82.98894
0.38080016,80.04774
0.2793322,82.78406
0.2779042,81.54005
0.43422595,80.55234
0.33561915,77.88531
0.30448076,80.25277
0.30733705,78.05701
0.3234416,77.91047
0.2747045,77.414566
0.34784737,79.11299
0.31662598,73.62718
0.31029987,75.53345
0.30636734,77.438995
0.33496925,74.29022
0.36574584,74.7469
0.23259065,77.4164
0.33634484,69.521904
0.34486488,72.07044
0.32189962,72.802765
0.24502532,71.89044
0.32334203,75.560875
0.23886263,71.66236
0.1175685,71.73697
0.08542093,72.16554
0.15491278,73.99791
0.062628284,72.78883
0.120130606,72.59544
0.053836934,73.16467
0.04055389,75.50088
-0.10262933,74.40835
-0.026364958,72.10449
0.0085942475,75.95699
0.00023058859,73.75781
-0.102939,76.08954
-0.041062307,74.390755
-0.04405941,74.71492
-0.083538935,78.57348
0.019087836,74.813385
0.0616238,79.851166
0.122950986,81.47772
0.13161372,79.19953
0.18368325,82.67735
0.20839018,81.42729
0.24876241,83.35735
0.4050094,83.31212
0.40324166,85.4786
0.50462854,82.86642
0.51431566,85.00237
0.5150715,89.05515
0.68133026,86.85405
0.72269255,88.32457
0.6851829,91.99731
0.8978672,89.217224
0.9900694,92.277855
0.92559814,95.86881
1.0782422,93.02855
1.0273846,95.57981
1.1570791,91.83894
1.1855844,97.41598
1.2751049,97.04777
1.3023735,98.67415
1.2908154,96.380905
1.3414292,101.40031
1.385674,100.55516
1.3462055,100.71117
1.4521967,100.79325
1.3864642,103.13182
1.3352445,101.159874
1.4347415,104.38432
1.499809,101.34572
1.4328734,105.64365
1.5039251,106.43444
1.5214874,105.96242
1.4670385,106.57117
1.4523239,106.45152
1.5168302,107.16145
1.4501082,106.92159
1.3956021,107.54854
1.3862624,107.35526
1.3939304,107.68614
1.4292663,106.12387
1.4007308,107.67843
1.4186083,106.16303
1.4126998,107.98333
1.3136415,107.28863
1.4002441,105.99331
1.410654,105.60601
1.3522328,103.327126
1.3169762,106.14558
1.2959703,106.85682
1.3339106,105.01891
1.2382592,105.122444
1.2177056,102.5338
1.2957463,102.86351
1.1107811,102.06669
1.217435,102.22843
1.2554855,102.49588
1.1216279,100.949715
1.1645119,103.71948
1.1494467,99.34024
1.1630199,101.048256
1.0448531,99.306435
1.1439592,97.06211
1.074025,97.983345
1.0610275,95.90974
1.0806569,94.14062
1.1653512,99.2387
1.1471735,94.79895
1.119052,98.48744
1.0750972,93.775276
1.0166216,92.8658
1.1242748,93.32265
1.1003561,92.1899
1.0450996,92.02922
0.96895665,91.695
1.0519875,90.40916
1.06691,91.94251
0.89875734,89.78994
1.0110188,89.47833
1.0087757,89.730545
0.97789425,87.172066
0.8849291,86.616875
0.88420546,86.86718
0.89144415,85.30456
0.9119015,85.96856
0.8176215,87.06065
0.76827615,86.28395
0.75600564,84.77465
0.7239378,83.47637
0.79380864,83.70777
0.67735577,82.587715
0.6860638,81.5817
0.6232724,84.05955
0.60990185,80.93907
0.718787,79.08423
0.6894663,80.52099
0.67331123,78.99791
0.6208229,76.25188
0.651982,77.70791
0.69382155,78.817276
0.671684,79.18987
0.6644829,73.8754
0.665386,75.23715
0.6518392,74.49888
0.7431164,75.42548
0.72245026,77.94673
0.6278483,74.75019
0.68387777,77.76944
0.6116105,73.21538
0.7001175,72.6548
0.6430605,71.834854
0.6226873,74.13681
0.7191968,74.01395
0.609719,72.58214
0.5419254,71.07923
0.5766939,74.16271
0.5399879,74.1611
0.45705336,72.73694
0.43690342,73.586174
0.461492,72.698524
0.44868365,73.01206
0.31751773,72.7039
0.366607,72.1003
0.37451413,77.84986
0.3880731,75.40726
0.3242917,74.25437
0.24550515,80.27535
0.41362834,75.9704
0.4451461,75.64367
0.3827862,77.80343
0.5317569,78.46187
0.51134497,78.89141
0.55172366,82.014595
0.67239016,80.45142
0.7065679,80.48367
0.7189386,85.67478
0.8122096,81.63647
0.8306006,84.73165
0.9195956,86.02211
1.0049427,84.46184
0.95222086,87.69474
1.1392978,86.48193
1.1576998,90.037384
1.2320609,91.21588
1.2913502,93.4169
1.4365034,89.90461
1.4239472,93.58779
1.4412549,93.99268
1.488926,98.752594
1.6718616,94.26011
1.6511481,97.71137
1.6148996,100.940315
1.7338446,98.666916
1.7817855,101.30926
1.8070669,100.03399
1.758244,99.776505
1.8018503,105.962975
1.8578812,103.81128
1.7622651,104.347
1.8913251,104.43007
1.8117938,104.193794
1.8995351,104.505875
1.8721555,107.02772
1.8950387,105.44629
1.8646506,105.51542
1.9677122,107.67953
1.864786,102.49163
1.8420643,104.69557
1.83862,106.56998
1.8566822,106.48562
1.949151,107.18215
1.7793934,108.41063
1.9122376,106.52344
1.8312411,105.901024
1.8445138,105.67546
1.8046107,105.94647
1.7754945,106.70771
1.8057405,105.4015
1.7797754,102.894066
1.7339422,104.03982
1.7746183,107.73994
1.7057114,105.69306
1.6417695,103.72684
1.6436603,106.42416
1.5616996,102.058945
1.5279858,101.356895
1.6218778,101.53127
1.5132098,103.05092
1.5928771,102.18311
1.5641541,100.90814
1.5456349,101.51581
1.4943788,99.68797
1.4929156,99.29835
1.5268445,94.61125
1.6112944,97.06672
1.5272995,97.15175
1.3805968,99.0072
1.4928364,94.76038
1.4405215,95.32571
1.4209465,96.91542
1.5038608,93.46782
1.4181721,98.64862
1.4929599,93.560905
1.4127071,92.39772
1.4648198,93.87254
1.4122014,94.53839
1.3534119,95.11085
1.4124688,90.24763
1.3123732,88.897865
1.3905991,91.59256
1.3065903,87.11426
1.248236,88.77212
1.2398714,84.97768
1.2016346,88.24096
1.1561,87.03849
1.1626341,85.51319
1.1955978,83.063354
1.1389817,85.0506
1.0822705,87.32909
1.0761487,84.541336
1.0847789,83.84275
1.0347219,85.4874
1.062633,82.32626
1.0009204,78.011475
0.9654582,85.52533
0.9719937,83.578735
0.9495209,80.73495
0.9723886,80.80114
0.9520489,82.34638
0.90391284,79.473785
0.94336987,79.15177
0.92353034,77.806656
0.9474951,77.61755
0.9470488,75.81421
0.89325756,75.824776
0.96347034,74.62543
0.880097,78.37165
0.9479713,76.11447
0.9285519,71.6761
0.90690917,74.65203
0.902317,74.03128
0.98792005,75.497795
0.8321113,74.021164
0.7702349,71.37691
0.7524992,73.548065
0.74731857,69.13671
0.6945634,72.02052
0.71979177,71.577286
0.6455688,73.00215
0.63445944,73.54799
0.6010539,74.56057
0.66138256,71.252205
0.5567647,73.23198
0.530944,72.88384
0.48631117,75.05858
0.49494517,74.28913
0.48543292,75.11634
0.5097959,76.24093
0.4454992,78.75366
0.49654785,77.98261
0.5216631,80.76636
0.59350944,76.31224
0.56030685,77.13983
0.6343397,79.50973
0.70450634,81.68163
0.67102915,82.14314
0.787266,80.19743
0.8285017,81.59106
0.8936542,82.79304
0.96912605,86.458824
0.99592245,87.60076
1.0668933,85.36995
1.1332959,85.26823
1.2436426,88.63206
1.2791259,86.94656
1.3519181,89.84898
1.3911419,91.72342
1.4648331,90.878334
1.506675,93.74616
1.515931,93.79767
1.5684471,96.57727
1.5800241,93.39747
1.6374753,94.94716
1.6620744,95.813484
1.7530718,99.47546
1.7557849,98.815254
1.7813528,102.592224
1.8047942,104.07557
1.8518871,104.5734
1.8201089,104.26251
1.8391328,104.89575
1.7458695,101.91069
1.8622074,106.36755
1.891909,104.987434
1.8460759,106.2747
1.8274521,105.72363
1.8745134,106.985245
1.832147,106.09468
1.7873298,103.40638
1.6961646,106.523575
1.8085335,106.616104
1.7618597,106.77988
1.7256749,107.670746
1.7677419,107.462944
1.7841344,109.02717
1.668077,106.320595
1.6628718,108.06548
1.6146077,108.07335
1.7085869,105.93983
1.6129338,106.71714
1.6107453,107.384544
1.5380623,104.181816
1.5879539,105.715034
1.5668539,106.33477
1.5467887,102.21918
1.4788222,103.05007
1.4873257,102.35095
1.374228,103.42901
1.3608607,101.752144
1.372343,100.146545
1.4021515,98.511696
1.3738179,100.28748
1.2779752,97.24985
1.3847996,103.40977
1.3045607,100.74522
1.1995697,94.66886
1.2437134,99.49049
1.2039855,98.41802
1.2780818,95.554344
1.2357006,98.81198
1.2796334,93.09668
1.2401651,95.17953
1.1775924,93.21063
1.1772884,92.836395
1.1671169,94.155106
1.2113382,94.80717
1.0781341,95.40274
1.0739579,93.1341
1.2206846,90.32978
1.01536,89.08282
1.105927,89.52856
1.0796481,89.49948
0.9837225,89.65979
1.0048642,89.92493
0.96163946,86.35413
0.8786889,86.37814
0.8873353,85.89807
0.72061104,85.71532
0.79083246,86.412575
0.7849518,85.836624
0.70095253,84.5489
0.685188,82.66436
0.6594177,83.81951
0.68584794,83.75389
0.6544332,83.429634
0.5697111,79.68504
0.6305682,82.067955
0.5984593,80.33506
0.51059103,80.96004
0.5909058,80.020615
0.5888915,77.90443
0.5335882,77.977684
0.5656052,80.37039
0.5694159,79.03869
0.5257954,77.87017
0.57593334,73.29177
0.55173254,74.37391
0.5536995,74.53921
0.49464828,77.40585
0.40649864,74.04585
0.52714026,76.93213
0.48240826,72.977104
0.5048846,74.33406
0.3668503,73.21308
0.45418093,75.58899
0.36025742,73.68758
0.30379024,72.82416
0.2980808,73.974106
0.23779343,71.45797
0.25243613,73.2166
0.18683048,74.22568
0.19007549,71.854355
0.21682544,71.22549
0.18636397,72.81935
0.08992494,72.54071
0.1142424,75.17132
0.07004216,73.96001
0.09395308,73.24556
0.028609566,73.69805
-0.002729515,77.58149
0.123707116,78.497734
0.08621341,74.379486
0.10123704,77.17658
0.1541063,81.356895
0.17860824,78.8726
0.17671546,80.60303
0.20336983,79.52846
0.28147972,84.20902
0.3078965,80.87587
0.40091932,82.18379
0.4518408,86.727974
0.5055487,85.099335
0.6589987,86.28494
0.6112509,86.19573
0.658483,86.835175
0.7770872,89.88622
0.8674195,91.3864
0.9247105,91.11137
0.9369133,92.57613
0.9097548,92.500336
1.0499493,95.59214
1.0270773,98.79896
1.1362549,95.71459
1.2705266,97.90386
1.1562873,98.385086
1.2819525,98.711845
1.3663383,100.201195
1.2977043,101.20841
1.37977,102.402405
1.3316296,102.13672
1.3511214,104.74668
1.359983,103.93238
1.4409426,104.66038
1.4354764,103.40548
1.3767998,103.29047
1.3900752,105.06424
1.4193814,106.006836
1.3573525,106.98402
1.4564496,109.50637
1.3730345,108.173836
1.3717289,106.8883
1.4180698,109.91928
1.3675046,108.42655
1.3843665,104.28674
1.4179567,105.19222
1.3594642,108.8373
1.3709321,108.70812
1.316114,105.9312
1.221005,108.43419
1.1636949,104.15249
1.1882075,107.42693
1.1889615,104.8741
1.1993452,107.06763
1.2058554,103.67625
1.1300937,104.8758
1.1290851,103.99748
1.1772912,104.83513
1.0578201,103.000984
1.0079923,105.69058
1.0989774,106.50385
1.0184401,104.46669
0.95418376,102.02833
1.0021311,101.58748
0.999573,98.04458
0.8959582,103.45577
0.92247003,100.11198
0.93861765,98.48273
0.97059053,98.747314
0.9648681,100.06793
0.89522904,96.53739
0.8272521,97.14666
0.852875,95.4893
0.8315287,95.48293
0.82656956,94.80292
0.8762682,95.71773
0.8908511,91.88239
0.84801334,93.33044
0.7903032,91.50054
0.77039915,93.38078
0.80493724,92.142426
0.76170933,92.97487
0.7638777,88.98857
0.7120753,89.90854
0.69328153,89.56787
0.6810642,86.48042
0.63478863,87.23383
0.58732444,87.44391
0.5984514,85.4853
0.56773406,83.09102
0.5793081,84.502594
0.5259321,88.05548
0.4851126,85.62873
0.5006657,82.94412
0.46673715,83.55504
0.4003206,84.44079
0.37173727,81.533134
0.39605904,84.976265
0.37083647,78.38891
0.3637935,82.53422
0.43795386,80.687614
0.40411896,79.203636
0.30458164,79.42605
0.34351492,80.26641
0.33695513,80.147766
0.34184837,77.8653
0.42614946,78.13625
0.23814538,78.45387
0.36877808,78.22396
0.33063176,75.13864
0.34478304,74.968376
0.3943896,73.91828
0.3207555,70.98905
0.26116094,70.53066
0.34779918,74.51519
0.38875264,74.92195
0.23347636,73.987175
0.30049717,74.28392
0.21218185,74.19908
0.19781548,72.91348
0.1697844,69.645386
0.15166247,69.63319
0.16341504,74.17099
0.16442679,75.14834
0.11106562,69.78254
0.056338225,73.00392
0.120743856,71.22156
0.06118204,73.0871
0.08842688,73.4355
-0.06594056,75.41441
-0.018471386,73.780754
0.12384717,75.75655
0.022455025,77.04492
0.08700298,78.94285
0.049639158,74.022415
0.07406598,76.00334
0.088600546,76.44611
0.12454299,79.651474
0.2705847,79.27252
0.21609184,78.45542
0.31411412,82.0196
0.42840979,83.50317
0.4452521,84.62816
0.49571458,84.03325
0.6166616,90.322876
0.6108704,87.97604
0.75670654,86.38126
0.7869072,86.79719
0.9067048,88.62647
0.78040457,91.355225
0.93951,89.23715
1.0185577,95.40152
1.130348,92.08285
1.1017834,95.260086
1.2431009,95.05098
1.1634308,97.48107
1.2799903,97.51181
1.3150811,97.30022
1.2786543,98.10272
1.3680351,99.8633
1.4399767,98.70141
1.4786018,102.62843
1.5365204,102.01991
1.4618303,103.65488
1.5095747,102.857765
1.5553254,106.34529
1.5539905,107.58073
1.5687662,107.662704
1.5054663,108.29539
1.5870271,103.16985
1.5369582,105.56193
1.5737257,106.838295
1.5023407,106.50795
1.5725684,104.52579
1.5235786,107.00821
1.507051,110.98085
1.5281234,105.77508
1.5241704,105.998665
1.4672897,107.48296
1.5677062,105.05985
1.5267576,106.04379
1.4938534,107.33534
1.4462578,106.56139
1.4703935,107.2574
1.5100646,104.80851
1.3979813,108.48032
1.4095223,106.0924
1.4029503,101.12995
1.3657318,103.44949
1.2984129,106.16627
1.3008935,100.94151
1.3317604,103.10657
1.29952,103.594864
1.2155079,101.24989
1.298782,102.60589
1.2248981,100.95145
1.2585489,98.89492
1.250752,98.26654
1.2227697,99.41743
1.2454813,94.61079
1.2261161,95.81451
1.2311325,96.70915
1.1973026,96.61095
1.2117486,94.31165
1.1990486,95.56404
1.1387638,95.336845
1.200957,92.42391
1.1249537,95.795395
1.2246996,90.78758
1.1583847,93.09202
1.1386192,92.766975
1.1274707,91.78801
1.1960032,88.47985
1.1223835,87.7084
1.1043291,90.26307
1.0559249,89.50129
1.0744524,87.11404
1.018366,89.92628
1.0146934,87.6647
1.0784789,88.70734
0.9615727,89.05506
0.96302485,87.52135
0.9085004,89.72762
0.89291906,83.528984
0.9452106,85.69716
0.8292263,81.16692
0.9104699,81.235146
0.82549083,83.07668
0.77549195,80.03432
0.7850753,80.43716
0.7853043,84.55205
0.73090726,77.28953
0.8067727,82.10168
0.77490443,80.61972
0.7398663,79.84522
0.73248523,75.99913
0.8482954,79.92081
0.75404596,74.49395
0.81352055,75.328026
0.8019219,76.931625
0.8505103,76.044426
0.80384177,71.704414
0.7851712,75.346985
0.7139364,76.59948
0.7623256,73.61061
0.6989047,74.68912
0.73677856,73.82001
0.7481291,74.43727
0.70925826,74.8947
0.70387334,72.16209
0.65881485,70.011284
0.6670705,72.1393
0.6402474,73.81217
0.57685125,73.966545
0.49405688,74.76468
0.54391724,72.0021
0.49300036,69.962944
0.48259306,72.74615
0.5176839,76.164925
0.46528068,75.385284
0.47755522,75.562744
0.3661032,73.040764
0.435285,73.84393
0.47834352,78.54291
0.50628114,75.1666
0.52276075,74.37696
0.48119295,77.83316
0.56933415,77.54832
0.5854648,82.83542
0.6112098,80.266975
0.71122175,81.0225
0.8143042,82.60882
0.7868587,86.19997
0.8393535,80.63158
0.9359038,83.037926
0.943311,83.094505
1.0204749,87.4429
1.0516899,87.66538
1.2104876,84.12005
1.2564453,87.16025
1.2710088,91.60595
1.3053757,90.33691
1.4015886,92.31519
1.4809616,91.125755
1.5489651,92.31365
1.4874116,95.67462
1.607883,96.658134
1.7118487,95.49022
1.7355713,94.92384
1.7072041,98.68071
1.7561918,100.28589
1.8640957,99.96854
1.8137904,102.62784
1.8290597,103.98285
1.8248283,102.02735
1.8935252,104.2487
1.9732602,105.443596
1.8728809,105.26988
1.9385338,103.33362
1.9594564,105.92128
1.9253228,102.83666
1.9056937,103.875336
1.9283488,105.46262
1.9999461,105.759766
1.9659555,106.15729
1.9527669,108.81828
1.9384973,104.948135
1.9318798,106.68847
1.9875777,107.44865
1.9280468,110.66539
1.859083,106.45417
1.8756665,103.13571
1.7826742,107.11172
1.7946112,106.20435
1.9067926,108.52496
1.7954633,105.398186
1.819508,105.61536
1.7715495,107.8272
1.7604415,105.957565
1.6421728,104.42905
1.6996365,102.02055
1.6723228,105.1826
1.6359824,101.241936
1.7032824,102.75514
1.6351391,102.962036
1.5567142,102.43534
1.5714965,100.127304
1.5596833,97.13865
1.5893239,100.929085
1.5023776,101.537025
1.5779369,99.217606
1.492611,100.784294
1.5705812,97.51587
1.4512732,97.927986
1.4539644,94.93605
1.5385394,95.85899
1.4259876,97.260605
1.5410484,97.770134
1.4377847,94.14931
1.4794248,95.28006
1.4708065,93.10649
1.4841127,92.977356
1.3923414,90.90061
1.4303479,90.821526
1.3859496,90.36742
1.3451945,93.89691
1.3977077,88.31153
1.2954334,88.52018
1.2823129,89.3713
1.2580819,90.632744
1.2302352,86.004776
1.1798242,88.801384
1.107993,89.0273
1.1087887,86.98753
1.1158739,88.061356
1.0940704,85.86657
1.0723188,87.3102
0.99062765,82.75751
1.0376678,83.34449
1.0410788,83.111946
0.9219873,81.7972
0.9953896,81.42089
0.90631217,81.6922
0.9507922,81.563034
0.94520754,80.35755
0.872122,80.20685
0.9079904,76.930565
0.9274914,79.99747
0.81467086,77.91686
0.80491275,75.40393
0.900937,75.59102
0.83789694,76.388794
0.8488023,76.26801
0.8622857,71.93222
0.86842,74.90032
0.8394154,76.098694
0.80564696,76.03021
0.7968116,73.93084
0.7492395,76.10269
0.7929424,71.68404
0.7644133,73.53005
0.7419143,74.36619
0.7748201,70.918
0.74036086,73.729965
0.7157476,73.90555
0.64299935,70.78918
0.59017754,73.27871
0.5624165,73.79355
0.5368612,73.66053
0.4569991,72.796974
0.46739325,70.792076
0.4975363,73.12806
0.45760763,74.61059
0.4427314,74.14931
0.41126028,72.538925
0.47839198,77.18535
0.46100125,78.302155
0.50580543,77.91845
0.4788625,75.80764
0.56040347,81.492874
0.6044445,80.40069
0.5764375,80.18012
0.60390556,81.45992
0.6720322,83.90894
0.82391316,80.31192
0.813106,85.30942
0.8391113,83.0304
0.89775103,86.41107
1.0308875,87.5924
1.0250343,87.41076
1.1141994,88.95757
1.197037,88.78884
1.2734711,87.741295
1.1876712,90.99601
1.3392572,91.602905
1.3918661,94.77306
1.4737542,94.489815
1.4817688,97.63415
1.5116911,98.804634
1.5683469,97.02331
1.639137,94.9866
1.6524948,100.46254
1.6333374,100.362335
1.6642249,99.17069
1.6860437,102.02928
1.8132998,101.25143
1.7188598,102.30765
1.6845459,105.03699
1.6588324,101.46048
1.8015478,105.81998
1.7203707,103.88268
1.74354,104.682335
1.7105907,106.155365
1.7104485,104.966
1.7085307,105.68773
1.7471231,107.33329
1.693127,106.923256
1.7185534,103.56105
1.7242016,109.07651
1.6851901,105.33937
1.6009071,107.13494
1.7037244,109.19655
1.6855218,108.174576
1.6693875,105.576904
1.6283898,105.14429
1.534757,105.69685
1.557808,108.07261
1.5100063,106.738106
1.5330797,106.32107
1.4027197,106.10648
1.4903945,103.534744
1.3547654,107.13313
1.3531815,99.66916
1.2917509,105.837364
1.317121,102.48915
1.3150349,102.85406
1.30886,101.704506
1.2026002,100.62792
1.2753005,97.29276
1.2412577,100.72733
1.182088,102.43178
1.1837537,96.86329
1.1887181,97.30438
1.121549,94.678246
1.2051015,95.099236
1.182291,96.65968
1.1033666,96.984764
1.1537336,97.2173
1.0742869,95.05499
1.0811416,95.76881
1.0961872,92.89355
1.1545572,92.782845
1.0801802,92.98465
1.0603926,94.63856
1.0195123,93.53911
1.0111144,93.99966
0.93592215,94.72556
1.024817,92.064865
0.92541665,90.823296
0.83276314,87.46962
0.91145504,87.8818
0.8577483,86.056114
0.8490378,86.30956
0.7412793,85.26984
0.6889817,87.75077
0.66249585,86.91879
0.67100745,84.5722
0.5684627,84.85663
0.666964,87.634575
0.5608916,82.93133
0.613528,83.53936
0.5425501,83.81278
0.49141198,80.54326
0.45295462,81.87033
0.52685493,81.238556
0.4857414,79.08165
0.47677982,79.06249
0.43749952,77.25029
0.4718667,77.82672
0.47602847,78.73426
0.4087224,77.27704
0.43659106,75.81956
0.41309863,78.325226
0.4279267,77.59951
0.4963787,78.052155
0.4082103,75.26699
0.46159658,73.01065
0.41989136,74.28274
0.45611015,76.88159
0.41314346,76.13447
0.2834559,73.85607
0.40207934,73.21099
0.27534494,71.92893
0.25550315,71.56496
0.29021746,71.11107
0.22028852,75.19265
0.18545005,73.71526
0.21473858,72.27247
0.09757438,73.627625
0.09576016,75.5432
0.08207386,75.7949
0.06345071,73.648476
-0.036482047,72.97706
0.03104628,74.70459
0.018742993,75.34061
0.0036679097,76.453804
0.068039335,77.11432
0.01027905,76.33651
0.031714875,80.00667
0.061504,79.819435
0.086686544,78.20261
0.16467011,78.71439
0.064656466,77.19533
0.20069411,81.503235
0.24020451,82.43915
0.3412257,78.71174
0.36721924,81.84181
0.4946011,82.66755
0.4819688,85.63393
0.5169984,86.6834
0.6115314,89.96529
0.7171845,88.45178
0.6732719,84.83196
0.8299006,90.20462
0.7536628,87.34374
0.8534816,93.36919
0.9389495,92.94073
1.0092685,93.48702
1.1087145,97.009865
1.1248354,95.63527
1.1250485,97.62766
1.1140399,99.052864
1.2546606,98.13879
1.1895664,99.76756
1.2257515,98.36955
1.2591479,100.3736
1.313772,102.29358
1.290112,102.18161
1.3318306,104.04552
1.3488125,100.8342
1.3373101,104.27841
1.3645434,108.40233
1.3935201,107.518105
1.3250135,106.35541
1.4116088,108.36913
1.3401763,107.50454
1.3084935,106.19893
1.3543845,108.58863
1.3840784,107.74137
1.4290696,106.17467
1.3912603,107.60232
1.3402989,106.542755
1.3285643,105.851
1.2999394,107.32264
1.3892225,109.1472
1.331132,107.16346
1.1895154,104.96317
1.2176836,104.98495
1.2164283,109.49521
1.1063508,104.71694
1.133171,103.33186
1.1155472,105.69068
1.0729483,101.92079
1.0576668,104.21616
1.0655106,101.99973
1.025374,104.700714
1.0103949,102.4523
0.9986584,101.14884
1.0413233,99.892944
0.93562126,102.354355
0.9311307,101.95855
0.961844,99.46612
0.9289882,99.33947
0.96687275,99.56665
0.9245028,95.20117
0.9861008,96.00431
0.88928366,97.41083
0.88499475,94.45158
0.87221456,97.27698
0.8799843,99.08903
0.87438035,95.53087
0.9376572,95.38296
0.87975097,92.62763
0.8998954,92.951836
0.8610131,91.98722
0.81847274,88.73035
0.8475198,91.86792
0.85918266,90.66374
0.84591305,91.207146
0.7900529,88.64224
0.7522439,90.73873
0.7539989,89.217926
0.7087383,89.30981
0.6521368,88.90923
0.616494,88.55165
0.6405141,86.527145
0.5469217,87.06164
0.590205,82.712814
0.6084203,82.99668
0.5452032,83.07156
0.48574144,83.55467
0.44792718,88.07235
0.53178024,86.23325
0.43747267,82.97396
0.38890153,80.19916
0.44255525,83.47651
0.39769518,80.389885
0.39506313,80.425835
0.3301107,78.97968
0.46364924,82.477066
0.40932345,77.05937
0.38403913,78.9895
0.40683982,75.28704
0.4788819,77.91328
0.43002188,74.98443
0.37926173,74.85237
0.40440416,77.437325
0.5460942,75.86522
0.44086602,75.435295
0.49352583,71.52939
0.38893148,77.014366
0.27534154,72.8712
0.36655468,70.34195
0.286478,72.309975
0.25682425,73.932365
0.29934075,68.986664
0.22951289,75.25755
0.22283378,70.31775
0.2494461,71.00726
0.20698498,73.79328
0.22805157,74.61307
0.19222607,69.252655
0.1876447,75.02609
0.10151531,73.10386
0.11606814,72.83959
0.14542769,73.358986
0.08753724,73.114685
0.07912954,75.70338
0.058006246,77.077194
0.14159423,76.670425
0.17907494,78.74477
0.11291576,77.905846
0.18296516,75.62501
0.20473842,77.37154
0.25593573,78.760895
0.3232856,81.11092
0.3643056,84.14127
0.46314228,80.511696
0.46105644,84.46121
0.55405885,83.42569
0.5534648,81.597626
0.7427425,85.19654
0.7445908,91.07774
0.84593475,87.21381
0.9350456,90.27749
0.9431479,90.26734
1.0573905,92.07809
1.1335139,94.50124
1.2405336,94.32857
1.2383485,92.11323
1.2062638,91.21128
1.2852526,95.72207
1.3032751,97.723755
1.3532215,98.32844
1.3572803,98.361084
1.490439,98.556404
1.53339,99.70807
1.5601883,102.616325
1.592264,99.177605
1.5906264,105.11312
1.6138852,102.24238
1.6290652,99.729744
1.5818044,101.77135
1.5717903,107.646095
1.6681715,107.44062
1.6612504,103.25293
1.7767391,109.29358
1.6717916,108.0567
1.6963991,104.303856
1.6976286,107.54599
1.6135668,107.63701
1.5571696,108.617
1.6949546,108.939156
1.6183313,109.703384
1.6456112,106.61486
1.6578555,107.67564
1.6303043,106.73747
1.5970683,105.37897
1.5730138,104.96381
1.6225061,101.96179
1.5395449,105.17088
1.537062,106.418335
1.4855485,104.39467
1.5486532,106.31578
1.4462819,104.0866
1.4369278,104.70864
1.4782023,104.08654
1.3549173,102.101166
1.3431137,101.37189
1.38459,101.18967
1.3697128,102.38864
1.3594117,101.07527
1.334104,103.19258
1.3890355,103.49532
1.3967043,101.09721
1.3742582,99.53347
1.286347,99.09203
1.3713036,101.37269
1.3400255,98.66095
1.3233936,99.08054
1.3187076,97.8574
1.4033133,95.87193
1.2127981,93.08788
1.2371166,94.44801
1.292646,95.213974
1.3011739,93.25388
1.1703657,91.45746
1.265647,92.635765
1.2348684,91.937805
1.263942,90.64788
1.2605989,89.21091
1.0495358,88.65762
1.1975405,90.880135
1.0782046,88.92669
1.0659573,85.56361
1.0823661,85.20761
1.017132,87.34868
0.9494827,84.122154
1.0256608,81.98729
0.8960286,87.23229
0.98731405,84.1729
1.0281886,84.97356
0.96491456,80.64847
0.910085,82.23907
0.9268572,78.23061
0.88842124,79.97513
0.8428241,82.36572
0.8319174,81.641655
0.8579258,78.327415
0.80555767,81.01156
0.8454918,79.74952
0.8317723,79.04966
0.80388755,77.407074
0.8574331,77.436104
0.80927926,75.90988
0.90074533,79.7892
0.8431412,75.41045
0.84694785,75.4864
0.81357795,72.46421
0.8568018,72.92003
0.84485877,75.621185
0.83720905,74.15636
0.80864215,75.77799
0.7595346,73.857025
0.75768256,71.69494
0.7186912,74.29485
0.82273215,71.11118
0.7333855,74.53116
0.7019965,73.39429
0.7005642,71.64498
0.6523824,72.99993
0.588708,75.90269
0.5900229,73.76506
0.5513206,73.007126
0.5844135,70.72252
0.42489132,72.25414
0.5240328,73.84937
0.5282924,71.439476
0.5232818,76.97826
0.52261966,73.92971
0.54060453,77.18368
0.5125678,75.69583
0.5207188,78.51163
0.61570513,75.86814
0.6460468,79.87418
0.6798649,78.18785
0.7583276,81.326485
0.86814326,80.19238
0.87616456,84.81976
0.85663885,83.140755
0.95731044,84.01508
0.96065784,84.202774
1.0339285,84.531425
1.0734954,87.65265
1.158904,86.58772
1.299423,89.430725
1.2936515,91.060104
1.3986564,91.27286
1.4407353,91.258224
1.4624203,93.1234
1.6311853,94.00417
1.5757958,93.63045
1.6837656,92.54876
1.613876,98.70201
1.7950108,98.10159
1.7087164,96.76014
1.8042767,98.50092
1.8262302,96.98357
1.8138635,101.67172
1.9458622,101.9427
1.8965342,99.353516
1.92147,100.8628
1.9984938,103.140625
1.9566289,103.98639
1.9836833,103.50362
1.9559637,105.89621
1.968794,105.995445
2.0156353,107.78949
2.017327,106.54515
1.9604658,105.76703
1.9080365,107.66982
1.9712594,107.43524
1.9485868,109.55004
1.8993816,106.780716
1.946207,108.45904
1.9283984,107.32286
1.9628956,107.04009
1.8135984,105.012474
1.8784268,105.61127
1.82612,107.72119
1.8152419,105.924286
1.8206075,105.991005
1.7736424,108.34289
1.7225951,101.77806
1.6582253,107.330475
1.7295818,104.039215
1.6561885,106.278915
1.7439208,105.29559
1.6386944,104.83388
1.636848,103.76932
1.6316527,104.43105
1.6624366,103.55496
1.5470083,103.58703
1.6241577,99.32049
1.6456432,99.87568
1.4601971,103.01219
1.4540136,97.85372
1.5680563,98.04758
1.6451436,96.584305
1.5431697,96.76909
1.5413426,96.67475
1.4433392,95.59556
1.4520503,95.30969
1.4579982,97.109856
1.4602286,95.03081
1.4358734,93.64341
1.3086778,91.2175
1.3747473,91.81539
1.3950675,91.33407
1.368578,95.041954
1.3182958,90.184616
1.3222406,89.11839
1.3039627,92.9007
1.2631946,90.528824
1.286388,90.07464
1.1746209,88.37175
1.2018765,90.082664
1.2555133,88.309204
1.1376777,85.565025
1.053192,83.83378
1.0695561,85.48684
1.0673366,84.83437
1.1262968,83.172165
0.95887315,83.40641
0.93034196,84.91619
0.9754074,82.17226
0.98390883,83.46238
0.9183101,81.337494
0.93167794,79.881294
0.839938,82.62558
0.84050715,77.01583
0.89230484,79.58247
0.83030105,75.27986
0.7889075,77.69661
0.78943855,75.63585
0.8737294,78.23411
0.8623553,79.50357
0.84828717,75.62423
0.82230544,71.00784
0.74280643,73.22768
0.767329,74.8115
0.7331188,74.45263
0.76492876,72.59533
0.75772023,73.6465
0.7691063,74.35052
0.7871887,75.584175
0.7407906,73.98185
0.67317116,73.243286
0.6317462,72.423935
0.60704005,71.688255
0.48182154,70.81143
0.5279905,73.275566
0.51125014,73.921616
0.47375217,73.22725
0.45630866,72.944534
0.477159,71.48237
0.36530423,72.611404
0.41029173,72.6791
0.3827556,73.69535
0.31743217,73.70358
0.34006336,73.82864
0.37102023,76.5439
0.34331748,80.6616
0.39906397,78.08544
0.4281899,79.99467
0.37027583,78.38481
0.5200917,81.12502
0.4020755,81.93963
0.47262987,84.27936
0.50747615,81.23948
0.6893256,82.041405
0.66929525,83.60082
0.7357963,85.15262
0.7997832,87.44537
0.88230926,85.25268
0.9549915,85.57323
0.95147276,89.47615
0.99748397,89.20409
1.1394486,91.25195
1.2453611,94.205345
1.2653062,95.147125
1.2753111,94.84427
1.3083045,93.835144
1.4068606,94.42467
1.3871624,95.02187
1.3286875,97.33797
1.4258604,97.524254
1.5380235,95.61224
1.5501106,100.46832
1.567277,102.40674
1.581422,101.6029
1.5829774,103.57129
1.6278552,101.077415
1.5978202,102.11001
1.6536243,102.02483
1.5458679,106.44261
1.6293181,105.172325
1.622939,104.59123
1.6660805,103.87742
1.6228864,103.986206
1.5842899,104.59952
1.5852746,107.20766
1.6079122,107.65774
1.6250916,106.75309
1.5421108,107.082756
1.6017904,107.567154
1.5136082,106.23686
1.5763592,111.279305
1.5064572,106.95615
1.4404851,104.83476
1.5049907,108.19646
1.487436,107.56203
1.4355664,106.17453
1.4284456,105.21262
1.4378573,104.11979
1.3236016,107.272026
1.3337365,105.81832
1.3052993,103.602585
1.3152174,103.95431
1.2833685,104.1881
1.2729558,101.91676
1.1821247,103.04445
1.1969128,103.25328
1.223917,100.17169
1.2254404,100.92232
1.1590525,101.30515
1.1268685,100.62486
1.1612208,97.01853
1.1554459,98.34331
1.0017424,100.27409
1.045128,95.11232
1.0378134,95.13898
1.1527768,95.63265
1.0617434,94.23756
1.0199072,97.27678
0.929599,94.793564
0.98034394,95.674934
0.8399677,89.73342
0.9589727,92.254486
1.0069996,93.173706
0.94421786,94.66362
0.9302339,88.661224
0.85204023,91.48732
0.8299844,89.08253
0.8035183,90.795166
0.84691834,90.108185
0.83066034,89.88211
0.75378644,89.091324
0.7396424,92.03541
0.7370357,86.316376
0.65133595,83.87111
0.59432167,85.975845
0.6333999,84.61774
0.6699158,82.235855
0.54264766,84.17509
0.5468558,84.028465
0.46186796,83.43015
0.40643477,83.78534
0.4886433,82.696686
0.41338518,79.50137
0.47652194,78.699585
0.4703022,78.81312
0.42192551,80.342415
0.38794947,81.0704
0.42817897,76.03231
0.4451377,79.6101
0.37738532,78.48694
0.38035747,75.790344
0.4208204,77.84217
0.36905676,72.916084
0.31466952,76.90391
0.34299543,75.99707
0.32856753,75.20221
0.3602691,76.408714
0.38109618,72.65413
0.30338824,72.89883
0.35584453,74.29268
0.30299845,73.46618
0.27203903,74.63369
0.21507542,70.89982
0.18228367,72.84498
0.13323216,74.40216
0.22495626,73.49175
0.1361233,72.289444
0.009587916,75.04955
0.0774904,76.0489
-0.017442852,73.63605
-0.021633534,71.55123
0.0010210535,71.54479
-0.01821969,74.20838
0.002342205,72.16005
-0.056501884,77.23143
-0.081477836,74.9608
-0.094091654,74.701096
-0.03597161,76.95678
-0.073831074,75.53311
-0.05244916,76.35353
0.047976032,79.07393
0.08107918,78.23739
0.12595968,79.6421
0.20270556,80.6556
0.26237476,82.17265
0.36658147,83.40868
0.3307535,83.90196
0.41409966,85.619705
0.5386491,84.80398
0.4765014,86.747475
0.5863936,86.06603
0.69473565,89.71842
0.68416137,92.19897
0.759459,89.02233
0.80976254,93.11054
0.9237993,92.09975
0.9552831,93.600975
0.9547278,95.53084
1.0150342,96.17928
1.1688572,97.095894
1.1430957,97.35569
1.1269122,97.62976
1.2975898,99.63969
1.2527559,101.58032
1.259317,99.232864
1.311991,99.79446
1.3160133,98.801125
1.325762,102.264145
1.3023028,102.57145
1.3111777,103.868645
1.3429348,99.98196
1.3633026,105.658
1.367869,105.76072
1.4454536,105.65112
1.2600218,106.22868
1.3425882,107.60528
1.3940481,108.82238
1.4180573,106.45585
1.4026072,108.44272
1.3152027,108.86835
1.3449298,107.9171
1.3385758,106.72114
1.3392276,108.45075
1.3471208,107.110115
1.1982704,103.552055
1.3910332,107.029854
1.159683,104.05988
1.2363472,106.79183
1.149202,104.19996
1.1793362,104.48827
1.1433142,105.35198
1.1666503,103.74463
1.0956104,106.76285
1.1277225,104.00408
1.1266673,103.55558
1.0403867,103.082306
1.0870972,104.41008
1.1121242,103.01584
1.0835235,100.658936
0.96665186,102.02792
1.0757803,100.60124
0.9812965,100.091644
0.9661534,101.161446
0.96029687,99.25145
0.93418986,97.3419
0.97600347,98.11672
0.89595515,95.60701
0.9730634,96.62133
0.9809504,94.41382
0.900923,96.03941
0.9029607,93.95987
0.93569064,93.17977
0.89062023,94.1737
0.8402693,94.728485
0.92347145,94.12716
0.9369185,92.38004
0.8329655,91.80365
0.7941706,89.16199
0.904032,88.37778
0.8370447,90.1781
0.7439825,87.32725
0.70852935,89.55796
0.7246596,89.21821
0.7492096,89.046745
0.6052041,84.80619
0.64193565,86.87084
0.59415567,87.77874
0.642296,84.95626
0.63736624,87.77089
0.5305151,84.2635
0.5570498,81.73609
0.5420524,83.22815
0.5218228,82.91557
0.46255398,83.510666
0.49759907,80.4871
0.49133763,82.21125
0.4375221,79.117226
0.51699376,79.68928
0.39992422,79.82754
0.4440715,78.19704
0.45738113,77.96842
0.4599835,79.87799
0.53714013,72.548
0.39359632,76.508156
0.5152001,77.5057
0.43405357,77.15932
0.4368058,76.73307
0.55610585,75.41517
0.45845625,74.21374
0.44400898,70.90374
0.433301,72.22039
0.34883353,73.47131
0.3843163,68.56057
0.51193994,74.087364
0.28805557,72.68751
0.3306122,72.93036
0.3266886,73.59991
0.28550515,72.93126
0.25974098,72.00415
0.2550957,70.07023
0.29552403,74.316696
0.23262073,72.69079
0.22158414,75.55356
0.21156712,76.45001
0.17958605,74.14321
0.16458344,74.27375
0.14777717,70.40896
0.16492769,77.09757
0.17279933,75.869995
0.23684683,76.77821
0.26830825,76.60132
0.27687442,76.826515
0.28732198,79.91656
0.3143812,82.557014
0.40441296,81.89915
0.46113062,82.03405
0.5310901,81.3227
0.584568,81.29742
0.7096661,82.32208
0.5955101,84.469246
0.7257772,86.05081
0.8646327,85.59604
0.9129037,85.610886
0.9460858,88.64602
1.0481215,92.09537
1.1010545,91.78555
1.1500115,93.78238
1.2004312,93.71558
1.2446512,90.800125
1.2988291,94.76935
1.414747,97.8904
1.4654974,97.17997
1.4392358,98.45575
1.5229118,100.4376
1.5665313,102.22582
1.5696254,100.81506
1.641336,101.07917
1.6911536,102.68592
1.629034,104.50115
1.6679605,103.03336
1.7494744,104.2154
1.7509996,107.096954
1.746765,103.483765
1.7866161,105.15305
1.7677798,106.40959
1.7190279,106.36063
1.843311,107.332726
1.6868602,110.402664
1.651542,105.755554
1.7552758,106.99647
1.7213428,106.614815
1.685726,106.31786
1.8240256,107.239075
1.6653488,110.541756
1.7464412,107.67057
1.6859158,105.08022
1.7123635,106.6843
1.7050319,105.82464
1.6342429,106.677185
1.6369557,106.30439
1.695423,104.3318
1.5916392,106.536736
1.569975,106.35389
1.463043,102.665985
1.497577,104.23807
1.5591083,105.41106
1.5053381,102.100945
1.5019705,103.21573
1.4761145,101.45985
1.457655,102.04043
1.42281,100.85289
1.4394758,99.64344
1.3159825,101.69599
1.3951735,96.5191
1.4420627,100.13973
1.414573,98.743164
1.4367453,98.467445
1.4077177,96.18442
1.4220754,96.01371
1.3253586,97.730156
1.4068589,96.75972
1.3467658,94.21794
1.3849298,95.03405
1.3702744,94.470505
1.3286299,94.91564
1.338099,93.20826
1.3643899,89.872925
1.326447,91.22746
1.3338399,90.26971
1.2493314,91.32314
1.227061,89.52292
1.1753498,92.06283
1.2219279,89.42734
1.2086852,89.95988
1.2034775,88.182526
1.1216817,84.80636
1.1091269,84.99782
1.0553608,84.80272
1.0600485,82.23687
0.9876038,84.96422
0.9937517,83.86768
0.9405657,85.0838
1.0576906,82.83346
0.99459714,83.53096
0.88863546,82.60053
0.9447497,80.28822
0.87233585,79.46969
0.9271003,84.02064
0.8376714,82.1425
0.942164,81.41195
0.9111776,82.47709
0.92270565,76.9953
0.9146749,78.58946
0.84777343,76.1841
0.82310444,76.16613
0.91359985,75.18553
0.87997264,76.22032
0.980831,75.17703
0.99636775,75.504
0.89513636,76.034515
0.8346642,75.44566
0.88182473,74.675476
0.7800123,73.48509
0.7498869,75.49289
0.77836865,75.22527
0.83886886,74.22912
0.7494689,74.48309
0.6723961,74.57104
0.6930747,74.331
0.6761315,74.62524
0.7059032,74.35811
0.6589936,71.5526
0.6725686,72.685844
0.6353177,73.833084
0.53589267,74.63983
0.50510466,72.35389
0.54464847,73.21421
0.5449281,75.10283
0.5326901,73.334015
0.51797646,73.93649
0.48546207,78.59951
0.48867366,75.73716
0.62661433,77.373024
0.60047054,79.577896
0.67469406,79.60979
0.68516296,79.76475
0.77211314,81.79005
0.8167481,83.44275
0.8546202,81.106155
0.9240261,81.252594
1.0336827,84.25401
1.0704219,87.9003
1.1993164,86.96401
1.2171001,88.50761
1.3015249,87.89574
1.2351795,89.3329
1.3061253,92.42128
1.3981452,88.99683
1.5468105,93.62114
1.5248181,94.242424
1.6068935,99.27297
1.7392162,96.52442
1.6398933,94.65099
1.689192,94.60686
1.8042413,97.63483
1.7839724,96.290085
1.7796563,98.68139
1.886189,96.9321
1.9026645,99.47238
1.8934183,100.27054
1.8729835,101.925476
1.942544,104.615265
1.9221625,102.78722
1.949147,106.16524
1.9079213,105.44956
1.913596,105.80013
2.004927,109.33724
1.9148066,104.11586
2.0015574,106.52359
1.9578549,105.010376
1.9227804,108.09142
1.9561468,109.95253
1.8916361,109.04141
1.927147,109.07928
1.8546892,108.711685
1.8554924,105.896736
1.8368258,106.79675
1.8567766,107.24106
1.8397356,106.730286
1.8180846,105.76242
1.6884127,106.54896
1.7860548,106.63499
1.7253035,108.77987
1.7135806,106.66802
1.7900229,105.19811
1.6755934,103.9264
1.6576166,105.07986
1.5830195,103.17643
1.5987267,103.05115
1.5243939,104.11539
1.544584,103.12192
1.520882,100.848656
1.4983042,99.84315
1.4789896,99.202866
1.515239,101.64055
1.4284768,97.92583
1.4632251,98.775764
1.4138414,98.23629
1.4422783,96.712616
1.4330885,101.677155
1.3883743,95.07137
1.4384652,96.6855
1.3171322,94.789116
1.3832848,92.91073
1.3739,96.416916
1.3804419,92.5444
1.3282138,94.647194
1.3710991,93.01769
1.3120086,92.63211
1.3647194,90.137184
1.3102567,88.76795
1.2690502,90.26068
1.2151849,87.80763
1.157458,93.036644
1.1959103,88.60955
1.1205069,87.06534
1.0861795,87.53027
1.0769606,85.94672
1.0999019,83.43864
1.0437682,86.78228
1.0100498,85.66497
0.88937074,84.25652
0.867165,86.78628
0.903167,82.31803
0.8455302,81.89834
0.89857507,82.05676
0.7469082,81.7376
0.8064959,81.00356
0.7644112,79.37607
0.7793505,78.487526
0.8523114,76.97013
0.81401354,81.54299
0.78465456,78.47
0.7437582,77.51196
0.73359656,78.78004
0.6962505,77.111115
0.73982537,76.82836
0.775794,75.459694
0.69591093,76.432274
0.73929363,75.45789
0.73119104,74.91413
0.7096859,76.374695
0.7557977,71.903824
0.65360975,76.968056
0.63876235,72.276665
0.675099,72.8269
0.61100984,73.32014
0.61639196,72.42514
0.5379463,70.63188
0.4639828,74.09399
0.42291772,70.62192
0.3689448,71.993034
0.5654938,71.32239
0.3785664,70.64345
0.31593168,74.559616
0.37095317,74.08998
0.32876045,70.29365
0.23513964,75.1402
0.35181814,72.79917
0.29571217,74.4831
0.28646076,75.47114
0.29203272,76.57547
0.26030838,74.454346
0.26676106,77.22598
0.3415532,74.744385
0.3116152,74.805046
0.34999734,79.723755
0.38571522,81.17017
0.4473124,79.63411
0.48750204,78.64563
0.49742872,82.97497
0.5721104,80.1069
0.72931,85.43665
0.75693876,88.82988
0.81443226,83.948555
0.87564313,88.46234
0.91633916,89.11261
1.005071,89.94801
1.0578653,89.88585
1.0677968,91.468376
1.151148,93.21728
1.215823,93.42166
1.2031444,91.75416
1.1794297,96.08729
1.318788,97.704445
1.3628485,98.45199
1.4027225,100.00582
1.4200939,101.16799
1.432694,99.346756
1.4536147,100.927216
1.5101713,99.987045
1.427075,98.361885
1.5463454,104.838234
1.4690442,101.15026
1.4955095,106.138374
1.6182737,102.625145
1.4800409,106.86698
1.6160964,105.72845
1.4950477,108.375336
1.4536448,105.97295
1.6040418,103.02185
1.5289578,107.99216
1.514303,104.78447
1.5332475,106.98238
1.4463953,104.91027
1.4589313,107.31797
1.4623924,106.42066
1.496446,108.87193
1.3527914,108.114204
1.3964704,106.80829
1.3544829,104.34138
1.3205144,105.70288
1.3767233,104.570915
1.4244107,103.53086
1.3733532,104.44515
1.249378,106.81762
1.2636164,103.03318
1.2050525,105.34577
1.2001864,100.94324
1.2049638,101.338806
1.0544508,101.986176
1.1752105,101.6123
1.1120635,101.24531
1.0566777,103.93232
1.0608749,100.37258
1.0695012,101.80074
1.0118918,96.85608
0.9587867,97.72875
1.0168948,99.12119
0.9595107,101.862755
1.020356,94.987015
0.94776493,97.301704
1.0334953,97.095116
0.9643516,93.954544
0.89496523,92.03491
0.9302652,91.88869
0.92598224,94.778564
0.94831645,93.09557
0.8894654,92.85101
0.9447562,90.902885
0.90884054,91.55478
0.80587846,91.775795
0.7949431,90.17703
0.79291415,89.20693
0.7310932,90.437485
0.78209853,88.973885
0.76487905,90.14484
0.6670111,85.530106
0.66136575,89.00866
0.651688,86.58592
0.47270787,86.23894
0.5430975,87.47256
0.5912835,87.34139
0.5566895,83.6968
0.5308567,84.120346
0.44706583,80.75063
0.4445268,82.56114
0.46777636,81.057594
0.3899737,82.24777
0.37932777,81.851494
0.44543752,79.64025
0.3685986,79.953926
0.42809203,78.92055
0.41366833,82.757805
0.4262472,77.12247
0.23738103,77.57527
0.37353808,77.65814
0.3296627,76.112045
0.31870273,78.13665
0.38376588,73.343346
0.35174343,74.72129
0.26427943,74.85249
0.31167752,74.76201
0.3627576,71.517204
0.3251849,75.05775
0.27961054,70.560616
0.23644163,75.627464
0.20969653,75.97874
0.18069465,73.01892
0.22422157,74.94055
0.14776322,73.219315
0.109315,73.99559
0.18027899,70.33525
0.0993183,73.65579
0.03324589,69.00132
0.026125018,69.22429
-0.007128041,73.561775
-0.12784179,74.27931
-0.059311975,74.79561
-0.02190088,75.97398
0.0043938407,70.60484
-0.10300573,75.92178
-0.13777986,78.050285
-0.06746637,73.41152
0.0070479834,76.05727
0.053294923,75.79117
0.055020865,78.98755
0.026389437,76.15564
0.13490367,79.95962
0.1498188,78.16944
0.19851568,82.823975
0.23619224,81.00938
0.35525754,86.63225
0.35312632,85.950226
0.3931091,83.52835
0.5012031,85.51046
0.5552894,88.65886
0.6451133,87.44448
0.7347009,88.297806
0.78274906,91.06873
0.84270704,91.396736
0.91792774,92.68932
0.9554833,92.01974
0.95287687,93.47043
0.97130454,97.71967
1.2306522,96.368675
1.1939517,96.335175
1.2077241,100.10825
1.1595896,100.37797
1.3029081,99.884964
1.3377297,101.26067
1.3405974,102.489746
1.2452935,99.825615
1.3549501,102.00301
1.3866987,105.4808
1.3518906,101.80149
1.3638133,106.868225
1.3359888,106.629135
1.4033486,101.15208
1.3784018,106.76211
1.4127506,106.64649
1.4471987,105.37693
1.3828442,109.86996
1.4696687,107.8606
1.4202096,107.220314
1.4301705,109.78501
1.4599755,107.6859
1.4304069,105.24198
1.3432667,110.76109
1.389041,105.21567
1.3131269,106.71996
1.2886766,105.55131
1.3068502,105.83195
1.2859305,104.40484
1.2865254,104.77249
1.2630211,104.51796
1.2058672,105.74754
1.3370796,106.76562
1.2237285,108.42113
1.1186782,101.99646
1.1680449,104.48542
1.0948974,103.298996
1.1373986,97.969925
1.1101354,103.41058
1.0825628,98.97412
1.110568,100.18014
1.0438044,99.827286
1.1180681,100.168526
1.0836455,102.29271
1.0410775,98.68712
1.1133201,99.91059
1.0547587,98.85548
0.95955926,94.23494
1.1225702,100.025925
1.0498663,97.68843
0.9806302,95.55999
0.98929423,92.50034
1.0688753,95.57763
1.0203724,96.01148
0.9798561,92.30251
0.9914807,93.0904
0.9316351,93.50906
0.96632606,90.94806
0.9033686,88.25977
0.8497915,90.325066
0.8687168,89.12633
0.8581127,89.107155
0.8738086,90.066536
0.80347425,88.12775
0.78076553,88.33746
0.72068775,85.43987
0.671841,87.45108
0.7604491,87.222115
0.66350675,87.291214
0.65533376,85.31416
0.68614984,84.78806
0.6031678,82.98367
0.63645,82.652695
0.5063049,80.36016
0.6211084,82.24422
0.5692593,79.73323
0.6195716,81.006294
0.5946756,79.74816
0.4806359,78.255295
0.5606942,77.26593
0.5814324,78.359764
0.56737137,77.19442
0.4830924,77.83298
0.5432804,75.820595
0.5356746,75.505554
0.6181205,74.643555
0.62348324,74.4489
0.5338903,75.148964
0.5929556,76.73206
0.61156774,75.78516
0.5437151,74.15254
0.54983747,74.74338
0.5549482,72.44799
0.5140643,72.80281
0.5035993,73.99917
0.54780453,75.06578
0.48674974,71.537186
0.3914446,74.67597
0.43799004,73.708244
0.32633996,72.92888
0.40850306,72.42554
0.34360835,73.806465
0.333571,73.263405
0.35021713,71.324905
0.29999173,72.585884
0.29223675,72.84932
0.3220878,73.1053
0.28216887,76.080475
0.28561378,72.40728
0.25860217,74.8096
0.32190013,72.64005
0.299576,75.91207
0.35322356,79.626076
0.4250775,80.13301
0.41287786,81.202324
0.48026007,79.83558
0.5484722,78.70647
0.57850087,80.74297
0.6248576,83.00677
0.72285324,81.26763
0.78493184,83.79293
0.79977673,86.1432
0.9045606,86.99124
0.9458586,90.46418
1.0605887,89.70402
1.1603998,89.94106
1.1802194,89.328995
1.2744085,90.9299
1.3448097,91.96375
1.3233582,93.88813
1.4057878,94.990776
1.5516263,92.055
1.463997,95.553535
1.5397822,96.24527
1.6161022,100.78362
1.6225233,100.57038
1.6591685,101.87306
1.6913909,100.818565
1.7349054,99.574135
1.7595679,101.69214
1.727156,103.862015
1.7749574,104.557045
1.9047306,105.15338
1.8165972,101.68655
1.8765581,106.28926
1.8176063,106.13886
1.9227297,106.66384
1.8312116,103.91941
1.8228449,105.41025
1.8541652,109.51972
1.8522853,104.859955
1.834356,104.81254
1.7678074,108.26111
1.8082632,106.05944
1.7477508,108.09246
1.7478839,107.198135
1.8286171,110.18284
1.8196666,106.62137
1.7600175,108.99812
1.6719382,107.45892
1.7674816,107.12947
1.6785666,108.509926
1.6996897,105.68971
1.6634423,106.925064
1.5915858,101.49546
1.6301751,106.14654
1.5625452,104.6253
1.4953684,101.19554
1.4908062,103.572754
1.5479335,100.72883
1.5408306,99.772316
1.456987,104.76218
1.4845848,99.41681
1.497095,99.87722
1.5217673,98.25091
1.4857157,100.54334
1.4996067,99.808586
1.503541,97.514984
1.4068152,96.40889
1.480385,96.2841
1.4799805,92.25931
1.4080555,95.02168
1.501335,93.54468
1.4084816,95.12745
1.4077024,92.9994
1.5246564,94.232315
1.393113,92.85891
1.407722,92.27337
1.3928173,92.89421
1.3845874,89.927666
1.4151027,90.26992
1.3602206,91.21078
1.2901756,91.89817
1.1987526,89.693596
1.2124611,87.68189
1.1999779,87.45026
1.2178828,87.81009
1.1812562,88.68144
1.1450993,85.50699
1.0789939,85.43531
1.086772,86.63728
1.046694,86.34194
1.0761262,83.80187
1.0496483,86.002686
1.0416927,83.3863
0.9857975,81.78267
0.90810937,81.66514
1.0392317,81.6249
1.0196122,79.95095
1.0068796,80.64457
0.9666491,79.19857
0.9089637,77.666916
0.91417754,83.918274
1.0296764,76.96763
0.9595479,75.04265
1.0100775,76.062965
0.93176246,76.07517
0.90423745,77.243904
0.97767955,74.416405
0.85902643,75.576645
0.92853904,74.88816
0.89915353,74.221954
0.9669224,74.03352
0.8007062,74.70757
0.833893,74.58259
0.89195955,72.83238
0.8010787,75.48078
0.8185008,70.48815
0.73104566,71.63693
0.7182231,73.570816
0.72366476,71.400375
0.6689531,74.41206
0.5964153,72.03187
0.6547814,72.9731
0.59402895,75.10663
0.5705792,72.78698
0.6864786,71.880104
0.5103526,73.97449
0.57534516,74.21102
0.5686174,74.66952
0.48038465,76.2409
0.5805226,75.21107
0.61509687,76.0359
0.6157756,78.52023
0.6283563,74.26954
0.6408566,80.687935
0.56943333,79.034294
0.6481068,80.86086
0.7830278,78.052155
0.84863716,83.49093
0.86073625,83.96332
0.95243853,83.91412
1.0136086,86.23861
1.107546,83.35408
1.1719582,89.12292
1.1618379,86.81573
1.3396014,89.167725
1.324762,90.57448
1.4123677,90.61005
1.497335,92.35128
1.5188419,93.59845
1.5212514,97.17045
1.6017044,94.851906
1.6686337,96.98402
1.7585331,96.19138
1.696307,96.19602
1.6972146,97.986725
1.6978319,97.18333
1.8579651,98.546364
1.7930605,99.172646
1.8332179,100.42466
1.7882179,103.93792
1.8493314,105.16614
1.863917,104.01271
1.7877777,105.134094
1.8307109,107.272095
1.8796717,102.439
1.9211808,106.60208
1.8542883,106.66171
1.8942832,103.90356
1.9080503,104.61456
1.867948,107.970795
2.0401354,107.07447
1.8636477,106.01902
1.7971183,105.321175
1.832232,104.86608
1.7690306,107.32797
1.8008891,108.633316
1.7735051,105.37437
1.8030478,106.03846
1.7258164,104.56593
1.7464865,105.361275
1.698021,103.38999
1.6892533,109.99768
1.6475439,104.885994
1.5479608,104.67401
1.5873152,103.23418
1.564214,104.15133
1.4869118,102.72923
1.4694644,100.87186
1.4440724,101.21238
1.5171336,104.05562
1.5439035,100.35456
1.3955861,101.867805
1.4724648,101.248985
1.3687241,100.192444
1.4725156,97.7399
1.368285,97.82128
1.4145453,99.85155
1.3878012,97.34198
1.3337343,92.96888
1.2915552,96.20294
1.2710954,93.329384
1.4387566,97.38474
1.3252112,95.31548
1.2797586,96.41592
1.3227353,93.60627
1.2719319,93.42199
1.349764,92.57754
1.1562473,93.227745
1.2629589,91.51577
1.1986536,92.37602
1.1000655,91.60068
1.1683196,88.73583
1.1069254,89.70989
1.0691093,86.28919
1.0289211,87.830864
1.0223302,87.621216
1.0047027,86.31891
1.0232029,89.257706
0.9765461,85.36813
0.97528267,85.99523
0.82800657,84.84531
0.76940906,86.138885
0.77430344,83.48235
0.81074387,84.09983
0.75581676,82.9113
0.7249168,82.30874
0.70492905,81.49504
0.6490142,82.70983
0.66062087,79.6264
0.7617084,78.63651
0.72281206,82.30692
0.58722675,77.235435
0.5829306,78.7514
0.7013518,77.36399
0.6491846,77.285194
0.6358081,77.513336
0.64754677,74.456154
0.62659615,76.66868
0.6271101,76.61044
0.59579724,72.52113
0.5926285,76.08472
0.59491473,71.491875
0.5479479,76.26853
0.52005243,71.903564
0.57068926,72.22284
0.44433028,69.66912
0.48668045,73.23704
0.44460967,73.47251
0.40586674,72.429695
0.30534816,72.91763
0.3485814,71.2259
0.30419877,72.33847
0.3307702,72.16003
0.19819967,73.81441
0.32136428,75.43133
0.24829513,74.81011
0.20897317,74.20802
0.23997894,72.42862
0.14196943,72.033516
0.1710043,74.886955
0.23538376,73.60493
0.21634933,75.27608
0.18176262,77.92016
0.16936776,77.5853
0.24588853,78.33861
0.2917412,79.770065
0.36709327,81.173546
0.28311026,76.91896
0.37710637,82.097466
0.5140564,83.591606
0.5282883,84.34582
0.6672011,85.43943
0.6825528,85.6266
0.6743736,86.99533
0.7622992,85.01385
0.8469809,86.92
0.8721874,88.19291
0.9257456,90.67532
1.0297784,88.04128
1.016679,89.13063
1.07761,95.333565
1.0825506,93.178215
1.1208359,98.03506
1.2157676,97.82114
1.1869074,95.673775
1.2705811,100.3162
1.3288641,102.894455
1.4066716,100.70409
1.3845448,101.09714
1.3927531,100.68629
1.4443079,102.75667
1.5043076,102.28375
1.516315,101.11742
1.4404101,101.5481
1.4274122,105.239876
1.501923,105.6132
1.4178777,107.14039
1.4620563,108.03743
1.4734938,105.33125
1.4382652,107.067314
1.4584392,106.30479
1.4795586,105.33413
1.452929,107.4837
1.3759466,107.449234
1.4143081,106.52792
1.4252826,107.355804
1.379235,107.35569
1.4119555,106.21737
1.3084677,108.85233
1.3315159,104.9449
1.2825602,104.768166
1.2770807,103.719826
1.2562004,108.39249
1.3009886,106.38785
1.0933412,104.94428
1.1744505,103.10423
1.1766608,104.790855
1.1229123,103.73076
1.0348185,103.16801
1.097827,103.2644
1.0408874,105.989296
1.1176182,100.57681
1.036875,101.571106
0.95592123,101.70443
0.91574025,100.47022
0.949711,100.0802
0.9931871,97.61053
0.89029187,99.03779
0.95196503,100.13284
1.0025468,98.30618
0.9191568,92.91624
0.97109216,91.792725
0.9199282,96.81801
0.88839066,95.32794
0.93764275,96.11103
0.89531696,92.007576
0.9181137,90.47929
0.82737035,94.109924
0.82342464,93.70518
0.80448526,92.16501
0.8480202,91.287506
0.80548745,91.18171
0.76493996,88.31344
0.7981353,88.48073
0.6858423,89.25876
0.63159424,90.51756
0.64515847,86.65176
0.54877603,87.25761
0.5814877,83.17774
0.5476289,86.64292
0.5568547,85.84569
0.50143856,85.009026
0.48460865,84.59525
0.4322412,82.11691
0.46835434,83.914825
0.43626323,84.41983
0.35256997,81.74449
0.34009284,79.91727
0.34284833,81.93316
0.39905232,80.240395
0.34404126,81.62322
0.27318585,82.03503
0.3031055,79.459755
0.34250912,78.64335
0.29861596,75.30454
0.33830413,77.11927
0.33671513,75.48088
0.32635212,74.30879
0.26604363,77.8071
0.31873178,75.91674
0.1749691,75.48675
0.29163545,70.76687
0.28907126,75.49389
0.33426183,74.99032
0.27828494,73.064476
0.2417298,72.33416
0.25338006,71.51295
0.21686195,77.574394
0.20330568,75.15154
0.12065364,72.61004
0.14232562,73.195305
0.0234597,75.68285
0.1416431,70.32103
0.11242098,73.43449
0.058786698,70.717186
0.09668779,76.664345
-0.00066649425,75.43039
0.10133592,74.29154
-0.0559666,74.72462
-0.047555033,73.521965
0.006411866,73.883766
0.043509718,74.36451
-0.032852493,76.95055
-0.03441775,79.72471
0.11248849,75.39459
0.12837599,77.03998
0.08772574,78.28072
0.14782885,79.24063
0.2043065,80.734634
0.28120887,80.75805
0.29961994,80.28822
0.2872219,82.41344
0.3767367,85.669716
0.4280899,82.47547
0.5961186,88.255165
0.58065504,88.15555
0.6490298,86.09197
0.7748747,87.864296
0.8123819,90.17388
0.764426,92.29146
0.9564604,91.75418
0.9414861,92.00135
1.0700144,95.08735
0.96021205,93.613396
1.1344717,98.15887
1.2017546,94.57814
1.1924711,96.80792
1.1880931,94.777565
1.2497698,98.9289
1.352352,98.18745
1.3502842,99.32799
1.3790879,99.590294
1.3387591,98.536934
1.4409069,103.398636
1.4430522,106.87342
1.4424558,103.83053
1.4177738,104.81605
1.4559621,105.63029
1.3951764,107.30964
1.4308764,108.70029
1.5179456,107.7358
1.4864284,108.053696
1.5316662,109.26422
1.4810956,104.38652
1.400983,109.329575
1.4276965,107.573875
1.4115759,103.49523
1.5064666,107.57804
1.4287608,104.29434
1.3780509,105.59501
1.4499842,107.68096
1.402352,105.30989
1.32488,106.762665
1.3747209,108.76976
1.3115733,107.6719
1.3037843,103.57678
1.220604,103.865105
1.2769496,103.98069
1.3132201,106.443756
1.2089261,100.66289
1.3130934,101.69748
1.2091631,104.33715
1.1448723,103.10287
1.2489253,103.43456
1.1348568,100.90832
1.1220665,104.22829
1.1619,101.32683
1.0798366,96.00674
1.0794282,99.92004
1.1181471,99.637726
1.1264454,96.60125
1.0758734,99.54679
1.172582,96.899414
1.0893897,98.05549
1.116194,96.92738
1.0700736,92.17289
1.1018487,93.36985
1.0773138,92.59673
1.1755165,96.61838
1.035067,94.12594
1.093405,90.47067
1.0818928,90.51229
1.0930115,92.54561
1.0253314,90.12235
1.0646508,86.55097
0.9750963,87.93957
1.0132183,89.19147
0.9312319,88.621704
0.8937404,88.22085
0.928976,86.98597
0.8176762,86.752945
0.8040582,87.5341
0.81644785,84.13867
0.8226513,84.0965
0.81390524,85.36836
0.6984846,82.70844
0.70152384,84.388916
0.66419214,84.21127
0.7269095,83.25237
0.7229566,82.86512
0.6722681,83.50743
0.7463864,81.683365
0.69281363,79.94183
0.6445067,80.297806
0.61027586,76.976616
0.67796195,74.26028
0.68189085,79.40269
0.65283746,76.7542
0.6169315,75.50542
0.6426118,75.132835
0.68569666,80.55141
0.6199833,73.71376
0.73183894,73.14288
0.6657572,73.864426
0.62829435,77.18878
0.6574326,73.86909
0.7676391,74.607124
0.6530712,73.361435
0.65823233,71.14016
0.60400015,73.512596
0.54813963,78.10923
0.4463082,74.198685
0.5412885,72.949036
0.4574389,73.68653
0.42652944,73.26331
0.42055503,71.78388
0.39334634,73.51949
0.40700233,72.44271
0.34843376,73.85467
0.32344672,76.42223
0.35835218,73.716225
0.40586412,73.962296
0.30625197,74.08025
0.29719296,74.610565
0.45048124,77.41805
0.4084163,78.12995
0.3700288,76.24568
0.5391406,77.20472
0.55000526,78.29744
0.62390906,80.06041
0.60233265,81.81323
0.6954093,81.673874
0.780398,81.375854
0.8230765,83.702866
0.8456615,85.33848
0.9610049,85.13452
0.9874076,86.44053
1.0640409,87.93459
1.1802437,87.44809
1.1507053,89.27876
1.2731591,89.3202
1.195065,92.946625
1.3979585,91.76896
1.3728044,92.800446
1.5301284,94.745964
1.58872,97.47185
1.6023182,96.40734
1.659288,98.199196
1.6850339,97.21868
1.6286497,99.106476
1.7152797,97.42207
1.7403934,99.111885
1.8088464,99.25918
1.8212128,99.7294
1.8250384,101.801155
1.9060627,104.22988
1.8510776,104.51349
1.8461848,104.46324
1.895112,107.43698
1.8686764,105.59228
1.9159052,106.813194
1.9478062,105.30962
1.8675859,109.948166
1.8762121,107.76546
1.8583447,107.16138
1.9281023,107.95317
1.8716174,107.00836
1.8923343,108.57803
1.8481444,107.892426
1.944206,107.520935
1.9234561,109.84559
1.843503,106.814896
1.8294141,105.55631
1.8092859,105.78373
1.8211262,105.61691
1.6977555,104.50187
1.7646937,106.0679
1.7483264,106.07448
1.7550488,102.52084
1.6680324,100.98817
1.7276716,103.08866
1.5539125,102.79401
1.6413229,103.115715
1.6436034,100.758286
1.567645,102.12924
1.5750982,100.4736
1.4860997,102.01543
1.552559,99.49985
1.4642789,98.911865
1.6083962,96.93779
1.5102967,100.299324
1.5283086,100.5438
1.5287647,96.258
1.5259829,95.27003
1.6030512,93.00941
1.5367159,95.66962
1.4940053,91.714226
1.4250346,96.562164
1.3624687,96.39468
1.5101062,94.60334
1.4248304,92.90459
1.4538846,92.62296
1.324312,92.37989
1.4229978,93.95727
1.3466489,90.81864
1.3055774,89.7314
1.351784,89.88629
1.3701494,86.05009
1.2985806,88.34884
1.2601444,86.039925
1.2464907,88.111084
1.245962,88.39779
1.2289764,87.14038
1.1428133,82.86973
1.1620945,86.83943
1.0864176,84.564606
1.0709866,80.74186
1.081999,81.77937
0.99743795,81.97889
1.026803,84.95763
0.9382957,82.65567
0.8964579,82.19167
0.94476277,79.13642
1.0119435,79.55571
0.9711135,79.05468
0.9145966,78.40651
0.91952336,78.4461
0.92991465,78.35738
0.9577464,78.223694
0.9641178,75.11807
0.9304985,77.464935
0.86775357,74.0839
0.8750713,74.4357
0.86067414,73.83648
0.83240676,76.92407
0.8594175,71.86521
0.8547452,75.55343
0.9005348,76.28727
0.8570364,75.61777
0.8396169,75.065094
0.7556662,75.6605
0.83577263,71.92246
0.7189628,76.1646
0.72016853,74.93269
0.73189527,74.09802
0.72191834,69.647316
0.59117293,70.66465
0.56858104,70.85657
0.5791781,71.59771
0.5979803,72.32433
0.6060974,74.65012
0.5123892,72.37696
0.5715759,72.317764
0.5748368,74.81335
0.4728138,75.04223
0.46201256,77.004295
0.4900634,79.06765
0.5828881,78.493065
0.6110037,79.38967
0.5584761,78.937775
0.62660396,79.446075
0.6791474,80.06705
0.69364154,80.76813
0.8623934,81.79654
0.8387021,82.493065
0.8743355,82.58053
0.9508196,83.1382
1.0342206,88.330025
1.1326796,88.21985
1.1595196,85.49789
1.1937851,88.61675
1.2435108,90.27141
1.3184861,92.36947
1.4129328,91.13266
1.4699752,91.226654
1.4689791,94.691345
1.486426,94.99115
1.5399171,96.6294
1.613469,98.99424
1.6663623,97.33226
1.7144241,98.349014
1.756159,98.79605
1.7654684,98.924835
1.7771361,103.433685
1.7595756,101.41525
1.8052486,104.120384
1.7703645,101.35295
1.7792557,104.73742
1.8569312,103.57127
1.8066964,106.18516
1.9110657,103.08098
1.8712076,105.30291
1.840135,105.523155
1.8226882,107.29639
1.8482599,105.01825
1.7497047,105.71967
1.8764256,106.79435
1.8026822,108.57933
1.7809571,106.06418
1.7986956,106.12244
1.753964,106.68484
1.7567132,106.279594
1.7062919,105.494995
1.6795046,107.7426
1.6520753,104.803635
1.6607903,107.48609
1.6806368,104.48448
1.6058497,104.96619
1.5794089,104.15462
1.594307,105.47958
1.4549642,106.951324
1.4927937,105.83952
1.4317964,100.9553
1.4702713,102.02589
1.4677098,103.05182
1.4466882,100.607574
1.3608627,100.44457
1.3573481,98.991264
1.3158034,100.8698
1.2606915,102.333595
1.3060895,100.11162
1.3590488,98.44801
1.2601341,97.14178
1.3005338,96.667564
1.2684861,98.61458
1.3052331,96.07166
1.2135174,98.25532
1.2106353,93.6107
1.2095915,96.41867
1.165133,94.56617
1.1476686,96.14223
1.1497272,91.9646
1.1902463,94.76675
1.1966711,92.57691
1.0472001,91.75693
1.1538957,89.26726
1.1134099,88.76669
1.0827999,88.444885
1.0432849,88.42139
0.97285074,87.36751
0.9848594,90.85666
0.8818826,86.68227
0.8820818,88.44956
0.8085842,85.23103
0.8704222,84.29063
0.82438445,82.51776
0.7849304,84.32204
0.694869,83.86218
0.7238398,85.55851
0.6410252,83.81496
0.61752486,82.84083
0.65320194,80.61551
0.60356283,79.75118
0.62606615,79.92909
0.64525753,81.52119
0.5618575,81.54067
0.57316154,80.13209
0.5308149,79.362076
0.55123156,79.93008
0.5809805,78.02631
0.554147,78.76583
0.5542516,77.1847
0.50665253,74.9311
0.5556905,76.00413
0.41830727,75.746445
0.5427952,76.45852
0.49161792,74.33116
0.49959645,70.58571
0.5211813,74.96882
0.403827,75.38432
0.39292037,73.35526
0.42970014,72.26205
0.41565895,75.34818
0.31579927,75.77688
0.32698405,74.1202
0.37194684,71.7841
0.25977045,71.6333
0.20934893,71.72238
0.16489783,75.933365
0.23075326,74.80503
0.13896208,73.83896
0.104353115,74.38331
0.08375774,72.4204
0.05551729,75.63843
0.05659303,73.94129
0.027601361,77.02024
0.08623255,75.663574
0.056613795,77.82981
0.01134778,78.0062
0.17100711,77.979866
0.20033863,77.207535
0.20079862,76.06978
0.14532408,80.073
0.3836484,80.98729
0.3489837,81.559105
0.35233718,81.73413
0.38454762,82.24371
0.4946517,85.15147
0.47300524,85.81971
0.5552915,85.217964
0.55850405,88.34418
0.716855,89.97016
0.74068356,89.30539
0.8227133,88.29719
0.8829614,93.821754
0.92018443,93.47329
0.9750194,96.14555
1.062921,94.807175
1.1637423,96.25362
1.111076,93.62653
1.2176087,92.36788
1.1434962,98.1344
1.1923517,100.11539
1.2646501,100.9745
1.280796,101.63805
1.377889,102.559364
1.3246765,103.786026
1.3218703,101.83159
1.3489006,102.88468
1.362834,103.15709
1.3769184,104.423584
1.3999966,102.43946
1.3274559,105.385796
1.4747015,103.06983
1.389354,105.356445
1.4524338,106.56646
1.4164652,107.26807
1.3825408,107.12
1.340196,107.63638
1.3713866,108.57267
1.284179,107.1096
1.4362494,104.870255
1.2471869,106.593864
1.2734026,107.220245
1.2454016,107.7743
1.2466514,106.1238
1.194723,108.99127
1.3018485,106.51238
1.2707326,107.40041
1.2403378,104.738266
1.2137876,103.50104
1.130149,103.72886
1.0947746,105.67446
1.1815385,102.551796
1.0822473,104.84367
1.0162103,103.12624
1.0507728,101.98047
1.0740601,101.40385
1.0682745,101.10446
0.98558396,104.14383
0.9591514,102.21697
0.93989724,100.595535
0.8442206,101.726074
0.89764345,98.101074
0.9441666,97.54821
1.0264045,98.047485
0.83894086,96.79096
0.87691665,94.72035
0.8912494,96.44836
0.79666823,95.33951
0.94466823,95.009
0.9191943,95.18365
0.8779722,94.39762
0.8192593,95.73235
0.8736611,91.7873
0.8267242,91.171814
0.75377405,90.606
0.8223334,92.41528
0.6926278,90.48479
0.7494863,90.89338
0.6751997,88.57737
0.7138148,87.0406
0.62528795,87.50737
0.68285716,88.57922
0.5790824,82.904045
0.61139864,85.25975
0.49437234,85.616066
0.52816266,84.74875
0.434015,83.061356
0.5064574,84.36351
0.45676377,83.14281
0.39433524,84.07439
0.36679575,84.42709
0.3091364,81.74803
0.3184471,80.90382
0.41525197,79.78789
0.42146614,78.36014
0.29857504,79.057205
0.34649035,80.00009
0.41125235,79.65803
0.37101564,79.375465
0.3242193,77.2901
0.39542943,77.71912
0.35635433,77.966225
0.34793463,76.28619
0.34360078,75.828415
0.39374766,72.759865
0.2703308,75.30388
0.34685078,74.546936
0.32084328,73.332275
0.26173428,73.55433
0.3048123,73.19598
0.28300688,73.52991
0.3218874,75.23278
0.16106948,73.30888
0.21602091,74.25503
0.16479711,74.419205
0.20211866,72.71671
0.160687,71.050125
0.12833858,71.76246
0.05019305,73.09178
0.04879547,73.383965
-0.0277521,74.84449
0.018714467,70.79226
0.047111344,75.62427
-0.026075773,73.48768
-0.02577028,73.21555
-0.0045214915,76.37587
0.01901623,75.39189
0.03887517,76.63269
-0.012290509,77.59344
0.059043776,77.789185
0.13508238,82.96906
0.19717926,77.34451
0.26112464,80.67392
0.2460318,81.16144
0.33515725,82.44725
0.37919194,82.695
0.39404133,81.772064
0.457464,83.39563
0.593375,85.57408
0.5879294,87.773796
0.65295094,88.5553
0.74488,88.73886
0.83425176,90.32163
0.86762935,91.076256
0.93053764,87.75542
1.0512632,93.38218
1.1235157,91.97531
1.1420659,94.84286
1.2383608,98.2149
1.1912837,95.52546
1.3169125,98.50801
1.3161,102.190186
1.4288222,100.2934
1.3942367,99.67651
1.3857412,102.30195
1.4908932,103.74128
1.502685,102.12221
1.404403,103.53738
1.4043571,103.39458
1.5065987,103.10209
1.542279,105.05653
1.507607,103.83659
1.5297002,105.41117
1.5413164,105.64309
1.5849055,106.01448
1.5017189,106.28706
1.5382912,110.59746
1.5725282,106.90654
1.5008597,107.34814
1.5345367,108.6861
1.6116512,105.02275
1.5249832,107.51271
1.4799442,105.962975
1.5255872,108.20116
1.5606031,108.08888
1.4805644,104.93065
1.4936817,105.170166
1.4516261,107.06392
1.5364242,105.42156
1.4371326,107.9297
1.3790069,103.4476
1.4400749,101.6937
1.3865658,105.478004
1.3977371,104.2843
1.3313075,102.632355
1.3000355,104.91569
1.30556,101.811646
1.2855705,102.54182
1.2628384,100.66127
1.235195,100.93018
1.1976134,100.345856
1.2637826,97.76762
1.228408,98.99944
1.1981406,98.98828
1.2179676,99.409615
1.2333729,97.869255
1.2547748,98.61551
1.2675194,97.22558
1.263163,94.35477
1.183207,96.376366
1.1984528,93.295784
1.1551383,94.10146
1.2021656,95.184235
1.1015519,94.3813
1.1342844,89.30338
1.2000245,90.45691
1.0978642,89.74507
1.158361,90.50684
1.1604424,89.66422
1.0987592,87.29763
1.0617318,90.78111
1.0311538,84.858315
0.9967969,88.448204
0.9566106,85.532814
1.0181113,86.20783
0.9531232,87.326996
0.8576238,82.66963
0.86470443,83.846
0.7966319,82.88862
0.82258457,87.0359
0.897912,82.995514
0.77806026,81.757675
0.8228777,82.670685
0.79814154,81.142426
0.72691494,80.95075
0.7254424,81.028275
0.70578146,79.13744
0.7439087,79.35222
0.726508,80.48355
0.70064706,79.34981
0.72922826,77.00657
0.7701172,78.2534
0.7003981,75.953514
0.7753202,73.915565
0.7919832,76.054535
0.7328563,75.97209
0.6983361,74.008
0.80555445,72.05289
0.72200704,72.686584
0.7059639,76.27995
0.66190654,72.34549
0.6962028,72.820244
0.7341845,73.91958
0.6955361,74.18742
0.5480136,69.83922
0.72515947,71.77789
0.70316845,70.47567
0.6141652,72.44297
0.50185084,73.925674
0.5229335,73.684586
0.45674646,72.52671
0.46462333,73.7721
0.4717643,74.71823
0.48890063,74.2383
0.4321721,75.84444
0.5176524,77.06171
0.4685888,74.51019
0.47042552,76.49526
0.44265813,76.068535
0.52440166,79.187355
0.5616282,80.69438
0.51950324,79.22117
0.6487223,79.09799
0.55028695,80.780716
0.55303806,81.48476
0.7033532,81.004684
0.8628537,81.41031
0.84286875,84.62402
0.96662563,84.02661
0.95273274,82.759514
1.1077338,84.00818
1.1520476,84.26931
1.1175153,84.11329
1.2459403,87.701584
1.3462436,90.92476
1.3972925,91.425896
1.3483853,91.65727
1.5833291,90.8529
1.4972107,90.49084
1.6649407,94.88336
1.6351012,93.37662
1.7118764,98.099915
1.7271148,98.30291
1.704156,99.52914
1.782415,102.27757
1.798267,99.94356
1.8000252,100.191345
1.883633,101.11148
1.9653229,103.05409
1.9320669,103.00336
1.9118099,103.06542
1.9503543,106.20874
2.0766664,104.68279
1.9670196,104.76219
1.906793,106.17334
1.9277071,105.36325
1.9686813,105.16908
1.9124918,106.2188
1.9468256,105.46067
2.012186,105.694626
1.9534979,105.26491
1.9328277,107.65252
1.8584415,106.70627
1.9818425,106.19538
1.9345698,109.19091
1.8247985,109.82641
1.7838869,106.89618
1.9119129,107.9814
1.8813603,105.62267
1.7781562,102.338036
1.7729601,103.93839
1.7967452,106.40742
1.7940983,101.92186
1.7469907,105.20508
1.6961385,102.55082
1.5949658,103.76313
1.6437647,104.47065
1.5974792,101.9773
1.675373,99.80174
1.5940301,102.3574
1.56724,102.71499
1.6124389,101.80325
1.5808078,98.88991
1.5967475,96.90596
1.5370531,97.95767
1.552566,98.87963
1.5160658,98.039764
1.5711136,98.66819
1.5518202,97.125
1.5582992,95.57452
1.489308,93.97205
1.3914553,94.30449
1.4276956,97.95622
1.4701064,94.24572
1.3764076,91.16382
1.5087377,91.15228
1.3680786,93.22906
1.3556895,91.64948
1.4223179,91.97065
1.3789989,92.6682
1.3426274,90.49126
1.3271759,89.53021
1.275242,91.1928
1.2839344,86.98159
1.1631345,87.10499
1.2003479,87.503716
1.0509373,83.832
1.1427037,85.21472
1.076681,85.66418
1.0160595,82.34799
1.011318,82.27231
1.0206432,86.91431
0.9393689,83.03043
0.90660053,83.401306
1.0151333,82.03082
0.9488689,81.32697
0.9875073,79.17105
1.0023241,80.743416
0.9101751,79.76509
0.83101636,79.154785
0.92430145,79.04138
0.97224027,79.44409
0.9025175,76.76337
0.84786254,74.548485
0.93713266,76.706825
0.90379536,74.77803
0.8459564,72.98014
0.8954684,77.71711
0.7905015,71.06125
0.8490696,72.36192
0.7992724,75.18333
0.8161039,73.7865
0.85536134,75.52144
0.7233475,73.34921
0.73106605,73.31578
0.72375685,71.7893
0.710918,72.39752
0.7184209,75.046036
0.56656265,71.7264
0.5655926,72.95745
0.5609467,72.83827
0.6309421,71.94811
0.47671732,74.88729
0.51993936,74.306656
0.44933966,72.57235
0.43801045,75.31754
0.36314508,72.06948
0.37945607,73.83063
0.46009925,72.16365
0.38171026,74.03928
0.40709004,74.88119
0.4686264,78.43082
0.5057878,79.08481
0.6024359,79.334755
0.6456992,80.85719
0.5248391,79.05195
0.6848083,79.14441
0.7158121,81.538086
0.7152377,79.64503
0.7622458,81.659
0.82180923,83.461266
0.90645,85.52165
0.9961023,86.03489
1.0687071,89.07816
1.0792543,91.31657
1.2346303,89.032196
1.133226,88.76826
1.2433685,92.31258
1.4185957,92.691925
1.3759251,91.5301
1.4553249,91.817444
1.5258138,93.38431
1.5415014,95.41664
1.5787796,97.12283
1.6273949,96.38709
1.624417,100.1165
1.5937145,99.735954
1.6973245,101.51454
1.7298166,102.53845
1.6350876,100.79736
1.7236708,104.21943
1.6574281,104.8521
1.7207539,104.31823
1.6849632,105.96498
1.8113556,103.33338
1.8604643,102.76509
1.7559693,103.5138
1.7441906,106.69665
1.7255733,107.70789
1.7896416,107.92285
1.7106898,107.58062
1.7101507,106.29735
1.6750587,106.55091
1.6219195,108.31396
1.7056996,106.252884
1.6655992,105.228386
1.583597,105.63289
1.5774409,105.785286
1.5891894,108.07846
1.5353707,107.62998
1.5131729,105.24521
1.4806614,108.084526
1.4912386,104.60256
1.4611188,100.65332
1.4072449,104.6017
1.3710564,104.1007
1.3691831,102.99275
1.3727584,103.357086
1.329826,99.63546
1.2988504,102.94416
1.2818877,100.591095
1.2657226,105.09956
1.2624364,98.211815
1.2782837,99.90868
1.2156733,99.715256
1.3087398,98.63229
1.1570994,99.00888
1.2692907,94.97205
1.1256636,98.54242
1.2030516,94.232285
1.1572391,99.044556
1.1466177,97.67708
1.112326,93.13679
1.0802748,95.50019
1.0967301,96.542015
0.99897105,92.31717
1.1042786,96.51409
1.0105395,92.12268
1.0420325,92.01452
1.0734837,90.13153
1.0483094,92.08208
1.0193348,89.23683
0.9508103,91.508095
0.93482214,89.2849
0.9199999,87.43676
0.76183486,88.98542
0.91469526,85.33429
0.76710856,86.80755
0.7436075,88.04595
0.63335717,84.39813
0.6494704,81.87652
0.5997989,86.40709
0.68315613,83.43717
0.584349,84.864296
0.5486538,84.85724
0.5970131,81.10457
0.5042521,82.662865
0.6077082,81.43275
0.46055898,80.22656
0.5858191,79.88224
0.44492015,79.579666
0.43874177,78.273155
0.5489282,78.918625
0.4466508,78.16169
0.43878588,78.59005
0.46989885,75.25103
0.43712467,77.377625
0.43862778,76.22017
0.3954476,77.08656
0.40029722,75.019226
0.40801412,73.85943
0.45148665,75.50348
0.4199718,75.22798
0.33955774,72.7936
0.2843595,73.228065
0.3138894,74.051544
0.36880037,73.13513
0.24799146,73.945305
0.2716543,73.17102
0.25996932,70.77027
0.17143077,69.3257
0.20813379,73.05362
0.15522718,70.416565
0.116854966,73.13801
0.13603784,75.68734
0.004950151,72.88063
0.048635688,72.84582
0.101274855,73.87053
0.020697841,77.032265
0.018846113,73.54871
0.04605879,74.26666
0.017047467,75.6787
-0.007801321,74.74683
0.0023372269,78.62876
0.050111406,76.54161
0.1150518,77.51079
0.14468946,79.42681
0.21208696,77.76107
0.25886074,81.37097
0.20282166,83.94961
0.38503674,81.37743
0.38114607,81.74442
0.46296567,87.17208
0.5304374,85.21496
0.53141123,85.67985
0.6574409,88.898575
0.64075905,87.32666
0.73832345,89.926384
0.8274944,93.49162
0.8917412,92.85415
0.9379326,96.05354
1.0066115,92.840294
0.97208714,92.407425
1.1868855,97.10892
1.0835387,97.90806
1.1030654,97.95565
1.2448099,101.90382
1.2194084,96.67922
1.3035623,100.47176
1.3701665,102.56668
1.2585617,101.8519
1.393718,102.55974
1.3470862,104.1231
1.3171219,103.21099
1.3394325,103.796646
1.3642269,107.59291
1.3741176,104.437195
1.3355808,104.70034
1.4212443,105.55559
1.3663923,106.763824
1.3831614,105.313354
1.3974553,106.845695
1.4165491,111.43051
1.2970896,108.93586
1.3397714,108.37844
1.3126656,109.7238
1.3159655,107.78529
1.2453407,108.51487
1.2712679,109.01907
1.3113052,107.3577
1.1990123,107.38534
1.2530352,108.607155
1.1732864,106.26569
1.088379,106.49409
1.1410177,104.11669
1.1161349,107.02999
1.1266725,101.406456
1.132701,102.31946
1.0264043,103.16472
1.1314521,104.72477
1.0799927,105.29657
1.0102029,101.21966
0.90821403,101.9986
1.0795916,101.80195
0.9943188,99.16818
0.9458806,103.38604
1.0109028,98.5852
0.9115203,99.46089
0.9306306,97.70506
0.8981121,101.28664
0.96808666,96.38049
0.8519067,98.35697
0.9519758,95.157005
0.8756278,93.53706
0.84520644,95.23328
0.87738097,92.87734
0.9537636,93.08974
0.8606111,93.25016
0.8302929,92.33202
0.78306717,92.87847
0.8398673,91.96055
0.83588564,94.13896
0.7620332,90.98173
0.7750535,93.53004
0.7643245,87.94006
0.72189164,87.51943
0.71797955,86.1345
0.6619581,88.12755
0.67280364,83.94877
0.656337,87.03243
0.5687077,86.03179
0.59370166,84.89771
0.5274823,88.53797
0.39301357,83.62841
0.5697539,83.31839
0.46476114,81.9064
0.39837447,79.959175
0.487128,81.843575
0.40773967,82.28112
0.4426848,78.07499
0.38019943,78.049355
0.42354956,79.7099
0.4125007,78.76499
0.44942656,79.00259
0.36435622,79.339325
0.3820267,76.92584
0.43559194,78.42349
0.40214416,77.130226
0.307229,74.08082
0.42832637,77.2803
0.3673921,77.23592
0.41263518,73.64843
0.44950092,76.56914
0.39527217,74.58632
0.4030974,75.5193
0.351847,72.82274
0.36693037,72.311455
0.26610422,77.82915
0.26757836,73.10029
0.2003547,73.12645
0.25472477,74.38132
0.17157605,77.012665
0.26462707,69.91408
0.24494843,70.82405
0.084948726,70.70971
0.18541501,72.482414
0.13717473,72.927475
0.13360417,73.38328
0.027237985,76.95737
0.11500101,76.881485
0.13493823,75.62628
0.11028927,78.130165
0.034370165,75.70772
0.1784628,74.87904
0.10621813,79.36134
0.23399287,78.333786
0.17964494,80.37048
0.26434353,81.010925
0.414128,83.50949
0.34810323,80.4458
0.36108956,77.165146
0.39689925,82.69249
0.5599773,82.927444
0.5709896,86.42206
0.62274253,82.99785
0.69628567,86.82919
0.71167487,85.64696
0.8268185,88.08475
0.8226222,88.674194
0.98784363,91.01387
1.0638033,91.73726
1.0973086,93.57627
1.1786737,91.44519
1.2678857,93.925255
1.2510906,97.44353
1.2945013,96.82188
1.3429946,98.83707
1.4055531,99.52803
1.4396592,101.304855
1.4749804,99.35385
1.5087299,101.40965
1.5744551,101.10869
1.6301681,100.717766
1.5990505,102.65042
1.5562568,103.20201
1.6478572,106.63024
1.6140268,102.2989
1.6854523,103.91226
1.6388483,107.88205
1.6735747,102.599754
1.6250758,109.48681
1.6831644,105.30781
1.6514465,105.621346
1.6214856,108.05329
1.6015463,105.53029
1.6704229,105.62586
1.621675,107.124435
1.6614894,107.85376
1.630631,108.69061
1.6254327,106.93469
1.5621372,104.8255
1.5690502,107.85272
1.5620936,105.64805
1.561592,104.17904
1.589931,103.59151
1.5028266,105.885315
1.4767418,106.674034
1.4732618,107.76132
1.4654732,103.70891
1.4471579,105.78518
1.427649,107.84604
1.4572635,104.42166
1.3332548,103.93069
1.3958647,99.5343
1.3732107,101.71046
1.3659085,99.401306
1.3490483,99.60593
1.4056873,98.516464
1.3837236,101.2123
1.3150295,97.206276
1.3107399,95.18501
1.3197056,96.51619
1.2983545,97.93728
1.3847504,95.263954
1.2390358,95.463875
1.335707,95.13586
1.3452784,93.37932
1.3228238,95.11962
1.2675343,92.833824
1.297926,92.155426
1.3140398,89.87949
1.2293899,92.92428
1.284392,91.50911
1.2717156,91.8751
1.2161846,89.33039
1.1749142,88.3662
1.1476741,87.16803
1.1177183,88.6059
1.1141794,89.38171
0.9796037,87.40979
1.0281886,86.9521
1.0094861,87.22646
0.97051555,83.31476
0.9695718,84.87757
0.88766766,86.19394
0.91248786,82.736496
0.9211338,82.95061
0.9463828,78.751854
0.8965202,82.55968
0.86720455,80.262
0.9460763,80.82706
0.8297453,82.15704
0.76247644,80.76243
0.7872686,84.054375
0.8393234,79.0645
0.8733746,80.911606
0.8148372,80.13891
0.8741463,79.307045
0.8152634,76.71678
0.77556133,76.10511
0.91485566,76.10972
0.8044269,75.96197
0.82059246,76.51961
0.8539938,73.30397
0.82528937,74.6526
0.9090544,71.98013
0.79838467,72.75912
0.710841,72.61935
0.81362265,71.0594
0.73617935,71.13194
0.7070297,72.80924
0.65873116,72.617195
0.6633036,73.75384
0.63049227,75.39324
0.61592454,74.518394
0.65041023,76.51064
0.67385226,75.252556
0.5577801,71.753105
0.5762404,75.089554
0.4888205,74.02958
0.5223872,73.07978
0.5259033,73.88104
0.4772614,72.9689
0.52663815,77.183136
0.58173007,73.907364
0.50630534,78.77921
0.5320816,73.717354
0.5953945,78.09236
0.7272855,77.76609
0.5990036,78.7665
0.6570074,79.87489
0.78710675,81.6904
0.8750784,82.64523
0.8620718,80.39723
0.97108215,84.14857
0.98281616,85.83771
1.05702,85.57909
1.1231301,87.51124
1.2204126,86.75098
1.2323889,88.66078
1.2730094,88.31521
1.3878118,91.095566
1.5218321,90.26771
1.5308393,90.90822
1.6282881,94.58413
1.6612664,94.618256
1.6548404,96.03076
1.6271632,93.955055
1.7179177,99.32286
1.7815821,96.75738
1.8097486,98.68729
1.8247908,100.033485
1.9290124,103.34044
1.8845397,102.21316
1.8925112,99.89494
1.9829715,104.98859
1.9973159,104.537544
1.9722575,105.556656
1.9010332,103.053566
1.9278723,107.035866
2.0309331,106.984245
1.995586,105.51618
1.9511592,108.09645
1.9509354,107.99072
1.9792817,105.78348
2.0434968,106.50228
1.9957829,107.79031
1.8397539,109.356575
1.9756764,107.733116
1.8487617,106.858505
1.9334908,108.92375
1.8662152,107.25215
1.8212247,109.10552
1.8439558,105.48443
1.8204118,106.13881
1.7909918,106.366295
1.7573385,103.947685
1.6907575,105.6423
1.7857867,104.81497
1.7198488,105.03767
1.6568384,103.612495
1.6869875,104.779144
1.69239,103.81891
1.6551399,104.82782
1.5405531,104.82081
1.6113031,104.38961
1.5351231,99.4644
1.4952979,101.57665
1.5594556,98.920815
1.5172437,98.99403
1.5379449,97.88713
1.5571716,97.698296
1.4326156,96.26867
1.4626452,97.94092
1.4998344,96.16722
1.5057845,94.27653
1.4735868,95.35486
1.431382,97.117645
1.4266299,95.8545
1.4159156,96.970566
1.3676502,93.14189
1.3884531,91.77227
1.4399616,92.52161
1.3106983,93.090546
1.3640976,91.71889
1.2221345,88.927124
1.418236,89.41322
1.2626913,90.65237
1.3848723,88.445045
1.2466092,88.72633
1.1624694,89.45838
1.2351032,87.080605
1.0855141,90.21666
1.0683174,87.20484
1.073834,85.2274
1.104479,86.69899
0.90845686,83.051796
0.9671368,83.29698
1.002146,83.689125
0.9313365,83.0826
0.92532355,81.525665
0.9151373,81.73575
0.85764,79.97224
0.9335756,80.47282
0.901041,80.52296
0.92611206,79.14915
0.8558574,80.220276
0.8386311,78.672585
0.8347002,80.03444
0.8416258,76.51994
0.77728933,79.17572
0.85712653,74.702225
0.80267066,75.95106
0.83777463,76.10555
0.85445493,76.32396
0.7906469,73.75166
0.7769836,73.73703
0.82095844,74.74198
0.71462893,72.57478
0.6973695,73.50255
0.6952012,74.82555
0.7476527,73.828674
0.6523579,72.44926
0.66074836,71.02362
0.52079785,71.63747
0.49821365,72.22232
0.51137763,72.752464
0.44984457,73.5124
0.45316848,68.40543
0.45056245,75.73298
0.3823407,72.43309
0.3811407,70.22875
0.36352316,73.79419
0.3615458,74.56668
0.35654056,77.56848
0.35455063,77.14983
0.39101586,77.96166
0.39892715,78.844086
0.34940404,79.93448
0.50749165,76.867966
0.4816177,76.5015
0.5207309,80.675644
0.5381211,82.59833
0.5506704,82.456154
0.6437225,79.3158
0.70801693,83.08129
0.7288854,84.467995
0.8078495,84.4438
0.7831793,89.305466
0.92534906,85.29027
0.9496772,87.40245
1.123817,86.9868
1.0664362,89.8847
1.1987023,94.30717
1.2503067,91.0736
1.191425,93.741
1.3220576,94.60612
1.30567,94.95421
1.4573665,95.797485
1.4783258,96.41141
1.5043145,96.717804
1.5150721,98.20261
1.494439,99.71665
1.6237775,98.33405
1.5864438,99.663284
1.555718,103.12069
1.731756,99.76479
1.6233714,104.449425
1.7140042,103.167046
1.6099173,105.47769
1.5900458,104.40573
1.7265296,102.75349
1.6747605,102.30035
1.6973845,105.79943
1.6285357,107.71822
1.630163,109.46277
1.5675026,105.63245
1.56861,104.0969
1.6411152,104.1117
1.6761618,104.302315
1.5376921,106.88245
1.608702,106.62865
1.5687653,105.89205
1.5346552,106.51098
1.5183399,105.81262
1.4287398,106.35843
1.4738257,108.11083
1.4439305,107.18283
1.3749788,105.158104
1.3197509,104.6452
1.3585366,106.71348
1.2960633,102.92247
1.2766339,106.29764
1.2501866,101.79018
1.2581298,103.19457
1.2112687,102.90201
1.2305857,99.73804
1.0964689,101.176796
1.1821846,100.988205
1.1570548,97.93107
1.2188301,95.83604
1.1240125,97.90548
1.1127682,99.53119
1.048072,98.06812
1.0717605,96.22735
1.0089064,94.99844
1.0781566,98.95025
1.0729952,94.79851
0.9984042,93.75967
1.0946856,95.63628
1.092668,96.29397
1.0464388,95.824875
1.0795771,94.471634
0.9052637,94.206055
0.9710496,91.79435
0.9375668,91.32507
0.92127556,90.47872
0.8657161,90.33541
0.8526722,89.692314
0.8102292,91.22773
0.7631905,86.9953
0.7888793,87.58163
0.68775,88.34763
0.7043411,85.70064
0.6666748,88.24187
0.7041078,86.83436
0.58914506,84.14378
0.51985216,84.13986
0.60142475,87.56491
0.5170895,84.389366
0.58979046,83.46054
0.50618523,83.168594
0.4041813,81.88058
0.46760562,81.49719
0.4327741,78.8247
0.38677806,81.99521
0.3506578,80.05286
0.38329357,81.337524
0.3270394,77.25839
0.4166126,75.56919
0.39863074,77.01121
0.4147622,78.220245
0.38242498,78.569725
0.37105325,78.74229
0.37092617,74.76824
0.3269314,75.58142
0.3639391,74.9194
0.26212728,71.72007
0.29661125,73.97338
0.31698194,74.39848
0.2397948,73.54797
0.25129825,72.89452
0.2527551,73.51332
0.31435508,73.64449
0.2225411,71.581406
0.20299047,71.24114
0.123184696,74.159515
0.103496134,72.72209
0.09168947,76.72584
0.025644721,71.266304
0.026013074,70.00068
-0.029711755,72.95275
0.070056,73.29666
-0.027303398,74.17801
-0.038487997,77.42876
0.026312808,72.68298
-0.06144454,74.9293
0.0062085567,76.04097
-0.04948824,75.59289
-0.049996305,77.01349
-0.008111394,76.70201
0.061738636,77.5138
0.119138524,80.76712
0.14001697,80.66691
0.29964754,82.80667
0.21770838,80.18515
0.30008215,84.22674
0.3522819,83.232735
0.38730896,84.93037
0.5396432,88.04508
0.56090766,84.72247
0.62954986,88.88684
0.6060098,89.5477
0.7743534,89.88858
0.8614144,93.683586
0.86296916,93.19218
0.90269244,91.8622
1.0208962,95.034584
0.9625184,91.57757
1.0532432,96.00019
1.0599867,98.742805
1.1312462,96.21914
1.1732756,97.7935
1.2210279,98.75959
1.2374706,98.62236
1.2660017,100.88951
1.2800456,100.509766
1.2759902,104.01262
1.3227385,101.26316
1.3422694,105.56974
1.3842131,103.320724
1.4102426,105.216644
1.3596119,104.04392
1.363261,105.00798
1.4004277,106.3986
1.3397195,107.00436
1.3683848,106.94043
1.3647119,108.2467
1.3605257,106.348656
1.4010669,108.05149
1.3719182,105.854416
1.3440642,107.72452
1.33601,107.88827
1.306688,108.386024
1.2771055,105.3003
1.2585567,104.83697
1.3281282,106.413345
1.3507507,109.64415
1.1711731,105.473564
1.1730267,105.88595
1.1731955,104.04418
1.1708837,106.69445
1.2058994,104.28523
1.0933791,104.31208
1.1243267,105.880974
1.0702751,103.26936
1.1039196,101.3942
1.1087037,103.570305
0.97746325,99.790115
1.0110902,100.33864
1.1043038,99.37336
0.9955094,102.21126
1.0413496,100.37144
0.97853005,99.403694
1.0263952,100.55205
0.9750366,100.45658
0.9303077,98.00594
0.9204568,95.94611
1.0207969,96.98205
0.9040272,96.261475
0.8896133,96.24336
0.9245347,94.92833
0.8861016,92.777306
0.96903056,93.14867
0.9236682,91.613525
0.9368207,93.451164
0.9105027,92.2205
0.8381274,91.718475
0.9391549,91.90741
0.82128966,86.361595
0.7063715,90.17732
0.7762969,89.37791
0.7078447,91.05222
0.7650666,85.693085
0.66510993,87.721565
0.7414021,88.8465
0.65496993,85.772255
0.63886493,86.92904
0.54539347,86.37982
0.5232074,83.976654
0.530086,85.39687
0.48953265,81.48881
0.49818194,84.54938
0.4571617,84.84713
0.3804821,82.75154
0.55428797,82.882935
0.5012446,80.82271
0.48552608,81.85014
0.46302736,78.78223
0.49648693,80.000114
0.4838391,77.99927
0.46191093,77.30378
0.475436,74.39451
0.5475973,76.07799
0.5500143,76.45865
0.5211876,77.43106
0.5500417,76.45068
0.43763065,74.64037
0.40731433,76.21648
0.50713646,76.488594
0.37399122,73.94467
0.526361,71.65417
0.4408873,74.04501
0.38300014,74.16208
0.34122542,73.335434
0.32788438,70.77053
0.3249751,69.70214
0.38057297,73.1032
0.38316405,71.07318
0.23257035,71.24513
0.23509201,72.99827
0.2638703,74.93416
0.29029858,70.61431
0.2514037,71.56445
0.22490855,71.16344
0.21684177,75.16677
0.19774589,74.411804
0.11830639,76.41688
0.14447537,76.62056
0.20751071,77.16343
0.34323463,75.61273
0.21529219,77.858955
0.24090098,77.59732
0.34910613,79.59154
0.33952418,78.14249
0.3509227,79.38755
0.50216204,77.59415
0.4527813,81.996056
0.51256615,84.58771
0.6951942,81.9156
0.6806106,85.04666
0.8045078,85.932045
0.84890884,88.41753
0.9008129,89.2305
0.9018217,89.56628
1.0511987,87.766
1.1230521,90.93563
1.2422727,90.61171
1.2703444,92.13386
1.260144,95.277145
1.3115335,96.96215
1.4186352,96.78572
1.5056267,97.405205
1.4007715,95.47341
1.5838042,98.369965
1.5594625,100.82793
1.6162381,101.31551
1.6630307,101.39575
1.6299422,103.69323
1.7459147,100.682205
1.7302334,104.115204
1.6512662,106.47428
1.7031163,104.67169
1.7961913,103.08212
1.7710041,105.83047
1.777792,105.4433
1.7638541,101.7439
1.81842,103.69926
1.778748,106.600586
1.7797664,109.19467
1.7215128,109.55504
1.6927257,104.896645
1.7433022,107.80175
1.7043246,106.43506
1.7176367,104.598434
1.6512454,108.226524
1.7617954,107.89262
1.7062067,105.992195
1.7171177,104.51399
1.6942817,106.226295
1.6519665,105.25487
1.6110932,102.405205
1.5420965,105.477005
1.5243988,105.86019
1.5735337,104.93718
1.4881346,102.04636
1.5411286,104.357796
1.5416635,100.77172
1.4862962,104.84664
1.5150732,102.65908
1.4971232,99.073235
1.4968257,98.944405
1.3783206,101.56
1.4051726,101.80385
1.3874723,99.69728
1.4723732,99.01181
1.4238138,98.78302
1.3702463,96.966125
1.446892,97.11537
1.4093944,95.83962
1.4161516,95.27914
1.4282144,98.31302
1.3993309,94.59952
1.3530295,94.90049
1.4006009,94.80562
1.282898,93.58498
1.3536179,93.06517
1.3708912,93.71086
1.3186874,88.35836
1.264265,91.166084
1.3830239,85.986015
1.2798373,90.38946
1.2356625,89.325645
1.2794042,87.0852
1.1271954,86.57935
1.2062004,87.89282
1.1014686,87.498344
1.1282109,84.953445
1.1003201,86.77099
1.1058391,86.90135
1.1182573,82.6992
1.0135982,85.91977
0.9876925,85.988976
0.9828927,84.40677
1.0018924,81.72342
0.8791133,80.06347
0.9630583,83.329155
0.9372594,80.462326
0.9526908,79.65575
1.0045687,81.944374
0.8818929,80.19086
0.957803,79.5382
0.90063554,77.86355
0.9229228,77.4212
0.8920894,77.058495
0.88850623,77.746895
0.8793379,77.62082
0.8624332,76.76486
0.9111045,78.367516
0.91272694,75.965935
0.94555765,75.50825
0.86180085,74.53175
0.8415918,75.4104
0.7917848,74.282265
0.81512636,74.18937
0.8094698,74.61907
0.7722574,70.76898
0.79706776,71.649086
0.7696154,73.37063
0.7724479,73.11177
0.6345806,72.75428
0.67697674,75.16145
0.6352924,72.785
0.65641314,73.926674
0.5613735,74.440414
0.5085613,74.50845
0.5467201,75.04598
0.51414555,72.85157
0.53767645,75.59993
0.5569527,75.20085
0.51594996,75.2737
0.63912374,74.901535
0.54288054,74.11782
0.5440267,76.06554
0.605401,75.310875
0.693156,79.15169
0.7169986,78.561485
0.71726453,79.048164
0.76074547,83.86444
0.93873096,82.33106
0.9482826,83.94902
0.9273509,82.831985
1.0720584,84.43752
1.0848284,84.96086
1.2258654,87.24672
1.2329973,91.03953
1.3146012,89.32248
1.4291815,91.19498
1.3897709,91.02786
1.5250505,91.92973
1.5786531,93.90994
1.5637784,97.08587
1.5538231,94.60842
1.6281602,97.04933
1.7769599,95.18582
1.7144191,97.82735
1.8190119,101.424225
1.8975688,100.5819
1.7803305,101.382065
1.9445189,102.707466
1.886158,101.737206
1.9743552,102.282455
1.887447,103.02543
1.8543688,106.241135
1.9501035,105.41927
1.933584,106.331894
1.9611517,106.13172
1.9714575,105.931526
1.8724473,109.85556
1.9946777,108.70936
2.0133488,107.71064
1.9509106,106.36548
1.8910831,110.29165
1.9685602,107.698524
1.9384649,107.63202
1.9299679,110.364815
1.8801922,104.826256
1.8994485,105.96135
1.7737163,105.48813
1.8157195,105.610435
1.7690387,106.27224
1.7735807,105.59135
1.7569946,105.290955
1.6531198,105.45979
1.7036769,102.88015
1.7006478,102.1272
1.7767551,104.16217
1.6164396,107.01359
1.649998,103.052185
1.6150833,100.95035
1.5389723,102.6888
1.520802,103.6363
1.5315548,99.41618
1.453712,102.979095
1.5410013,99.17533
1.5205928,98.73822
1.5008098,98.14575
1.4368942,103.42127
1.5371349,98.53157
1.4284855,96.71644
1.4521883,96.763466
1.4319268,95.70689
1.4625957,95.33809
1.4752012,95.50621
1.3377794,94.06849
1.4603789,93.99775
1.310603,92.3874
1.3767627,94.86681
1.3744818,91.62835
1.3017529,92.62421
1.2643197,91.36338
1.2711897,91.546265
1.278402,90.866325
1.2551574,88.862305
1.1850538,89.49983
1.1154474,91.005196
1.1220206,86.343925
1.050496,85.949295
1.0409204,84.98725
1.0103315,89.06664
1.053296,86.22562
0.94647,86.932236
0.93079436,83.748055
0.98162246,83.50914
0.835338,82.64196
0.84864336,83.80113
0.8168485,81.11916
0.78950155,81.6864
0.8156008,79.35574
0.78643316,80.699554
0.7647603,81.48921
0.8307056,79.91118
0.6685923,78.391914
0.6814756,78.91636
0.69576156,78.58197
0.6888476,77.059845
0.72409517,74.97836
0.72538143,75.38151
0.732808,72.42188
0.6781098,72.91969
0.72063833,77.375824
0.6710137,73.98028
0.64627236,76.70562
0.6300327,73.53258
0.63051766,72.33387
0.63123244,77.76679
0.6514928,74.10497
0.6204581,72.50595
0.5145827,72.72122
0.5502831,72.00102
0.4992461,73.73688
0.41254282,74.505
0.4659187,71.14961
0.33015883,73.81287
0.38657057,73.68886
0.31840026,72.67972
0.32873976,75.127914
0.29795772,76.282234
0.28986186,74.30985
0.2790778,73.48226
0.3483801,74.77132
0.2941117,72.75948
0.30703554,78.90766
0.24475984,77.28627
0.3802033,74.7533
0.3777698,78.79777
0.33459768,78.2159
0.4464927,81.97326
0.38859457,80.98745
0.52244574,81.50388
0.57298315,78.50203
0.646448,83.5814
0.6801588,82.981575
0.6888957,84.89491
0.78202575,87.181526
0.7633478,87.292694
0.90199834,85.77591
0.93586284,89.39519
0.93760246,88.94557
1.0883895,89.52459
1.1536332,92.47926
1.257628,90.57147
1.1219289,92.40674
1.2854823,94.95442
1.3612673,94.308685
1.3174418,94.77579
1.3200622,99.858505
1.4839963,100.43845
1.4553963,99.19263
1.4028492,100.16107
1.4453676,101.56984
1.5430799,101.88962
1.4929341,100.287415
1.5624806,106.03847
1.5244507,103.392265
1.5351027,103.351395
1.5627329,105.16157
1.4766116,105.07231
1.5173213,105.36283
1.6149688,107.16067
1.5304946,103.674515
1.5499774,107.36536
1.5327433,108.93411
1.4733658,104.21811
1.497263,106.2642
1.5222663,107.3335
1.502807,105.16116
1.4805402,107.183136
1.5135145,108.71284
1.4530714,107.40816
1.4112796,106.59363
1.4226258,109.84856
1.2910951,102.75838
1.3505477,104.09166
1.2964381,105.91014
1.2629976,102.78255
1.300082,104.441154
1.2651203,104.55051
1.2116162,105.72579
1.2032382,105.09154
1.2028329,102.67322
1.1058035,102.69675
1.1303642,102.66907
1.092818,100.99877
1.0314869,98.82045
1.0763375,102.18121
1.121776,99.04683
1.0001669,97.61456
0.9982188,99.48445
1.0144676,97.36437
0.9857154,98.796776
1.0148551,96.84482
1.0280175,98.1721
0.96270275,93.42969
0.9670423,95.888535
0.9603296,93.64208
0.96937704,94.62534
0.8896782,91.8573
0.87753075,94.74669
0.8930035,91.849945
0.8683406,91.97155
0.87416154,89.52962
0.7777927,93.28803
0.7519688,89.22702
0.84630805,92.03464
0.77773935,92.220764
0.7382361,84.79339
0.6765117,88.38136
0.6909952,87.700134
0.6732122,83.80194
0.60885984,84.31914
0.530262,84.896324
0.5786916,83.405365
0.54885054,84.49475
0.49029306,83.75499
0.48850068,82.832634
0.44942343,84.89229
0.38750008,81.36464
0.4089403,84.30937
0.4625454,76.49486
0.32460254,82.650444
0.3717214,80.84551
0.36379114,77.98398
0.29889643,80.97097
0.3256577,79.88702
0.38012478,80.00358
0.37951615,77.41648
0.3883413,75.98644
0.29481652,76.84299
0.39121422,75.48038
0.24055888,75.12736
0.2993965,73.68242
0.2780828,76.863045
0.26455227,75.57133
0.20886536,75.54962
0.23152722,74.1848
0.29146174,73.74102
0.28803724,72.16575
0.19662173,71.918884
0.24774686,73.11107
0.2296665,72.86479
0.0594769,71.403206
0.15002443,72.013054
0.10749295,72.602234
0.017948825,72.41826
0.11263968,73.19868
0.023967775,72.07995
0.03104907,75.23488
0.04257168,71.69286
-0.0026721703,73.70813
-0.0070260027,76.98545
-0.035838753,76.42187
-0.07153049,74.07121
-0.024781266,75.3511
-0.07655203,76.35903
-0.055084758,79.34005
0.07908128,75.07014
0.07241088,77.42468
0.09039563,80.046524
0.07953143,81.80259
0.12555896,79.555664
0.25274155,80.595505
0.2776614,79.73945
0.35978138,83.51983
0.30217934,83.99519
0.36773354,86.93657
0.5563687,84.11456
0.58812886,87.175415
0.642353,87.67471
0.727921,91.371574
0.82195425,91.82054
0.82995754,90.69285
0.8559689,94.38284
1.042284,96.140434
1.0084897,95.780304
1.0742306,95.84689
1.1373864,95.66269
1.1943045,98.4168
1.2331117,99.93707
1.1843125,98.24874
1.2907659,100.44698
1.3584799,97.3293
1.3476787,101.259186
1.3096561,101.43552
1.3759754,103.30944
1.3295062,101.14572
1.4127532,104.251335
1.3237259,100.81276
1.4327079,106.636604
1.3921794,105.5685
1.4425427,104.30074
1.3970156,105.31349
1.4657079,111.16322
1.4110715,104.76084
1.354139,104.5538
1.4065249,108.51903
1.4592015,110.32821
1.4118167,109.81467
1.396344,106.5551
1.3760164,108.57675
1.3363361,108.65849
1.380998,108.33166
1.3176075,107.6051
1.2690809,106.92577
1.2924469,108.400475
1.265839,105.567116
1.2804002,104.162735
1.257447,105.08921
1.1872331,107.037605
1.1225666,107.016
1.1593578,103.69383
1.1312662,103.110596
1.149876,104.172554
1.1431016,100.48181
1.1181587,103.49512
1.1512532,103.869576
1.1442146,98.788795
1.0897342,98.47387
1.0341239,100.14629
1.1031151,100.672676
1.0506564,96.845024
1.0724906,98.54157
1.0725579,96.13051
1.0660923,97.76681
0.91230154,96.08395
1.0643432,91.624504
0.97848934,95.21472
1.0227202,94.976006
1.0277218,94.99572
1.0252998,92.84149
1.0366575,95.81352
0.9261061,90.05524
0.99444205,96.741776
0.9466153,91.96259
0.9743802,91.94632
0.94072014,91.29675
0.8089863,90.828354
0.8443295,91.0071
0.8470445,87.49015
0.89905936,86.36369
0.73990417,85.177444
0.7587648,86.012146
0.7165735,84.615845
0.67021334,86.31633
0.6338134,83.36962
0.7429007,81.31471
0.69064146,84.144325
0.59642774,82.68099
0.59590644,83.66188
0.593898,82.91675
0.5513642,80.73924
0.6565598,81.47852
0.56398165,79.590546
0.53028435,80.64941
0.5204892,77.6961
0.5394417,80.1
0.59817636,80.22556
0.5398944,80.612465
0.534224,76.65323
0.59205174,77.39331
0.5990781,78.806465
0.59666824,74.33987
0.59220386,78.2311
0.49572688,75.89535
0.61202073,74.47985
0.5050909,75.53717
0.5340591,75.29545
0.5452437,73.54756
0.4938232,76.54735
0.55917066,75.549446
0.47204855,72.42332
0.4564447,72.253555
0.48296303,73.12519
0.44687718,75.23129
0.3900977,72.34001
0.44788322,71.9743
0.37759793,73.055
0.3725742,71.60024
0.39057508,73.51231
0.29421714,72.28888
0.28582796,72.62619
0.25945547,72.99099
0.33022326,76.4412
0.29554948,76.09832
0.3312008,75.789825
0.36499512,75.52005
0.30010954,78.027054
0.31861648,77.83589
0.36296168,77.65099
0.4391274,80.7149
0.47966212,76.85898
0.40400904,79.1463
0.5019749,80.15355
0.553158,80.32595
0.68990874,85.25623
0.73680985,84.28757
0.66507685,85.11985
0.9227807,83.11509
0.92595303,89.11293
1.0260465,85.49152
1.0776998,88.53606
1.0862787,91.91958
1.151239,90.393814
1.2477113,91.387886
1.2443172,91.360115
1.4206306,94.76509
1.4130471,96.249344
1.4224149,97.3661
1.5091856,98.58356
1.6521617,98.64092
1.6618845,97.49812
1.650261,97.405785
1.7467464,101.17376
1.629636,102.3582
1.7112434,104.08225
1.7198058,103.72808
1.792363,101.75781
1.8242909,103.97786
1.7697425,109.28514
1.8353347,104.51409
1.8071222,105.52722
1.8003018,105.037025
1.8123186,107.2959
1.8511885,108.07705
1.8581033,109.48122
1.8952582,107.141106
1.8461928,106.02421
1.8242537,105.1842
1.9170022,106.390175
1.7943698,105.655716
1.8455409,107.2232
1.7582978,107.323685
1.7511784,109.34808
1.8834771,111.18367
1.7944665,108.72698
1.6898912,108.76953
1.7394642,107.071335
1.6368628,104.52224
1.7231284,105.08078
1.6735259,103.49636
1.6339396,104.792755
1.5774305,103.538345
1.623282,102.502235
1.5409505,102.908165
1.5968056,103.81836
1.5191519,100.99282
1.5596203,98.53004
1.5630788,102.49983
1.5285753,100.976814
1.4882622,98.6677
1.5378447,100.24997
1.4484572,100.701614
1.4232608,98.95686
1.4819334,96.893585
1.3511019,95.42028
1.5265702,99.0255
1.423077,95.053604
1.4936767,95.75858
1.4666249,95.255455
1.429662,95.13133
1.3278072,92.52662
1.2943879,95.92771
1.3984187,92.595116
1.4153131,91.734795
1.3407633,89.781784
1.3937232,90.79256
1.3917198,89.7738
1.2990295,89.90937
1.3352405,86.82119
1.2252847,87.49269
1.2728903,89.11197
1.2145618,87.311104
1.1862005,86.21284
1.1850605,87.33273
1.2212425,88.82746
1.1416097,84.27395
1.1169719,83.18123
1.0812082,86.87949
1.065187,84.475845
0.96951777,79.955284
0.95114756,80.54675
0.9695931,82.60588
0.99961984,81.652664
0.95514107,81.32732
0.9376941,80.23328
0.9531352,80.62496
0.91424227,81.00907
0.8514049,81.002075
0.92429084,77.64237
0.9707919,78.904335
0.97063464,77.094894
0.9046217,76.600784
0.89005554,77.7613
0.86375225,74.32349
0.87040794,72.98374
0.91711926,74.644516
0.94081026,76.81697
0.9173508,74.818825
0.9074977,72.34899
0.8905028,74.55768
0.8766952,76.80761
0.89289755,73.393906
0.8185415,73.50062
0.75195754,70.997925
0.7619296,70.8301
0.7256233,75.03268
0.7620971,71.0076
0.663,74.18127
0.56739837,73.95708
0.6061272,73.09974
0.5340571,73.69082
0.5858399,74.21909
0.50286764,79.10759
0.46218526,75.601494
0.61391115,72.85324
0.4537251,74.283295
0.5610333,77.16384
0.5261743,80.72836
0.5605481,77.70611
0.51542544,76.43315
0.5771741,76.30789
0.6699748,79.06131
0.7227013,80.460815
0.7416849,80.15971
0.8021812,82.007675
0.8715305,83.63742
0.8758117,82.360176
0.93636495,83.12086
1.1291239,85.30941
1.099758,87.17272
1.0903797,86.45899
1.1985074,89.39224
1.2949045,90.11001
1.3686048,93.15596
1.3830416,91.83546
1.3669165,93.72455
1.4403467,93.58609
1.5271705,92.86942
1.6083822,96.74578
1.6277999,93.38179
1.7197983,98.98684
1.7374909,101.515396
1.756047,97.93857
1.8068789,100.6019
1.842273,100.61956
1.833302,102.49457
1.846374,100.77596
1.8106182,101.75794
1.8843524,106.29364
1.8197657,103.4581
1.9189545,104.56652
1.9608959,103.30435
1.9025705,101.62895
1.8458143,107.67991
1.8855774,108.058136
1.9004861,105.49565
1.8120985,107.57553
1.8502394,104.55309
1.8513203,104.801384
1.9292886,109.24025
1.8947098,109.47911
1.8469788,108.05137
1.7911873,104.565285
1.8206458,106.18033
1.7510908,107.9417
1.7819592,109.451385
1.7673317,105.827286
1.7110872,105.95071
1.7201957,105.11338
1.630299,108.68835
1.6152055,105.7188
1.640801,105.80672
1.6028275,105.606865
1.5600511,103.50103
1.6333627,102.08615
1.5833348,103.29602
1.5312885,104.79952
1.5862198,103.34998
1.4715583,103.06086
1.415344,98.54133
1.4483311,101.59582
1.3875865,99.712944
1.4428434,98.26344
1.381321,93.96715
1.3291601,100.09336
1.3246614,97.68543
1.3562256,97.12538
1.3493568,97.197975
1.3230307,97.97185
1.2700626,94.54022
1.2301476,93.9041
1.2919687,94.8371
1.3155261,97.059296
1.331519,92.92938
1.1638042,92.80266
1.2568542,90.19074
1.1430287,90.85069
1.1780951,89.19713
1.2586218,92.468285
1.1628084,89.872215
1.1288338,89.260376
1.0532701,87.80147
1.0535733,86.55143
1.0296654,88.10661
0.9081494,87.67803
1.0027341,85.09299
0.97205406,86.565414
0.8851937,83.721695
0.8385846,86.932976
0.8110996,83.392456
0.79499096,83.47779
0.78962684,82.27195
0.72417325,85.53572
0.6967312,83.27131
0.64303976,82.80951
0.6225466,82.25906
0.6498046,78.675316
0.6997639,83.12465
0.701411,78.31394
0.6811613,76.11489
0.6211226,76.67707
0.6428153,77.14855
0.5518342,75.96995
0.59937,76.24724
0.62698925,76.22981
0.68328655,73.29818
0.6584395,75.59191
0.5437569,75.812004
0.55044186,75.342995
0.5443502,73.663246
0.5345556,74.7618
0.5353854,72.836426
0.49813992,73.76091
0.519475,74.64926
0.46378452,73.829445
0.3539458,72.50972
0.38054052,72.009125
0.43754786,69.83683
0.37988648,73.47884
0.31748587,71.73235
0.26644006,70.053505
0.29395217,74.06697
0.30730125,72.888824
0.17443065,72.190094
0.18140115,73.15206
0.21322933,72.39536
0.18676142,72.8243
0.16034514,74.927734
0.16544695,74.563545
0.15982679,74.87447
0.1967896,74.39723
0.21483772,78.04549
0.28843898,78.90342
0.23824494,76.95125
0.29754576,81.94527
0.2969851,80.92671
0.3895485,81.4864
0.523887,80.55171
0.56121415,81.1239
0.50648,86.60863
0.5282482,89.042206
0.6367011,87.68795
0.80085796,86.202965
0.7430233,85.198074
0.8890052,88.78263
0.91617197,88.39435
0.93221945,92.25952
1.0571766,92.68381
1.1422663,90.87864
1.1717393,98.11124
1.2683825,95.81628
1.277937,98.76435
1.342781,95.97974
1.2537361,98.48338
1.3757148,98.303925
1.3201936,96.79306
1.3518126,101.61306
1.4232575,100.76415
1.4785966,103.73474
1.4353098,103.090706
1.4741147,101.79526
1.5539213,105.0076
1.4447901,102.291595
1.4158545,106.73148
1.4623431,104.53211
1.462451,106.100555
1.4412926,108.1258
1.5128814,106.381645
1.3689358,105.73075
1.3870947,105.9064
1.4865497,107.4761
1.5095458,107.619385
1.4461082,107.36274
1.5055472,107.44853
1.3162584,108.20955
1.4072225,106.440605
1.4099739,107.03475
1.3780662,105.55628
1.2898513,104.586105
1.2833312,106.80862
1.2769068,106.592255
1.219831,105.289665
1.2144991,105.49978
1.0901017,103.9545
1.1903664,103.521065
1.1183789,101.51109
1.1452621,101.42787
1.1237894,102.467445
1.1009767,103.28403
1.0519255,100.47202
1.0672789,100.357864
1.0743257,100.20329
1.0588613,100.49641
1.0012428,99.92916
0.9541433,99.112366
0.9789628,98.471405
0.98574704,100.43096
0.90014666,96.54721
0.9142227,95.22134
0.96367526,100.85089
0.900266,97.513145
0.90965825,92.55108
0.8669324,92.91497
0.918062,93.85591
0.84174234,93.62776
0.87082833,96.98776
0.8042189,93.36514
0.87418556,92.84745
0.76538575,91.0381
0.72037345,91.699455
0.8520606,87.162834
0.7145603,91.83338
0.74838704,89.656624
0.7343397,91.77817
0.71676904,89.78407
0.6259077,85.80875
0.538036,85.44155
0.5438458,85.00909
0.44568983,85.0034
0.5008473,85.165146
0.4794955,83.60252
0.46059257,85.03797
0.45818552,84.18701
0.3802523,81.171
0.3690039,80.75266
0.4188378,81.412926
0.30025777,78.00736
0.36968136,80.49948
0.35874954,81.30502
0.29953724,79.94128
0.3316822,80.136055
0.311798,78.44103
0.30490938,80.487946
0.37586516,78.39959
0.33430117,75.83546
0.3427778,75.66464
0.35056007,74.968056
0.25726125,76.77975
0.29096523,74.59064
0.35890612,74.09365
0.31904,72.699326
0.332405,71.40141
0.30986023,74.766914
0.31676942,75.912025
0.24118593,72.8363
0.18863255,74.10447
0.21231401,72.03911
0.14449623,75.50833
0.13274758,72.023735
0.1336538,73.70228
0.13164765,72.51584
0.1364741,76.991264
0.074725114,69.726265
-0.053371754,73.59701
0.014889118,74.48137
-0.05034313,73.73692
-0.037211537,73.05957
-0.017489806,74.74238
-0.11879402,74.0974
-0.08511508,75.4876
-0.0009017969,74.22245
-0.00832277,76.120895
-0.060817685,75.91643
0.057345007,80.25912
0.123179704,80.1258
0.20822576,79.602325
0.23596758,83.63507
0.22512475,79.79299
0.290178,81.07484
0.29803118,84.03358
0.40234256,84.1082
0.43800887,84.815544
0.5618564,83.566055
0.55826116,87.43567
0.65271515,87.89026
0.67012393,89.88373
0.79486525,88.17283
0.8795835,91.49341
0.82658124,91.66799
0.9519449,91.5766
0.95041317,93.9702
0.9732167,93.64743
1.1187471,98.83951
1.1481985,96.11518
1.2678535,97.858765
1.3334385,100.884605
1.3162459,99.86081
1.2522328,100.59228
1.3412136,98.09927
1.3345237,101.397964
1.4218109,102.62684
1.3499061,103.4496
1.3990415,102.13688
1.482021,104.14259
1.4698032,106.699
1.4560485,106.243515
1.3658786,104.48134
1.4521374,105.251976
1.4365216,107.42214
1.3652819,106.01737
1.4169314,107.35267
1.4191815,104.075424
1.4895889,106.21555
1.5033791,106.30212
1.4579846,107.780334
1.4957427,109.84707
1.409469,107.075714
1.3191808,105.63591
1.3632903,107.34601
1.4078006,108.083824
1.3751603,106.94994
1.333971,106.0811
1.2400278,104.09308
1.3555838,104.938065
1.2754455,103.56691
1.270856,103.394196
1.291103,103.75465
1.1168113,103.59938
1.1835799,103.31502
1.1634015,99.31525
1.225535,102.36864
1.2031108,102.04348
1.1308572,101.427536
1.0866346,98.69627
1.1526421,100.840546
1.1390319,102.615974
1.1473827,97.83873
1.1461905,98.52349
1.1637813,97.77727
1.0953889,96.90359
1.091554,96.74498
1.0840358,95.880104
1.1109122,97.363335
1.006657,93.47909
1.1970928,94.35036
1.0625099,94.35444
1.1483716,92.49438
1.0677657,93.25691
1.0800968,92.46162
0.97334564,89.37583
0.98909914,91.048225
0.9749251,91.89883
1.0134809,90.252945
0.9513981,89.87183
0.8748154,89.129776
0.8934309,87.36906
0.848552,88.81268
0.8756597,84.84071
0.960414,88.954124
0.8144759,83.558395
0.83255994,82.571785
0.7392918,85.6523
0.7503811,85.03769
0.7483009,84.41024
0.7629285,83.27472
0.72412354,82.89372
0.6993628,85.12985
0.6234525,83.44116
0.69324386,83.105675
0.66549677,81.176094
0.6953866,80.68713
0.6690727,79.65251
0.64109135,78.039635
0.69726115,76.98942
0.7283587,78.314804
0.65173537,78.75965
0.62440425,78.96559
0.67345077,77.05914
0.6273138,74.90548
0.6011721,75.13767
0.65308744,74.86611
0.7224376,75.36497
0.6719277,78.055954
0.66395926,72.76987
0.58573645,71.65181
0.6362875,77.8712
0.5722314,73.64386
0.4976069,75.052895
0.6679589,72.49392
0.5261112,74.388985
0.5679548,73.82432
0.5543604,72.74344
0.39613,75.38462
0.42674628,72.51071
0.4318282,74.37241
0.4338836,71.530975
0.32477272,73.922386
0.289946,76.49862
0.43282673,73.78587
0.3454924,73.9808
0.36152706,75.62521
0.34155285,74.40968
0.46544492,75.77239
0.4048407,78.65744
0.38626543,78.51744
0.5564146,77.632034
0.51539904,81.25171
0.5527707,81.41892
0.6537643,82.01994
0.65277773,81.869736
0.7149347,80.77453
0.83616984,85.56912
0.8681696,83.80062
0.9433139,86.46781
0.9783924,86.0756
0.98741615,86.48861
1.2016231,87.21976
1.2230692,89.53865
1.3294752,89.78021
1.3235185,91.59984
1.4435505,90.10252
1.453357,94.07455
1.4276685,95.34906
1.5485334,94.80131
1.6270013,94.895386
1.629328,93.40997
1.6830182,100.95115
1.7087716,97.812515
1.7815892,99.43231
1.7549456,99.93968
1.9223919,103.39358
1.7863921,102.80372
1.879774,105.12804
1.7503197,105.57307
1.8524976,102.96949
1.8790175,101.20627
1.910941,105.650795
1.9145719,104.371666
1.8610331,104.38867
1.8922315,106.44448
1.8676314,108.01298
1.9146776,109.84354
1.9466935,104.03098
1.9035952,109.13021
1.9095092,107.55007
1.8799902,109.17592
1.8633376,105.713844
1.9178966,107.48078
1.8423307,106.631004
1.8784842,105.71891
1.841469,107.75457
1.7524104,105.36195
1.7906221,107.28384
1.7989537,105.545845
1.7438291,106.05971
1.6943895,105.39172
1.6982982,103.851845
1.7296841,101.98431
1.7059646,102.51395
1.5999757,106.688354
1.6279322,102.354034
1.5930421,100.64473
1.6130322,101.66232
1.5331059,102.1105
1.5284771,97.817085
1.5823971,101.74684
1.4965444,100.47995
1.4272978,100.61984
1.5422248,96.52331
1.5500581,99.852356
1.4880712,98.693085
1.5345495,96.70547
1.4889258,96.073105
