ppg,abp
1.035804,97.70864
1.2198253,99.96597
1.2643812,107.12916
1.3409518,107.7317
1.425782,110.17117
1.4733515,110.766136
1.5855181,114.02259
1.6879276,113.12369
1.6650202,118.46551
1.7303766,125.93346
1.6861036,120.3663
1.7091647,122.01994
1.6392494,120.1268
1.6182668,120.24106
1.6815399,127.96842
1.6984718,125.98537
1.6553698,124.346176
1.6448507,120.35522
1.65081,124.02632
1.5457839,123.75293
1.5949581,120.08862
1.5014219,121.484634
1.5561155,118.87699
1.3872129,119.057495
1.4950327,115.75866
1.439968,113.015205
1.4948754,112.84457
1.434414,113.16586
1.3170791,113.43278
1.3327224,112.48917
1.3093846,110.5221
1.2942548,107.204056
1.2700642,106.38485
1.3086694,107.343956
1.29814,101.13284
1.2224658,102.01194
1.3113266,99.423836
1.2598809,99.18262
1.0888019,96.59634
1.2358581,99.23294
1.1100016,94.356804
0.9889355,93.82776
1.0086656,91.95982
1.0220083,93.364975
0.9207951,91.158005
0.84965193,88.74216
0.8225748,85.9486
0.7851015,86.26082
0.79321057,84.81546
0.7660173,87.85562
0.8192935,85.84798
0.77683455,81.0378
0.70916235,81.192085
0.7156487,78.19259
0.7743491,80.18465
0.83217937,82.873276
0.7584521,82.035355
0.75932723,74.04297
0.6736357,76.24334
0.65716,77.16627
0.6374211,76.79749
0.610256,73.06033
0.5065406,79.82233
0.48133445,72.77465
0.48356387,72.51704
0.4712915,76.90994
0.38376632,80.52
0.49066257,81.63914
0.5509178,82.04342
0.6343696,83.49565
0.5570353,79.72544
0.7442817,83.43504
0.83594406,87.906334
0.8880456,84.84983
1.0747242,91.04964
1.122964,94.83895
1.296796,98.04575
1.2876049,101.04188
1.3679278,102.32164
1.5458124,103.55926
1.6699353,109.243385
1.6468899,111.1373
1.8030379,114.56743
1.7925749,113.877464
1.8854874,113.64746
1.9511348,119.16058
1.936782,123.772934
1.8458744,113.950195
1.9072895,117.735664
1.905245,118.48504
1.9451231,118.87324
1.8994212,124.84695
1.9084632,118.807884
1.846392,120.670006
1.8940954,122.37795
1.8931236,118.66076
1.850236,121.37851
1.8379194,124.424484
1.747034,123.66797
1.7431512,117.25707
1.6730479,113.956696
1.5935712,117.993805
1.599587,114.85236
1.5504278,115.33397
1.5616506,113.313446
1.5067822,109.00616
1.5478443,111.64472
1.4264036,108.01102
1.5516396,109.32559
1.4950962,107.23397
1.5062279,108.0841
1.5165519,102.18975
1.4168401,105.54394
1.3710637,103.17962
1.3391219,97.465965
1.3116113,97.7477
1.2541933,97.332664
1.2295477,99.35132
1.2115397,95.88619
1.1409632,95.10516
1.04008,91.68273
1.089787,92.215164
0.9580434,90.730385
0.9986685,90.10769
0.9668395,84.516365
0.99460083,82.16094
0.9763117,86.07265
0.9361572,85.276794
0.90306854,83.288086
0.963026,79.69973
0.9345807,80.21607
0.9603921,78.61039
0.8544831,80.73682
0.9455144,75.42117
0.86129016,79.46445
0.79273415,75.34937
0.7680338,75.23397
0.73658824,74.52238
0.64243156,74.35238
0.6285022,69.93563
0.6329957,77.632645
0.54379666,78.13533
0.511538,79.036545
0.45222232,79.05416
0.49767196,82.100334
0.63270676,82.37774
0.6765214,83.2625
0.76601654,88.085655
0.7919729,89.99312
0.858417,87.98423
1.0062721,95.38662
1.0953484,96.277885
1.2382045,97.34504
1.3298694,99.441025
1.433699,98.35358
1.5219613,101.794
1.6066507,110.985016
1.6674105,104.18578
1.7108045,114.65575
1.8171022,110.03898
1.8612726,109.64627
1.8614901,112.25641
1.8826324,117.7969
1.8993438,117.73028
2.020071,117.616325
1.9275755,119.6155
1.9514656,117.420746
1.9289951,118.545944
1.9234613,124.47211
1.856253,124.17378
1.7984922,126.390396
1.8438566,117.656296
1.790382,122.81013
1.7513007,118.94566
1.708081,120.63524
1.6873064,116.011635
1.6598017,122.32846
1.5709318,114.521965
1.6273185,114.99623
1.527274,117.061226
1.5363624,110.45172
1.5020349,111.66829
1.474928,109.61229
1.4324994,106.74623
1.3911403,112.607605
1.4276197,106.60212
1.368267,108.64535
1.4181585,105.33671
1.3603375,103.969
1.3101169,101.24405
1.2863415,99.99946
1.2446096,98.56264
1.238286,96.161606
1.308096,98.304214
1.188471,96.8856
1.1408503,90.7835
0.99466985,89.49035
0.96051496,92.86395
0.93015605,91.56501
0.88187367,86.414925
0.96664745,89.848885
0.8069387,83.93575
0.8180772,83.113335
0.81961983,87.248215
0.8005437,83.41825
0.77963406,82.151535
0.7941487,82.444786
0.70609766,81.24582
0.75116354,79.74727
0.78508794,79.9371
0.7106629,77.71962
0.7270245,75.29183
0.62879246,79.32706
0.57006407,76.22282
0.5279677,73.74364
0.45290026,72.75985
0.43211183,77.26691
0.40402022,69.87891
0.44620612,79.43587
0.3920297,81.38987
0.34707096,82.88659
0.39044365,82.44202
0.4465587,85.576355
0.4672655,82.31343
0.63064545,84.21079
0.61410326,89.788345
0.7755965,90.69978
0.7682609,94.56628
0.9737639,95.64985
1.0922704,96.1965
1.1582085,99.7276
1.1998363,97.68637
1.3541594,106.17784
1.3306564,103.91107
1.4871433,101.66871
1.565654,112.311676
1.651008,106.55156
1.5950558,116.94641
1.743593,119.94477
1.6217194,116.0583
1.7077427,121.08225
1.706376,116.53564
1.6547556,121.23964
1.6903788,117.21934
1.6538482,120.75923
1.6475734,123.00193
1.5991096,120.11631
1.5883403,119.21685
1.6274837,120.74008
1.5405089,116.40821
1.5075295,117.58742
1.4320726,119.89332
1.4162533,117.46127
1.391479,115.78505
1.3693633,118.73918
1.3377568,113.732635
1.2972305,112.81944
1.1712667,113.239624
1.298673,110.02445
1.1764369,111.23261
1.2431511,110.265205
1.157634,105.72104
1.1130247,104.51234
1.090701,108.02444
1.0983113,102.43432
1.028812,101.21647
1.0384636,103.19957
1.0714915,98.789444
0.98189044,100.49845
0.94826555,93.22285
0.93318844,95.23898
0.7968481,94.63812
0.7312416,94.966515
0.6559305,91.64844
0.65281695,90.02919
0.6708872,90.13404
0.57656485,91.4367
0.621057,84.6807
0.50540423,86.203766
0.57719,85.833824
0.51587385,82.637436
0.4850199,83.397995
0.54618895,83.32911
0.54371023,75.59765
0.40695992,79.783936
0.39677396,81.4197
0.46316302,78.258194
0.4663644,75.46064
0.3976182,74.966576
0.274917,73.905205
0.2585064,69.79495
0.27641764,72.88451
0.21248601,76.20852
0.14320117,74.77176
0.049643535,77.674515
0.093755595,75.45311
0.14481233,76.29818
0.078134455,81.97385
0.11981785,82.77455
0.15692502,84.216896
0.21397112,86.74648
0.37381458,84.713585
0.38759542,90.25926
0.5677812,88.05318
0.61892676,91.04563
0.78442776,94.121086
0.8152039,98.068405
0.9597928,102.12804
1.003684,100.75321
1.1199975,98.21086
1.2472166,105.54652
1.2805219,112.18195
1.2312362,112.81176
1.3730202,115.107445
1.352376,114.09072
1.3836666,117.33551
1.4291232,121.47705
1.4066467,119.333626
1.5191449,124.69637
1.5059599,121.34708
1.3778069,123.986984
1.4159888,122.33123
1.3971877,123.914154
1.4917415,120.00312
1.3719757,118.9283
1.2973152,121.24231
1.2183567,121.43493
1.2370375,119.43659
1.0891696,120.226616
1.2239248,119.896576
1.0154793,116.69276
0.9988734,117.84112
1.0564373,114.130516
1.0204424,109.98077
0.99793446,109.25445
0.94484484,111.50171
0.9946072,107.457634
0.93558204,106.26986
0.96155727,106.538536
0.8976359,107.068756
0.8719951,105.15517
0.9074962,104.97124
0.83545417,102.30559
0.7728365,102.56321
0.7829428,101.554886
0.7479137,95.668915
0.64818525,93.8069
0.5666797,94.18468
0.61712873,91.90979
0.5101102,94.37558
0.45042965,89.32675
0.43587354,90.110825
0.37571573,89.04265
0.35515055,85.42422
0.36145866,85.5761
0.32632375,88.96488
0.26958352,83.96511
0.3001113,79.104836
0.3713246,80.23428
0.29961398,79.61428
0.33061767,82.07341
0.29513627,82.102
0.27886936,79.30267
0.22672623,78.68466
0.19602267,77.45272
0.20538783,80.28343
0.1340435,76.923744
0.11012562,72.95492
0.07449607,78.64308
0.07264248,71.92247
0.014349407,73.293015
-0.08305749,77.11781
-0.005854704,83.07961
-0.13834627,81.67978
0.0668557,77.40394
0.041771255,87.31373
-0.031815458,80.527214
0.13932844,88.59085
0.15248287,89.764
0.38552064,87.42188
0.4184487,95.355705
0.594668,93.506615
0.62460613,96.742226
0.8001176,101.386444
0.9041264,100.0387
0.97934586,105.84545
1.0674627,106.27688
1.1481385,109.56105
1.1394984,110.4851
1.2246879,115.27687
1.1993165,112.165085
1.3598922,116.95595
1.3656777,120.87081
1.3485035,116.011284
1.3627504,122.82804
1.377869,121.184975
1.2967993,122.107315
1.427255,119.7547
1.3513567,124.02271
1.3153813,127.39322
1.3220965,122.80073
1.2431902,124.7093
1.201266,123.867546
1.1452451,118.728806
1.1987555,121.60372
1.0662869,114.993416
1.1466794,119.60766
1.0868144,115.244026
1.1276373,115.39491
1.1101952,113.00943
0.98955405,111.27927
0.99468124,112.93877
0.9849596,111.794785
0.9321476,106.42098
1.0019139,109.66934
0.92084026,103.6025
0.9058288,103.44986
0.891739,101.622246
0.8468553,99.16848
0.8860231,98.659256
0.8636928,99.46215
0.84558797,101.00541
0.6829614,100.640274
0.75849515,96.108215
0.6620724,92.93812
0.61806226,93.890785
0.5044916,88.949554
0.5257118,91.140976
0.48774663,89.91688
0.42683756,91.05511
0.46671402,87.45141
0.3353904,80.82922
0.4176483,89.08682
0.3562559,87.19437
0.46305272,83.94063
0.38362542,81.82395
0.4310828,81.12041
0.47328198,78.95796
0.399778,78.23871
0.35684538,76.98775
0.2734651,74.75473
0.26311427,76.61378
0.23866768,77.170815
0.23003672,74.034775
0.21997364,77.638
0.19085713,75.37632
0.15385881,79.74804
0.17750923,76.644264
0.06891588,77.68298
0.14621128,81.49446
0.051051885,79.67576
0.14374204,81.64119
0.19677177,83.32925
0.2671745,84.10759
0.353808,82.88685
0.3817333,87.605316
0.56590533,93.73731
0.67584383,97.489334
0.73800564,98.11994
0.83379287,98.72504
0.94838643,101.73152
1.0437777,104.476234
1.2027625,104.57971
1.2663983,110.402435
1.3330688,106.286514
1.3804059,112.81318
1.4294072,118.78589
1.5102942,115.1554
1.4963413,117.70779
1.528076,114.617516
1.508155,117.65627
1.5603497,120.53741
1.5180144,123.87486
1.6495996,126.3246
1.5419891,124.59891
1.5891026,119.67002
1.5949386,126.40583
1.5513891,122.89247
1.4405712,119.09537
1.4238908,115.49794
1.4193045,121.76245
1.3791741,122.56682
1.3661124,120.282005
1.3144084,117.2105
1.2806624,115.93785
1.2218674,116.979904
1.2743961,112.57788
1.2296976,112.77309
1.1506319,111.37733
1.1822097,104.88408
1.1556467,108.22819
1.2077425,108.10316
1.1827517,109.14429
1.1476263,104.92156
1.1017443,104.545525
1.0910616,102.41686
1.1056733,98.91717
1.0651991,97.32348
1.0073987,94.79084
0.98675555,98.171394
0.9580702,90.92214
0.89602417,89.47706
0.8087227,91.91232
0.7793454,87.903366
0.7725195,85.39869
0.7812091,89.836426
0.66726524,92.736145
0.6802603,85.25126
0.6153758,86.996544
0.60646373,82.50135
0.63830686,85.30679
0.67657,82.48403
0.7213474,83.4737
0.6656727,79.31594
0.6100253,79.31889
0.66146713,74.206154
0.6111315,76.70199
0.56101835,74.82445
0.5755413,76.50689
0.42942595,78.48793
0.43836614,71.63387
0.5400896,74.65289
0.40983102,73.187325
0.45666456,78.38698
0.3742748,80.91465
0.3001529,78.966515
0.3454243,75.7895
0.3525758,81.0974
0.44024053,80.93503
0.53640175,85.56379
0.61548513,89.451836
0.6752505,89.96827
0.7802675,89.04703
0.9142287,87.831024
0.97207,97.85934
1.0440694,95.86926
1.2224758,104.83628
1.2938291,98.34026
1.3888063,104.66845
1.5343518,104.96068
1.5391115,110.15711
1.5813574,110.21449
1.6977879,109.28024
1.7455997,113.78828
1.8280419,112.03465
1.8008496,115.606865
1.8148068,121.784294
1.8206373,115.081505
1.8375238,120.88738
1.8218247,120.644196
1.8044809,122.941246
1.8072478,121.399315
1.8310299,118.72454
1.8377438,118.84495
1.7573307,123.67005
1.7549788,117.43874
1.6868507,118.25196
1.6877509,117.49595
1.5804069,120.62885
1.6124741,116.95443
1.635463,113.3947
1.6364199,116.334915
1.4721022,116.129196
1.4927878,109.36425
1.4886037,111.347015
1.3863733,111.45379
1.468044,108.19572
1.4162098,109.97789
1.440255,107.127075
1.3723103,106.02339
1.4247484,102.65721
1.363521,100.01009
1.3996328,101.923904
1.3626093,98.84064
1.249479,99.00425
1.199118,95.68017
1.2319885,96.64844
1.093108,97.63241
1.1272403,96.29127
1.1009485,93.28
1.0020198,90.93618
0.9690852,87.07354
0.9937966,83.26353
0.9421026,85.39561
0.90456533,83.84323
0.86614484,86.22498
0.9524772,84.11531
0.89373136,83.804726
0.9231249,81.33756
0.8691226,79.39477
0.89828265,78.84097
0.8446533,76.013016
0.89384425,74.78489
0.751456,78.352844
0.7862429,77.90424
0.72447944,80.201195
0.75861496,74.92935
0.68678,76.37744
0.58339894,75.28597
0.5428673,75.43881
0.57496876,76.84469
0.5372662,76.75112
0.6245448,80.81894
0.5384407,81.85102
0.66162103,81.65398
0.6072151,81.6654
0.7080345,84.99876
0.78162795,85.146805
0.81721514,86.941315
1.0032495,92.900246
1.1223942,90.49742
1.2115593,98.08003
1.3547082,100.887665
1.4240252,98.48252
1.550486,102.94815
1.5941871,103.92007
1.6145447,106.45279
1.7692155,110.4231
1.7827256,115.48978
1.85832,112.15732
1.9627548,115.18827
1.9647015,115.825836
1.9369576,114.64648
1.9724909,120.665215
1.97295,121.143745
1.998532,121.860146
1.9266816,125.37381
1.9160799,118.30891
1.9883655,125.650925
1.8945692,116.66292
1.8702146,122.51097
1.7703096,121.56677
1.7882868,120.19249
1.8074948,114.408745
1.6819285,121.44488
1.7615764,116.43928
1.6861476,115.955414
1.6406873,114.39376
1.5791132,116.39892
1.5814604,109.70427
1.6208303,112.38897
1.5053452,114.17372
1.6318334,110.83728
1.4281592,108.76997
1.5177432,107.52321
1.4621972,104.97018
1.446294,99.05519
1.456943,103.00719
1.4234022,101.0761
1.4749542,100.63439
1.2865394,100.30203
1.3089864,96.012856
1.2621573,94.217865
1.1555493,96.01563
1.198576,95.009094
1.1132381,93.6711
1.0511816,90.7497
1.0881708,93.75315
1.0378913,93.70287
0.94001377,84.91915
0.9120331,85.18069
0.97184646,88.30722
0.93885094,84.472206
0.9573069,84.77578
0.89866966,81.30955
0.888446,83.334206
0.8859574,78.653755
0.80260646,76.87961
0.93237895,78.71859
0.7664452,73.45377
0.743712,80.575165
0.79895496,77.022224
0.617432,78.468254
0.67455405,74.302315
0.68315476,78.43042
0.5630937,81.257195
0.45232424,77.48542
0.56755155,78.20733
0.5353761,76.3867
0.46558785,79.30259
0.51887226,87.66362
0.5779843,81.592255
0.6064082,81.12455
0.71832556,86.48224
0.75523514,89.141304
0.86066103,85.31253
0.89716625,92.98903
1.100163,97.337296
1.1438372,101.33797
1.2215748,102.99389
1.4240968,97.896545
1.4277219,105.31726
1.5307086,101.79908
1.6028932,106.14083
1.6995882,112.37573
1.7488961,114.53818
1.7658244,113.93529
1.7486335,110.40429
1.8145312,112.47755
1.8103751,117.27299
1.8416429,118.386444
1.8505113,121.21085
1.8940715,118.14726
1.7962636,118.96418
1.8080328,121.44767
1.6948378,122.853935
1.7579014,119.94096
1.8133255,120.74077
1.6998502,118.97066
1.6272953,117.40726
1.6339879,120.80112
1.5683435,116.424385
1.5593895,118.99126
1.5198787,115.87836
1.4398526,113.74619
1.5022736,115.760414
1.2986809,115.03042
1.3256547,115.007484
1.3820761,111.24087
1.4111278,107.80744
1.2970338,109.34945
1.2931402,103.640335
1.2856212,104.43388
1.2285836,103.24185
1.2246857,103.46283
1.2389154,104.42848
1.1474777,101.11308
1.0782049,97.32557
1.1063038,100.6386
1.0739082,98.78175
1.0189489,94.09896
0.9243489,98.27328
0.9265329,91.89212
0.8223293,90.923584
0.68942744,87.37375
0.7948351,87.03092
0.78623295,88.04652
0.69027376,82.12742
0.72938627,86.1539
0.6147279,82.4075
0.6646464,82.878395
0.65994054,83.102554
0.62431127,80.200966
0.7466136,75.81323
0.5996334,80.50036
0.61395687,75.00551
0.5517048,78.81055
0.5197281,76.60131
0.44721475,75.86655
0.47927368,74.53655
0.395877,76.18581
0.39015517,75.07746
0.27630216,75.303764
0.29198268,79.25468
0.22583845,76.92412
0.27923092,79.583145
0.18658024,78.78662
0.251438,82.78074
0.2981915,83.84344
0.4446331,85.93287
0.39888865,87.407715
0.51513284,86.833916
0.63053054,90.27957
0.7373607,95.54378
0.85368854,96.173485
0.95422184,99.24939
0.9988814,103.20832
1.1570055,98.282936
1.2333951,101.187416
1.2520978,106.03951
1.3706735,110.85639
1.3628772,115.11524
1.5291632,111.79115
1.4704458,116.75613
1.5164541,115.533775
1.5645734,121.50351
1.5478168,117.60789
1.5719858,121.11418
1.4898819,121.3367
1.5241089,120.46279
1.5719432,123.403015
1.5019171,121.68108
1.5627252,119.459
1.4592956,124.14831
1.4328394,119.27727
1.4401075,122.24455
1.3723599,121.69918
1.4295524,121.18738
1.3164554,119.71855
1.2609867,119.547966
1.2231017,112.0519
1.1749891,110.58655
1.1607118,115.57818
1.1643327,113.453995
1.0847038,110.840126
1.0585738,107.63743
1.0000956,107.772
1.0006583,107.73329
1.0645235,108.131294
0.9744319,105.37339
0.98123306,103.901024
0.91031253,103.03046
0.8760779,93.071526
0.89340067,99.04913
0.7980274,100.87785
0.8294751,97.718056
0.7762537,93.98299
0.68090975,99.41914
0.6744619,91.26701
0.67598706,89.50297
0.49946892,90.23152
0.521828,89.35272
0.48485637,87.534134
0.44198555,85.46458
0.40176657,87.7081
0.4240756,78.213646
0.39346284,83.70532
0.44255513,81.64119
0.34829667,81.972206
0.41382533,76.96648
0.40597084,75.72728
0.30031374,77.10884
0.39431763,73.96138
0.30837715,73.32733
0.2738732,76.0473
0.20243898,76.331924
0.14632967,77.80668
0.16414008,76.814896
0.13434647,69.891685
0.033804502,77.95713
0.0013977201,76.82456
0.013548208,75.54979
0.013327974,78.71814
0.06533498,83.263626
0.10363843,80.735725
0.12986203,87.26013
0.17718671,85.583916
0.29626328,84.739204
0.27675298,88.33421
0.5148999,94.938835
0.657018,95.67877
0.7183932,97.152725
0.8183271,98.44572
0.916995,100.07411
0.9860291,100.531006
1.0188582,105.70235
1.1225815,111.591194
1.1616362,108.58294
1.2855968,112.343735
1.2191688,112.28117
1.2371299,114.87798
1.3730108,120.03336
1.3382505,119.455
1.4082332,116.52279
1.330063,121.68426
1.3481599,124.00576
1.3653834,116.64529
1.360982,122.2922
1.3487222,120.9417
1.3183769,122.02069
1.2400571,116.48354
1.2837367,120.968414
1.2536309,115.92015
1.2363495,115.79019
1.1146148,119.73682
1.1798924,117.65116
1.0817116,114.708916
1.0059847,115.83049
0.9549128,115.58786
0.9871494,111.9133
0.92986983,110.85442
0.92389697,109.42185
0.9229459,113.81072
0.89560044,105.799126
0.8888294,111.90224
0.8871529,108.57481
0.86022514,103.21848
0.8077744,98.1719
0.84232485,99.2121
0.77737266,96.70544
0.774701,95.81247
0.7313396,100.09628
0.7489248,98.16306
0.6097002,95.463875
0.5661505,96.5137
0.5543856,95.56225
0.4392228,92.86531
0.47126937,92.10547
0.45782414,88.88439
0.40739113,84.82053
0.2664318,81.83359
0.2876654,84.70778
0.41212708,81.78838
0.3452968,82.17981
0.33776882,82.69519
0.30152774,84.48772
0.37880725,77.3002
0.3310315,78.56727
0.34638005,74.626366
0.22858709,73.39888
0.2627854,79.436966
0.1906657,74.576385
0.14734079,74.66161
0.06967671,71.9498
0.064743586,75.23486
-0.019305604,77.84695
0.068565235,76.22717
-0.014077153,73.70609
-0.034273155,78.51933
-0.009037638,80.16364
-0.02713894,85.217964
0.088995084,83.87693
0.09202897,86.65855
0.22191946,84.978065
0.29085723,90.71195
0.46876675,89.30811
0.52219933,96.67599
0.6638774,95.42845
0.75136054,99.193855
0.8710385,96.70794
1.0149039,97.878296
1.0518758,105.44559
1.0857445,107.77195
1.1974918,107.63472
1.2880142,110.807915
1.3495066,114.13652
1.3527306,113.44206
1.3518101,116.59876
1.3682781,115.57433
1.5260099,119.82622
1.4105029,122.27858
1.442936,119.91062
1.4048781,121.12528
1.4110241,120.89526
1.3906447,121.67265
1.3461244,122.156265
1.3678477,122.00527
1.2713941,122.55892
1.2701372,118.77737
1.2550199,120.21799
1.2131959,118.05828
1.2214147,115.71898
1.2267503,117.48229
1.2067503,115.009315
1.1222955,118.4914
1.1087745,111.8501
1.1100906,115.39337
1.0780178,111.80644
1.0721223,109.069756
1.0531311,106.98768
1.0944074,110.833595
0.9899199,105.450615
0.96534604,106.11289
0.98336166,104.73994
0.9487421,100.478134
0.8518601,101.303795
0.9506846,100.686905
0.9841099,98.22784
0.8288107,92.91102
0.82723576,94.8949
0.71137905,97.72068
0.67750424,96.459755
0.6256246,89.082886
0.5933901,94.44901
0.6041356,92.66174
0.55141884,86.61806
0.4768711,88.76021
0.47239476,86.55089
0.60484076,89.777626
0.4548785,83.566345
0.49408522,79.24044
0.5542654,79.478645
0.58607745,79.78594
0.50817466,82.77014
0.5179764,78.85956
0.4709429,75.66561
0.52809316,73.87111
0.406448,74.94911
0.36536688,75.290085
0.37169686,80.69319
0.31407937,75.46874
0.21906468,75.28123
0.20548457,76.56684
0.15534498,75.82625
0.261112,82.60251
0.2042173,75.05254
0.25386992,83.98458
0.31374022,81.803444
0.22698005,84.42849
0.4545005,81.92805
0.51838326,82.99502
0.58931196,88.21855
0.73598266,93.010376
0.84298617,92.822266
0.9183288,93.16155
1.0440598,98.68647
1.1681817,101.60102
1.3185841,103.607475
1.3061073,104.95015
1.3830931,106.59081
1.4645758,111.63945
1.5521622,113.43618
1.586557,112.4781
1.66087,114.03866
1.6862453,115.222694
1.6524394,118.389824
1.6512179,115.7611
1.7054323,120.125206
1.6511433,122.780846
1.7263982,123.14827
1.7096862,117.895515
1.7242994,119.355415
1.6184525,124.005165
1.6032095,121.89117
1.6020745,116.53332
1.5136232,118.12189
1.560933,118.13413
1.505796,120.05567
1.4937218,118.193436
1.3964114,118.30607
1.4526541,114.45009
1.3887745,111.241554
1.3494251,110.94407
1.3106421,110.40845
1.3287591,110.43976
1.3871917,109.54862
1.3337388,104.20134
1.2750432,104.242035
1.2491655,102.28921
1.2566532,104.87684
1.2967262,105.132614
1.2269984,103.17606
1.284189,94.952774
1.1531873,102.7706
1.0201249,99.69549
1.1060274,91.305595
1.0486344,92.99207
0.94296,96.45338
0.94356185,91.71968
0.85882866,91.14442
0.851062,89.77293
0.90119684,87.35855
0.79725176,89.24511
0.76703,88.254105
0.7381387,86.77678
0.76336217,81.739586
0.7645445,83.35162
0.8269513,77.34157
0.73974216,80.183525
0.735185,78.138626
0.7783853,81.861305
0.8130646,80.992744
0.85226285,76.177155
0.74104935,76.19337
0.7416574,73.823204
0.6569128,79.12428
0.6289754,79.74607
0.52208036,77.32264
0.47054827,80.08043
0.4454146,73.64257
0.455797,77.20883
0.47349846,78.38076
0.4129417,80.34419
0.513018,85.161
0.53901124,84.89785
0.6460327,83.13499
0.7207058,88.397964
0.8479209,91.824394
0.96114683,91.04433
1.0247005,94.195755
1.1331509,96.37947
1.290755,98.00002
1.3117615,99.87801
1.3671083,102.73113
1.5586524,102.853226
1.6102387,108.86748
1.7593756,110.59703
1.7035395,112.40447
1.7521223,115.22344
1.9072007,112.34108
1.9037758,113.55349
1.9222311,120.16449
1.9158493,117.27878
1.9462775,120.20584
1.9479927,115.20359
1.9333581,120.35946
1.976953,123.50208
1.9874576,122.61591
1.9198703,122.130585
1.8553874,125.73953
1.8415062,114.06562
1.8190669,123.24185
1.7590411,123.57435
1.7794116,117.61586
1.7347578,118.95425
1.6927706,116.83845
1.5966208,115.144554
1.5869472,113.080894
1.5376729,114.886345
1.4984214,113.01394
1.4784553,111.31882
1.5739856,113.40537
1.5273675,104.04666
1.5138017,106.35611
1.376794,111.59541
1.4628278,106.205376
1.4473846,99.07199
1.4898529,105.253395
1.3794225,101.03713
1.4085115,94.63807
1.4030554,95.688194
1.2958812,94.83512
1.2370452,97.17014
1.072288,94.57262
1.1066179,91.99585
1.0703111,91.67999
1.0982196,88.80535
0.9476254,90.27482
0.9297213,87.743866
0.95835006,88.62151
0.9951375,90.59367
0.9965017,84.01444
0.95444393,84.89582
0.93377006,79.21892
0.9968958,80.67327
0.91495836,79.42089
0.9376354,74.62793
0.92251736,78.072716
0.80122733,80.694466
0.83806574,78.49124
0.785365,76.2942
0.75549304,75.48633
0.68132895,71.59612
0.6576897,76.09619
0.56342924,75.31973
0.6657197,78.76121
0.49420142,76.371124
0.5819783,78.604164
0.5312764,77.58247
0.60302424,83.02375
0.595799,84.29257
0.66383356,80.72027
0.6780865,86.909935
0.8459498,84.94538
0.9467975,87.7141
0.9928548,96.479004
1.0762149,96.33127
1.2945901,97.45816
1.3878165,95.914085
1.449101,101.34324
1.5547681,102.00547
1.5954431,108.88751
1.7470547,106.47496
1.8412204,109.886856
1.8356344,113.50172
1.855927,113.1141
1.9093412,112.94836
1.789969,116.448975
1.922228,114.58186
1.9101397,120.9323
1.9905384,118.59312
1.9602283,121.75387
1.8696878,123.27223
1.9597101,122.25447
1.9098518,123.522575
1.8878419,123.24449
1.850932,120.463196
1.8131899,122.82915
1.7923647,123.78447
1.7687045,117.532845
1.7499489,122.42557
1.684191,120.177086
1.6173438,118.06031
1.5632083,112.0617
1.5816584,115.981735
1.5181155,112.06601
1.4790868,109.33549
1.5030261,113.35457
1.434701,106.52608
1.4127951,108.51744
1.4005921,105.47666
1.3313581,103.8983
1.3972423,98.59852
1.3318299,101.29921
1.2991602,103.76362
1.3236705,102.67311
1.345924,99.27611
1.238339,98.51593
1.2390375,96.0128
1.139144,92.63152
1.1057993,97.182304
1.0406302,90.92808
0.94035906,90.58033
0.97513556,90.754715
0.8855877,93.02567
0.9303336,87.33629
0.8763015,86.296814
0.86322904,83.79456
0.79754704,83.97067
0.777932,82.89084
0.8912542,84.12975
0.8160528,76.37714
0.8209577,82.54057
0.83228976,79.76763
0.8105343,79.51807
0.6933626,74.53897
0.6889947,75.35622
0.665986,75.53659
0.54056996,78.01317
0.52526253,72.11643
0.5640753,80.81018
0.44238773,74.79992
0.36505193,76.254715
0.2718381,76.95383
0.38037375,77.09588
0.35262105,81.534805
0.45942453,85.44095
0.5139582,85.295845
0.5477935,82.51712
0.60598266,83.99201
0.66784984,87.39517
0.7948193,93.602325
0.8600517,92.51673
0.92736065,91.38795
1.0687224,100.657974
1.20205,99.164795
1.3200964,100.642746
1.3436521,104.72613
1.4967339,109.21002
1.4455762,111.61457
1.493578,112.3406
1.6355132,112.08446
1.6456581,119.24649
1.7445124,117.60258
1.6946985,121.26765
1.6858829,120.166664
1.7416601,120.70478
1.6994036,116.01112
1.712754,117.58603
1.6102635,122.38851
1.6889638,122.66588
1.6122874,120.02446
1.6866455,117.86522
1.6259739,120.68894
1.6210209,124.2321
1.5393527,119.565834
1.5226654,121.89208
1.4648187,119.72475
1.4746789,113.62728
1.3435977,118.2263
1.3487576,114.256805
1.3125942,112.115875
1.3064225,108.8696
1.1768941,111.75656
1.2929438,113.358536
1.1743255,106.11901
1.1066915,105.23018
1.2178816,103.71617
1.1472493,109.10657
1.1472287,104.090385
1.0649152,102.324
0.9814837,99.03509
1.0410022,101.1238
0.9711522,98.73938
0.95450306,97.10696
0.8447037,93.83239
0.8259851,93.95006
0.78275734,89.69916
0.71254814,95.36533
0.7238109,87.679054
0.5910983,92.101
0.558903,87.851
0.58596045,87.50811
0.46548918,88.05516
0.5543808,86.79395
0.52241,82.94221
0.53183085,79.70209
0.5449092,83.58919
0.5689756,78.23854
0.49324232,77.79858
0.5238849,77.6821
0.3990506,76.072044
0.3827017,80.65958
0.40447763,76.89371
0.3576994,76.08703
0.28501013,77.51717
0.21860425,76.600464
0.24650483,77.58533
0.15604301,79.52962
0.15351576,77.07084
0.09977977,83.46087
0.07490227,79.08573
0.08075665,80.96533
0.13010243,82.73633
0.25953463,83.629425
0.3241216,84.89473
0.30013162,85.037575
0.47338268,85.94312
0.5229703,92.43831
0.6550252,95.33627
0.7553034,100.7695
0.8597946,99.13079
0.9532058,103.37821
1.0728722,101.95948
1.0881637,106.67493
1.2199757,109.57276
1.3714607,104.194016
1.3215387,107.43717
1.4445701,114.69619
1.3941327,114.60788
1.3934315,116.98247
1.4004781,117.35988
1.5086539,119.88493
1.5059767,120.1198
1.4329222,119.91979
1.4828818,120.546875
1.3571161,121.88775
1.423182,124.407555
1.415713,123.80675
1.3743197,121.766884
1.3138747,119.94526
1.3176925,120.03479
1.3023258,117.375885
1.266721,119.14944
1.1133661,116.82548
1.152344,120.48216
1.1308094,115.78722
1.0471673,113.56673
1.0388114,109.4814
0.99395406,108.5197
1.0371724,113.31789
0.9772653,108.51607
1.0702374,105.2767
0.93558383,104.703384
0.8776375,105.45717
0.98066396,102.42803
0.8846627,104.8248
0.86231714,105.34315
0.85137695,99.73013
0.8236495,102.36296
0.7829742,100.477974
0.705499,96.28511
0.65927047,93.30306
0.6492989,95.13504
0.5985238,88.13863
0.4920784,91.660835
0.44090256,87.863
0.40780783,86.47661
0.42341033,85.74251
0.33020434,83.42996
0.37872258,85.8467
0.31419155,80.81902
0.38643625,79.81966
0.37702924,80.48241
0.35829476,78.090034
0.36307916,78.89299
0.30463353,78.5516
0.28746834,80.21227
0.26704794,75.09765
0.3167227,75.557175
0.14065629,76.39755
0.19569072,78.90332
0.04213233,70.659966
0.059878122,74.896965
0.019215798,76.99861
0.041433934,77.46074
-0.025304472,79.75813
-0.05001817,79.49146
-0.028104503,80.73852
0.015208308,82.74261
0.013239114,83.01128
0.08582907,84.44493
0.13584799,87.181366
0.3247469,89.56725
0.34368822,91.08727
0.45083943,94.91622
0.6877871,93.62114
0.6364106,98.201614
0.76158243,97.28858
0.90231407,103.29933
0.99217063,100.851715
0.9814318,107.31015
1.1297145,111.5783
1.2297901,110.867134
1.2525439,110.8242
1.325414,112.25064
1.2842135,118.57305
1.3359091,113.84799
1.3554784,118.67974
1.3641354,120.213066
1.3692877,123.03674
1.3508555,118.46562
1.3663526,123.866875
1.4016305,120.60297
1.3377883,118.61041
1.3275689,120.40115
1.3088267,125.3911
1.2273039,123.72447
1.2475407,123.432816
1.1643581,117.51347
1.0977635,116.74173
1.140751,114.58562
1.0328242,115.544235
1.0133466,115.24745
0.98330766,116.865585
1.0760344,110.493965
0.9753237,113.179634
0.92752945,111.74088
0.8847441,107.15088
0.93284917,108.14372
0.89632696,105.54249
0.93522745,104.11174
0.8681939,101.14902
0.8686506,104.52962
0.8247704,100.03574
0.76330644,97.68298
0.8141841,95.04149
0.7866111,101.614586
0.752149,93.99709
0.62839967,94.89304
0.535827,93.55913
0.56355983,91.9581
0.4698138,94.08379
0.5525851,89.95476
0.4291322,91.88005
0.4387202,86.59439
0.37157854,86.625534
0.40264794,83.97618
0.44754887,82.559616
0.40657133,81.98881
0.38057858,84.08653
0.41339412,81.58419
0.37893185,78.26493
0.41266313,82.14204
0.37778968,76.17805
0.33361137,80.33314
0.4648557,79.50344
0.28837627,73.115875
0.22814439,74.87548
0.25132978,71.33939
0.054076917,74.34275
0.080484726,80.58396
-0.029112946,76.61818
0.09650105,81.162
0.032676898,76.85398
0.039379917,84.21318
0.105572365,81.22628
0.3064117,84.87251
0.22663714,85.989586
0.31034017,85.92963
0.4293099,85.86891
0.5148135,86.18242
0.65708345,94.606384
0.76389253,96.72544
0.8633675,101.38821
0.9546774,95.5811
1.0949663,99.91784
1.1863056,107.91806
1.2685772,106.10007
1.314254,109.09462
1.4458985,110.59835
1.4766667,114.22667
1.4983721,118.5132
1.4730673,123.34183
1.5598941,118.48618
1.5432575,121.98592
1.5143626,118.32749
1.5377522,114.83809
1.5478634,120.931274
1.5533295,122.551895
1.4830883,114.88417
1.5423934,123.11818
1.4457995,123.434395
1.4696856,120.9862
1.4181033,121.13674
1.3622783,116.078575
1.4061263,115.68667
1.3626862,117.75674
1.299374,121.3938
1.1827862,116.149536
1.1899635,116.31422
1.2163014,111.435234
1.1601907,110.00016
1.2042956,110.021225
1.2394681,109.192245
1.0983789,105.774826
1.1671935,108.87073
1.1229998,105.432495
1.1170229,102.904625
1.1373987,103.370575
1.0760988,100.61946
1.035564,100.099686
1.0921875,99.9268
0.9658318,101.68754
1.007656,97.96407
0.94359875,92.305084
0.8368799,93.62617
0.836374,86.60409
0.743139,89.07439
0.78114545,92.90853
0.6335341,93.85468
0.6568944,84.134674
0.67209935,80.615234
0.70889777,83.63297
0.5844113,89.051094
0.63680637,87.45164
0.69833946,83.56314
0.642444,86.13051
0.6234313,76.980896
0.59943587,78.53579
0.59104925,78.75565
0.5765766,79.31538
0.5688833,79.58126
0.45945606,77.46545
0.43833706,81.875374
0.43301305,74.76955
0.38653374,71.16246
0.3825473,75.9727
0.34810752,74.35796
0.2399671,76.89365
0.35264772,80.025826
0.35856944,81.056175
0.44680884,79.75399
0.37465402,79.47722
0.49109396,85.25681
0.5750197,91.516304
0.6081976,90.44284
0.7503003,90.99401
0.7860163,96.02621
1.0297983,93.35086
1.0472609,98.89329
1.142622,102.76256
1.318665,101.95774
1.3985138,103.95468
1.5129238,106.53769
1.4775,108.54891
1.6641722,103.65768
1.6930403,112.837364
1.7514629,113.694466
1.7846329,118.19355
1.8347298,119.17152
1.8016533,119.63325
1.8229847,118.24103
1.836926,121.73023
1.8355005,118.44192
1.8328816,120.47909
1.8390366,125.51495
1.8105673,122.265625
1.8158686,119.46331
1.6791854,125.16711
1.6867028,118.74021
1.7026856,117.84218
1.5406718,117.34207
1.5746872,118.858025
1.5806154,118.66227
1.5245968,114.73742
1.467548,117.18137
1.5463636,118.464096
1.4897525,114.21916
1.4138631,111.46191
1.4816508,115.999084
1.4580367,110.47719
1.3376321,102.0683
1.4426541,103.846245
1.3751326,103.8724
1.3965877,102.00061
1.44311,106.17415
1.3457639,102.38361
1.3060932,95.98201
1.2704034,96.777756
1.2725874,101.31274
1.1521178,95.83036
1.0988195,96.05783
1.1360815,93.97573
0.9974731,94.53056
0.962899,92.85777
1.0232804,92.0806
0.98336655,86.52164
0.8864612,87.98199
0.87211955,84.532776
0.88580036,79.19685
0.7891221,81.713
0.8572298,80.051994
0.96365035,79.83581
0.90606266,81.639465
0.909231,79.98944
0.88853925,74.797905
0.8922906,78.157486
0.7646032,74.835014
0.8153678,70.86136
0.75657016,72.06844
0.6492655,78.23668
0.58326733,74.89744
0.6369106,79.80916
0.62061125,71.882484
0.44315547,80.63917
0.440214,75.22736
0.54579085,78.09602
0.5405257,80.15423
0.54347056,81.518555
0.59605086,83.78687
0.7466107,87.03871
0.7660068,89.012596
0.9023316,83.86731
0.9750856,90.56697
1.1586508,93.11836
1.2780147,94.83242
1.4209539,102.77441
1.4346007,101.44043
1.5797905,103.60449
1.6541697,104.23582
1.6507208,105.751366
1.745123,107.85462
1.8392116,113.60497
1.8423783,118.83769
1.9027367,113.71664
1.9754736,120.014336
1.9573694,117.51429
1.9568677,119.61134
1.9810349,116.04188
2.003728,121.42841
1.9383749,121.181206
1.9425757,117.20747
1.9234338,121.305214
1.97994,118.443245
1.8943781,122.435394
1.8576515,120.54759
1.831122,119.273964
1.8044124,119.69106
1.8040223,115.579414
1.7284358,119.85599
1.6450745,112.966225
1.6579059,113.64539
1.624489,113.25519
1.6423041,114.0997
1.5779451,116.353516
1.5495539,108.53105
1.5723222,110.991516
1.5016541,109.99843
1.5084109,105.38323
1.4519006,111.00315
1.4827191,110.690926
1.5079094,102.05622
1.5099987,97.285065
1.4408337,99.77517
1.3192143,101.556755
1.3646652,99.940956
1.2970619,96.83743
1.1588738,96.371124
1.208679,93.8189
1.1259652,91.56344
1.0688193,90.43452
1.0599927,91.25463
0.9442843,90.46231
0.96669304,88.24052
0.99487907,87.93252
0.98039854,86.301025
0.90401363,84.514824
0.91444963,79.14346
0.8901336,83.565544
0.8396912,80.62058
0.91348904,78.35973
0.8834182,80.2607
0.8103747,77.58445
0.76750267,77.356285
0.86314005,82.06319
0.75958496,79.17391
0.7120479,74.65682
0.68006605,72.68666
0.55582374,74.47965
0.58745456,82.09639
0.595666,76.081955
0.5116489,76.1024
0.48380712,75.63682
0.3264878,76.976
0.5550167,81.793686
0.5612833,83.78125
0.59722185,88.300575
0.6914348,84.432434
0.80093133,87.74231
0.92110974,93.11601
0.9563534,92.73726
1.1295155,95.17853
1.1924659,95.10936
1.3587557,98.55164
1.45095,99.93446
1.5420448,107.11837
1.5333507,104.87558
1.6330864,112.40969
1.6793853,104.33817
1.7556366,116.73453
1.8437296,112.35175
1.814581,117.508484
1.8740134,116.779144
1.8875259,121.30987
1.8201163,117.42705
1.8737532,120.05165
1.8528162,121.83566
1.813907,121.72494
1.8792247,122.42449
1.7989427,116.32711
1.7470737,121.847565
1.710393,119.897766
1.7046922,122.41693
1.6530119,123.79671
1.5217204,115.401985
1.5727706,114.65429
1.4679068,116.67759
1.5096004,117.6154
1.4889337,114.35475
1.4551927,115.47535
1.3872151,111.05947
1.3874068,108.25808
1.3566152,110.39412
1.3440169,113.417305
1.3349388,113.20596
1.3844863,104.54688
1.294743,104.06241
1.2297469,104.12629
1.1916027,100.23532
1.3082134,100.605225
1.1410604,100.26059
1.1907172,98.61839
1.0148249,101.68051
1.1118038,97.393196
1.0539765,95.50081
0.9845501,99.04659
0.86649084,91.765236
0.86548364,93.99799
0.8054274,85.49064
0.7679913,86.50362
0.7123737,87.96128
0.73023534,87.73107
0.64359045,83.42018
0.65346247,89.68726
0.74141383,84.00901
0.6391121,83.574875
0.69105834,83.96086
0.56787276,77.75274
0.6887924,77.318344
0.6146796,79.559555
0.6371343,73.4156
0.5360008,73.14838
0.43871823,77.49173
0.4255434,74.53451
0.42858812,73.19016
0.30532047,76.82232
0.2502674,80.788574
0.21512797,71.16321
0.36203992,74.350815
0.25818443,79.26589
0.306247,82.54877
0.26942426,83.01013
0.35259217,82.48958
0.43892965,84.45978
0.522004,85.38872
0.5975239,89.97218
0.66231996,89.954834
0.7743006,90.33442
0.9179382,100.29851
1.0551775,97.55931
1.0593811,103.52252
1.214688,100.30313
1.2970879,105.0938
1.3140371,106.88785
1.398222,109.132576
1.4015704,113.331665
1.5275444,118.16365
1.5169489,116.15776
1.5826923,114.22862
1.5243266,120.41386
1.5327682,116.40222
1.6103811,119.963036
1.6397905,120.7226
1.5361453,124.01834
1.5297151,120.26919
1.5434968,118.487175
1.5190369,122.2744
1.5543162,112.394295
1.4007126,122.82769
1.3746359,122.01398
1.4423167,119.47439
1.2260987,115.03931
1.330847,119.41779
1.3585851,119.30322
1.1801562,116.10475
1.2147245,118.0224
1.1222413,111.5827
1.1287363,115.60604
1.1209362,109.31398
1.1160975,112.942116
1.0965014,113.93936
1.0168895,105.63396
1.0264753,104.05633
0.989692,105.548195
1.0048125,102.2499
0.99109906,101.87867
0.92863905,101.887344
0.8768424,102.94708
0.8478595,102.59051
0.76872164,96.380646
0.75930864,90.47367
0.7589191,93.85586
0.6903738,93.75031
0.645857,89.01417
0.53071326,87.38585
0.5856729,89.23534
0.47178194,87.6871
0.40747237,86.69723
0.47250503,91.12029
0.4040786,83.29439
0.48227128,86.57617
0.3566175,76.98915
0.3789658,76.23516
0.43204796,79.067924
0.42885533,79.37649
0.3413631,78.49273
0.32046163,75.70913
0.23840317,74.048256
0.26152384,72.790184
0.26178235,74.15725
0.17444845,75.262
0.056232706,73.64386
0.029909996,77.44494
0.0007367945,78.60124
-0.0047230944,74.190765
-0.028411126,73.766685
0.014677769,78.898125
-0.034730703,83.24407
0.1449071,81.7933
0.18980071,86.9641
0.25419003,87.0735
0.3365252,89.873375
0.400286,92.094765
0.431944,92.6636
0.57690644,90.34676
0.70225763,92.058075
0.794036,97.16225
0.9292455,103.63089
1.0544163,102.0002
1.1052035,105.41115
1.1342448,110.441505
1.1888175,112.87157
1.3150573,107.45139
1.2974067,111.57841
1.272204,116.46815
1.3511811,118.18995
1.4109569,116.06101
1.4173111,116.835655
1.4329035,121.65952
1.3831964,122.67823
1.3398734,121.86203
1.3106362,121.97017
1.2748739,120.69762
1.2873795,125.560555
1.2756293,122.88779
1.1617514,120.616066
1.2655326,118.31019
1.1413794,120.215004
1.1073118,121.09257
1.0833595,119.87592
1.138677,119.48888
1.0198077,114.24115
0.9347644,117.78298
0.8953773,116.87094
0.9513748,112.8672
0.90764487,111.99002
0.9058003,105.46708
0.8631096,111.078636
0.84560025,106.89756
0.89867043,102.431496
0.87482333,104.53182
0.86138225,101.74229
0.8432885,101.157005
0.72591406,95.58163
0.8227382,93.99538
0.76651824,97.267044
0.62838817,100.521935
0.6431314,94.004486
0.5853881,94.541695
0.52978414,93.41234
0.4704943,93.20208
0.4007233,86.674385
0.41049564,86.55212
0.35468787,90.200836
0.35727525,87.33811
0.39998558,87.43545
0.32021073,83.33437
0.36544847,82.97811
0.38228908,82.147644
0.28827456,82.86117
0.33400396,79.41082
0.25065038,74.58615
0.20225419,80.48826
0.25665468,74.45842
0.16141738,76.09826
0.19033489,78.76282
0.19348964,80.576225
0.105932705,78.86501
0.07198316,81.172066
-0.00021590244,73.66347
0.055201054,78.16862
0.001250472,74.55125
0.016258614,82.5624
0.039149012,81.026665
0.00851955,79.13633
0.07742928,80.283936
0.09563358,85.10434
0.23567796,84.747826
0.34293967,90.999275
0.356336,96.28371
0.60071796,93.35568
0.57285684,94.21504
0.71846414,97.54341
0.8830942,99.98897
0.97592586,99.36115
1.0826564,107.06855
1.1793687,106.81851
1.2398621,108.660645
1.1748353,110.04471
1.2674907,110.375565
1.3673204,113.85185
1.4008946,114.845764
1.4016198,118.46534
1.4210244,122.2218
1.4011542,117.79262
1.3881907,121.486786
1.3540112,124.62663
1.3831898,120.63927
1.34737,121.85946
1.4145774,116.92906
1.3565727,125.28233
1.3937651,120.54086
1.2813919,120.95965
1.1503166,116.725395
1.2006881,120.38604
1.1439189,119.46029
1.1656417,116.63401
1.0343531,120.90167
1.1111445,112.3396
1.0186665,115.783195
1.0567899,110.93009
0.99929047,109.74044
0.9833499,108.81729
0.9975556,106.437
1.0204175,111.202034
1.063646,106.462746
1.0446151,104.29768
1.0325477,104.13838
0.9241228,101.99246
0.98619324,101.69718
0.8770864,96.81902
0.87921816,98.65346
0.83040464,91.90911
0.7594391,90.01335
0.7001315,94.34507
0.6673089,89.94712
0.64603066,91.449776
0.59702945,89.12836
0.5312038,86.21929
0.574796,89.5493
0.5161247,87.93259
0.5248161,83.82797
0.60842264,84.471695
0.5443564,83.40803
0.49697822,77.45525
0.46718794,78.53656
0.47701144,76.524765
0.4652503,79.31183
0.46745875,78.50733
0.39258742,78.78924
0.3852871,75.47498
0.39284208,75.822205
0.3258034,70.86932
0.3314537,73.181755
0.25906238,76.22011
0.23653802,75.250046
0.27615878,77.6102
0.18117908,76.86146
0.18415588,75.62996
0.14723489,78.14134
0.27609396,80.85981
0.3047392,82.83189
0.21007411,81.55491
0.41140434,86.99215
0.51321864,85.04596
0.56459326,90.298515
0.77523464,91.44171
0.7363674,89.075966
0.82492113,96.39817
1.048067,96.40249
1.1899489,99.237206
1.2550149,107.11267
1.3701465,104.06677
1.3714191,106.34058
1.55153,111.14222
1.5049478,111.88238
1.6225249,115.433784
1.6367028,120.99589
1.6502967,117.70446
1.6918734,114.79821
1.7198246,118.142426
1.6072326,116.820145
1.6605725,123.86696
1.7252145,124.56156
1.7478786,121.67335
1.6236715,119.8846
1.6328319,121.673584
1.6248698,119.537125
1.5765771,123.75305
1.5110359,119.22438
1.566374,120.86293
1.5210085,120.11836
1.5282067,115.811584
1.4170394,114.31539
1.4044225,113.40844
1.3862284,108.9091
1.3799235,111.753876
1.2727103,109.51965
1.2435124,110.18982
1.2946126,111.92936
1.2624539,108.55526
1.2604918,103.908104
1.2675098,101.82854
1.2661889,102.57185
1.2506261,100.78345
1.2575823,101.944534
1.2410717,99.93007
1.1007361,99.5534
1.1096973,97.966545
1.0667938,96.78044
1.0298293,98.511086
0.9740347,91.06997
0.9049091,91.34267
0.87040377,93.07979
0.89048517,92.1425
0.83477247,90.32702
0.83445007,87.16463
0.75626457,88.27901
0.75298256,89.75439
0.75362694,83.99415
0.7703638,79.88557
0.73958266,80.31293
0.77148855,77.38958
0.7454532,82.31041
0.78580415,81.28836
0.657178,76.997536
0.72605956,75.50873
0.6890782,78.98678
0.6333579,75.25311
0.5874079,74.233376
0.5555101,69.92894
0.52461046,73.95971
0.440654,77.46672
0.45653015,79.03262
0.4331426,79.98286
0.47981572,75.97505
0.4534744,76.34063
0.48970068,83.22612
0.4875425,87.86541
0.5837578,90.22175
0.7378108,88.85967
0.79150075,92.61963
0.88967186,89.92351
1.0320419,97.71021
1.1463695,96.37073
1.1380002,96.22769
1.3384346,99.561676
1.4676708,101.149315
1.6159405,101.54053
1.6213323,102.73753
1.7355603,110.80029
1.7349827,109.5988
1.785878,115.118065
1.802642,118.125534
1.8968741,115.00106
1.9151465,115.71237
1.8972026,121.75354
1.8643202,117.656906
1.9221079,119.064964
1.9311937,119.688034
1.8787221,115.84244
1.9144155,121.48876
1.8040365,119.52043
1.8002605,120.28482
1.8297877,122.53652
1.7858385,121.87882
1.748512,116.61602
1.7146698,117.70136
1.6282877,119.29873
1.6622066,120.17602
1.6450242,115.27438
1.6216158,118.53985
1.5836651,113.357765
1.5320379,110.717
1.4969199,111.27785
1.4622042,110.185844
1.406576,109.88567
1.4974717,102.90798
1.4843882,104.61962
1.4776894,108.21016
1.4969311,100.75663
1.4362383,101.11503
1.3661543,102.74307
1.2995008,100.10907
1.3764485,97.21915
1.2413461,97.35231
1.2126827,97.58375
1.1414177,90.47125
1.0492059,93.752525
1.1103288,91.34608
1.095661,90.047424
1.0159638,83.286736
0.91885936,87.071396
0.93242186,89.32964
0.9305894,84.551636
0.9939513,84.72255
0.93886983,82.07413
0.88337684,80.73047
0.8836636,76.10379
0.96538025,76.916725
0.8791356,76.47323
0.889019,78.00185
0.806155,76.390526
0.8285484,82.01053
0.783307,78.84348
0.69029003,77.70134
0.7846348,76.19248
0.62213963,76.47352
0.689688,78.32226
0.61535275,76.807
0.5159031,77.82519
0.5811807,82.76181
0.60261476,78.060165
0.5526237,82.44634
0.60234755,83.99131
0.69232535,83.96253
0.74562436,84.3843
0.8650928,89.97305
0.9083253,87.144936
1.0326859,92.15127
1.1138837,90.91877
1.2964875,99.25203
1.4288764,99.07786
1.4744474,101.85015
1.5710596,106.23351
1.6485255,105.27004
1.7120632,107.8094
1.7571924,109.37255
1.8220084,112.93537
1.8197937,116.968994
1.8337963,111.229355
1.8967165,116.31266
1.9714069,119.15646
2.0166938,120.20998
2.011811,121.61474
1.9865009,121.68736
1.9214623,126.08745
1.9385613,120.92298
1.9410726,125.148186
1.8956128,113.818245
1.8806826,121.87149
1.8349235,121.85143
1.7605299,115.407234
1.6737988,118.03827
1.7177796,117.49738
1.6386751,112.343956
1.6582142,115.06539
1.5467534,115.41027
1.5726026,111.36514
1.5765966,111.99628
1.5535582,115.07091
1.5723313,110.47574
1.4518622,106.25149
1.4180433,108.051384
1.4660374,102.08258
1.4856296,102.32715
1.260876,105.54812
1.3807952,99.306
1.3664229,100.405174
1.3044015,97.04047
1.2879272,95.624825
1.3050497,99.84801
1.1948762,93.16606
1.1069207,95.209274
1.1333344,94.23518
1.0811887,89.485535
1.0056667,90.245255
0.8775557,87.850296
0.95444965,90.55741
0.8763616,90.61584
0.9237819,84.22028
0.81918925,81.50726
0.8699837,77.07192
0.8261447,86.7096
0.86770105,79.37021
0.8258051,78.470894
0.81613857,79.72148
0.80727994,82.17479
0.77335316,77.26284
0.7345928,75.82531
0.6786946,79.0184
0.69139975,78.26236
0.5366756,76.09107
0.52402633,74.22574
0.51652646,76.43448
0.5494824,75.29443
0.48032373,77.68958
0.4119268,81.4326
0.44311652,81.52861
0.42404887,77.22971
0.4058321,81.87387
0.49076718,79.6306
0.57276845,85.97191
0.642851,87.929634
0.76403546,88.266
0.7984407,91.839935
0.90417624,93.62352
1.0982647,96.34817
1.1779749,99.7635
1.3406242,94.76988
1.3673935,97.52633
1.3456762,99.42396
1.4661726,112.988045
1.5052471,105.933754
1.5616962,112.246315
1.6255786,115.01509
1.69936,116.923256
1.7149866,117.31758
1.7402333,115.01075
1.7214549,116.2341
1.7076528,118.77095
1.7000568,114.80822
1.7539595,123.40931
1.6863337,127.05482
1.7418022,123.112076
1.7236257,118.57669
1.63528,124.31861
1.634176,118.97219
1.5087501,120.26766
1.5447716,125.562294
1.4040475,119.87374
1.501665,116.77723
1.4891666,116.939285
1.4529513,113.085785
1.3265725,116.25978
1.2930493,113.39523
1.3253736,111.875175
1.2847701,112.39311
1.2198708,109.04653
1.2482646,105.346535
1.2162347,107.68497
1.1867532,111.612625
1.1980168,107.44107
1.0883979,106.01012
1.1220272,101.55166
1.0622132,100.2729
1.0933682,99.99619
1.055016,93.834724
0.96715873,95.86484
0.8484371,99.53782
0.8901611,92.57218
0.825521,93.75025
0.7481567,93.30853
0.67560023,93.73637
0.6638724,90.79561
0.55980206,88.123856
0.6667761,89.06116
0.59018654,83.11901
0.57798934,84.213234
0.60556144,79.81945
0.56736207,81.3462
0.51318514,84.03296
0.6235411,83.67123
0.5236116,79.08817
0.45672262,80.13115
0.4453128,77.70741
0.4476115,75.69864
0.36497194,79.48925
0.40986353,77.12125
0.3195442,76.496925
0.20764971,73.751175
0.22146852,76.67829
0.094309434,74.27566
0.13590467,76.62757
0.1621927,77.2982
0.045363728,82.08161
0.1257826,79.162254
0.12632817,84.43186
0.26505896,81.0188
0.298776,90.511604
0.36305773,86.43733
0.47885615,90.20091
0.6009772,88.71493
0.65801936,92.776024
0.78744745,99.14174
0.8901252,100.617615
1.0025064,102.70006
1.108162,105.90584
1.1127143,110.05255
1.2295663,107.21663
1.2896229,109.69888
1.4023563,112.636826
1.3950589,111.702156
1.3915235,118.06977
1.3665087,117.949165
1.4546227,112.15946
1.4419066,118.37846
1.4297078,119.479744
1.4656597,119.90341
1.4217141,117.89289
1.4073926,120.79587
1.4349881,122.18526
1.3979368,119.3801
1.385516,117.26221
1.3560984,122.642746
1.2128795,124.61891
1.272327,116.77727
1.2662715,117.39153
1.1950477,119.130775
1.0765405,114.73427
1.0752894,118.1404
1.1525244,113.21545
0.9978259,110.6468
0.9759119,111.29483
1.0403374,110.83785
0.999433,106.069244
0.9950916,108.32933
0.9584085,105.70346
0.90879536,106.81925
0.8980444,106.15412
0.91323406,98.539734
0.9289468,99.15952
0.8422022,98.63607
0.7237439,96.33668
0.7459319,97.333496
0.6974584,98.229485
0.5967105,96.41517
0.6395987,96.043205
0.5371342,92.01566
0.43771303,90.912384
0.4346327,92.68134
0.36493582,88.187935
0.3276117,90.52596
0.34898064,83.622765
0.36654633,84.46591
0.39825705,84.14892
0.29620838,82.12609
0.3525521,77.34846
0.33229345,76.44513
0.3045484,83.487366
0.3460623,79.207275
0.34283835,75.90683
0.30052873,73.993706
0.29495877,81.88109
0.19924639,76.79725
0.20635878,78.80398
0.032029763,76.00789
0.014744521,77.77424
0.007867567,73.79113
-0.0003421825,76.28482
-0.09807085,74.774864
-0.030157605,78.615166
-0.035321504,78.90239
-0.08168548,80.384155
0.028337311,81.690704
0.08830534,85.84648
0.14125724,88.712685
0.23919211,92.02292
0.36916795,92.10844
0.5533168,91.38186
0.5833159,93.41764
0.73985434,95.23156
0.7691516,98.31633
0.8759282,102.329605
0.99118406,105.86372
1.0891451,107.88166
1.1284672,108.862686
1.2050574,109.1057
1.2180041,113.07934
1.2898042,117.25041
1.3570008,113.990845
1.2873222,117.86541
1.3757242,121.860016
1.312386,117.10689
1.3232611,122.24119
1.4025975,121.78801
1.3240325,125.79355
1.358287,120.95378
1.2756637,120.78263
1.3118432,119.84803
1.2456166,121.70156
1.2062296,121.04032
1.1819426,117.351074
1.1419055,122.21495
1.0701188,116.51369
1.1091288,116.08458
1.086123,116.3846
1.052388,111.99888
1.0419953,117.87696
1.0607814,111.689384
0.9191273,111.789055
0.9286755,106.96253
0.9991612,110.29928
0.89794934,106.31067
0.9721244,108.741776
0.88248646,103.032745
0.87167865,104.01103
0.7496424,97.43907
0.784312,102.16241
0.725607,98.56716
0.76918757,98.883095
0.74987125,96.84797
0.6689245,99.9841
0.6362843,93.0456
0.5502553,91.115105
0.51731557,93.65075
0.47555178,92.05547
0.42824188,85.40392
0.43463466,88.11645
0.41465092,85.12121
0.39660424,85.53282
0.45445815,82.603615
0.34801152,82.40842
0.43977427,81.03426
0.35365248,80.47115
0.43121868,80.33881
0.35622194,82.19078
0.36213055,76.794075
0.3980961,78.53883
0.31919107,77.56455
0.22714968,75.762276
0.24361359,77.52515
0.17998093,72.7879
0.17391485,72.49722
0.07019664,80.60291
0.09054677,72.52401
0.08377622,79.49261
0.10776957,78.29808
0.031209225,76.60818
0.07293,77.73198
0.11889334,85.44125
0.15137574,83.50938
0.27188468,87.679306
0.29378378,89.06681
0.5552264,94.6114
0.5546405,92.882545
0.6506885,93.220795
0.81028414,98.77171
0.91823345,98.08282
1.0368258,102.345024
1.0481657,101.98282
1.2146783,107.6671
1.2966096,110.890686
1.3931862,105.98319
1.3499783,115.343765
1.4011903,115.35059
1.427072,114.3783
1.5245073,119.99011
1.4383452,113.30771
1.5330064,119.10726
1.5256408,123.533226
1.558658,120.02799
1.5496649,118.02592
1.5184735,119.09907
1.4759339,122.16069
1.492856,116.76542
1.5219342,120.68359
1.4471376,121.511055
1.4990916,120.26377
1.3599119,119.6284
1.3669703,113.26541
1.2686591,119.03222
1.2797763,118.61746
1.309959,111.68623
1.1627601,110.42441
1.1504024,116.207886
1.1921157,111.50909
1.1271214,108.939865
1.1425688,109.38553
1.1317935,106.51653
1.054887,108.32694
1.112038,106.54707
1.0605685,103.474
1.1499571,100.1412
1.0895263,106.434975
1.0921643,99.37549
1.0232915,101.59494
1.0298891,96.70929
0.9517616,95.04355
0.8263606,97.91231
0.8589506,95.10927
0.80687726,97.126854
0.79911965,86.09998
0.70852727,90.05954
0.6743865,83.24956
0.6111525,92.02865
0.6503383,85.583984
0.66026956,81.91332
0.5946899,87.45897
0.60650635,81.45022
0.67681235,79.67042
0.6134934,80.9647
0.56331545,80.87505
0.6027924,76.33981
0.5354672,80.15277
0.6682335,74.11653
0.60816896,77.26837
0.38600993,75.60081
0.47217062,76.690506
0.39018226,77.151115
0.40596825,71.38222
0.32443509,74.39422
0.27206087,73.80889
0.25754103,79.26107
0.27886668,79.21509
0.27451813,82.588425
0.35729337,84.55653
0.41672722,83.014435
0.5186778,84.19488
0.53712773,90.20462
0.6029721,86.43037
0.6839973,85.55861
0.8660802,95.83818
1.0784748,101.13324
1.0879506,97.702415
1.2086338,96.77407
1.2965212,104.93579
1.36091,104.328156
1.4699261,108.131676
1.5362294,106.254
1.6020379,111.67156
1.6806691,109.331
1.7460788,117.76014
1.8034464,113.42941
1.8035061,120.43833
1.7589777,119.228745
1.8002888,120.33711
1.7847153,121.66621
1.7805853,118.163666
1.8695437,122.56127
1.736729,125.76449
1.7547483,123.186775
1.725367,120.41362
1.7494452,122.49014
1.7250549,117.73343
1.675152,119.70933
1.6242367,118.59616
1.6538746,120.11032
1.4868841,119.459274
1.5381238,115.39867
1.4455127,113.2117
1.4840245,114.557335
1.5012665,113.43565
1.432371,107.4344
1.4580375,107.46109
1.4634503,106.64376
1.411763,106.705536
1.3820896,109.10241
1.3509595,108.99548
1.4142534,100.97059
1.4480182,99.428825
1.3256553,102.97299
1.2791628,103.2296
1.1722298,96.14936
1.2588311,97.93892
1.2345302,96.90993
1.1159531,95.11733
1.0667926,96.494225
0.9887586,96.44608
1.0249403,91.03693
0.9653991,90.97335
0.9276959,83.58905
0.89157766,91.13935
0.8797847,89.29994
0.82632697,83.64585
0.8212689,83.22532
0.87121433,81.92759
0.8309655,82.78126
0.8216264,77.32918
0.8651252,83.13659
0.8024723,78.66606
0.8751703,76.07375
0.7722661,75.84184
0.77661514,76.978676
0.7252268,77.16494
0.67984027,78.634026
0.6333826,75.04079
0.62674785,74.89023
0.5803702,76.82358
0.57661235,72.84233
0.53705525,74.39313
0.493152,81.24859
0.57333684,74.918396
0.57880723,83.19116
0.76663446,80.033516
0.78747314,85.7388
0.81072974,90.66724
0.940249,87.76317
0.9924737,93.24597
1.1294154,92.61439
1.3102729,91.37466
1.3687917,97.60073
1.4261022,98.19325
1.6181977,102.760605
1.6295891,104.61583
1.69908,108.24263
1.7312865,108.15556
1.8698547,113.381935
1.8387299,114.689285
1.827886,120.205795
1.881554,114.32484
1.9853553,116.48262
1.9329872,120.02577
1.962948,117.34312
1.9562174,120.79922
1.9253557,121.165115
1.966206,118.9189
1.8819607,118.53693
1.8346105,118.5466
1.8355467,123.09701
1.964799,119.03248
1.7580936,122.40303
1.856578,121.70616
1.7232325,115.20246
1.6671695,122.95818
1.6011506,115.96529
1.6120849,118.290825
1.56581,115.51514
1.5477326,119.12629
1.5736734,112.75555
1.5615915,111.11893
1.5675794,108.85385
1.517301,105.32202
1.5061965,106.97148
1.4152064,106.64316
1.4484084,103.43792
1.4149765,105.884605
1.4566038,105.64949
1.3642862,102.31306
1.3611089,96.37864
1.3121356,98.051895
1.2127564,97.23914
1.202554,93.10854
1.1917936,95.985664
1.0916293,92.75759
1.0874745,91.74773
0.9867999,91.41256
0.9631023,95.01481
0.93991125,89.97136
0.91089314,84.66295
0.8955715,84.720436
0.93863803,82.31664
0.9223651,81.357445
0.90169525,80.74097
0.9000351,79.84377
0.93434954,80.494865
0.89114076,78.751564
0.86442363,76.41409
0.8950499,79.59984
0.7609811,78.27489
0.7953148,76.29445
0.7926365,77.2265
0.62937903,77.33096
0.55984664,71.945946
0.5898899,77.77273
0.56348747,73.88763
0.51663816,76.033554
0.4480456,78.39968
0.45793223,80.15051
0.59298986,85.26844
0.52076143,83.698456
0.5704804,86.833244
0.765721,84.367744
0.7670338,95.84051
0.8881335,93.537994
0.9650854,92.38052
1.1384425,93.665115
1.23828,95.90366
1.2946887,94.285286
1.4261351,101.5751
1.5187244,108.555405
1.7007056,108.85071
1.6275017,107.93262
1.7678688,107.143875
1.7983669,113.70986
1.8379029,116.51307
1.8402538,116.01939
1.8585552,116.23908
1.820503,117.82505
1.8642738,115.82788
1.8168502,122.3336
1.8892953,123.970184
1.9174616,118.24162
1.8447193,123.82972
1.780314,124.48688
1.782967,121.65123
1.6711226,120.0827
1.7476876,120.98712
1.732941,116.119286
1.5860881,119.49114
1.5664303,118.25592
1.5756716,115.32265
1.4839733,116.201195
1.4884256,114.82735
1.4619851,114.89694
1.5078572,112.47637
1.382188,113.94709
1.3714834,109.77603
1.4294127,107.01802
1.3335911,112.91115
1.3017583,110.56559
1.3722448,100.71343
1.3436223,106.32851
1.317791,101.48156
1.2181147,101.15376
1.187374,98.73777
1.1377969,97.05043
1.1471983,100.69382
1.0315927,91.84861
1.0146586,90.04642
0.9339868,95.3831
0.9784121,92.59115
0.7846136,89.89121
0.8047694,88.592125
0.7567964,88.66583
0.772446,86.94781
0.7353588,85.64565
0.7768862,79.65971
0.7309854,83.374214
0.649816,83.77459
0.6881012,82.034515
0.6687899,82.77016
0.6022853,75.81833
0.71510106,76.54435
0.63357466,76.31237
0.6571427,73.29973
0.6134297,74.62521
0.5337114,74.549095
0.41496876,74.94546
0.3954019,74.251915
0.45757583,72.39815
0.34449688,75.235374
0.26561597,80.19572
0.23048083,76.19213
0.1999385,77.83335
0.23094633,77.21862
0.3305756,79.03309
0.4121429,84.902435
0.4078815,86.733086
0.4768285,86.3161
0.56410056,84.753716
0.7206463,89.674614
0.80032533,94.41356
0.8706012,96.11068
1.0671649,96.52662
1.0724937,100.5216
1.2475977,104.39871
1.298337,105.874535
1.4075212,106.012596
1.363227,107.55084
1.3524473,111.568756
1.5796211,112.98003
1.5823704,112.18634
1.5306011,116.672295
1.5635101,119.74445
1.6088232,117.61169
1.6153166,117.26518
1.5983989,121.22198
1.5975456,118.49554
1.5742813,123.23075
1.6148343,120.02181
1.539188,122.199135
1.484198,121.07161
1.5004256,124.47069
1.4494106,120.93434
1.381778,124.49167
1.3319247,120.877205
1.3582379,119.61645
1.2128348,111.59018
1.2257838,118.50277
1.2193842,109.24682
1.1582046,117.32659
1.1799,109.90026
1.0865993,110.080475
1.0829335,110.61229
1.0512369,105.68077
1.0723095,108.74115
1.0803949,105.67584
1.1130675,104.96452
0.9863958,102.58433
1.0315175,101.29306
0.87921333,100.79731
0.91150767,100.66907
0.8562283,95.19529
0.857914,99.311195
0.767773,96.43268
0.6736661,99.00171
0.6948814,89.06919
0.5534234,93.88212
0.5642131,92.18382
0.60387695,88.21598
0.44429615,91.25476
0.4736652,89.250206
0.43812647,86.27042
0.4174499,86.057625
0.3666614,83.41222
0.4844765,79.63107
0.45247856,77.89098
0.40926856,76.994865
0.42262313,73.45974
0.34794953,76.83249
0.35750872,75.64481
0.28886965,74.695984
0.32384354,74.50062
0.3037251,73.508934
0.15764597,79.040504
0.116280235,78.43074
0.11151293,73.34278
0.0580047,71.41529
0.0033057933,76.77983
0.061775923,78.615074
0.016530268,81.45493
0.048613295,83.61938
0.09717783,80.46041
0.1284531,82.43523
0.21444592,84.52051
0.27692994,88.00755
0.48976064,91.75589
0.4257903,88.36642
0.6533272,93.01847
0.7679602,98.65742
0.8208002,95.122345
0.8722951,103.203445
1.0537539,101.70438
1.0534395,102.84449
1.1893753,109.81298
1.1942863,107.943275
1.2560796,110.70347
1.2832075,113.76953
1.3942575,118.52842
1.4116247,120.63891
1.371228,117.3904
1.3747257,117.36971
1.3450009,125.71943
1.383938,119.651825
1.4428186,120.56151
1.3253945,119.222084
1.3804767,120.63913
1.3102285,119.068115
1.2781554,122.24904
1.2451144,121.636314
1.260249,115.37781
1.16198,115.81622
1.1565137,116.9531
1.0543005,120.32909
1.1130987,115.18128
1.0192357,114.801704
1.0669414,111.7235
0.95950395,111.09207
0.9593091,113.71481
0.9037022,113.53478
0.9049167,111.026024
0.93067366,109.22934
0.93264,103.75789
0.8618729,102.3491
0.8906232,103.48594
0.8989331,107.87088
0.7636531,100.5513
0.7619934,98.11162
0.71790594,96.30875
0.67515343,96.40603
0.70343745,94.939125
0.5699881,92.18144
0.56437415,96.931625
0.44426966,91.15441
0.37898785,94.19616
0.44022936,89.61662
0.40298846,91.97663
0.37069887,89.1643
0.34258267,85.667915
0.34140393,87.282715
0.33460504,81.49966
0.28055713,85.92623
0.30435136,81.59124
0.32451525,75.70184
0.23792839,82.70667
0.2443754,77.12377
0.331005,80.11328
0.29938248,79.91186
0.25050884,76.06356
0.146406,75.522675
0.16936803,72.92454
0.12691075,77.14829
0.012532807,76.330086
0.08037554,75.15849
0.010824651,76.46937
-0.10915335,78.5221
-0.058306154,77.39298
0.082520895,80.77844
-0.09445122,80.83058
-0.020472707,81.03333
0.10098725,82.79781
0.25163025,85.98362
0.24671979,89.561226
0.39835128,96.41264
0.58188707,92.719765
0.64712083,96.792854
0.735176,97.921326
0.8537042,104.2569
0.9855841,106.43976
1.0523833,105.80081
1.1617843,101.508575
1.2370844,111.509094
1.2611895,113.74987
1.2999557,114.45113
1.3503683,113.20118
1.3552016,115.43919
1.407811,120.306526
1.4142811,120.778595
1.4172248,117.35875
1.4757216,122.58701
1.422464,122.67294
1.3649889,123.6628
1.3830721,121.100784
1.2817068,126.26355
1.3464808,120.0721
1.3324041,122.03392
1.3274127,123.15405
1.366845,118.56273
1.1761007,112.97395
1.1524177,117.34635
1.2386155,115.00484
1.0666647,115.89701
1.0618355,117.56354
1.0977676,110.55828
1.0027348,112.010826
1.0059134,110.76127
1.0496492,108.211174
0.99567264,104.55377
0.9827871,110.03886
0.98186004,108.28301
1.0522909,102.65019
0.9536452,105.256165
0.93466854,100.56655
0.9624999,97.39228
0.8995414,95.32325
0.9003754,97.412025
0.7795565,92.42766
0.8198464,94.50032
0.73970896,96.840836
0.6742312,90.89566
0.56314564,90.60919
0.5611594,96.04775
0.5250936,90.352844
0.55402374,87.37148
0.5209712,87.4039
0.47831106,86.715576
0.48843533,76.75926
0.47844866,81.84486
0.51855516,84.000946
0.52056193,77.44328
0.43350753,80.10096
0.4881257,78.260315
0.5651021,81.23122
0.4067648,72.31569
0.41860732,78.3047
0.4464018,80.45855
0.33293897,73.885216
0.30791572,77.04947
0.25418478,77.25527
0.20093253,77.39248
0.18836741,81.45922
0.124327034,75.532364
0.18372479,78.42662
0.17375387,85.008804
0.21877328,80.45903
0.123660065,81.11372
0.3118006,89.35446
0.37736735,86.674835
0.41140434,89.72484
0.60788804,92.434814
0.7374972,90.89864
0.77448124,95.05206
0.9465312,98.48243
1.0172366,96.93495
1.1031784,102.18165
1.2452862,108.073494
1.3121216,105.58409
1.3644637,107.22723
1.5465635,113.494156
1.5128546,116.41471
1.5287807,117.52588
1.6003602,117.13098
1.6415246,120.3315
1.6214507,115.58762
1.6578227,114.44936
1.7338611,119.07505
1.596124,120.62582
1.6257647,121.88121
1.6760254,122.69084
1.6490909,119.50729
1.6120503,122.7474
1.6270545,123.15125
1.5729941,121.17453
1.5462642,119.2159
1.4621987,118.77553
1.4787581,119.80312
1.4199064,117.67362
1.3652965,112.35439
1.319218,113.77198
1.373077,117.02194
1.3818839,111.38935
1.302355,110.985825
1.3183455,111.86824
1.2976618,108.35018
1.2476399,104.628044
1.2550193,106.58775
1.2198623,105.39496
1.2246093,102.09339
1.1903105,98.144646
1.1808043,103.81775
1.2002292,96.043
1.1590523,101.6579
1.1343799,93.977135
1.117951,96.53224
0.9565861,93.996704
0.93327296,92.04099
0.89903456,90.53303
0.85137266,93.133095
0.79956174,89.49415
0.8085914,88.91558
0.7665911,87.97296
0.8466031,85.580536
0.6993405,79.66577
0.7193119,81.523186
0.7910222,84.899445
0.79628134,81.39162
0.70024884,79.25916
0.773105,83.22146
0.7226607,74.29028
0.7901603,76.44368
0.76501447,76.64068
0.6243467,80.869354
0.605352,76.78761
0.60273606,72.70968
0.521153,77.9689
0.50583047,74.942665
0.4881163,75.88671
0.45755282,78.833824
0.38695806,73.7982
0.43584052,81.46928
0.4246251,79.33478
0.4891204,78.00761
0.46273383,81.72529
0.6029508,82.58489
0.70994616,88.10551
0.7790278,89.331276
0.8225733,90.123215
1.0152707,93.37671
1.1386635,97.07176
1.1449469,100.88171
1.3133323,100.01377
1.4206183,102.0064
1.5773263,106.44023
1.6566291,105.52514
1.7162737,111.86999
1.7876412,109.73086
1.7484438,111.49201
1.8669776,115.97547
1.8858886,114.042854
1.9030756,115.08633
1.8532467,118.96714
1.9064142,115.719536
1.8805376,122.999855
1.9717226,119.1586
1.8619304,117.05514
1.8888187,122.2861
1.8984529,121.306946
1.7997798,121.033134
1.7573202,119.2907
1.7801747,121.336624
1.7928979,116.0531
1.6856568,118.101036
1.6875322,120.42058
1.616559,116.683334
1.6582979,114.90017
1.5790355,111.185646
1.509607,111.74368
1.5654253,112.91308
1.5197315,111.35808
1.4922872,104.217476
1.5056096,107.01324
1.4551021,104.80444
1.4196986,105.769455
1.4439615,106.74732
1.4126773,104.941635
1.4189875,101.699524
1.4221611,96.59431
1.2695066,98.338524
1.3618987,97.64416
1.1967441,93.121376
1.2543769,96.02898
1.1854758,93.80258
1.1827422,91.638664
1.1180238,89.82091
1.074096,86.19201
1.0080401,87.87391
1.0114528,87.994865
0.8931145,85.409904
0.91884583,84.96451
0.927874,80.76381
0.9359081,82.68268
0.9038652,81.74435
0.8911307,78.95354
0.96215034,77.31291
0.88200974,74.78378
0.9146966,80.66401
0.87806785,74.741936
0.8529981,75.12453
0.8334951,75.677765
0.7971684,79.265945
0.70317554,71.55608
0.6587388,78.00974
0.5670515,78.35932
0.6186775,75.58021
0.5450171,77.514206
0.5170083,77.2174
0.57764035,77.94748
0.5904422,80.12298
0.5834443,86.525314
0.6349001,88.56367
0.75852466,87.25914
0.8486322,88.16537
0.9288211,88.66676
1.1155229,95.378624
1.2267909,94.334724
1.2493476,103.03258
1.3804133,100.71173
1.3905725,107.397125
1.5498971,106.69543
1.634498,106.41807
1.6951374,108.68828
1.8294665,109.30385
1.8440351,113.776184
1.9292715,111.16779
1.8665849,118.400154
1.8567064,115.91617
1.9225361,117.11016
1.9815172,122.93219
1.9542273,119.21142
1.9920359,117.35137
1.9819362,119.73297
1.9221457,118.122986
1.9103773,120.77442
1.8878893,126.37495
1.9022579,118.876656
1.7850993,123.86984
1.8112758,123.578224
1.7339698,120.64388
1.6728809,120.28864
1.6943713,122.10613
1.5667467,115.9474
1.6645285,116.20758
1.5587627,116.05701
1.5204592,112.950905
1.4829326,113.56227
1.4685678,110.749725
1.5135291,103.839134
1.4697622,105.407135
1.4324213,99.42877
1.4433426,103.58346
1.4110101,99.6704
1.4508619,105.19021
1.390645,103.33637
1.3165414,101.97784
1.260199,102.74074
1.2442162,97.95528
1.2201748,101.76334
1.1298451,97.46635
1.1125994,93.68818
0.99131376,94.42583
0.97856426,91.74128
0.9299657,86.11019
0.91418874,91.56861
0.892217,88.29733
0.8354882,82.76161
0.8827849,84.75535
0.8647347,86.5004
0.9650501,79.32972
0.8367543,82.79959
0.83133465,79.04009
0.8446287,79.64202
0.74305505,76.60392
0.7186587,76.62651
0.76443887,80.857414
0.7717331,72.94286
0.7039953,76.222275
0.6088234,76.69691
0.5883634,80.45451
0.5424462,76.52558
0.4664051,78.87129
0.42498332,76.56305
0.4033829,75.81019
0.36953315,79.445786
0.27558482,77.436356
0.50145155,82.85624
0.53639895,84.30924
0.50537956,85.30855
0.65484035,83.49609
0.6752451,88.19474
0.7871997,86.3879
0.91067547,88.123116
1.0524977,93.668175
1.1334002,101.96637
1.2868251,100.15119
1.3715721,105.69664
1.4248315,105.65581
1.4843088,109.45329
1.5677195,111.83267
1.6013374,112.09303
1.6631426,111.83023
1.6578703,109.58211
1.7082163,112.042625
1.7212204,117.34437
1.7803897,118.49124
1.7936662,118.88062
1.7609152,120.03345
1.7437989,120.110794
1.7676786,120.80349
1.7534629,122.80385
1.6745499,123.515114
1.7774316,123.1828
1.6328381,123.2323
1.5839827,120.51699
1.4956948,115.17172
1.5021403,117.02703
1.3976852,122.72251
1.4499152,116.53253
1.3299209,115.4563
1.264613,112.4761
1.3771256,109.43528
1.2204156,110.43188
1.2438817,114.46821
1.2134906,107.67515
1.215062,104.04233
1.2136095,102.16878
1.3028343,104.58924
1.1867297,105.33746
1.1184356,104.29434
1.1405932,105.73285
1.1126028,97.14118
1.0827985,102.20813
0.9595694,99.01767
1.0358464,98.97645
0.8992247,95.78346
0.8713895,97.22854
0.82428545,97.93302
0.76338375,91.904976
0.71752405,93.49407
0.6624469,87.73492
0.70027727,83.71168
0.58818793,93.32791
0.6139123,86.53879
0.5418241,83.630646
0.63338304,84.2376
0.5598865,84.540924
0.61233556,82.590096
0.5263493,80.810684
0.6275798,78.15514
0.52472574,76.5113
0.42230073,75.35853
0.39187726,70.40726
0.45123902,74.16868
0.38060886,80.5442
0.3572338,78.71823
0.24495555,74.201675
0.2809034,75.52609
0.1736691,78.64264
0.17936671,72.51682
0.13047443,76.93815
0.20328292,79.942764
0.20182596,84.51844
0.15933938,79.10252
0.22813568,84.847
0.3640389,85.72032
0.39279526,93.8435
0.5105825,93.173935
0.58208424,91.936745
0.71750003,93.48512
0.86943436,97.59024
0.93515986,101.27302
1.0775067,107.57615
1.138531,101.8705
1.1081287,106.504074
1.2770764,107.84405
1.2468574,116.68681
1.3984108,113.33284
1.3877434,112.45216
1.4112743,115.03525
1.4868177,118.316826
1.5321594,117.297615
1.5462047,122.68264
1.4861963,118.11938
1.4195143,119.48425
1.5572287,119.35918
1.4743998,123.393166
1.4812565,124.18186
1.3897913,119.58058
1.32669,121.10107
1.3812987,125.33492
1.3552581,119.99222
1.3317314,119.738335
1.1887575,118.48223
1.116389,116.08793
1.1016723,116.84811
1.1803952,114.36513
1.0812298,117.161354
1.0507601,111.37212
1.0200735,113.48842
1.0480096,113.285225
0.97541696,107.057045
0.99772835,107.81667
0.99685687,106.75398
0.9203543,103.03464
0.92897743,104.66851
0.84741354,106.534996
0.8467078,103.03344
0.83913755,96.47979
0.87880063,98.49674
0.74347526,101.0242
0.717049,97.06048
0.64042616,92.12287
0.5792041,92.01706
0.5431911,93.60632
0.5000297,90.56473
0.5513213,86.86026
0.45262784,88.21568
0.3886188,85.89216
0.44386765,85.17578
0.317358,85.61487
0.3638867,83.79819
0.281672,80.60986
0.3216861,79.44168
0.42335105,81.48095
0.35251167,79.845566
0.2928176,82.05702
0.313697,78.3504
0.31258258,76.31117
0.17371939,75.0021
0.24958444,77.724655
0.21169218,76.55503
0.115995005,75.3099
-0.045472372,74.48357
0.059770923,79.18822
-0.035658345,79.95699
-0.047157872,75.66839
-0.041489895,81.05572
-0.04475619,80.640724
-0.0808292,81.87505
0.038161006,83.8815
0.08153668,83.141624
0.184385,86.87985
0.3350653,89.92419
0.43740872,90.99523
0.4596672,94.845276
0.5960657,94.891205
0.7176101,98.29979
0.829541,95.84081
0.9160149,101.907776
0.98925054,105.24946
1.0842606,105.09303
1.1911662,112.767395
1.257551,109.41635
1.3037271,113.24873
1.2478542,113.58037
1.4628361,114.92755
1.3764507,119.2558
1.3296026,117.63314
1.3877438,115.75964
1.3551978,118.807816
1.3560094,122.33093
1.3790587,127.389015
1.4009898,122.34249
1.3223888,124.60296
1.3233007,122.2626
1.1861153,123.45879
1.2916709,117.75745
1.2225906,119.49743
1.1862955,113.78928
1.1056808,121.64337
1.1370618,113.628265
0.99118286,112.5453
1.0466454,110.85185
1.0108645,116.1368
1.011328,115.730385
0.9584056,111.223495
0.9911914,113.03487
0.9358526,109.11407
0.8985443,104.83299
0.9643638,107.28869
0.8795133,100.564865
0.8788121,103.9476
0.8294677,100.39263
0.8927791,98.21015
0.82669663,102.89879
0.7085769,99.32414
0.6181347,94.87261
0.6552515,91.35584
0.5691021,96.28692
0.5731015,94.6274
0.5492154,94.13851
0.5382293,87.45338
0.44141597,92.49305
0.46182698,86.11549
0.35727566,87.315
0.4096455,84.28962
0.38117138,86.12906
0.4104483,83.10663
0.3369399,80.936264
0.37642586,76.61104
0.39939532,79.43109
0.34435126,80.08582
0.363694,72.81498
0.31111357,78.80545
0.25719875,74.20917
0.2949926,78.74536
0.20046704,76.20524
0.116267726,78.88589
0.1199617,75.87506
0.05957834,72.08879
0.072053425,77.0106
0.018185107,74.55897
0.019023202,76.79824
0.11263061,80.06656
0.08197803,80.543915
0.098664336,83.78472
0.1430295,81.99119
0.19512786,87.46008
0.25985324,83.81773
0.40680632,81.396904
0.50529665,92.623985
0.67468417,94.03896
0.7380163,98.46795
0.88399446,98.17112
0.94441617,99.95825
1.0503824,100.303444
1.1788065,108.24609
1.1983829,108.96479
1.2687857,109.147125
1.4364985,114.4018
1.4563857,109.9896
1.4741884,113.41213
1.5264779,118.49153
1.475186,119.13469
1.4315907,120.51617
1.4946117,123.4904
1.600823,121.70273
1.5026995,121.85856
1.5571061,123.741325
1.395538,121.92429
1.4656186,119.746605
1.412906,125.91356
1.4280716,119.63034
1.3394487,121.88419
1.3536301,118.65736
1.3281944,119.197174
1.2717987,112.48797
1.271662,117.65341
1.2488334,116.57999
1.1963501,111.303314
1.1757724,112.84887
1.0649253,107.28116
1.1339643,109.89156
1.1156285,110.51083
1.0131549,110.87597
1.1462984,108.75752
1.1049347,105.68914
1.0879331,104.294556
1.0835712,99.26563
0.9895966,102.311775
1.0104687,101.475204
0.96213,99.91636
0.88436526,97.770065
0.85072225,92.46239
0.83294404,98.06715
0.81661785,96.973694
0.6724586,94.60153
0.7268439,88.68549
0.7180016,90.11025
0.6235918,87.709045
0.6255985,85.50779
0.66956496,86.77093
0.68933994,87.783936
0.6099349,83.19617
0.57183295,84.68473
0.671763,84.04813
0.6455583,79.09515
0.5718421,80.078865
0.6003886,78.98775
0.5358454,77.306274
0.5287791,74.87895
0.5830615,79.162926
0.43830994,74.06704
0.41508788,75.970764
0.46497068,76.16031
0.33077803,79.22485
0.3768623,77.40477
0.26907957,75.50285
0.3443052,78.29955
0.3197462,79.21946
0.30458364,80.533195
0.2973292,82.89345
0.36942387,87.8244
0.5059126,82.55804
0.5150117,86.60277
0.651869,88.24757
0.6804183,90.42304
0.8521271,98.4411
0.9461052,98.815956
1.1297451,98.8144
1.180115,103.89502
1.2316537,101.032776
1.4000506,104.77577
1.402595,104.188614
1.5613395,101.129036
1.6102782,108.34081
1.7068384,114.39088
1.7180481,115.02202
1.6820122,118.39119
1.7617157,121.71736
1.7333566,119.883766
1.6911169,121.58889
1.7682266,118.57017
1.7899175,119.80988
1.7767527,122.85787
1.7092115,120.98135
1.7544274,118.46144
1.7183574,119.53639
1.6614429,121.749245
1.7070682,117.853775
1.7045757,125.74421
1.6353414,121.773346
1.5106244,119.36584
1.5771911,123.18912
1.549609,115.36023
1.547307,114.70842
1.4752655,111.63134
1.4320747,111.93277
1.4140619,110.86139
1.3734573,111.91917
1.3900775,103.3597
1.4751983,105.481964
1.3370968,107.80669
1.2611483,101.94273
1.3950869,100.95648
1.3942828,101.49458
1.3723423,103.87368
1.2136582,98.27481
1.2457384,97.03413
1.1584816,100.5022
1.1277194,95.407875
1.0608621,97.15559
1.1184914,91.219986
1.0566695,94.027245
0.9798981,89.335304
0.9278532,92.441154
0.9249082,89.91319
0.91580623,89.452866
0.9065,86.895966
0.8488408,84.36926
0.85564333,78.77212
0.8229258,84.35727
0.8389235,81.7903
0.80880594,83.20737
0.821583,80.361404
0.84495866,77.66121
0.8498942,73.99761
0.78923565,80.42715
0.7172335,75.90097
0.8098786,75.54455
0.7507157,79.26931
0.5794842,78.03139
0.54933095,80.76883
0.5416726,75.35862
0.4658685,77.624405
0.52640134,82.46012
0.5668712,82.23637
0.56572765,80.12018
0.6349309,84.78416
0.616192,79.15617
0.7578101,81.58848
0.8610802,85.40803
0.91044307,87.453835
1.0179489,92.65838
1.221564,92.83435
1.2253565,97.10818
1.3224657,98.23998
1.4229108,103.79408
1.6389663,101.55486
1.628639,107.1665
1.6890789,109.09214
1.7455318,110.80094
1.8629829,112.82082
1.8633008,113.51197
1.8896099,116.64059
1.936735,119.00449
1.9371364,116.16596
1.974731,117.1188
1.9888759,120.78679
1.9892093,120.05899
1.9843073,120.46462
2.0343592,120.33328
1.9037832,121.34058
1.9259242,119.54632
1.9083263,120.27837
1.8573552,123.735085
1.8239427,117.559586
1.7566454,116.605606
1.7711722,114.30001
1.6563448,115.250786
1.6848391,117.75522
1.619648,116.701675
1.6323768,116.93965
1.6032141,112.015785
1.4929961,109.50044
1.4668193,108.44111
1.5568323,109.35305
1.5628486,108.18966
1.5609854,107.46091
1.4694766,107.84313
1.4260844,105.21167
1.4688033,106.77509
1.4869199,100.91515
1.4502848,98.15468
1.4295906,96.679565
1.3861085,97.80844
1.2328892,93.08579
1.202302,98.65697
1.1711754,91.61373
1.0156835,95.391716
1.0216765,87.26431
0.9946125,90.211555
1.0693153,86.16424
0.9281011,85.22143
0.9543186,89.34448
0.9179465,83.75697
0.8939952,84.2796
0.8455828,85.25177
0.9049473,81.42738
0.9274012,85.88579
0.8837874,78.41108
0.9262626,79.21056
0.85065633,76.89368
0.8826235,79.75588
0.78657365,73.32162
0.6954316,77.55905
0.6867755,75.87882
0.69995946,77.01688
0.69079083,77.96199
0.62767935,75.70306
0.47032776,77.54202
0.48314047,79.89308
0.45083985,79.735214
0.5531659,81.06198
0.53287214,80.120865
0.57333547,81.51347
0.6434784,89.65593
0.74880564,86.09336
0.81179494,92.04682
0.93122554,91.38731
1.034503,92.70563
1.0754999,97.046364
1.1903173,97.73242
1.3501085,101.14288
1.4964135,101.939964
1.5172635,103.86362
1.5820354,106.74333
1.6690905,110.16266
1.7210627,111.10568
1.7994062,116.010414
1.8578466,112.5544
1.9027166,110.9815
1.8942084,115.958145
1.8616066,113.84085
1.9157647,119.1991
1.9032745,119.451935
1.8671671,122.01251
1.938881,122.67652
1.7782521,120.77787
1.9208485,123.829666
1.7593535,121.03757
1.7603596,118.68426
1.7804797,120.2666
1.7618246,119.84473
1.6558266,115.250534
1.6252478,118.84211
1.6172252,117.93617
1.4962248,117.595634
1.4729793,111.12142
1.4919902,114.78081
1.4336396,113.64264
1.4539268,107.90409
1.4783636,112.59639
1.3044133,110.23414
1.3461535,109.59723
1.3353589,106.38211
1.3595281,103.81985
1.2591779,108.346176
1.3465879,100.90894
1.2582406,97.85523
1.1771524,96.013596
1.231516,99.42491
1.0884237,99.0143
1.0997002,98.16124
1.0885853,89.854675
1.0309341,94.41593
0.9368452,96.69892
0.84644467,89.39833
0.8018458,89.565956
0.7533297,83.14185
0.7530103,80.52861
0.7225508,81.38335
0.7233405,84.91426
0.7002537,84.27839
0.7468141,83.38789
0.72806627,79.13918
0.6498487,76.26422
0.7456951,82.26205
0.5748592,74.73832
0.6417308,75.3598
0.63403374,73.30013
0.60135645,73.45155
0.4855529,76.240036
0.4917169,70.66008
0.3478485,75.89228
0.31910926,78.65073
0.32416618,75.629974
0.34469062,77.9837
0.21419895,79.524086
0.30474728,75.615944
0.34669694,76.448265
0.31917706,81.740036
0.36016852,82.63255
0.47684672,89.326096
0.56618994,88.96567
0.64441836,90.933784
0.77855617,89.57215
0.83555526,95.23995
0.94853103,94.504944
1.0468166,96.92764
1.1494257,101.6305
1.3097973,105.151436
1.3053094,105.73547
1.4001211,106.34713
1.4419515,112.390335
1.4608129,109.25866
1.6215588,116.79716
1.6393807,116.39548
1.5462415,115.3113
1.6452671,121.967995
1.5715067,120.31217
1.5424107,120.090576
1.5254694,119.694595
1.6252564,118.80685
1.6471636,123.86877
1.5669332,121.933044
1.6564096,122.43303
1.5574172,125.73091
1.4324018,123.987686
1.47743,118.03144
1.3956612,119.59224
1.3666376,121.39557
1.3018998,119.40908
1.2159172,116.8482
1.2954146,115.03509
1.2300999,114.8792
1.2136912,111.77283
1.1300237,112.2843
1.1152128,107.34972
1.0381166,111.21888
1.10023,108.61373
1.0857185,103.24353
1.1109583,105.0563
1.1124109,104.58916
1.0207511,100.90007
0.9864134,105.946045
0.9047958,97.92168
0.93555427,98.799965
0.76682174,96.05319
0.78159374,97.62585
0.80311155,92.364
0.78760797,91.80082
0.7012526,87.99748
0.60091144,85.94503
0.5351785,89.93717
0.5892505,91.47292
0.46263847,87.749626
0.4734401,83.08226
0.37935093,84.1295
0.43515345,84.751785
0.474357,79.05423
0.5052586,82.39555
0.43378145,77.04015
0.44219717,80.32761
0.4638102,76.528015
0.4380819,77.6356
0.32432303,76.77487
0.29270917,75.887215
0.29854187,72.495285
0.30264485,75.659325
0.14902516,79.056046
0.18058008,73.7956
0.078258485,79.80654
0.0835279,77.44137
0.064825356,77.627
0.034840927,82.54393
0.07400507,78.328575
0.041139353,79.9929
0.07357937,86.99906
0.13510403,87.873535
0.1645221,86.46197
0.39187667,88.03665
0.36079726,94.63826
0.585645,93.612305
0.61231333,100.82271
0.7741736,97.197876
0.8494391,101.978485
0.9764127,105.098976
1.026439,102.45538
1.178784,104.3983
1.1424887,108.11394
1.2134632,111.669754
1.3016937,112.64358
1.3053652,115.582054
1.3444388,112.47583
1.4910693,113.93597
1.3867276,115.85958
1.4259127,121.52113
1.4753523,118.62974
1.5006936,118.66971
1.4284165,121.93881
1.3345476,121.30163
1.3287988,121.70337
1.3095498,121.83627
1.239792,122.89949
1.2845014,120.442406
1.2214466,119.086914
1.1553028,117.14222
1.0978179,114.397095
1.2100033,118.566795
1.145052,118.37953
1.0099611,114.93646
0.9624439,115.856705
0.94335055,112.27091
1.01396,110.72432
0.9383821,110.555
0.9286344,105.95463
0.93162006,105.80357
0.8820148,107.36831
0.95765156,105.31948
0.85528886,100.68076
0.88214475,103.061874
0.91935194,103.56973
0.800473,96.232864
0.76182204,101.67849
0.6867381,97.5531
0.609795,96.59557
0.5856829,95.80872
0.5672679,99.16786
0.45870373,94.131744
0.5254429,88.249405
0.3551588,89.287926
0.38040176,90.106445
0.30428874,87.16309
0.373126,87.938995
0.4134496,86.27001
0.32352507,85.61002
0.3280712,82.39592
0.34241298,78.850266
0.34315357,81.41663
0.28352946,78.36623
0.3032765,76.86383
0.31314293,80.242256
0.17228039,81.42628
0.2342657,77.30446
0.15129188,77.60173
0.11147476,77.365524
0.15970403,75.18045
0.054372624,71.48256
0.037487924,81.04245
-0.02374476,73.91314
-0.04877136,80.11728
-0.083169565,74.22989
0.043774225,80.90485
-0.0030176805,80.980415
-0.02183477,84.62268
0.12474421,82.623344
0.1788957,85.81445
0.3676177,90.574356
0.35862413,92.81257
0.5881346,91.083145
0.62801975,94.99842
0.84811735,96.25984
0.85793,96.06182
1.0545884,102.01758
1.1131757,105.278366
1.0872871,105.619736
1.3059773,109.26989
1.2020757,111.73312
1.303916,112.96256
1.402808,120.53371
1.2596797,112.97183
1.3530141,121.3887
1.4149805,119.42272
1.3650258,120.77289
1.4463702,120.90863
1.3580647,121.05656
1.3417292,121.928246
1.4077295,118.981445
1.3556943,120.91082
1.309592,122.369026
1.3557543,125.68892
1.2332622,120.579605
1.1804907,119.265884
1.2394557,119.315216
1.2006108,113.396416
1.1599069,112.49761
1.0469238,118.056366
1.0891539,115.22916
1.0316197,111.97321
1.0419024,106.98655
1.0382154,109.92424
1.008142,103.878716
0.9527894,102.91975
1.0282425,109.58203
0.9687236,102.341576
0.96737826,109.335434
0.92959267,104.56223
0.9205605,100.09937
0.8919758,102.14473
0.8528183,100.61698
0.89637214,92.96811
0.70552975,98.10915
0.70118684,94.23917
0.72613686,94.63417
0.67750627,95.56453
0.6070065,93.676186
0.46906483,88.1387
0.59612626,85.78135
0.48071253,90.69682
0.5131638,84.27483
0.41211376,85.03681
0.43952283,84.529175
0.5107472,84.4554
0.3923747,79.17124
0.40754613,80.297585
0.41130522,78.29327
0.4226269,77.62616
0.46981505,77.28284
0.4313751,76.45766
0.3443045,83.850555
0.3675647,72.00662
0.35618147,73.45534
0.24988204,75.68584
0.2242677,74.38214
0.1310406,74.82695
0.09382657,73.266914
0.16114786,80.03765
0.05005316,79.84015
0.14220065,80.2142
0.23566909,85.818665
0.25027537,81.10914
0.3835059,86.95288
0.3411932,87.47375
0.41908544,91.80593
0.5061389,94.08951
0.70191216,91.87358
0.7099458,94.43291
0.8596414,96.54657
1.0163293,100.64338
1.1453978,102.96966
1.2525327,105.20434
1.2683936,107.469955
1.3983022,107.72797
1.3787816,108.84697
1.4842693,107.38268
1.5144218,116.28994
1.5217326,114.74961
1.6534182,116.561455
1.5827923,114.85405
1.6170298,118.57444
1.585028,119.808426
1.7411103,122.43945
1.6718756,119.79156
1.6893265,118.178764
1.6275754,118.16135
1.5863825,120.90185
1.5818579,120.646835
1.4803486,121.31427
1.5300875,121.282364
1.4220506,118.68642
1.4698429,116.16745
1.4840106,115.51831
1.3357162,119.55737
1.388516,111.20654
1.2511997,114.73962
1.2200617,110.10217
1.2832115,109.78819
1.2994009,111.92108
1.2157992,104.65094
1.2108743,106.931305
1.2437361,104.622055
1.2463336,99.98433
1.214945,105.06654
1.2010067,101.782715
1.0994596,98.320274
1.1528188,100.86152
1.1222165,98.12503
1.0755498,95.96411
1.0993661,96.94038
0.8968638,95.062935
0.95284206,96.46289
0.9455548,93.73137
0.7702262,88.92109
0.7091623,86.83694
0.84787345,86.44022
0.6945266,85.29937
0.6904832,87.108826
0.7447196,84.22222
0.6860113,81.46517
0.76628816,82.616196
0.74534667,80.41803
0.73600686,82.260315
0.72837937,76.374504
0.7289145,76.31549
0.62618905,78.386955
0.7102416,77.018486
0.72054666,81.69642
0.65714574,80.69106
0.5873756,78.37002
0.51955765,76.71295
0.47623125,72.317604
0.34675705,77.31476
0.49214828,72.87314
0.4732362,80.45172
0.40236452,80.427635
0.43830886,79.99148
0.4573305,78.290726
0.5109416,79.61213
0.61626583,83.373276
0.7270993,88.92692
0.7459199,83.06343
0.8727506,93.12607
1.0125558,93.69214
1.0568628,96.86654
1.2075577,95.59024
1.3463854,103.666916
1.3835391,102.601395
1.4981788,98.66399
1.6414064,105.55197
1.6833836,110.79219
1.7601902,106.6544
1.7518603,111.30817
1.8992997,111.76241
1.8850803,112.71496
1.9272256,114.95983
1.9139378,118.64603
1.8864429,122.23102
1.9178824,119.58666
1.9680909,122.45952
1.8295736,121.44989
1.8159326,119.97265
1.8967764,119.645874
1.866997,123.87653
1.7906171,118.92215
1.7267143,115.171745
1.7791212,123.04247
1.6582508,118.08497
1.7089074,117.66203
1.6102513,116.63221
1.6645387,116.75572
1.5071149,117.485565
1.5523304,115.23936
1.4986157,110.12844
1.5127939,110.594734
1.553452,108.699615
1.5127808,106.03596
1.5124242,108.84726
1.4815415,102.79705
1.4521966,102.71491
1.4462801,97.16199
1.433248,99.21489
1.362429,102.874214
1.3238364,99.71731
1.3403158,98.58388
1.2941546,93.95255
1.2532432,99.03971
1.2058678,90.560844
1.0778582,94.044426
1.1027917,92.78661
1.014576,87.394806
0.9428572,86.93369
0.96995324,91.45207
0.9355003,86.23361
0.9805095,84.51221
0.8598059,84.57993
0.86328745,84.07269
0.8853115,82.273834
0.9847602,82.48066
0.8568363,79.29077
0.8454268,78.55468
0.8276716,75.10595
0.8606927,78.292145
0.8244198,78.608246
0.8426162,79.45892
0.74516016,75.207886
0.73490465,81.64641
0.69035465,80.01742
0.6303367,75.60333
0.58545905,80.73035
0.60357815,79.12232
0.55081874,79.387856
0.5566258,78.506195
0.5421617,75.90997
0.62066907,87.236885
0.69454676,88.18802
0.7312278,84.098595
0.8695889,89.555
0.9327125,95.15598
0.98636633,90.30737
1.1681854,89.30147
1.2578765,99.24631
1.3668377,101.01408
1.4727255,102.94956
1.547647,105.2628
1.6521071,107.34562
1.73878,108.528725
1.801562,109.017914
1.8565297,114.7135
1.9192209,115.547165
1.9197077,117.23476
1.9929199,114.75155
1.8999928,116.35071
1.9550153,118.62715
1.9709964,122.10533
1.8889227,118.40319
1.983455,117.28311
1.9640464,119.6529
1.8765475,123.77992
1.9143872,121.81369
1.854169,122.16767
1.8529732,122.29001
1.7951454,121.00471
1.7621921,123.19806
1.7737406,115.35191
1.6829311,118.09585
1.6658809,116.38891
1.6610919,114.315704
1.5574859,110.97604
1.526097,117.4537
1.5353256,107.18534
1.4682014,107.1476
1.4750143,108.85167
1.5174366,106.76472
1.4349338,107.33295
1.4336079,102.931755
1.4833583,105.70999
1.376606,101.37315
1.4434997,104.56185
1.3558013,105.041405
1.396541,100.244865
1.2229377,97.65417
1.187897,95.07035
1.1551087,93.31241
1.099822,92.06259
1.0078262,90.85877
1.007578,96.64861
1.0263267,87.33142
0.97631264,89.056206
0.8935258,84.63495
0.8706253,83.52092
0.9342544,81.94555
0.8613679,86.70391
0.77644265,83.10885
0.8931148,81.95784
0.8709523,83.27813
0.8686047,80.04816
0.8377588,73.01286
0.7746141,73.621895
0.7712245,77.80107
0.6942326,80.85367
0.659981,76.34829
0.6374892,75.32068
0.5278753,75.60226
0.56889695,78.39785
0.4847845,75.25684
0.35892016,80.62561
0.44539902,79.84444
0.42222068,78.18939
0.47999546,82.78197
0.5222306,81.048584
0.58744943,81.82778
0.5451288,83.382545
0.6269889,84.74083
0.761852,86.93329
0.88791674,91.01699
0.9699819,91.688354
1.0468742,97.469666
1.1935066,94.72992
1.2247058,104.80238
1.3240607,101.882065
1.4343626,106.41816
1.564629,104.25289
1.5846558,109.84004
1.6981888,111.16845
1.6376698,110.99534
1.7023058,111.3392
1.7933147,116.53278
1.7495736,119.97539
1.7939144,120.20141
1.7704347,118.59405
1.7510265,125.1389
1.8058419,118.37909
1.7247125,122.22894
1.7654731,122.515884
1.7322035,121.26287
1.6130782,118.54655
1.7097919,119.37541
1.5663185,119.62165
1.5826911,118.75814
1.4978633,115.03307
1.5265777,120.963554
1.3950489,116.739365
1.4038928,116.83174
1.4406989,117.574875
1.3509189,114.49012
1.2612232,113.2688
1.2210875,113.7764
1.3309909,107.61328
1.2276739,110.973625
1.3055261,106.591194
1.1844689,104.20152
1.1746117,110.02022
1.1619905,102.2359
1.1425006,100.54577
1.1356223,101.379
1.0967741,99.07844
1.101893,99.36819
0.9924997,97.582695
0.96603847,93.42861
0.9240856,94.45228
0.8637686,94.314735
0.6913311,90.39259
0.6947842,89.81049
0.66433656,83.17566
0.6980825,86.928696
0.57543707,88.245476
0.59529406,85.24737
0.5983573,82.39592
0.5359082,84.59891
0.6100246,81.61758
0.5832049,81.30641
0.5444732,80.16362
0.5585982,81.045074
0.56813806,80.53456
0.57402694,75.409966
0.41065958,78.93141
0.39146668,76.67919
0.4171251,77.277435
0.3213977,78.76489
0.34286332,76.44134
0.22035007,72.872734
0.13133451,78.32035
0.22618394,74.09569
0.15247732,80.70099
0.12590826,79.46551
0.16524947,79.89606
0.25454107,84.66054
0.23565464,82.858505
0.30780983,83.77486
0.44872698,84.65876
0.5468028,92.626915
0.5773258,95.747696
0.7358773,97.30137
0.91139203,96.192665
0.97790307,96.467255
1.0249887,98.38933
1.1636235,104.66624
1.1737839,103.616104
1.3671973,105.959305
1.3528008,110.222916
1.3748375,111.44996
1.396691,113.47666
1.4090976,116.28446
1.4891211,115.747604
1.4527996,115.128525
1.4878767,117.76517
1.450472,118.98049
1.4792527,121.82522
1.5337071,120.52489
1.4251509,120.802216
1.5599567,115.019875
1.3594013,119.92261
1.3880233,123.58831
1.3225665,117.46878
1.2861675,120.34501
1.2204422,117.99418
1.2597848,120.345406
1.2637334,111.01524
1.1313584,114.53494
1.1267252,116.429886
1.1500136,112.81611
1.1538802,108.99717
1.0287701,116.14133
1.0046027,106.93499
1.0356883,101.13401
1.0043641,108.68545
0.9432517,106.60194
0.92329323,105.691025
0.9055581,104.94934
0.9842703,109.119804
0.86500967,102.99258
0.83245426,101.559685
0.8686508,95.10003
0.7672387,98.19316
0.71263707,99.00326
0.6394966,94.25643
0.60342216,90.9223
0.5890477,94.79679
0.5182863,92.4437
0.4169982,88.64145
0.2948837,89.56981
0.3928808,90.72911
0.36407912,87.65229
0.3811026,87.56685
0.37648216,79.73247
0.38044453,80.83498
0.36539817,79.279976
0.34601408,81.997475
0.3572891,77.77626
0.35463724,77.463425
0.3587558,72.69136
0.24813731,78.67654
0.24038403,76.42177
0.14344738,73.355896
0.16453609,76.91183
0.09749529,76.55036
0.018862933,76.11865
0.031936117,74.56535
0.04330646,77.079445
-0.044266723,76.28614
-0.06536829,79.17849
0.0025947953,80.162
0.001475362,79.96594
-0.008371489,83.45775
0.18267788,82.42833
0.28729022,89.68937
0.321743,89.63057
0.4707568,93.874695
0.5501861,93.910835
0.5754614,99.9614
0.75525594,98.514404
0.77512836,102.60949
0.90173787,104.074905
0.9969861,107.86739
1.0703496,108.32913
1.2240672,111.45751
1.1685535,111.316086
1.2995102,115.24561
1.2958289,115.089424
1.2665606,115.11399
1.3679368,117.51818
1.290096,118.374954
1.3915256,122.48101
1.3716455,123.33123
1.3993833,122.80419
1.3142238,121.80942
1.3418665,127.4804
1.2886715,124.46811
1.2897552,123.254
1.2544887,120.577705
1.2332051,115.24612
1.2884086,119.49385
1.1954259,122.628395
1.0824118,118.36169
1.0533724,115.24087
1.1011951,115.88601
1.0185786,115.83607
1.0133224,112.44818
0.95299196,109.731255
0.94146436,109.93342
0.9256107,108.71148
0.91827357,109.25859
0.9617523,102.62638
0.99130577,103.696434
0.8898366,101.876045
0.87763995,104.140884
0.85717607,98.735565
0.8268682,96.08546
0.8296961,101.15454
0.70914996,95.4007
0.673861,94.30472
0.6689223,95.01711
0.6071959,94.60858
0.47270814,90.24288
0.532534,93.734055
0.4888847,88.16064
0.41678858,96.07759
0.3966387,92.511536
0.4279586,80.49951
0.35652375,80.05574
0.3746871,87.77057
0.2841903,84.25284
0.38414985,77.713684
0.34828484,79.4322
0.33489746,80.749825
0.34054574,79.73548
0.3836244,80.50261
0.36759904,71.45438
0.29422876,81.397896
0.26382384,77.939285
0.24010147,72.62012
0.179015,74.4748
0.07314428,73.71875
0.0544812,72.79554
0.01873961,78.129456
0.05051365,74.132515
0.021920789,74.12544
-0.024052253,82.163605
0.07948428,76.16628
0.11237074,85.34329
0.17689879,83.01155
0.215687,84.986824
0.33519766,88.08136
0.43230578,85.382164
0.4524802,91.946144
0.6834162,95.35914
0.77557105,98.24444
0.8520215,101.317635
1.0165374,97.06647
1.0807422,102.283485
1.1475842,104.73971
1.2724046,108.56728
1.2470149,110.32179
1.3902308,108.738396
1.34312,109.28073
1.4100404,115.25964
1.5226192,116.37654
1.4503355,118.62676
1.4678955,121.33077
1.4573112,117.45433
1.4417682,118.92042
1.5407648,123.99416
1.4171028,124.526794
1.4570894,126.11174
1.4508766,122.3168
1.4083308,125.05195
1.3897204,122.46047
1.3646086,119.71905
1.2855058,122.730675
1.217758,116.99944
1.2384135,118.48762
1.3238864,113.66655
1.1970812,114.43898
1.1696262,113.133644
1.182525,109.462975
1.1514553,112.57248
1.1020759,112.46937
1.1502148,109.12171
1.0391321,106.417984
1.0410402,104.82745
1.059535,107.88791
1.0243479,101.80779
1.053362,104.42909
1.0535835,99.68429
0.9519727,104.9013
0.9736695,102.266945
0.84127694,100.50753
0.8467121,99.04326
0.8499783,95.13799
0.77563775,97.702934
0.74322385,97.16399
0.71421474,93.26693
0.6190668,88.30122
0.63927186,90.47587
0.6502447,86.10384
0.55315375,89.085976
0.49311182,81.97845
0.5779571,82.221985
0.580129,81.94247
0.49789363,85.332184
0.6747203,80.326935
0.5332502,82.89666
0.5682816,80.33566
0.5882551,78.51415
0.5639768,77.60538
0.50313014,78.21242
0.44508442,78.04427
0.41927114,77.28569
0.361479,75.949104
0.30352402,74.0512
0.22713938,71.24621
0.31328267,74.494286
0.17677714,78.27268
0.18000355,79.40876
0.29098326,78.19574
0.30003133,80.94101
0.32380864,83.809395
0.4298591,83.304054
0.5967819,93.12085
0.5984152,86.04243
0.7435373,91.95031
0.76484925,92.78225
0.94115144,96.18538
1.1310343,97.4401
1.1966994,98.19411
1.3086853,98.800316
1.38924,102.784454
1.5804412,109.94393
1.5612761,112.558044
1.5919954,107.86588
1.6062372,112.87031
1.6830447,115.591995
1.6343889,117.880295
1.7132992,120.59947
1.8064688,116.96036
1.6940694,121.65801
1.8057996,121.14755
1.7553953,120.77589
1.749752,120.94536
1.7402749,118.687225
1.7814906,120.202545
1.6971252,119.47048
1.6794211,116.04191
1.6414422,119.20256
1.621535,122.465485
1.5748638,116.06827
1.5852171,120.02777
1.5051284,117.36963
1.443162,119.97804
1.4140913,111.307655
1.43913,115.41945
1.4207671,111.58127
1.4151068,110.69479
1.4014986,110.91643
1.5040412,108.82207
1.3948002,107.36755
1.3775926,106.048965
1.351542,104.04319
1.4128374,102.08827
1.2718065,99.68069
1.2924832,99.058304
1.273426,96.588425
1.2920196,96.9798
1.234608,98.870766
1.2088649,98.33238
1.0408167,94.78483
1.086411,87.97756
0.9582747,93.740074
0.95818335,89.840965
0.8571598,87.84077
0.8733527,89.36729
0.871398,83.51334
0.9211932,83.188614
0.8336276,84.708305
0.8599007,81.2995
0.8465464,77.82955
0.88839287,81.70621
0.82909715,80.455124
0.7569817,81.591225
0.8254194,73.28766
0.813522,78.93446
0.77342355,78.12052
0.8086931,75.87765
0.6037981,76.27643
0.6102148,76.43388
0.6650924,76.085075
0.62341195,76.57717
0.52530414,77.259224
0.5684711,78.37127
0.5949817,74.05019
0.5140457,81.041214
0.5845292,81.00798
0.6274082,81.8861
0.66345096,84.87017
0.7420826,87.18894
0.7774982,85.21387
0.88471484,87.76433
0.9811283,93.48423
1.1972891,92.730865
1.1915076,97.951805
1.3564986,101.239456
1.4428831,102.25617
1.5425715,104.62202
1.6014999,105.11515
1.6707945,106.1875
1.8026958,114.77437
1.8306059,110.44376
1.8536006,116.01032
1.9082698,116.584694
1.9110633,120.9142
1.9783347,114.47474
1.9361236,119.973366
1.9802214,120.606865
2.0211666,123.81401
1.9119632,121.7608
1.9122441,122.61641
1.893286,121.02281
1.8516816,118.01054
1.8355714,121.752945
1.8960153,122.092834
1.8116469,117.279205
1.7564706,114.60465
1.7326746,114.46833
1.7537017,117.76593
1.6514033,117.47295
1.5879894,116.602806
1.5298368,115.395
1.5500802,117.114
1.5944169,112.83856
1.5779632,110.93672
1.5085373,106.60505
1.5236194,107.937096
1.4977368,104.01933
1.4816725,107.194405
1.4200486,101.627106
1.4656518,102.043816
1.4314685,98.769936
1.4135543,98.26961
1.3519313,96.1012
1.3707416,99.8229
1.333592,100.49832
1.1977935,93.450005
1.1860634,91.338135
1.0265208,89.328
1.1261547,87.711105
1.0335913,88.3028
0.97515637,92.92724
1.0189452,86.47354
0.9141925,87.87784
0.91601163,87.00909
0.9099761,82.390755
0.9400109,76.87596
0.8382906,83.45824
0.9407304,77.91611
0.88502735,76.20997
0.80108964,79.95945
0.8910688,78.55121
0.8213394,76.47717
0.8263045,80.53173
0.7385352,72.77168
0.7056768,71.31719
0.65542185,75.513016
0.645974,77.17493
0.6198769,74.17752
0.5308939,77.363235
0.48236778,82.61371
0.55264544,77.69049
0.51440036,79.67352
0.5868959,79.33298
0.650298,79.91685
0.7549218,85.55704
0.7185107,84.87694
0.83891386,94.785324
0.95075727,88.4647
1.0244389,92.98137
1.2109679,97.79287
1.3350201,99.417915
1.450244,97.83696
1.4444051,109.397095
1.4695475,103.22186
1.6819146,108.71413
1.6716539,111.16482
1.7540789,112.94353
1.8651638,111.410446
1.7702093,109.0378
1.8445458,117.221596
1.8696936,120.74776
1.9364036,121.77068
1.8827533,116.76874
1.9048082,122.862656
1.8657621,122.579056
1.9333678,123.01102
1.9213457,121.01213
1.8127079,120.36973
1.787123,120.636475
1.7755738,117.22063
1.7715915,124.074936
1.6770906,120.36478
1.6813816,118.531586
1.6395212,119.21138
1.6711346,115.217224
1.5380317,114.54465
1.5335313,117.81983
1.5137008,115.15131
1.4700129,110.95823
1.4620732,107.57198
1.4461105,111.46379
1.4522787,111.671875
1.4213791,105.156525
1.3697803,105.26214
1.35105,105.22635
1.3319998,101.47952
1.2705392,103.47609
1.2970355,98.139626
1.2345121,96.09797
1.2312093,97.05747
1.1652061,98.196075
1.1074144,98.573235
1.0142716,95.47814
1.0189273,90.145134
0.96325284,88.303665
0.8791553,90.55873
0.83451754,89.55974
0.7711689,86.0361
0.7600734,85.49283
0.6957213,84.49482
0.7574447,82.86671
0.79965186,85.06555
0.7079985,82.08432
0.7522479,74.85006
0.70046467,81.44884
0.7533616,79.46277
0.7119687,74.05014
0.66500914,79.46185
0.57624155,76.906555
0.5946525,78.8413
0.49964142,75.02796
0.58679813,79.35348
0.42595914,70.99436
0.36949167,72.6506
0.32266745,76.03431
0.32079154,75.51305
0.27564415,76.43616
0.26862633,80.589325
0.3565421,78.31923
0.27488944,82.071754
0.41165447,82.64373
0.5015565,89.82069
0.5461805,92.774895
0.63733685,90.44684
0.7301677,94.28565
0.9830689,94.09859
1.0412282,98.98811
1.0489936,96.80576
1.2228258,102.89216
1.1570439,103.07394
1.2793617,108.451866
1.394239,108.62676
1.4718928,106.67113
1.5088532,110.35011
1.6015223,116.63826
1.580192,111.01595
1.6331005,117.27331
1.6775539,119.51651
1.6538144,120.47319
1.613919,121.734055
1.6640804,119.76833
1.6215944,117.839516
1.6212622,120.32815
1.550986,122.78325
1.5272918,125.219376
1.5801322,119.726295
1.5706536,121.0457
1.4365588,120.30013
1.4149705,121.7095
1.4027412,119.87266
1.3387516,113.26175
1.2702931,115.63486
1.279887,120.66509
1.2569276,111.77242
1.1931918,113.00558
1.2077986,113.50963
1.0982243,107.927986
1.0988201,108.86147
1.1356465,106.291
1.1045461,103.95643
1.0619935,110.33047
1.0078489,100.34006
1.042299,102.02394
1.0334021,100.70024
0.96314114,96.0855
0.96449995,100.034515
0.8535308,95.43242
0.8430406,94.80743
0.7601274,93.631744
0.71720064,94.66626
0.66531754,96.012474
0.6369463,95.363235
0.5598413,90.85646
0.5780589,88.13037
0.5023656,87.301
0.49359885,86.80726
0.5039601,82.49206
0.5061283,84.55634
0.48816192,81.967804
0.42408943,80.696205
0.45431453,75.72613
0.4031584,77.84147
0.42691287,78.47735
0.41903096,75.790794
0.399487,75.75756
0.30767927,72.20185
0.32052892,73.33703
0.32473868,73.688515
0.15892053,73.78401
0.19423248,75.916916
0.13686904,73.967125
0.01712558,77.679565
0.040060475,78.05081
0.036573727,78.334564
0.08530691,77.19796
0.09869128,83.29639
0.14436868,79.54547
0.16964948,83.94728
0.281606,86.629654
0.3124719,86.67625
0.3724439,90.81168
0.554063,88.8595
0.69038725,94.71478
0.81442386,95.89283
0.8650845,97.72973
1.0180266,99.14914
1.1292638,104.947586
1.1144449,103.22884
1.2880708,106.98149
1.2275485,112.83596
1.3098187,113.39343
1.3601147,114.70818
1.3703481,114.635544
1.2803168,111.03317
1.4112474,118.34644
1.3510895,115.288704
1.4972777,111.454956
1.4004368,119.71373
1.3420192,117.70276
1.4017981,117.46672
1.3328241,121.23138
1.3082509,122.776375
1.2802535,120.14274
1.291766,121.551956
1.2149367,117.85263
1.240664,119.04377
1.1268821,117.56288
1.0962346,116.350235
1.1621436,116.66596
0.95708764,111.765495
0.9786018,115.02393
0.9562161,109.31431
1.01359,107.923256
0.9547349,114.15985
0.87890613,112.57013
0.8695789,110.7124
0.8590593,104.99883
0.9369063,102.66767
0.9044681,103.444664
0.805729,95.60689
0.86501247,101.9982
0.78891486,100.88161
0.7539155,94.37093
0.6647935,93.46922
0.67510796,96.24465
0.6369119,97.34757
0.5480158,92.8769
0.5222125,90.631165
0.4795139,91.332245
0.38813773,87.87617
0.31876996,89.3831
0.31104124,86.356766
0.36447164,83.42914
0.4068195,85.62249
0.27883372,85.29772
0.2793484,79.616516
0.29894045,81.54695
0.27949235,81.987015
0.3474522,76.47921
0.32772943,78.75927
0.3374339,77.94586
0.20179057,77.210655
0.20072976,79.83409
0.14901292,73.67502
0.09459786,80.13235
0.08961316,74.971375
-0.0052803494,75.52257
-0.053186476,74.8522
-0.05662794,75.30915
-0.08263203,80.614365
-0.078905284,78.76422
-0.026785763,81.07355
-0.03145006,79.83839
0.04024031,81.8161
0.18953454,84.982124
0.25017077,88.42976
0.31989303,88.02502
0.34820476,87.0594
0.57218593,93.67435
0.6518151,97.75725
0.7648732,97.31624
0.8413535,101.25632
0.90919477,104.39945
0.9753176,108.678116
1.114625,107.32622
1.232056,108.47818
1.3201351,112.37028
1.2658484,116.47845
1.2583352,120.125656
1.3379791,115.31658
1.3539113,121.12127
1.4248992,124.59296
1.3890258,122.26672
1.379913,115.2737
1.2984091,121.90455
1.3982311,118.997665
1.3726169,121.219765
1.2624053,119.66379
1.315272,119.5393
1.1567001,118.872986
1.2491328,118.06235
1.2542915,113.77397
1.1992671,116.57161
1.2071669,116.21691
1.1790882,113.82069
1.1569862,116.31113
1.1196527,116.637215
1.0264223,112.359825
1.010602,113.83672
1.0222535,109.66273
1.0013789,106.09358
0.99586207,105.47353
1.0461766,108.81038
0.9796351,100.0787
0.9164905,98.60905
0.95360357,104.0395
0.8819508,100.897705
0.8582702,99.82875
0.9180549,99.92599
0.91539973,98.39068
0.82379293,100.487236
0.7650925,95.50838
0.65175325,92.152695
0.57364696,92.9551
0.52753836,94.77656
0.5201431,86.859245
0.4765738,86.21351
0.43029913,90.86369
0.40629348,83.33475
0.47916907,86.18848
0.5549521,84.20938
0.49284667,78.387794
0.43950057,78.19902
0.38642874,79.216965
0.4907135,79.31508
0.47322068,79.05952
0.44385,77.75681
0.4477492,75.24361
0.37398452,73.61243
0.32045034,78.108055
0.25937188,76.682
0.26790237,73.644775
0.20175025,76.642136
0.1735704,74.90856
0.05705482,75.03239
0.1361552,76.55133
0.10587913,82.19134
0.18793318,83.92382
0.22904627,82.61023
0.11075445,81.77272
0.2731385,86.42806
0.3888887,90.66281
0.4799398,86.44121
0.57973903,89.67244
0.72483146,87.822075
0.7651153,93.24885
0.8838726,101.59365
1.0246586,100.466034
1.1335491,99.34211
1.2480489,105.569244
1.2242738,109.85582
1.4180582,110.96815
1.3536683,112.82299
1.5231817,108.79505
1.5071421,112.778175
1.5211207,116.83912
1.5772318,117.371315
1.5996963,120.54626
1.5820365,118.67428
1.6050037,120.26992
1.5974661,120.27164
1.614371,119.11194
1.6515371,117.99944
1.6072414,124.043724
1.488471,123.827324
1.6103216,119.5646
1.4104966,121.97689
1.5575184,121.0307
1.3954983,122.164764
1.4375378,119.848595
1.4030848,115.816925
1.3009485,116.34422
1.2598532,111.44066
1.2848222,114.58482
1.3084701,113.99219
1.2820351,111.278725
1.3263493,111.30133
1.2237232,107.48984
1.2340326,109.2204
1.1501273,108.85609
1.2186915,104.75971
1.1955203,101.429184
1.1244364,101.62969
1.1709934,100.80191
1.1204897,97.55124
1.084231,97.03644
1.0545228,96.9034
1.0069181,94.98921
0.9504408,92.19517
0.9070823,95.39835
0.89740497,91.09584
0.88645023,92.30139
0.7334062,86.62328
0.81802493,87.29438
0.7631008,86.57845
0.7194335,86.22767
0.7034917,82.20048
0.726568,78.836136
0.75822055,76.784386
0.71446425,80.667816
0.7469609,82.274475
0.7364552,77.49719
0.6833904,82.44977
0.72728443,75.81019
0.6581729,73.48203
0.6963333,78.91083
0.6657274,72.02403
0.6273278,75.28039
0.4557069,78.19475
0.44112974,73.0204
0.5168111,77.44083
0.4442809,79.52772
0.3281935,76.376976
0.45391488,79.65764
0.39282224,79.44026
0.44469848,83.66093
0.51466686,81.958374
0.57840854,85.22698
0.6751916,89.13866
0.7896652,95.55862
0.9267887,89.28233
1.0074836,92.730034
1.057982,92.175865
1.256555,96.95848
1.4030212,99.41724
1.5301824,106.37539
1.5528816,103.69056
1.5817913,104.72852
1.689976,110.683525
1.7787894,112.247215
1.7212675,111.47992
1.7633433,116.36026
1.7541479,118.5179
1.8679376,115.89438
1.8551,122.05364
1.9161023,116.01842
1.8022039,118.55202
1.769805,120.082565
1.922392,120.223404
1.9076576,124.57796
1.8365953,119.28657
1.7925289,121.953575
1.7680337,119.88014
1.7649138,120.14114
1.7667133,117.89236
1.6027637,119.69726
1.5773958,113.1119
1.614207,120.517334
1.5459335,111.22899
1.4821013,111.1378
1.4636309,113.5724
1.494,110.99895
1.5114661,111.11897
1.4909489,107.83814
1.4571537,106.55061
1.3991653,110.840706
1.4192955,106.14793
1.4393667,100.850655
1.4356073,99.16289
1.4112532,102.183876
1.3557328,102.83099
1.3373109,101.08046
1.2785047,99.99107
1.2796683,100.14784
1.2234286,94.89782
1.1699823,91.814156
1.0986946,97.27144
1.0521493,93.73146
1.0448343,93.3325
0.9805605,84.91226
0.8768754,87.66059
0.88253635,87.70867
0.8444264,85.69754
0.9164791,83.90405
0.907508,85.54149
1.0004369,78.85262
0.94891983,79.98343
0.85227907,80.78329
0.8918153,76.72814
0.91349995,76.44543
0.86929893,75.66401
0.8596427,79.30432
0.8422769,79.17346
0.7010332,77.979454
0.716778,80.55786
0.62187916,76.20292
0.6362571,79.11485
0.5996235,79.57157
0.5632275,78.46869
0.6095468,73.171844
0.589312,80.877815
0.58666605,80.29761
0.62025964,82.8806
0.67193276,85.71705
0.82145745,84.6978
0.8182161,93.34401
1.0411568,93.39065
1.0109539,92.88133
1.1806393,89.335304
1.3380215,94.37631
1.3522117,96.41195
1.5184213,104.12666
1.6418295,99.84865
1.7140341,107.12363
1.6241629,103.279915
1.8613862,115.55913
1.821788,116.87185
1.8288689,115.56957
1.8566675,113.15573
1.9690652,117.96428
1.9357635,115.44465
1.9252415,117.80368
1.9106095,123.255844
1.962063,119.53614
1.91331,121.77791
1.9523635,118.60951
1.9233539,122.89741
1.952905,117.33113
1.8206054,119.63594
1.8599112,120.03368
1.9077251,122.05796
1.7436246,116.18916
1.7162604,120.32144
1.6436657,117.014366
1.6067733,113.543755
1.629114,117.83139
1.5111204,113.77755
1.5492499,111.017715
1.4561485,112.35645
1.449104,108.061745
1.4936528,107.994286
1.4547477,106.77136
1.5603945,105.82088
1.4133943,105.59966
1.4534935,99.11
1.3981149,108.21873
1.3853375,104.44207
1.2868956,97.14219
1.2903851,99.53989
1.2001365,95.56638
1.1077576,94.8236
1.1406013,93.72915
1.057512,94.59685
1.0410343,91.20992
0.96594644,93.28249
0.910685,87.096664
0.92801195,91.91495
0.88568765,84.17471
0.90080506,84.63524
0.88624066,85.41142
0.85607374,81.93898
0.88080084,83.36377
0.8986541,81.34857
0.8358171,78.33485
0.79730684,78.92585
0.80118155,76.53182
0.7812985,73.39597
0.72601867,75.50232
0.76986486,74.34402
0.6249057,80.65402
0.5599832,71.53959
0.6210594,76.86846
0.583105,76.14297
0.4370265,74.69383
0.4593598,78.01314
0.433977,76.43482
0.47931105,80.9493
0.38273224,77.605064
0.43933916,81.2114
0.6004639,84.28309
0.635424,86.10329
0.67560256,87.3954
0.77389854,83.39975
0.8402789,93.88388
0.9880318,92.99084
1.0732073,97.95838
1.2349964,97.73378
1.3091848,98.98111
1.480045,106.00507
1.4920174,105.456375
1.6303501,108.4918
1.6461731,106.91448
1.7329462,108.11099
1.6857902,119.50322
1.7624679,113.499916
1.7717738,116.72465
1.7653567,120.02565
1.801314,120.12636
1.7694048,120.7983
1.7110839,124.18428
1.7310736,125.30215
1.7751524,121.89775
1.7333184,120.642
1.6817375,123.19069
1.625723,124.769516
1.7127429,119.06456
1.6094184,121.57093
1.5483624,119.29989
1.5986322,121.95066
1.511192,118.06805
1.396447,115.28195
1.4259198,113.164795
1.4908555,115.28055
1.3879827,113.58142
1.3461964,111.495224
1.3232414,104.34442
1.215134,104.30984
1.2700657,104.34084
1.2551349,104.24609
1.255597,108.1284
1.1908028,107.718575
1.2199762,101.49019
1.1273383,98.95091
1.1121236,105.32897
1.0928422,97.22176
1.052153,93.44729
1.0324019,96.31336
0.9937154,89.52055
0.88133997,96.594734
0.7822629,91.87456
0.76721746,92.084984
0.6698288,88.65863
0.6806346,85.61399
0.6857617,89.69058
0.6520855,85.77845
0.59752196,85.307365
0.6400485,82.343575
0.569916,82.345924
0.65180695,85.85425
0.6140756,86.40222
0.60269225,82.295074
0.57024735,75.01487
0.64681506,78.25454
0.50710624,77.26281
0.4666113,73.83938
0.4304907,76.143234
0.4388248,77.79114
0.3408854,74.919395
0.25120783,78.222725
0.22669406,79.52643
0.17872036,78.67098
0.2277636,73.407295
0.20634635,80.04148
0.16299534,84.469345
0.20191908,80.600204
0.18103203,81.737206
0.29741752,85.3472
0.36769515,85.69743
0.4615748,87.42602
0.5934972,90.80382
0.661552,89.237495
0.8027903,89.801254
0.8266,98.31203
1.0510645,99.25056
1.0487102,103.01828
1.1437201,102.91767
1.227761,110.88402
1.2869226,111.05407
1.336073,108.08392
1.4930443,114.40612
1.4407572,115.72448
1.4705395,117.90557
1.4868561,115.38539
1.5569074,117.59452
1.5277655,123.41804
1.5098839,121.30777
1.5782033,119.93251
1.456988,119.99042
1.4101193,121.15066
1.4720628,122.70258
1.4113246,119.9268
1.3866793,118.66743
1.3768516,119.052444
1.2396039,118.3592
1.2949133,117.6044
1.2962795,117.41143
1.1525903,116.151085
1.197506,112.546234
1.1345755,119.422935
1.1606196,109.394424
1.0177176,116.53156
1.0291382,114.9589
1.0348104,106.82912
1.0589904,111.55861
0.98550224,108.739204
0.9305351,108.941986
0.9894985,104.75085
0.962506,108.10126
0.8526059,99.97311
0.8496319,99.7899
0.84094745,98.95513
0.912838,95.136284
0.75013924,98.555016
0.722798,95.43339
0.65930575,94.516
0.6419797,91.87007
0.5503857,88.3089
0.548842,86.53308
0.5737261,88.73206
0.46048638,83.82326
0.41821104,86.64404
0.34647864,87.90184
0.31594467,85.61639
0.40505534,78.853264
0.34442365,84.821335
0.363591,80.77392
0.35686585,78.05975
0.3225497,84.32283
0.28040957,77.94467
0.3470986,78.730835
0.29444757,74.21695
0.30719635,74.88651
0.16842994,75.21625
0.10579316,76.72257
0.122408226,73.12773
0.05855437,78.11995
0.021067971,79.73479
0.024714954,75.09325
-0.02669088,81.07481
-0.07025336,78.54694
-0.09983698,79.776184
-0.048060752,86.58714
0.030333586,82.25887
0.14239387,86.44798
0.19598736,85.204605
0.26332307,85.22926
0.38916278,91.26508
0.51360846,88.83551
0.643612,100.03679
0.7849646,94.052315
0.8593015,102.00615
0.9276176,100.497345
1.119688,105.73387
1.094418,111.948074
1.203714,106.78513
1.1979247,117.46541
1.2931486,113.646255
1.2809249,116.864136
1.3117177,117.038666
1.4123261,120.52292
1.4825653,119.39268
1.3243266,118.342445
1.3882909,117.43596
1.2908025,121.69687
1.2933294,125.458595
1.3844465,126.052795
1.4052857,119.96385
1.2692662,121.03423
1.247795,122.04966
1.2695155,116.334076
1.1637096,120.16984
1.1171407,115.857155
1.0940926,116.433846
1.0048604,113.2063
1.0885768,118.081474
1.0893928,112.465324
1.0014135,119.63016
0.9238849,112.26666
0.8904309,101.261314
0.9906261,111.214645
0.9269296,107.311676
0.89611,107.24878
0.9117816,104.70181
0.95130885,105.89429
0.88552636,103.258835
0.8082996,95.95072
0.8078707,102.98073
0.8241851,103.778496
0.7191385,98.429855
0.6769177,97.11325
0.66892827,91.76494
0.5931112,94.931305
0.60890573,91.3131
0.57801396,94.06305
0.4208182,90.29088
0.37926155,92.65016
0.4011388,89.93996
0.3854236,81.627266
0.35325378,84.59091
0.3086953,85.32023
0.35710248,84.473404
0.38343138,80.01999
0.38285485,78.59817
0.33478945,77.4594
0.40581286,83.36043
0.27364334,76.22233
0.28791612,78.57727
0.2695339,79.13054
0.188032,74.39702
0.15308173,74.90161
0.19591357,77.141624
0.06664056,78.120995
0.055181596,78.34963
0.075955436,80.15776
-0.011399352,79.5904
0.019114796,76.65836
0.0629115,81.11089
0.053685896,81.76635
0.12201194,83.60404
0.10730998,84.80563
0.19078252,86.75821
0.32675636,82.92517
0.27085432,88.98414
0.5035944,90.37105
0.6213149,94.13332
0.7571548,93.53373
0.88431287,100.70787
0.99068326,102.24953
1.0689243,102.018585
1.1325798,109.46054
1.2578592,109.76786
1.2444315,109.00499
1.288783,112.748276
1.3496629,118.42093
1.453965,117.65373
1.4568967,115.40652
1.4829755,116.70746
1.4725657,119.55044
1.524274,118.27063
1.4454943,118.58486
1.5010523,123.891396
1.4359037,120.17538
1.427726,120.26181
1.4503107,122.809944
1.4293169,122.9201
1.4581144,120.439514
1.2990698,125.3007
1.3265355,120.54777
1.3370802,121.21895
1.3196869,115.38378
1.300333,118.710045
1.1410489,114.662186
1.1222713,116.32398
1.1687298,107.082146
1.0911049,112.39922
1.0976167,112.86294
1.1217271,105.52187
1.0815774,103.154945
1.0493149,107.33098
1.0411278,104.21304
1.073731,104.47696
0.96442235,103.700485
0.97610945,100.227165
0.9329786,98.34467
0.9553942,101.0317
0.8901108,96.691154
0.903681,97.25567
0.8534821,95.04999
0.70396006,97.50705
0.7109666,90.22628
0.6571829,87.24757
0.5946692,89.83232
0.5925959,85.27967
0.6076752,87.49847
0.57684773,84.40075
0.63573104,86.211975
0.49868745,80.33861
0.604304,86.79161
0.5888568,76.88387
0.6933342,77.25667
0.55659777,80.8052
0.5881675,76.25064
0.5445703,78.47208
0.5086935,76.9368
0.5311452,73.057724
0.39765254,76.104416
0.5244915,74.434685
0.34186542,76.76319
0.38756135,78.11861
0.30243254,76.08014
0.25955895,79.56674
0.26551512,75.57314
0.16647702,74.35912
0.24525967,77.125145
0.31101686,80.45136
0.4061148,86.40009
0.41242614,88.75996
0.51614124,84.29443
0.6111283,88.45442
0.70411104,94.153046
0.8320601,93.85127
0.99817365,92.26493
1.0451603,97.964455
1.1476696,105.0913
1.2563493,103.72291
1.3509791,102.054405
1.4746541,107.048134
1.5398123,112.47461
1.5142344,112.57967
1.687001,113.53071
1.6181759,112.210144
1.6542631,120.36506
1.6786249,120.03434
1.6926624,119.46855
1.7632941,117.60147
1.7509997,122.74384
1.6208228,118.94184
1.6913843,117.190414
1.76962,124.60849
1.6848131,123.25213
1.7278088,124.839386
1.6234123,122.541245
1.6519268,119.700874
1.5733904,120.731094
1.6160483,117.46758
1.511558,116.72896
1.4657218,119.128105
1.4286859,116.135574
1.4150537,115.92234
1.3511761,113.4136
1.4223298,114.25798
1.3976048,112.13621
1.3332579,108.93097
1.3241869,109.116936
1.3811076,105.72797
1.3170003,109.43835
1.2945966,106.03217
1.2577347,102.56566
1.2825872,104.929245
1.2127942,104.20296
1.2194647,99.92206
1.0957268,99.54923
1.1640528,96.42858
1.17576,94.625534
1.0970107,91.829445
1.0595398,93.27356
0.9697971,92.75528
0.91616905,88.55274
0.88235927,86.048615
0.8652782,87.20898
0.8573844,81.83419
0.87247896,87.54573
0.8369903,84.10522
0.85475475,78.86458
0.8906807,80.246
0.8114328,84.263
0.806541,72.58959
0.8309852,79.48967
0.7974096,73.81486
0.8446242,72.604164
0.81547713,72.48325
0.7004467,76.39478
0.7332856,71.17772
0.63462204,75.10524
0.60707045,78.972496
0.60210997,72.72324
0.50495243,76.054924
0.63696295,79.042274
0.51801485,76.014496
0.5091948,81.36301
0.5138649,79.11452
0.5673362,81.698326
0.68964267,83.89113
0.7436286,84.47069
0.7134424,85.87344
0.81133884,93.90322
1.0621979,93.49588
1.1371412,92.70996
1.2974375,99.77826
1.2838565,100.882904
1.4372162,98.13154
1.5467469,103.04889
1.6396319,104.855484
1.6519657,103.79103
1.751007,105.987274
1.8189667,113.76409
1.9034622,110.50863
1.8588198,116.172516
1.9263984,117.58486
1.9632496,117.09842
1.985557,120.94555
2.0317137,119.505905
1.94526,119.14455
2.0206738,119.18592
1.9892334,121.59662
1.8813543,119.141136
1.8815426,123.60617
1.9628093,124.0944
1.8356824,121.4665
1.7066618,117.60784
1.8594086,118.77884
1.6614854,117.23313
1.7430992,115.398674
1.6318207,117.86425
1.623183,115.70467
1.5597758,114.38944
1.6076124,114.8422
1.5210303,110.14163
1.6046898,110.1313
1.5475831,107.199234
1.4499496,107.04699
1.4879805,103.103615
1.4588897,105.34013
1.4870555,107.47171
1.5028907,99.54482
1.3571428,101.030205
1.2903357,99.49911
1.4108348,97.557434
1.3353609,93.03713
1.3273363,100.62009
1.2244693,93.63454
1.1719425,89.97711
1.0661705,87.35276
1.0885139,92.09723
1.0513287,93.39597
1.0311002,91.27381
0.9581358,85.63667
0.9568475,83.314735
0.9299262,86.1117
0.9322919,82.90788
1.0095325,79.51281
0.909158,82.38725
0.9165622,79.03371
0.9188699,78.3849
0.9252571,73.31942
0.8131905,76.3766
0.7749848,76.02933
0.8680288,77.90768
0.7151589,77.49286
0.73891604,77.63739
0.7188888,74.12001
0.7115828,74.06711
0.57952976,76.58101
0.5469426,74.741455
0.46189195,74.00257
0.560907,81.44856
0.5489398,80.53927
0.55919397,76.74719
0.6587286,82.173965
0.6450019,81.97631
0.74121475,88.63618
0.9012104,89.28678
0.9575964,87.4314
1.0455465,88.97087
1.1601888,97.56366
1.2961798,98.8238
1.3898612,100.624725
1.4350748,103.76685
1.4840047,104.3291
1.6756169,109.83422
1.7082886,112.47466
1.7422398,111.87071
1.8524601,116.895096
1.8126649,113.81832
1.8793365,119.553246
1.9019575,118.33596
1.9494386,121.792
1.8565642,116.36378
1.9485098,119.63035
1.9522729,123.93516
1.9687797,125.39846
1.8906047,122.396645
1.8585899,123.81885
1.7815425,123.745964
1.7659047,124.22731
1.7913888,118.231186
1.7759801,121.9228
1.656253,116.86923
1.6205263,118.33203
1.5765483,110.777855
1.5653069,114.00265
1.482577,115.59679
1.551862,110.86568
1.382399,114.2388
1.4567935,115.33459
1.4660543,104.04639
1.4273605,110.53069
1.4131894,112.3903
1.3808453,103.94824
1.3488698,101.50266
1.3294865,100.74538
1.3073274,105.114685
1.2805833,103.81653
1.228055,101.55758
1.1394676,97.18115
1.1625844,92.8098
1.1349108,98.014465
1.0725353,100.54551
0.9554379,90.206215
0.95345306,96.14531
0.949668,87.39611
0.8667192,93.086555
0.8652974,91.462
0.8558502,85.9225
0.80399746,88.90474
0.66375035,84.704735
0.7786236,82.54969
0.69492036,82.87572
0.71991634,84.14203
0.7438424,81.27714
0.7215869,77.0876
0.6843207,75.71373
0.7130072,80.312325
0.6923404,77.629654
0.5576069,74.203186
0.5161289,74.55565
0.48185083,78.49907
0.43507227,79.499626
0.3176703,74.15977
0.41366392,79.249725
0.3145033,78.03383
0.3054433,78.16233
0.29764646,79.92244
0.33119813,79.7567
0.43418846,87.15115
0.40956205,84.60683
0.5858047,85.605774
0.6098071,92.05345
0.7300663,91.94189
0.8044898,91.959404
0.8993429,96.94594
0.91944546,93.1403
1.1730744,106.402054
1.2390566,105.18816
1.3601025,103.331726
1.361318,105.62196
1.413485,112.152756
1.519708,109.16499
1.565576,107.92868
1.5697346,115.174545
1.59466,113.56819
1.6168283,119.71756
1.7113423,113.84599
1.6373111,119.32584
1.6971833,121.128876
1.6475829,120.1847
1.5753305,121.13082
1.6420505,120.15877
1.6201836,119.387665
1.5855056,116.66937
1.4573452,120.12499
1.5210251,118.71642
1.5254793,119.36673
1.3811525,122.03645
1.4330971,122.70963
1.3217266,116.10701
1.2520373,115.6888
1.2964005,115.20176
1.3077393,119.43847
1.2185904,114.78248
1.180888,110.66388
1.1476947,105.260635
1.1028496,106.994225
1.1723725,107.05962
1.0927593,103.2721
1.0541795,105.34181
1.0771099,106.396324
0.9910151,105.34357
1.0322683,102.83787
1.0502287,98.64387
0.90781194,102.31459
0.89535546,94.307755
0.8461852,92.6264
0.7833335,94.50396
0.7248349,91.045586
0.7643771,86.23931
0.635351,87.45981
0.62985927,90.162544
0.5605266,86.14703
0.50145614,85.81927
0.5753653,87.368576
0.4773544,84.858406
0.46772093,84.411026
0.42341274,80.853134
0.43816972,80.40919
0.4327221,80.05459
0.45308468,82.70122
0.4302847,81.13152
0.3802397,76.55715
0.4181306,73.07523
0.3517319,78.74071
0.3890224,78.77901
0.26341543,75.23549
0.21643884,74.93849
0.13844207,72.206
0.092346966,73.74016
0.060118683,78.06268
0.09214092,78.62043
0.02949286,76.31745
0.07845386,77.95588
0.11017954,81.27628
0.08128497,83.90884
0.17327756,85.63713
0.3111586,85.809784
0.29406962,90.062454
0.4723504,93.54026
0.5394391,92.85246
0.67733103,96.80164
0.7707161,96.0261
0.9276062,98.68754
0.94197387,100.90876
1.0052478,107.528465
1.1960478,108.3496
1.1740859,112.78194
1.2651621,113.21991
1.3433236,110.26859
1.3778127,111.141174
1.4025965,115.73337
1.3882303,119.801315
1.3620542,117.56423
1.4761957,120.05189
1.389779,122.08534
1.38743,116.71625
1.3503402,122.34483
1.429542,124.40769
1.3768867,122.158165
1.2809379,118.350365
1.2916476,119.8499
1.3116578,121.56716
1.2463009,120.18707
1.161783,115.07359
1.0629638,114.675514
1.133846,121.31218
1.1117338,112.75754
1.131051,113.66693
1.065793,114.85582
0.9732877,110.58066
0.9900184,112.247406
0.876433,109.244255
0.9925847,106.68983
0.8789562,106.09833
0.8790375,103.149536
0.9176399,104.9988
0.844949,103.0601
0.9042088,102.89868
0.8789853,99.10558
0.6970339,99.05561
0.794362,93.33532
0.653744,95.488
0.62634045,95.632675
0.6117129,91.981476
0.5403789,95.47939
0.5090485,88.838425
0.4685003,92.52952
0.37444425,89.26696
0.43363136,82.39289
0.381578,88.74934
0.3159932,85.51727
0.34272906,81.61599
0.2983487,82.20769
0.317545,83.33278
0.3474725,80.849335
0.36847454,80.44165
0.2335079,76.88056
0.31100985,82.86288
0.29222998,79.62067
0.13861044,82.06563
0.22583398,79.41141
0.19818032,71.75826
0.078943245,74.396355
0.030564964,75.416595
-0.038702805,76.6344
-0.019006712,74.56021
-0.079447694,78.925896
-0.11876618,77.74562
0.0041845315,78.7659
-0.03384047,79.259125
0.01965689,81.34787
0.01575139,87.80356
0.12804334,86.636826
0.21344987,91.92396
0.25721747,93.50228
0.42712113,92.89249
0.55422556,93.13211
0.62527925,92.17625
0.7474847,102.04625
0.85532695,102.271385
0.9611775,99.38594
1.0617989,104.5754
1.1015234,106.66689
1.2197098,114.7873
1.2833742,111.05497
1.210776,114.56581
1.3347383,111.05988
1.3517821,115.47255
1.3792255,116.50669
1.3909342,116.671074
1.363768,118.370186
1.4423227,122.987724
1.3870817,120.65332
1.3723799,123.341576
1.391313,117.02626
1.3269296,121.16444
1.314245,119.19414
1.3275567,122.29809
1.2273403,119.77314
1.2107556,120.539375
1.1771024,120.13256
1.0828348,117.07982
1.173655,117.572426
1.0684814,117.68839
1.0642749,114.46958
0.94953364,110.61417
0.92070633,109.45718
0.99514234,114.3417
0.9880345,106.80566
1.0129647,109.146996
0.94391316,110.54555
0.96335137,105.285934
0.92820525,105.88237
0.9338025,99.60539
0.8805466,101.97043
0.8268602,104.68156
0.8442894,101.61117
0.7833623,98.43161
0.73531514,95.19623
0.7166893,93.85675
0.6041815,93.0742
0.6055447,94.714485
0.52520484,92.61822
0.5208908,91.93105
0.4826358,93.14321
0.4367496,88.3517
0.44065958,84.97868
0.43600667,82.45427
0.4419155,83.29218
0.44168705,80.79043
0.48250926,79.344696
0.37540284,78.04652
0.39447236,77.959595
0.41872996,76.569855
0.34003308,76.156364
0.3441543,79.11533
0.4152918,78.89394
0.3179998,74.1393
0.23325376,73.593956
0.16496336,73.333855
0.18660602,77.35519
0.12484732,75.14583
0.17077349,75.07112
0.07020902,74.70589
0.15418856,77.354416
0.11409929,81.824066
0.18906367,82.972824
0.25661013,81.44877
0.23516959,80.44556
0.36996654,82.85157
0.4574457,89.63466
0.55562043,91.78759
0.72020686,93.2825
0.77385753,94.62799
0.8892751,99.17458
1.0243701,98.759544
1.2044568,101.17616
1.1990014,105.13695
1.2398288,102.79085
1.3921278,116.40026
1.3822281,106.337204
1.4709703,109.341896
1.5301613,114.01487
1.5581012,113.63533
1.5218077,119.31605
1.5480489,122.44099
1.6374711,119.50529
1.590763,119.04289
1.5184965,119.37668
1.6036435,120.57308
1.5926677,118.259346
1.6115526,125.34982
1.60992,127.12714
1.5546675,120.02621
1.6152142,119.23643
1.384522,125.81709
1.4438196,116.5611
1.4074361,120.219055
1.3920646,115.21575
1.3298247,114.43156
1.2639374,117.72078
1.2892677,110.87091
1.2314584,113.88107
1.1798644,113.562645
1.1905707,109.26215
1.2215433,103.8379
1.2060791,106.68616
1.2037444,104.98884
1.2082529,102.55502
1.1694531,102.976616
1.1357886,100.90967
1.1361916,98.526436
1.0838735,97.76956
1.1638591,97.45133
1.0354133,98.11174
1.0315785,98.357994
0.96691835,91.1257
0.9464239,89.71948
0.75499284,90.479774
0.7871908,90.05563
0.74313504,89.68789
0.7173696,86.73757
0.7744465,83.89558
0.7104541,86.325745
0.7273544,84.32991
0.7410436,83.71443
0.7042048,80.58709
0.76668626,78.6394
0.66689974,79.78568
0.7658293,77.50714
0.59653914,77.40549
0.58969885,75.13487
0.6242885,74.01207
0.62813383,78.82811
0.51678956,76.18856
0.6430738,75.403946
0.5134889,78.721565
0.42907664,76.13372
0.39956486,78.19282
0.35985547,78.43487
0.37453756,76.50303
0.38449565,79.14171
0.37301528,82.23489
0.4450317,85.145744
0.48823884,84.28403
0.6121796,85.65434
0.6494229,87.837494
0.8448388,92.80871
0.88298315,92.00317
0.9382871,97.01787
1.079714,100.45255
1.1867936,94.62327
1.3655567,99.596695
1.3946624,104.11994
