ppg,abp
0.91346264,97.36795
1.2377956,104.663666
1.2434701,104.83414
1.2644703,105.32964
1.3450123,112.09156
1.6394016,118.636375
1.4718466,118.973465
1.4067061,121.84931
1.535261,125.372955
1.6619912,130.11528
1.6460001,133.52094
1.6800064,132.34639
1.6926386,137.67795
1.798543,140.00168
1.7590561,144.87805
1.764167,142.06212
1.7579162,140.96437
1.7001958,143.40337
1.6505606,141.69463
1.7482774,140.05484
1.6675371,139.44298
1.6268258,140.70424
1.5556023,138.53665
1.7001224,139.574
1.5370607,140.52286
1.5000452,135.2882
1.5499047,132.90755
1.3910146,131.41202
1.4431977,130.07555
1.2921664,127.63293
1.4404072,125.46129
1.4165405,120.14429
1.348332,122.18717
1.3964844,117.166115
1.276523,116.24702
1.2765659,115.4511
1.3698571,111.930374
1.339358,108.55564
1.2439957,107.43188
1.2682576,103.13995
1.1749718,101.08816
1.3542407,97.36686
1.1959684,94.53532
1.2080071,93.69259
1.146727,93.84802
1.1384797,89.67918
1.1940682,87.061554
1.1021565,84.737404
0.9426944,83.12227
0.828693,80.049164
0.9042758,77.799126
0.8006653,74.8284
0.8047892,72.64655
0.84524906,70.58238
0.7872334,66.27649
0.8381009,64.70992
0.86206585,62.519543
0.86628926,59.57512
0.8953799,62.369682
0.8589579,57.03315
0.79555124,54.36172
0.83085775,55.352043
0.8236576,51.548904
0.83278835,50.42477
0.8267584,49.654984
0.72305,46.31804
0.6406171,50.284718
0.6569973,51.73446
0.50773424,51.356514
0.49956673,50.21514
0.62300795,54.21744
0.54427946,50.223923
0.3525371,53.90936
0.5251388,55.651226
0.5294339,56.36684
0.6149156,59.3806
0.55203134,63.661636
0.58674014,66.0284
0.77855927,70.275314
0.74549747,75.4914
0.873397,78.58892
1.0198907,82.98336
1.106037,85.78058
1.1412897,91.86701
1.4026147,95.254814
1.3628116,98.2205
1.4753636,105.01787
1.563024,108.07971
1.6041579,112.3687
1.6954255,112.26848
1.7124968,119.69233
1.7790494,121.75474
1.8781643,125.08764
1.8460445,131.4697
1.9241318,131.9273
1.8951784,131.83087
1.9769341,133.42722
1.9503152,140.91489
2.0131407,141.19261
2.0128882,141.3968
2.019936,142.40251
1.9494454,142.94778
1.8872284,142.99551
1.9809594,142.33185
1.9315736,140.60884
1.8840795,139.73506
1.8082749,138.55817
1.8090078,137.58562
1.6949016,135.76547
1.667132,135.77599
1.7505227,131.35251
1.5365121,130.3533
1.6253039,127.0196
1.6623131,127.16442
1.6268547,125.3728
1.5587729,121.48447
1.5093857,119.47216
1.539214,120.13068
1.4842682,117.82983
1.5951437,112.40186
1.4782255,112.59466
1.4488064,109.08971
1.5580629,108.2028
1.5064793,106.17667
1.4945863,100.571556
1.4584464,99.63617
1.3440415,96.932495
1.471191,95.48248
1.3641906,95.157036
1.3505723,88.642654
1.2355441,84.576126
1.1129403,85.83384
1.1037972,82.16777
1.1081711,81.79846
1.1434658,77.35579
0.9560839,73.8167
0.89239895,72.86312
0.97884595,68.71448
0.95584816,68.55654
0.8968404,64.79801
0.9476191,63.9564
1.0172932,63.134964
0.93850267,59.887215
0.937512,60.42539
0.9640748,56.64004
0.88512045,55.988506
0.99434614,51.96285
0.83236253,52.978268
0.7872866,49.34628
0.7748556,48.903934
0.77681595,49.83124
0.7080183,52.107937
0.5772584,48.90035
0.5507358,50.692432
0.5046594,48.897423
0.51845473,50.865932
0.39607093,52.20472
0.45774156,54.25103
0.5465004,58.34102
0.5589808,59.76249
0.59677136,65.803474
0.6268537,67.0916
0.7469147,71.66165
0.7769986,73.556595
0.96076363,74.89433
0.9641986,81.83885
1.0973502,85.87745
1.0997835,88.666245
1.159677,92.74128
1.3133516,99.91634
1.4315487,105.27648
1.4591467,106.52487
1.547758,109.71727
1.703198,116.68635
1.7063366,116.98271
1.8804488,123.09046
1.7410477,127.27064
1.7961969,127.40648
1.7973491,131.34735
1.9104316,137.16289
1.8929796,135.81209
1.8549424,138.90755
1.7932357,138.29292
1.8136928,142.90962
1.8304985,144.16637
1.9760846,145.49428
1.8218007,143.30449
1.8018728,142.65132
1.726368,142.93387
1.7034435,143.0831
1.7791289,136.97452
1.7155051,140.94551
1.668657,137.03473
1.5663491,135.71758
1.5567143,131.59834
1.5808598,132.90129
1.5520636,131.50737
1.4679329,126.37122
1.4962895,126.161285
1.4844589,121.487175
1.4542619,121.156136
1.3052005,119.851234
1.3983679,115.44144
1.393743,112.90993
1.3036621,109.84882
1.3301675,108.34856
1.311595,107.58117
1.357786,103.71669
1.2641177,101.28311
1.185554,100.78806
1.0741247,95.55527
1.1076616,94.12047
1.2163004,92.55268
1.1374195,92.086464
1.0805498,88.93404
0.8663946,85.24096
0.90934694,80.81434
0.89007986,80.884834
0.9410715,78.70566
0.83481395,76.12698
0.7076793,75.4224
0.74232644,72.88584
0.72813827,68.31193
0.6952041,66.18664
0.7863038,65.73838
0.76186883,60.752857
0.6668665,61.159977
0.6814315,55.809177
0.59215486,55.12011
0.58596414,54.556095
0.65083396,51.55802
0.7413504,52.99498
0.5684069,50.22948
0.65823716,46.404716
0.52347183,49.804935
0.4354941,48.75113
0.40611494,47.874844
0.42403695,48.920925
0.41503918,48.740074
0.2983387,51.673523
0.33924067,52.656223
0.26774266,52.319878
0.1814974,57.16718
0.25395077,57.899567
0.3021386,66.97328
0.44588012,66.45934
0.41250712,67.71242
0.45742643,70.536476
0.56736505,76.53885
0.60911554,79.50486
0.7010071,82.56119
0.87550586,87.928635
0.92409456,90.96926
1.0620886,97.298225
1.1225787,101.242424
1.262183,105.6638
1.3719044,106.15426
1.2779572,115.97898
1.3955524,117.9857
1.4453566,122.888245
1.400329,123.574875
1.5661361,129.35632
1.5124022,131.51564
1.4807825,133.9334
1.6319158,135.82239
1.6462926,135.11208
1.5315117,138.1979
1.562663,142.26645
1.5679003,142.02351
1.6651841,142.51103
1.4990641,137.64536
1.4682727,141.14363
1.4905095,139.01208
1.402609,142.96117
1.4118848,141.61627
1.4698926,139.04657
1.3488315,138.27689
1.3652663,138.29701
1.2394983,137.69614
1.2887747,136.23721
1.2674288,130.40295
1.2439475,126.89054
1.2494502,125.506165
1.1058551,125.121315
1.1440328,121.29711
1.0463252,119.85702
1.1087595,117.5949
1.1474686,117.10292
1.0516592,112.704956
1.2348375,106.31625
1.0739821,106.66077
1.0379201,103.69431
0.9339736,99.19515
0.97510326,99.34418
0.92697287,98.37941
0.9392658,95.81258
0.78761196,93.42348
0.8670964,92.309616
0.7824306,89.62873
0.64705294,86.582
0.6925969,84.28754
0.5537677,81.89384
0.5789248,79.75207
0.5300647,76.94836
0.42684066,73.86433
0.344103,72.253555
0.4227164,70.16497
0.38815212,64.59809
0.47918582,62.874516
0.4819983,62.466503
0.34022063,63.037468
0.41174662,59.573235
0.511377,58.45465
0.34478378,54.089615
0.23019138,52.98146
0.3827543,51.542408
0.28906304,50.92914
0.343657,51.719223
0.23940207,47.60474
0.2235807,46.766254
0.15498553,50.501766
0.07831949,52.698956
-0.024759261,48.058704
0.06992584,51.797794
0.089662924,50.53838
-0.104900956,55.320175
0.08635552,55.537704
-0.08455801,59.682735
0.06269133,60.96367
0.08312619,65.57051
0.20803455,69.01902
0.1748649,71.27638
0.3396482,75.30748
0.39314663,80.342674
0.48328477,81.700615
0.5185272,86.71318
0.6931264,93.05944
0.79314834,93.73966
0.8315766,96.44217
0.883712,104.83757
1.0486186,107.4033
1.1099267,114.51501
1.1480284,119.45605
1.0958958,121.91825
1.320576,124.5527
1.2748151,124.20677
1.2276418,128.32487
1.3540168,134.52051
1.3868835,137.94308
1.3666973,139.2427
1.4169269,140.65869
1.3457729,139.37576
1.4452411,141.68456
1.3685528,144.53233
1.3456053,142.95737
1.363457,142.78339
1.4311317,145.19012
1.2431155,141.9511
1.2772064,140.52649
1.2198105,141.81557
1.299573,138.26451
1.1199929,135.30414
1.1074829,134.91933
1.0530577,133.23671
1.0622858,131.87198
0.91163826,126.999725
0.93247116,125.52176
0.9574663,126.71945
0.9617029,121.34119
0.8883711,118.626755
0.8920619,116.3285
0.90766656,113.15964
0.8677025,113.86558
0.9616482,110.54172
0.9139397,107.661736
0.7926039,103.01909
0.8499386,105.81507
0.8837077,102.1383
0.71181464,96.585396
0.79475415,98.99626
0.7196338,93.89352
0.7068049,93.43329
0.6442187,87.25743
0.59519833,87.541756
0.5931903,83.51965
0.42857084,81.57985
0.50456965,77.65135
0.36176136,78.02964
0.333214,74.82321
0.32354483,71.75425
0.422974,70.72699
0.33304295,69.11035
0.33951217,65.99428
0.45495194,60.328663
0.31489435,61.077084
0.3997206,60.185913
0.2917807,56.654907
0.32770488,55.332268
0.23391917,53.82163
0.22495165,47.699684
0.24228753,46.52438
0.2378499,50.51317
0.209861,51.54543
0.14369658,51.753967
0.1631476,50.635696
0.06935648,49.75325
0.07089075,50.17549
0.11069461,49.77088
0.050372455,51.7751
-0.058456518,53.625664
0.031066863,55.7262
-0.06743602,57.326626
0.011336297,61.17382
0.1384897,61.58874
0.17998631,64.8869
0.15546119,72.696556
0.2846636,71.90604
0.36212677,75.42994
0.44616002,79.835526
0.48219883,85.54055
0.632826,90.33135
0.8481556,95.54114
0.90817523,98.93157
0.9644619,102.9337
1.0979462,108.79091
1.0928159,114.98884
1.2257912,118.05318
1.2588843,120.4511
1.3895205,125.81541
1.2771736,125.60712
1.3694072,130.28584
1.4404218,129.4649
1.4672413,136.49738
1.4589591,141.41835
1.4234608,139.80081
1.3902303,140.20976
1.4658985,142.20403
1.5273101,141.35797
1.3793851,144.53754
1.3912065,143.49884
1.4041386,139.44302
1.3450085,141.88237
1.3839482,140.3188
1.3324863,142.18785
1.3037989,138.97548
1.268503,135.66971
1.306926,137.82025
1.2708586,133.98482
1.2421436,132.4662
1.12498,131.60062
1.0392694,128.60675
1.1081293,124.17163
1.0719283,124.27247
1.0553467,123.94926
1.0571346,121.172356
1.0175611,115.61675
1.0155494,115.20596
0.98607826,108.54387
1.0070121,108.670654
1.0091614,108.66198
0.96783143,103.88878
0.96461445,102.366196
1.0933918,100.01731
0.8967066,95.29904
0.90751797,99.059875
0.8449628,91.50807
0.730675,90.66324
0.8224179,88.58824
0.7509056,80.424355
0.7953654,82.13758
0.6586807,78.31506
0.55126804,78.83032
0.61014086,75.681725
0.6356615,75.55856
0.5989864,69.173065
0.5636698,65.725235
0.6064415,66.37673
0.52489674,63.417393
0.54075956,64.649315
0.49414465,61.746826
0.5422796,58.105297
0.49494472,57.07067
0.52685386,54.130352
0.38552895,55.083214
0.5226167,49.50183
0.451881,46.310604
0.52529895,49.92435
0.4097634,49.567444
0.29900372,53.27931
0.30978614,46.14324
0.28915307,51.527256
0.32856417,50.066685
0.2220083,51.305157
0.3042852,53.62695
0.1644268,54.348843
0.22355701,58.621323
0.11459121,55.467564
0.32241422,61.796837
0.26953137,66.23897
0.42204133,68.374596
0.59328896,71.834465
0.56474805,73.86378
0.6689388,81.60464
0.7558224,89.443306
0.9660493,88.05182
1.0610877,91.20155
1.127607,100.71567
1.2341979,100.72473
1.2769824,105.14413
1.2644167,110.09788
1.3766819,113.3311
1.5166239,117.33335
1.5142938,119.568115
1.6239154,125.64363
1.5826281,129.34735
1.707751,130.85721
1.6645621,130.89432
1.8099288,134.93729
1.7681781,136.58778
1.7282076,139.7253
1.7618473,140.91821
1.657032,142.28264
1.7066519,143.38005
1.690874,143.53674
1.6416249,142.87474
1.7600206,143.22498
1.593713,139.69534
1.7118932,139.62535
1.4623345,139.70642
1.5541344,135.74095
1.583171,138.02321
1.4976026,134.1055
1.4257742,133.99117
1.4602736,130.94878
1.3768352,126.31758
1.4668022,124.75641
1.323832,123.6189
1.3829439,123.11588
1.3446004,119.306404
1.3402146,118.25036
1.3202226,116.38327
1.335233,109.86737
1.3377526,110.281815
1.3579928,108.37023
1.2846676,100.9068
1.3345829,102.12895
1.2596806,98.56297
1.2301654,98.73536
1.2778189,96.29603
1.193135,92.711105
1.0999649,93.98828
1.0381243,88.67323
1.0821854,85.19461
0.9920795,85.30417
1.0229882,82.15393
0.94022614,79.69619
0.9207762,75.326065
0.8870109,74.11568
0.9604702,76.94428
1.0109292,70.70594
0.76254076,67.574646
0.80496854,63.85747
0.8289148,63.679317
0.8074561,59.83824
0.8037405,59.866127
0.8187187,57.872623
0.8793621,56.326168
0.78873515,52.790398
0.87222016,51.80171
0.8324855,51.754456
0.72476727,49.212467
0.83587795,52.823997
0.6209018,49.674183
0.6014184,50.260418
0.5362331,52.00676
0.519032,48.45318
0.35485697,55.219334
0.55042994,54.97376
0.46907204,52.64035
0.4225687,58.029984
0.58797103,57.710846
0.5948899,61.36004
0.5420406,66.1703
0.6316859,67.18714
0.70918155,74.35456
0.91792005,76.05737
0.8867958,80.39853
0.9639164,79.62074
1.1456327,85.70265
1.3190078,90.75475
1.2935402,91.76396
1.4864876,97.596436
1.5294456,106.680824
1.5815766,106.75392
1.5651793,113.633194
1.7222689,118.804825
1.8005384,120.54412
1.7879668,124.9807
1.8201842,126.62336
1.8620455,133.2885
1.9065074,131.76985
1.9059076,137.5149
1.954629,135.16154
2.05717,138.46628
1.922606,138.75713
1.9155507,137.94458
1.9213384,139.44725
1.9647887,144.46927
1.9827642,143.57855
1.8298104,146.6163
1.7842984,142.58742
1.8598313,140.89662
1.845181,139.60945
1.8029982,137.85645
1.8134137,137.34302
1.7400602,134.01367
1.6222242,133.61584
1.6723385,133.35033
1.6096762,132.21684
1.5174009,126.402176
1.5887041,123.76782
1.5186235,121.09466
1.5214704,119.733536
1.6396253,118.74128
1.4178177,115.009674
1.4570727,110.8074
1.4583132,111.80783
1.4677768,108.34628
1.515727,103.92751
1.6037891,107.25956
1.4180529,97.676796
1.4378811,98.251945
1.4233379,96.63349
1.3408743,93.08427
1.3039265,91.570816
1.1936369,88.57357
1.1529175,88.65987
1.0685323,83.223274
1.1215858,82.53201
0.99432635,77.13601
1.1151994,74.281204
0.9006093,73.266754
1.0062445,71.87983
1.0106668,69.34535
0.93612164,64.98265
0.8949285,66.331474
0.92822504,60.154694
0.9002458,61.538387
0.8288846,57.969826
0.9528854,56.735817
0.8440577,57.549274
0.8100665,52.39336
0.9886808,51.433693
0.77371395,47.50328
0.7549808,50.94289
0.77496165,48.068756
0.6203614,49.59412
0.5744331,47.38081
0.58452237,46.376076
0.61297286,49.259655
0.5211268,53.698105
0.5924588,53.485622
0.47134334,56.39782
0.52423775,52.66637
0.62084544,58.903408
0.5336497,60.165436
0.6346168,66.47951
0.66652745,67.156975
0.6711053,67.65131
0.8258569,73.865135
0.90878516,81.70205
0.9412015,81.513084
1.0604023,84.91932
1.0744212,93.43572
1.2037973,96.85088
1.3277551,100.06692
1.4877732,104.471664
1.4940596,108.71871
1.6517501,110.377525
1.744974,116.94982
1.705148,116.5987
1.7799242,125.45656
1.9078832,128.88188
1.8026744,132.24742
1.8715342,132.1455
1.8964852,135.68674
1.899457,136.4637
1.9828364,137.7088
1.9128429,142.60274
1.9606769,143.55608
1.8337269,143.35281
1.9628555,142.53235
1.8371828,141.32515
1.819159,143.36249
1.713803,141.1938
1.8169234,140.4014
1.7536789,139.29906
1.7114469,136.24582
1.6342759,137.84888
1.5387238,137.15799
1.6121409,134.48633
1.5656375,130.39929
1.4219686,129.45514
1.5292509,129.05959
1.4699244,126.11412
1.4669317,121.01266
1.3745494,121.90699
1.3517017,116.65439
1.313009,113.96459
1.4062365,112.086655
1.3530976,107.6863
1.3420336,106.63502
1.343438,109.15177
1.165448,103.895836
1.1791316,104.79624
1.2489749,97.28807
1.1846498,96.87981
1.194582,90.90558
1.0665227,93.46158
1.011459,90.41059
1.0282004,88.5083
0.9460084,83.031975
0.8708178,81.332565
0.8381442,77.34408
0.8533998,75.56549
0.76827157,75.16424
0.77317417,72.96331
0.8715682,69.36546
0.7813246,68.71924
0.80023366,66.80558
0.7537613,63.21188
0.7004133,60.386044
0.6239349,58.01633
0.60694736,57.63862
0.5908312,55.01268
0.58490056,55.417015
0.5947219,56.334187
0.6533516,51.7875
0.5800912,51.603683
0.42054218,50.769627
0.40911838,50.38338
0.3396112,49.325596
0.38505775,48.562782
0.28118297,48.65523
0.30751437,52.30568
0.36201692,52.81475
0.21355867,55.349216
0.33902964,55.95178
0.13552529,58.881386
0.21843942,62.276855
0.27297613,64.93005
0.35368806,65.1094
0.45714143,70.105255
0.49963024,71.345436
0.6631345,79.12585
0.70238674,80.76693
0.72807,87.85173
0.8242034,89.32166
0.9394438,94.78259
1.0622545,100.43051
1.1769214,101.354774
1.2225673,106.59032
1.2709254,109.21614
1.4155419,114.78336
1.3702619,119.71777
1.4088104,121.941734
1.4449315,125.47902
1.4396887,129.28815
1.7211701,131.75006
1.5576186,132.34796
1.6691805,138.13853
1.6025902,138.17892
1.5971295,141.6531
1.5425503,144.24165
1.486251,143.74121
1.6027662,143.32649
1.5617859,144.08282
1.4964253,143.6054
1.5252733,141.69698
1.555939,142.06676
1.50856,139.85616
1.3341233,141.0881
1.4002386,135.08125
1.3749092,135.63095
1.3200003,135.6487
1.1835396,131.25993
1.2260551,128.31557
1.2101933,130.49365
1.1339465,124.96242
1.1059152,123.305855
1.0975646,121.418495
1.2131752,119.13832
1.1290599,118.58885
1.0226328,112.969604
1.0240818,110.63528
1.008074,110.73637
1.0274676,106.782974
0.93986785,104.49227
1.048489,103.54757
0.9423548,100.268196
0.7683844,96.00881
0.8591035,94.30915
0.82895356,91.81296
0.67124885,88.551476
0.65339106,87.89964
0.68645185,87.12863
0.73802507,83.1467
0.6698237,80.74837
0.5886363,79.27975
0.48998994,76.78752
0.5807758,73.80657
0.409841,72.74688
0.3467077,69.05146
0.40268266,64.42775
0.46519038,63.915264
0.4475897,64.92536
0.40936255,59.944805
0.41140327,58.32554
0.41051334,55.801598
0.34017178,56.206215
0.3995744,55.543854
0.38714343,52.42248
0.2263901,51.147884
0.2413517,53.761333
0.23918392,51.787704
0.18173309,49.413837
0.09492289,47.110245
-0.0073570977,51.18678
0.07160224,50.803516
0.009102929,51.799454
-0.061322425,52.82021
-0.059134625,57.64763
-0.024830183,58.272675
0.12482718,60.922024
0.03010243,64.05197
0.00029966852,65.447235
0.1494718,66.42397
0.18860826,71.4944
0.27062958,74.34446
0.5007527,84.448845
0.6285097,82.93241
0.6517602,88.153465
0.7827977,93.973206
0.7487593,96.3998
0.9213958,102.366806
0.91882455,103.410805
1.1267118,108.5646
1.1822714,114.02625
1.2114097,118.963684
1.214652,123.97001
1.3757167,122.09926
1.2914648,126.22999
1.3540285,129.25504
1.3175229,134.65306
1.3911458,137.03067
1.4104187,141.14035
1.330151,140.05911
1.3447529,142.80975
1.4066157,143.42072
1.4036474,143.69777
1.2373444,141.46596
1.3365566,141.1577
1.2517301,144.62413
1.3624501,136.0485
1.1596122,139.85368
1.2653829,138.69257
1.1778449,137.3053
1.0482001,137.74661
1.1164172,134.35652
1.1019312,134.211
1.0510051,126.817154
0.9749729,131.5996
1.0441989,125.938034
0.9093792,123.05234
1.007164,123.842575
0.88544035,118.941284
0.8678407,114.00522
0.89415336,115.611855
0.8678781,110.41679
0.8929752,109.71606
0.90064424,108.9878
0.76512223,108.01013
0.87139976,101.5208
0.876355,99.57426
0.8847984,98.81883
0.603861,94.11779
0.6915861,90.9882
0.6699615,88.56357
0.6313466,88.60453
0.54615295,87.76729
0.4843793,85.58205
0.5201705,80.97548
0.27482918,79.66308
0.35194504,78.11775
0.39082178,75.75238
0.3849989,72.55771
0.335292,69.20525
0.40425664,70.38336
0.27656266,64.859276
0.2939596,61.08782
0.27530393,60.80347
0.40528017,58.24564
0.21794789,55.956913
0.3102422,57.366024
0.2814714,54.93295
0.2896013,54.46166
0.25008824,52.59576
0.27226126,52.85914
0.3125625,50.575226
0.25609145,47.821644
0.08676731,47.37913
0.02924481,50.94965
0.026269684,48.51295
0.01551401,50.84947
-0.0170543,52.1551
-0.11573989,53.341133
-0.013773632,54.216408
0.025614047,58.19493
0.10317737,60.46732
0.15181765,64.23351
0.1545006,66.21857
0.15928411,71.136
0.3184069,74.786804
0.36176756,77.82173
0.56130254,81.836365
0.6082668,86.37871
0.717543,92.30424
0.833312,94.04761
0.85822666,98.418335
0.930919,105.655525
1.0405505,107.42771
1.1350917,114.184586
1.1906376,117.46141
1.301691,120.21513
1.3991361,123.35355
1.3842062,127.95117
1.4002199,130.99777
1.2899468,135.48145
1.4281372,136.58496
1.5063959,137.51228
1.4462484,139.49583
1.477108,139.262
1.4312038,143.09476
1.4907762,144.22011
1.4512731,141.6673
1.4615161,142.01688
1.4441352,145.36844
1.3000518,139.67282
1.2730865,142.08203
1.3410908,141.7661
1.326313,137.6109
1.3080149,138.63882
1.2612402,135.55031
1.1091794,131.14516
1.1884823,128.88799
1.1373099,129.71283
1.1323346,127.60105
1.1591164,124.8138
1.1426685,123.67627
1.079602,122.27526
1.1260343,117.655266
1.068023,114.12656
1.0278991,111.17858
1.1333286,106.95205
1.1770997,106.482376
1.0382802,107.89209
1.0454227,102.82996
1.0042226,99.87121
0.9217378,98.768456
0.852534,96.41348
0.9083207,94.706985
0.7682699,93.64988
0.7385793,89.665306
0.8255062,83.67301
0.81198776,83.486176
0.82062095,81.78746
0.6564188,77.25832
0.5937237,74.95942
0.57057196,76.37813
0.49306154,69.46155
0.5273835,69.760376
0.59170514,67.50021
0.5764418,65.451645
0.61298543,62.97746
0.47186,63.04911
0.5417022,58.977463
0.6233602,56.050934
0.5087284,53.54082
0.500659,53.029087
0.5014892,51.749893
0.49617356,51.946575
0.5190725,51.052933
0.42979306,50.161804
0.5098629,51.126373
0.34010226,51.001232
0.35656807,49.258137
0.3315494,47.336864
0.30310303,52.936005
0.3086565,52.838707
0.2516766,54.420547
0.27082235,51.269478
0.24923684,60.842342
0.30695623,62.234455
0.39154467,64.10466
0.32469857,66.20916
0.4395431,72.142494
0.5448516,77.11399
0.5736023,75.306335
0.78029543,81.44095
0.76477283,87.24479
0.9166235,91.5577
1.0507892,98.42673
1.117007,101.0507
1.1989062,103.377716
1.3086286,110.94956
1.423161,111.656136
1.457218,116.360695
1.5208145,115.82147
1.616725,122.05973
1.6375798,127.003845
1.6360807,127.883385
1.6103706,131.14156
1.8010408,133.44086
1.8982447,137.28906
1.7222695,138.4645
1.8318244,137.92464
1.7104847,141.87837
1.8706862,143.36569
1.7528248,143.39615
1.7957095,142.49004
1.6715071,142.75084
1.7280105,142.3349
1.613728,140.62494
1.7147362,140.74573
1.5769663,138.51408
1.5823412,137.28172
1.626804,134.8517
1.6611155,134.8424
1.4664011,130.8034
1.3803798,130.94722
1.3961327,128.24733
1.4161109,125.69808
1.4754814,123.42261
1.4739714,121.61305
1.410767,120.04631
1.4214765,116.89678
1.4167428,112.64663
1.4509951,113.05375
1.3576509,107.26553
1.3138229,108.640785
1.3544083,104.262764
1.3532386,103.94637
1.3450701,98.44557
1.3108708,95.69906
1.1857694,97.16207
1.243061,93.77841
1.184071,90.22187
1.1617514,86.029594
1.1050926,85.13759
1.0650464,83.983505
0.8333397,80.19485
0.9200105,78.9959
0.96976423,75.62626
0.9016702,72.17831
0.86934876,70.58688
0.8898107,69.188614
0.86275804,67.12784
0.8553622,66.28228
0.900679,62.92746
0.965253,60.224216
0.8498245,56.722282
0.9448526,56.560326
0.85345566,54.830082
0.78761005,54.70367
0.77601945,55.502007
0.74769855,50.108227
0.7227187,47.027832
0.7292545,50.107212
0.71072036,49.048206
0.588735,47.66152
0.6232304,50.688984
0.54212433,48.086815
0.57629657,51.12045
0.42244497,53.731388
0.50201607,54.33861
0.42233482,58.32395
0.52779216,61.127945
0.4734462,61.760994
0.66287315,63.69852
0.64970165,69.90411
0.78610253,68.76406
0.8525465,78.815155
0.9753287,82.20786
1.0998186,86.30143
1.1891493,88.41264
1.2230084,96.862526
1.32088,97.15994
1.4148262,102.75663
1.5581154,103.90899
1.5997431,109.25523
1.7119348,113.34129
1.7071342,117.77595
1.7485021,121.7495
1.8315699,126.20121
1.8990177,128.99051
1.831091,130.70508
2.0257828,132.95558
1.9692878,138.60683
1.9878376,139.12242
1.947845,137.03667
1.9569609,139.0309
1.8519579,140.1919
1.9865628,143.03012
1.91889,144.49251
2.0590389,142.16974
1.9101284,141.8207
1.8511637,143.39636
1.8674583,140.34114
1.7791476,138.72653
1.80407,137.57672
1.6062565,136.71712
1.716735,135.0811
1.6346949,133.464
1.5514625,131.98734
1.6729238,127.9786
1.6967256,126.089226
1.6356634,124.143
1.5955784,119.457436
1.4435778,120.05062
1.5280818,116.0766
1.4796916,113.89241
1.5533226,115.31158
1.5256757,110.34653
1.4753252,109.73562
1.5154011,106.95565
1.4432667,99.29578
1.4425731,101.61287
1.3576962,95.605576
1.3943555,97.27998
1.3995532,96.032616
1.1888766,90.80951
1.1999073,88.427185
1.1345882,86.00344
1.0727904,81.26365
1.0820059,81.14605
0.99404156,75.97099
0.97096324,78.02589
0.92816454,74.56782
0.9603223,72.75405
0.9419004,68.89256
0.8768353,67.30117
0.91896063,66.19968
0.86653703,61.567917
0.83405393,62.950214
0.9069264,61.61064
0.95917803,55.45326
0.9969494,53.82768
0.9101839,53.58152
0.7711838,49.75896
0.8486839,49.84727
0.8008106,50.632523
0.69359946,48.594616
0.6998879,50.486526
0.6193598,48.01986
0.6425115,51.436527
0.6097906,48.348625
0.5037495,52.08599
0.5955552,53.80816
0.47262102,56.45306
0.49344167,56.74428
0.5286306,62.163136
0.48215201,61.076954
0.62767404,65.206276
0.5824252,71.05448
0.66828847,71.42827
0.8095036,77.34498
0.89499587,80.06069
0.96141595,83.59261
1.1092024,88.37234
1.1574506,90.99149
1.4123023,96.833824
1.2932569,104.57848
1.4480621,102.80026
1.6425823,110.198105
1.5623724,114.596565
1.6471533,117.08104
1.6637869,122.77336
1.7797627,127.42032
1.7624457,126.17195
1.7958996,131.18956
1.8355297,131.10893
1.9447404,135.87566
1.8133098,139.13556
1.8816772,142.2361
1.8507514,140.31488
1.8537261,142.18706
1.8716282,140.341
1.8830639,142.45161
1.7786545,143.84883
1.8201135,141.75542
1.7771317,139.78835
1.6820344,137.27786
1.7437682,140.4466
1.7110845,140.15273
1.6122314,136.47331
1.6031101,134.51057
1.6280452,131.64667
1.4552921,128.87996
1.4859039,127.60726
1.4508455,125.12504
1.3879508,125.746796
1.3859005,123.421394
1.3838469,118.51947
1.4478832,115.14725
1.3864611,113.096405
1.384459,111.08073
1.2041068,110.560295
1.2951254,106.485214
1.3013071,107.76074
1.1941991,104.52208
1.2758532,98.78148
1.2065854,99.93074
1.1539687,95.7578
1.098197,95.70376
1.0270629,91.971855
1.0739174,90.241234
0.9793299,85.31625
0.9185188,82.41252
0.927913,79.17218
0.80140877,80.679344
0.82648253,76.88834
0.79016554,72.27053
0.7410727,70.41135
0.5915129,69.65486
0.6380785,66.397736
0.70416856,62.839798
0.67314893,64.342445
0.6660255,60.86285
0.76027393,57.766407
0.61217946,57.53874
0.6211559,52.52254
0.6219672,50.122143
0.5338461,53.445892
0.5667054,49.74374
0.531236,51.24356
0.4787233,49.10336
0.43900973,50.80174
0.47268033,49.87575
0.36597538,50.25168
0.31118524,49.748806
0.30691466,52.178223
0.19333829,51.559742
0.18026654,57.7473
0.30533588,57.05955
0.10405154,60.400158
0.2840516,64.63872
0.3358341,63.16676
0.31753275,68.42024
0.40251985,70.49312
0.48440132,72.48251
0.67786616,75.976204
0.77839255,82.699814
0.8635753,89.94965
0.8796827,92.02272
0.9806969,94.85673
1.0981469,100.38124
1.2498974,101.606514
1.2548511,110.12987
1.2825344,115.17437
1.3558116,118.46283
1.4518104,120.22138
1.420638,124.71655
1.5676199,127.595634
1.499135,131.60231
1.5267615,131.76572
1.5493464,133.90675
1.5039449,138.87991
1.5250659,139.47995
1.4651691,141.82748
1.6057396,143.92075
1.5775936,144.03487
1.5860635,140.9979
1.5748922,145.85716
1.5268962,140.24034
1.4609421,146.98177
1.3894386,139.32643
1.4248134,139.30515
1.3684595,140.99083
1.3831489,136.60371
1.1886132,133.62485
1.2717284,133.55623
1.2025139,132.11172
1.1846849,131.44879
1.1256983,126.988945
1.2332045,125.23385
1.0946869,122.77603
1.1247976,118.84871
0.9831947,116.44906
0.9670514,113.63134
1.0503391,110.20151
1.0365186,111.3165
1.0416837,105.96764
1.0354005,106.57367
0.91450655,104.201385
0.93069047,99.44645
0.887426,94.823105
0.8502411,93.80138
0.8028514,94.53839
0.8144019,89.794586
0.6838543,88.90274
0.69702655,88.02988
0.5978829,83.14224
0.5836845,81.20233
0.5421382,80.37468
0.4275384,74.42364
0.54807186,76.632645
0.43627945,73.02028
0.35051218,71.42617
0.42092466,68.55449
0.40510315,65.701935
0.4194674,63.09965
0.4418927,59.394802
0.34309167,62.098434
0.44608462,55.3715
0.40610328,53.583805
0.39011627,54.41312
0.35678178,52.915226
0.36253923,54.559933
0.2369242,51.465107
0.16484855,47.981358
0.13996473,47.570015
0.04502116,49.05337
0.11501396,49.96505
0.025565729,50.360386
0.037023142,50.271614
0.033250716,49.541107
0.05968471,54.65645
-0.03690457,57.848415
-0.038330726,57.806828
-0.031693008,61.615173
0.042791124,62.087574
0.04953471,67.33433
0.17839359,69.35155
0.24797152,73.216866
0.2766415,79.89784
0.4694373,84.35644
0.47925407,85.00296
0.74644685,91.55056
0.6619286,96.83213
0.8304721,98.62087
0.93214417,101.46485
0.98236257,105.71077
0.99867934,112.36758
1.1777576,117.424385
1.2473084,118.16768
1.326703,122.04385
1.2422857,125.9759
1.2333263,128.31474
1.3828888,130.37587
1.2955514,137.02284
1.3724719,135.82149
1.4280392,139.54172
1.3901469,142.49643
1.4583762,141.7717
1.374768,141.6829
1.307107,141.18855
1.2791281,147.99889
1.3597558,143.48746
1.1929162,141.9835
1.2356492,141.95512
1.2272688,141.13596
1.178531,137.11667
1.0828215,140.42667
1.0426807,140.38568
1.1519697,136.88983
1.1596437,130.0231
1.0029159,131.7708
0.9554532,127.67554
0.9927245,121.32135
0.96635556,123.99075
0.88645947,117.407524
0.98204094,120.58406
1.0066957,118.513336
0.8470908,112.285286
0.9566828,108.438965
0.84176046,110.6769
0.86098313,106.14604
0.94610506,103.19775
0.8611053,100.2331
0.7774405,97.60129
0.80102557,95.61932
0.78098893,94.566895
0.64056814,92.38915
0.7245429,88.47272
0.6268397,89.66449
0.5780607,85.04543
0.5832312,80.62648
0.5070475,78.46779
0.42488202,78.1053
0.44249052,75.92908
0.31064928,72.88641
0.3608331,70.985756
0.3417469,66.77028
0.3271173,66.82228
0.48317707,66.56246
0.3268056,63.43286
0.41721824,59.520363
0.40967923,59.104282
0.37574714,53.647747
0.25561166,51.965443
0.28607747,55.7926
0.3032495,48.768764
0.31274557,47.240627
0.22357212,49.678482
0.16116728,49.02799
0.1626978,49.08302
0.105948456,48.785007
0.09636591,49.948715
-0.022324586,51.71166
0.070054255,52.359905
0.051396694,53.26846
-0.056341354,55.176746
0.021466212,56.099407
0.04198014,60.902954
0.019695042,65.593765
0.08250182,67.64382
0.2512349,68.36943
0.2383242,69.39356
0.32561103,75.08354
0.3978593,83.32933
0.55709076,84.51708
0.69201523,90.5338
0.78181714,93.14186
0.84417325,100.41976
0.92945546,101.93026
1.0380125,106.061134
1.1431377,109.60671
1.2773967,113.41883
1.3723953,118.18983
1.2355468,125.49249
1.340355,125.22631
1.355188,129.05997
1.4160856,132.41042
1.3786985,134.22466
1.5086228,137.54488
1.3777066,136.4518
1.4809768,142.97205
1.4966911,142.88625
1.3832036,141.72346
1.4882628,141.69778
1.4145625,143.96336
1.4762645,141.02414
1.4670948,136.59753
1.3708159,142.0168
1.3055239,141.73576
1.3209605,140.11546
1.3634313,139.42656
1.314547,134.454
1.2928355,134.48631
1.2967932,135.3038
1.230966,128.00389
1.0619847,128.01172
1.0810912,125.159775
1.1278418,123.18457
1.2078916,120.77227
1.0082552,117.54233
1.1420035,113.66571
1.1107515,113.54704
1.0815682,113.429794
1.0390948,106.94135
0.98911935,108.79294
1.0590894,104.22387
0.9903852,102.25133
1.0048627,99.034225
1.0655603,96.8413
0.8845163,97.2012
0.8422929,93.10135
0.9939805,90.022285
0.80251575,89.19195
0.84883994,85.08759
0.8983535,83.65685
0.70678675,82.66024
0.64134806,79.029625
0.7252547,76.70832
0.63310945,72.735855
0.64648026,71.38267
0.556913,70.63842
0.62378895,67.54291
0.54740155,64.87225
0.5861764,60.436817
0.5002242,60.43772
0.5312024,57.50799
0.5794676,55.166206
0.57245946,54.221897
0.48530835,56.583893
0.6162402,53.925343
0.537796,51.143646
0.47346842,49.463146
0.39880133,49.51851
0.3850457,49.854736
0.44236767,48.63873
0.32661855,48.507614
0.3786416,48.429977
0.41996908,47.0189
0.1857957,53.63545
0.3573246,55.445206
0.2809632,56.616516
0.26080605,60.436447
0.32011873,61.40471
0.33819172,67.42129
0.5908961,65.522446
0.48832428,71.85965
0.66844857,74.077484
0.70124435,79.72573
0.84218764,84.18664
0.910566,90.391975
0.98349065,91.67196
1.1589851,96.15872
1.2139039,101.366974
1.2656575,107.69324
1.4226694,109.56475
1.5386354,112.59377
1.5430119,116.990814
1.6645839,123.73909
1.6135396,124.99182
1.7266148,126.566216
1.7513098,130.22289
1.5994694,135.75127
1.6567578,135.92249
1.8153609,139.80206
1.7030609,140.8437
1.7424366,139.97942
1.8399769,143.43245
1.7629697,145.34785
1.7835785,144.08897
1.622517,144.47156
1.7331712,139.4605
1.7213275,140.05618
1.7035805,138.91096
1.6153255,139.38132
1.6098944,136.70459
1.6934363,136.26672
1.5748628,136.80312
1.5357454,134.1479
1.4670478,133.16226
1.5015117,127.60886
1.4825206,128.66367
1.4193769,123.47406
1.3464332,123.10484
1.3794657,121.23493
1.3780282,118.35004
1.515375,114.87172
1.243226,111.67681
1.4312702,111.19009
1.3553926,107.50417
1.3755798,104.34886
1.2288767,103.7375
1.2345623,99.15178
1.2711002,99.26429
1.2322735,96.17028
1.2574579,93.759186
1.257062,91.092125
1.1674308,86.551956
1.1148169,86.28382
1.1071967,84.397095
0.9890148,83.726944
0.94550854,79.59813
0.9467153,75.42665
0.93852377,71.907745
0.93728834,69.94244
0.848576,70.48392
0.85981065,68.49628
0.90928274,64.206276
0.80324274,63.213528
0.91862136,60.92453
0.8649357,61.070374
0.8465702,58.03726
0.88896644,54.262684
0.867359,50.771393
0.8161668,50.69292
0.7825645,51.767216
0.8181988,48.66212
0.7295166,46.425377
0.73422706,47.81799
0.62214667,53.22142
0.572766,46.94232
0.57231104,50.319416
0.5677294,55.69504
0.46075493,53.151585
0.48904532,52.832542
0.5410494,54.635582
0.59015346,61.529938
0.58074236,63.301014
0.6637156,66.50662
0.67209166,67.537
0.8294206,69.475006
0.9210285,76.40797
0.89876276,81.19621
1.0144129,82.50459
1.0859823,87.34716
1.2343478,91.50935
1.2856178,95.59152
1.4417791,101.94957
1.5270649,104.36654
1.6153557,108.762
1.6058131,113.298935
1.7588313,116.324646
1.8259056,118.62288
1.8644891,122.996346
1.8454322,125.1492
1.834157,128.49062
1.878243,131.93198
2.0029807,134.0596
1.9078436,136.77979
2.0011485,139.14313
2.022241,139.13835
1.9422016,141.51463
1.9079347,141.10397
2.0750747,141.52225
1.9119358,141.26114
1.8744338,141.96521
1.8565634,143.3234
1.896466,144.66927
1.7903574,139.64255
1.8254173,139.78468
1.827561,138.97867
1.759953,135.59863
1.6947147,132.29495
1.6385245,134.61786
1.5677394,132.616
1.6852971,129.63387
1.5215176,124.566795
1.6210412,125.45724
1.5467919,118.8552
1.5273156,116.67886
1.5318776,116.174126
1.4246202,114.99977
1.4951563,111.102936
1.4014858,111.18172
1.4562068,104.5058
1.3072207,102.514366
1.4111534,102.89008
1.4146833,99.5402
1.4387753,97.28982
1.2856982,93.36932
1.2345701,91.96444
1.2076464,89.90373
1.2158334,87.80551
1.1510777,86.11584
1.0894449,79.74909
1.0009232,80.82724
0.952233,76.698395
0.9919985,75.39057
0.9985613,71.88109
0.98767006,72.94909
0.9123499,66.85396
0.8735014,63.53075
0.860702,64.018524
0.9927154,58.471493
0.90920997,57.171135
0.8914246,58.66214
0.89316905,55.00205
0.85297084,56.281807
0.84398246,53.429996
0.7718417,47.741947
0.6982104,49.98155
0.7586926,47.5458
0.65453327,50.150757
0.6828071,50.142693
0.5874793,49.2425
0.63356346,49.207382
0.48522928,51.280502
0.5407212,51.907524
0.5655384,54.035633
0.522537,55.484035
0.532989,56.348988
0.51412445,59.458466
0.55272233,63.995632
0.6415654,66.35042
0.6795081,71.68396
0.800655,74.82929
0.85758936,77.67631
0.77230823,80.06031
1.0677222,85.05592
1.1399654,90.08415
1.2588841,95.12725
1.360774,99.434044
1.3670663,101.9912
1.5443866,105.20881
1.5894669,110.04671
1.628489,113.7254
1.6575253,122.44464
1.7773422,123.70268
1.8136982,124.118774
1.8121536,129.00113
1.7554687,131.87328
1.8274944,134.30966
1.8179057,132.57916
1.766884,138.30867
1.8711526,142.0186
1.8678806,138.02855
1.7944864,146.06215
1.9190573,145.4645
1.8510265,143.55609
1.7643287,142.54889
1.7478889,142.33191
1.7139795,142.10242
1.6972318,141.90771
1.6137308,138.17607
1.5310501,138.53346
1.6134737,134.76605
1.5804126,132.47572
1.5766596,133.24748
1.4840877,132.80194
1.3676921,125.19155
1.2891996,126.392876
1.3725474,123.75896
1.3062092,122.07415
1.2996792,116.172485
1.3683035,114.63915
1.2552032,114.36322
1.3072056,114.11036
1.268406,109.0637
1.2061497,108.80979
1.2569494,101.942184
1.1222148,100.3079
1.190887,101.13978
1.0777103,96.67816
1.1506373,97.358734
1.0333697,95.60308
1.0582042,89.96717
0.9426928,89.495155
0.9599318,85.53977
0.9354331,83.64609
0.76723635,78.7579
0.8829132,76.1675
0.7512115,77.43447
0.71449333,73.06429
0.5971895,69.81622
0.7760187,68.390816
0.67487663,69.10522
0.5703283,62.43801
0.64549416,64.50924
0.69518477,60.406414
0.72139347,56.599884
0.5591746,55.772575
0.6175966,54.258797
0.5294082,52.72347
0.55424696,54.35329
0.6506796,47.562065
0.55656385,50.092865
0.40013722,50.351814
0.46705237,50.41577
0.34661397,48.687943
0.33239052,50.899937
0.29061723,51.18914
0.34872454,52.67819
0.1876773,52.424553
0.32755932,56.135574
0.19740076,57.016304
0.33450228,61.601017
0.41116342,61.2999
0.28080466,65.87137
0.3361916,69.06883
0.44750643,73.10704
0.5748889,75.436844
0.6573645,78.38711
0.78496414,86.51706
0.7389832,86.88905
1.0021837,89.94594
1.0241028,99.08212
0.9803789,103.31947
1.1841439,106.13475
1.3939316,111.67402
1.2700146,111.66219
1.3724852,118.011635
1.3823562,121.22485
1.5088247,124.06527
1.5989248,128.6713
1.3927957,130.61882
1.628676,133.07945
1.5166655,136.1329
1.5058639,136.87668
1.52174,141.70155
1.5899075,139.6447
1.5106882,142.76503
1.4915761,142.04382
1.4875588,140.99077
1.5015309,143.72166
1.4854761,142.1328
1.3300589,141.93546
1.4051371,139.9526
1.3248708,139.31218
1.314891,138.54805
1.2013814,134.86098
1.1973995,135.92407
1.1923476,136.98764
1.2993814,131.06996
1.1626855,132.65163
1.1531339,127.67018
1.1920307,124.968765
1.0460548,116.58364
1.0949414,119.41518
1.0060309,119.764465
0.9431611,114.78424
0.9561743,113.28127
0.9201469,108.023
0.99446106,107.064476
0.9803647,102.579346
0.97451,102.277916
0.9462791,97.5673
0.9197723,97.23094
0.8062046,96.65134
0.77949965,93.13402
0.7459165,89.76157
0.67368364,87.635666
0.7002683,84.12685
0.6395971,80.54121
0.5028612,79.92282
0.5112376,79.49035
0.42986664,72.822105
0.45245352,75.70222
0.4210339,74.40176
0.31584007,67.86536
0.43455076,68.734886
0.35911724,65.52742
0.41961682,59.93438
0.33568493,60.87298
0.36708304,57.586224
0.3201078,54.99075
0.35566175,54.94129
0.25538602,52.97352
0.30929554,50.44649
0.26562476,50.206795
0.09508968,50.43725
0.13943638,50.489483
0.15423043,49.51923
0.14689182,50.7869
0.112825766,50.707253
0.068011634,48.11222
-0.009620978,52.012894
-0.0957745,52.527832
-0.07031789,52.89683
-0.12234326,58.702774
-0.031427957,58.23113
0.057445195,61.605274
0.09487443,64.947495
-0.002939181,64.56245
0.15020797,71.170395
0.27637303,73.06758
0.40494275,81.803375
0.4423491,85.10703
0.599675,88.84261
0.5751038,93.55043
0.7970512,95.95689
0.89467776,102.25863
0.90085524,103.06311
1.0108476,108.310616
1.0862088,113.69541
1.1818286,116.72896
1.2536137,120.28932
1.283913,127.88898
1.1879357,129.13507
1.1802455,131.18326
1.4464225,133.77257
1.326676,137.09065
1.3865681,141.57301
1.4611933,139.47829
1.3081734,141.88797
1.3039927,141.48503
1.4302326,143.66191
1.3943938,141.61134
1.4046149,143.30437
1.3139167,143.66235
1.2880133,144.47096
1.2613239,140.1718
1.3041515,140.84752
1.2651093,139.25214
1.2141244,137.81654
1.0447942,133.09392
1.1982341,135.065
1.0515137,131.94376
1.0513779,130.14781
1.0333633,128.57637
1.0254012,123.33791
0.9099894,120.32246
0.94902015,122.67571
0.90827036,119.14396
0.8900012,113.37219
0.86391914,115.36226
0.8467583,114.01082
0.9131445,107.62791
0.9265025,103.975365
0.8708653,100.46473
0.7609045,100.158134
0.8871303,96.05672
0.7574453,100.13233
0.76233,94.653015
0.6999439,90.43138
0.6406496,89.44976
0.6035931,86.18301
0.5987749,83.644264
0.47004944,79.1185
0.46391562,79.85252
0.4307529,75.54842
0.46471518,75.92532
0.4722,72.26859
0.39183807,70.314156
0.30453834,64.86046
0.346373,66.27166
0.38395062,61.42756
0.40381905,61.05517
0.4040013,63.049946
0.20633842,56.881027
0.3970109,54.174065
0.37351695,55.717033
0.42424223,55.24947
0.294676,52.503414
0.2715316,49.770203
0.2224231,50.251972
0.17625244,50.74996
0.18953861,49.96648
0.17428604,47.902805
0.029492551,50.377537
0.19410913,52.13936
-0.053706024,52.109432
0.03709406,50.891537
-0.025979472,55.767982
-0.12420667,55.577957
-0.005197479,59.200306
0.07688311,63.348385
0.16115637,66.189674
0.24098165,70.727066
0.36326355,75.89278
0.41583556,76.884224
0.38558558,85.25969
0.62526613,86.44528
0.5906366,89.67693
0.7471955,94.34947
0.8616782,102.40209
0.9491897,106.719475
1.0572336,107.32369
1.1604432,112.86513
1.1917883,112.52442
1.3541019,118.392685
1.3498718,122.10365
1.38709,128.95963
1.3981867,131.53323
1.5243635,133.3474
1.4462926,136.48781
1.462742,138.45201
1.5767665,140.3629
1.4592732,140.60484
1.4014243,143.7532
1.5184944,142.16626
1.4813048,143.72823
1.4857645,144.50009
1.4166476,143.21982
1.4384456,145.11293
1.4140712,140.96179
1.3411996,140.17313
1.3868965,138.75609
1.3305701,137.93958
1.3062792,135.64723
1.3152528,133.16269
1.2033228,129.88747
1.2645378,129.42212
1.3327758,129.92847
1.1054935,126.798706
1.1733261,123.32371
1.2330306,121.30689
1.1115556,120.07898
1.1547356,113.72988
1.0707692,110.8759
1.070849,113.481514
1.111344,105.17832
1.0571982,105.336555
1.0621301,105.60249
1.0605102,101.2181
1.0342387,102.757355
1.0314745,98.102905
0.9717853,93.28919
0.9295751,91.58251
0.8685651,92.33228
0.8776074,87.79181
0.78995556,84.51477
0.74464315,83.79473
0.6970954,80.614044
0.6945673,79.06974
0.66349167,73.61901
0.6282422,75.84937
0.5485642,72.42752
0.5832062,68.80571
0.6529352,66.820076
0.6158559,63.8487
0.708157,61.427807
0.66179025,59.24137
0.52974075,55.566124
0.653038,57.48238
0.62558246,56.577305
0.48466727,52.428673
0.525739,51.80011
0.56848985,49.492554
0.42549375,49.70748
0.46095145,50.587997
0.5000681,48.152225
0.44317228,47.501377
0.2206119,48.875248
0.33334622,51.65529
0.25933227,49.678345
0.27816194,51.464226
0.26626816,54.691517
0.36075842,58.560085
0.24936494,57.829803
0.4049359,64.00333
0.42160186,67.775185
0.49165365,69.55879
0.5944783,71.63877
0.6627821,78.40552
0.76469964,79.792404
0.80463344,85.57759
0.9603482,93.75368
1.0449089,94.482956
1.1425935,94.89558
1.1498983,102.53779
1.3568618,107.2863
1.4468794,111.60531
1.4908987,118.079636
1.5289735,116.85523
1.6012286,123.40368
1.6621923,123.65377
1.671326,130.3489
1.779898,132.11087
1.7475868,137.23247
1.8094138,136.63075
1.8153565,139.46051
1.8006309,139.72032
1.8807908,143.5375
1.8599483,143.35657
1.753655,143.99185
1.8036504,143.65665
1.8832287,144.09247
1.6408384,143.11389
1.6919322,140.56813
1.6494596,136.70645
1.6540493,140.29085
1.527769,137.23987
1.6687241,135.01385
1.6179231,134.71606
1.524629,134.45045
1.4581153,129.54347
1.4822186,127.996574
1.409936,128.22006
1.3901825,125.80472
1.3797296,122.70734
1.3992865,117.290375
1.435442,118.61035
1.3891641,114.96777
1.390392,111.14088
1.4456041,108.81495
1.3651909,107.5828
1.3932464,106.068756
1.3688718,100.48614
1.2131473,101.057655
1.2233635,95.62456
1.1741016,95.72635
1.1025808,93.6408
1.0762029,87.99142
1.1628913,87.67212
1.1057432,85.82469
0.9404416,85.08877
0.9949944,79.92671
0.8953582,79.49129
0.89389396,77.277435
0.9089971,72.373604
0.84045637,70.69086
0.8437062,65.736694
0.8836262,66.689224
0.93281835,63.062366
0.90327007,63.254982
0.82064474,60.738834
0.92048943,57.07856
0.85708064,57.17575
0.8894022,52.92942
0.8493247,57.712753
0.83839136,54.761936
0.72825253,52.819805
0.69340986,51.438152
0.74335134,49.08264
0.63645786,52.38318
0.53310376,48.849747
0.643317,50.548626
0.6640105,47.25024
0.5690928,50.166954
0.51129323,54.17458
0.4085207,54.789196
0.6106739,58.79191
0.49832857,56.276043
0.6246891,62.461205
0.6631452,65.57818
0.73359376,67.64931
0.79609466,74.25991
0.83805776,73.96344
0.86032224,82.5099
1.1017061,84.83397
1.2434717,88.57229
1.2070348,94.54634
1.3561924,97.67197
1.4769453,100.610016
1.6030232,104.66719
1.6318803,112.16832
1.738404,114.47589
1.7621056,116.19141
1.7440606,122.95876
1.7412143,122.02622
1.9321991,125.252106
1.7944193,130.77277
1.8455515,131.24573
1.9843212,137.68
1.9265455,137.86998
2.0438406,141.8673
1.9798639,143.64087
2.0172808,145.5553
2.0741336,142.751
1.8910674,144.67033
1.8211647,144.2423
1.9104476,142.66351
1.9433638,144.55371
1.8031188,141.4413
1.8437902,138.27084
1.8332965,138.63145
1.7833283,137.31369
1.7043443,134.20905
1.6049753,134.50446
1.7234321,133.77794
1.584426,128.11629
1.5511419,126.62472
1.5408615,124.2334
1.4789085,122.81026
1.5812778,120.772095
1.6112962,116.51928
1.4716524,115.838776
1.5151892,114.313934
1.4857454,107.38436
1.4988583,107.576744
1.368279,104.73521
1.3310428,101.1732
1.4793425,99.72876
1.3686256,97.97059
1.3010966,95.66391
1.2199531,94.76114
1.2069995,91.32808
1.2298696,87.7554
1.1845336,83.86355
1.2179302,87.14738
0.9835781,78.10895
1.0129751,79.03251
0.97539574,75.03244
0.8952478,74.510544
0.96875846,71.1851
0.9755405,71.32568
0.9167745,67.10221
0.8426552,67.84249
0.8865517,61.927673
0.8730171,59.9015
0.90987104,57.764362
0.83188826,54.937695
0.79638946,54.013283
0.69582623,52.314472
0.8079932,51.719265
0.85092247,49.266758
0.66340065,48.227524
0.699455,52.891964
0.7880588,51.113735
0.6443579,50.30018
0.55961716,51.40548
0.53549445,50.57857
0.60184884,48.789577
0.5105665,52.141926
0.55150163,54.20432
0.4177033,59.0694
0.47245088,58.419403
0.4869193,63.067265
0.60887575,63.704666
0.57526034,69.03694
0.7263105,69.00738
0.7016148,77.62193
0.8937265,78.73884
0.9116083,84.17633
1.0207105,89.19662
1.197132,95.78916
1.2610971,95.17337
1.3560511,98.83799
1.3906571,105.38382
1.4296736,110.80072
1.5044842,113.30741
1.6801056,113.29119
1.7655652,120.5711
1.5733614,123.889626
1.7209607,124.399414
1.7535373,129.83345
1.7357755,136.1966
1.8732704,132.26607
1.9474618,134.98233
1.7839075,141.73317
1.8067116,141.32738
1.7831814,139.99828
1.9087869,142.36589
1.8380791,141.82689
1.7919711,140.2788
1.7960324,142.70284
1.6810914,140.52347
1.6714802,138.21791
1.6581546,137.56825
1.6428405,138.45833
1.6127795,140.35226
1.4770198,133.6861
1.5951161,131.21739
1.409849,130.7101
1.4040457,130.58249
1.4939593,127.79547
1.4179097,121.6352
1.4007827,123.55842
1.276515,118.70849
1.2574761,116.71052
1.3370457,118.14919
1.2233119,116.52659
1.326853,107.75839
1.3398757,110.30407
1.2214094,107.75466
1.2341336,107.00966
1.1788914,100.2289
1.1490214,97.284805
1.1268969,95.0979
1.1565455,95.05504
1.0144858,91.23405
0.960888,87.762955
0.9485285,88.49577
0.8965515,84.65283
0.8161237,84.12224
0.85865265,80.29286
0.7407729,77.010925
0.724433,72.02806
0.5753991,75.81808
0.63158405,69.21567
0.63115793,71.13899
0.68898207,65.155525
0.6327753,61.576538
0.6825957,61.030113
0.6888576,59.723938
0.5987513,61.267193
0.60932326,53.288383
0.6887855,52.68974
0.5337369,49.957172
0.5182736,52.484856
0.5130386,48.367054
0.3970541,51.211235
0.4462781,49.56452
0.48662022,49.288536
0.33728293,48.69257
0.35389397,50.563747
0.266659,52.48312
0.20465323,54.757263
0.1817895,52.607136
0.13692111,59.106964
0.25322586,55.35338
0.2521931,63.737675
0.23958479,63.949963
0.257913,66.29095
0.48297796,70.27304
0.512512,72.497635
0.47854835,77.30645
0.5409017,83.819466
0.797165,88.56709
0.86014557,89.87808
0.94479626,96.118286
1.0778902,98.52088
1.1140482,103.828835
1.1279805,106.754555
1.3099973,112.496635
1.366422,117.1208
1.3375553,119.160995
1.4013104,124.40909
1.4326717,128.1445
1.4543217,130.76224
1.525888,132.71571
1.5659866,137.35114
1.4475683,138.74995
1.6034677,138.03746
1.4696809,143.54555
1.4771123,140.38686
1.5609277,145.49582
1.468052,140.75769
1.5093577,141.63782
1.4475226,142.76656
1.432714,140.58035
1.4706582,139.44879
1.3719457,138.43822
1.1825659,138.81177
1.3878628,136.8062
1.3019505,135.763
1.1810802,137.62798
1.1832488,135.79677
1.1193551,130.50043
1.0949414,128.18744
1.1161102,123.170685
1.0831372,120.330246
0.99569714,117.922775
1.0852816,116.468346
1.0878545,117.17848
0.9851273,111.521126
0.99989474,110.63953
0.87230664,107.70779
0.9793202,106.8482
0.88432485,102.530426
0.90391237,103.15033
0.82170796,99.14138
0.8150075,96.471664
0.85393816,93.77919
0.69470876,95.601845
0.7057975,90.1789
0.6148223,85.58323
0.57469356,85.8409
0.61887485,78.92537
0.5379177,82.33666
0.43759707,79.624886
0.4529024,77.87178
0.49012646,73.74781
0.30812392,69.95992
0.44512558,68.966774
0.4819303,67.60741
0.32298586,64.171036
0.35455045,62.858253
0.44217783,57.662792
0.41596055,60.373646
0.25635278,57.926495
0.28797618,54.391033
0.33508536,53.08959
0.24265803,51.36768
0.288895,49.533207
0.27299446,47.37368
0.18705927,50.075237
0.059737794,48.23601
0.22693552,50.17922
0.055187047,50.73799
0.00630385,50.562805
-0.006928814,49.207794
0.03817475,54.971592
-0.058283664,55.74221
-0.12429059,57.045288
-0.09224806,60.06808
-0.031190852,63.798016
0.04398895,65.391914
0.11027342,70.300514
0.12571026,72.17743
0.22345814,75.325424
0.52814937,81.10595
0.54321533,85.33755
0.59835726,87.83197
0.79156095,92.26272
0.8606222,98.782135
0.92257214,102.94139
0.9473098,105.90853
0.9889348,114.20596
1.1332814,116.26546
1.0516323,115.9556
1.209911,122.219986
1.3083833,127.196045
1.2227004,129.09975
1.3300439,131.89957
1.3110559,132.89915
1.3005432,136.54575
1.303745,138.39783
1.4621902,140.38664
1.2491387,139.89122
1.4033848,141.10304
1.447019,148.28699
1.3811222,143.11247
1.3955529,142.90932
1.3088948,140.00958
1.286016,140.3439
1.2014195,140.43117
1.1365948,138.78008
1.0965403,139.0493
1.1893421,135.86703
1.0690659,136.60507
0.95747423,132.54546
1.0935627,128.41496
1.0478587,130.10265
0.9546922,126.59238
0.97601306,123.48014
1.0340862,123.252785
0.8705713,118.37007
0.8982665,121.277534
0.9985765,111.552925
0.8958297,113.79662
0.8045586,107.922615
0.90190995,108.66436
0.8525487,106.04046
0.8700554,100.45832
0.89278424,98.074
0.7375425,96.673584
0.69881994,91.71689
0.74004436,93.267395
0.66900873,88.668144
0.6799347,90.62938
0.5865753,84.28285
0.60418904,83.48853
0.52297616,81.81907
0.47279066,78.16766
0.50296736,77.89527
0.48771825,72.087074
0.46830833,71.78953
0.36771652,66.42775
0.42296898,68.00587
0.41090447,64.952034
0.35205987,61.826126
0.37327227,59.487553
0.2095133,56.951694
0.4305562,57.180233
0.36190918,53.45022
0.2985687,53.038982
0.3482634,52.827103
0.32308447,49.643
0.23462948,50.77832
0.21935943,48.740765
0.256576,47.988113
0.07233049,47.698517
0.120773725,49.317146
0.117361575,49.349445
0.09521103,52.868946
0.050065782,54.42172
0.04523013,55.143894
0.083439395,56.152996
-0.010930568,62.22048
0.1726136,62.69615
0.21966827,64.58255
0.25497442,68.484344
0.29222676,72.77956
0.47008145,74.33923
0.45161292,79.251274
0.5033612,83.412994
0.67269576,86.70044
0.7609294,96.22403
0.9248274,97.2024
0.9623157,101.18183
1.1383896,103.817696
1.0918971,109.82224
1.1070225,113.97322
1.2613022,115.04499
1.3179864,125.57384
1.3870189,125.41045
1.4681797,126.199165
1.5265127,129.6516
1.4612606,135.67111
1.4768126,137.75723
1.5525013,140.26474
1.4588258,139.85683
1.5914514,139.44977
1.5082462,143.17493
1.4954077,141.3572
1.4807905,143.50516
1.5299257,142.62064
1.4598533,142.80298
1.5427386,141.83798
1.3830866,140.35379
1.4606462,140.15768
1.3494383,138.6445
1.3303422,136.42265
1.3083814,132.77014
1.3180372,135.64038
1.2125564,131.19508
1.2303667,132.18819
1.1604335,127.73577
1.1652951,123.64098
1.0898182,120.633606
1.1198448,118.58158
1.1395603,116.82072
1.1261079,114.910324
1.0526577,113.02958
1.0201372,107.46991
1.0602127,108.06923
1.1042252,104.261696
1.091749,102.81397
1.0033218,99.541405
0.9731731,99.07157
0.9700515,97.51757
0.9328978,94.44024
0.9578245,89.42484
0.8813161,90.04068
0.8434232,89.257484
0.761552,82.883026
0.85927016,83.882744
0.7096642,79.218094
0.6318365,75.509636
0.69106704,74.233
0.6950639,70.38113
0.68626004,70.539055
0.60683453,67.21309
0.5535118,64.73259
0.5780298,65.2288
0.7496878,60.291573
0.5725418,56.498276
0.7386835,55.49031
0.5661929,56.73224
0.57675785,55.09534
0.6288296,51.078804
0.5054593,52.969284
0.59186316,48.926144
0.53105587,51.698814
0.49677253,48.7734
0.469224,47.30186
0.35552022,49.708797
0.44600424,49.78153
0.34614903,53.80903
0.27506894,52.593052
0.3116172,56.201912
0.29924038,59.087593
0.27602875,61.82955
0.3193909,59.74538
0.48638517,64.0893
0.56876403,66.47855
0.64473975,71.970695
0.7926699,73.35203
0.7158155,75.92391
0.8314809,86.001335
0.9440365,88.754524
1.0446147,93.54729
1.117488,96.09633
1.2100165,101.233955
1.2214793,103.890015
1.4315263,111.207115
1.4888458,113.92702
1.5388738,118.50723
1.7123668,122.13171
1.6409057,121.908165
1.669327,128.83089
1.6413255,128.30556
1.8050954,132.16745
1.7142111,136.50558
1.7866632,137.02345
1.7105137,137.08488
1.8944745,138.13336
1.7739583,139.6251
1.7480412,141.7285
1.745574,142.01826
1.6697587,142.74252
1.7700046,140.05038
1.6879038,140.63853
1.6567488,142.81943
1.7259529,141.28653
1.6421022,138.46715
1.6593266,135.85538
1.5812899,133.61632
1.577819,132.4855
1.5772574,132.99507
1.4735043,127.93549
1.5646484,124.93614
1.4071232,127.45873
1.4127297,123.8019
1.414676,121.49977
1.4903744,117.98796
1.4121963,117.031364
1.4530056,113.97116
1.4293385,110.286316
1.4605291,110.7296
1.3581364,103.66231
1.3484066,103.75111
1.3368412,98.552475
1.3943167,98.47235
1.2450131,92.82943
1.3689592,95.09153
1.1671532,94.12932
1.168017,89.246445
1.2027576,87.337685
1.0920705,84.40927
0.94082665,83.94987
1.0530665,80.5963
0.98909587,78.93035
0.9494782,74.44542
0.9621554,72.82727
0.8766599,71.382904
0.78620684,70.822395
0.8866448,63.784916
0.91680545,61.91766
0.81846315,60.213814
0.95477843,56.97972
0.9071193,56.95473
0.9405507,56.08652
0.88652134,54.784893
0.8305092,52.246494
0.86538154,51.173996
0.78488916,52.955017
0.7994854,48.900078
0.6652883,49.644417
0.7510213,50.94244
0.5607645,50.659588
0.6692553,49.77642
0.6375222,50.34453
0.4986058,51.395657
0.5378158,54.96429
0.4256819,53.977867
0.5741201,60.22771
0.6212202,60.88641
0.52718765,66.19855
0.6062757,66.64643
0.68578804,67.667145
0.7723671,72.66564
0.9406543,78.306145
0.96493995,84.27368
1.1033115,85.77052
1.314017,90.684074
1.2152538,93.66671
1.4541361,99.03362
1.5590717,105.75845
1.5450006,106.7078
1.6153212,111.715866
1.760586,117.44763
1.7446494,121.47544
1.8504325,122.99029
1.8899063,126.58009
1.9112558,130.35854
1.8561805,133.08568
1.9732254,135.20233
2.066217,136.16562
1.9466268,139.44377
1.8881286,141.90952
1.9360652,140.05676
2.0294328,143.78497
1.8800167,142.1911
1.9412855,143.2143
1.9294391,144.23047
1.9443591,140.87457
1.9217013,141.83757
1.8056781,141.38733
1.8056198,142.46631
1.7770532,136.48784
1.7026356,135.69229
1.7416193,133.40623
1.7209121,134.26987
1.7012343,132.09946
1.648088,128.68024
1.5106497,123.02868
1.5235995,122.65709
1.5853994,121.52194
1.5071244,119.19122
1.4878712,117.36024
1.409316,116.67948
1.5038432,109.90533
1.448745,107.57872
1.4879862,107.34151
1.3919321,103.07618
1.397924,99.18113
1.4304637,98.24473
1.2948873,97.29447
1.2879964,97.54193
1.2911305,91.78218
1.1646668,91.60552
1.1595474,88.72256
1.1314721,83.45254
1.0350794,83.543526
0.9939339,81.975044
0.99678075,76.64246
0.9525514,77.911476
0.92873675,75.2637
1.0008765,74.1705
0.8616296,65.99985
0.94074273,68.60323
0.94741374,64.20573
0.86285186,62.043144
0.8759153,59.936413
0.81464267,58.11298
0.8665471,54.292225
0.8574022,54.295185
0.82859886,53.607147
0.74072284,51.439556
0.758941,50.67015
0.60864854,50.555588
0.6785141,48.024258
0.63385856,48.9331
0.573197,49.885986
0.5853241,51.635677
0.47147945,49.842365
0.46985927,52.476032
0.42777327,51.21263
0.45062244,55.564636
0.44370112,59.11128
0.43016264,56.022835
0.606427,61.740025
0.6238016,67.26317
0.70086807,69.32637
0.7151168,74.40401
0.78960264,77.83616
0.83688205,83.63951
0.98656166,84.20732
0.99013466,90.75898
1.2194102,94.62647
1.2200606,97.83426
1.3003411,101.73546
1.4866053,107.830605
1.5203884,109.258415
1.4917744,114.0259
1.671765,119.195816
1.7396566,118.819275
1.6768643,128.37668
1.7384275,127.93725
1.802132,130.06271
1.8799111,132.07109
1.8014257,137.87381
1.839092,138.70137
1.8468678,140.04121
1.8027275,139.38197
1.8759938,141.95334
1.7947161,141.20222
1.71213,142.95981
1.7711785,140.74345
1.7088848,143.49185
1.7229295,139.4055
1.6677758,138.59602
1.6991079,139.45222
1.582377,136.6009
1.5027124,134.3057
1.5265989,133.33762
1.44389,133.20782
1.4062566,131.36255
1.3341949,130.9384
1.3237256,126.65235
1.2548097,121.34395
1.3217673,121.47842
1.3132745,116.759995
1.2454485,114.6839
1.3257238,112.061035
1.3044199,109.481255
1.2186948,109.813576
1.2810469,108.86713
1.2093738,108.617516
1.226507,100.21692
1.109535,101.921776
1.141879,95.35223
1.0755029,95.171135
0.9923838,90.7365
0.9702152,93.88876
0.8992916,87.969475
0.8686059,84.520836
0.7376131,82.45397
0.7585608,81.48635
0.78355724,81.470184
0.7475382,75.48333
0.71575654,72.230415
0.5942928,70.75825
0.63772756,69.82962
0.61484855,63.025322
0.6639465,67.39991
0.6075903,62.485153
0.63767153,59.87874
0.5647828,56.972565
0.71217805,55.91032
0.6010866,54.25754
0.64326215,52.544937
0.4996621,50.746956
0.52883035,49.418266
0.4621755,51.977
0.5186505,49.52527
0.4101356,50.67422
0.3360281,51.346214
0.24479347,51.551914
0.415353,49.944523
0.15985017,48.602398
0.17440961,55.477654
0.23039502,54.537506
0.100183636,57.393497
0.178871,58.889565
0.17995125,61.917343
0.28795174,64.19375
0.43246514,72.907036
0.32488358,71.67544
0.47150752,72.733475
0.57577795,77.77981
0.68701744,82.28395
0.7635201,88.04803
0.82310903,91.219765
0.943137,97.423485
1.0078707,101.90076
1.0705974,104.43024
1.1528963,108.55743
1.2817495,114.66578
1.307534,114.65274
1.3141952,122.62729
1.3608898,123.64945
1.3840618,125.81691
1.4534045,131.03264
1.585579,135.85176
1.4926215,140.09122
1.5055851,139.69437
1.5007745,137.96196
1.5343283,140.45634
1.4534453,143.5875
1.4993944,144.04974
1.5176418,142.21638
1.3644353,141.71892
1.4353429,140.05309
1.405445,141.04665
1.3641181,142.35114
1.3099384,139.68777
1.2994624,137.61186
1.2045707,136.3054
1.1741538,134.41426
1.1557385,130.05946
1.2809908,131.86562
1.1271937,130.66556
1.0832899,128.20084
1.0744872,126.02917
1.0673887,121.11519
1.0669482,118.57607
1.0307254,117.39612
0.99093187,112.94004
0.92337304,111.96483
0.9846452,109.71803
1.0445068,108.78643
0.8972614,107.49571
0.81160355,103.48402
1.0562892,98.66556
0.92289543,97.71617
0.81108004,96.3568
0.7320841,94.814545
0.7888231,90.74123
0.6438501,89.78549
0.64563787,87.764244
0.5815888,82.75427
0.52401054,81.75031
0.5034711,78.6932
0.36431047,74.98082
0.54236895,74.92719
0.42047608,71.381454
0.42576423,70.634026
0.3185853,70.3688
0.477112,66.837524
0.36412865,60.507908
0.37504452,60.769592
0.18033373,59.672756
0.3975351,57.48438
0.34570074,52.435947
0.34492174,52.56365
0.2729447,52.264893
0.28405437,52.932777
0.2509754,47.91114
0.18311788,48.36626
0.18531625,53.881626
0.087946944,49.730095
0.043766398,49.32346
-0.09960814,50.169212
-0.031224053,49.671883
-0.0062523307,55.139725
-0.06504527,51.972004
-0.098312765,57.392868
0.044104006,58.84691
0.017418345,63.594
-0.0072265766,62.365936
0.04643953,65.541374
0.10962735,70.293655
0.2717137,76.723175
0.29544988,75.24153
0.41111153,81.83108
0.57721496,84.94595
0.5970111,90.14086
0.6986676,95.66269
0.8043052,98.77274
0.9169504,103.3547
1.0729786,110.39858
1.1196588,111.97276
1.1068279,115.580536
1.174347,118.27884
1.178566,124.052795
1.2512735,126.37189
1.334201,128.08827
1.2666903,130.7188
1.4002402,136.00952
1.362071,140.57806
1.3826147,139.46027
1.3328053,142.0182
1.3793936,141.74246
1.3839233,143.30406
1.3947935,141.07266
1.3894144,143.36438
1.4449669,144.31752
1.3170781,142.15828
1.2608258,143.17914
1.3072896,141.38428
1.1996529,137.63997
1.0695423,137.19005
1.1660476,135.17949
1.1205237,133.88388
1.0275992,128.49075
0.9897841,131.78474
1.0986501,126.67599
0.9931446,126.973755
1.0706604,125.00806
0.97230816,120.115204
0.9466604,121.377754
0.9156044,116.2854
0.87914056,115.62212
0.9029589,111.04078
0.88786507,107.75386
0.8868346,105.98545
0.9093259,101.72196
0.730928,99.86883
0.7884044,99.58837
0.86900604,95.66191
0.7524595,94.45187
0.7316074,93.79321
0.48416513,88.13466
0.6064047,87.688545
0.5765618,87.86483
0.5553393,82.81984
0.39633918,81.9207
0.41339585,77.20284
0.44017547,77.30452
0.3907393,71.904785
0.36402076,70.84254
0.4490376,65.33052
0.37278888,67.672966
0.34294915,66.39605
0.23491395,57.443325
0.3574657,57.92869
0.3326127,59.707836
0.39836136,59.967632
0.2940282,53.238113
0.39814878,51.11613
0.32593277,52.374546
0.31092533,51.756287
0.18303774,49.6072
0.21000183,48.019928
0.117999084,48.72913
0.19577886,48.54713
0.18035796,48.905666
0.13098772,48.610462
0.031450953,52.772114
0.17016396,54.616077
0.07477926,56.801414
0.014494183,59.953873
0.02430953,59.82185
0.10230302,64.73114
0.16841136,67.33315
0.32194325,71.0218
0.2902471,69.83384
0.4652349,77.22046
0.4960875,79.56565
0.66575843,85.19091
0.74457836,90.297935
0.8448427,91.38774
0.8850587,99.441574
1.0855529,103.47502
1.1151316,107.31227
1.16752,112.3553
1.3047203,113.79288
1.3566797,119.6228
1.4784772,119.97781
1.3513986,123.0734
1.3419129,128.7581
1.5359067,130.9865
1.5421999,134.24234
1.4613189,135.44493
1.6468801,138.59166
1.627365,138.88687
1.5730228,141.56073
1.5361376,140.27289
1.5144114,142.42905
1.4778754,143.73976
1.5309159,143.96022
1.4586874,142.36131
1.4206336,139.92258
1.4536389,140.66237
1.4139351,138.24083
1.3841817,137.76271
1.2737774,135.14204
1.2480509,139.01335
1.3310875,132.50464
1.211066,128.88132
1.2088293,128.04407
1.2859845,125.3378
1.1070341,120.48454
1.112565,122.44249
1.1876887,120.20794
1.1807055,116.14724
1.0630432,116.8364
1.1804692,111.79935
1.2351177,111.39162
1.1188662,104.48166
1.143032,105.89297
1.145868,103.22936
0.9758081,95.591675
1.1063721,97.1268
1.0080706,96.090775
1.0346664,90.49717
0.9477389,89.01029
0.93283105,88.67573
0.8918902,85.87323
0.7967716,83.90212
0.7685411,78.74826
0.72424316,78.48716
0.7246534,71.7411
0.6837481,70.89497
0.6652057,72.02931
0.6411386,68.99906
0.6192256,65.37692
0.687091,62.50456
0.68267494,61.46282
0.6797938,58.463646
0.6486457,57.00474
0.6012718,55.362896
0.64427066,55.42704
0.7406672,53.132847
0.5243459,52.47661
0.5666291,54.52536
0.5337586,50.17314
0.6015753,48.28003
0.50391924,50.705795
0.37720984,47.038303
0.36528713,50.821896
0.3804728,51.445606
0.26729748,50.104633
0.33435655,51.511684
0.37675977,53.847855
0.40822583,58.316914
0.34354565,60.019154
0.3769866,63.895008
0.5359235,65.9082
0.5105526,68.86998
0.6814832,72.59039
0.66195154,76.15036
0.6732966,77.01791
0.8585745,84.014854
0.9527101,88.97534
1.0253354,95.91454
1.1786014,95.972984
1.3795042,101.0853
1.3913685,106.9321
1.5133612,110.71118
1.5357292,112.029594
1.5648577,117.23386
1.6986924,120.414764
1.6090729,125.67384
1.7766522,128.02403
1.7178079,133.12746
1.7582519,134.96013
1.7144345,135.24547
1.8540301,142.83353
1.8799098,141.7013
1.8152574,139.15508
1.8889315,141.14279
1.8630276,142.00294
1.7617567,146.24948
1.7677603,143.18668
1.7291269,141.05441
1.8058863,141.83408
1.6685627,139.33534
1.739485,139.88277
1.7910836,138.80283
1.591949,139.62119
1.6833291,129.92815
1.5375495,132.98393
1.6451721,127.32349
1.4509729,130.2705
1.5710151,123.92654
1.3961982,123.75133
1.5588659,119.510315
1.4933965,118.69655
1.3780551,117.74195
1.3908105,114.630005
1.4433064,111.23483
1.4516325,109.626854
1.4280933,106.578255
1.4342016,107.89031
1.3685523,102.930855
1.2228291,98.06971
1.3219335,99.54761
1.2119267,93.7708
1.222594,93.99849
1.2496264,93.352455
1.1467367,88.80916
1.0873898,86.228836
1.0313739,84.02503
1.0969371,78.25834
1.0348772,80.44704
0.997641,77.44761
0.9508555,73.83532
0.9085535,70.33419
0.9534013,68.77228
0.86947334,67.23342
0.88343847,65.80286
0.7980525,64.16504
0.94025743,60.96053
0.9233408,57.037193
0.8080811,56.905857
0.8312723,54.604866
0.9398718,51.13252
0.84233236,53.811436
0.7560982,52.432823
0.8075463,49.492233
0.8806089,49.26455
0.69135785,45.143265
0.6517475,50.30111
0.6613739,50.684116
0.41606644,52.63819
0.5466897,50.9958
0.5009623,53.83219
0.5211444,54.577797
0.6236026,57.40457
0.59727347,56.32355
0.66432995,60.188637
0.55221725,61.73407
0.6661802,66.95462
0.7716298,71.967834
0.901754,73.831245
0.9085307,80.00157
1.0240831,86.75918
1.0638874,87.46178
1.2397436,90.87777
1.3749161,94.68188
1.5356172,101.32963
1.5181282,103.79794
1.6146631,110.55925
1.6266291,111.83878
1.7129314,115.05164
1.734762,119.23903
1.8796666,124.47312
1.7626423,127.60424
1.9188783,127.63124
1.8790729,131.60806
1.8171595,136.96829
1.998634,138.23753
1.9593358,138.70534
1.9286482,140.71605
1.9201996,141.90005
1.9663244,141.74939
1.9199482,142.81238
1.9059938,143.54271
1.8693328,143.27519
1.8947971,143.97992
1.8203698,143.69775
1.7461616,139.79367
1.782874,138.59157
1.7429438,136.77098
1.7012196,131.32753
1.6145197,131.00398
1.6871911,133.05148
1.6466221,129.29227
1.5776219,125.38611
1.5191891,124.92219
1.6573129,121.837074
1.5917597,118.170456
1.6128881,118.9516
1.4309235,113.67973
1.5193043,113.71356
1.5207815,109.34725
1.4715899,108.90568
1.3996903,104.5708
1.4674846,106.32968
1.4070485,99.16303
1.4181865,95.769844
1.271396,96.847015
1.2570866,95.22455
1.331496,92.47728
1.1825432,89.838135
1.148502,89.82217
1.078385,85.624435
1.0576288,83.18292
0.97107995,80.40262
0.93540555,75.66316
1.005293,72.76413
0.9927077,72.49451
0.72939277,70.1289
0.9477941,68.041695
0.90185815,64.28747
0.8275906,64.20129
0.9081614,59.77578
0.9556686,56.62124
0.820663,61.07253
0.8066771,56.383003
0.8842356,53.82469
0.6833401,51.921005
0.8564159,52.22524
0.753062,51.634087
0.643531,51.15775
0.69151694,49.689976
0.68115854,51.37793
0.62922645,45.86027
0.6126926,48.907127
0.4151571,53.27141
0.52166677,48.956665
0.49960938,54.767387
0.39351323,55.065315
0.4548461,57.842358
0.44914803,59.86009
0.4784668,64.01239
0.6235036,71.06515
0.66483986,69.85196
0.7336379,74.36537
0.7586975,80.70591
0.89220756,83.12763
0.97389865,86.3165
1.1362783,91.22098
1.2059116,94.52841
1.3244327,99.271225
1.3244692,104.159195
1.4671175,106.92974
1.5416118,111.671875
1.6357276,118.04786
1.7159212,121.86947
1.697988,127.71379
1.5911605,127.95944
1.7711061,127.44081
1.7039353,131.43481
1.7381884,133.73271
1.734577,139.93929
1.8519706,139.77908
1.8867424,138.37485
1.7822651,135.64261
1.762314,144.28477
1.8218468,143.54256
1.6874654,141.26851
1.6428181,140.56424
1.5940119,141.52856
1.5726132,140.58063
1.6419924,140.13141
1.6510863,136.57106
1.6427237,141.87624
1.5338303,138.06245
1.5316681,137.11658
1.419599,133.1044
1.3967863,130.66766
1.3742859,128.03215
1.2294745,123.89075
1.3268167,124.743004
1.3128531,120.83322
1.2912414,117.07867
1.3763678,117.73008
1.2144849,111.25232
1.2780049,111.02451
1.2550431,108.55679
1.1921915,105.706375
1.122276,102.44344
1.1673858,100.13221
1.1394539,102.46601
1.1848737,96.013115
1.0479184,95.201904
1.0181847,91.09531
1.0047832,89.65634
0.8791564,86.43203
0.77842206,85.93053
0.7898929,83.31266
0.61393183,81.171844
0.7367675,81.377556
0.69952446,76.52973
0.7590265,73.24622
0.6286064,70.64682
0.5858181,68.40059
0.63135934,66.278915
0.6671107,65.72049
0.5425819,60.81816
0.5795867,59.64399
0.56270826,52.11116
0.58064544,58.092255
0.5286011,55.039543
0.47173116,54.050343
0.45111778,50.695507
0.44293085,50.77247
0.44341537,48.25826
0.36246946,49.865047
0.30201617,51.378788
0.30540052,49.69058
0.27356848,52.277912
0.26176864,50.427967
0.17057979,52.591476
0.19795534,55.172684
0.11768146,56.19591
0.21084413,60.260963
0.17296752,62.043167
0.16377974,63.524956
0.2450413,63.253742
0.34807974,70.28084
0.34069106,73.18287
0.5567716,77.59328
0.508332,80.56843
0.7472012,84.628006
0.7129197,88.97983
0.89601946,92.11421
0.98361427,100.326836
1.143026,98.94908
1.0979619,105.385056
1.123925,110.76543
1.2635884,115.5705
1.2984604,117.225945
1.3543957,122.271935
1.396312,127.62889
1.4479388,127.918915
1.4011279,133.25058
1.5407982,137.64551
1.4984962,138.75473
1.499161,136.81888
1.4507664,140.90665
1.5509803,142.73926
1.5488358,142.91928
1.4013729,139.78178
1.4945983,144.79851
1.3749945,141.14656
1.333338,139.6261
1.3923869,142.16397
1.3426765,141.18524
1.3984777,134.55656
1.2873565,136.0978
1.1991806,136.14641
1.2355825,136.97557
1.2276233,132.9788
1.2351339,130.2964
1.0442537,127.50705
1.0116813,123.88757
1.0207677,121.73605
1.0179204,122.15691
1.0568612,121.93756
1.0249847,116.885895
0.9255384,114.15045
0.9620339,110.650085
0.9341745,109.05737
0.94842106,106.63818
0.9191373,104.989105
0.89414185,105.647865
0.800168,97.95144
0.73232824,100.42551
0.7251535,94.97303
0.6934507,93.214874
0.7314494,90.41713
0.5949378,86.25347
0.6130003,83.78031
0.44575673,84.10634
0.49351984,81.1602
0.426869,77.36624
0.3841681,80.01985
0.41984892,75.54751
0.38762227,68.79833
0.34865114,68.28685
0.36187553,67.05982
0.32956392,62.58058
0.3686355,60.864746
0.40964922,60.06148
0.49945548,59.467144
0.3260557,55.971554
0.3454813,55.380234
0.2511862,53.710213
0.2779346,53.181313
0.19044167,53.422016
0.20018837,47.479183
0.22588119,47.051094
0.13073371,48.732624
0.03449827,47.353508
0.011947501,51.195927
0.13518032,50.726273
-0.020668907,53.034645
-0.041707136,52.9678
-0.00919625,54.620117
-0.018063096,55.829887
-0.04574979,58.415115
0.047845606,63.52518
0.055995237,64.15599
0.07968549,67.71469
0.26825088,72.53228
0.24271946,76.04745
0.35236794,81.94192
0.47348386,81.997925
0.65088314,88.24352
0.7102274,92.5765
0.7025942,93.76554
0.81819725,102.062614
0.9220759,106.11665
1.0378649,109.06203
1.1050252,115.11208
1.141845,116.33045
1.2041209,120.45693
1.2620478,123.36248
1.2946585,129.1367
1.2904357,132.09258
1.3502911,133.36693
1.4487257,136.46446
1.3455724,139.77362
1.3096428,134.2468
1.3470469,139.45802
1.297433,143.8262
1.3212156,142.17902
1.4143615,142.94402
1.2236794,140.63054
1.2682976,143.0859
1.338133,142.96178
1.2895434,140.28098
1.1701281,141.40625
1.2231183,139.2785
0.98813397,137.02292
1.0752654,134.99963
1.0191964,133.71751
1.1546863,131.63925
0.9980494,130.0047
0.91606426,126.855125
1.011859,123.47487
0.98167574,121.05741
1.0278456,121.41539
0.8708857,117.49443
0.9523917,112.810005
0.9935655,115.110435
0.8758427,112.53443
0.9193055,105.93536
0.8790404,107.45149
0.9099515,105.13105
0.860379,101.39013
0.80357873,99.86911
0.8627519,91.53091
0.7652855,92.52442
0.7764579,92.86281
0.6855097,87.82237
0.6575702,84.85131
0.60239744,83.53065
0.5133136,80.94683
0.36221576,78.78997
0.4475198,75.45729
0.4073952,72.639046
0.4987652,73.98732
0.44807616,69.766754
0.3889364,71.766914
0.4708557,63.08889
0.31320247,60.878525
0.39496803,60.484688
0.39921874,58.294125
0.47793043,55.953968
0.35145053,56.276554
0.29147133,53.208893
0.34311593,50.47945
0.26322392,51.67086
0.24941203,50.110085
0.256438,51.3052
0.21468274,48.940628
0.2013062,50.91029
0.18763041,48.108513
0.17314662,55.369366
0.059783734,49.24673
0.13350646,50.835083
0.015254156,53.351654
0.1240188,52.365463
0.07296044,55.609753
0.15184928,59.463436
0.20743574,62.442577
0.2218446,68.312874
0.2998595,71.72095
0.31098798,75.394844
0.44551057,79.1133
0.70490414,81.377625
0.7221362,88.53442
0.7568451,87.527016
0.9569579,94.94078
0.9495102,100.27763
1.0960684,105.594635
1.1574723,107.12905
1.2552128,109.99825
1.3794926,116.61235
1.2969635,121.2135
1.4692929,122.75808
1.464777,124.42664
1.5048863,128.397
1.5881487,131.69666
1.4923723,134.04695
1.6050307,135.98643
1.4882132,140.99336
1.5965272,140.08911
1.5513159,142.9084
1.4796674,142.54182
1.5739012,141.81079
1.6055706,140.27739
1.58959,142.9889
1.586248,141.7386
1.4460447,147.08832
1.4479394,138.43478
1.4093581,138.2124
1.3344227,138.36624
1.4238999,136.4492
1.2835853,131.47792
1.1730603,132.2523
1.255208,128.26465
1.1714466,127.81581
1.1907296,125.48434
1.2134485,122.696396
1.1664882,122.97329
1.153231,118.464584
1.1353307,116.05057
1.2767346,115.21949
1.2043844,113.5501
1.0602187,108.95161
1.082264,108.25032
1.0618321,104.943985
1.145769,103.704025
1.1608417,96.39873
1.0655122,97.57453
1.0028602,93.84465
0.94463855,90.193054
0.9674995,90.76166
0.8464066,88.69944
0.78701323,86.011925
0.8013477,81.89309
0.78649753,78.40774
0.79934436,77.24258
0.72268856,75.9902
0.6397653,73.31695
0.60970306,70.11963
0.682451,70.19656
0.69033617,66.21935
0.6037164,62.370586
0.6613196,61.76037
0.6869895,57.966297
0.6134794,55.210327
0.6633171,55.68207
0.61745423,52.723843
0.65929943,53.654778
0.64909637,50.754158
0.59606534,50.472397
0.49184236,46.853046
0.5105529,48.259235
0.5252114,47.941372
0.40197408,50.91752
0.47594523,50.81704
0.36547315,49.28606
0.48357406,47.376602
0.3370203,53.69784
0.44305143,55.55272
0.4394443,59.21993
0.44695908,61.525356
0.40461293,64.22793
0.45949212,67.85866
0.46530217,70.31296
0.6778972,75.75563
0.7037396,75.211945
0.91250366,80.0072
1.0308537,85.245415
1.0739337,88.35533
1.2411512,94.833786
1.2149855,101.153595
1.4401546,102.43121
1.5078816,107.64128
1.5342445,110.61364
1.5917789,117.46515
1.6368598,119.555984
1.6182657,121.71014
1.7314844,126.96254
1.8157823,130.89
1.7366259,132.27249
1.6974835,136.2063
1.8978074,136.91576
1.8639212,140.09923
1.7925907,138.16603
1.8555056,139.33125
1.8707745,144.76622
1.8102773,142.3367
1.7657052,143.30022
1.8793479,141.70634
1.7869539,144.85695
1.8093574,143.18071
1.6979576,140.72827
1.6486228,136.54532
1.6414924,138.67021
1.5576004,133.05307
1.5622541,131.3823
1.6717172,133.12502
1.529447,131.25424
1.4359438,127.575516
1.5303991,127.96465
1.4381577,123.45942
1.4766834,120.35006
1.430088,122.23601
1.4043082,115.06519
1.4545923,113.90961
1.4030874,112.99283
1.4500799,110.01775
1.4827611,105.041885
1.4576027,107.36207
1.3736523,101.63963
1.417178,100.3351
1.3990214,98.6921
1.341805,96.39957
1.2165805,90.291145
1.1211067,90.969376
1.1713439,87.88177
1.1789881,87.3069
1.0182506,85.75507
1.0451623,83.079666
1.1030596,78.34301
1.0054876,77.821594
0.9447928,74.49211
0.97177225,72.45334
0.9677243,68.30105
0.8433082,65.115425
0.9111958,60.677452
0.82516134,61.444046
0.9174549,61.045322
0.84622794,58.06689
0.92057747,58.191982
0.9217686,54.439762
0.9320748,55.309055
0.8174735,52.991722
0.82177687,49.780315
0.79527706,51.83523
0.78375417,53.982204
0.7534748,48.477234
0.6307777,53.495823
0.6954873,48.4547
0.52502835,51.021725
0.52846324,53.60711
0.56412214,55.078983
0.45690483,54.218674
0.5857397,56.18254
0.6558245,58.198086
0.6843887,65.02527
0.55492705,65.294136
0.71882606,69.83328
0.73757213,76.28437
0.9300506,73.43089
0.94666755,80.99022
1.0344641,82.08188
1.128882,89.122574
1.2470975,94.49005
1.4105544,96.02325
1.4588866,106.482056
1.5617683,107.343
1.6836737,108.794655
1.721676,112.593544
1.8049668,119.106285
1.9058856,122.97088
1.7981297,127.02891
1.8048054,130.58572
1.8850534,133.89041
1.9086444,134.16464
1.8956007,136.35332
1.8850732,136.8377
1.9347689,141.63019
1.9335796,141.00885
1.9428118,144.03204
1.9010282,143.90726
1.9233558,142.30472
1.8628623,143.33769
1.8763994,144.4148
1.8772173,142.39944
1.72575,139.28847
1.910529,137.58643
1.68316,138.66756
1.8183881,135.9322
1.5802766,134.2741
1.7738476,134.09087
1.7396013,129.23817
1.6248834,127.81331
1.6102484,124.412575
1.6271538,123.421135
1.5924358,122.67101
1.5478251,120.85451
1.6079015,117.44437
1.5425086,114.92494
1.5385079,112.38717
1.4206718,107.087616
1.4851072,108.182594
1.435623,102.98795
1.3898096,100.81701
1.4313924,100.52261
1.4297231,98.636955
1.320133,94.97397
1.2941515,90.96747
1.314238,92.86405
1.1266534,89.02428
1.1252865,83.330284
1.2593107,84.33267
0.979959,78.77754
0.9887661,78.945595
0.9418127,76.33828
0.9192969,72.45273
0.82227373,71.542816
0.83553576,69.38512
0.8066538,67.330696
0.8859171,63.837807
0.7866395,61.99747
0.9117044,58.578613
0.8320619,56.66612
0.8259961,55.282227
0.749398,52.595177
0.8603925,53.444202
0.75571,52.6998
0.66621614,51.381237
0.56732845,50.68161
0.67683506,50.087563
0.7154831,50.77045
0.55004853,49.08978
0.43279997,48.014095
0.5532217,51.765102
0.46835488,50.11971
0.50708413,56.201797
0.34182388,55.397667
0.43557683,56.824154
0.33366308,58.88263
0.5332055,62.811783
0.5182443,67.19711
0.5571066,66.27544
0.7114009,72.4312
0.8156971,73.11022
0.8890055,82.68493
0.920157,81.83989
1.0884064,87.63081
1.1684191,93.25067
1.2249113,98.99774
1.3240762,102.20121
1.3666594,107.51919
1.2813946,111.7364
1.6385416,115.12699
1.5679133,121.03712
1.6717498,120.23679
1.7308115,123.76918
1.7555304,127.90724
1.6686946,129.8202
1.7820432,132.71829
1.7966547,134.75243
1.7174101,136.33107
1.8257495,138.82309
1.7204431,140.39497
1.7630125,142.91162
1.7419859,143.80637
1.8081589,144.34496
1.7406712,144.84717
1.7463187,143.0114
1.6677289,141.83012
1.6611929,139.45242
1.6072916,138.83783
1.5668229,140.3269
1.5947094,136.48286
1.4771328,134.61263
1.4541304,135.67441
1.4295022,131.2844
1.392628,127.725006
1.3205459,127.00662
1.422815,126.316505
1.2448411,121.625465
1.2816955,120.90113
1.2983664,116.30909
1.288006,114.8192
1.0808073,114.453255
1.2475023,112.69702
1.1678803,111.34985
1.272257,107.330414
1.160323,101.58691
1.0743726,102.012344
1.0618758,99.476585
1.0524741,94.40902
1.0487317,95.19443
0.94222003,88.14925
0.7895513,85.19838
0.9261834,85.59332
0.8097396,84.857666
0.7614535,81.02603
0.74847186,78.57089
0.6298724,76.15906
0.59231484,77.29208
0.7115733,71.92814
0.6441788,69.321724
0.5548994,68.27735
0.587336,65.51159
0.5768026,63.23679
0.62543917,64.96218
0.53127736,59.23579
0.53030133,59.496834
0.5801752,55.002674
0.5253183,51.873363
0.51661265,53.72946
0.51250565,56.212658
0.40798256,48.169113
0.33471337,51.44768
0.4182805,49.510498
0.35487556,48.431732
0.31856105,48.48428
0.22246513,48.181118
0.1754812,49.92093
0.1321882,49.777264
0.058377493,55.136703
0.03380519,54.07092
0.14671208,58.275585
0.16317412,58.252445
0.15245007,61.337955
0.25263092,64.32125
0.23401834,70.02185
0.3464597,76.70059
0.4534557,76.80281
0.5855224,82.1728
0.7856588,86.07884
0.7173932,92.38596
0.8698463,95.6111
0.9012376,99.26633
1.022892,105.52143
1.0418793,108.5556
1.1640939,112.92123
1.3193047,117.868065
1.3375905,121.68705
1.4128819,126.63762
1.2947942,127.23367
1.3868765,130.89977
1.2958144,131.7897
1.4643229,134.53398
1.4650885,138.88005
1.4574012,140.99985
1.4505194,142.09438
1.4819989,142.39758
1.4804637,141.55505
1.5027033,143.09187
1.3786377,142.57285
1.3400815,141.20274
1.3563074,145.01526
1.4104701,140.23473
1.3060584,137.50426
1.1865668,139.22476
1.2318418,137.41104
1.152214,135.84332
1.0936537,132.9041
1.1091759,133.16745
1.191257,129.6446
1.1577439,128.45673
1.0477235,125.73717
0.9976272,121.46196
0.97411275,119.436005
0.9130951,119.76398
0.9455936,114.97417
1.0160851,112.270195
0.9163635,108.55974
0.8783375,107.343185
0.86406714,108.53444
0.9185892,103.89891
0.92408425,102.1292
0.83432406,96.4656
0.8027865,96.98325
0.6746533,94.13759
0.70136863,91.387886
0.7570557,85.88466
0.59864664,88.701454
0.58803827,85.04841
0.530831,81.62479
0.5277758,83.39886
0.43971342,77.46523
0.48503888,73.57129
0.48880503,71.0166
0.34751353,71.077515
0.31142017,68.459
0.38602048,64.82269
0.2855768,64.14093
0.41278586,64.68889
0.28408617,57.71791
0.41150188,56.024094
0.30563697,58.077095
0.314584,53.14777
0.3119211,51.578472
0.30979452,50.723778
0.23044954,49.947758
0.22666103,50.239204
0.12808576,49.18491
0.058502898,47.63496
0.038290713,48.33743
-0.0801124,48.86399
-0.06891818,48.210297
-0.06257218,53.476036
0.04012416,56.81645
-0.033125855,53.810215
-0.04447875,58.53532
-0.09933144,62.0637
0.008712986,63.828144
0.1320409,66.79096
0.1706462,69.62188
0.25091225,71.06817
0.23906861,77.292274
0.36528534,83.72537
0.54395896,86.02878
0.59937227,86.09044
0.62028587,95.79939
0.8101737,99.75587
0.8942361,102.6638
0.9880175,108.24144
1.0951252,113.72624
1.1394551,113.957954
1.1971116,122.36526
1.2119168,123.38143
1.1820252,124.90127
1.4165994,128.95212
1.3798745,133.82648
1.4372355,134.13622
1.2810248,134.74138
1.4903542,139.04216
1.3626391,140.32661
1.373489,142.40201
1.3893558,142.04399
1.3711908,142.76988
1.3705835,143.18512
1.320663,141.24724
1.2757452,142.02264
1.2807965,141.50507
1.1895522,139.48505
1.1783192,137.85634
1.2147274,136.68864
1.1784195,136.32425
1.1288499,131.88124
1.1492848,132.95145
0.9910334,128.31494
1.1016941,129.9263
1.0582353,126.79037
0.9598249,124.03576
0.9459279,123.27967
0.9974289,113.62635
1.0269592,117.512115
1.0326784,115.321884
0.90257317,109.677025
0.95916283,107.95636
0.78448635,109.35672
0.8396696,105.93488
0.86469364,103.695
0.90660304,102.5783
0.7519098,98.24737
0.8415047,95.13902
0.7670923,93.44907
0.63600475,88.69944
0.7175154,88.685776
0.6485398,86.50571
0.51286733,85.22563
0.5089487,82.29349
0.4185281,76.63119
0.4502932,74.45613
0.35987148,73.11602
0.5113086,70.16598
0.3660473,70.93438
0.33885628,69.52202
0.38923723,62.23644
0.3440448,63.190876
0.44575766,58.23619
0.4422362,57.128284
0.38880563,58.442806
0.4694623,51.624622
0.38783154,57.24167
0.33181068,50.43863
0.41399515,54.25082
0.3936261,48.289616
0.27985603,46.13947
0.20282537,46.89477
0.24772376,51.282936
0.15917592,51.265858
0.18248275,49.39426
0.11592196,49.276707
0.056585297,54.0878
0.08078203,53.873615
0.07709931,54.77402
0.04271285,59.925003
0.14948988,61.906418
0.23707476,66.675575
0.27748334,69.93281
0.43351638,70.28856
0.5436969,76.13205
0.39534354,76.77186
0.61637855,85.22468
0.81307524,90.30556
0.8654556,93.16788
0.9520247,97.931915
0.9829378,100.34273
1.0464506,105.91958
1.2114761,109.43086
1.2533271,113.65833
1.313477,119.48285
1.4376377,124.890205
1.3121176,123.94679
1.5487828,130.2764
1.6027918,131.85394
1.5393783,136.32367
1.4808754,138.19522
1.5474374,135.90068
1.4322578,139.17947
1.6413531,141.51044
1.6456759,141.62013
1.5462302,142.24028
1.6316497,142.22044
1.6017466,144.36917
1.5841542,141.85742
1.4619194,142.29604
1.5259582,140.22621
1.5498282,142.0012
1.3674189,140.62862
1.4131461,135.71832
1.4528209,135.77379
1.3374224,135.5675
1.3227865,128.61035
1.4076018,128.87108
1.3278855,126.34089
1.2729348,122.7584
1.2747543,122.8706
1.2204643,120.08078
1.2001624,114.08769
1.0934834,115.670494
1.0693117,117.92466
1.0989164,107.92608
1.048884,108.27949
1.1383197,103.71654
1.1853923,100.95596
1.1873751,100.118774
1.1038935,97.04302
1.0363989,93.579254
1.0449846,94.378815
1.0847855,91.4406
1.058795,90.624084
0.789093,82.39776
0.8546226,86.660995
0.86395645,80.44528
0.75861543,76.91731
0.73348695,76.132935
0.7464622,75.76211
0.73389363,70.842995
0.72531676,65.09747
0.65558356,65.34588
0.72205484,65.84615
0.8065264,59.70505
0.75796896,61.63667
0.59510684,59.008125
0.6783265,58.255985
0.78940886,52.805054
0.65017354,52.0734
0.5419196,50.767002
0.6769868,48.330193
0.6170213,49.832348
0.5715185,47.73485
0.5003888,48.402283
0.49413753,49.102844
0.39084482,50.201164
0.44182226,50.914757
0.4775473,49.160316
0.382138,53.078857
0.357634,51.474968
0.31419912,55.516293
0.45150867,59.30059
0.44299242,60.461132
0.42537,63.880516
0.5632037,66.91942
0.5628013,74.7229
0.73380333,73.73876
0.8554794,74.83486
0.94638616,81.33414
0.99579835,88.55835
1.1640183,93.57314
1.1364733,92.71747
1.3171158,104.52711
1.4204757,103.25986
1.5528156,113.19998
1.4500258,112.16664
1.6258924,117.88424
1.7026402,119.122215
1.7484756,124.19243
1.7599196,126.51363
1.72243,128.01971
1.856929,137.87407
1.8072186,136.62747
1.8179079,139.93105
1.8770527,139.75677
1.9261229,142.13362
1.9229965,144.21106
1.8698862,141.20845
1.9048258,141.95416
1.8254988,142.36696
1.8056144,146.48196
1.8831323,141.82494
1.7986078,141.09676
1.7376859,141.03299
1.6314031,136.93906
1.6065536,137.0891
1.7593218,135.1617
1.628854,133.31001
1.6168275,128.72972
1.5346209,129.85516
1.6013429,124.0613
1.4497973,126.00046
1.4756534,121.70457
1.5032834,116.34502
1.3951399,116.8027
1.4900876,115.85151
1.4427783,115.37122
1.4455469,110.84513
1.3996928,108.63025
1.3935988,105.40469
1.372735,101.478935
1.3720841,99.643135
1.3905816,98.13431
1.296138,94.760605
1.3533092,94.5785
1.2499934,92.24876
1.2175584,90.9055
1.1101606,87.7678
1.2226409,85.06387
1.0469252,82.2674
1.0461787,77.33087
1.0818989,79.94894
0.91374654,73.55044
0.94969773,74.67245
0.8275378,70.637695
0.91256195,68.51411
0.9564775,62.2153
0.9070306,62.66491
0.90494055,60.726
0.86947316,60.504776
0.97549325,57.035538
1.025973,57.55129
0.8664428,56.202576
0.7626162,49.951885
0.8387016,51.712334
0.761568,49.880615
0.7682594,47.415073
0.7747868,48.953815
0.7544057,49.369537
0.6436517,50.78885
0.67604107,54.288723
0.57500947,51.03014
0.5543235,51.60972
0.5432371,52.278255
0.5034673,54.05322
0.4685249,60.75349
0.5343005,57.423645
0.6266382,63.044685
0.6604818,67.80572
0.80312467,71.88881
0.82141435,72.97286
0.9393723,77.04787
0.9864693,79.58228
1.0641507,87.38773
1.1293923,89.54607
1.2581245,97.893684
1.3650137,99.54615
1.4589827,105.29985
1.6007597,106.86961
1.5339029,113.863235
1.7401497,116.01637
1.7764874,119.706345
1.8894747,120.530136
1.9023173,125.00206
1.9534775,130.75082
1.8645515,132.59169
1.9772918,134.09169
1.9148893,138.51804
1.9305995,137.59872
1.9194119,139.1027
1.9952008,143.41061
1.9314849,143.78172
1.8921545,142.36333
1.97498,146.48479
1.8677518,145.5497
1.8426442,141.9354
1.8982553,146.49245
1.6972876,139.70993
1.7456101,137.08005
1.7767272,138.67697
1.7374176,134.77696
1.5460588,132.61035
1.7211022,131.42613
1.5741482,131.05663
1.5792954,128.05026
1.5962857,125.76157
1.410601,122.38712
1.462035,122.4174
1.4619184,115.705536
1.4392376,118.27947
1.5803766,113.40921
1.3942742,113.75226
1.5263774,104.17707
1.4346707,106.83805
1.3817796,100.59374
1.4035786,100.9083
1.3074237,97.037506
1.4057347,95.35069
1.3210164,93.33497
1.2706145,92.686935
1.1860673,89.76945
1.195501,89.53027
1.173432,86.86784
1.0370699,82.053055
1.0954555,79.33295
0.88614625,76.178215
0.9101563,76.951195
0.93033236,74.802124
0.8893655,70.08625
0.8052728,65.71127
0.90440995,66.82621
0.7496093,63.618286
0.76959884,60.569714
0.7819562,60.5468
0.74993485,58.32023
0.8242223,52.85512
0.8655554,53.954876
0.90253466,54.59079
0.80696,52.24557
0.74492186,51.56663
0.63800395,46.793716
0.7017462,48.901836
0.5302529,48.66441
0.57315594,48.568592
0.53887385,53.270042
0.55852604,48.83903
0.4130239,51.532196
0.35722864,54.97708
0.4438679,56.348145
0.48528925,59.620773
0.44043067,62.55965
0.55191827,63.469563
0.46305948,66.150444
0.62258947,69.22947
0.7623094,74.4804
0.7941978,77.74782
0.8129512,81.717094
0.9040855,86.51207
0.9680297,89.19475
1.1177341,96.09269
1.2228196,96.11031
1.1959052,103.75362
1.4022999,106.45177
1.4306121,110.40577
1.5077597,113.88032
1.626796,118.70764
1.6797285,122.19299
1.6630114,124.71072
1.7648773,129.54135
1.7541409,131.85605
1.7812274,134.23708
1.8116018,137.9361
1.78501,139.20932
1.7165848,140.59947
1.8008856,144.767
1.6894523,139.78438
1.7011236,145.18736
1.6808649,143.21715
1.689373,144.10045
1.720711,143.12776
1.6817696,138.99008
1.6373802,141.46489
1.6215888,139.00433
1.4720348,140.28513
1.5840374,134.59105
1.4892337,132.09354
1.3391556,131.08287
1.3820777,130.93147
1.422166,126.53951
1.2549613,126.53043
1.2421783,123.49317
1.2795103,121.75014
1.2365772,118.966156
1.2088974,113.371765
1.314224,112.967026
1.1475729,111.231094
1.2938498,108.56671
1.1129915,107.58137
1.2289332,105.335014
1.189418,101.00743
1.0822548,102.4258
1.1129298,95.46924
1.1567434,97.58834
0.88627714,93.394775
0.965317,93.408455
0.9058077,83.01389
0.8466308,85.17385
0.7717848,87.01372
0.682842,81.445
0.80440146,82.94605
0.6516007,75.63862
0.6467953,76.4603
0.573371,67.92736
0.58120173,65.57277
0.46567023,65.24535
0.57058436,66.1838
0.55606425,60.617554
0.5637126,60.171593
0.6080239,57.729313
0.5046022,55.412476
0.452627,53.349606
0.4803285,57.464573
0.49944198,54.20924
0.48798522,51.617847
0.3643154,49.586536
0.3563362,48.144756
0.2799211,49.22633
0.26787814,45.732925
0.24669288,50.416725
0.19929549,50.07718
0.15530413,51.914276
0.04276992,55.743286
0.013621569,54.919277
0.036836516,56.489628
0.23177873,57.440426
0.31977192,61.9026
0.19992538,63.34692
0.24790086,71.79787
0.42412248,71.43125
0.38861865,77.84163
0.48611522,79.66855
0.5550898,83.96384
0.75985885,88.33135
0.827218,93.08294
0.95773435,95.648125
1.0467483,100.71664
1.0317936,103.22217
1.1672606,110.56689
1.22117,112.65549
1.3285615,117.38532
1.3973038,124.116295
1.32588,125.85856
1.3552564,125.203285
1.4616858,131.20946
1.3698403,133.35817
1.4107676,135.782
1.4565512,137.5786
1.3808353,139.64975
1.4442285,141.71495
1.4381878,143.17654
1.3980525,143.92036
1.4728959,140.17816
1.3502879,141.20647
1.3724394,142.62111
1.3982784,139.80824
1.2982067,139.58182
1.2361244,139.2807
1.3000288,139.05054
1.1893538,139.19345
1.1612643,134.56871
1.1050582,132.01872
1.090375,130.92656
1.0174562,125.011925
0.9801275,125.827286
0.97063386,124.120056
0.9465037,122.41761
0.9678283,117.41079
0.9211272,118.13573
1.0443188,114.74783
0.9647758,112.19508
0.958103,110.64799
0.9040439,108.36543
0.8995295,104.93687
0.88761914,102.802124
0.77766204,101.82124
0.85756814,95.389366
0.81143624,93.436104
0.60825646,92.0243
0.6238847,93.21912
0.5735004,86.85606
0.49294564,87.85627
0.5022642,84.80472
0.43833864,79.6219
0.4467027,76.94143
0.33765146,75.74372
0.41145444,73.45621
0.3905008,71.14198
0.26489365,72.10868
0.3923211,66.08907
0.4511362,64.653366
0.33704665,63.048016
0.37919256,60.05092
0.37886375,57.05366
0.28433618,55.504734
0.23696713,55.823612
0.26597056,57.238117
0.30850235,50.871235
0.28595608,50.389534
0.13121283,50.56862
0.20136541,50.42715
0.16484347,50.044285
0.13134673,49.185482
0.019897882,48.63336
-0.0026302668,47.615242
-0.041047346,50.36263
-0.06514204,53.595493
-0.109423324,55.072063
0.009207742,56.213608
-0.15095203,59.731827
-0.10185923,59.18975
0.059279304,64.760994
0.090415336,68.44909
0.11186772,70.134254
0.21856135,75.42135
0.26670584,78.70516
0.3215933,84.516685
0.58431053,86.184166
0.54931915,89.56389
0.7234994,97.05555
0.79996216,101.21956
0.9554039,101.620155
0.9810287,111.86031
1.0188156,113.75063
1.0771211,113.606415
1.1785178,121.460556
1.3034185,123.97995
1.3333244,126.781815
1.3409331,132.28189
1.3879454,132.89862
1.2385093,134.99162
1.440534,135.64575
1.3639605,138.48332
1.291596,141.23126
1.4559852,141.24667
1.3583374,144.72687
1.3240951,147.2945
1.3028646,141.9831
1.3344572,145.24326
1.3140002,141.17673
1.3067515,142.78458
1.2318177,138.27162
1.1170617,139.26257
1.2212027,136.95166
1.0367386,137.04585
1.1190293,135.25348
1.065756,128.77893
1.0089984,126.516266
1.0844245,126.9665
1.0318568,127.04066
0.91300875,123.911415
0.8972222,121.275635
0.877434,118.0945
0.90981424,115.856674
0.97358,113.89175
0.8472185,110.1972
1.0039225,106.5381
0.96654195,106.312164
0.94227594,104.96669
0.8779617,99.62133
0.79155123,97.7582
0.7917546,98.09977
0.7078377,94.76969
0.8293266,92.906525
0.5919979,86.800575
0.6624926,86.40925
0.58178407,85.87962
0.6380562,82.62835
0.47687328,79.37202
0.5327081,80.40257
0.26849636,74.91606
0.44756055,72.783
0.38310468,70.13676
0.34729946,69.928246
0.44980392,65.74611
0.4249378,61.914524
0.4022158,59.98056
0.4298086,58.445415
0.44624957,56.725506
0.43650055,55.479664
0.3988834,53.50995
0.38263145,52.593174
0.31091776,50.722515
0.36139065,49.35528
0.2868241,47.397945
0.22445911,48.397926
0.1626363,50.80926
0.14453462,50.252785
0.111672506,49.65804
-0.019262249,50.333298
0.056052636,53.099384
0.046820045,55.585606
0.11103241,57.228123
0.12627569,59.2936
0.034257837,63.79486
0.331448,62.49146
0.1415633,66.85159
0.28391433,73.154076
0.43827662,74.07771
0.5106748,75.9571
0.65637183,81.02292
0.64597976,86.412254
0.87345135,89.99918
0.9279957,97.63568
0.94987094,99.17997
1.1233222,101.44827
1.1947283,105.3824
1.2859757,110.16805
1.2980825,118.22891
1.3728889,123.34318
1.4099218,125.44845
1.4667524,122.20977
1.4096882,132.144
1.5965787,130.9093
1.5247699,134.5234
1.429335,140.12218
1.6385525,138.1871
1.6243689,140.13179
1.5684086,141.16554
1.5748745,139.48706
1.6264837,140.93533
1.5698198,142.38582
1.7054018,143.40712
1.5553093,142.91972
1.4853089,140.47717
1.4899173,139.43684
1.41632,138.42828
1.3654996,135.16031
1.3305044,134.86327
1.3359728,133.28168
1.3269757,132.67737
1.3216935,130.3826
1.3507565,124.2805
1.3382747,127.06389
1.2066884,120.98415
1.1766531,119.3146
1.2525421,116.17572
1.16384,116.15328
1.242003,115.83385
1.290409,112.49021
1.1684455,109.83634
1.233124,105.59253
1.186035,106.771416
1.2353885,101.140305
1.1111711,99.30769
1.0515113,97.20993
1.2132856,96.391754
1.0122621,91.92273
0.88415194,93.431816
0.95079225,88.89381
1.0758462,86.72054
0.84005755,86.55524
0.7596372,80.087975
0.8178272,79.24075
0.82386583,78.28182
0.6859356,72.32694
0.68638957,66.919304
0.73397815,68.26857
0.705588,64.20328
0.69983035,61.365273
0.7929472,62.8637
0.67331237,61.470604
0.725244,59.347412
0.6421023,53.716915
0.74314153,58.073765
0.7061364,53.91894
0.68310314,49.054996
0.7395201,50.167713
0.704559,52.26585
0.665319,48.275944
0.63166595,47.03464
0.5720699,48.90023
0.44907573,51.883423
0.32179326,49.83013
0.36285552,51.060684
0.41737127,55.079044
0.3474514,59.77054
0.4465796,55.721516
0.473354,60.28139
0.5553191,60.513893
0.44175658,65.61685
0.6125306,66.63142
0.66493714,72.01036
0.8400141,76.26525
0.833522,81.88692
0.9963011,86.723145
0.99066985,87.05222
1.2149704,94.55096
1.245573,98.44806
1.3876693,103.08525
1.4370159,106.07839
1.4536779,110.10497
1.6662174,117.24601
1.6802977,116.56682
1.7606564,122.36475
1.8468441,126.83094
1.781433,130.8122
1.8623132,128.52522
1.8656806,134.76999
1.8591676,137.90727
1.8913372,136.9028
1.9822437,139.99431
1.8856004,141.3698
1.8454236,143.68962
1.8888026,143.52135
1.7959322,144.71881
1.8653316,142.64929
1.6736035,144.72043
1.74208,140.4097
1.7797523,142.42421
1.7314522,138.69923
1.6613129,139.02783
1.6909294,136.75317
1.5605804,134.67583
1.5769418,129.43146
1.5914261,132.16951
1.5470667,127.49179
1.5994754,127.12213
1.5720328,125.16186
1.5136576,119.37509
1.4694542,116.64807
1.5036762,117.228386
1.4482603,116.4262
1.557035,112.38205
1.4527639,108.39458
1.5101621,107.396904
1.402301,106.47123
1.4005969,103.291725
1.4565222,98.84963
1.3851731,97.91289
1.3471954,93.95466
1.2756441,90.50126
1.2628772,91.70404
1.1998843,86.460915
1.1468546,84.17965
1.0750057,81.74318
1.0989686,81.2868
1.0190495,74.50082
1.0816673,75.42552
0.89770657,73.20898
1.0472118,70.20538
0.8920337,67.59375
0.8405355,65.489716
0.89313525,62.012676
0.9503634,59.87893
0.8645729,61.874035
0.88313836,57.226376
0.958491,55.92879
0.8776582,53.963627
0.8777033,47.842342
0.90971565,53.265545
0.8037107,49.1549
0.8281541,52.61213
0.75123245,46.957283
0.6224645,47.77018
0.666954,51.951588
0.65560955,50.670895
0.6637249,51.576935
0.5336495,50.66455
0.6032538,50.253967
0.5082139,55.520306
0.52998286,57.064816
0.53716624,58.985817
0.49607274,61.682587
0.6562418,66.29426
0.6879074,68.71544
0.9424405,71.31745
0.8504745,76.33082
0.9469415,81.42612
1.0807004,83.88374
1.2612228,89.16204
1.2296312,92.527916
1.3300068,96.544
1.478713,100.61338
1.4771738,103.91812
1.5611385,112.60653
1.6616886,115.81791
1.7111938,114.273605
1.787869,120.494354
1.7194469,124.07462
1.9346544,126.57847
1.9634107,127.65922
2.0411897,133.93837
1.9741554,135.52805
1.9133526,138.24509
2.0037289,138.29797
1.9772211,141.68114
1.8942705,139.5638
2.016479,142.20561
1.919598,142.81358
1.9693085,141.34491
1.9873526,142.9348
1.909096,144.12749
1.8103836,139.131
1.8742551,140.0673
1.7463468,136.11496
1.7869316,135.5463
1.7293413,133.45789
1.7225525,133.25854
1.6890104,129.83792
1.5573025,126.73813
1.5925424,125.038994
1.6109352,127.772064
1.4936265,123.115
1.4448284,121.529366
1.4418838,117.638535
1.4345021,113.51936
1.4598887,111.88963
1.471151,108.89113
1.4144067,106.01534
1.3729224,102.27802
1.310607,103.9588
1.2867332,103.50998
1.299855,100.48628
1.3672377,93.35873
1.1943277,94.848625
1.1716409,88.47435
1.0539804,88.22098
1.122947,83.303474
1.1208702,84.606575
1.0309323,83.73333
0.99849343,76.1345
0.95624554,75.049095
0.8279804,74.419365
0.93009675,71.72561
0.84653515,70.952324
0.86986476,66.80743
0.7837479,66.08847
0.79845995,65.72215
0.8122982,57.261982
0.8792322,56.278343
0.7999384,58.951557
0.7831273,58.428493
0.77990216,52.462658
0.75002146,54.45452
0.72585034,48.41145
0.6470696,49.74705
0.74293536,50.596893
0.5880345,48.363407
0.59474593,50.78273
0.40660197,48.144997
0.45268404,50.807186
0.45922756,51.450615
0.471403,50.397446
0.407651,55.53255
0.431526,55.616257
0.4688639,58.946823
0.39009517,60.30787
0.54010606,65.53933
0.49595413,66.54713
0.6668524,73.4485
0.755328,74.89903
0.8289278,80.87654
0.8020371,84.67141
0.8326444,88.42319
1.0185398,94.42605
1.1629888,96.746254
1.209228,100.54224
1.3385051,105.53296
1.4493244,107.872086
1.462486,111.50191
1.4993085,116.672
1.6390713,119.13406
1.6469201,123.29223
1.7009686,125.2782
1.6890069,127.6984
1.6870134,132.89899
1.6990299,133.25142
1.7649162,140.08368
1.7453214,142.07181
1.7265085,141.05931
1.734018,139.5747
1.7966751,141.58731
1.71036,139.07504
1.6080079,144.79677
1.6692295,144.63715
1.6076932,140.76265
1.5682193,142.3138
1.563902,140.2526
1.4665959,137.71901
1.517204,137.95862
1.4234897,134.1986
1.3418415,132.23921
1.4655998,134.0921
1.3730903,131.34944
1.3538579,128.35869
1.2862722,123.09371
1.2761245,124.632195
1.1866447,120.37448
1.2283509,120.77013
1.2566018,116.21017
1.2925082,111.33863
1.2087743,112.91612
1.1352376,106.181046
1.1314092,106.62707
1.0856764,104.19751
1.1257409,100.69439
1.0692061,97.40838
1.0287484,95.83953
1.0187466,94.215675
0.9547096,89.230354
0.77116585,91.0373
0.82867444,86.11827
0.7641732,84.86403
0.68973047,88.381325
0.6589017,78.848724
0.6816141,77.13682
0.65706503,77.03104
0.6470223,72.05644
0.68173385,72.25934
0.45827138,69.33259
0.530472,67.32354
0.53823113,65.13838
0.52004725,59.906055
0.6233777,57.560745
0.5956044,59.6262
0.4344702,56.320923
0.42785266,54.37029
0.35691035,53.038963
0.4081918,49.112934
0.42190158,52.797665
0.34986588,52.31647
0.32020736,49.587345
0.220162,50.407257
0.32060742,47.244755
0.2412965,50.10512
0.060742762,49.61368
0.124615066,55.684948
0.1623265,55.553787
0.009333985,54.096703
-0.028586946,57.143414
0.17480996,61.36212
0.22821948,63.47497
0.14771855,65.48931
0.2884413,68.613075
0.35701007,73.01616
0.40382376,79.31438
0.5473029,82.14623
0.7442253,84.4496
0.73281157,90.06696
0.86464155,95.208496
1.0046052,100.19007
0.9861966,104.01314
1.0816683,106.36378
1.2141758,112.52291
1.2461101,115.77033
1.247542,116.55437
1.3977206,126.100426
1.3993349,126.71508
1.336299,129.31621
1.4606225,130.38663
1.5022846,139.74756
1.505566,138.09206
1.4327613,136.13351
1.3721162,138.4108
1.4920878,142.23363
1.4246209,143.01218
1.3962735,142.62036
1.4071083,142.19551
1.4100169,143.75806
1.3907787,143.1948
1.2779397,140.56815
1.2184467,139.68799
1.26994,138.52069
1.1221392,138.33055
1.1416682,136.87555
1.093783,134.4397
1.1186873,133.71967
1.0366908,130.85599
1.0403224,128.03595
0.9964793,125.2913
1.0496578,120.93054
0.9773316,120.03694
1.0710862,118.15695
0.9463489,114.03763
1.0031785,116.01058
1.0146439,111.0171
0.9938325,109.89897
0.83843344,103.17928
0.87601787,103.01053
0.8372936,100.75861
0.8016014,98.06767
0.87189096,99.68612
0.78429246,91.94734
0.6803756,93.52823
0.7022407,89.85599
0.56843096,87.25014
0.54073954,81.79077
0.46694392,81.79278
0.4491715,80.68339
0.32779,78.67583
0.36189774,77.072624
0.36471567,71.15121
0.4059527,71.06767
0.3113633,69.843346
0.4323394,66.55674
0.30443892,63.265675
0.32040855,60.419918
0.27033955,61.123848
0.33485192,57.30409
0.28803265,58.305973
0.29113585,54.61417
0.35115904,51.91081
0.24198237,53.96858
0.27843782,51.07542
0.17442705,48.32842
0.23268244,50.10332
0.06912226,50.00045
0.11235033,48.828396
0.088869736,51.821648
-0.026115254,50.209633
-0.029192924,52.538147
-0.06434864,52.450947
0.01046233,56.535423
-0.037698112,58.077896
-0.08472404,60.53555
-0.043539695,61.337006
0.08685332,67.69809
0.12583347,70.85599
0.13489574,71.27296
0.2849788,75.911736
0.3668131,76.361984
0.5228541,85.144264
0.553446,85.40643
0.7060595,90.85667
0.85958296,97.828545
0.88142735,99.30767
0.9687054,105.579544
1.0964967,108.695404
1.0886762,114.80933
1.2139682,117.52466
1.1820247,121.791
1.3465952,126.79093
1.2987703,125.7175
1.2856922,133.54912
1.4371921,133.58464
1.452036,135.31871
1.42166,136.51352
1.491897,142.70274
1.2963972,140.62439
1.4043157,144.8362
1.3627907,143.11227
1.3692099,143.2845
1.3500285,142.29381
1.3196788,138.96729
1.3293165,139.37723
1.2270786,138.6746
1.3031839,139.06178
1.1476051,138.63385
1.2270719,135.83136
1.0907425,138.02507
1.1331165,134.9485
1.0807372,130.544
1.0130506,126.63493
1.104977,126.585976
1.0139902,123.27124
0.92420524,119.70997
1.0616,121.25825
0.8648704,113.345345
1.0111752,116.168144
0.90284926,110.64912
0.9193213,111.17511
0.9101055,113.46601
0.9587484,104.27334
0.81231624,101.38086
0.842764,99.61061
0.7178309,98.95226
0.78681314,96.74477
0.78513736,92.58941
0.67260784,91.64347
0.7494384,88.98615
0.72878015,84.92016
0.7163317,80.20825
0.59864837,81.13015
0.56742746,80.00786
0.4848472,74.23401
0.52375966,70.71356
0.52460027,69.76187
0.401348,68.32253
0.4820908,64.585205
0.51168984,65.58107
0.5160264,64.34451
0.4488438,60.80468
0.4544069,58.564644
0.49789053,57.730785
0.41068915,55.45764
0.50187904,55.256966
0.4197507,51.574017
0.24569774,48.801033
0.2546945,48.424797
0.28406858,50.331127
0.36381173,49.21691
0.18958062,48.537716
0.15213701,49.338257
0.19212416,52.17338
0.11620958,52.505634
0.15146703,54.620453
0.14018452,55.696667
0.10058113,53.49948
0.19491851,60.132812
0.08160005,61.545586
0.27515066,67.12429
0.31691694,67.895355
0.3849117,72.92379
0.50693125,76.22018
0.51142275,80.628555
0.71007633,83.20245
0.72871304,87.72268
0.8492492,91.38196
1.0671347,96.74301
1.079929,98.64367
1.1850188,103.78953
1.2047657,109.745415
1.2955457,106.4503
1.4191096,113.50041
1.423282,122.03036
1.489498,127.77099
1.504271,130.0994
1.5017645,130.91315
1.4960504,134.6539
1.5338442,139.87086
1.5834227,136.5868
1.6124964,138.60478
1.5514768,141.43094
1.6265374,141.25427
1.6082633,141.94522
1.6993911,143.86353
1.6470325,139.23087
1.643704,143.37659
1.5962802,141.87994
1.5534786,141.47829
1.4183688,139.91017
1.465585,137.3945
1.5041053,139.86472
1.3743918,134.37689
1.4226483,135.39056
1.3259759,128.83128
1.291159,128.3875
1.353317,130.20407
1.326052,126.249626
1.2371793,119.813705
1.2566416,121.15379
1.2871306,119.61613
1.3203149,115.98894
1.264307,114.62497
1.2288692,113.60499
1.3218671,107.979935
1.2463669,109.18108
1.1859816,103.53117
1.1830347,101.242714
1.1911234,94.54141
1.0828291,93.76372
1.0505702,95.07454
1.0330105,87.60445
0.88970524,86.19773
0.8260757,85.98048
0.9079137,87.00259
0.8478139,82.29214
0.8200038,80.34077
0.84008604,79.47732
0.7614914,75.302185
0.7910424,72.59486
0.7706524,72.8032
0.7323177,64.66369
0.824928,68.24984
0.70200473,63.20694
0.7363431,58.96081
0.7241432,59.163948
0.82138026,56.54424
0.80297697,53.73273
0.6833966,53.804092
0.62731713,48.886047
0.6924559,49.340405
0.586592,49.88961
0.57162577,51.5159
0.6479864,49.016598
0.53951657,49.3704
0.5317458,52.56135
0.45880267,45.251907
0.41413814,53.25413
0.3913238,53.322353
0.37677276,58.29276
0.47320572,55.19244
0.50422597,60.797783
0.4876449,60.47436
0.5210787,66.23232
0.51722676,65.88795
0.60376406,68.48024
0.64996874,74.98811
0.80337906,80.601845
0.90130365,81.28721
0.98733115,85.634094
1.16776,90.268295
1.2517538,95.54746
1.3669696,97.257385
1.3483787,102.16757
1.4521009,110.06649
1.6177257,111.835526
1.6585393,116.69514
1.7046921,120.202614
1.7279418,121.87559
1.8274915,128.31783
1.670151,131.44655
1.8349314,133.5831
1.9346228,133.56616
1.8819344,135.56078
1.9439156,136.20258
1.8132979,143.80481
1.9058597,143.49222
1.8570212,142.21498
1.9056756,143.16681
1.8459811,142.34335
1.9495881,144.85988
1.7334378,142.88292
1.7714428,142.71434
1.7354577,139.11557
1.738845,139.06068
1.7338563,135.04916
1.824983,134.24829
1.7248622,135.56763
1.5499278,130.04593
1.6819913,130.60832
1.5336523,125.27339
1.4948691,124.28585
1.4923102,126.32435
1.4923676,114.80341
1.5235028,114.58341
1.4870628,115.00613
1.4208333,113.48817
1.4793532,109.21346
1.4534162,110.16533
1.2994287,107.51837
1.3746564,102.45081
1.4038038,101.27954
1.3129365,97.86903
1.3880689,96.36427
1.3054812,94.26952
1.2515031,95.76593
1.2199955,90.14426
1.1059862,88.42287
1.1831462,84.66453
1.1598283,81.762985
0.9508978,81.160446
1.028668,77.373085
0.9754012,77.10071
0.8283894,74.21544
1.0000557,71.73151
0.99940395,67.217354
0.92064744,63.591873
0.84486693,67.50155
0.9628385,60.364975
0.93863857,58.501186
0.9097076,56.784058
0.8576677,56.719746
1.0218085,54.050236
0.749127,51.91979
0.886715,51.343853
0.9532531,52.08578
0.84819055,48.658974
0.6873279,49.74916
0.791149,48.488735
0.644339,51.904915
0.68706524,51.01495
0.6260503,49.767338
0.5701476,51.687458
0.5763715,49.192924
0.62204623,55.267685
0.61628616,56.761097
0.59398556,62.243774
0.61543125,63.420563
0.67536783,67.782936
0.7010373,70.62126
0.7515658,72.61676
0.97522616,76.67056
1.1177555,80.57757
1.0721678,82.22056
1.3285445,91.05524
1.3043201,95.681656
1.4453217,97.353264
1.5320286,102.96287
1.5099589,107.276855
1.6046321,110.13281
1.6559321,115.68436
1.7870102,117.902084
1.823681,122.38402
1.8575721,126.733116
1.8524209,131.57022
1.9541364,130.6421
1.9885358,132.33618
1.9262223,133.30966
1.9554054,137.3555
1.8740681,140.16585
1.9247187,142.64601
1.9094507,140.41908
1.9359863,141.72556
1.8636762,142.0844
1.9154708,139.55772
1.7871082,142.08487
1.8131043,142.49687
1.8580643,142.92946
1.7698596,137.89415
1.718102,137.37389
1.7484789,136.75212
1.6793194,134.12172
1.6139009,133.95665
1.6476636,128.19707
1.5102011,126.788605
1.5561663,125.06195
1.5064361,124.49493
1.483957,119.767876
1.4261566,118.35616
1.4301689,113.6887
1.3663019,113.91912
1.3979383,109.668175
1.4425792,108.38638
1.4423343,105.54952
1.3565719,105.13635
1.3798882,102.153465
1.3229047,98.520515
1.351062,98.78588
1.1996435,96.16238
1.1770276,90.855034
1.1274323,88.98458
1.0733427,86.86378
1.052942,86.194
1.1351871,83.46141
1.0533526,78.91438
0.90540946,79.10639
0.8631509,76.01901
0.8292162,73.34366
0.8151559,69.990875
0.8834294,66.020325
0.845943,64.50772
0.8182331,62.81191
0.8248306,60.242184
0.7746122,61.736794
0.7840334,60.196735
0.746421,57.688522
0.71506333,55.196167
0.84101516,54.974983
0.7132544,49.93682
0.6435437,49.160484
0.75783265,49.87215
0.5529475,50.824715
0.5682029,50.728035
0.57269156,49.327717
0.45396945,46.95269
0.4597439,50.88907
0.43570516,51.925114
0.39127553,52.504044
0.34006813,51.401203
0.34796187,55.108566
0.4207413,59.99966
0.48521626,63.741528
0.5576647,65.33255
0.6795332,69.77309
0.6192198,71.834015
0.66233283,77.01744
0.7907125,79.52421
0.97132707,83.19505
0.97014195,86.17438
1.0756332,95.015396
1.1224341,97.6055
1.2331189,100.90027
1.2549382,108.09297
1.4184014,108.789825
1.5379885,113.8885
1.5377845,117.23976
1.5802852,121.4619
1.6641699,127.46408
1.5502498,125.69075
1.6759236,131.23598
1.6956359,133.52216
1.7682638,139.18842
1.7085167,136.44447
1.7643344,138.80418
1.6613021,137.41258
1.6708566,141.2508
1.666851,141.80212
1.6185317,144.28485
1.6519902,141.50433
1.6194397,142.02022
1.5765052,139.10585
1.5287831,140.1229
1.5559821,139.85449
1.4714503,135.51007
1.4792662,137.07643
1.388106,134.95842
1.2870463,134.0828
1.291396,128.40652
1.3434228,131.13132
1.1477814,127.66618
1.2045126,120.482925
1.2369775,123.04502
1.2712773,118.94191
1.2587267,118.042816
1.1740011,112.62024
1.1182983,114.93612
1.1697012,110.90569
1.1425054,106.911476
1.1267822,104.07763
1.1027313,106.09897
0.9932179,100.10122
1.0559857,97.492676
1.0072643,97.20126
0.95451456,94.88081
0.9615705,86.99321
0.8225773,90.040344
0.9141573,87.74107
0.777347,83.77972
0.72034496,79.591194
0.63284194,82.69687
0.626104,75.20679
0.6609349,74.11834
0.49995694,73.210014
0.47903544,70.740204
0.5785809,66.327286
0.49352804,63.332115
0.57904387,59.84147
0.6113301,58.681053
0.54200417,57.93248
0.53541505,54.88573
0.5284932,57.17355
0.45833308,54.498375
0.48856696,52.71482
0.5316887,51.300888
0.45113236,51.728294
0.41662768,53.513824
0.2860198,49.980476
0.2660886,50.916725
0.1872871,50.045246
0.19003911,49.794327
0.10007442,52.770462
0.111343116,50.71528
0.02767717,55.78556
0.10864808,57.370014
0.067051314,60.071068
0.110490225,63.09301
0.17978916,66.24042
0.20413753,65.839325
0.23009022,73.624954
0.3375109,77.223015
0.5888294,79.5976
0.6603858,83.22893
0.7174234,88.81198
0.6879065,89.83277
0.83698285,94.183716
0.96158475,101.4217
0.98719037,104.17773
1.0569379,110.7137
1.1459973,112.833084
1.1815084,116.23094
1.2972163,119.982544
1.4168122,126.59816
1.3383912,130.54982
1.3370029,128.85199
1.5254431,132.1483
1.4053032,135.46844
1.302118,136.6535
1.3869334,137.86795
1.4473133,141.91928
1.4507453,140.46088
1.3993158,144.57228
1.3925092,141.92505
1.2815143,144.69519
1.3618219,139.86353
1.2984428,139.80243
1.3305568,141.40497
1.2487113,137.59766
1.177678,140.51364
1.2652366,135.11586
1.1124712,135.7648
1.0498962,132.38022
1.0908737,132.19748
1.1200786,129.0946
0.96807057,126.21761
0.9813759,121.63083
1.0355884,124.04743
1.0287762,122.94523
0.9169839,116.4261
0.961339,115.38873
0.9652149,112.21896
0.85580933,114.02545
0.86463225,107.549164
0.9154447,106.6869
0.9420796,103.4378
0.7852179,98.59863
0.85473394,98.669785
0.8190255,96.13507
0.74779874,92.7338
0.6521948,93.92404
0.56929004,91.11687
0.6582432,85.41811
0.51258177,83.94222
0.41951126,82.22218
0.5280304,80.0325
0.45613888,77.77887
0.454179,75.5352
0.41964,74.1278
0.43380362,68.70829
0.35578611,67.87107
0.3504969,65.447876
0.28022674,61.162262
0.33958185,62.93667
0.32980648,60.68453
0.312006,59.96628
0.36079296,56.262184
0.36404175,57.04358
0.28126803,49.537918
0.26548427,53.768627
0.20809858,49.8151
0.15585065,49.856987
0.16369805,46.825
0.20912586,48.62613
-0.00532544,49.914227
0.07281694,49.81132
-0.026979025,47.86552
-0.11325579,50.840534
-0.11112141,55.257786
-0.039123796,54.663048
-0.08647714,59.978165
-0.015070913,62.59664
0.20210625,65.2704
0.092655055,66.729034
0.18723914,70.96384
0.19120654,71.593636
0.3699111,78.63819
0.51218307,81.87773
0.51918185,85.20873
0.7234449,88.04356
0.76505387,94.96909
0.7713915,98.51864
0.9573374,103.54012
0.9661264,107.64591
1.0291226,110.499504
1.1755375,113.046135
1.261759,119.41628
1.2219533,121.27779
1.2200174,129.13655
1.3569443,131.46356
1.3971437,131.01305
1.4408941,137.07558
1.4271773,137.36362
1.3803077,139.26913
1.3349406,141.16182
1.2535037,139.83057
1.4533135,141.51231
1.4004309,145.42104
1.3520346,141.957
1.2831752,140.3561
1.3281374,139.78604
1.2553023,141.414
1.2352431,139.46179
1.1524302,137.58284
1.1370174,140.07013
1.1068002,132.63393
1.1260388,135.44289
1.110496,130.20042
0.995036,130.34103
1.0564443,130.10953
0.95577824,125.32447
1.0901781,122.35855
1.0060318,120.5797
0.92485183,117.28453
0.9363633,114.081604
0.94058627,112.25657
1.0035471,111.371704
0.9854884,108.58174
0.93581593,105.17784
0.98479944,103.80364
0.9656855,102.77131
0.91671526,102.12048
0.7687974,97.75266
0.81102175,94.78641
0.7535596,93.58495
0.6945239,91.1403
0.7322727,86.58992
0.5811076,86.448685
0.6490898,82.180084
0.65240496,82.566055
0.51778287,75.820114
0.52755904,76.33405
0.47937664,73.11438
0.5422606,67.25848
0.47873148,71.92815
0.39509502,68.35997
0.4275305,60.15147
0.46305844,63.51645
0.4024578,59.66352
0.42129633,59.899323
0.36389664,56.360527
0.4916189,53.437073
0.51456434,53.005684
0.39033905,51.89747
0.34970787,48.825985
0.42640516,49.290615
0.2917383,48.01822
0.2716006,46.69327
0.14825553,47.197674
0.04771635,49.708378
0.20343098,48.787647
0.107424796,50.270924
0.022877678,51.475636
0.08553022,55.796295
0.1403048,53.3523
0.12659991,59.339607
0.23145938,61.76608
0.4150701,65.70832
0.30004907,71.62587
0.39051783,69.41328
0.5625152,75.727776
0.5493498,80.19852
0.70629305,86.59009
0.7946265,88.74166
0.9570674,90.34815
1.1037958,98.73645
1.0759375,103.15741
1.2540895,107.59752
1.2761747,114.13186
1.384008,116.9183
1.367654,119.95739
1.5059288,123.79991
1.5536085,124.64125
1.5039965,129.15704
1.6177374,131.11404
1.6447756,133.91823
1.6796874,135.80682
1.5536956,136.44954
1.6288811,138.98793
1.6567949,138.16483
1.5524752,145.38412
1.608949,143.32582
1.6204052,141.21071
1.7119917,142.3355
1.6344281,142.30359
1.5957764,144.13237
1.4940493,141.32513
1.5107132,137.53433
1.5264118,139.7489
1.446543,136.65768
1.3313931,133.10628
1.3413494,130.91214
1.3176448,126.04858
1.2775146,128.77576
1.386552,127.71935
1.3251702,125.520744
1.2704772,120.6121
1.3139414,122.26995
1.2730879,116.465645
1.2798,116.8694
1.2477905,109.40555
1.2482018,107.57476
1.2199844,108.047134
1.1990663,103.24511
1.2102383,104.48495
1.1519989,99.53155
1.1570445,96.80496
1.1476845,94.11451
1.0587373,92.66486
1.1068664,90.34787
1.0536975,89.17042
0.83098775,85.01526
0.8216652,82.08974
0.8285379,80.84941
0.8056044,79.93026
0.79821515,76.31537
0.8914156,73.869095
0.68512195,73.5647
0.8436987,70.28669
0.86144346,68.48159
0.7825973,64.09028
0.7066395,60.0192
0.71871287,58.526012
0.7394097,57.522564
0.82629055,55.102448
0.71800435,56.64754
0.63260174,52.100967
0.8138922,53.322254
0.7125272,49.21845
0.69590783,51.765614
0.6823211,49.013462
0.63475364,49.19415
0.59703296,48.11468
0.47868323,48.969955
0.4460042,54.12791
0.40326887,50.7201
0.47188553,55.628136
0.42150477,56.426315
0.4948195,56.326984
0.41358504,58.747784
0.48750234,61.345284
0.5869626,69.15433
0.6302746,65.74524
0.7030527,71.648506
0.7676424,73.571495
0.8457234,81.644775
0.9785171,84.6759
0.99308294,86.39103
1.1839377,93.2267
1.3060968,96.95108
1.3503975,103.23114
1.523599,105.06545
1.510388,109.74194
1.6131203,115.99114
1.6950121,116.28374
1.7274973,121.17951
1.8652129,124.45579
1.8617476,127.12776
1.9348425,133.01947
1.8486882,138.09161
1.903513,134.53348
1.8964392,138.08629
1.842796,139.3508
1.7874298,142.07098
1.9664553,140.15459
1.7886907,141.36676
1.8904729,143.1272
1.8971833,142.8751
1.882391,140.75914
1.7434922,139.95384
1.7609469,140.9544
1.6800582,138.85
1.7500609,136.51875
1.7335644,138.03091
1.6647524,136.6605
1.6969057,132.8524
1.6435336,131.84491
1.5653332,130.5559
1.6272886,126.943596
1.5070131,129.01054
1.5035659,123.65823
1.5805306,118.839455
1.4322473,119.96458
1.4692707,115.2962
1.4930516,111.60666
1.4255546,109.08204
1.5133574,109.076645
1.4714359,105.04204
1.4528612,102.894714
1.4391072,100.382904
1.3135638,97.90517
1.3557098,97.77583
1.3062316,89.58612
1.2843708,92.23974
1.2421191,89.44603
1.1488869,86.985756
1.1423141,84.21221
1.0343431,79.96589
1.1101058,80.071335
1.0312482,77.91707
0.9827495,76.34723
0.8763191,69.34947
1.0116501,68.76326
1.0034142,68.068344
0.9871019,63.389904
0.89660746,63.937695
0.8749079,58.192657
0.861648,57.82361
0.8800089,53.26654
0.85828996,55.10371
0.9282442,53.651306
0.8887872,50.221367
0.7852576,48.617756
0.9297093,53.07269
0.82928735,51.345966
0.80565065,47.524803
0.58494085,50.282124
0.6821423,48.590595
0.64653957,51.717705
0.626709,52.279705
0.53087145,52.686745
0.48687732,55.77936
0.6211272,56.279324
0.5882795,59.448723
0.47711715,60.93516
0.715221,61.514137
0.8155159,64.65496
0.77491957,69.19972
0.7788548,75.41229
0.88625646,79.46544
1.0920595,83.943
1.1322322,84.794266
1.2701125,89.923904
1.2897296,94.82303
1.4762427,98.75579
1.4546127,105.545425
1.679362,107.54534
1.6039255,110.83045
1.6503977,114.27424
1.884182,120.06622
1.7577394,124.87639
1.8615866,125.224724
1.813212,130.91919
1.9027865,133.43729
1.8600177,132.34628
1.8981026,136.47673
1.9073877,140.98329
1.9683926,141.66121
2.0651658,139.92998
1.9030449,142.16092
1.9305754,142.94106
1.8742533,142.82571
1.9200629,142.7271
1.9172204,139.43802
1.7482319,140.50688
1.6608323,140.13226
1.6619264,140.93321
1.7631903,137.28545
1.6214803,134.70291
1.6263168,134.76305
1.5829885,131.23825
1.5044835,129.44858
1.621698,127.12607
1.5882558,126.24894
1.4779775,122.304146
1.5048935,117.14641
1.451126,121.28276
1.4108715,113.3727
1.321914,117.37919
1.3427128,109.94223
1.5054299,108.31495
1.3636833,104.746124
1.415499,103.76318
1.3723421,96.82632
1.3738272,97.46998
1.1805732,93.57715
1.1940767,97.10854
1.166813,94.206375
1.1785752,86.87902
0.99813133,89.07224
0.99006146,82.17943
1.0770545,82.55847
0.9276598,79.87618
0.92197144,75.93325
0.9218102,74.283516
0.844808,71.39561
0.83935785,69.74933
0.8396749,68.203766
0.82484066,65.547195
0.7875739,66.453705
0.88742375,60.33386
0.75287545,57.024673
0.78286093,57.900784
0.818795,55.658306
0.8101755,52.536102
0.77111685,53.237988
0.76645446,53.087074
0.714273,47.174374
0.6524861,48.744587
0.5695525,48.51701
0.4188196,52.389923
0.4934511,47.596226
0.44382757,48.36669
0.47045878,50.72397
0.37021074,53.35592
0.3654038,53.453556
0.38623714,56.675194
0.31808218,56.199486
0.41313055,58.50327
0.5044445,62.527992
0.5457409,65.82997
0.54559344,72.94919
0.73347384,75.217186
0.6619024,78.37033
0.78770924,81.592735
0.8508111,82.74759
1.017706,93.081535
1.105881,94.046585
1.2038282,97.66394
1.2956414,101.761665
1.3845702,107.51771
1.4291093,111.699615
1.5239223,114.824356
1.4960811,123.29584
1.6826403,121.93932
1.6192447,126.5005
1.6714948,129.07314
1.669205,129.70172
1.7177476,132.17351
1.8138578,137.27348
1.7641809,139.31529
1.7714844,142.28462
1.6514206,141.95747
1.6878154,141.8541
1.6107287,145.93207
1.6899971,141.25635
1.6141405,142.10403
1.6143585,144.18726
1.532843,141.28546
1.5116867,141.05783
1.5374326,138.99228
1.4819847,137.48201
1.377618,137.53983
1.2296543,132.37236
1.3316936,130.07478
1.3372966,128.08398
1.2527462,127.826096
1.2459089,128.48517
1.164995,121.22168
1.2132007,119.924576
1.1413728,120.91387
1.1230012,117.49634
1.114054,111.91008
1.0830371,106.91539
1.0820348,109.713806
1.1139786,103.85161
1.0118856,103.71474
1.0644418,99.66778
1.0219517,101.89052
0.8741666,97.73559
1.112746,94.81702
0.8420473,92.01609
0.77494955,89.252914
0.71500766,88.01529
0.7369374,84.90638
0.6824253,85.4653
0.7599786,77.62704
0.5534161,79.05502
0.5583679,76.34412
0.6515919,72.91852
0.3619152,67.69747
0.491723,66.74272
0.522159,66.41254
0.54459226,63.519623
0.49929667,62.763416
0.46500716,59.404934
0.5408524,55.345776
0.44081837,60.098465
0.44517753,56.35192
0.40082416,51.161583
0.42309183,50.21205
0.25726542,52.323185
0.3105078,50.323452
0.26867437,50.515324
0.30587918,50.887318
0.32123965,48.32714
0.13656524,45.977844
0.15078731,52.63674
0.05480417,52.17395
0.08133995,54.846153
0.071770646,54.91568
0.11579994,58.529583
0.080942705,60.573494
0.17706525,62.09329
0.18839823,65.55608
0.25815415,67.61772
0.19447409,71.74094
0.29779613,77.75169
0.42205235,80.97576
0.5914015,83.65793
0.5677697,88.69296
0.7912202,94.64925
0.858577,96.32436
0.83373,99.82383
0.96700406,104.09888
1.1834446,109.81323
1.1281923,114.70565
1.4034553,115.50797
1.3319616,121.34586
1.3362075,126.12281
1.3539627,129.96758
1.357816,131.38208
1.4015745,133.2007
1.3972598,137.77356
1.3448609,137.81093
1.3440126,142.04736
1.4728022,140.5169
1.3769984,139.20004
1.4875156,143.49982
1.4044243,139.89374
1.3397826,143.73792
1.3967845,138.75616
1.366758,145.37605
1.3412623,139.1359
1.2007532,142.64296
1.2016885,138.05478
1.074278,139.02217
1.1613017,133.77718
1.0728512,132.38954
1.0387436,129.36285
1.0129254,128.49927
1.030273,124.97585
0.9892261,125.5312
1.0290068,125.22246
0.9172228,118.59784
0.9917324,115.363914
0.8962347,117.44917
0.9281918,113.710686
0.91888314,107.944305
1.0052555,106.013054
0.88873893,104.29341
0.8061272,101.82351
0.8038837,99.83709
0.85930926,97.8641
0.76387435,97.40421
0.71382165,90.72757
0.6227794,92.38432
0.6375889,87.898636
0.59246117,85.39675
0.5320615,83.237305
0.45149595,81.04546
0.461104,81.96618
0.37740207,73.04093
0.35465205,73.523254
0.36346298,71.258255
0.19448087,69.93619
0.26450416,67.736465
0.36470196,64.52044
0.32831508,61.000134
0.2695422,59.078278
0.25299147,59.38071
0.38518256,54.87515
0.33489564,50.94323
0.3170764,53.120323
0.20560999,49.660873
0.31403783,49.044483
0.2787136,49.66678
0.10728462,45.56638
0.048125837,48.187904
0.07412424,49.64226
0.051064108,49.743378
-0.02074318,48.849182
-0.07234065,51.490993
-0.07767766,54.094013
-0.07394737,52.82906
-0.065152764,56.39714
-0.025529213,60.563072
0.04822423,60.644176
0.12798545,65.92129
0.073316626,66.72349
0.19204013,69.06595
0.22278269,73.66032
0.40307936,79.66767
0.47576475,85.75482
0.58337957,88.30733
0.85737455,93.34865
0.86125404,95.92104
0.83995044,102.19332
0.94583493,102.6253
1.1437507,110.70099
1.0055907,115.33135
1.2374686,117.41669
1.2651111,123.39246
1.2630539,127.872
1.2798768,129.9479
1.2182536,130.2819
1.4038717,133.30783
1.3705955,133.78452
1.3391078,138.61925
1.3743408,138.62457
1.4059676,139.53648
1.3756592,141.0118
1.3954558,143.4006
1.3564433,140.80443
1.5163925,142.07028
1.2923541,143.49554
1.2802751,139.91602
1.28612,141.49663
1.2721316,140.85457
1.2098647,137.96225
1.2083317,137.38878
1.1318154,135.81796
1.0489115,133.81317
1.1167074,128.47534
0.9921896,131.93117
1.1141489,127.16245
0.9731211,128.21478
1.1448495,121.08841
0.9515057,117.96697
1.0014453,114.77956
1.0837017,117.56166
1.0075359,112.83828
0.88968223,110.09113
0.96059054,112.14053
0.8575918,106.667725
0.95256644,102.06699
0.8791164,102.99843
0.7561452,97.62563
0.7506793,97.14828
0.75871557,92.45801
0.7064865,92.80573
0.81307715,87.977066
0.819109,87.45712
0.6235196,83.19846
0.64146125,78.35041
0.58354604,79.71622
0.49689043,74.896576
0.49317408,73.35837
0.5458619,73.78945
0.51808083,68.04098
0.48337132,67.20764
0.42681906,64.12019
0.47044155,58.22937
0.47239953,58.753036
0.32539335,58.500847
0.54526854,58.25649
0.42729306,55.29978
0.48126513,53.95714
0.48292738,56.366627
0.33733746,52.357956
0.28359774,49.248493
0.31673944,46.764835
0.32815272,49.171658
0.254462,50.96884
0.2494409,49.375904
0.14089507,49.320026
0.12665267,52.703773
0.12763566,53.905155
0.22341551,53.011654
0.11715703,58.39042
0.21345887,56.136074
0.1813531,60.26072
0.2404065,63.205612
0.3626345,67.37917
0.40170333,71.66958
0.52666557,72.236015
0.5169904,79.06691
0.58547914,82.12134
0.8550599,88.71473
0.9100712,88.9382
0.9779439,96.6744
1.1098132,99.344246
1.1223845,103.01646
1.2655313,106.3826
1.3490472,112.874176
1.4700611,119.181694
1.5337092,118.38532
1.5328041,122.70011
1.5528263,124.67632
1.5964844,128.56804
1.592609,136.22725
1.600278,133.05948
1.7028573,136.67459
1.65371,139.86745
1.6362514,139.30043
1.6011367,139.66385
1.6730497,143.70761
1.7158457,141.47275
1.6791341,142.68098
1.5872376,141.36455
1.5016885,141.65352
1.4858515,139.9631
1.4509596,139.70285
1.4669526,138.50964
1.5952059,139.78851
1.4736348,136.95357
1.4846107,134.86362
1.4280268,132.40544
1.3683468,132.52412
1.3372132,127.82548
1.3192062,126.3856
1.2800221,123.01076
1.1144246,121.90156
1.2479595,118.63899
1.337114,114.344925
1.3577706,115.22629
1.2300259,110.49932
1.3959779,106.78693
1.1777523,104.76558
1.233383,103.48761
1.2122822,101.1376
1.2714411,98.05284
1.0839576,93.9176
1.1517313,93.8898
1.0843018,91.98131
1.016335,89.5906
0.98039925,88.299324
0.9432189,85.7311
0.99828416,82.10531
0.8702419,76.22777
0.93468904,79.44282
0.8492188,77.17124
0.8166766,72.913666
0.8218823,68.159584
0.787197,67.90895
0.58491087,66.04883
0.80882394,64.620125
0.7969776,62.051556
0.879827,57.203888
