ppg,abp
1.1180813,84.56399
1.1816169,87.508484
1.2742517,93.65746
1.4525824,95.83626
1.459211,95.32306
1.4774206,106.04751
1.5202799,109.37499
1.6895698,112.9397
1.4959543,110.294495
1.7126838,112.755066
1.6873499,118.84148
1.7977998,116.54872
1.8093547,118.83527
1.6113394,120.80132
1.7120539,118.25173
1.6145265,125.95259
1.6634175,122.88663
1.644833,117.74236
1.6869491,122.11616
1.6463764,121.62176
1.6038251,123.78805
1.5561334,118.41425
1.513014,117.41616
1.4874578,111.78771
1.4815478,110.470825
1.4219271,111.53898
1.4030672,109.25673
1.3268517,113.91696
1.3308196,110.574394
1.3187362,103.879135
1.3407711,100.15769
1.3177475,104.78105
1.2910936,96.96032
1.3516874,95.40475
1.3597407,97.25445
1.2889732,94.094055
1.2053115,93.787094
1.2761525,90.37129
1.0752492,89.99189
1.1526719,84.14283
1.1118578,84.0286
0.9939726,80.68249
1.051627,77.58562
0.88532615,79.401375
0.9492463,77.85375
0.9009915,72.760925
0.83211666,71.9033
0.8476804,69.41577
0.7415754,66.63668
0.9057731,68.09643
0.90695804,62.366158
0.762039,58.348003
0.80632883,59.809586
0.78282154,58.57461
0.7181298,61.939907
0.86837566,53.956333
0.8073557,56.01716
0.72242993,51.941307
0.6895989,51.552505
0.84455776,50.009052
0.6330371,46.423183
0.49118522,53.449245
0.6205252,52.533962
0.57321745,55.25812
0.40675202,55.30519
0.40713835,51.858948
0.37204105,57.060562
0.55757517,59.686962
0.49031416,57.94797
0.5292416,65.002846
0.6956443,61.98827
0.6150785,65.76333
0.7344377,67.70272
1.0421923,73.16731
1.0677277,78.92068
1.228229,82.59613
1.2956194,84.10379
1.354087,85.97037
1.3439435,91.791916
1.4674418,98.27282
1.6046449,100.933266
1.7682445,102.755486
1.8126526,104.94273
1.8548578,110.6296
1.774698,109.26836
1.8892971,115.38673
1.8573455,118.01647
1.8979712,119.15155
2.0007038,114.812195
1.9293171,121.08925
1.9462581,121.496086
1.9975944,122.40539
1.9258475,122.61318
1.9202757,125.0051
1.8085182,121.08686
1.8533179,120.30416
1.6593232,119.545555
1.7670022,123.263626
1.7255716,120.85377
1.766175,118.094574
1.7105017,113.93858
1.5201354,114.84152
1.6425498,109.519394
1.5898895,111.16457
1.5484269,104.11791
1.4741874,104.25348
1.539017,107.65025
1.4610652,100.31619
1.5211301,98.76392
1.4801781,100.498215
1.4899939,95.70642
1.431741,95.66141
1.5587054,95.33075
1.4527416,93.55298
1.3551661,86.62128
1.3424034,90.95158
1.1713665,84.599014
1.2800877,82.600006
1.0450718,84.44482
1.1898351,77.15753
1.1305172,76.70844
1.0703635,73.572235
1.1026663,76.70614
0.9703907,71.302185
0.98493344,66.27327
0.9050619,61.723297
0.81038463,63.925526
0.9852485,59.659412
0.85567456,60.89797
0.8964078,58.587257
0.8934526,56.33673
0.8655422,55.734207
0.9594509,57.169147
0.86379653,51.739094
0.92183626,51.903835
0.8492898,46.658485
0.79345906,50.945827
0.6912873,49.671227
0.6492471,50.785965
0.5644076,50.177704
0.60298413,54.487705
0.5887267,48.029694
0.624649,58.262287
0.53040326,58.671284
0.603333,65.50022
0.54020584,65.45833
0.68747145,59.621662
0.8746372,69.976555
0.85743964,71.3462
1.0085539,75.385025
0.9032807,78.98689
1.089837,82.10351
1.2184856,79.6783
1.2433832,89.312904
1.3785384,92.43467
1.5217109,95.02838
1.6378167,102.70456
1.6991024,100.944565
1.8537523,104.28803
1.7862414,108.23251
1.9054174,107.791595
1.8413074,111.415085
2.009357,116.60687
1.9264686,114.90765
2.0125487,120.84711
1.9864982,121.23777
1.9209697,124.62643
1.9015856,124.43812
1.9217556,118.72191
1.8399976,122.87947
1.8830547,122.83157
1.8611825,122.4882
1.8585317,115.965576
1.7254741,124.36125
1.8052051,117.40976
1.7287261,116.191956
1.6404669,116.612595
1.6211984,117.981865
1.6509113,112.931694
1.7101554,112.62357
1.4997725,107.81827
1.5337111,113.223175
1.5001901,103.46968
1.5126332,103.90436
1.3434615,97.000465
1.3999965,103.528946
1.3247247,98.91114
1.4410018,92.88367
1.3810393,88.34243
1.3043159,90.997986
1.47309,88.109474
1.2284274,87.92985
1.1383003,84.951645
1.2274555,84.19666
1.1098111,84.29503
1.028036,76.930336
0.97473377,79.517334
0.91723466,78.221
0.8692151,71.51652
0.93488604,71.24352
0.872253,68.91296
0.7876835,67.106964
0.80524516,65.68369
0.7888204,62.726776
0.81740105,63.338654
0.7992389,61.734486
0.7371254,55.654404
0.7781958,56.884945
0.75545925,55.055977
0.73979455,52.768818
0.71124697,54.397377
0.6030811,48.703457
0.6289804,51.150066
0.60440814,49.277092
0.5283284,48.696335
0.36123505,51.568905
0.4096975,53.059753
0.48391518,55.268585
0.42107767,54.892403
0.31319433,56.507282
0.44702157,54.391315
0.41561913,61.222057
0.4112045,63.78049
0.5069889,62.65455
0.5078053,67.13601
0.6577034,66.587135
0.78028846,71.42871
0.872441,77.29733
0.944997,83.20572
1.1451969,87.039536
1.1394742,86.40977
1.1793535,90.58434
1.3016379,94.17325
1.4156607,99.095535
1.4657162,104.81448
1.5033542,103.577644
1.5746104,115.8094
1.6118321,114.88956
1.6540996,111.33196
1.6758022,117.041214
1.6714247,115.02281
1.7338836,118.35224
1.6659223,120.7567
1.7159204,121.44494
1.644735,122.97064
1.6381619,126.4618
1.667145,124.395706
1.5829781,124.91845
1.6136937,121.9824
1.5384902,122.53158
1.5809493,115.807526
1.3765502,118.93474
1.4137934,115.21166
1.4293032,115.432465
1.2463262,114.02366
1.3923372,111.57479
1.3282484,107.718475
1.1911721,110.16577
1.2362889,109.14587
1.1194608,107.06882
1.2106494,99.735344
1.2675917,102.433945
1.1312401,94.2533
1.0797775,98.53985
1.11453,91.81088
1.0959923,92.79745
1.0203861,92.37739
1.017744,87.90843
0.94279253,86.08893
1.0551956,80.19898
0.8339884,83.60953
0.7414135,81.45485
0.6714815,81.88456
0.7158262,77.627106
0.6430061,78.79854
0.5108747,73.02036
0.5598889,69.03361
0.5467791,68.61767
0.5130636,68.18052
0.5212686,62.508095
0.4325284,62.51155
0.54031426,59.87158
0.48448086,59.739723
0.47572476,58.622704
0.5278089,59.003933
0.48643237,58.401627
0.34113255,51.640495
0.3329064,50.621708
0.34058544,55.591568
0.26462525,52.774426
0.27840352,51.356216
0.21969861,51.433224
0.13288583,53.692375
0.031026319,50.963417
0.13779284,54.33958
0.08419325,54.33576
0.11983233,56.459084
0.048329473,65.40871
0.07431098,62.285378
0.22839023,63.452038
0.16719772,67.99718
0.28777662,64.55855
0.53726435,75.484085
0.45401254,75.490295
0.5853718,76.1895
0.70811385,83.92018
0.82862085,88.02077
0.8616095,94.22433
1.0082784,89.27152
1.0878065,98.183464
1.2140934,100.176605
1.2127806,100.16035
1.320826,106.96928
1.3507712,114.43416
1.4077711,113.668106
1.4494034,116.40221
1.3887641,118.10098
1.4423339,116.9743
1.3732498,120.46659
1.4385748,126.44428
1.5071961,124.27922
1.3676858,120.66939
1.3934983,124.30802
1.3728689,122.81789
1.3601732,128.66255
1.399307,122.76248
1.3236356,119.85636
1.3517655,122.03947
1.1037025,117.38501
1.2349641,118.18827
1.1212524,114.97944
1.1376605,112.34538
1.0239025,107.59431
1.0134157,112.27263
1.0335851,109.5913
0.9534886,104.72816
0.79425925,104.53337
0.84544444,101.23249
0.92372996,99.500755
0.8653849,98.45277
0.87056005,95.360016
0.8701716,94.6473
0.808465,85.19674
0.8509192,91.26662
0.7994691,87.23233
0.68720627,88.0926
0.7478706,83.66432
0.7188292,80.262505
0.7094246,83.031494
0.53848726,77.57608
0.43242994,72.390625
0.4978496,77.451
0.41416445,72.630356
0.37753284,68.894035
0.35968736,69.83258
0.30082935,66.235825
0.352889,65.72455
0.33878317,58.524147
0.33024386,60.849495
0.34614697,57.190533
0.27875814,57.797108
0.4023416,57.608273
0.3354248,55.280464
0.25337824,47.64665
0.17404026,50.80448
0.16847561,50.66374
0.11853516,52.176254
0.12364896,47.333603
0.09395413,53.170006
-0.026267374,48.383476
0.0496845,54.183884
-0.04340135,52.23225
-0.0320523,57.524746
-0.012867182,58.317253
0.006328614,61.417736
0.08275769,56.530376
0.03468166,65.17393
0.15656395,69.932755
0.19151093,69.61677
0.23107255,72.93266
0.45935768,75.723274
0.6740033,79.357735
0.5775235,87.76325
0.8443985,88.58805
0.9232727,93.552315
1.1149398,96.74658
1.0994991,97.86903
1.0551232,103.199905
1.21805,103.328354
1.263296,105.73786
1.255817,107.54836
1.2166176,114.605034
1.4175473,113.26727
1.3099438,117.11764
1.2973589,120.713234
1.3117131,122.11576
1.3335897,119.52179
1.3098748,124.238235
1.4444269,118.595726
1.3705099,121.63613
1.2339281,124.24103
1.367424,119.27533
1.2638798,124.73037
1.1622562,116.70694
1.1210998,117.33835
1.1040177,119.53849
1.0254381,114.8865
0.98936796,112.81141
0.96120894,113.31655
0.99235374,112.29777
1.0283084,109.77364
0.8977347,111.20617
1.0206666,106.79293
1.0419455,106.19835
0.96940863,99.49805
0.9244308,97.73101
1.007412,97.996506
0.88457,95.29882
0.8674085,93.41634
0.8500871,86.829666
0.88938046,88.29182
0.70992815,84.30264
0.68935263,83.69962
0.6750697,81.73258
0.6693284,79.881584
0.6033141,78.42835
0.58293134,74.81856
0.5901584,72.861855
0.5327596,72.76182
0.42633337,75.074936
0.4963191,66.775505
0.48314124,66.091644
0.31125966,64.5042
0.4132005,63.58646
0.39436406,61.551544
0.35152814,60.356144
0.353975,60.81469
0.34348562,56.704185
0.34421095,54.827145
0.28781798,53.39486
0.33308774,51.97134
0.26620957,53.744553
0.3567397,51.99331
0.36406353,45.645527
0.04386218,47.560223
0.15366639,50.335487
0.13540007,45.761135
0.062421393,55.898792
0.10986615,53.133804
0.052051485,56.503555
0.04897655,56.388123
0.17267512,62.260937
0.090584435,58.957954
0.21644664,65.25399
0.38391232,71.19925
0.44277012,65.240234
0.50004625,73.571594
0.6090209,77.534225
0.71960896,80.53047
0.9643801,84.30117
1.0050976,90.099785
1.0952996,98.10668
1.1107711,93.88901
1.2814134,103.110695
1.3493062,98.234085
1.3199683,107.27595
1.4059798,107.06419
1.4963623,110.88893
1.5346684,116.18634
1.5319681,118.36742
1.5136782,118.94272
1.5832231,116.92584
1.6014079,122.25413
1.4845961,120.58788
1.4430963,121.50114
1.5798689,124.800606
1.4982626,115.97022
1.5716792,122.81408
1.5084065,118.7034
1.4868453,121.351585
1.3250195,114.8799
1.3121704,118.08181
1.3318938,112.90673
1.3534544,117.58507
1.2094616,117.72287
1.1910332,114.87636
1.2040255,113.64915
1.2484635,105.57114
1.1867914,105.19756
1.1876065,97.34278
1.2454467,101.38976
1.1602482,103.927986
1.1887565,96.280594
1.24758,95.006615
1.1181257,91.10454
1.182116,94.7292
1.0626968,92.54238
1.0629265,88.44247
0.99487156,84.96998
0.8521883,83.62526
0.9351529,85.94096
0.88039225,80.92548
0.88867867,76.05716
0.80848616,76.13088
0.84417564,71.978676
0.67046237,70.52153
0.66165286,69.60464
0.70997244,67.22321
0.5964651,61.532837
0.73884493,64.549904
0.7070105,64.10896
0.54586667,65.62449
0.65987015,61.53843
0.5423339,55.71425
0.646879,59.784748
0.5807893,54.843735
0.66468555,52.889523
0.63573295,55.912262
0.6625327,52.61064
0.5118943,51.384506
0.4284848,49.95377
0.37213853,50.969612
0.38601843,53.14432
0.44363457,51.75352
0.32919422,53.92074
0.27547807,54.181225
0.391337,59.28929
0.36395445,61.31822
0.32660776,59.113087
0.5317461,64.21151
0.38080767,67.949974
0.61050236,67.88733
0.78018075,71.612274
0.8979012,81.08063
0.9637412,80.714
1.0674269,86.54988
1.1195467,87.52806
1.2792584,92.31133
1.4690366,96.09555
1.5118881,97.29201
1.5235893,104.23284
1.6447498,106.80139
1.7060242,110.99364
1.7335085,111.89485
1.7999843,116.02454
1.7215384,115.35695
1.7848525,117.815575
1.8042908,118.9872
1.8243994,121.18932
1.824079,119.4147
1.8030071,121.031204
1.8719542,120.67884
1.8539995,120.74619
1.7648581,123.12287
1.7170639,120.53843
1.6941332,123.18441
1.721777,121.765724
1.6787305,124.34113
1.6265062,122.17818
1.5752952,114.80021
1.6155798,111.90645
1.5556821,112.570465
1.5056258,109.89684
1.5531393,110.67422
1.45962,105.088936
1.457331,103.26111
1.46625,105.30807
1.3981857,101.48392
1.4218748,91.352554
1.4765897,102.6743
1.5100205,89.84043
1.3995116,91.20168
1.3814495,90.794495
1.3382053,89.91005
1.3074698,90.6028
1.249381,83.380325
1.0673534,86.67075
1.1859982,75.63954
1.0159765,75.13736
1.0677128,77.78924
1.0557225,75.58554
0.98665816,71.42728
0.8628304,66.819046
0.8929629,63.152386
0.8272433,65.96077
0.93449235,67.2442
0.7497545,63.13631
0.79321414,58.80718
0.88467145,58.433422
0.9028648,56.993694
1.0009639,60.18378
0.87609214,54.410316
0.8916715,52.081867
0.8430884,53.47736
0.83943886,49.826973
0.6630251,53.429028
0.7398988,54.438267
0.48919952,44.689
0.66713035,48.38631
0.7122445,50.12766
0.62311983,53.254726
0.6530148,53.513004
0.50159913,55.255142
0.4710108,59.17386
0.5758525,60.639526
0.6333035,64.49263
0.57275134,70.3377
0.69085205,69.70659
0.8509869,69.90935
0.97865725,73.9927
1.0631187,81.56427
1.2688915,82.398026
1.3547921,85.44996
1.3506144,91.33163
1.4779347,94.81252
1.5918924,92.64678
1.6518537,104.18461
1.7737815,105.24171
1.8401955,103.431274
1.7908686,113.44297
1.972462,115.406204
1.9307723,112.480034
2.0133576,115.89267
1.9622465,114.67964
2.0044827,118.40426
1.9557151,121.67662
1.9452729,118.87784
2.0069242,123.92968
1.9188275,120.85326
1.7621357,129.25552
1.9353397,121.30387
1.7990263,122.58271
1.8695995,121.14859
1.8986477,122.02844
1.7099893,119.62432
1.7191741,117.116234
1.7084596,113.6216
1.5842988,112.70469
1.6182443,117.34986
1.5109296,109.949135
1.4141953,108.22039
1.5121003,109.01469
1.4532936,107.3292
1.621301,99.85977
1.510758,100.53496
1.5692815,101.26798
1.4091387,94.68666
1.354765,93.62798
1.3798118,92.2702
1.3595533,93.66596
1.373348,84.92071
1.3547705,89.15993
1.3150603,81.91979
1.2957174,80.953735
1.0820091,82.02318
1.1042973,79.78767
1.0932498,80.22139
1.0021375,77.04489
0.9397042,71.736046
0.96660334,70.37729
0.86177576,69.3903
0.9651777,70.16558
0.9508268,62.24799
0.88108,64.76067
0.8455616,56.890667
0.90201944,60.988968
0.8827937,56.59567
0.8291822,50.646362
0.93187314,57.230686
0.7474343,51.83092
0.70358336,54.217712
0.69085103,50.641727
0.70911574,51.274715
0.7198228,48.751045
0.6420821,53.27757
0.6077003,53.197765
0.62388563,51.135708
0.38581815,52.65972
0.47782078,56.585968
0.40843695,54.985027
0.5746913,60.102795
0.6326091,63.37273
0.58820295,65.447914
0.5861699,64.3169
0.8094613,72.05171
0.82739615,74.86663
0.8981092,74.159546
1.0178922,78.63798
1.1149503,87.79071
1.2507504,87.81802
1.423931,94.3058
1.5175327,95.467834
1.5609292,94.86893
1.5976187,102.072586
1.7475471,101.29529
1.6442658,106.18557
1.773339,113.32244
1.8127142,117.66917
1.8271917,116.49215
1.753308,119.55515
1.8242118,118.630714
1.888916,124.98758
1.7794056,123.694145
1.8150008,123.754074
1.893187,120.70681
1.7239776,124.83496
1.7371213,124.64268
1.6961212,122.308266
1.7565246,117.97602
1.6234872,123.24131
1.7096952,121.90513
1.5636537,119.92929
1.574847,119.10825
1.5227146,112.99481
1.4649842,112.73576
1.3513021,108.18492
1.3985382,111.49956
1.4456224,106.01382
1.3574562,105.74889
1.2522832,104.42355
1.3935274,101.33769
1.4134033,98.41147
1.1976378,101.14027
1.2822322,93.76872
1.2792603,93.282585
1.2627385,89.85772
1.1743139,88.29702
1.1390032,84.487434
1.1670699,86.35896
0.9399211,83.74015
0.9545492,82.8532
0.9180651,80.09453
0.81264603,76.90946
0.94325036,76.2507
0.7036848,71.83318
0.7156635,71.47696
0.82937276,63.8675
0.6777959,65.92241
0.7501853,68.516205
0.6253366,62.685246
0.61206895,60.652313
0.63297653,59.82254
0.6612067,59.564407
0.6224282,57.601776
0.58637685,56.36688
0.63009715,54.040203
0.5426153,53.63721
0.61707026,51.560413
0.49204093,49.66283
0.39722747,49.194473
0.2378775,48.765152
0.3616886,56.035316
0.3216594,47.62568
0.2982176,56.477867
0.23083268,55.52001
0.2138947,56.009197
0.16384831,54.83784
0.23247834,63.272243
0.3889964,63.122604
0.31902128,66.46372
0.41562808,67.692635
0.5253311,74.3196
0.6403271,75.4621
0.7781574,78.444046
0.9255878,76.90809
0.9356711,84.40932
1.1141814,90.34844
1.2029516,93.71034
1.3576845,97.16458
1.278322,98.72996
1.3545758,108.46897
1.5078049,107.39101
1.4387387,106.58222
1.4519713,111.7851
1.5937105,114.026764
1.5623654,122.24364
1.6133815,120.4555
1.4645616,119.50783
1.4857593,120.83313
1.4840633,123.64181
1.5345742,122.80431
1.4759657,121.48219
1.4457718,121.57554
1.4888471,120.39579
1.4851253,117.901024
1.4904951,119.25954
1.3454475,121.43763
1.3352801,119.1042
1.2578303,116.12807
1.1609302,111.96943
1.1626763,110.26774
1.1324598,110.223495
1.1340616,108.86963
1.0807157,109.39182
1.0747166,108.39731
1.0513855,105.61043
1.0283082,98.97459
0.9858326,97.641
0.9838004,98.44468
0.93812525,93.748695
1.0191847,91.8291
1.0001105,88.99569
0.97538716,91.48449
0.8395097,89.939064
0.8411728,86.44303
0.8783619,86.59799
0.7142221,81.318375
0.686825,78.688446
0.69082063,75.82328
0.5458323,78.8318
0.5220718,75.75805
0.4958348,73.62005
0.5841133,69.367226
0.33496156,67.12151
0.4363646,67.0014
0.35900497,65.61261
0.34881273,65.328705
0.32380262,57.376915
0.44921148,53.211544
0.42812118,54.97643
0.2287183,56.859085
0.41472083,54.878757
0.39831436,54.079754
0.26347134,53.456173
0.23991962,52.402187
0.30793607,53.455048
0.19730224,52.3201
0.15459387,49.76229
0.09176161,49.3375
-0.053076707,54.350723
-0.037920453,54.673622
-0.08947523,57.52387
0.06804596,55.31187
0.03873454,58.427876
0.072815925,57.82214
0.07232849,60.023544
0.11198218,67.74969
0.1851193,70.65791
0.40724912,70.2389
0.52500916,76.58236
0.68876517,79.41605
0.61427534,83.83232
0.82477695,87.93614
0.9740295,90.96641
1.0121969,96.03461
1.0196427,97.454834
1.0693399,98.997025
1.3126873,101.1008
1.3754234,108.87194
1.3506688,111.64865
1.3602493,114.05093
1.2495867,113.6066
1.4507277,117.62874
1.332002,122.93161
1.4513521,121.855446
1.3550158,119.013054
1.3536063,122.8193
1.2068472,123.35622
1.3582177,123.25261
1.335561,124.91229
1.3443935,124.51984
1.2388145,120.77064
1.1862874,116.766975
1.2735733,120.122444
1.0448277,120.03881
1.1684157,114.40783
1.0377766,109.25486
1.0113612,110.10757
1.0205925,109.44076
1.0022498,110.824524
0.936196,107.09531
0.8755389,107.43806
0.8379776,102.44735
0.9347053,101.165146
0.9061201,95.61063
0.8847187,95.42983
0.8279195,93.672585
0.89538825,93.38103
0.7938847,92.42417
0.75250894,86.966064
0.8379077,89.68684
0.721863,83.862816
0.74071896,86.10727
0.69616115,79.21874
0.5482437,80.18929
0.5439822,73.80384
0.42931557,71.33798
0.38768983,73.7117
0.42023838,72.177086
0.31800494,65.93131
0.39638096,66.22646
0.31687236,67.70909
0.35483947,60.968807
0.3669719,63.2499
0.32455385,61.44844
0.34107298,58.620235
0.21404536,57.9349
0.3471972,55.536415
0.1830314,48.96146
0.27165875,52.404247
0.20232902,51.51654
0.1712129,51.266964
0.18614113,54.726955
0.10615691,51.529743
-0.04797814,49.988594
0.011008376,56.22068
0.027978756,54.736877
0.08954324,57.436565
0.008739011,55.850174
-0.020106465,59.385296
0.04191853,54.747448
0.17265175,64.28007
0.14132407,67.09366
0.1289947,68.32273
0.2829723,74.392715
0.31820613,74.92435
0.5090748,77.140335
0.6158334,81.9145
0.7896401,88.54502
0.858795,90.79686
0.9776301,96.60368
1.0214959,95.9091
1.2077618,100.84812
1.3071849,104.92278
1.2279702,110.37787
1.3131658,112.12488
1.3507345,117.176865
1.3875676,116.48642
1.4272835,115.989845
1.3871136,116.64795
1.4902682,118.82406
1.5035598,121.39249
1.4507025,117.91361
1.4297117,125.43577
1.4805896,126.99222
1.3760508,126.81535
1.2773931,124.1507
1.3689201,120.70524
1.3927039,119.43425
1.3170309,117.11388
1.2032349,118.31478
1.1127126,114.93603
1.1966001,117.036316
1.1395261,114.540955
1.1360617,112.98396
1.1331402,104.84653
1.01992,104.25445
1.0807713,99.48903
1.0373122,101.91984
1.012158,99.548615
0.98887247,99.80704
1.0058787,97.314575
0.9766885,95.79625
0.9977502,92.22356
1.0374558,90.73711
0.9435061,86.08679
1.0206494,87.024155
0.91659445,85.62001
0.7900401,82.80083
0.9521623,77.983025
0.7504318,82.6658
0.68814504,76.33331
0.695281,78.043465
0.5300472,72.493614
0.589459,72.22945
0.54947585,74.2296
0.5105411,64.67325
0.5111768,66.93817
0.5036653,63.368637
0.54974586,59.69688
0.45386484,56.95553
0.52922386,63.45774
0.5290928,59.062187
0.51411885,54.99623
0.48135325,52.921318
0.42600542,52.7819
0.43400264,50.58035
0.43122575,51.721096
0.39887786,53.770794
0.34261414,48.888546
0.327975,51.770275
0.21913528,47.272926
0.27017787,51.83671
0.18149787,54.11802
0.14712547,50.660793
0.27920783,55.939056
0.21957685,59.56081
0.33758238,56.076958
0.4025174,65.12355
0.3801247,64.57964
0.38779932,70.27568
0.6066772,73.96091
0.7163027,70.49788
0.7704353,79.19852
0.98871875,85.259384
1.0468981,88.3057
1.1545941,92.85879
1.2502228,91.280235
1.2803514,100.47552
1.3188108,106.304344
1.435724,105.81959
1.507043,106.786705
1.5764675,108.86999
1.5759604,116.27398
1.7447736,114.33872
1.6914105,116.76996
1.617744,123.29369
1.6611948,121.58797
1.611546,123.30964
1.5887333,124.56432
1.5912813,125.34697
1.6448864,121.821686
1.6396569,121.00144
1.7312813,123.444016
1.6776817,122.83846
1.4834765,121.91563
1.5499966,117.12063
1.5006953,120.03084
1.4383148,116.15961
1.4479649,112.175385
1.3712585,111.86191
1.4103819,112.34856
1.305605,107.06347
1.3038775,101.970055
1.3872017,104.39946
1.3529124,104.23166
1.2829357,101.42562
1.2815223,99.29437
1.3027846,95.17584
1.2761647,94.65874
1.2164071,93.90235
1.2287655,89.099724
1.2443142,87.483284
1.1427618,82.3564
1.1400249,84.396034
1.1948436,79.0835
1.1007544,83.95878
1.08427,82.086845
1.0125247,75.63869
0.8442175,76.03918
0.90202224,70.93195
0.9593587,72.92773
0.8542187,67.922134
0.7660167,65.63961
0.6885291,63.447704
0.8238911,61.221615
0.7361368,60.51805
0.70606834,57.67206
0.84243625,61.31936
0.7392103,53.155838
0.7583808,59.6553
0.83395827,53.387524
0.6945202,51.283794
0.76406354,54.522663
0.6982119,49.83308
0.6871496,47.17193
0.59441817,51.03087
0.42547232,50.88766
0.49111158,48.794888
0.40266117,53.1799
0.35620534,58.11369
0.5003482,54.173935
0.42310655,58.675644
0.3324418,65.006386
0.56945807,63.170475
0.565256,59.720737
0.6133476,63.83456
0.6853103,74.131645
0.95155555,73.25281
1.093898,75.93915
1.1614916,79.98066
1.1888179,84.22345
1.295783,89.749985
1.4665182,93.223564
1.5359595,98.59802
1.662178,99.49194
1.7838621,106.01009
1.7212709,104.954315
1.7999092,106.3118
1.8441002,105.34186
1.898832,113.65149
1.8776287,117.96645
1.9042361,119.214745
1.979591,123.03402
1.9547229,122.26703
1.9211966,119.063965
1.9470478,121.32491
1.847943,124.20049
1.8247855,122.05805
1.8267794,119.86677
1.713576,122.597275
1.8856997,123.46705
1.7183422,120.41301
1.7351384,119.906136
1.7107915,116.999146
1.8072832,113.163574
1.6773002,116.49388
1.624359,113.41372
1.5201234,110.783
1.5322973,107.28444
1.4827417,107.65172
1.4745945,104.669
1.5438479,97.89266
1.5541542,98.58091
1.4606655,97.98385
1.432971,95.644516
1.5757219,94.970825
1.50541,90.57902
1.4936092,90.3587
1.4067,82.61918
1.4142509,86.72152
1.3231851,87.02396
1.2322813,81.405396
1.2477317,78.98152
1.121734,80.326416
1.1186616,74.72397
1.0877705,72.57724
1.1140257,73.08305
0.9706909,70.48993
1.0016739,69.71632
0.9596882,65.66124
0.93127996,64.46111
0.8691011,62.5228
0.82873654,61.753696
0.99087054,57.29733
0.97558105,55.721607
0.7948024,58.230747
0.96837604,54.142914
0.83269465,53.606853
0.8479617,52.653305
0.78168476,50.756027
0.8065182,53.36743
0.68254024,50.152336
0.7191338,54.723114
0.5919349,53.610905
0.53723437,51.266582
0.43820268,57.052853
0.60508215,55.604706
0.48599175,58.843964
0.5966428,56.346115
0.6413217,65.32251
0.7195241,66.111015
0.7146313,68.81439
0.7730233,71.56344
0.92663574,73.82759
1.0228662,77.21342
1.0961041,80.720406
1.2991505,86.94802
1.3814962,87.21003
1.5308264,90.63613
1.4746104,89.59738
1.6561546,98.28004
1.7175618,101.13982
1.7695178,103.10495
1.7972866,107.181465
1.922153,115.21872
1.9193734,108.559654
1.8845559,117.41902
1.943306,116.88936
1.9126643,117.30538
1.9516815,123.155174
1.8987201,121.680984
2.105796,118.03928
1.9418501,123.69509
1.8797015,124.79054
1.8882293,122.23614
1.8388293,125.29348
1.8733199,124.81372
1.681282,121.9083
1.7666649,123.463326
1.6315125,115.35559
1.6731651,116.31255
1.6109653,114.63468
1.6240506,114.55067
1.5918553,113.98384
1.4807569,108.89426
1.3724016,111.27927
1.4430321,107.834984
1.4528209,108.13055
1.4450418,100.832855
1.4311644,100.115906
1.356366,99.78381
1.4306436,97.89677
1.3813267,91.98771
1.2797439,89.77657
1.3222139,88.29653
1.1490225,91.352715
1.3148184,79.894356
1.2626482,83.01959
1.115287,80.41032
1.2124201,81.58066
0.94369924,77.13852
1.046385,80.083145
0.8933889,72.49244
0.9420255,74.113914
0.8989718,66.87081
0.88909584,67.39349
0.7748181,63.955475
0.79673326,64.29731
0.8874997,65.696785
0.7996498,57.841057
0.8218052,59.45186
0.76472515,58.103405
0.7437079,54.130386
0.74782956,51.710304
0.681465,53.66227
0.712398,53.605
0.6639324,51.40482
0.59792525,46.77284
0.57367736,51.428238
0.44818458,47.72525
0.45999262,54.542736
0.44390574,49.630203
0.37323523,51.906536
0.34167284,49.81259
0.42090935,60.222248
0.41807798,58.40208
0.38656864,68.529236
0.59901327,63.474926
0.5359928,66.71996
0.6441589,72.84763
0.78790134,74.38905
0.8791612,83.39141
1.096034,82.356735
1.0881935,84.09909
1.3367,89.475395
1.3114854,95.09257
1.476301,96.25263
1.3404679,98.97125
1.5089179,101.133514
1.5823241,108.618
1.629225,108.24057
1.6396435,108.9982
1.6013236,112.9833
1.5984992,117.074394
1.692155,117.52843
1.7449605,123.254
1.7706006,124.605286
1.6594614,118.646286
1.6625956,125.73401
1.7060809,126.17775
1.6150188,123.15576
1.5997652,123.43724
1.6105077,124.220474
1.6018928,121.47778
1.3990697,121.34807
1.4659806,121.69098
1.5642688,118.93351
1.402956,114.2646
1.3199626,113.6591
1.3414509,109.362526
1.2299539,109.12111
1.2248288,109.5667
1.2204409,108.80006
1.1591572,101.841934
1.2858583,101.914246
1.2365694,103.25342
1.183588,95.520294
1.1442708,99.71068
1.0841262,95.77015
1.0972289,90.63227
1.2029204,93.980835
1.031093,86.6382
1.0927117,91.36089
0.91662556,88.53943
0.86623687,77.54159
0.7976032,78.13895
0.7812311,81.12782
0.65600896,76.6571
0.6414186,72.6333
0.58692366,74.13547
0.6070951,72.08222
0.6193623,69.91494
0.48025224,61.651413
0.7087017,66.14085
0.5141517,63.514915
0.61206234,55.246506
0.42805162,64.14764
0.44439152,54.660038
0.4680682,59.115364
0.47095382,56.386517
0.538901,53.934002
0.4322925,54.871925
0.44221532,50.394897
0.27653497,52.749325
0.18823722,48.35868
0.2952766,47.289097
0.24956892,55.722584
0.14771888,49.374725
0.0758705,51.26177
0.05569277,56.16951
0.042219043,52.673065
0.1909826,62.440826
0.147557,60.8001
0.20676751,59.821243
0.33285823,63.45491
0.318264,70.615295
0.5187044,72.92223
0.58384305,75.17392
0.6452541,81.21897
0.78692514,79.19576
0.8585593,90.21501
0.91135573,94.35822
1.0437633,90.85404
1.1535002,101.10248
1.186654,103.861
1.3555936,99.42889
1.339859,104.86291
1.3724557,111.24782
1.4132199,110.009186
1.4286895,113.05805
1.4364291,116.555435
1.3950804,119.91756
1.4564828,121.92513
1.5257456,125.736626
1.4597592,119.3852
1.4094825,124.556854
1.4186195,118.722534
1.4063116,119.040596
1.3389829,123.25232
1.3620045,121.39838
1.2578344,121.5986
1.2148546,123.59482
1.2245827,113.72028
1.1718334,119.39055
1.1407893,116.60476
1.1202936,115.028206
1.0477631,118.78014
1.0483941,112.10684
1.0079952,107.55273
1.0859514,104.31849
1.0320305,101.96657
0.953014,100.91552
0.8863866,103.631256
0.97056514,96.38857
0.9584713,91.02054
0.9841744,93.394104
0.81980956,89.92455
0.9093176,88.582054
0.75126886,84.58438
0.79061735,83.457375
0.61604625,86.66959
0.73775357,82.41081
0.565723,83.83363
0.5416526,75.41721
0.45714855,72.269295
0.46728238,77.323555
0.40372786,72.38014
0.3840341,66.7776
0.43230322,66.35373
0.39938867,66.12802
0.39996764,60.377457
0.33670717,59.006233
0.2824915,59.817226
0.40310892,55.96238
0.2805487,60.85601
0.3283957,55.195198
0.35962382,54.414864
0.2828051,55.5852
0.2816666,46.190704
0.21807449,51.405132
0.1376598,51.62119
0.07080791,54.522667
-0.12070834,53.0837
0.0058761034,52.702625
-0.008662696,53.698483
-0.1608751,50.697445
-0.06185565,53.474773
0.056526423,54.402706
0.05344899,60.501324
0.047947224,64.82979
0.10449836,64.45459
0.24609034,69.30764
0.1558195,71.07085
0.41414446,72.611046
0.3918582,74.95755
0.595663,82.64623
0.7848641,81.78648
0.8141961,91.12052
0.8000637,95.182594
0.84123045,94.29231
1.0511112,99.18125
1.1436536,100.11875
1.296312,103.904854
1.2242017,112.21758
1.33428,113.281235
1.4492698,112.09007
1.3558247,121.43482
1.3915952,117.70216
1.3292181,119.32244
1.4116803,118.82157
1.3683159,119.00169
1.4097263,123.61375
1.3021113,127.348595
1.3825663,121.08044
1.410744,121.40257
1.294542,123.656395
1.2055606,120.39014
1.3292505,120.99686
1.2074869,121.42952
1.1033343,120.66472
1.1356874,115.58443
1.0380903,112.71596
1.1449964,113.450905
1.0747641,110.82212
0.8956426,110.6141
0.8987232,107.25319
1.0415286,103.06851
1.0642375,102.2549
0.8485446,97.910866
0.95930314,100.40808
0.8764907,95.67537
0.9275678,90.80537
0.8005698,88.25375
0.8723642,90.18111
0.82131225,88.22784
0.78397983,84.80738
0.7004472,84.20599
0.6907155,82.26502
0.5495878,82.3738
0.5971449,79.8114
0.5838692,78.80889
0.5562321,71.342575
0.41168615,67.63534
0.4618826,74.12955
0.45265612,66.981606
0.37820598,65.52361
0.36729133,64.2299
0.36749244,67.3095
0.40188825,64.170044
0.41345027,57.993954
0.42319793,57.966278
0.35911125,59.89919
0.39317316,52.505566
0.29585397,52.13265
0.2671773,55.100803
0.31977838,54.33812
0.3567158,49.417084
0.18073067,49.922226
0.19134772,52.500374
0.13126281,53.663643
0.037292164,49.67302
0.15597664,53.111496
0.041244518,56.16944
0.11107808,56.56182
-0.0075378506,62.726852
0.07944003,60.513687
0.15080784,62.512478
0.22445224,68.41798
0.25437474,71.14009
0.4160165,74.09877
0.6249793,77.54058
0.6733152,81.062775
0.7322736,84.73591
0.85585105,88.91694
1.0281711,84.94394
1.1514484,96.06044
1.1960932,97.63197
1.295229,97.964485
1.3248972,100.47099
1.3255591,106.574326
1.3940762,112.43023
1.6156913,114.10495
1.4853657,118.27364
1.4688994,115.29192
1.5195984,119.28295
1.5238674,120.06495
1.4391677,121.729515
1.6013213,120.038185
1.4800175,123.95871
1.4214107,119.126564
1.5182579,122.94825
1.4903865,126.197205
1.4916798,121.942795
1.4833251,116.02469
1.4024622,114.92996
1.3817773,117.37185
1.347874,115.40924
1.2349068,117.166756
1.2481995,112.70831
1.1725695,111.16961
1.194761,113.46368
1.2305732,110.58402
1.2516085,102.32984
1.1300379,105.00541
1.2317737,100.33616
1.1557144,97.11096
1.1614445,102.13685
1.1195995,93.28452
1.2188509,92.6891
1.0541693,86.839935
1.0166268,92.06109
1.0347713,89.87481
0.9202455,83.28645
0.8651716,82.074326
0.9654486,85.297
0.88298446,76.2311
0.80899847,78.0841
0.693849,76.39731
0.6835808,68.61283
0.62385523,77.71999
0.7368423,72.39822
0.6368945,69.650764
0.67573833,62.55221
0.67255884,60.578144
0.66293865,60.858665
0.58088887,63.03489
0.6969776,54.294727
0.59240025,58.78061
0.6804883,55.36767
0.6320105,52.845837
0.5499574,52.884434
0.48386088,57.29982
0.60197186,56.592335
0.5075006,52.562916
0.44975978,53.706665
0.56930417,47.50084
0.33783644,54.397858
0.3446232,52.881844
0.36581147,51.21022
0.4311205,55.514977
0.3482099,58.552544
0.4332372,58.88403
0.3787765,63.015373
0.54042286,66.01527
0.5532967,65.00604
0.6280379,71.95038
0.7666607,68.75462
0.8471946,75.86092
1.0371354,85.429985
1.0144994,84.09101
1.182579,83.94811
1.3323807,89.73768
1.3502309,98.39124
1.554434,103.63207
1.5323954,103.752
1.6802673,105.53255
1.6171683,108.76071
1.6710056,116.25227
1.8407718,114.940926
1.8172325,116.95746
1.8508923,119.27911
1.8063409,117.29629
1.8371542,127.152855
1.7339164,119.67947
1.9081799,126.433464
1.7805657,123.57031
1.8644812,124.548096
1.7569565,123.903465
1.7247638,122.46033
1.6776475,118.6318
1.7083979,123.97161
1.6305255,117.042625
1.5214808,119.737854
1.6007154,120.24942
1.5505913,113.99986
1.5103406,115.84173
1.5608269,113.982925
1.4769229,110.44922
1.5494884,105.13563
1.3691695,105.5106
1.3660082,105.7951
1.4002484,99.53991
1.4351984,94.16484
1.3250895,99.6982
1.4480747,91.65063
1.3798276,89.65115
1.3898535,91.265396
1.3277906,88.08701
1.2337868,85.26305
1.2285789,85.8114
1.2323674,84.13423
1.1440234,80.883606
1.0913302,78.18625
1.0018762,78.00684
0.98291844,74.760635
0.90933007,73.06693
0.95972556,70.19264
0.85453594,71.50881
0.933716,67.66974
0.79546934,64.77118
0.8903253,61.416862
0.79064715,63.952343
0.8334489,58.766373
0.86587226,61.013737
0.82448614,54.92363
0.89160746,58.230583
0.9535396,48.495827
0.88697416,53.824387
0.7656259,55.581535
0.709254,48.117
0.6853811,49.944397
0.692423,50.86599
0.6331718,55.794514
0.68022734,50.097042
0.5373925,51.467896
0.39849433,56.761066
0.45660752,53.797375
0.5679707,56.141502
0.53285736,56.416885
0.6766396,65.35085
0.6888171,66.18035
0.67648906,68.02624
0.901088,73.10154
0.96662235,74.98603
1.0110676,82.12701
1.2848741,86.974846
1.3172402,86.32334
1.4488722,88.40825
1.4812549,96.327286
1.6449045,98.94253
1.7093804,98.12853
1.7516234,101.270676
1.7756788,104.79617
1.8305719,111.38459
1.879022,109.62481
1.928191,115.21353
2.0182595,117.429
2.0176115,119.16433
1.9164954,119.29732
1.981925,118.93699
1.8891715,126.84134
1.9312623,119.83886
1.9529065,126.931274
2.0155914,122.16575
1.8428609,121.43314
1.872218,115.03126
1.8495734,115.582954
1.7830693,116.82401
1.699898,119.66147
1.718173,116.572586
1.7108123,109.89358
1.731569,114.09447
1.6042818,110.17438
1.584403,109.60926
1.5942479,104.80419
1.5587804,106.0692
1.6025718,103.553154
1.512206,101.36438
1.4116886,97.9633
1.4843127,93.59506
1.5050821,93.3244
1.3860273,92.50064
1.5475512,88.84901
1.3954844,90.21004
1.3379288,85.90145
1.2474602,87.78979
1.1519238,87.18299
1.1375962,85.996155
1.2295735,79.70126
1.1296651,80.33956
1.0641778,75.22887
0.9838021,74.34364
0.9067407,71.67031
0.93778545,73.72125
0.96239316,70.21691
0.9506235,66.756325
0.9759489,62.671646
0.92654544,62.315563
0.93051755,61.190453
0.9044049,60.847828
0.78828794,61.470676
0.84409744,54.657166
0.8947032,54.37527
0.8883612,50.477165
0.76861507,51.643
0.8249956,51.182526
0.76838124,52.71342
0.63517356,53.716927
0.5755762,52.561893
0.48317176,48.608234
0.44090012,50.402878
0.45859104,52.463493
0.4390657,53.326714
0.4104158,55.820652
0.5431046,63.94087
0.5710354,65.59986
0.5122304,62.919777
0.6313743,70.085884
0.7440566,73.95801
0.9745044,76.26931
1.017934,78.24765
1.1554217,78.711685
1.1927893,86.4156
1.3850727,84.413086
1.4633486,94.03
1.5046303,99.3798
1.5489662,95.9998
1.567994,104.5363
1.7267118,103.72573
1.7972887,105.535736
1.7882707,113.714386
1.8123695,109.283
1.8393496,120.50771
1.9291615,119.97061
1.8410488,118.68599
1.8196932,121.50271
1.870224,120.056984
1.8759954,121.6046
1.8461977,124.199715
1.8138127,122.16625
1.7294092,120.782
1.7981274,122.57055
1.6841451,120.69936
1.640647,117.21491
1.6607851,120.26722
1.517826,120.09664
1.6242834,112.66498
1.4840152,119.68005
1.4478251,116.2189
1.4439967,109.57192
1.3189567,110.14664
1.3812765,107.11268
1.3773596,102.59173
1.3828858,102.70445
1.3949144,100.07748
1.3334727,100.35022
1.2420211,91.93586
1.2355518,96.2835
1.2602917,93.267265
1.20779,87.616394
1.1782691,88.14094
1.2172579,84.52246
1.0857748,87.131935
1.0436928,83.26488
0.9601712,79.50899
0.91973096,80.46022
0.9057908,74.206215
0.8712744,74.04828
0.85447204,66.89624
0.80278015,69.131
0.7413398,66.787674
0.7234998,69.73724
0.6048223,67.246414
0.66910106,63.37585
0.72914284,61.624542
0.7157975,55.507336
0.61495477,59.309208
0.7521276,55.891514
0.54651123,53.357185
0.53498846,55.884953
0.57397527,52.091747
0.59787196,52.850697
0.5107763,51.298782
0.42550492,54.218506
0.40421748,54.723827
0.3207458,50.110283
0.34568375,51.88672
0.27443075,54.569344
0.18105143,53.129078
0.2031764,60.95027
0.29587352,53.94267
0.2939319,59.48892
0.31656104,65.91173
0.38892937,63.581356
0.4938103,67.87777
0.4681386,73.7794
0.66602445,75.334435
0.758012,76.58769
0.84396446,82.28404
0.94452035,84.76397
1.1716065,93.47532
1.1925057,96.18749
1.2767812,98.69763
1.3578084,101.65663
1.3620248,105.01376
1.440391,106.63758
1.4693986,107.87895
1.477822,108.79894
1.535273,109.00121
1.5485709,118.501854
1.583454,115.580795
1.555177,119.7738
1.5350589,119.5854
1.561711,119.72773
1.4812026,123.55116
1.480421,122.91592
1.4523807,127.30877
1.4719213,124.54256
1.4736627,123.15324
1.4359388,116.62605
1.382031,118.9205
1.3694342,119.308846
1.2386782,117.70652
1.2221056,115.15963
1.2968553,112.118
1.127763,111.915375
1.1964133,105.87419
1.1340714,106.630356
1.1275077,107.43682
1.1227695,104.55561
0.9701486,103.85954
1.027644,100.9863
1.0773515,95.89843
1.0037849,97.83766
1.0463241,91.22944
1.0268838,91.51192
0.9678007,90.01849
0.93125665,86.9689
0.76539177,87.81784
0.7291004,87.605736
0.6826871,81.024216
0.72626895,82.19378
0.74116653,80.40213
0.57038516,77.47904
0.51564294,75.25654
0.5670511,73.80356
0.4992727,71.764336
0.4766983,70.66126
0.35676768,65.35468
0.40985763,62.183743
0.47611487,59.674416
0.42113996,55.53773
0.43097243,61.22891
0.37486723,52.91091
0.43982887,57.319775
0.38747644,51.97079
0.3918895,50.971825
0.33372426,52.130283
0.21494107,53.744984
0.24950899,51.388695
0.19049256,53.580418
0.15107714,52.02359
0.087038614,50.85822
0.087320596,49.886024
0.032406066,54.53994
-0.013832716,55.41613
-0.03931256,60.29383
0.026331168,55.76891
0.06725106,58.471367
0.06163496,63.906734
0.18407385,65.36722
0.26718107,72.488106
0.41290167,70.844986
0.5293823,77.92944
0.5522491,80.57761
0.7352064,86.41334
0.8497912,86.87808
0.9802501,87.78597
0.9402737,101.81083
1.0592846,98.945656
1.1384032,100.29348
1.2275872,103.882355
1.3850886,110.60317
1.390216,113.30009
1.3771632,114.969826
1.3603591,114.43506
1.3262743,116.78135
1.2877185,120.50135
1.4315828,122.88745
1.3625677,119.74711
1.3703454,125.53744
1.3860384,119.72012
1.4543488,124.34174
1.3891519,123.53283
1.3715056,117.89845
1.2163742,120.38946
1.3094776,120.89625
1.1575027,123.21973
1.1490515,116.6915
1.1193966,114.91674
1.0718008,112.59912
1.0492457,115.00332
1.0599746,111.45176
1.0281429,110.169556
0.9710286,107.95421
0.8861939,102.09031
0.95967877,107.89984
0.86423266,96.734955
0.892786,98.55888
0.92627436,100.37079
0.85314536,98.13081
0.80174744,90.181984
0.79088485,92.57356
0.75041056,92.34324
0.7305388,88.29471
0.67991143,89.5023
0.6788039,85.3374
0.5454925,78.74528
0.5149522,82.37316
0.39401487,79.37493
0.39945593,76.90933
0.4461462,77.49311
0.4633414,71.77135
0.5217211,71.191895
0.34827587,68.4153
0.31445655,67.294
0.38594782,60.942894
0.234711,61.140427
0.3059594,60.048183
0.30498266,58.328068
0.34344476,52.787083
0.30359834,48.673527
0.39088324,53.905796
0.31239405,51.884026
0.205691,54.44592
0.09267377,50.770233
0.10891453,57.05693
0.050368007,50.483833
-0.012438046,49.72051
0.094704494,49.306877
0.02562239,49.413143
0.03546968,56.124424
0.033250768,53.30444
-0.06505088,57.082726
0.001593547,61.75776
0.093584575,65.358154
0.17461194,62.29618
0.15474737,69.16553
0.3748242,71.47414
0.44522804,73.66211
0.5687979,79.80901
0.59365815,84.19222
0.6841317,84.689865
0.86353445,87.30547
0.9437083,95.16555
1.0075011,99.179665
1.1789013,95.16905
1.1868657,102.291824
1.1692392,106.85533
1.3993727,106.763855
1.3298764,114.070854
1.3117296,114.57181
1.346688,121.751785
1.5008025,119.34649
1.4688166,121.6511
1.4428335,121.11709
1.4492046,121.32134
1.5485654,123.505424
1.4078116,124.869576
1.345404,123.30932
1.4081278,123.328735
1.3184583,118.35203
1.2862582,120.94901
1.2903577,120.80989
1.2824031,115.69546
1.136283,117.59776
1.1193657,115.59988
1.0700605,113.225685
1.0678,112.12487
1.191557,112.33077
1.201924,109.35519
1.0699662,104.77125
1.0333157,103.35449
1.0094442,100.8768
1.0091342,100.74933
1.050797,97.40984
0.9586806,99.44514
0.9753723,93.97939
0.87967926,90.38582
0.9019053,86.1008
0.8423183,94.46336
0.8695062,82.659615
0.7682029,84.872574
0.7130791,80.69557
0.7262986,78.869896
0.82046217,78.590706
0.69311255,76.77771
0.6132835,74.21752
0.633758,69.01107
0.5525958,69.25519
0.45043772,64.78887
0.51287633,68.23732
0.50952846,62.509247
0.5556691,64.28639
0.5812094,58.782215
0.5081724,60.72628
0.48982438,59.49787
0.4588381,52.48504
0.52080643,60.313065
0.5743382,54.096905
0.45489168,49.857883
0.38157985,51.067158
0.19644384,45.364265
0.35982284,54.909874
0.37107256,50.978306
0.16041051,48.188374
0.18211995,53.553734
0.29726136,50.08212
0.18200572,57.580772
0.24168365,55.998444
0.21004066,61.715267
0.22079532,59.93366
0.24143863,61.553745
0.43387395,64.66727
0.49301967,67.37071
0.5596224,75.7423
0.69936234,77.80429
0.8966827,84.57004
0.80829614,85.1963
1.0404203,87.15661
1.2292532,91.43755
1.3379383,97.52794
1.2811284,98.05333
1.4434452,99.696075
1.498745,104.75524
1.4150207,101.877785
1.4528393,109.696754
1.5321875,108.185776
1.6490781,112.197845
1.5371715,114.88634
1.7294731,120.00549
1.7231985,117.14925
1.7609866,121.42596
1.7154397,118.85478
1.7471912,124.14403
1.6359279,121.33537
1.6334888,122.86521
1.6431997,121.07475
1.5715517,120.06335
1.6199197,122.23997
1.4765424,120.50052
1.487975,122.26064
1.3929043,113.74653
1.38304,117.55741
1.4628776,112.606544
1.269458,111.75633
1.2456462,106.22547
1.3733696,105.08163
1.234267,106.283356
1.3787879,102.63121
1.2845504,101.401794
1.4271169,100.195724
1.2837478,95.348785
1.2166939,92.75192
1.3417969,92.69358
1.2564327,88.08329
1.1584848,87.48457
1.1422238,90.73601
1.1897683,89.44114
1.0393697,83.84885
1.0063325,79.401634
0.9743848,75.35304
0.9216437,74.50107
0.9051917,77.568565
0.75258565,65.03101
0.7704557,70.39999
0.8231726,72.7409
0.73373884,64.85139
0.743341,65.975365
0.76251763,58.731075
0.7226025,61.673416
0.7814701,58.901478
0.77810526,58.75481
0.7041,58.371964
0.7482962,54.369133
0.73189914,51.193535
0.6091389,55.065056
0.73800236,52.730515
0.69579285,52.034172
0.64256066,49.236675
0.6006755,50.158092
0.47399607,50.52978
0.53701735,52.609726
0.3434331,56.106644
0.48847434,56.276043
0.4607769,52.600346
0.46018898,55.11432
0.42852575,60.095882
0.5638466,61.62515
0.6196357,67.53579
0.6475067,69.15141
0.79509044,75.52165
0.82784265,67.45744
1.0088385,83.67628
1.0543226,79.678955
1.1949105,82.742584
1.2590259,92.28997
1.5254694,89.836586
1.481682,96.06814
1.6063473,104.661316
1.7467262,101.25092
1.7036982,107.58439
1.8267721,112.07215
1.8177519,110.095314
1.9143995,111.6271
1.7974818,112.285866
1.9428983,118.441635
1.9249077,120.31287
2.030444,122.926315
1.9112213,120.397644
1.9722216,121.22889
1.9098514,123.80116
1.8473191,123.48226
1.8873109,122.1692
1.7455772,122.53694
1.8259546,115.884544
1.7104111,115.03386
1.7597957,116.31967
1.5799061,118.526
1.7443862,114.76035
1.625992,113.35408
1.5177053,115.57898
1.4390736,112.405914
1.5934923,107.0008
1.464773,106.44346
1.5002762,102.67949
1.5270402,99.58245
1.5035647,99.72418
1.5202743,101.01913
1.4242897,95.23927
1.4183007,92.885475
1.3541384,90.15178
1.3449126,90.47022
1.3630533,87.11433
1.1896325,84.48194
1.362023,83.48794
1.1190634,83.692665
1.1277127,76.209206
1.1918359,79.11299
1.0463556,71.931786
0.99953675,72.744644
0.96949387,74.61418
1.0748156,69.76274
0.97218156,69.93993
0.9751418,69.07402
1.0551133,64.296646
0.88580763,65.052986
0.9156291,63.27911
0.8910411,62.764492
0.98537964,54.762474
0.92470163,57.62915
0.8067476,55.813755
0.8711881,56.391434
0.85092634,51.84588
0.75770485,48.49787
0.8054799,54.71726
0.678899,49.377132
0.66879797,54.23038
0.7671946,51.57528
0.69201976,50.16661
0.5873445,56.54381
0.5992333,55.605495
0.5906126,53.90497
0.53517306,58.709126
0.6158451,57.720654
0.67972904,59.18773
0.6777931,62.36895
0.7374742,71.65735
0.8707384,74.61242
1.033245,78.78884
1.1684705,78.99858
1.2504658,82.55659
1.3547618,89.623795
1.3876408,90.55477
1.5246711,97.32286
1.6612688,97.57454
1.6657131,100.49384
1.7715722,103.87553
1.8601708,109.8609
1.8050718,110.03228
2.005123,110.16883
1.9054222,122.70927
1.9503462,114.864426
1.9018619,119.65659
1.9927356,121.951
1.912335,125.115814
1.93592,118.60847
1.9060715,122.64525
1.9383607,119.422516
1.8274473,125.52261
1.8880169,120.537544
1.7867569,122.39938
1.8735437,122.898544
1.6869464,123.01912
1.5673649,119.923065
1.6261989,116.35217
1.5796409,114.52659
1.565895,115.50222
1.4943758,108.32879
1.6081657,110.742676
1.6290089,114.27608
1.5908701,104.42359
1.487302,103.06035
1.4777863,104.10396
1.476604,98.710266
1.4337617,99.056435
1.371184,96.8769
1.3319473,96.65159
1.3782682,91.143295
1.3870543,87.22623
1.280208,88.19267
1.217311,82.50484
1.170359,79.83857
1.2168242,80.940155
1.131169,78.21212
1.0297788,78.61893
1.0228626,71.66512
0.9447567,70.235
0.89570135,71.35873
0.8989225,68.413574
0.8851466,65.50581
0.7540874,63.91838
0.79716605,66.361206
0.8460458,57.114548
0.7846604,63.23792
0.80797994,58.974064
0.7330779,54.229893
0.7507179,56.093338
0.8097203,50.727898
0.677335,52.82053
0.6852365,53.899433
0.68675566,51.865505
0.6398287,49.90494
0.5807255,49.748825
0.45009193,51.092888
0.48082197,50.07455
0.49314508,52.43159
0.5063204,53.81902
0.41574526,54.29096
0.3953905,57.810856
0.44585893,63.227787
0.4410176,55.055485
0.57471424,68.2278
0.62269384,64.37516
0.662119,72.42004
0.8184851,75.7217
0.88973594,76.42977
1.0455139,81.34332
1.0605588,82.95868
1.1803175,86.40798
1.3536664,91.80686
1.4051044,94.51976
1.5510145,101.80852
1.5826977,101.26772
1.5813677,106.027405
1.6799442,105.28466
1.7719887,111.62938
1.6367006,116.06305
1.7215288,115.44729
1.78917,118.95789
1.8588542,119.79764
1.7138562,125.16973
1.7908379,124.92386
1.6832225,124.878586
1.7385312,121.948616
1.6365957,124.991356
1.6875626,125.349655
1.4293976,118.92216
1.5836754,119.54688
1.5550227,118.653755
1.4738208,117.790825
1.4203457,118.64063
1.2779118,118.36945
1.4108655,120.28929
1.3861274,111.517044
1.3818008,113.676636
1.3380989,113.8693
1.2636997,104.43751
1.237233,105.053505
1.1827443,103.61932
1.1957549,97.70424
1.2546867,95.558136
1.1617371,98.17855
1.043071,94.62143
1.1489165,93.41539
1.0994442,93.66172
0.9213211,89.66188
1.0422777,84.55927
1.0460263,82.176414
0.8901435,86.18265
0.89495176,81.04787
0.84063536,80.94682
0.74904114,80.07036
0.60849637,72.25165
0.58704346,73.13524
0.58930224,70.95702
0.6265984,66.78255
0.5452721,70.353424
0.59329885,64.364944
0.5301757,60.107304
0.60941494,60.81214
0.47522283,58.353794
0.59586847,55.467705
0.4035981,60.33016
0.5496378,57.279247
0.43853083,56.508095
0.38011286,49.42431
0.4013216,48.99146
0.30168644,51.04796
0.2976587,57.501064
0.23816088,51.503155
0.16109616,57.972225
0.17904167,54.566364
0.064159356,50.077362
0.18343833,54.39809
0.02118231,58.204765
0.15351488,61.287205
0.21754336,58.776386
0.21499102,64.23272
0.27897722,69.469795
0.42928776,70.29555
0.56834507,71.12175
0.6141425,75.08761
0.6707164,81.91882
0.66206527,80.721954
0.88633627,89.183014
0.91200846,85.53239
1.0257028,97.087036
1.1974486,98.315216
1.1861588,100.34097
1.2804621,102.54197
1.3522582,109.782455
1.50895,111.945175
1.5262467,113.98369
1.2929841,115.7403
1.5890157,114.445465
1.4228501,118.4437
1.508865,122.93635
1.5813205,121.87287
1.4019614,123.92801
1.4585968,125.85595
1.4409337,120.669624
1.3167784,125.108925
1.4371676,123.338524
1.4064581,123.719376
1.3079917,117.78211
1.1865522,115.5945
1.2405272,115.64632
1.1361933,119.34712
1.0574746,112.63507
1.167768,118.562126
1.0726035,109.59453
1.0256342,109.306885
0.98177475,107.25806
1.0444357,105.73667
0.9505891,102.95066
0.94180465,100.18114
0.9098071,98.88416
0.9416024,96.399315
1.0708756,93.79208
0.86168355,91.95662
0.9020351,89.09324
0.7721943,84.47882
0.7343296,91.40455
0.7050672,84.130905
0.70284694,86.25849
0.63497454,81.043564
0.55450237,79.46495
0.5633377,79.762505
0.47085127,77.63949
0.50972944,71.8063
0.47361174,72.83553
0.3732941,69.4235
0.40680745,67.19428
0.34285003,70.126396
0.38893688,61.266033
0.35427722,64.81198
0.3364948,61.41049
0.36716694,59.881252
0.3820556,58.250217
0.3982165,56.224464
0.33373564,53.263844
0.31703818,53.147766
0.3008624,52.478542
0.23242414,51.465137
0.11928694,50.270103
0.119956926,49.060867
0.051061433,50.907787
-0.018056825,57.488453
0.0039279195,51.764736
-0.12242609,54.954273
-0.002556303,54.753963
0.008393634,54.05862
0.030097464,63.40039
0.060638748,60.66563
0.07006946,66.03554
0.20416428,63.56301
0.32091153,72.95416
0.24197538,78.22863
0.49616197,80.443596
0.57396775,76.61508
0.8156201,82.93632
0.7746038,92.48137
0.9652956,91.06763
1.0720302,100.34986
1.026368,105.0085
1.1138812,103.40747
1.0940688,104.34844
1.224068,104.01025
1.1582947,115.68723
1.4885913,113.71937
1.3927999,115.79766
1.4013389,115.85588
1.3797485,120.41531
1.4022084,124.209816
1.3346537,120.46391
1.3741958,122.19434
1.261247,126.66813
1.2788597,120.2916
1.2097365,124.04486
1.2311909,117.03287
1.2282364,119.71644
1.2134533,123.76677
1.0691999,119.7183
1.1459558,117.44958
1.1018382,119.17087
1.1680797,109.74977
1.0599211,105.35183
0.9775642,107.92463
0.9447889,109.66351
0.9356742,106.825874
0.9162941,105.64186
0.99875194,104.26891
0.9356501,100.79139
0.91841817,100.99921
0.92827857,96.41381
0.9194609,98.26881
0.8045562,91.655914
0.90388876,87.88668
0.89735615,87.70659
0.80351317,89.71248
0.7301136,85.6434
0.6712711,83.65062
0.5869238,85.22109
0.5978861,80.23209
0.6045264,72.09911
0.4107569,74.57716
0.42383966,73.861496
0.39665353,67.253334
0.44556227,70.41343
0.37334535,71.17826
0.271219,63.474724
0.33977747,60.64394
0.36346635,62.139557
0.44390133,61.39482
0.38023165,56.783226
0.41229606,54.604885
0.3860953,57.243473
0.29598314,54.481247
0.33536452,52.950752
0.33343825,49.773422
0.18370782,48.823654
0.21417093,49.481785
0.22133583,46.69659
0.1443832,47.5352
0.019797392,50.242348
0.10789696,54.612026
-0.01968154,55.856716
-0.005718959,59.382095
0.040118527,58.101402
0.2637417,59.411777
0.11560856,59.17523
0.27771294,65.34189
0.37325692,67.55614
0.36847803,71.80681
0.4712029,77.48758
0.6560658,82.15669
0.7710298,77.66742
0.9325466,87.10179
0.87576497,94.407425
1.0110984,97.49098
1.2812862,98.79804
1.2861639,98.38523
1.2137606,106.56447
1.331904,110.23387
1.3868666,106.13103
1.3657901,109.95001
1.5376943,115.735725
1.5511086,121.83931
1.5806319,115.98457
1.4886718,118.418335
1.588794,117.50263
1.5118256,124.95988
1.5172147,118.4404
1.5297894,123.46394
1.3937737,125.90841
1.4628065,118.853676
1.370746,122.15558
1.4926658,119.84324
1.346376,123.94183
1.3996118,121.52719
1.2589244,114.98658
1.1982028,117.68391
1.2701807,112.158806
1.2667235,112.46103
1.2381088,109.38546
1.1975158,111.72451
1.0305603,105.1317
1.1747742,101.50516
1.0822076,105.23923
1.130493,97.22219
1.1596864,98.20199
1.0784473,99.70098
1.1088799,87.637794
1.1287016,93.61544
1.0009506,89.7266
1.0898074,86.687004
0.94868124,87.389336
0.9654973,83.04803
0.8666937,79.64649
0.86423045,81.000465
0.8534447,76.11543
0.7131749,78.70255
0.6358584,71.61774
0.6960148,69.01948
0.7464704,72.275955
0.76925683,68.33361
0.6671713,69.547104
0.5867811,58.50689
0.6374183,60.353184
0.6511344,55.566006
0.57159376,57.54761
0.6873331,57.615116
0.5471163,54.220665
0.49853295,52.788036
0.59354144,50.031166
0.4782251,54.61098
0.5592488,51.739273
0.5083608,47.272167
0.40159038,56.177853
0.40616632,53.5456
0.401113,53.327118
0.20006032,57.03907
0.32214525,55.14162
0.22092763,57.436695
0.38770616,56.531723
0.27285835,56.38692
0.35366946,61.352177
0.40048423,66.02252
0.5572463,67.903496
0.62291616,71.76584
0.65947205,74.5091
0.9809625,78.72874
0.9907915,82.46073
1.1312386,85.20439
1.2267375,86.41368
1.3105608,89.58748
1.4134514,93.05128
1.5596535,102.042984
1.6207856,104.2387
1.6044613,103.73123
1.7552328,110.20509
1.6814673,110.53615
1.7331476,113.585625
1.6671373,114.65607
1.707185,119.14206
1.8001775,121.00724
1.7638286,122.73139
1.8758607,121.95163
1.8405484,125.34622
1.8055347,123.73964
1.7320874,121.90401
1.7843641,121.887955
1.8223035,122.90627
1.7676826,121.71188
1.6566398,120.243576
1.6432621,120.25048
1.6090922,119.11155
1.548176,118.08076
1.5215514,116.43391
1.5683434,112.84288
1.4824057,107.03834
1.4904178,108.45913
1.6071221,111.74051
1.5071828,105.21428
1.4408902,102.432594
1.3336147,102.77098
1.4248558,100.06132
1.419314,93.158394
1.3868929,93.669525
1.2732918,96.24231
1.1744047,88.66869
1.3159922,88.35843
1.2809885,90.845634
1.2563689,90.41944
1.2192857,80.12863
1.2791619,81.487114
1.0217279,77.70476
0.9431718,75.81211
1.0116602,77.681694
0.98794764,69.1054
0.98857147,67.54485
0.91173047,66.76663
0.8114009,64.681564
0.8855213,63.030613
0.8325793,62.125515
0.8862377,62.26872
0.9908398,57.92843
0.76832503,55.20912
0.814279,54.17677
0.93146116,55.200253
0.7835071,49.866573
0.7633637,55.587765
0.72247905,54.088085
0.7827201,54.11578
0.67833626,43.829895
0.66556656,52.113575
0.6097286,49.766373
0.5427632,52.607758
0.53372025,55.545795
0.5920296,56.87277
0.45634037,55.400227
0.5250169,59.38684
0.5187763,61.226677
0.5973522,65.70976
0.7413346,68.93309
0.7725185,68.521706
0.87157565,69.01745
0.89408183,73.4072
1.093309,80.05989
1.247819,79.94281
1.3468882,91.03476
1.4243149,88.82586
1.5499659,92.33933
1.6317112,100.80683
1.682983,106.34978
1.7168646,109.596375
1.8775034,107.474174
1.8202544,109.876076
2.0033867,116.5244
1.8779423,116.121925
1.9426359,118.59865
1.9764978,117.810844
1.9609425,120.92949
1.8857067,124.33733
1.9409268,121.37087
1.9672233,122.6993
1.9082241,120.09659
1.9513302,122.14806
1.93544,121.433075
1.8706118,120.30273
1.851536,113.3397
1.699433,120.35523
1.7808995,116.07334
1.679784,120.44162
1.650867,110.908966
1.6290468,115.98014
1.6689651,103.773705
1.7123042,110.91805
1.5762975,107.41752
1.4295251,109.20985
1.4984332,102.81035
1.534991,103.52812
1.5017836,99.32825
1.493849,99.07844
1.4497089,100.015
1.4932834,95.70619
1.3647783,90.599365
1.3999364,91.49935
1.399435,85.91038
1.2220343,85.265114
1.1983901,81.06481
1.2073158,82.81545
1.1382658,76.434784
1.0956177,80.11424
1.0503701,75.971176
1.1193657,74.08399
0.9779457,73.5527
0.9536372,66.19231
0.9112316,65.30926
0.8898943,64.72055
0.92139447,62.705105
0.91126865,62.184765
0.9208402,59.91122
0.84504306,57.623665
0.8713919,56.486813
0.8657182,56.88533
0.8998544,53.24945
0.8235194,55.775875
0.69884014,53.854202
0.8355263,49.420498
0.67503166,50.68909
0.6233383,48.3173
0.6248569,54.515507
0.7101818,51.043934
0.501739,51.446457
0.4351991,55.35155
0.6250874,61.33292
0.53514796,59.426647
0.54605037,60.747154
0.607795,63.325096
0.46747014,68.38084
0.7465216,62.264084
0.7437425,67.457726
0.9512032,72.16538
1.0759426,77.903534
1.1906848,81.50212
1.2280151,88.89176
1.3220302,89.10409
1.3869157,93.85046
1.5307734,93.34846
1.4963598,98.41968
1.6963224,102.23249
1.6991879,104.509445
1.7743559,109.605934
1.8185157,108.809654
1.781635,112.77042
1.9132094,114.21143
1.7661812,117.55184
1.801351,123.404495
1.8809828,121.73655
1.8565046,125.68708
1.8369988,120.56742
1.7630731,121.04205
1.767783,128.53696
1.7669635,118.74609
1.7395823,123.82733
1.7205611,121.39794
1.634881,120.63835
1.597189,117.0651
1.605467,113.43789
1.6985677,115.90129
1.4571266,117.12016
1.5947747,112.570595
1.5352242,116.14698
1.4285324,110.188354
1.3242909,105.438
1.3677335,100.161514
1.4032173,106.37491
1.3161366,102.230896
1.3042346,97.96196
1.4006907,96.28306
1.2952864,95.8825
1.2783449,86.51952
1.2544742,92.409035
1.1075312,87.05574
1.1984782,88.292305
1.1680139,84.9631
1.103338,82.7861
1.059327,85.73086
0.9674503,79.10243
0.86278105,77.83195
0.8702976,76.66443
0.8400626,71.364426
0.69294417,73.15465
0.739907,66.96235
0.65303874,69.920746
0.7161623,67.64427
0.6917779,64.26822
0.69703805,60.496002
0.6580282,60.081226
0.5508871,59.38332
0.6242487,57.2935
0.70345324,51.471684
0.6225552,53.300137
0.59836817,51.754135
0.50305843,53.18758
0.66250867,50.99994
0.49785504,50.127064
0.49412555,52.945255
0.32712922,53.979156
0.34458578,54.33033
0.2921251,53.079487
0.16188405,56.181282
0.20074353,61.846375
0.23465316,57.386185
0.370176,61.76876
0.40325025,60.07412
0.3975769,65.414604
0.4827346,73.28783
0.5410253,72.629944
0.786291,71.97743
0.81404847,77.769936
0.9620768,83.098564
1.0259856,82.94966
1.1103845,87.14808
1.2236847,94.51595
1.3271275,93.81626
1.404439,102.78748
1.4328233,103.43709
1.5150442,106.942955
1.5377957,107.956566
1.5841006,113.16577
1.5487225,115.137
1.4971545,116.14719
1.6051929,116.8812
1.5574934,120.07546
1.6765406,118.52124
1.6498039,120.77469
1.6273856,123.05295
1.5621765,120.031876
1.611123,122.48557
1.4673643,123.26454
1.4571309,119.858955
1.371462,121.12408
1.4482508,120.259705
1.4052055,116.566246
1.312112,118.01837
1.2957146,117.76479
1.2209035,111.899796
1.2239318,112.150154
1.2047906,110.31561
1.1895787,113.48428
1.1072434,109.40234
1.1402761,103.981064
0.92970276,99.56659
1.0028175,101.889404
1.0503395,100.55134
1.1340821,97.304695
0.9545091,93.81459
1.0216542,91.559975
1.0905002,91.03763
0.8863878,86.08102
0.9094321,87.51695
0.8618513,80.923294
0.81558114,79.3645
0.67873436,72.687386
0.67715377,78.90159
0.64007753,74.17909
0.440755,70.94838
0.40364864,69.57305
0.51709634,73.29767
0.43946093,68.267395
0.46069413,64.824585
0.55500644,63.772335
0.4704943,59.368423
0.4177189,58.956387
0.3893212,59.25593
0.44469333,57.497524
0.51106155,56.2264
0.33501622,53.35994
0.36437556,51.04043
0.2718848,53.164474
0.2455388,49.922935
0.18624957,46.701557
0.1965133,45.593098
0.16917317,53.84346
0.025856856,51.712677
-0.04577636,52.637955
-0.004989421,57.259384
0.11724409,56.497692
0.06065293,58.893524
0.04353139,60.91831
0.12528196,58.565624
0.08241424,65.84115
0.1704956,66.59148
0.36066937,70.242805
0.45675865,67.0839
0.47873116,81.207664
0.5957477,77.674736
0.73353666,84.975075
0.85133606,85.6127
0.8907771,96.2266
0.9237886,95.9539
1.0836151,99.15306
1.114857,99.69088
1.2364101,103.5384
1.1817595,109.84198
1.3631935,113.80643
1.3455082,114.5806
1.3766475,118.90629
1.42055,117.03086
1.4108893,118.76809
1.4046329,120.9089
1.448741,122.688576
1.3962258,122.09093
1.4273072,121.41429
1.3808854,121.06388
1.2785319,122.63995
1.2656008,119.981735
1.3306618,122.461685
1.2451814,124.51154
1.1687412,116.65657
1.1444203,111.174934
0.9857906,113.98488
1.1986469,117.17477
1.1078391,112.723015
1.1021042,115.35123
0.92934036,104.426636
0.9152489,110.39585
0.8148239,104.14177
0.90293795,101.58637
1.0056301,103.2967
0.8741243,97.59269
0.9195426,95.68892
1.0290358,90.181816
0.8664213,97.08672
0.93410987,91.94786
0.8148617,89.90856
0.7407284,88.983154
0.78054994,89.606606
0.6340291,81.41521
0.5465736,78.67956
0.46900585,77.31063
0.47379684,74.16726
0.42259246,75.6618
0.3406972,72.09905
0.3086548,66.91845
0.27023745,67.391426
0.42021745,65.68549
0.3776119,61.63571
0.3367053,60.87192
0.33518,59.936577
0.27207506,60.37413
0.31591603,55.87932
0.26599237,58.92265
0.39363647,52.89258
0.26592886,56.396492
0.24008256,48.934914
0.17700477,53.395584
0.16640267,50.266914
0.0701514,54.223564
0.1364163,49.87272
0.023618642,52.25116
0.087242626,52.737576
0.015850712,53.310833
-0.10035885,53.961643
0.029716626,60.536514
-0.018390741,57.94473
-0.022804517,57.655983
0.0951356,61.9388
0.082604304,67.48046
0.18736425,67.65785
0.33898306,76.04084
0.34983572,74.806755
0.50909626,79.59945
0.6173837,84.30733
0.8189249,89.87443
0.8845993,94.79906
0.9043023,90.70963
0.9729933,98.78422
1.17016,102.93035
1.1729069,105.10294
1.2434404,107.500694
1.3036808,110.93991
1.2099099,112.203094
1.4152696,114.39521
1.3554198,114.39634
1.4206898,120.88417
1.4620078,119.73774
1.5233253,124.217155
1.4584336,121.862465
1.4453338,123.49502
1.4525001,124.38512
1.4346442,120.43241
1.3615924,122.21185
1.3524806,124.46584
1.255171,122.74848
1.2595605,116.59735
1.2576791,117.16902
1.1851492,117.31568
1.206424,116.09462
1.1029958,113.453415
1.095231,114.55791
1.0914953,112.06673
0.9969104,110.426186
0.9840344,103.2921
1.1282829,108.55443
1.0032241,96.88193
1.0381937,103.12032
1.0077974,94.146095
0.9227183,95.41593
0.9843776,92.83176
0.9478616,94.45707
1.0018994,86.29073
0.8408481,88.615036
0.8147006,86.31341
0.8915484,83.66781
0.6257048,83.55383
0.66669405,79.38104
0.6356419,84.27071
0.6074864,79.53459
0.5504681,74.40221
0.44119486,71.212776
0.4343994,65.57796
0.44713485,69.85808
0.52089167,65.182884
0.46987787,65.45688
0.466799,64.2187
0.48122448,52.336124
0.4457377,58.230877
0.37723747,54.878036
0.484907,53.98303
0.4795952,55.747574
0.4431285,54.28242
0.34045485,53.777596
0.33275,50.80468
0.24990703,51.815258
0.32276937,48.971558
0.22384098,49.793102
0.22168279,50.02023
0.16055681,53.14592
0.2349715,52.62632
0.09590654,57.331116
0.15015933,55.48746
0.15212163,59.091434
0.27402264,61.062046
0.3760331,63.04472
0.278142,67.50576
0.44575682,72.05457
0.52947044,77.020645
0.61832684,76.54439
0.8221713,84.43768
0.92067325,87.09509
1.1046706,84.15626
1.1283503,90.0775
1.3186326,90.08271
1.3290308,96.13678
1.4739697,100.032524
1.4905009,105.54426
1.4917653,112.10467
1.614561,109.29959
1.6029141,113.19732
1.6158594,114.98662
1.6336974,120.45619
1.5659034,118.50272
1.6134771,126.581955
1.7112784,122.930855
1.6326525,120.94466
1.6688241,125.23538
1.6242957,122.02906
1.6432151,120.88031
1.6207551,124.21942
1.5420729,117.14908
1.5440389,120.12682
1.5382364,121.287544
1.4773717,119.67132
1.4333639,116.736015
1.370951,116.337654
1.3284053,118.078575
1.4236937,112.15627
1.3495673,107.7597
1.2350173,109.16156
1.3316578,107.2455
1.2765132,106.78361
1.0727153,100.982834
1.2576673,100.38595
1.2103901,94.82464
1.1780518,94.27608
1.2249105,92.81713
1.1969688,87.41962
1.1584693,88.23381
1.107048,86.21044
1.088529,88.439896
1.0640898,83.81452
0.9029915,79.57928
1.0730664,79.01178
0.8493497,77.8095
1.0209961,76.54214
0.854866,71.76188
0.89440995,73.34766
0.8414592,68.7176
0.7615181,69.11861
0.76326805,70.514656
0.7654819,62.021557
0.7221488,58.892773
0.81805414,54.70836
0.76043004,56.429867
0.81459355,51.802525
0.6337888,53.222717
0.66389346,52.01761
0.73,52.668373
0.6577188,54.224037
0.5809179,48.17443
0.50563586,52.935204
0.5168305,56.26792
0.4325125,47.803616
0.383093,51.53137
0.42845395,51.709057
0.38889843,50.933144
0.47754553,54.876156
0.42519322,56.362617
0.4782602,59.72345
0.6048416,62.33121
0.6219458,66.504715
0.69333917,69.04999
0.8546715,69.09801
0.98993677,78.59683
1.0114483,79.17655
1.0617727,83.87257
1.3026594,79.503975
1.4329237,86.678665
1.3945111,95.75645
1.4920832,95.59377
1.5246583,96.27507
1.7324226,101.216675
1.8187726,107.41281
1.8175492,107.71702
1.8640089,113.72566
1.8742406,113.3794
1.8948792,118.66622
1.8359488,119.68819
2.008575,117.53999
1.9237456,117.284485
1.8818575,125.0307
1.8884647,118.32926
1.8662572,123.6729
1.9120913,118.44379
1.7956187,126.23387
1.8926319,119.42662
1.7208984,119.55918
1.7394404,116.97767
1.6533009,121.231415
1.7370107,115.931145
1.6929268,114.605576
1.6104766,117.31457
1.54525,109.71009
1.4723504,111.276505
1.471917,109.079445
1.5573659,102.65641
1.4897722,111.66897
1.473364,99.05064
1.4080561,97.601746
1.4764408,94.42038
1.3946321,97.81533
1.4222171,90.73124
1.4873476,91.34471
1.3037379,89.81037
1.3270434,89.75761
1.3948253,84.78208
1.2087953,82.31347
1.2188787,77.982445
1.1423014,78.37332
1.0562773,74.985985
1.0671725,76.856735
1.0748214,74.2353
0.96290594,72.949554
1.0081606,75.42109
0.99703854,64.88287
0.8974119,68.32573
1.0075413,64.36131
0.9022659,66.063446
0.92829305,64.11519
0.96220523,58.827587
0.8242455,55.828617
0.8605371,53.380054
0.93892056,57.411945
0.82764226,55.46517
0.91922563,56.184757
0.8152772,47.46041
0.8208443,50.700348
0.69192475,52.116676
0.7068846,53.75691
0.563403,50.820866
0.5568744,52.79735
0.5233967,56.45626
0.5036405,52.58099
0.61059135,59.865376
0.59593505,59.27322
0.73803216,60.72172
0.64857596,64.29319
0.72991616,71.57452
0.8475014,69.08917
0.9213856,73.623825
1.1390435,78.08383
1.1671268,80.529366
1.355795,84.195435
1.391633,89.722786
1.4418414,92.92601
1.4717106,96.07428
1.6606947,92.88461
1.7012333,99.94357
1.7564791,105.09127
1.8568534,104.649086
1.8567712,112.71496
1.9093676,112.72862
1.8850205,116.609825
1.9682531,113.33031
1.9773183,119.49207
2.0164096,118.150475
2.0284133,120.14781
1.8672383,122.53968
1.9204391,114.76315
1.9112113,122.93144
1.9082049,120.62371
1.9143107,123.18824
1.8686485,121.73631
1.7664331,121.14085
1.7502851,118.85597
1.81185,119.86472
1.6206542,117.151024
1.6154649,114.94483
1.6054021,114.35176
1.5589551,107.99119
1.4989816,109.88525
1.478939,108.534874
1.5178733,103.10387
1.6259859,102.240715
1.5311073,99.815254
1.4045491,100.42231
1.411604,94.56985
1.465174,94.56339
1.3941703,94.80376
1.3123455,88.57438
1.319779,91.23478
1.3356473,87.010544
1.2437627,88.04288
1.266179,83.578
1.2318043,85.101974
1.1528265,81.74487
1.0610706,78.97565
0.9748721,76.15822
1.0189947,72.295006
0.9839472,72.24407
0.9338912,71.38584
0.88053775,69.011314
0.8275643,59.712868
0.7717897,59.713478
0.77816814,57.726585
0.89661604,58.34019
0.8148211,56.232548
0.86601543,48.34422
0.8046675,52.96501
0.6502966,52.89193
0.8130507,49.043957
0.7646963,48.753582
0.7156687,47.388077
0.68206567,51.70097
0.56337434,53.459763
0.5568994,51.446384
0.45817968,51.17217
0.46124342,46.632267
0.5192294,55.971615
0.3839746,56.887115
0.3042002,59.682384
0.4419616,59.72354
0.36477602,68.38201
0.56170094,63.043705
0.6265782,68.37414
0.64271444,70.54641
0.8306149,76.15967
0.9668117,79.02695
1.0423669,80.453316
1.2341689,87.57857
1.2895571,90.16182
1.3632985,91.41273
1.3182476,96.3875
1.5047687,97.3013
1.6619501,98.43534
1.4792637,103.47127
1.7105808,110.03535
1.7128581,109.39456
1.67644,117.121544
1.77903,116.126595
1.7798675,121.80175
1.7923684,123.123505
1.7191272,125.52611
1.7541058,124.235435
1.7744712,119.91459
1.8151385,119.48438
1.7853659,119.72749
1.6712061,121.17305
1.6084641,122.18792
1.626259,121.59333
1.5249156,118.92114
1.5903673,119.37586
1.4512925,116.708954
1.4763623,115.58197
1.3815612,112.25096
1.3647621,108.32355
1.3149112,112.21703
1.1694922,110.79368
1.2854916,104.83983
1.0935559,106.60154
1.2698094,96.07822
1.2261539,98.081474
1.2659578,96.517715
1.1926811,98.47068
1.1359087,90.63499
1.1874347,94.008766
1.1895673,91.36023
1.0370399,89.60899
0.9760699,89.33444
0.95121175,85.60906
0.88102627,81.05769
0.98083496,80.19348
0.78594184,75.82746
0.85193026,77.79072
0.6352798,76.75178
0.60157216,73.93228
0.650555,68.03952
0.58029306,73.312386
0.63415766,67.162964
0.46678567,63.685093
0.5635509,62.943058
0.6367984,58.670166
0.62114537,61.012207
0.63887477,56.494682
0.5499116,52.96317
0.47573578,51.17219
0.5187521,54.813747
0.4910724,53.96947
0.35402808,54.85894
0.34767914,55.694695
0.40417227,51.32879
0.2735388,49.204712
0.23894012,53.176647
0.2661504,54.479267
0.20347866,53.474564
0.09786224,53.1509
0.20002589,58.870636
0.22429332,60.28742
0.28962567,60.12672
0.219356,65.97414
0.41003877,69.2852
0.33433598,65.00539
0.3623619,74.81261
0.523936,74.464
0.6614159,77.69153
0.858175,86.97466
0.98443866,89.60426
0.9991584,93.1837
1.0095853,95.77513
1.1380819,101.41282
1.2444166,103.748886
1.3393439,108.87895
1.381354,108.19143
1.5459627,114.3122
1.2608334,114.9162
1.4494958,118.258255
1.4984488,113.30924
1.4470628,120.10501
1.5465668,125.47113
1.5141696,120.58049
1.4547086,121.8435
1.5222826,125.13262
1.4261795,121.429565
1.4532642,119.05803
1.2862207,120.714745
1.3161271,119.73093
1.2668235,115.41934
1.2784951,118.94734
1.2119045,115.89783
1.0928497,114.142456
1.2546654,113.51756
1.0537049,113.21196
1.0602468,112.04658
1.0241534,108.12192
1.0776128,106.47959
1.0458897,105.31772
1.1364232,104.091255
1.0982735,96.89835
0.9325589,97.76746
0.99106747,95.576164
0.8495609,93.17745
0.92238903,88.35009
0.8814934,90.741646
0.79697716,90.76239
0.80129254,90.0416
0.7044119,86.159325
0.6868971,79.58989
0.5263934,81.15895
0.64905065,78.64634
0.51719564,76.608864
0.5204467,75.82257
0.4423564,69.79213
0.41186643,69.91078
0.45593327,70.63278
0.4333716,65.17043
0.3696649,63.02232
0.4741172,61.83691
0.35143897,60.548725
0.38068178,57.707104
0.34460038,58.53528
0.3715545,53.89061
0.2993172,53.33747
0.3685349,52.81718
0.22328866,52.069504
0.16530274,53.24276
0.23678869,49.848106
0.1269901,53.795563
0.1139239,49.9098
0.10147788,48.095627
-0.052503202,52.337975
-0.07880818,56.958084
0.0016899551,49.586544
-0.058984946,58.682106
-0.013291036,56.454014
0.048060607,54.74197
0.0953885,65.452484
0.12173953,68.44987
0.38497525,62.20585
0.37435943,70.69242
0.34719864,79.301445
0.5622139,80.248375
0.5998769,82.74347
0.76189786,82.23754
0.7656644,93.33441
0.89861673,97.7904
1.0208004,92.51335
1.0811543,97.30131
1.0940149,100.74506
1.1717811,101.57171
1.2748078,111.199936
1.3652052,109.84416
1.2555224,115.35084
1.2914982,120.71806
1.4217978,120.46875
1.4017113,120.08303
1.3866941,123.988396
1.3183895,121.66985
1.39982,124.24011
1.2470299,125.94435
1.2651354,124.3637
1.2885573,123.36219
1.2879564,125.32574
1.2627416,122.223274
1.1869277,115.68034
1.1372733,115.72208
1.1350648,116.4877
1.0349144,109.67366
1.114908,113.22934
1.0158206,110.12523
1.0686936,112.83642
1.0837973,111.25779
0.9724705,104.759964
0.933091,105.92403
0.86766267,101.14806
0.986083,100.10791
0.8298232,96.17449
0.9360749,94.268845
0.9289396,91.33548
0.9302105,93.65574
0.8133422,90.81008
0.78485155,89.46956
0.8529094,88.65734
0.6981409,83.69599
0.6503612,86.03521
0.6200206,76.75345
0.54193884,77.74635
0.49964482,69.867805
0.45968488,76.004875
0.4396298,66.84666
0.50567883,70.938675
0.33437917,67.78159
0.42853662,64.310394
0.34091768,62.429886
0.41306674,61.11443
0.34650627,59.541397
0.37724945,60.440323
0.3590992,55.12556
0.28410602,59.35649
0.37013054,55.324596
0.32320637,51.452442
0.27307558,50.257008
0.20094204,57.721157
0.14688928,53.092434
0.10194119,48.5188
0.14763941,51.647152
0.24673966,47.738094
0.11073675,53.390903
0.014129277,55.36533
-0.014611742,58.96951
-0.026834086,56.638123
0.02105034,61.93421
0.15769786,61.275093
0.21316038,70.148735
0.20433226,66.921165
0.39206722,74.88945
0.33146787,74.12526
0.509145,81.316025
0.7559756,83.81039
0.77453667,82.56179
0.898196,86.73528
0.9709762,92.58513
0.95412064,89.824104
1.2098112,100.11033
1.1438304,100.338905
1.2740716,105.629684
1.3946217,107.718925
1.467858,112.59558
1.396165,116.0777
1.4467148,114.78255
1.4585601,118.647156
1.5108246,121.05668
1.529992,121.75495
1.6212491,122.95077
1.4967953,122.02689
1.5004474,128.13054
1.4776562,121.1026
1.4187709,119.55734
1.4552772,123.903336
1.314421,120.947586
1.4192268,121.33466
1.3341113,123.35461
1.4354999,118.007935
1.2411144,118.9363
1.2287323,117.78467
1.1951663,109.76336
1.2568941,110.61403
1.1002494,109.32279
1.1735121,104.39942
1.0735118,103.95791
1.1787665,102.77438
1.2043488,103.03339
1.0492157,101.25933
1.055272,98.29496
1.0914916,96.478584
1.0747858,90.71044
1.0017143,90.02104
1.0222561,93.85519
0.8957273,89.00451
0.94014156,86.4714
0.9320478,77.02396
0.9278271,82.78157
0.7274482,76.17852
0.78270227,77.32075
0.8743927,71.69179
0.8033347,73.87914
0.62102425,71.81444
0.6053844,65.98013
0.62840366,68.83786
0.6370699,65.730835
0.5657122,65.12811
0.5983959,65.47216
0.6056928,62.973385
0.66834897,55.546997
0.62673414,58.186874
0.658317,55.784508
0.6015425,53.84835
0.5461276,52.532276
0.53792334,55.744102
0.50320184,53.529446
0.45754313,54.426598
0.45953843,54.02877
0.3410732,50.327496
0.27179757,48.226234
0.3001428,53.138058
0.38776433,56.640408
0.1793661,54.139896
0.2721908,54.03799
0.35838684,61.974976
0.39527237,64.31239
0.51659703,63.386814
0.5559563,70.664406
0.58991975,72.26509
0.7572137,73.65797
0.86720926,76.76235
1.0152355,82.81281
1.0226536,86.28557
1.2269499,89.692024
1.2220743,91.60992
1.4194688,95.39954
1.5434245,97.41049
1.4709307,98.22804
1.662847,105.9552
1.6530281,110.64946
1.667921,109.91584
1.6738847,118.10238
1.6939167,119.48014
1.802826,118.304245
1.8307309,119.04329
1.826399,116.98996
1.7983072,122.4258
1.846709,120.73441
1.7969928,125.711296
1.7787977,124.96278
1.695937,121.72626
1.7676061,126.434364
1.7204602,120.79609
1.7091604,116.12404
1.4791441,120.64794
1.5603181,115.598236
1.5774173,116.06937
1.4879838,116.15818
1.5551901,109.6882
1.3915511,109.62705
1.4843528,108.08347
1.3449827,104.64069
1.3722566,104.29616
1.5120051,100.561844
1.2636831,99.70985
1.4017473,98.13368
1.3953631,100.26982
1.4787382,89.64224
1.2365524,91.54822
1.2782,93.082306
1.2444983,90.58244
1.2559615,90.6884
1.1837353,83.04457
1.1951399,80.40844
1.0912678,76.57554
1.0562735,78.654686
1.0671512,74.93689
0.93348604,76.582535
0.86078084,70.65648
0.8437618,71.16127
0.76541066,64.7395
0.8628576,67.31315
0.7909929,66.46971
0.8858117,55.88577
0.8388864,63.77808
0.87929106,57.92833
0.769782,59.25836
0.88262117,51.00317
0.76611966,52.80569
0.8474651,50.47277
0.8385786,52.899258
0.7213606,50.34019
0.68376344,50.4791
0.5704863,52.707794
0.5889873,50.91736
0.5753167,52.316433
0.64952195,56.328697
0.73208237,54.965275
0.52718765,60.25595
0.5002838,54.30935
0.63747615,62.04005
0.58899015,63.26707
0.6056933,65.61707
0.6865647,64.03293
0.8610926,70.49014
0.8577635,71.828636
0.9697146,74.76759
1.0966035,82.9473
1.262191,81.22929
1.3610677,84.60169
1.418473,90.06865
1.5348938,95.72066
1.5201635,100.37303
1.7265003,103.07511
1.6896555,102.89227
1.8899705,111.123535
1.7468055,109.43118
1.9868531,111.790276
1.8534836,113.40532
1.9247247,117.26272
1.862314,120.4968
1.9706862,120.29718
1.9406165,120.56966
1.9794592,121.2105
1.8749423,123.85094
1.9846511,123.74195
1.9502717,124.5798
1.8864601,125.13992
1.8641714,120.40193
1.7731456,121.63465
1.8242112,119.647606
1.7938471,113.34608
1.6951813,116.09635
1.6778511,114.210075
1.5811306,116.5967
1.6352572,113.50586
1.5766711,109.77257
1.5631992,107.578995
1.4523866,105.28143
1.5635414,103.85115
1.535852,101.48939
1.4976248,99.31162
1.5039945,98.83473
1.3988147,94.61608
1.4217608,96.64073
1.3822131,87.98843
1.3626512,85.22053
1.3340408,83.394135
1.3431703,84.31978
1.3807108,82.96711
1.2885762,87.545074
1.1817367,77.48077
1.0493851,79.821045
1.0076139,75.830154
1.0222356,75.70794
0.94789165,71.275696
0.9590615,73.34761
0.9575533,67.18671
0.8313504,64.83076
1.0481465,60.49625
0.9684376,65.34803
0.9245529,56.97701
0.9243868,60.486404
0.85780543,50.39817
0.87341714,53.549652
0.89901865,53.5911
0.78330934,54.610645
0.78072923,56.54065
0.7687791,52.129242
0.7782628,53.343624
0.5876294,51.538864
0.5429603,52.299683
0.52772063,56.215073
0.57896316,55.31711
0.46697623,53.198086
0.49211448,55.8048
0.40766984,58.516346
0.6667825,62.01421
0.62349147,62.859688
0.53637475,63.770336
0.72011894,68.00182
0.89529294,68.91987
0.99430895,75.57568
1.0099772,74.79488
1.1526638,84.64441
1.2817111,84.86403
1.4238662,87.73922
1.4577508,94.27575
1.4924527,93.2684
1.5024877,97.54696
1.7210599,100.045265
1.7834026,105.89052
1.7403675,109.808105
1.8015616,114.04086
1.8673528,113.796875
1.8320192,119.23308
1.870973,117.83329
1.9971076,120.65001
1.8275813,119.04416
1.8679898,123.62658
1.8588303,125.37465
1.8923414,121.02402
1.7988569,120.50851
1.8077304,121.22642
1.802861,121.12549
1.8105711,120.074036
1.7335408,120.34342
1.7452477,119.78817
1.5683872,110.94501
1.6851581,112.77509
1.6029955,109.67925
1.5874211,116.27339
1.355159,111.35791
1.4845583,111.58439
1.4000067,104.78933
1.5601468,105.847115
1.4237075,99.79163
1.2906436,99.33995
1.4332561,97.96149
1.3541399,96.313995
1.1467934,89.0785
1.4570973,95.85837
1.1972315,93.029884
1.1571265,83.949135
1.060825,88.17099
1.1733147,83.51339
1.0874903,80.444496
0.97882795,79.13184
0.9849267,77.13997
0.9014998,76.736534
0.90115446,75.594444
0.8038883,75.83372
0.87427074,69.773964
0.7884054,68.883995
0.7129097,66.04333
0.72848386,63.372517
0.60094506,62.45372
0.70165306,61.660606
0.67928684,61.803684
0.6683661,56.494892
0.5751074,55.994583
0.6908843,52.90712
0.72653764,52.60309
0.593097,54.844265
0.5327888,51.29
0.5186957,53.003838
0.45111072,53.380196
0.3651764,51.49766
0.4076961,54.721115
0.32730812,49.479034
0.34398985,48.807243
0.29475433,50.432632
0.2091221,55.958935
0.26226658,58.739716
0.39422318,60.09574
0.33519948,66.47779
0.45200667,64.81985
0.52718663,67.92335
0.64739347,68.9883
0.679194,78.50218
0.8485425,80.85876
0.92701906,83.44609
1.0572722,87.346504
1.2302577,91.88385
1.2643576,93.34957
1.3542385,97.67715
1.2859807,103.33349
1.4787117,101.765144
1.5209249,105.95441
1.5773941,104.67591
1.6408536,108.9272
1.60689,117.17142
1.6191034,120.1052
1.6376654,119.57395
1.6658666,122.39143
1.5746623,125.40193
1.651504,120.921906
1.5504606,125.42647
1.6881261,121.8133
1.5043951,121.90275
1.6770613,126.72375
1.5413674,121.92995
1.4021049,117.1568
1.4143734,117.78541
1.3695278,116.120056
1.3700058,120.26735
1.2421209,115.98752
1.2692045,116.540344
1.3279444,112.40539
1.1377091,106.71379
1.1710825,105.853714
1.1379299,103.25899
1.0253204,107.36542
1.1126624,103.14568
1.1872534,95.162155
1.0968716,98.977165
1.0635152,96.36633
1.0079231,96.30706
1.0389885,94.91827
0.9371928,90.002426
0.91636616,83.13935
0.84915155,84.108345
0.79474366,81.98103
0.84323895,83.60537
0.65122795,78.49261
0.72116923,83.420425
0.5760152,70.104866
0.57507735,72.65538
0.5192101,76.62155
0.43736133,67.126205
0.49162632,68.33994
0.42014703,66.341354
0.45575404,62.597782
0.43960434,63.164024
0.37621862,58.381184
0.4817127,62.153492
0.39169383,56.709797
0.3897645,55.073193
0.38849097,55.88713
0.33023575,49.590233
0.32772684,53.51172
0.36955565,55.784008
0.34442106,52.471725
0.16365017,51.626926
0.2661032,52.865738
0.14819534,50.241997
-0.0139371,59.16399
0.042834762,54.37872
0.055575825,57.329224
0.013349971,58.492012
0.034263555,62.965187
0.10798116,61.87949
0.22884473,64.09042
0.18722476,66.48754
0.2847154,73.11614
0.373681,77.90505
0.5439828,75.97388
0.67165595,83.3469
0.7839304,83.53577
0.8520136,91.30181
1.051986,91.84208
1.0418206,97.43622
1.1515403,100.53319
1.1363739,102.10284
1.219617,110.19983
1.2580836,105.637344
1.3098136,108.31688
1.3897822,108.55736
1.3489971,118.21197
1.3004373,114.95243
1.437558,121.274536
1.4236642,123.72403
1.3051449,124.21604
1.3931987,123.21071
1.4353349,125.31219
1.3111745,123.60098
1.3497446,121.08494
1.3731267,125.34396
1.1855379,117.55897
1.2319621,118.994316
1.2027898,123.47831
1.1834781,118.11439
1.1404206,119.59387
1.0564765,118.14589
1.0635229,110.574295
0.9401498,112.256355
1.0117112,112.550385
0.9690281,103.89821
0.95288485,103.87953
0.9330846,103.69213
0.88464314,101.62163
0.93457425,94.33934
0.83357084,98.27697
0.8456712,94.175964
0.8366541,91.065735
0.8217791,89.22854
0.9178219,90.141754
0.74820733,85.476265
0.6220349,83.69829
0.6905442,79.78769
0.6369337,75.45947
0.6111849,81.61472
0.42863005,80.33983
0.42309994,73.15593
0.4305566,72.48692
0.41199178,65.81288
0.40294537,63.98145
0.28037778,65.420044
0.45070502,66.21694
0.32356966,63.008976
0.37560493,59.754456
0.39075178,57.835423
0.37053198,54.835308
0.2556154,57.149956
0.35002854,53.956654
0.33636743,52.163177
0.21185474,49.603046
0.21660475,56.059387
0.16768782,52.86664
0.16892417,52.431908
-0.015219061,48.448246
0.019232243,56.900394
0.03046492,51.65996
-0.12204634,54.520042
-0.13888678,56.509975
-0.12205402,59.592575
0.037212357,57.836067
0.08027176,61.860607
0.10205814,57.005054
0.12623219,66.71555
0.21042699,72.35066
0.3552254,74.27286
0.3915026,70.9056
0.5956427,80.725266
0.5616212,83.35662
0.8284039,91.64956
0.9365924,91.648346
0.9216942,92.02328
1.133236,97.3389
1.1926712,99.70945
1.2392503,103.881
1.3270158,101.460594
1.3265979,115.28923
1.3088262,115.238976
1.3817862,115.90385
1.4957488,115.32892
1.3910774,118.61794
1.4681343,117.76441
1.4446186,118.845
1.4294535,124.29264
1.4843597,124.4126
1.4365045,126.048836
1.3491112,119.279976
1.2198493,121.11974
1.2864473,120.46974
1.1983061,124.195305
1.2608482,118.9523
1.1949561,117.10747
1.174868,117.84566
1.1061742,114.70224
1.0872388,110.984375
1.0317956,112.19306
1.0656768,111.048935
1.1194227,105.55034
1.0816071,103.44878
1.0226349,96.492226
1.0006694,100.61172
0.9224269,102.2453
1.0020263,95.94283
0.9934347,92.6859
0.9910595,98.63691
0.8552346,90.90102
0.9270479,87.63974
0.8508675,90.406715
0.7175834,81.56603
0.69645923,82.376564
0.7158834,84.09282
0.74868023,83.7487
0.6302995,76.028145
0.59772784,69.26927
0.55886513,69.75261
0.54975826,69.896164
0.47827813,69.64908
0.37861025,64.77188
0.4923837,65.86553
0.46488416,62.90488
0.42626768,59.76511
0.59333646,60.479195
0.59840953,59.016876
0.44661424,58.68369
0.33089876,51.419376
0.36451966,53.11946
0.4280114,52.171143
0.3740389,51.29348
0.3210533,48.223763
0.407959,52.037037
0.18910652,53.257824
0.24137664,51.07005
0.23852599,49.618454
0.07053032,50.027023
0.09262761,56.789967
0.073987626,55.79769
0.10020813,64.92509
0.14763823,59.11261
0.1859452,63.33872
0.3241618,65.50562
0.45788446,67.3493
0.48284978,73.6883
0.5069736,78.99114
0.6181786,75.39011
0.8280066,83.3018
0.9773046,81.552864
0.9910189,91.798805
1.1729311,93.30983
1.2465756,94.81115
1.4169363,99.0062
1.4514005,103.1119
1.3777978,106.858284
1.5376375,113.04826
1.5424339,111.30236
1.6016186,114.19866
1.6369541,112.19652
1.5409915,118.68252
1.6023208,117.33378
1.5346947,121.27133
1.6156652,120.19961
1.5755723,123.20745
1.6435224,125.52002
1.6555448,122.11702
1.6352584,123.656044
1.5397761,123.31188
1.5837504,119.17413
1.4030056,117.85782
1.476125,118.56593
1.4169323,118.01627
1.3045329,113.97967
1.3934158,117.09408
1.3234075,112.464516
1.2987635,110.828636
1.2849424,105.481995
1.3299445,106.21479
1.3361081,107.610954
1.1885258,103.26149
1.2043822,100.812004
1.184589,97.013016
1.2698299,99.080505
1.3528777,96.346275
1.0983666,93.13026
1.2520568,90.983215
1.0238968,84.847725
1.177174,91.06072
0.998428,85.562965
1.0917065,82.5757
1.0598801,82.94987
0.9588078,76.55301
0.84622246,78.39056
0.79847,74.298584
0.85197645,69.713264
0.691128,71.49165
0.7344669,66.01986
0.7404982,69.27696
0.69839174,66.101555
0.8433267,64.347725
0.7026801,64.14623
0.7022678,57.264545
0.75363314,59.777378
0.74600726,56.069485
0.8370835,54.33454
0.70249254,54.869564
0.72398967,54.613647
0.5676214,52.223797
0.5962536,51.127087
0.49077523,55.03461
0.5108642,54.080677
0.5346489,51.26752
0.4331128,55.736637
0.41090316,55.901257
0.5086311,55.359154
0.46080476,54.68549
0.5008477,60.281086
0.53762287,59.250057
0.56559014,59.69563
0.5905002,65.66861
0.68094474,68.21528
0.81834984,72.36006
0.867255,79.62808
1.0656866,83.19782
1.1377604,87.20621
1.2163264,82.8222
1.3972517,86.34625
1.4289464,93.43887
1.5120467,99.45852
1.6703241,98.57416
1.6759676,104.23121
1.815603,106.89822
1.7080657,110.35558
1.8475658,110.03894
1.8424743,117.12833
1.8641121,113.82184
1.8607703,118.90988
1.8527536,122.62816
1.829596,123.064445
1.8207557,124.48959
1.7613754,122.53286
1.9472933,125.97621
1.7957772,121.61448
1.8403568,119.68023
1.7897137,127.657364
1.7870588,119.66787
1.6842022,122.610146
1.6409445,120.199455
1.6244797,120.146545
1.6271571,115.88203
1.5590641,112.02614
1.5159067,115.00319
1.5604969,112.69586
1.5360847,108.15513
1.532489,102.5566
1.4865814,101.44947
1.5248039,99.52604
1.399665,99.26451
1.5281737,98.92147
1.5135913,97.2319
1.515221,93.342064
1.3677145,94.32509
1.4227822,90.561134
1.3469176,85.71291
1.2839693,85.53583
1.2014154,84.68703
1.2001914,82.54641
1.2383014,80.24997
1.1735775,80.09415
1.1159499,77.839066
0.92912894,74.51076
0.94659805,69.458824
0.95714676,68.650925
0.9405108,64.68916
0.88310266,63.288902
0.8895167,62.48883
0.89136976,61.708504
0.96155584,63.53477
0.96535176,56.86814
0.87456816,54.27501
0.8934481,56.300014
0.84345436,54.414757
0.9106914,55.356503
0.85613465,57.43261
0.80896574,52.78994
0.73754364,47.570545
0.7353317,49.83489
0.5866697,48.830822
0.56613606,56.09387
0.63621116,51.65625
0.57692367,53.57071
0.53793454,54.339375
0.61741215,61.657833
0.65305704,57.263523
0.6994682,64.019165
0.69777024,67.001785
0.688995,67.80368
0.894634,70.919205
0.94194543,75.18511
1.0654052,73.741104
1.1587254,79.87471
1.2486396,84.53285
1.3107269,87.033264
1.4221824,92.18743
1.5983504,92.92412
1.6044567,101.10734
1.8167341,101.12479
1.8594769,105.65669
1.787628,109.86906
1.8288429,110.86024
1.8969301,116.59242
1.917757,112.90339
1.9940152,114.311554
1.9175397,118.47655
1.9551823,124.33831
1.9120421,123.88553
1.9335039,119.43798
1.7971449,119.38248
1.9536078,121.03498
1.8888971,119.68228
1.7781191,119.12018
1.891722,121.71166
1.7434264,124.57034
1.7805468,114.76132
1.7682817,119.83534
1.6709555,119.562325
1.6575732,110.30984
1.5910403,113.52246
1.5857,115.11589
1.4654676,109.62516
1.4528974,107.0588
1.492529,107.905785
1.5325372,104.71988
1.5150603,105.292305
1.5155743,99.7995
1.5057646,95.72315
1.398028,93.194954
1.3775443,91.54414
1.3727019,90.46263
1.326157,89.0903
1.3173997,84.38041
1.1958033,85.2376
1.1628345,83.83779
1.0830297,81.854
1.1236125,78.34261
1.0960603,77.35484
1.015927,73.36855
1.011452,72.13549
0.90890086,68.46905
0.8531489,72.11908
0.8306333,64.24316
0.88190395,65.02652
0.8356672,59.74075
0.7903786,61.47241
0.7124942,59.768963
0.76731706,56.62774
0.8365768,61.367283
0.729403,53.61874
0.7753076,53.724247
0.7258964,52.20735
0.73061466,51.38239
0.6274777,53.05688
0.6411737,52.148182
0.61016464,44.95563
0.43170714,51.16289
0.64500976,48.424927
0.45278767,54.94601
0.38454673,54.51453
0.3450058,56.8506
0.5105468,59.18063
0.47807825,60.701794
0.5225944,60.797928
0.4314986,65.654945
0.7230095,69.90801
0.82514226,75.17621
0.91969687,78.12775
1.0965424,80.89265
1.1140969,83.478386
1.1435875,84.91674
1.2620817,98.28026
1.3298075,94.95551
1.4577619,97.27094
1.5190089,99.89868
1.6505356,103.384125
1.7372552,108.37512
1.6108367,109.611664
1.6463215,113.07226
1.7209817,119.83581
1.8146503,119.78268
1.7581747,119.383354
1.77349,121.787964
1.8419839,122.13569
1.7317637,118.26314
1.7565502,124.67998
1.777032,120.667114
1.6773796,121.105064
1.6335968,120.699615
1.6499867,125.18542
1.5677915,120.210846
1.5339712,118.69119
1.4369248,119.35073
1.4415836,116.37329
1.5215422,113.7268
1.4961005,114.595856
1.3261809,108.02745
1.4032658,107.99723
1.258771,110.7862
1.2932932,105.198425
1.3501195,104.56351
1.3365968,101.21977
1.2230539,102.299965
1.1618296,99.5156
1.2336397,94.72464
1.268882,94.82411
1.2317451,91.42182
1.0952172,90.832794
1.0145044,84.57441
1.0431321,82.54981
0.9278763,85.47841
0.93567985,84.07882
0.8895961,78.74828
0.7371098,77.62615
0.7384247,68.90717
0.660203,71.53649
0.6368212,69.10312
0.7228787,70.74832
0.5987639,70.203865
0.6390789,64.212135
0.48523054,65.09903
0.6222791,65.04631
0.5947612,60.605675
0.6438966,56.191406
0.6302226,56.997154
0.58908,56.232883
0.48179936,55.400368
0.44879806,54.355137
0.5221828,51.17118
0.39717498,50.235825
0.41014686,48.98243
0.29959095,52.26474
0.277347,52.80953
0.22495925,52.672764
0.19402854,53.849583
0.2179453,51.56258
0.07578388,55.51059
0.2074127,56.378796
0.165063,57.73983
0.2386982,61.137768
0.33056837,61.74504
0.3370915,66.618
0.4651881,69.73109
0.50578064,77.83991
0.67416716,76.22456
0.7231077,79.84236
0.82449657,84.020515
0.89610255,91.57147
1.1403178,89.41756
1.1834433,97.51219
1.1527282,95.372925
1.2529063,103.41884
1.4736649,105.13301
1.5068787,104.19137
1.3326323,114.49376
1.4275666,115.97119
1.4293374,116.46525
1.3844832,115.13281
1.4833609,113.959564
1.5758832,117.907646
1.4433289,122.00694
1.4896843,122.07884
1.4263264,128.80438
1.4842311,128.98087
1.3310325,123.02434
1.4768635,125.258705
1.3765274,120.442924
1.3535556,123.555786
1.2404473,118.3352
1.1711402,114.90585
1.2278284,118.74685
1.1433623,116.314255
1.0676483,111.699066
1.1547209,112.28005
1.0335929,110.78434
1.1363575,108.72022
1.0303284,103.543724
1.0312257,98.67975
0.97674453,98.730576
0.9657132,97.485054
0.9931895,92.97106
0.95032793,95.26486
0.90589947,94.09267
0.96703523,86.654205
0.9126345,87.34338
0.7998031,85.01309
0.89795864,87.68278
0.6963212,86.21967
0.5558228,82.3784
0.6245402,84.126785
0.51689005,80.48171
0.56892633,72.34177
0.48026025,68.16047
0.3761777,73.39609
0.39583164,72.75381
0.3817428,67.186745
0.4310625,69.32804
0.3596211,66.68039
0.3270987,62.17051
0.3259274,61.99637
0.36748603,57.0343
0.26164278,58.356377
0.31867862,55.104473
0.41470075,52.975067
0.17444782,53.869816
0.23185639,51.51728
0.2575845,52.309116
0.26590154,57.68959
0.1362681,52.910793
0.036216054,51.468113
0.012005651,49.878128
-0.009574912,56.3673
-0.10216928,54.406525
-0.13462265,57.13354
-0.11225468,57.123924
-0.10611887,63.18656
0.12969515,60.557884
0.15035601,66.82003
0.17986295,69.59653
0.30707404,71.4122
0.26345006,73.09136
0.46839696,73.9609
0.6619002,82.39036
0.7305337,87.45447
0.94231665,88.882034
0.94806486,95.077194
0.98005587,96.59238
1.1872591,103.52075
1.1601518,102.66142
1.2623909,105.74054
1.2856067,111.70419
1.1515161,112.918175
1.2286162,115.141365
1.3883703,116.197205
1.4185382,122.192406
1.3750592,118.778534
1.3780822,123.02031
1.274046,123.68563
1.3439742,119.94156
1.3771099,122.83754
1.3160647,127.781525
1.2437747,117.12171
1.2202891,121.368546
1.1918039,125.63412
1.149525,120.07213
1.0967079,118.966675
1.0515172,115.75861
1.0985798,118.196106
1.0809983,114.4512
1.0423312,115.5205
1.0952619,113.97101
0.9319987,108.011055
0.9457648,105.656395
0.8724603,104.034805
0.7559379,97.75874
0.83286345,95.4259
0.9239373,97.1744
0.9333797,96.86379
0.80132604,96.11382
0.86631507,89.60393
0.83323616,91.04023
0.7924188,82.4573
0.743976,90.58671
0.5801957,86.1705
0.53848803,81.25315
0.52684015,81.11427
0.523221,82.70166
0.49027714,77.76714
0.4281816,72.00384
0.38356552,67.664696
0.50524634,69.35054
0.32691672,67.00575
0.32349953,64.70822
0.3378848,62.146652
0.29619485,64.981606
0.40220255,60.37041
0.30094865,57.933605
0.4060989,59.280613
0.2653699,55.882057
0.34830102,50.309444
0.33512732,54.715405
0.3838895,51.174774
0.18975003,48.090645
0.12572287,55.09399
0.095597014,55.36244
0.101865694,51.847965
0.09812684,51.687378
0.008610496,55.081036
-0.019567763,51.401028
-0.093624316,55.65088
0.007901854,53.989994
0.109134145,57.424232
0.08475139,58.882004
0.07548943,64.18957
0.13076758,64.291855
0.27827182,70.82376
0.34237146,71.542816
0.53907424,75.423996
0.6333865,78.52763
0.709095,83.9948
0.96124935,89.272224
0.98425585,92.5968
1.090739,96.01282
1.1770861,100.20345
1.1840587,101.94352
1.3328581,102.37128
1.2930294,110.40183
1.435724,115.56891
1.3872807,109.567276
1.55378,110.08427
1.5379055,118.148605
1.4739926,120.59185
1.495878,116.61452
1.3973601,123.19243
1.4687202,122.14838
1.4958723,126.19701
1.3996509,123.02146
1.4643006,120.51569
1.3297131,117.78566
1.5025465,118.21531
1.3375077,117.93184
1.3663167,122.32312
1.3012635,119.12757
1.2092457,114.05518
1.2536635,111.861595
1.2075791,112.46527
1.199418,116.02497
1.1257414,109.34711
1.0333668,107.93159
1.1354303,107.80517
1.006787,101.884995
1.0166571,100.37449
1.1378645,99.46884
1.2196027,96.71347
1.0089083,93.48932
1.0443655,92.67556
1.1031505,89.4796
1.1116189,89.71282
1.0241934,87.91076
0.95447105,85.56046
0.82375485,82.19937
0.8579347,80.34826
0.85490537,80.38297
0.7788417,77.23916
0.6788304,75.24926
0.6251422,72.25865
0.5786443,70.479744
0.5841101,71.29545
0.59483236,67.59608
0.56068605,65.56796
0.55239415,58.339054
0.60539937,63.242542
0.4928134,57.55308
0.63499314,57.778065
0.5912907,53.899227
0.62636596,50.918053
0.5399754,52.320995
0.56037676,52.05341
0.48076868,50.53469
0.5002094,53.314434
0.33821207,52.19233
0.32333422,53.911644
0.30979177,47.44972
0.24834543,47.925465
0.2085066,55.38696
0.21668382,55.54372
0.25559977,54.70779
0.23268235,63.948654
0.32530597,57.60825
0.39925027,64.539474
0.3884885,67.68543
0.5778,68.25633
0.6107897,65.829544
0.7058527,78.8209
0.82395923,79.384705
0.8995523,80.91573
1.0584401,85.53779
1.224668,91.62019
1.2814211,91.24512
1.4400616,93.45012
1.4782984,100.73851
1.6116977,103.79404
1.559015,109.26168
1.603459,106.942535
1.620863,113.96885
1.699209,115.52004
1.7871888,115.603935
1.7597338,122.0681
1.7168279,123.62422
1.7918938,122.20405
1.7565709,122.56203
1.8115236,123.517876
1.6844332,122.724205
1.860285,121.29606
1.644231,121.34149
1.7133788,124.291985
1.6603756,123.33804
1.6521993,119.68313
1.6550872,122.58194
1.5596908,118.43381
1.4701017,118.0487
1.5927312,114.17688
1.4529916,110.694176
1.4496012,110.378395
1.4994111,108.18054
1.3924954,110.94754
1.4416631,110.14754
1.33544,101.296425
1.2908027,99.619675
1.3359969,100.83632
1.2897285,99.29122
1.2216814,90.81112
1.3231593,89.12454
1.275752,90.6274
1.1839659,89.15952
1.1905562,89.5962
1.240637,80.9913
1.0397495,82.89
1.1038705,79.45738
1.1830592,73.93745
1.0649014,75.99483
0.90351397,72.13461
0.7953716,70.34664
0.9078582,73.949394
0.94129705,67.63617
0.8633923,70.04044
0.8303034,66.10187
0.85610497,61.900356
0.87242395,59.870663
0.8221995,57.220814
0.95360136,57.7491
0.8326852,51.791405
0.9343662,52.843723
0.8256478,51.0213
0.79693705,52.495903
0.7573678,49.298763
0.7029284,50.80412
0.72729343,52.74827
0.65696675,52.56034
0.6587625,49.915543
0.50727427,53.57333
0.5305345,55.8237
0.6041514,54.37529
0.49424845,55.69376
0.5134343,58.733437
0.58302605,59.362164
0.7030945,63.709045
0.8089903,67.73083
0.7660997,70.79213
0.9240668,73.6863
0.9592876,73.58397
1.0332302,82.949326
1.153144,84.06455
1.3458177,87.18515
1.5117468,95.69718
1.5156769,96.10726
1.5352699,98.60596
1.5814211,104.5318
1.6260122,102.21325
1.8965166,110.10943
1.90261,110.28325
1.9717953,111.529
2.0044196,110.918526
1.9380487,123.39635
1.9946145,120.008934
1.9572889,124.39742
1.809324,122.22388
1.8910513,120.86375
2.0232081,120.30914
1.9785793,122.417015
1.9864166,125.05438
1.8450451,123.35588
1.8577238,119.021286
1.817595,120.73241
1.8433231,121.93945
1.7492614,116.95913
1.7268556,117.49204
1.6583827,113.24383
1.6325665,114.39499
1.5528442,110.038734
1.6873002,108.11895
1.5937562,105.77369
1.5930059,105.35652
1.5581255,103.81892
1.4918576,101.939285
1.4226363,99.40863
1.4195864,98.90375
1.3956643,94.852005
1.4437804,91.56633
1.3019025,95.76887
1.4098254,90.33585
1.2297729,87.40877
1.2746493,82.48719
1.2026881,83.245125
1.3119168,76.72372
1.1864002,77.12877
1.0901192,76.215805
1.0168437,75.07999
1.0684171,67.72641
1.055,71.60012
0.89257675,70.587654
0.8681447,68.06905
0.93772596,65.92885
0.82998216,63.669388
0.8834445,63.33274
0.90888876,63.44772
0.891183,56.702827
0.95515585,57.70679
0.83112794,53.03468
0.89373446,53.30204
0.82772696,54.37431
0.8309069,47.774124
0.7333028,50.35808
0.6895517,51.25087
0.6827162,51.078312
0.6466512,52.31362
0.6472284,55.54041
0.63699037,51.47164
0.5490335,54.63397
0.4983559,57.71478
0.5046385,58.308098
0.5850925,60.013332
0.62081534,61.63481
0.67198706,62.297882
0.7633319,65.53892
0.8540293,70.60601
0.8944014,72.444435
0.9423516,80.12836
1.198936,81.42393
1.2434511,83.93951
1.3868598,90.50781
1.4113268,89.34081
1.6778994,97.27263
1.6096236,98.43277
1.7201936,103.59266
1.6665239,109.42193
1.7782469,108.34096
1.8652014,116.40698
1.7937881,114.7938
1.8732471,116.586365
1.925481,119.36228
1.8766137,121.089195
1.8765814,123.69494
1.8226578,122.90053
1.949319,117.16958
1.8742483,122.68554
1.8791827,131.641
1.7480923,120.41364
1.8572699,117.25975
1.7730892,125.227974
1.6379217,120.47293
1.6191014,119.040535
1.6229208,117.55294
1.5016216,112.731125
1.5843987,115.61129
1.4698243,110.89473
1.493575,108.715935
1.3977089,110.85555
1.4392486,107.33154
1.45705,103.44914
1.3889323,100.50127
1.4632679,99.07661
1.3484212,94.74268
1.3907251,92.93169
1.3558496,96.54483
1.28309,96.13019
1.3066723,89.21373
1.189457,89.611725
1.0801316,86.60293
1.1336429,84.9734
1.038905,87.38105
1.0639179,81.16662
1.0314724,75.89553
0.9254278,75.757774
0.8586946,74.24884
0.8676265,72.43701
0.7700178,69.2686
0.8139038,66.2547
0.7822946,67.34616
0.73196805,62.56646
0.69165266,63.74887
0.82645375,59.236717
0.64506054,59.124172
0.74721634,55.40565
0.6817339,59.803528
0.71003467,49.549786
0.6628317,51.91304
0.6014333,54.107773
0.65565985,56.276386
0.57291853,53.630863
0.5196044,50.030636
0.48732105,51.565502
0.34498897,52.33004
0.32836264,52.0544
0.29422653,53.631275
0.18284264,53.88692
0.2504683,59.40774
0.30242708,57.285694
0.2868785,58.622936
0.38852704,66.35328
0.512192,65.16081
0.6105485,71.70886
0.6616723,72.85741
0.82568085,73.22494
0.9301819,81.36224
0.93653184,82.52396
1.0099053,83.2757
1.2240002,92.27683
1.3475883,92.21565
1.4269677,100.59443
1.4011203,104.39725
1.439607,107.033646
1.4985294,111.562256
1.5949,111.730576
1.6157616,113.478134
1.6640024,117.74309
1.5330195,117.79939
1.8038357,119.82445
1.5650324,115.44048
1.6715603,124.64603
1.5588126,126.17824
1.591859,122.79646
1.5279112,119.196526
1.4539746,121.9291
1.4621867,121.45093
1.534944,122.308205
1.4688835,121.30458
1.4785895,113.10264
1.4189987,122.4135
1.3563752,120.27857
1.3834513,116.38748
1.3195647,112.817474
1.3260524,112.89855
1.1346985,106.04216
1.2367876,110.433205
1.1952642,110.39252
1.094035,105.22481
1.0612459,100.7257
1.1345109,98.11855
1.1011754,95.52972
1.0563298,94.325645
1.0883864,93.93938
0.9723783,92.69349
0.9768269,87.92094
0.88346803,89.70728
0.93890446,87.425415
0.8312537,86.125336
0.8638005,79.81779
0.76644707,84.19757
0.69822305,83.70481
0.6073239,77.6765
0.56968373,71.24582
0.52938664,69.03294
0.43413955,69.966415
0.3774604,66.939865
0.40236318,67.10056
0.43749404,66.54669
0.4118081,64.434105
0.48582035,59.05524
0.5401681,58.275517
0.45407543,54.225742
0.5073492,58.773342
0.4049484,49.827118
0.3937899,49.73929
0.36176163,53.903805
0.1754612,48.418472
0.2012146,48.41762
0.16282263,50.082233
0.15592961,49.56371
0.08885966,50.003365
0.08332529,53.57148
0.07313554,53.896095
-0.08257503,55.156208
-0.035798207,57.30416
0.109245405,57.715767
0.12417028,59.74659
0.13718867,63.5037
0.2536797,66.6041
0.3097222,70.07013
0.40858603,75.29367
0.42700216,77.37303
0.6754854,82.39902
0.8494198,85.39266
0.82443666,88.004166
1.0265309,90.13899
1.116395,94.56948
1.1412989,98.80739
1.134719,103.293724
1.2811205,103.62623
1.3260503,107.59471
1.4036919,111.52711
1.3992357,110.942856
1.4042867,113.99847
1.4930515,113.45142
1.3849226,122.31468
1.3424522,118.968544
1.4231043,120.051994
1.3260067,127.11341
1.2996192,121.990456
1.2877271,120.738815
1.3417062,123.590904
1.2308096,124.441055
1.3551532,124.174614
1.2909791,117.48819
1.1622121,114.96712
1.0616537,118.19784
1.1601552,114.764496
1.2120231,113.02923
1.0220134,108.62049
0.99733555,106.37376
1.0342345,106.61633
0.9631152,104.50437
0.9339919,105.91613
0.9571987,101.8724
0.87789065,97.56319
0.9819112,98.15568
0.9176257,96.37919
0.93749213,96.418785
0.920707,90.53987
0.87105143,89.68505
0.8465671,84.58882
0.76329017,86.891594
0.6810205,83.1796
0.68826395,81.48705
0.5516242,79.30881
0.57346725,77.75678
0.541577,78.79717
0.5709018,73.46432
0.34484112,68.42471
0.40444866,70.06785
0.37967917,68.14613
0.37126583,62.13669
0.31756362,63.021816
0.37295392,60.483723
0.16612026,60.25529
0.30488706,57.012726
0.2590122,59.346767
0.3882949,53.842766
0.23125102,55.738575
0.27406284,53.363117
0.19812018,52.445705
0.30210537,54.666245
0.09744989,48.96351
0.062120803,52.29476
0.14456502,49.8356
0.010973094,48.836315
0.07680093,52.243484
0.0061321273,58.146748
0.009312746,55.448036
-0.109092005,55.657097
-0.10289006,58.577164
0.120187,64.00262
-0.097061105,62.165176
0.1562747,71.2337
0.17614052,69.03976
0.2618112,68.27955
0.49610084,75.95471
0.5898085,74.56434
0.6154312,82.735
0.7245588,86.292595
0.8556563,90.252846
0.9762756,92.53805
1.0626285,99.03066
1.0896158,104.84548
1.2117801,106.13364
1.2492127,108.60653
1.3182306,108.27595
1.4275476,109.93863
1.4257458,110.43529
1.4630873,118.109924
1.4104706,121.664
1.3890905,120.612434
1.4216856,119.49433
1.4584771,122.73252
1.4126269,120.69311
1.3652568,121.750046
1.3459479,122.78181
1.3192059,119.297226
1.22402,122.44325
1.2898041,121.58298
1.241396,118.43294
1.1618422,119.957504
1.088306,116.38185
1.0849953,111.786865
1.0980344,108.56615
1.1034507,113.559
1.0587502,107.87928
1.0164233,107.5976
1.0167456,105.80156
0.91931933,106.55282
0.9466491,99.69228
0.9103265,98.91518
0.9972223,94.37882
0.9463138,96.484924
0.9463234,93.41409
0.9394645,89.87339
0.7512682,89.04627
0.977135,87.853096
0.8262008,85.28177
0.727758,84.5258
0.690744,80.682556
0.70467216,79.31782
0.6883852,76.72154
0.5475236,75.26963
0.5957253,74.446686
0.54385126,70.31595
0.51536316,66.85153
0.4587943,66.97174
0.42783144,65.61335
0.33809692,62.984077
0.49939287,60.73318
0.40341365,57.36012
0.485025,61.085865
0.5396117,62.26139
0.35354444,53.003185
0.34270388,51.50065
0.3917627,51.214287
0.40324923,52.671104
0.39507338,53.461945
0.2136187,54.71082
0.17066596,50.0943
0.12338787,53.21555
0.18234852,51.738964
0.09663531,53.898056
0.14977807,52.58169
0.13247666,56.776043
0.061756473,54.20369
0.27637553,57.523663
0.22247152,59.014355
0.31609857,66.4557
0.3289936,63.65303
0.4911481,72.450516
0.5396898,65.24293
0.71859485,78.451515
0.8004138,82.73411
0.9083664,81.4624
0.9897499,89.67432
1.155739,91.36447
1.2236624,96.924286
1.1936232,97.17701
1.36337,104.13977
1.477017,109.15394
1.4604888,115.925804
1.5369865,111.60962
1.6242155,112.204056
1.5358859,121.56803
1.6490351,119.313095
1.643976,121.86275
1.6633297,120.92566
1.7102299,123.60586
1.657409,121.55492
1.668799,125.78948
1.5161589,125.37484
1.5309492,125.67822
1.5582591,123.884056
1.5770509,118.55457
1.4839935,119.062294
1.4019843,127.27946
1.395454,119.07745
1.3903009,112.839325
1.322243,113.15862
1.2662673,113.18505
1.3741826,110.70094
1.2917196,106.88113
1.2602023,108.74661
1.1808069,103.42953
1.3265687,101.1507
1.2086526,100.19752
1.2558303,97.035194
1.187392,97.57175
1.217257,93.96566
1.0347689,93.25366
1.1451026,89.66403
1.2264751,88.31522
1.0426917,89.16162
1.0557189,86.0158
0.97376084,81.56771
0.8866783,79.15938
0.80974567,77.723785
0.824849,73.27974
0.8887188,74.93684
0.8532475,68.76833
0.7621125,72.4267
0.7933793,72.080055
0.6769705,69.5219
0.6856112,61.895927
0.7878996,64.540474
0.6420201,60.54133
0.7231994,63.503014
0.66194546,53.505066
0.7114957,52.64099
0.7054301,50.47418
0.71003026,53.72889
0.7418989,51.76239
0.59248203,51.05615
0.5717012,50.3848
0.5068072,50.010788
0.49344888,47.929604
0.46916312,55.016087
0.41730016,47.724014
0.518377,53.058064
0.33907714,57.64766
0.48571268,60.58854
0.41230172,61.1747
0.4658026,59.427475
0.44962868,62.81893
0.56622076,68.591805
0.64931685,68.65385
0.6919279,73.04492
0.92053145,76.01792
1.0080205,79.11553
1.1605145,82.55961
1.2356002,83.6179
1.3491136,93.76141
1.4177577,95.42669
1.576791,100.42978
1.6341072,102.594284
1.5593013,105.50752
1.6932003,103.63388
1.7913585,114.15294
1.8025402,112.162445
1.9459758,113.644615
1.7598702,118.66305
1.872417,117.5906
1.8663422,120.91767
1.8624307,118.745026
1.9089911,120.45966
1.9347312,124.61201
1.9011565,125.918785
1.7951403,119.84596
1.7126667,125.12068
1.8248734,120.34409
1.7161943,120.94651
1.755682,120.20718
1.705785,119.09608
1.5747864,117.425385
1.6037555,114.03552
1.6057669,111.32515
1.6531047,112.3766
1.5043757,107.16071
1.4376515,107.36235
1.4963154,110.10192
1.4604428,99.34353
1.5269734,98.22618
1.4313191,99.191925
1.4083371,94.05003
1.3830554,91.93365
1.4453408,91.83457
1.3274648,91.418335
1.4106042,89.026085
1.299469,90.68997
1.3401617,84.50019
1.262303,88.774574
1.0536087,80.95247
1.2878096,75.53796
1.1638312,78.75064
1.0403974,72.95745
0.99951833,76.46198
0.8881348,67.06461
0.9825708,70.00079
1.0348431,65.94054
0.9435339,64.77252
0.9474166,66.52046
0.8305856,65.89426
0.8854473,58.802578
0.8645184,62.24175
0.96233976,56.00315
0.9002849,50.546684
1.0050393,50.327194
0.86334115,47.53676
0.78970605,54.936245
0.73337406,52.64156
0.77263427,51.01919
0.6535185,50.848984
0.67675203,54.240597
0.52274877,50.47861
0.5627125,55.427372
0.48547426,53.98037
0.5434851,58.115307
0.5698277,53.462383
0.45726508,60.042152
0.71116537,58.97563
0.7292177,65.04276
0.7073264,62.668926
0.88072366,73.66025
0.91970325,73.95094
1.0790145,80.60127
1.1803949,85.892876
1.2972959,84.78783
1.4155899,85.39448
1.532454,92.49052
1.6464036,97.58631
1.6348302,99.63929
1.8613027,105.263
1.8251334,105.50561
1.86123,110.93774
1.8901424,109.916306
1.8381044,109.85664
1.8556561,114.03135
2.0682583,116.41878
1.9831103,121.15071
1.9830775,122.077644
2.0069802,120.90891
1.9546,121.32093
1.9453329,121.478165
1.9276901,123.88014
1.7680504,122.02743
1.8970722,118.77544
1.8998137,121.98111
1.7418014,115.45732
1.7537818,118.68447
1.5694746,119.71694
1.6577482,118.47679
1.5937442,117.74758
1.6424868,112.17167
1.5114398,110.25417
1.4839911,111.32736
1.4514431,104.64687
1.4649801,102.8066
1.6026506,99.63571
1.4709218,101.33356
1.4557832,101.19482
1.421966,95.676414
1.2449329,98.18324
1.4595115,97.79022
1.4332091,89.30611
1.3297626,86.615234
1.2747159,85.143
1.2663759,78.26121
1.2940681,86.65568
1.218199,80.91108
1.1075062,79.416374
1.0746439,77.130806
0.8927973,78.324646
0.99173313,72.4511
0.8719621,75.28306
0.96351665,71.72057
0.8861369,66.69418
0.85040265,64.40343
0.8378107,61.68503
0.96492344,66.13843
0.8630182,61.67353
0.84152573,60.59523
0.71690136,56.565323
0.798064,53.178772
0.7186043,52.962902
0.7957346,51.65372
0.66347307,52.660408
0.66586363,54.900757
0.62785125,51.43699
0.607989,50.89099
0.5045435,50.623127
0.6087646,54.78475
0.39990684,49.66435
0.45660445,54.044518
0.47607842,55.616676
0.52534443,58.188732
0.4362187,59.813736
0.49729955,64.345985
0.48220018,66.21553
0.7165785,66.93574
0.7632987,73.62102
0.8274815,73.30442
0.9796722,78.91895
1.1312848,79.03182
1.1879022,94.17711
1.3732903,92.144325
1.4068793,87.401306
1.5246147,98.43591
1.6331062,100.478905
1.6427344,104.59664
1.789861,106.55422
1.6619432,109.343185
1.6722995,111.99084
1.7879796,119.78557
1.7220176,121.70962
1.9601104,123.16471
1.8510326,119.12579
1.8048218,116.62357
1.7773983,123.330666
1.81903,126.93255
1.7626122,120.92332
1.628963,127.984665
1.6642704,119.016655
1.6323282,125.22774
1.8070384,118.7398
1.6138417,118.30251
1.5617989,115.10042
1.5690678,114.21055
1.3251383,116.47177
1.3139662,113.35522
1.3308283,114.52689
1.2995335,107.256905
1.3223104,110.79176
1.3014343,105.00213
1.3694763,103.9658
1.2880396,100.98229
1.2739109,96.02414
1.1396852,96.99277
1.2344054,92.912056
1.1486504,92.38964
1.1556752,90.11141
1.1190377,82.559975
1.0312451,88.73852
1.1612425,85.65576
1.0094433,81.70986
0.8906244,77.4466
0.8077598,77.26761
0.8612867,78.46701
0.7343519,73.0092
0.69608635,71.267845
0.6920904,69.63521
0.6187147,68.46401
0.7167793,68.88298
0.65383863,65.51798
0.59178776,65.809364
0.5902238,64.45168
0.5955267,65.0706
0.584735,61.176796
0.5786716,56.903004
0.5655328,57.695633
0.47492144,57.984737
0.48646644,56.177235
0.5881071,52.337074
0.5131957,47.94736
0.3452138,46.13385
0.37143815,52.630352
0.32092083,52.54855
0.15681057,50.362217
0.2667383,53.756313
0.1825177,51.486523
0.2309501,56.42555
0.119392775,51.98096
0.18267328,59.91167
0.24858283,61.829227
0.29307926,61.99104
0.42077395,67.60234
0.44610548,69.94722
0.46337557,74.84117
0.6581098,77.36646
0.6741597,82.54259
0.8056497,81.91534
1.0618826,88.84869
1.0770427,95.78422
1.1069412,98.68286
1.2275195,97.04449
1.2272042,102.061905
1.3277752,108.82049
1.4981027,106.849205
1.4376345,108.16796
1.4341496,117.0483
1.5492097,118.68489
1.5955312,117.254105
1.5681531,121.0107
1.4181619,123.4794
1.4336196,118.58441
1.6302849,124.814514
1.501648,123.24748
1.4368936,124.72479
1.423943,120.6089
1.4794838,119.598526
1.4740047,123.28815
1.2360556,118.97379
1.3169477,121.65702
1.2068921,120.49617
1.231142,118.44497
1.1914189,114.51225
1.1607083,111.640366
0.9849298,111.46268
1.0898702,108.81994
1.0861683,108.01371
1.0626476,105.840904
0.880885,102.95785
0.9130473,102.49953
0.9168429,100.138596
0.99685854,98.10682
0.9375792,98.10816
1.00569,97.18181
0.8083895,91.51298
0.9013196,86.18541
0.8543555,88.2398
0.8378544,81.429855
0.78919935,82.33274
0.61359924,80.12942
0.6111701,77.42543
0.571519,75.44294
0.4253877,75.61636
0.47712505,70.2479
0.43720666,70.92655
0.43055677,67.11597
0.34789163,66.762184
0.46267587,65.433685
0.44352624,67.52543
0.37234208,62.780922
0.34509113,58.774582
0.32857746,58.480976
0.34491393,57.487663
0.37369648,54.785496
0.32185763,57.809883
0.33881727,47.93578
0.18212225,54.320793
0.25138387,54.354298
0.2026237,47.904453
0.1155491,47.662975
-0.022194989,52.063816
0.026852706,49.66484
0.03055935,55.285698
-0.052001003,58.06981
0.065669134,53.26218
0.023752028,54.976475
0.0830156,58.364014
0.12335602,61.397144
0.10128198,68.48428
0.24651705,69.427444
0.3086452,73.12954
0.47061607,81.43981
0.5097935,79.9712
0.6501956,80.783844
0.70343095,88.573746
0.8292272,87.03659
0.9568499,91.208015
1.0921094,100.15005
1.084658,99.58766
1.1382393,103.88301
1.1507221,106.42253
1.313033,113.31722
1.2637907,111.26497
1.3220652,117.11522
1.4390644,117.662704
1.3014085,120.88823
1.4460999,122.42592
1.4075322,117.0562
1.2865999,116.651794
1.3263053,124.723
1.2738789,120.93488
1.2711904,124.39735
1.2592224,120.8113
1.3285714,124.00622
1.3240865,117.5684
1.1924586,120.30198
1.1706051,120.934326
1.127809,117.071556
1.1586982,116.46656
0.97840786,114.63466
0.9894526,115.71336
1.0684208,107.18696
0.8902128,112.34311
0.96616834,108.4069
0.9063215,105.918
0.94093686,101.257126
0.8808775,98.225334
0.8667105,99.331825
0.92910117,99.45402
0.8028224,94.51752
0.78572005,89.76004
0.78855765,86.39834
0.8776692,87.653076
0.73371655,86.739426
0.6891122,84.94544
0.77931356,85.66797
0.5765938,77.76393
0.58770263,79.29547
0.45382035,73.83397
0.52398515,78.66872
0.37107494,72.56747
0.42843062,68.97419
0.38693997,67.45892
0.25930506,64.98752
0.34577033,60.729824
0.38242686,60.904152
0.37974924,63.1316
0.41507393,61.862003
0.4120325,52.0668
0.2947902,57.449417
0.30994755,54.65416
0.3442891,53.112473
0.29756236,52.335865
0.12849167,55.57679
0.21651141,50.596203
0.17862317,47.72238
0.055302512,46.92136
0.006406193,55.721115
0.0038499308,54.870216
-0.005656025,54.90391
-0.08831918,55.1671
-0.060872346,56.126205
0.083854966,59.363003
0.07362836,59.014935
0.15564452,65.618866
0.25014144,66.082016
0.29521456,69.385956
0.5028439,74.02874
0.5597613,76.358696
0.625101,81.20787
0.6591107,84.56453
0.8641477,87.84805
1.0262927,91.39774
1.1412783,97.57283
1.1286873,98.112305
1.2570031,99.60921
1.3273851,104.82364
1.3728244,111.46501
1.3879955,113.34614
1.4135135,116.32422
1.3697336,116.31996
1.5296173,113.63022
1.5976232,120.562096
1.4652739,120.18102
1.4928302,120.825264
1.5001584,120.65649
1.5201974,123.93705
1.4523932,123.36527
1.3873775,121.58222
1.4717816,121.954895
1.4750956,124.62757
1.2935203,121.79755
1.2226456,117.80638
1.2081405,114.97268
1.165551,118.46838
1.216719,113.32091
1.0118198,110.25927
1.1679499,115.27093
1.1557243,109.106224
1.0711421,109.04581
1.0978934,103.1892
0.98318225,103.4276
0.97439206,101.60971
1.0678478,96.423355
1.0786899,97.11315
0.9183186,94.88567
1.0933216,91.827286
0.99378073,93.05773
0.91057485,87.28494
0.9188283,88.167984
0.834129,85.89665
0.9084379,85.18425
0.8385027,78.63833
0.7927659,79.42138
0.73527247,76.44357
0.56109464,78.01189
0.568218,72.9275
0.6523904,67.71961
0.5864881,68.63002
0.5572718,69.56603
0.44934046,61.40683
0.6305606,64.05322
0.6174643,65.84696
0.61126786,62.024055
0.6061365,60.048767
0.56805354,53.72942
0.5264091,57.853233
0.5582541,50.338554
0.4731783,53.58901
0.4345205,51.380474
0.46948966,49.61352
0.33191124,53.88483
0.42449713,54.266655
0.3058382,46.39019
0.364377,51.815826
0.35008088,53.020813
0.23170242,57.199432
0.16015296,54.197838
0.29500902,55.99885
0.23974751,60.82399
0.41649374,62.169525
0.38572973,66.083115
0.55621195,70.395294
0.67080927,67.64104
0.64436185,75.53539
0.8431217,80.47247
1.0088196,82.868385
1.1957649,85.23447
1.106479,88.28253
1.319309,96.99394
1.2800168,95.21387
1.4060562,103.19194
1.5155404,101.07252
1.4949003,103.20116
1.6710936,107.80377
1.6598227,115.10222
1.6410475,118.08977
1.7079211,118.32842
1.7585366,119.40815
1.7657273,121.96331
1.7753686,119.375465
1.8370923,125.361336
1.8507389,120.71569
1.7840153,121.88167
1.7406204,121.00723
1.6924427,118.743324
1.6809615,125.589294
1.620013,122.15985
1.7046554,120.70291
1.5144453,122.08228
1.5060955,119.026596
1.6205528,115.87203
1.3954757,112.67584
1.3908451,112.29699
1.420047,106.6111
1.488811,107.50871
1.4101206,102.75837
1.3555187,105.67357
1.4141271,99.48007
1.4246987,94.81104
1.332794,99.768524
1.3829099,93.75192
1.2894031,90.80291
1.2666229,90.90028
1.3152703,85.655716
1.3184904,90.73372
1.3154179,87.80452
1.1502221,86.17897
1.0744693,85.39165
0.9966706,78.461525
1.0736651,78.99465
1.0408425,74.59489
0.874595,75.15429
0.9387398,71.48851
0.95304924,73.383446
0.7894638,70.580345
0.7789828,63.61929
0.9152474,66.567604
0.83700913,65.01943
0.8907866,59.62735
0.8298514,58.263996
0.8424912,56.258595
0.71851975,54.153576
0.8276799,54.06332
0.70314974,56.742832
0.7066044,55.8567
0.83400595,53.381977
0.7365709,54.04022
0.6155072,53.481945
0.6077531,52.526848
0.56167984,54.54435
0.56646925,47.862267
0.6350167,51.812965
0.49184,56.307922
0.5195564,57.988087
0.5359256,56.13829
0.526883,64.39891
0.6338545,63.65048
0.60918385,66.27604
0.88057584,67.86172
0.9710277,75.17424
0.9475167,78.88301
1.0899161,78.56274
1.3047613,81.36132
1.3435589,88.66582
1.4270662,95.45713
1.674813,90.37587
1.6708158,106.10212
1.5936571,100.85457
1.7348244,104.84921
1.8135102,105.81557
1.8422847,112.30433
1.9195285,118.06793
1.9382261,115.68927
1.9372654,118.58808
2.041205,115.125
2.0608199,120.21618
1.9822147,122.46319
1.9534947,127.73714
1.979417,121.35132
1.8785361,122.6957
1.7492061,122.48459
1.9207609,123.331856
1.81614,124.828804
1.8269157,122.078575
1.8196511,118.630104
1.8162469,118.36683
1.6913458,117.52061
1.5868973,114.74682
1.6676586,116.39412
1.6165283,110.35274
1.6973448,109.87545
1.5516859,109.70392
1.569213,105.320145
1.4545461,99.59106
1.4825814,98.66042
1.4440322,102.02069
1.5886545,100.97133
1.40195,91.72985
1.4162253,89.20041
1.4558046,92.69562
1.3892516,86.91732
1.3634257,88.245224
1.3503112,84.73939
1.2530435,78.955215
1.2139249,81.32949
1.1266752,79.021935
1.1377089,73.224945
1.0321244,77.9684
0.9924646,71.14459
0.94031024,72.76496
0.8996606,65.87918
0.9544559,63.73534
0.9681562,66.772575
0.93131065,61.58091
0.9042775,62.63383
0.8627744,61.48959
1.0462466,55.442093
0.89634633,53.68286
0.9462659,60.575348
0.95554364,51.001385
0.74241847,49.302544
0.86866766,51.928856
0.69109935,51.030285
0.7553441,51.39964
0.70101106,53.82003
0.56328017,50.51159
0.47208396,56.83675
0.52046806,54.33242
0.43096882,51.732815
0.49750257,57.960323
0.6524773,57.78843
0.50260794,57.516335
0.6445128,67.64869
0.73935324,66.79578
0.7483768,64.838806
0.8623403,75.309784
1.0191067,72.415
1.0322118,83.93887
1.2046242,82.80914
1.2639655,87.30841
1.3270547,87.169365
1.5177962,89.93933
1.5278288,97.690125
1.5880893,98.50781
1.7110919,105.0675
1.8385487,108.81154
1.844577,108.7344
1.7682323,115.34628
1.8507653,113.0695
1.8420355,120.09253
1.897559,115.32935
1.9094534,121.10491
1.9363738,120.81646
2.0113015,123.62045
1.8706588,121.60496
1.8633534,122.141335
1.84249,122.67746
1.867715,122.54657
1.8323746,121.924065
1.6902639,117.68796
1.7143275,121.852715
1.6822999,120.62915
1.534361,122.00496
1.5541909,115.68525
1.6011268,113.9502
1.4840248,112.037964
1.5182012,108.12636
1.4523311,105.46855
1.5026879,105.84771
1.4153094,106.360115
1.4312799,103.05338
1.2485465,103.28103
1.3429409,95.1473
1.4336936,96.09712
1.3324246,93.785614
1.330979,93.20242
1.250919,94.26348
1.2558024,89.57644
1.2954044,86.1035
1.0959305,82.45242
1.0564193,81.92373
1.0422066,81.171616
1.0507047,78.7844
0.98777384,77.49045
0.87681013,74.985695
0.9190858,72.25161
0.8869978,66.36949
0.7780615,69.12416
0.7596062,62.95702
0.8382821,63.348236
0.833774,63.50786
0.65702975,66.722786
0.7535523,57.473667
0.73573846,55.86967
0.69959253,55.31117
0.71984583,56.382607
0.7033824,54.241455
0.63408947,47.496677
0.6227598,51.564445
0.56799394,50.979874
0.52281135,51.781406
0.39832205,54.98744
0.3674368,53.639015
0.30204958,53.07091
0.42640102,53.74046
0.31007764,55.23964
0.29736194,62.297592
0.3991823,59.92162
0.43645114,62.58216
0.409897,65.98944
0.42414242,63.62524
0.6203434,71.54306
0.6908341,74.340706
0.75991535,80.527115
0.9781956,77.46014
1.0686622,87.91173
1.1182051,90.21875
1.3486979,90.76634
1.3729882,94.54899
1.3479072,99.50737
1.4986172,104.6176
1.4276501,104.60663
1.5981187,110.98691
1.5423738,108.87797
1.5405111,111.71171
1.684815,118.18156
1.6543021,115.90843
1.5784614,118.47471
1.5715607,122.842125
1.70898,124.124115
1.6125389,124.61671
1.6341207,120.70272
1.6234608,122.65928
1.6173759,118.94074
1.6332893,127.33106
1.4584398,122.354256
1.4839203,118.424065
1.456898,118.48319
1.3293833,115.51624
1.388965,114.82608
1.2614527,116.22114
1.3044786,111.338
1.3054495,111.12478
1.1816233,109.07546
1.199109,108.65124
1.1431602,100.2019
1.1956931,108.16205
1.0932485,102.62255
1.1137509,101.86506
1.103204,94.92811
1.0746015,94.87719
1.120479,89.68923
1.0039514,89.10178
1.0506703,88.96352
0.9961236,86.32668
0.8469149,86.37668
0.85835105,83.502464
0.82400733,79.50296
0.69206953,76.910164
0.69741416,74.50767
0.62941265,80.05006
0.6217775,71.25542
0.59261143,70.19185
0.5259644,67.4236
0.5242654,67.974014
0.41345948,65.03668
0.4809313,62.862156
0.5312296,56.781586
0.60423726,59.03482
0.43057016,57.351536
0.44865483,58.259483
0.5247835,58.53573
0.42332637,52.76081
0.4155308,49.633152
0.25695714,55.00381
0.22393727,52.25926
0.3435055,47.46071
0.116315454,48.955734
0.26096046,51.952038
0.14001349,55.036987
0.054972712,50.06322
-0.025243433,60.490837
0.11574862,56.12645
0.052663703,56.69556
0.048196584,63.13972
0.13148445,60.762722
0.2831187,63.507126
0.26361445,65.84647
0.4440409,70.93656
0.4898983,77.316864
0.663774,79.46028
0.6511707,81.62976
0.823613,80.799034
0.8448397,97.442444
0.94859725,93.97468
1.1127692,94.3791
1.1247872,99.09948
1.140362,106.22212
1.3199533,105.35866
1.3161217,108.236115
1.3181907,116.44529
1.4446694,112.53777
1.367764,114.37291
1.4741603,118.450134
1.5137333,122.5176
1.5172102,124.46591
1.4200991,124.47037
1.340559,119.2655
1.4366789,123.89486
1.3840784,125.569626
1.2912061,121.729416
1.3042115,122.81316
1.2921963,120.43134
1.2896394,117.63462
1.2284685,113.385864
1.0404632,115.978
1.1162162,116.56645
1.0332297,111.82401
1.1395798,109.631065
1.0000436,116.31963
0.9991602,111.875046
0.90240705,104.69016
1.0317316,104.03614
0.81778634,98.432
0.8715786,103.98774
0.85495,98.96198
0.9713237,92.30235
0.86678654,95.52266
0.8644667,92.94066
0.8672437,87.55421
0.8126946,87.65273
0.76086557,84.25956
0.6989393,84.85267
0.6849388,82.908676
0.6463254,79.86225
0.49675992,75.23502
0.5333698,77.505585
0.480698,72.239944
0.4023194,72.22899
0.36338583,71.303024
0.27607337,70.0136
0.38175526,68.367355
0.31449726,62.026844
0.32395655,60.841606
0.2435014,55.274456
0.38221326,55.90861
0.31290454,62.87584
0.3522564,58.389423
0.27593306,53.503704
0.41628224,53.978977
0.33505395,53.114223
0.17555079,52.43432
0.24631055,52.553444
0.19230513,51.840595
0.04683581,51.05569
-0.01366386,47.129143
0.0015586368,50.190872
0.00891733,52.350807
-0.010726346,55.262775
-0.0705295,51.86416
-0.041460574,54.920776
-0.0056313924,55.32621
0.0039040155,60.767384
0.13329281,69.67927
0.28613856,76.60568
0.32233447,69.67175
0.5268363,72.985344
0.5754169,81.72494
0.6812526,82.43696
0.7131004,83.76133
0.8516998,92.12128
0.8454176,94.66483
0.9723797,100.10566
1.1370475,102.59453
1.1835432,103.47367
1.2160237,103.928246
1.3128247,111.43556
1.3360071,114.29207
1.3691862,114.266014
1.3805952,116.55458
1.4215876,115.61221
1.3431264,120.32455
1.370504,124.47201
1.445802,122.94859
1.3887606,127.208595
1.3638141,125.32845
1.3245099,123.717354
1.3392413,123.51758
1.3554575,121.97963
1.2569269,119.055244
1.3068556,118.47536
1.1700952,118.6573
1.2210871,118.001755
1.0969778,118.78111
1.0546044,113.2392
0.92549676,113.521645
1.0605488,109.74063
1.0090234,103.763954
1.063781,106.42692
0.9761192,99.88465
0.9421005,100.05848
0.9218659,100.62249
0.97921586,96.838165
0.9757335,98.487236
0.91957355,91.17482
0.9660146,88.59913
0.8835322,86.52161
0.7448736,84.44442
0.8796899,80.89195
0.677922,83.41632
0.64532804,84.5907
0.68426615,77.43282
0.6377799,78.48575
0.5223772,80.479164
0.41602543,69.97372
0.5444257,72.730835
0.5057955,71.48677
0.4527496,66.63578
0.35400608,66.97803
0.57609344,62.76465
0.35926926,60.52091
0.47004032,57.987957
0.5683551,59.85217
0.4300795,55.299248
0.35277075,56.325592
0.37440133,50.525715
0.47278255,51.986614
0.3821282,50.021084
0.30507442,51.608875
0.21409415,54.999546
0.24335934,53.950325
0.1675371,52.70885
0.08723122,48.427357
0.16075678,51.048374
0.07096159,54.797188
-0.007116332,52.68962
0.056804344,53.872982
0.09608283,59.841587
0.21113992,62.028862
0.29739517,68.23486
0.39844978,66.31553
0.5218702,69.75006
0.49592128,74.40488
0.6569057,77.788055
0.7753665,81.65129
0.9036161,87.67937
1.0252262,85.39158
1.10077,89.9822
1.1899114,94.4774
1.2319508,100.94182
1.3790956,104.671
1.4615418,105.07296
1.5027059,111.24925
1.533083,113.42577
1.5002325,114.60788
1.5724534,116.97677
1.5964615,118.18346
1.636173,120.448135
1.6206183,121.334984
1.5268722,121.115524
1.3999808,122.843544
1.5154883,117.62706
1.5410404,119.568405
1.4700919,124.466324
1.4941163,123.3504
1.4850078,119.46559
1.4336005,116.275925
1.3428941,121.44465
1.3424466,120.07796
1.2974886,117.81043
1.3527011,114.06318
1.3280537,107.79818
1.2791858,108.97282
1.2957807,107.06844
1.1616925,108.57952
1.2029905,106.958694
1.1623715,103.05572
1.2677224,95.5714
1.1866106,95.76164
1.1499648,93.44318
1.2708358,90.69297
1.1102688,91.34779
1.1228994,87.35637
1.1100136,87.657394
1.1173294,85.43891
1.1650736,85.53936
0.95895153,81.96497
0.7715328,82.66355
0.8132468,81.3137
0.81841886,75.64304
0.80472386,72.46414
0.7695517,72.4822
0.7384101,69.85174
0.6855055,66.5435
0.80574566,65.52676
0.7157474,63.807632
0.6946391,66.8043
0.7240166,54.94377
0.7146141,63.856915
0.66734844,55.08434
0.7483459,55.52041
0.6671087,56.91876
0.6624598,54.905884
0.654263,54.101887
0.6794212,52.24218
0.550245,50.31132
0.48935318,53.581455
0.50898576,50.19959
0.47056246,48.14842
0.4210403,53.8723
0.29665095,50.612705
0.4292313,54.276257
0.33175805,52.128624
0.34236377,54.612
0.43125564,61.34211
0.51565135,62.627556
0.65324223,67.537895
0.5441182,72.04009
0.79914904,76.681366
0.8568307,80.02271
0.9724119,79.84075
1.1808275,81.25185
1.1910225,89.351204
1.2297938,90.038895
1.450472,94.38916
1.6102089,96.11104
1.5442,100.66954
1.7013931,101.171906
1.7356147,114.30127
