ppg,abp
1.0731311,77.65935
1.1302212,79.741264
1.2779367,79.465675
1.281034,85.05175
1.2658632,84.34267
1.3367388,86.849365
1.3500448,90.00371
1.5167943,93.74053
1.5536406,94.05045
1.5026997,96.66211
1.610022,96.89843
1.5518832,99.86138
1.6984605,100.59198
1.6646776,101.479
1.6047047,104.489876
1.7629588,106.55294
1.6450708,108.23505
1.6997956,108.90682
1.7359129,110.45949
1.8197833,110.24126
1.6438506,109.82915
1.6559116,110.89129
1.7175692,112.91039
1.7331066,112.45688
1.7657485,111.587494
1.7646959,114.47375
1.6922785,115.93043
1.7482284,113.89195
1.6474746,111.04257
1.7428205,113.3071
1.6764845,112.449875
1.6680937,107.87109
1.7092317,112.906456
1.5972078,111.705025
1.6299381,109.99484
1.5611084,110.00861
1.5151304,110.36205
1.56014,109.75902
1.6007748,106.52818
1.5923002,107.63154
1.5196368,104.7498
1.4553366,107.195244
1.5522522,103.000046
1.4977236,101.97453
1.401783,103.18121
1.4042654,101.62982
1.4684936,97.677444
1.5561866,94.61943
1.3834726,95.458885
1.4886993,92.1605
1.4061887,91.90756
1.3574944,91.54829
1.4235148,89.64783
1.3605199,91.46999
1.4123713,88.3672
1.4298447,86.25154
1.4519678,86.68307
1.3855325,86.10114
1.3838214,84.125984
1.3669325,81.12072
1.3119658,80.71424
1.344008,80.781265
1.3116316,79.90369
1.1868911,79.438126
1.2588049,73.9749
1.2795153,73.2622
1.3000339,71.91456
1.1788863,69.395515
1.1646513,73.86813
1.1452384,67.862495
1.1769981,68.7431
1.0453753,67.74431
1.1424772,68.66137
0.9958079,63.700356
0.81430817,65.557556
0.9761632,64.295845
1.0050342,61.983868
0.9217181,59.069084
0.90584385,58.839867
0.913486,56.78668
0.91702795,56.488487
0.80446994,53.436962
0.8879422,56.825512
0.90717375,51.73922
0.8619066,54.005676
0.89064884,50.549194
0.90700054,48.286644
0.81346947,47.534817
0.8459819,47.414055
0.89110816,48.14517
0.9821767,43.828423
0.82289016,46.973564
0.8037513,43.37567
0.83188987,43.01509
0.79456747,42.61075
0.8570186,42.92763
0.8213741,41.854263
0.80103093,40.0
0.8146037,40.0
0.7354177,40.0
0.67840815,40.0
0.60607827,40.0
0.66850466,40.241024
0.5826421,40.0
0.613357,40.0
0.5924023,40.0
0.47752225,40.17288
0.5857194,41.9405
0.6192934,40.0
0.52063084,42.004654
0.53367555,46.64473
0.5923532,48.595345
0.51683766,46.826546
0.5542727,48.21285
0.5252575,51.101585
0.67684555,50.129192
0.6558896,54.5765
0.643071,53.725216
0.82756335,56.319584
0.85413814,58.763264
0.96076393,60.520607
0.9164462,63.263954
0.98403215,63.905594
1.0618663,63.935074
1.2039176,65.57511
1.237179,72.0526
1.2661709,75.086105
1.3374993,75.78849
1.3346982,78.98457
1.4740225,81.016556
1.540345,83.22025
1.5934318,83.1883
1.6062288,89.97729
1.6518573,88.813034
1.6649607,89.95741
1.7829344,94.498276
1.8730426,98.6578
1.9527743,94.5551
1.8426082,97.277115
1.8692137,102.59585
1.9889934,101.74104
1.9742359,103.71743
1.9379432,104.17576
1.9776161,104.320274
1.931788,106.17589
1.9095727,109.433716
1.9067073,108.646255
1.9703206,110.10555
2.0010407,114.48699
1.9975193,115.65158
1.8691297,115.75225
1.8953377,114.33306
1.8467944,112.26692
1.9637889,113.2409
2.0286264,112.107216
1.8988454,112.33178
1.8250229,115.07448
1.8843359,114.3176
1.9715328,111.71445
1.845873,112.213
1.8227357,111.1984
1.7923976,108.67763
1.7531765,107.726204
1.7176613,111.71695
1.7302015,108.44858
1.7021263,106.971466
1.7055082,107.325745
1.6523473,108.086525
1.5642658,105.30766
1.6154987,104.877914
1.5880461,101.99053
1.494237,98.28445
1.5868311,101.051094
1.5129181,97.3261
1.5453913,94.378624
1.4053675,97.6793
1.4939598,94.46356
1.4655797,92.43891
1.477534,92.33132
1.4805353,93.35999
1.4883362,92.00018
1.4070511,87.26025
1.4945863,88.61148
1.3160951,91.36484
1.4038162,82.43744
1.3401337,81.61937
1.3762784,85.197235
1.3668932,79.624916
1.3993719,79.41824
1.3315402,77.95993
1.3275635,77.23394
1.2701436,77.2777
1.2433864,73.01163
1.1606387,72.71313
1.2450305,71.9785
1.1596057,70.383804
1.1305983,72.00436
1.1104552,69.65835
0.97004044,68.82074
1.0811079,65.29585
0.94193804,66.0674
0.92524153,63.880924
0.9079884,64.68881
0.848115,62.563984
0.8781871,61.521557
0.75677276,63.211132
0.7337586,58.59642
0.79684883,56.54926
0.7806809,56.688843
0.7933172,55.60711
0.73541385,51.910477
0.8375286,50.57992
0.75606704,47.99558
0.83929664,51.043484
0.77888113,48.843315
0.77316886,47.360874
0.79541343,45.42479
0.8417571,47.158512
0.7394951,45.43609
0.68195134,42.48325
0.6579745,41.70167
0.72733724,42.848007
0.6432972,42.216682
0.76267534,40.594955
0.6293503,40.705776
0.63582635,40.0
0.52978474,40.0
0.4574968,40.251556
0.47453988,40.0
0.32402503,40.0
0.42004997,40.0
0.35972872,41.633427
0.33546123,40.0
0.34804648,43.52489
0.30386183,43.35846
0.2800497,41.862823
0.25779405,43.104794
0.22536717,44.012196
0.3269315,46.31822
0.25699383,44.319267
0.35347438,47.703312
0.28848702,49.02372
0.42971033,52.792732
0.44124886,51.622128
0.41125807,55.057358
0.53399545,56.45052
0.5413613,59.2582
0.60245734,59.487743
0.6190453,62.48466
0.7217081,65.337654
0.753524,66.07881
0.79932135,69.88436
0.8583082,70.22607
0.9428602,72.74527
1.0040747,73.77978
1.0787816,80.42355
1.1485083,79.36643
1.262604,83.868034
1.2294805,87.55024
1.2728343,91.85025
1.3502593,90.03002
1.3947358,88.40165
1.3979789,93.02279
1.4632661,97.576904
1.4003057,97.81666
1.3739232,100.94663
1.5248712,99.02744
1.4871265,101.59211
1.5664186,105.56109
1.5755312,103.23995
1.6313335,105.58787
1.6070002,108.573944
1.638905,109.90301
1.6002878,111.10748
1.56628,112.87495
1.5717411,114.38122
1.5642092,111.18195
1.5936979,112.93705
1.554969,113.896
1.4989703,113.73151
1.6445997,112.70139
1.566173,114.24351
1.4361645,110.71414
1.416616,114.20007
1.3864417,112.443474
1.4680009,111.68565
1.3567493,112.87504
1.373115,112.43245
1.4127775,109.58255
1.3031985,109.29721
1.2181996,108.604164
1.3054236,109.58048
1.2058978,107.621956
1.221381,105.45255
1.2143788,104.53338
1.143986,104.67528
1.210186,102.60256
1.111984,102.17963
1.1163394,100.40851
1.061954,98.834496
1.0694733,100.602394
1.0092888,98.95976
0.9973475,94.93273
0.94910717,94.27221
1.0404954,89.63279
1.0463235,91.35031
1.0247533,90.365486
0.97341144,89.49878
0.99491256,88.50281
0.9590076,86.29111
1.0024216,85.56692
0.9871462,87.939125
0.89321554,82.72285
0.9337662,81.75177
1.0199225,80.445145
0.9562718,83.149025
0.82483953,80.48027
0.8594723,77.84905
0.8496841,78.66157
0.7919954,75.42208
0.7279105,76.035446
0.718371,71.658226
0.6945994,72.85401
0.66848594,70.14355
0.6756514,67.22605
0.633911,67.9092
0.56686693,65.33324
0.55644643,67.13689
0.54238725,64.32708
0.4806796,63.51836
0.49321982,63.82342
0.4873091,61.81233
0.49549884,59.189342
0.43268907,55.28547
0.35181507,58.081215
0.37749705,55.33878
0.41220626,52.960938
0.36660632,52.6189
0.3809897,50.32766
0.29545397,51.83638
0.34309626,51.552578
0.31667575,47.980183
0.38035917,45.492985
0.35387784,46.344116
0.2598578,45.232216
0.22049956,47.225628
0.3424872,43.946896
0.4038357,44.27647
0.31026524,40.0
0.31702703,40.0
0.27234438,42.331947
0.1986024,40.0
0.20559187,40.99462
0.20442402,40.0
0.09441953,41.338383
0.14559177,40.0
0.16772743,40.422104
0.06580121,40.0
0.05227421,40.552143
0.058752112,40.750877
-0.0072188075,40.17356
-0.03342388,40.0
-0.0740217,40.92249
0.029429046,43.201923
-0.13248156,45.579876
-0.020627495,46.945175
-0.035157233,46.419106
0.036444485,49.16453
-0.0073900972,50.168526
0.024311705,49.63547
0.08335624,51.518627
0.13604027,53.57763
0.14704758,55.58433
0.1721401,56.177734
0.1994448,63.024883
0.40353706,60.816807
0.47348595,64.21476
0.4196125,66.06899
0.5354172,68.966255
0.6838468,74.24151
0.7227102,73.58103
0.76343304,74.03478
0.7637558,76.86039
0.79853743,79.65103
0.96861064,80.84797
1.0396124,82.49695
1.1139023,90.31101
1.0390049,88.08799
1.1862823,93.68671
1.1214775,92.14522
1.2502503,96.71514
1.211564,95.329796
1.3163816,99.063255
1.3260598,100.27062
1.2990843,100.752365
1.2560818,101.91413
1.3290312,104.74607
1.3270496,106.9359
1.3461715,109.59561
1.4146396,106.59782
1.4216242,108.921104
1.3519207,110.2922
1.4428716,114.71011
1.3794379,113.013466
1.3530468,114.05897
1.3755378,113.11862
1.3199717,112.84545
1.4154077,114.770966
1.392232,111.91736
1.2924519,112.03291
1.2945637,114.33115
1.3416651,111.60531
1.3216183,112.831154
1.2200375,113.9852
1.3358986,110.279884
1.1781247,111.0892
1.1707257,111.32
1.2450634,107.76757
1.05045,108.46225
1.230086,107.48492
1.1381992,108.621346
1.205276,103.41591
1.1564159,105.727776
1.1179725,106.139496
1.0270512,100.91626
1.0812219,101.90794
1.0161729,101.05532
1.0483187,100.39455
1.0126454,98.069435
1.0343828,97.16043
0.9392177,95.44645
0.93671453,93.01209
1.0033213,95.58627
0.954803,90.88124
0.9473987,89.881615
1.0200601,88.31292
0.8865656,88.94535
1.0092129,87.63858
0.9594845,80.895485
1.0132335,84.288246
0.9337443,83.39225
0.943842,80.16911
0.8335142,81.32381
0.9319315,76.37815
0.8993455,76.50452
0.88997364,79.036644
0.78759587,74.04696
0.7884263,73.91513
0.7618832,69.578964
0.80086607,71.49558
0.7524211,70.16255
0.74227566,69.051186
0.7138055,69.63366
0.62545663,68.19134
0.6787629,63.826187
0.6599181,62.23055
0.54989,65.28826
0.5748509,60.74661
0.60315627,62.613205
0.5047188,59.541504
0.5344481,57.13891
0.46963704,55.01765
0.51883066,53.91507
0.5271385,51.5498
0.5109385,55.201614
0.56644654,52.531208
0.58472455,50.003212
0.49259013,48.222794
0.4877881,49.905964
0.5116757,47.808495
0.590289,44.653156
0.46373606,47.155067
0.55608183,45.615368
0.5455487,42.603172
0.4655687,43.86724
0.46746916,40.785084
0.3645782,41.018703
0.50261474,41.252438
0.51107526,41.130856
0.38949203,40.0
0.4119317,40.0
0.47574615,42.00106
0.39590922,42.497295
0.3485424,41.886147
0.37750426,40.0
0.23654021,40.0
0.17571291,43.36647
0.23238747,42.555172
0.08418534,43.095287
0.16065137,44.331142
0.16025947,46.575653
0.21179539,45.269165
0.2787024,45.2964
0.19787212,47.465786
0.27056858,49.530907
0.24788068,49.622143
0.4362586,49.638153
0.2812666,52.417416
0.5231552,53.40122
0.43753153,54.395226
0.48518932,56.32968
0.70066947,61.823486
0.6097125,61.71312
0.58263177,65.49067
0.7624903,66.246315
0.85317653,69.1776
0.81622916,72.59568
0.89805144,72.87606
1.053333,78.35918
1.0153583,76.69933
1.1454173,79.19
1.2904879,80.41835
1.3178577,86.252945
1.4019562,86.6825
1.4455409,88.558334
1.5129626,91.34541
1.4994634,91.40598
1.5567417,96.309204
1.537975,96.11863
1.6552805,99.64061
1.6251965,99.80676
1.6949311,100.405525
1.7848768,104.9072
1.6833049,106.057365
1.6775849,104.24357
1.6423379,107.76961
1.7299973,109.78696
1.7779866,110.061966
1.7299255,110.60071
1.7218457,112.298744
1.8756722,109.96472
1.7927735,113.62463
1.7309324,112.7514
1.8002944,115.683754
1.8236065,116.27315
1.7721381,113.98635
1.7082573,112.81627
1.8011463,112.723335
1.6264647,111.11758
1.6846222,112.05004
1.6934456,113.21043
1.6861275,111.78631
1.6296579,109.93642
1.6770338,113.4198
1.7116678,107.01739
1.6635691,109.07112
1.6350197,109.30589
1.5142916,107.48006
1.5537763,104.69227
1.5524331,102.63438
1.5283269,103.15858
1.5206134,104.931274
1.575203,100.13097
1.4620253,101.242836
1.3567128,97.68912
1.3980461,98.4727
1.4519055,96.15849
1.4570321,94.87959
1.3971919,92.68637
1.4689823,95.65724
1.4276662,91.69643
1.4701941,90.77067
1.4368247,88.201225
1.3204076,89.468285
1.4876512,89.35567
1.3179495,85.96643
1.4693193,83.71569
1.337632,85.026794
1.3531954,79.45565
1.3817422,82.44726
1.2492157,76.05046
1.3399893,81.276566
1.3357106,79.56064
1.2645737,75.04861
1.3054006,75.371544
1.2199854,74.042694
1.1677018,71.48429
1.1301478,72.470375
1.1472237,69.68592
1.1680832,66.94313
1.0644631,69.98369
1.0444801,65.52982
1.0821638,66.077484
0.9841869,63.14016
0.98605466,60.286095
0.9900672,61.898197
0.9836649,60.622528
0.79814816,56.930885
1.0194223,57.209347
0.9288198,55.65015
0.99662566,57.18891
0.88896126,52.1913
0.90775394,51.420082
0.923758,50.39637
0.8652721,52.237373
0.7907108,47.788254
0.85886645,48.43448
0.8126187,46.132355
0.94367,44.865383
0.8999899,42.802002
0.9478306,42.69161
0.88218105,44.756718
0.8082182,40.48477
0.9448368,43.086086
0.844725,42.556427
0.82481587,42.22662
0.7478146,40.0
0.7320271,41.084805
0.7730977,40.0
0.74573845,40.0
0.6856751,40.542965
0.5931833,40.46512
0.6157584,40.0
0.6386012,40.19116
0.59928226,40.0
0.56330115,42.356346
0.5868512,41.18605
0.55654156,45.71644
0.46023932,43.09995
0.4843627,46.956238
0.5465128,44.06312
0.57084805,47.82242
0.63980186,48.619267
0.61908513,52.27498
0.76188684,54.53915
0.70522106,56.286674
0.73609674,59.123985
0.7679137,58.846928
0.8698895,60.85426
0.9634898,63.21836
0.94868135,64.88058
1.0652456,66.48491
1.087353,64.320465
1.0843725,70.88537
1.1317325,73.20407
1.271571,74.098274
1.4033126,76.6629
1.3727726,80.695305
1.5483801,83.24562
1.5639997,82.79774
1.5515015,87.642296
1.6487889,92.07681
1.7409257,91.03443
1.7372649,94.53858
1.8075333,93.75525
1.8361323,97.39607
1.8296452,99.71118
1.7776761,99.26182
1.8555461,102.42989
1.8567692,103.9059
1.9039633,104.693146
1.895382,105.34737
1.8871381,107.17751
1.9389118,109.643456
1.9106938,109.6968
1.9335272,113.70834
1.894065,111.653915
1.8937587,111.70533
1.9670404,112.22855
1.960129,113.07474
1.8737472,115.82392
1.8511162,115.114395
1.8418683,111.98782
1.9312174,114.04912
1.9011371,114.22941
1.851177,114.34839
1.9349667,112.68839
1.784186,112.60327
1.7710453,110.66248
1.7824174,111.124146
1.713579,110.39106
1.6625051,110.47283
1.7176517,108.86767
1.678582,106.11409
1.6511183,106.45768
1.5903511,107.11649
1.6806601,105.87637
1.5985413,101.57584
1.6475017,102.33927
1.6503024,102.49676
1.5477127,100.33646
1.5173241,97.90826
1.4828845,100.51606
1.3945682,97.7864
1.418114,94.5677
1.4338272,94.83652
1.4016162,96.42095
1.4877506,92.96025
1.3395691,89.72037
1.3990823,90.44191
1.4235364,88.69512
1.3654453,84.41846
1.49518,87.652534
1.3171242,83.386154
1.2938449,81.90448
1.2513412,81.503044
1.2537591,80.77122
1.2437605,81.531166
1.102996,77.796196
1.1852286,79.12632
1.1500617,75.14091
1.2246664,74.29212
1.0874456,73.99603
1.0334874,70.01088
1.1379654,71.841446
1.1578426,70.05434
0.94748867,68.286125
0.97646636,66.97964
0.99183893,66.70887
0.9098604,62.36969
0.827844,65.691154
0.9123295,61.01692
0.84883356,59.88823
0.7855838,58.29594
0.7254636,57.973385
0.7934717,58.4487
0.7495723,54.596596
0.6974411,54.517925
0.7172921,55.962814
0.73544765,54.642105
0.6851992,52.28353
0.6838509,48.898327
0.74929917,50.271393
0.74253494,48.940224
0.6632794,46.21131
0.7221647,45.471836
0.7663539,43.255043
0.6468821,44.168118
0.7197641,41.758194
0.70958173,41.513966
0.63233864,40.131786
0.6610613,40.4703
0.61704654,43.32184
0.5521826,40.0
0.54214495,40.0
0.46737516,41.94429
0.4127912,40.459145
0.5213317,40.0
0.4325461,40.598602
0.40211812,40.059643
0.3097228,40.0
0.43601635,40.30443
0.20400438,42.157715
0.3100566,43.35903
0.2046291,42.972034
0.21980044,46.446976
0.23469844,44.92361
0.3180107,45.972313
0.281536,47.99875
0.2650158,49.8643
0.33114463,51.942413
0.42035177,54.118217
0.46539474,56.3511
0.39944077,55.57958
0.3671626,56.76881
0.61220604,61.30199
0.56108046,62.782795
0.6312535,64.37786
0.7663927,67.62761
0.854177,66.80555
0.8281725,67.894646
0.92066395,73.58659
0.95318574,73.83375
1.02562,81.33004
1.1034404,78.1313
1.1745368,80.96909
1.1304694,83.345375
1.2401518,85.42183
1.218154,85.31054
1.2810528,89.68482
1.3468924,90.30944
1.420408,95.02887
1.410633,97.485596
1.4520948,96.245865
1.5242633,98.23317
1.55188,102.01056
1.5169259,103.823204
1.5667081,102.648155
1.6026503,105.73896
1.5611688,107.03359
1.5211897,107.84375
1.591425,109.65201
1.5274606,112.65547
1.58985,111.66435
1.6565993,114.343735
1.5600765,112.46278
1.5586812,111.43115
1.5464724,112.566315
1.5190396,113.50105
1.4643304,112.09732
1.5066586,113.056984
1.4584557,113.55993
1.2919202,113.33446
1.482244,112.74987
1.4100665,112.53016
1.4013385,113.030174
1.4205937,112.14846
1.34988,109.605835
1.3427677,110.49553
1.1760163,108.281715
1.277959,104.9108
1.2272416,103.73039
1.1950489,103.90674
1.2376636,105.41292
1.1715641,107.21105
1.1960338,105.74133
1.1479111,101.801315
1.0860912,101.341484
1.0075246,99.96605
1.0383335,98.9635
1.0608221,97.46056
1.0408304,94.51621
1.0177867,93.87122
1.125571,91.141716
0.9120775,94.126
0.9486073,91.91138
1.0951086,89.51925
0.94715846,88.852745
0.97731996,84.5535
0.8940058,87.522484
0.9665443,84.83988
0.9001641,82.70087
0.9081105,80.348404
0.870731,80.94111
0.81861824,80.626465
0.8288952,79.62075
0.8400774,76.15441
0.7739778,77.632324
0.7542955,71.86691
0.75059,75.82267
0.7202232,70.66738
0.72391975,73.433334
0.6997006,71.12323
0.67337096,66.99415
0.6101833,68.000916
0.48232225,66.32935
0.53425986,63.732857
0.46710837,64.02677
0.37654456,59.33827
0.40047365,63.933483
0.5017969,60.647846
0.4394999,58.600697
0.40317383,59.109318
0.48203155,54.746655
0.33483672,54.41669
0.38930708,52.518402
0.33143368,54.410057
0.309547,48.931355
0.30289072,48.466732
0.3052416,48.855
0.34804988,48.29333
0.30306646,46.13826
0.37843546,46.633675
0.30116665,43.957035
0.36213428,45.528526
0.23974054,41.01592
0.31457368,43.044243
0.21362723,42.699753
0.22815493,40.0
0.18047814,41.399307
0.21836993,40.0
0.2139607,43.581997
0.16685781,40.0
0.11731657,42.36989
0.12290466,40.0
0.034207672,40.379433
0.051732086,42.62569
0.017147647,41.76779
-0.013512341,40.0
-0.05099001,40.878334
-0.0697513,41.926094
-0.038021274,44.730362
-0.057942316,43.58624
-0.009156469,44.796757
0.025384258,47.930763
-0.08141169,45.755013
0.0012079516,48.45602
-0.006601272,50.227993
-0.023750445,52.580307
0.1545625,54.60956
0.12397221,55.5821
0.13138835,57.21007
0.15853094,61.850967
0.2695908,62.587498
0.34497863,67.669754
0.5108183,65.50921
0.48153454,69.915276
0.5711428,69.559875
0.6188025,72.34353
0.682678,76.21316
0.7505059,74.306496
0.7480017,80.032036
0.86140686,79.13007
0.9008451,82.96469
1.0219668,86.574554
1.0673834,89.17036
1.0601016,90.02533
1.1879426,91.876625
1.1580878,94.731766
1.150184,97.241745
1.2543027,99.578186
1.2521893,98.85287
1.2386531,102.82949
1.3146358,104.53798
1.2935647,105.914986
1.3872268,105.72342
1.3745036,107.0354
1.365055,106.83038
1.3300879,108.75646
1.3815022,112.58724
1.4435844,112.59244
1.4900539,112.1793
1.3210325,113.838585
1.4634911,111.923134
1.3661411,113.98727
1.387466,115.74785
1.4318348,113.50894
1.3837873,115.386505
1.3299662,114.83464
1.3461014,112.63646
1.3907466,113.518166
1.3138143,110.981766
1.329807,114.03665
1.2797426,111.865616
1.3157281,111.29931
1.2123263,112.26387
1.1800302,109.2925
1.1834725,108.932945
1.1930556,106.74404
1.2486207,107.46883
1.1298573,104.55452
1.1379125,106.34929
1.069205,104.35419
1.1489701,102.28834
1.0918262,100.1541
1.053993,97.968994
1.0970678,99.15962
1.0374146,96.832016
1.0836414,94.96867
0.97812146,93.80353
1.0840114,93.761696
0.9618883,90.71737
1.009796,92.08617
0.97395813,91.20348
0.9201613,89.50475
1.0711995,85.88302
0.99827176,86.11498
0.9453801,82.83011
0.9545161,83.8168
0.9620131,84.14089
0.9888285,81.74037
0.8478047,80.372185
0.87337226,78.0647
0.9881899,76.87298
0.83767956,76.083176
0.75837326,70.56858
0.7969203,71.97554
0.8139191,74.07196
0.8027363,72.51299
0.71679425,69.810616
0.6498863,69.798706
0.56805766,65.89718
0.66508156,67.25703
0.61712104,62.760853
0.5970944,63.895985
0.6104003,62.45254
0.5436085,60.951607
0.561162,61.164978
0.48879358,57.343475
0.58854973,56.866745
0.41654938,57.472385
0.49120355,52.886185
0.52126503,56.125034
0.60556674,52.278225
0.43759307,51.082012
0.5098177,51.99062
0.48812032,51.338726
0.48026174,47.784084
0.5617434,49.91295
0.40367746,46.92775
0.571966,45.019894
0.6041768,44.82869
0.49124485,40.0
0.57282156,44.453884
0.5406397,43.112885
0.45129684,40.323914
0.49479887,42.820534
0.4726509,43.71265
0.3702014,40.375595
0.51344883,40.0
0.45962572,40.0
0.27936918,42.12306
0.3138101,43.470226
0.2799809,40.0
0.3627083,40.0
0.25015482,41.185402
0.29318658,43.29864
0.3218514,42.57241
0.2086741,41.459904
0.25078735,44.30785
0.2324982,44.075367
0.26151338,44.953716
0.31368697,46.995083
0.31546876,48.529064
0.2677582,50.593094
0.2682593,51.168472
0.42951828,52.636547
0.4866355,53.1843
0.4501341,57.29848
0.41272718,60.436478
0.6013379,60.281178
0.7147423,62.488388
0.74787986,65.90862
0.7922834,68.0332
0.9909652,68.32401
0.89234847,71.869484
1.0047656,75.981606
1.156564,75.338684
1.2649773,80.49258
1.3358346,83.27671
1.4361602,82.42421
1.3504418,87.49143
1.3883986,86.14839
1.4697839,90.613174
1.5250235,88.64273
1.5682981,95.74373
1.6934321,97.88552
1.6793295,97.68789
1.6666301,103.26096
1.6888529,102.52062
1.785154,103.69507
1.7748252,103.19159
1.7662275,101.64517
1.8560292,108.239136
1.7242079,109.73801
1.8260076,107.817406
1.9080081,112.31471
1.8810488,112.7581
1.7586962,111.79599
1.7393771,113.217476
1.8069667,113.05638
1.8079504,112.9831
1.7500776,115.02534
1.8030144,113.18711
1.7841839,111.81829
1.7303283,111.62712
1.8402314,110.66152
1.7282112,112.17961
1.8824873,109.283806
1.6870404,111.4116
1.6526704,112.08057
1.6110471,111.0635
1.6066922,107.949524
1.671999,110.276596
1.5883667,109.82059
1.583426,110.01159
1.4942745,104.49129
1.4943779,106.576546
1.5056611,105.130486
1.4863753,100.58253
1.5116781,102.85438
1.4924463,102.18431
1.4624292,100.3035
1.41652,100.70761
1.442007,96.929375
1.5038687,98.09052
1.5155827,94.5393
1.4626203,93.75098
1.4214995,95.608246
1.3957127,90.01871
1.4702489,90.43199
1.3926553,87.92256
1.3309242,88.352486
1.4275694,87.75874
1.3878455,83.30382
1.3868872,82.39415
1.3834491,82.05194
1.3326428,81.99452
1.356262,81.34695
1.3352618,77.54526
1.2142301,78.158585
1.2466502,75.939545
1.3781809,76.74118
1.2598287,72.28322
1.1484392,73.6168
1.1343994,71.265625
1.1031724,69.35103
1.0708885,66.37868
1.139137,66.41201
1.0661212,65.617905
1.0160785,65.1987
0.98207474,64.636086
0.9014538,63.08807
1.0004212,63.275234
0.95839524,59.056465
0.94191307,57.34222
0.9725673,59.153034
0.91331166,58.120235
0.87806916,54.538525
0.9334796,51.477093
0.87072253,53.552025
0.87573004,52.638527
0.98404086,50.444576
0.9516275,48.692093
1.0369723,49.706936
0.9600988,46.59641
0.8739605,46.11067
0.87971234,47.774693
0.87363034,43.025486
0.8964513,44.15655
0.8604338,43.441914
0.89733887,42.837013
0.89333194,41.91264
0.81603575,41.667027
0.8484573,40.0
0.8164759,41.374916
0.7377778,40.0
0.7815853,40.0
0.65231067,40.0
0.7504056,41.468163
0.6673743,40.0
0.71154463,40.709274
0.6449117,40.0
0.568169,41.771954
0.54456896,42.73029
0.64000595,43.759834
0.5650316,46.60224
0.5259261,44.14811
0.5511092,46.727314
0.51943743,47.58818
0.6622099,49.19961
0.6452051,51.709404
0.63179255,51.875595
0.692814,52.394054
0.7329604,57.528996
0.75735927,55.48456
0.83897895,59.73592
0.8405475,59.887024
0.9128462,61.308308
0.94134897,65.336174
1.0731281,65.54059
1.0994449,71.3158
1.2056233,70.3267
1.2258354,74.53551
1.3090357,76.49339
1.3593303,78.64883
1.4548781,83.11828
1.5070584,84.53516
1.6785227,86.27704
1.6256176,87.45593
1.5793384,90.23469
1.6789861,91.17249
1.6966779,94.258675
1.7719094,96.586945
1.7530646,97.36163
1.7805628,97.88505
1.9223517,101.69205
1.8721963,103.46643
1.8981974,103.90648
1.8813204,105.230576
1.8454038,107.52014
1.8961936,108.35267
1.9618974,109.74593
1.9275434,112.59668
1.885132,109.89828
1.9032342,113.98889
1.8698615,111.57425
1.9325309,110.51873
1.8870269,112.8174
1.8164161,112.1029
1.847063,112.869194
1.9037572,113.79444
1.8562922,110.97384
1.8783283,113.150604
1.8810184,112.45376
1.8113644,112.67314
1.7751709,112.057816
1.8054448,112.98241
1.747035,112.41611
1.654429,112.7837
1.6116159,111.3772
1.6798475,109.38805
1.5966763,108.16725
1.6946526,108.15451
1.6303476,107.3982
1.4768322,102.76116
1.5925742,103.11281
1.4471018,103.73622
1.5964475,102.626396
1.4401762,98.86413
1.4951798,100.68037
1.5196215,97.65639
1.3635111,96.84481
1.3626391,94.79615
1.3954412,93.34722
1.4122247,92.956665
1.4023893,91.49949
1.3943949,89.024605
1.4019502,85.09304
1.3981068,84.93542
1.280729,85.19055
1.2599082,85.969536
1.364053,81.85564
1.2659992,81.211945
1.1715015,81.605385
1.2472264,79.93162
1.1655157,78.120026
1.1854256,76.423744
1.109524,77.63307
1.1760907,75.3633
1.08394,74.887375
1.0957898,73.58508
1.0529974,71.21019
0.92620647,65.61729
1.041087,68.71157
1.03222,66.37449
0.95660406,66.61628
0.7719126,67.11035
0.87296486,63.6507
0.8253296,61.47379
0.760665,59.103985
0.8016981,58.920704
0.82471365,57.99096
0.6906036,55.681637
0.85534424,58.44305
0.73093295,55.345676
0.67505884,52.10288
0.745537,53.231472
0.6569331,52.328053
0.7713174,50.793056
0.6785877,49.856537
0.7600948,51.59815
0.65430886,47.62111
0.7305249,46.765278
0.71187377,43.478012
0.7001456,44.279808
0.7021508,44.383774
0.67834455,45.45094
0.60759693,42.85664
0.659922,42.3697
0.5945563,40.0
0.6058861,42.501858
0.45720285,40.0
0.5492095,40.47976
0.43991634,40.0
0.39416954,40.0
0.40344337,40.0
0.33722207,40.0
0.27646416,41.921726
0.25154695,40.0
0.2696177,42.277786
0.28762743,40.187153
0.39030588,40.0
0.29342705,44.924328
0.3177765,43.22478
0.19635692,48.52022
0.26390505,47.304256
0.21381244,46.428715
0.31194803,49.564598
0.21320963,52.304653
0.3508938,54.092613
0.3444775,53.610294
0.39260218,57.256863
0.5287702,59.666195
0.5113907,60.144234
0.6482029,63.231014
0.62957144,66.49777
0.75578445,67.0419
0.7654661,71.00235
0.84721226,72.46708
0.93439996,75.40997
0.99071515,76.049355
1.0648793,78.98578
1.0506831,81.599846
1.1604176,82.30726
1.1826103,86.42858
1.176205,87.13781
1.2953713,88.526955
1.3888632,92.081535
1.3184139,92.90759
1.4496233,93.36723
1.4253334,98.11725
1.4914973,97.576485
1.478472,100.41183
1.5228275,103.427925
1.45172,106.19927
1.5306164,109.12758
1.4615823,107.18762
1.5689508,108.05658
1.448562,113.44759
1.56648,109.13904
1.5641185,111.34817
1.4860748,112.171814
1.4850073,111.883865
1.5494523,112.043045
1.4473274,111.010864
1.5658836,113.80029
1.527854,113.74704
1.5397209,112.50979
1.4203771,113.83092
1.4374955,113.77643
1.4172286,111.47398
1.3976198,112.25692
1.342993,111.04437
1.3196644,109.65263
1.1620793,107.313446
1.4214998,107.21604
1.2518259,110.77805
1.2317187,111.55561
1.2054452,107.22158
1.2123979,105.28057
1.1565748,104.63757
1.1422694,107.66908
1.0607479,104.20892
1.158528,100.707115
1.0949746,99.95645
1.0895451,102.42086
0.9592594,97.26928
1.0402919,99.20419
0.97496784,95.59451
0.985623,93.59469
0.90410954,95.69925
0.9532034,91.04568
1.0864977,93.42582
1.0449469,90.161865
0.98980504,88.95946
0.964946,85.17042
0.93252337,85.665825
0.908664,86.0708
0.911584,83.66432
0.82898337,82.74749
0.9867418,80.05438
0.8447615,78.1315
0.7915337,77.3777
0.8834135,76.03561
0.81807226,76.25444
0.7312013,77.203514
0.6708872,72.46117
0.7819494,73.070076
0.69020534,71.08369
0.65597034,69.058945
0.6438217,70.29253
0.61947596,67.25814
0.46232593,68.254776
0.5043873,65.627785
0.44514385,62.684128
0.54930043,61.96605
0.44379702,59.326046
0.34801945,62.499348
0.47072616,58.72711
0.33437645,56.723736
0.4489404,54.91173
0.3459212,53.525833
0.3836588,53.98125
0.42639035,50.242027
0.33216155,53.00311
0.3161959,51.82674
0.31116003,47.63247
0.36990047,46.894737
0.3330447,47.272713
0.26215246,42.66407
0.39182013,46.53398
0.38440827,43.463882
0.23344688,44.00335
0.27308875,43.532635
0.34684068,42.396793
0.2294682,40.89057
0.22714742,40.0
0.109479435,40.0
0.3567002,40.0
0.2329697,40.025524
0.19986439,41.07424
0.044214327,40.0
0.18618868,40.0
0.022826258,40.43304
0.04930835,42.602757
0.03476107,40.0
-0.04349632,41.65893
-0.030995652,41.782528
-0.15042794,46.07935
0.05530338,42.845768
-0.156118,43.941364
-0.045653947,48.24432
-0.033607677,47.217953
-0.0973651,47.828175
-0.115165584,48.72228
0.040246487,51.775032
0.056818176,50.973038
0.096826255,54.633175
0.052972913,57.1446
0.23238939,59.370872
0.33172742,59.613075
0.19670849,63.629986
0.43472213,61.786327
0.50494504,67.31612
0.53484964,68.68246
0.6784241,72.25073
0.7595771,72.58632
0.78370017,79.13399
0.85961854,81.14051
0.85147715,79.9089
0.9373743,82.566086
1.1102833,88.41346
0.98909396,88.785866
1.077995,87.34886
1.0737585,92.27843
1.2374452,91.08649
1.2674006,96.611206
1.3087453,97.29962
1.3110011,97.24146
1.2975699,101.10274
1.3794554,100.35746
1.2886888,107.02349
1.2352141,106.54295
1.2517213,104.14224
1.4249307,107.75491
1.2886758,110.3625
1.465015,111.70148
1.3429348,112.11066
1.3604802,112.39349
1.3847705,111.67829
1.4405111,111.848366
1.3985832,116.71174
1.3881836,113.984604
1.3304771,114.06327
1.4777005,113.594284
1.3127255,113.5516
1.3102375,113.163475
1.3508141,112.240616
1.250562,113.6191
1.3912222,115.02592
1.3452734,112.49393
1.3933227,110.43012
1.3431919,107.97511
1.1634616,108.37121
1.2259407,106.66621
1.209904,106.48336
1.1702714,107.01628
1.0960308,105.54975
1.0780232,105.39923
1.1233599,103.395645
1.1073849,102.64273
1.1220845,100.796326
1.1814574,99.07486
1.039722,99.114685
1.0499299,96.10452
1.0567744,94.56039
1.0799574,93.818825
1.0403341,97.28061
0.93036443,92.54123
1.0471987,91.43833
1.055432,90.10802
1.0820507,89.290405
0.99598134,88.53978
0.9759346,85.57578
0.9688249,87.87715
1.0692663,87.04519
0.95323193,80.99848
0.93851686,83.36284
0.92610765,78.50889
0.9518378,75.0745
0.9530258,79.00727
0.8570503,73.58461
0.8935151,75.94611
0.8702825,76.70031
0.80683,69.78565
0.79682595,70.06596
0.8470934,67.89152
0.6914331,71.52878
0.6238939,66.08292
0.7492458,68.11508
0.6906125,65.953285
0.6623269,62.1526
0.6063506,62.082554
0.6442324,60.993866
0.5953007,60.491287
0.55718344,56.903557
0.60952497,58.901722
0.49981233,58.75787
0.59201294,58.70343
0.5476496,53.239967
0.49000382,54.496124
0.5310064,51.81437
0.50514495,49.365818
0.6001634,48.435524
0.45331147,49.294247
0.60270125,49.357788
0.52446896,48.322033
0.5416523,47.7084
0.5991518,45.926853
0.5592436,43.827686
0.49281493,40.0
0.56265426,41.921738
0.5531543,40.0
0.44335523,40.0
0.4469095,40.0
0.5209478,40.0
0.58437735,40.0
0.4702934,40.0
0.3953814,40.145523
0.43665385,41.927925
0.30999747,41.617672
0.3206194,41.606956
0.29575846,43.647423
0.32681775,45.039845
0.30145678,41.45999
0.24130578,40.0
0.21855684,41.89895
0.23063256,42.66463
0.29185566,44.902622
0.28917345,47.243313
0.32910898,48.5912
0.34332135,49.22633
0.4947117,50.276093
0.5204456,52.97726
0.46492523,53.23211
0.48396328,57.729248
0.57315713,60.865917
0.6293353,59.307358
0.72714305,60.35081
0.8868954,65.55991
0.7886595,69.51586
0.9380457,69.15527
0.9240439,71.38155
0.95350623,75.98844
1.1330831,72.65782
1.1974943,80.35804
1.1636987,79.890465
1.2865686,83.6942
1.380109,83.73805
1.4526606,87.760956
1.5926195,89.76748
1.557194,92.24206
1.5759989,92.728905
1.5427217,98.26899
1.6462024,97.98626
1.5540118,101.41544
1.6892087,102.37581
1.7884095,102.51435
1.7624427,103.459274
1.784582,105.761475
1.7881751,106.1186
1.837124,110.07786
1.7951571,111.23398
1.7513998,109.00766
1.8210591,113.27132
1.8046365,113.84149
1.7823992,112.605804
1.8219002,114.505066
1.8696843,112.658646
1.832205,113.23647
1.7806491,111.780136
1.8112608,113.28014
1.8317033,113.74645
1.7605094,114.43115
1.8325646,113.25378
1.6952164,112.53404
1.7408037,109.61638
1.7970127,111.81212
1.7447784,112.379326
1.6871277,109.28285
1.7650745,110.744064
1.747189,108.74836
1.7050108,110.58471
1.5998402,105.26947
1.6068484,106.36856
1.5338786,106.08104
1.55698,103.46996
1.5193406,100.94258
1.4219837,100.21525
1.5842397,100.30612
1.564908,99.743774
1.4956968,98.3945
1.5085195,95.287964
1.4846388,94.56248
1.3970331,93.31392
1.4629033,92.9663
1.5376178,87.767204
1.4245719,91.67894
1.4491712,89.02315
1.4455514,86.65366
1.3828324,82.4512
1.3711221,88.829285
1.4076798,83.41557
1.3725882,82.83288
1.450625,80.256195
1.4496796,78.98309
1.4047232,79.915245
1.3674794,76.86142
1.2973628,77.53708
1.2957374,74.204834
1.3174349,74.05031
1.21892,72.21194
1.2865916,69.61023
1.1770027,70.91087
1.132354,68.481514
1.1538492,66.65127
1.1209816,66.96999
1.091812,65.61844
1.010924,65.161354
1.0340862,63.87298
0.98787236,62.4554
0.93813354,62.867073
0.96966594,58.37922
0.87958086,57.166557
1.0658377,57.868767
0.83039844,55.436222
0.8137804,52.50065
0.91392887,51.81835
0.8849423,51.869755
0.9124425,49.833454
0.9591037,46.090588
0.960315,48.394566
0.9501065,48.76913
0.8306642,46.350945
0.8656385,45.726555
0.90566957,43.740044
0.8283282,45.20629
0.87992746,41.556557
0.8532942,41.980206
0.9071214,43.470768
0.82077473,42.31361
0.8249435,40.0
0.7946393,40.0
0.6847065,40.457233
0.83226496,42.329735
0.6441881,40.0
0.6910399,40.0
0.595916,40.0
0.62740266,40.0
0.5900322,43.406155
0.5854135,43.33227
0.53584486,40.32486
0.46984422,40.319843
0.56364655,44.591618
0.5436837,45.143757
0.5661796,45.88098
0.6432158,46.211548
0.5402424,48.669575
0.58898675,49.93818
0.5941455,52.340706
0.70299304,54.626537
0.73350614,51.246044
0.7584106,55.288998
0.738694,60.657696
0.76497096,60.777992
0.8358751,62.439518
0.96856964,66.282745
1.0744157,65.349556
1.0354334,67.11059
1.1224723,69.67963
1.2552602,71.47577
1.317944,72.83443
1.3514926,79.74069
1.4085715,81.398636
1.4655502,83.97177
1.5942521,85.403625
1.6386249,87.12122
1.6497885,88.217445
1.6560398,90.95925
1.7799276,95.99596
1.765357,92.941666
1.8291771,96.95113
1.8663982,97.75939
1.8576897,98.99251
1.7822936,100.2498
1.8824116,101.76687
1.8883648,102.68667
1.858835,105.56026
1.8681426,106.35062
1.9016521,110.92388
1.8707973,109.4597
1.9727736,111.99639
1.9638568,110.47077
1.9808031,111.72079
1.8864871,113.85744
1.9578121,111.999146
1.8287517,111.86234
1.8778889,114.189186
1.850242,117.42809
1.8594016,115.47787
1.8675265,112.29106
1.8392009,110.96874
1.7967227,114.8246
1.8285508,110.876724
1.8065755,109.1053
1.7770662,112.71725
1.7654511,110.63963
1.6848015,108.313805
1.6634849,107.303024
1.6179618,105.60872
1.6484216,105.77462
1.62314,107.840256
1.5742906,106.19329
1.4921658,104.88238
1.5329679,103.02641
1.5124884,102.637344
1.5104448,101.4388
1.3843769,98.83465
1.5075599,98.75962
1.421673,96.88585
1.3546375,94.42519
1.3493046,96.5624
1.4302026,94.26793
1.3354192,89.09365
1.2865067,91.39487
1.4867339,90.717255
1.3715017,85.93805
1.4031914,86.80444
1.386764,86.56622
1.3598843,85.43675
1.3051772,82.039955
1.2352886,81.11792
1.1514851,80.66754
1.2585366,78.408104
1.1624101,77.13958
1.159318,74.20251
1.175138,74.72605
1.1030775,76.194855
1.1605663,72.94033
1.0636183,71.20803
1.0448093,71.89725
0.924348,69.982185
0.894416,69.69069
0.9260129,68.60994
0.8774124,65.40548
0.8396382,64.46108
0.7323096,63.894318
0.73564756,62.31605
0.84375215,63.092705
0.7410763,60.594116
0.69897705,55.79812
0.73826337,57.022003
0.72405505,54.699577
0.6929631,55.604877
0.66657877,52.005676
0.70215243,50.508396
0.6491383,48.967167
0.6755397,48.66554
0.70747364,46.861282
0.6089246,47.57722
0.61342895,44.64678
0.66007626,46.513313
0.5780188,46.601166
0.6891984,46.04032
0.6337533,42.256905
0.58239996,43.034035
0.52868307,45.356388
0.57876825,40.864788
0.48927802,42.518463
0.5264952,40.0
0.4926035,40.0
0.43679246,40.0
0.3795176,40.077496
0.46935308,40.0
0.3718787,40.0
0.32529333,40.0
0.3008119,40.60778
0.20832579,40.0
0.15201811,41.86595
0.18337846,41.539974
0.25871372,41.977985
0.22363555,42.299606
0.20320319,42.03603
0.18215565,46.228016
0.26992112,48.44058
0.24412426,51.056038
0.33039173,50.413685
0.3209287,53.267956
0.3782281,51.73269
0.3096076,54.88408
0.40450573,57.985752
0.44947827,60.40545
0.5731256,61.258896
0.5868437,64.24484
0.7112597,66.97472
0.64027387,70.526375
0.9039355,72.45668
0.8394725,71.49239
0.8567417,75.30321
0.9787644,79.148895
1.0330845,80.28461
0.99759036,82.84335
1.1917977,83.88971
1.1514474,86.83325
1.2122158,89.492714
1.2873336,92.1111
1.2238662,95.618645
1.3382503,97.758934
1.3683506,97.134735
1.3646226,97.31538
1.4726963,101.12385
1.4391127,101.49572
1.4999003,104.10583
1.4179451,104.540306
1.5385792,109.47018
1.4493185,107.80859
1.5319636,108.14224
1.513159,109.65682
1.4959981,110.36029
1.4710567,110.68222
1.4425324,113.72083
1.4877348,118.794754
1.445179,114.543785
1.4843042,112.75114
1.5591142,114.025764
1.501747,114.06969
1.4249054,115.05237
1.3906327,115.942444
1.4659631,112.32601
1.3580049,112.24362
1.3466991,111.56807
1.4016745,110.8264
1.3911963,113.2133
1.3191503,111.86324
1.2462173,111.095695
1.263888,109.2958
1.2304662,107.66044
1.2144263,105.99337
1.1468443,109.212296
1.2122484,103.29381
1.0365515,103.25539
1.0120028,102.188286
1.094422,99.861916
1.1253175,98.92336
0.9737863,97.09285
1.0682669,98.97598
1.0170388,95.441696
1.0802965,97.97623
0.96936935,95.96656
0.8934611,93.81925
0.9544284,92.23116
1.0369152,89.2598
1.0148667,88.60274
0.92769295,89.25415
0.98652375,85.618324
0.86001635,86.13528
0.9239412,83.46343
0.8631677,83.32691
0.8830851,81.98735
0.77600175,82.08031
0.8471138,78.31812
0.90869945,76.205246
0.7928759,77.84676
0.79740906,75.98101
0.7077156,76.10632
0.64603275,72.3838
0.70355386,72.759
0.6130717,69.94901
0.6447181,67.75434
0.50361896,68.109474
0.55901647,67.5914
0.5953355,67.65031
0.5110608,65.095825
0.4211844,63.219048
0.39888012,60.103893
0.4248618,62.646885
0.41357496,60.135906
0.3800284,58.61708
0.32981455,57.905476
0.4984667,58.54867
0.3460462,54.61254
0.4305621,54.44365
0.37690395,55.520924
0.28751215,51.56679
0.2885171,50.43896
0.35351053,47.75621
0.3239929,47.610332
0.2855472,46.545677
0.44103932,45.484478
0.27230665,43.281055
0.31686777,45.83364
0.39873248,43.30198
0.27790377,42.199043
0.2813549,44.01006
0.25670892,43.693707
0.20357282,40.29892
0.09991314,41.7523
0.123765945,42.021297
0.09063314,42.318752
0.12669192,40.525257
0.111300915,41.891586
0.068428576,40.07384
0.04894982,40.0
-0.065783314,40.0
0.05123737,41.620556
-0.101714164,40.214775
0.009874558,41.94933
0.0089461,42.815796
0.028981404,40.61245
-0.04896588,45.542606
-0.045388725,46.326214
0.008062515,51.30625
0.054252535,48.484596
-0.021494243,48.58844
-0.0061037317,54.608
0.0221885,57.075024
0.19832511,57.225746
0.22096206,55.901966
0.15564911,60.462254
0.23286359,63.82612
0.3516584,64.48962
0.42892694,64.03269
0.4620675,69.63025
0.5468435,67.95447
0.6062585,73.06059
0.73980576,75.873116
0.7390171,75.02164
0.79059136,81.019035
0.881926,82.619644
0.90081763,82.19405
1.0823919,86.2794
1.101246,87.44232
1.1265985,89.33051
1.1125696,90.82731
1.1347396,95.281204
1.2608589,97.39957
1.3063195,100.1851
1.2450503,97.11241
1.2585864,100.6447
1.4022356,103.81518
1.3848909,106.695755
1.4257548,104.99373
1.41969,106.24016
1.4448899,108.95209
1.4214725,106.373184
1.4512236,111.934875
1.4034652,112.671555
1.4626913,111.7334
1.3976386,110.04893
1.5118005,114.38448
1.40855,113.59124
1.3898264,113.54731
1.3313777,116.37135
1.3284428,110.99757
1.4806443,111.210526
1.3125436,113.2911
1.3020893,110.964615
1.3428819,115.63005
1.3902746,110.30144
1.3431661,112.40999
1.3230116,109.32536
1.2195929,111.28789
1.2793779,108.94594
1.1818475,109.41532
1.2869167,109.28422
1.1675702,106.16804
1.2004043,105.07635
1.2580246,102.426346
1.1283329,104.128265
1.0415537,100.08245
1.0695761,100.304596
1.1252894,99.15026
1.0547929,98.97548
1.1072153,94.34059
0.9561945,96.6379
1.0766902,94.14795
1.0897411,96.03723
1.0340993,93.85498
1.0703568,91.18179
1.0011215,86.987976
1.0613309,85.66982
1.0601782,86.86704
1.0907247,84.45223
1.0881641,84.71133
1.0154284,82.60175
1.0009534,82.85731
1.0040575,81.92915
0.883686,77.09076
0.8761895,80.424286
0.89258873,76.92328
0.9706067,76.55668
0.8716271,74.86319
0.904508,74.1074
0.8796614,72.49449
0.7904327,70.94067
0.77551275,68.36254
0.6919752,66.17833
0.7430309,64.817215
0.8314159,64.994606
0.6167046,64.4909
0.65539354,60.260403
0.6824796,61.94959
0.6520851,60.370842
0.6342929,59.65335
0.5947983,58.670967
0.5337787,56.58612
0.61710733,56.809612
0.65249836,56.02905
0.615219,54.771576
0.540448,52.273613
0.67359823,52.681553
0.58773893,47.267532
0.55475926,49.16004
0.66730535,47.413853
0.5372702,46.232132
0.632657,42.65794
0.5696696,43.931747
0.63330936,46.338917
0.5787274,43.87401
0.5826887,41.134094
0.55318254,45.9047
0.46925125,40.0
0.55966204,41.88299
0.5342952,40.0
0.52417785,40.035374
0.50239056,41.477043
0.41884914,40.0
0.47330508,40.0
0.5085737,40.0
0.36350432,41.464714
0.38839507,40.0
0.3762457,41.3191
0.30678052,40.0
0.3668181,40.70405
0.33983788,42.789803
0.3480926,44.52817
0.32957637,44.504353
0.29973668,46.832237
0.33971623,45.90813
0.32371438,48.157307
0.42860198,48.327347
0.45936576,51.308743
0.44808134,52.43921
0.49761283,52.968884
0.62094724,60.464787
0.55455095,58.596195
0.6673342,61.680843
0.7179696,66.35952
0.89635366,64.454506
0.79867345,69.3891
1.0153712,70.81816
1.0284569,72.67041
1.0451688,73.17459
1.1522713,76.68349
1.2604829,76.21393
1.2839123,82.77824
1.430919,83.367775
1.442849,86.80951
1.4459581,89.52063
1.5750468,88.244644
1.5692958,91.61669
1.6158063,93.017876
1.6680682,96.524826
1.7977353,97.32854
1.5851927,99.322655
1.7715325,102.99508
1.7933182,102.65291
1.7637594,103.85045
1.8871764,106.98146
1.9183961,107.45292
1.864626,109.39819
1.8125348,106.04611
1.883575,108.536674
1.7889683,109.223656
1.8621591,112.8933
1.847486,114.52
1.8785473,112.26047
1.9119256,114.008125
1.8526136,110.89996
1.8561318,110.173996
1.8446199,110.51197
1.8834016,112.854126
1.6875246,112.667816
1.7306948,111.982414
1.7524139,114.596054
1.8051699,112.838326
1.6675549,112.20199
1.7096521,109.820015
1.6924601,111.80972
1.707876,107.868546
1.6794901,109.277435
1.604127,106.81768
1.6149763,107.06288
1.6468115,102.16088
1.6173067,104.64371
1.4737535,101.16289
1.4644115,102.92756
1.6063616,100.76533
1.4223948,99.95444
1.4438319,98.11493
1.5171031,96.34191
1.4711185,95.86142
1.4909916,93.4712
1.561461,94.26875
1.5775431,93.38131
1.4186956,93.880684
1.5197874,93.40071
1.4340874,87.57952
1.4641836,88.66699
1.4044762,86.93365
1.4130629,82.733
1.4660307,84.183395
1.3754573,80.79775
1.4383641,83.78131
1.4107777,79.790825
1.3834448,77.89188
1.3094075,78.3867
1.3547668,76.752846
1.3174434,74.81661
1.3198318,74.03544
1.2236048,71.09208
1.1779715,70.78527
1.1647773,70.02367
1.1087203,68.42921
1.0933956,66.319595
1.1621264,64.688774
1.0183307,66.81242
1.0589468,63.70038
1.0648011,62.680164
0.9572062,58.79348
1.0094193,59.556805
0.8736973,56.964973
1.0154461,56.04053
0.9243437,56.373608
0.94862896,56.18683
0.9787765,53.211746
0.82912296,53.38211
1.0254685,49.821682
0.9695541,50.66241
1.0250142,48.51014
0.9528425,47.75845
1.0117869,49.537483
1.007568,44.076214
0.867426,45.13324
0.889621,43.993515
0.79621434,43.41678
0.91135985,40.96425
0.87089765,40.0905
0.7687235,41.655697
0.9168411,40.0
0.8147933,41.82123
0.762886,40.0
0.8191363,40.0
0.749715,40.240158
0.6855899,43.02977
0.7159,40.853848
0.6694711,40.60057
0.6404614,40.0
0.6707191,40.348457
0.6069836,42.107708
0.57075655,43.850407
0.5693285,43.891068
0.5044816,42.641594
0.6003798,47.405178
0.59006286,45.440205
0.49603143,49.02648
0.5815112,46.89142
0.587884,52.164642
0.57599765,48.31751
0.61702335,52.18933
0.6770131,52.207035
0.69214356,56.663116
0.81468105,61.302345
0.92593914,60.469208
0.9666072,64.79988
0.94878733,64.108505
0.9952773,67.41433
1.0360476,69.47286
1.1512244,72.5284
1.2112662,76.252464
1.3920882,73.26497
1.3851775,76.096146
1.4927803,79.838936
1.4475902,82.71805
1.5977381,84.26853
1.6483191,86.994774
1.5990424,89.647
1.7315924,90.76925
1.8263313,93.41953
1.7359197,93.37595
1.7745038,98.33608
1.7738358,97.46168
1.8447256,102.08096
1.9089543,100.29781
1.890319,105.88353
1.8960432,105.09831
1.8447204,107.00094
1.8877883,108.19022
1.901019,107.14823
1.835585,111.37526
1.9006894,111.4497
1.9151341,114.19499
1.8290508,116.81262
1.9162318,112.02735
1.8472546,114.619896
1.8292228,112.29417
1.8494017,113.691734
1.8361104,112.21147
1.801968,111.27801
1.770029,112.85661
1.8773777,112.5075
1.7295976,112.693245
1.7263653,111.36049
1.7644767,111.273186
1.6806477,111.93816
1.7692397,107.65036
1.7358223,109.550026
1.6300867,110.68653
1.5563024,106.76975
1.5729337,108.36384
1.619619,106.87474
1.4785702,102.02502
1.5324638,102.701256
1.4376401,102.88852
1.4077568,101.55978
1.4759991,98.790825
1.4197582,96.203354
1.4546635,98.19617
1.4067107,96.65966
1.3757639,92.9473
1.332524,90.696976
1.3759078,95.48362
1.3651526,90.675545
1.3323251,88.54478
1.3613589,86.70546
1.2623911,87.11223
1.3165698,85.37008
1.3449774,86.160446
1.1786958,82.80773
1.2437963,82.56456
1.2023576,80.655846
1.2617862,79.8237
1.1150054,77.25671
1.1452522,76.75162
1.1102967,75.24684
1.1503677,74.544586
1.1624427,71.93097
0.9597433,72.53229
1.0019292,73.25008
0.95513713,67.2356
0.9207638,71.51145
0.8174012,68.603325
0.90817475,67.13536
0.84952,66.296104
0.8513298,61.381405
0.7929788,61.819473
0.73180205,61.471027
0.70185065,59.308693
0.73331875,58.35521
0.79216486,55.235985
0.70671904,56.211624
0.72636074,53.684128
0.7242569,50.46473
0.7080681,53.99943
0.6131851,52.04976
0.6544402,50.4481
0.6439086,52.54762
0.78766716,46.8683
0.6695657,50.334225
0.6095372,46.230793
0.6840789,45.940163
0.5400481,45.670105
0.5285121,42.481827
0.56967634,40.0
0.48609477,41.08855
0.56613386,40.0
0.38495716,41.8061
0.50288874,40.49305
0.48283917,41.084602
0.4128448,40.0
0.4016262,40.255497
0.40539518,40.177544
0.29939032,40.0
0.19544107,41.14425
0.2776218,40.0
0.23793717,40.595608
0.09921454,42.735817
0.17245953,42.7034
0.25258008,42.750114
0.16602187,43.469177
0.30184177,41.931046
0.15668738,45.612843
0.14212643,49.568962
0.18123841,49.1144
0.2270604,49.63094
0.27490312,52.255337
0.21342461,54.81123
0.2713479,53.86983
0.37476596,57.59842
0.34416407,60.03525
0.47684515,60.013046
0.5179168,64.86837
0.66257215,66.85257
0.70885706,67.28108
0.7557577,68.9719
0.87909335,70.000565
0.8863656,75.69738
0.91238534,77.28687
1.0101362,81.22637
1.1017814,78.17812
1.0483726,81.004364
1.1013591,85.59745
1.2056804,88.62055
1.2848035,87.826805
1.2948717,92.04015
1.2016966,92.77527
1.3520468,96.11386
1.3001899,98.22947
1.3190647,99.19995
1.4096719,100.61287
1.3745956,101.78341
1.3888915,104.99019
1.3778803,104.075676
1.4921893,108.35318
1.4620407,111.18772
1.4854943,108.28371
1.4278176,111.29256
1.4877274,110.457794
1.3474822,113.26619
1.4479178,109.86519
1.4531661,112.30554
1.5897453,112.97232
1.3232138,112.26203
1.4578168,111.48285
1.4226011,112.21191
1.2703502,113.834114
1.4559749,113.231415
1.3407769,112.38766
1.299604,112.80667
1.3183645,109.83667
1.3535119,109.926254
1.1480184,110.53113
1.182366,109.876434
1.15193,111.55201
1.1989348,112.08337
1.1687108,107.53254
1.2679255,104.2274
1.1526495,103.730865
1.167894,105.97704
1.072444,101.89864
0.98247725,101.47282
1.126139,101.89073
1.1644721,101.43132
1.053309,97.19013
1.0727866,94.7595
0.9395612,95.50815
0.92328674,95.06912
1.0150084,93.40698
0.96242046,94.70642
0.85206664,92.618164
0.9673181,89.48488
0.97074825,87.902176
0.87789595,87.57685
0.9251617,82.1841
0.8369891,85.61173
0.85806,84.17966
0.79793125,83.04365
0.9110499,80.790886
0.9116567,81.46877
0.92299783,77.54125
0.70105034,76.63503
0.63718325,75.60578
0.75394565,75.77204
0.65960526,74.27303
0.637227,72.62244
0.62028486,74.43209
0.6553211,71.86977
0.4897044,67.54041
0.52172405,66.17361
0.47202513,68.06842
0.52689826,65.32984
0.49155572,63.38918
0.41612625,63.808548
0.39987925,61.985115
0.38963997,60.046917
0.2815946,58.732487
0.39965826,57.789204
0.47135141,57.923416
0.40329102,54.37299
0.35943544,56.075855
0.3978462,53.811287
0.36128578,51.162663
0.32957986,49.579292
0.3647463,48.91846
0.31370613,47.643436
0.29772848,47.221336
0.3063918,45.505024
0.35038692,46.16887
0.34272122,42.88355
0.36827642,44.514256
0.2874187,44.864044
0.2833866,40.055267
0.34902576,44.222687
0.1609788,42.118294
0.22006527,41.743706
0.23462445,42.70675
0.20849529,40.0
0.092236534,40.0
0.08571531,40.866932
0.09349195,40.513203
0.08240487,40.0
0.09580816,40.0
0.053314224,40.216206
-0.08730785,40.702446
0.00167042,41.09313
0.06839934,42.98855
0.05550453,43.04782
-0.11699285,46.575825
-0.027108157,44.045002
0.025065292,46.3968
0.009624315,47.283817
-0.073124975,50.386055
0.08124602,51.273197
0.15048282,52.13886
0.16621484,57.40615
0.18974864,56.19198
0.20204905,63.14368
0.21860361,60.644646
0.40738416,63.146954
0.35127586,63.2275
0.60698354,67.94111
0.5208337,67.6465
0.6951992,71.97487
0.74521893,75.07177
0.71924573,78.66618
0.90637714,77.08852
0.9559662,80.48708
1.0071474,81.26571
0.98735183,85.66622
1.1038462,85.70368
1.0874759,89.49567
1.1475155,90.0326
1.1648698,93.855064
1.2352967,94.985916
1.2552352,99.763275
1.4033372,98.14494
1.3772167,100.81336
1.3460095,105.200775
1.4064299,103.175995
1.5219083,105.675354
1.4007481,109.0539
1.3554292,109.39698
1.4822547,109.45194
1.433672,111.10026
1.5589333,110.84665
1.53781,110.749825
1.45705,111.26451
1.4084064,112.51331
1.4348074,113.55685
1.4675721,111.56237
1.4510628,115.02071
1.5336825,113.40048
1.5078479,115.39101
1.4047341,113.5275
1.4172734,115.97951
1.3722639,114.52062
1.3221518,110.82003
1.3192587,112.93281
1.4171354,108.56547
1.3154145,111.79534
1.3680849,107.9409
1.2915827,107.53674
1.276759,108.11634
1.3255633,110.20999
1.2510214,107.65248
1.2023784,105.22075
1.1536169,103.21359
1.1689137,103.46378
1.2029932,99.2932
1.0951102,102.34129
1.1225334,98.64639
1.0636219,98.05824
1.1133301,94.832596
1.1190454,94.687744
1.125069,95.820015
1.0803963,94.136986
1.0421213,89.07416
1.0600859,91.3409
0.97934574,90.07668
1.1896545,86.4165
1.1110215,85.691185
1.1371276,84.48175
1.1599832,83.654854
1.0230974,85.031456
1.1185864,80.95089
1.0519335,80.814095
1.0136706,79.55465
1.0014206,76.58756
0.9456023,77.13198
0.92092943,78.169365
0.8868541,74.63058
0.8335294,77.264206
0.86493725,70.47178
0.87822926,73.11108
0.7527108,69.00926
0.84177256,70.47383
0.7761033,66.67213
0.72132355,63.8546
0.71473247,64.29199
0.66879284,61.130264
0.6970273,61.1468
0.67167157,61.413765
0.74695706,59.44043
0.6467655,55.844105
0.72828597,54.88317
0.72083837,54.51068
0.67097735,53.557865
0.5845303,53.072647
0.62613314,50.733448
0.5243114,53.148552
0.61747247,54.973984
0.57461256,47.017612
0.651032,46.28477
0.67527497,46.380924
0.58634233,45.98725
0.625526,42.71056
0.7380745,43.900764
0.59644943,40.761913
0.6100891,42.261196
0.6778414,41.703102
0.5322789,40.484592
0.4803826,41.735558
0.58623046,40.0
0.4564716,40.0
0.5256231,40.554092
0.4414931,40.0
0.50359976,40.0
0.44530863,40.0
0.33466348,40.0
0.38574636,40.0
0.41585892,43.057083
0.3724272,40.84199
0.35109377,41.62612
0.3497035,41.60811
0.32867193,43.855827
0.35648152,46.28915
0.38727903,45.850918
0.42116073,50.64994
0.39968097,49.363167
0.4725836,50.370003
0.42208555,53.63292
0.48015565,53.905224
0.6199099,59.16041
0.61528957,58.90595
0.7679914,60.132004
0.74898016,59.539627
0.9172363,64.29321
0.8962861,67.07875
0.9143169,70.03902
1.0197748,70.69249
1.1524395,76.10764
1.2142704,75.846886
1.2009202,78.22973
1.321732,82.02091
1.4483744,85.82381
1.4238232,83.27189
1.5000144,87.47567
1.5288411,87.93358
1.6293819,91.00499
1.5430564,93.976036
1.7187492,91.865265
1.6803404,96.2476
1.7934414,97.207794
1.8544518,99.727104
1.7923409,102.17128
1.8769543,103.4282
1.8166524,105.57896
1.8356047,107.12653
1.8949704,106.36249
1.9134942,108.14525
1.8836557,108.63087
1.8720824,110.159256
1.8995795,115.6283
1.9015878,113.72576
1.824084,115.95745
1.8835698,111.15148
1.9014382,112.7749
1.9366183,114.50248
1.8664075,113.644035
1.8210769,112.65443
1.7954785,113.8929
1.841725,113.113396
1.7935866,112.5712
1.93853,109.87163
1.7336048,111.358635
1.805222,113.08337
1.8079531,111.97697
1.6119455,109.499115
1.6764635,109.39331
1.6644613,105.369934
1.6819642,105.48885
1.5734956,106.832054
1.6839811,106.12667
1.5945085,105.222404
1.6343029,105.77861
1.5971361,101.22684
1.4739553,102.20726
1.5535011,99.38225
1.4531376,98.53196
1.4985313,95.28709
1.5739934,93.781364
1.4185722,92.62535
1.5720775,92.486626
1.433077,94.675224
1.4829028,91.67957
1.4917034,88.207214
1.4916399,89.05899
1.4741933,83.43633
1.4680505,84.32574
1.4303712,85.2854
1.4649559,82.740265
1.3916876,79.02383
1.3661962,79.69087
1.3744712,78.16881
1.3675191,76.00791
1.34599,74.80929
1.3385446,75.27421
1.2966101,74.901955
1.3247646,75.52263
1.220124,72.37834
1.3048851,70.33156
1.121685,68.85042
1.0885501,70.690834
1.093068,64.9559
1.0426934,65.568855
1.0051936,65.381836
1.0314236,61.96899
1.0041004,61.34351
0.98553723,57.664017
0.9749724,60.095997
1.0165752,55.766064
0.9837084,55.5693
0.95797503,56.474056
0.94986933,53.20952
0.9320204,52.470123
0.9046651,53.815582
0.90173817,49.611904
0.92355883,48.50338
0.99828404,47.38595
0.9168329,47.42788
0.85920656,46.483356
0.9067563,45.09877
0.95280844,44.43833
0.91099864,43.696857
0.90514314,44.506332
0.9887291,41.77306
0.9281295,40.0
0.89614666,40.93473
0.88496155,41.99433
0.80765843,42.717884
0.8750293,40.35914
0.7541592,40.0
0.7214102,40.0
0.6939125,40.697617
0.626491,41.789345
0.6198185,40.45912
0.6082556,40.926907
0.61324,40.236378
0.6046885,41.173275
0.5367876,40.0
0.49893293,43.339813
0.4978764,43.87816
0.512216,45.113426
0.49057478,46.0748
0.6259729,49.59145
0.59611726,46.957745
0.53995293,49.504143
0.6257451,53.365387
0.6948567,55.57342
0.711804,54.64968
0.7737739,57.602783
0.7714948,60.848076
0.8134846,63.397434
0.93917733,67.72017
0.94078165,70.04237
1.0619453,72.45905
1.1472485,70.65559
1.268883,74.659706
1.2978675,76.09057
1.3432208,74.5039
1.3507253,77.13507
1.411231,83.51112
1.498847,84.421135
1.6021055,86.970726
1.655665,89.08091
1.6220206,92.74508
1.654707,93.217735
1.7229952,93.19451
1.7076231,95.982666
1.7753195,99.63077
1.874633,102.83009
1.7848369,98.78206
1.8340617,103.752846
1.8931586,102.95173
1.830199,104.16165
1.9836063,107.64964
1.8957095,110.203514
1.8897128,110.39664
1.868349,110.19708
1.8818096,110.34264
1.8849342,112.80137
1.8830538,113.60441
1.8552513,114.01048
1.863592,114.98806
1.9115958,109.14658
1.7786064,116.34667
1.8487079,115.039696
1.8137174,115.46764
1.8178965,114.84114
1.6649551,112.14733
1.8045887,112.35434
1.7201954,110.0524
1.6993362,111.15044
1.680513,109.282104
1.5742813,109.26334
1.5640053,107.43238
1.6689643,107.20838
1.521932,106.904915
1.4812839,104.20508
1.4038041,106.59369
1.5091984,101.970566
1.4535054,103.97033
1.4487219,100.43492
1.3917502,98.51129
1.3967482,98.05165
1.3249874,99.62019
1.4178603,99.11248
1.3784999,94.38495
1.416976,92.784164
1.2769549,96.31933
1.3580818,90.709145
1.3087914,90.51944
1.3328626,91.56939
1.3040934,90.68662
1.3225574,85.63732
1.2132232,84.47204
1.2752331,84.542046
1.2943978,83.66173
1.2277855,80.51257
1.1976832,81.22796
1.1583178,78.85588
1.1124725,77.522934
1.093743,73.876396
1.161631,77.47815
1.0841693,71.276634
0.9631778,74.48044
0.9228674,69.527176
0.94968104,68.17777
0.9633306,69.73824
0.8678315,70.81975
0.7205862,67.69235
0.8719814,67.824196
0.87847584,63.95673
0.72093207,63.430885
0.8827544,60.72229
0.6728881,61.039757
0.6971257,60.48654
0.6888636,57.87435
0.7153097,56.090652
0.6976682,54.14205
0.6328959,55.154186
0.7133742,51.355556
0.58489865,52.409924
0.5237355,53.030518
0.5613676,51.086086
0.60697865,47.01671
0.6425032,49.71391
0.609672,45.56013
0.5520921,45.31539
0.5914083,46.91758
0.5648278,42.901634
0.59889406,44.772465
0.57936436,41.55867
0.5282284,41.54544
0.44934428,43.633823
0.4946802,40.0
0.40298727,40.0
0.3738893,40.0
0.40897456,40.0
0.39936128,42.040062
0.2981885,40.37804
0.3029032,41.846966
0.19593035,40.594967
0.25319338,40.0
0.18604518,40.0
0.17965207,40.906933
0.1941658,43.67477
0.1118655,42.46511
0.09852057,43.14257
0.18257767,43.474136
0.1528381,45.973106
0.08279078,47.261723
0.17615291,48.236843
0.23613049,51.409737
0.13484688,52.102844
0.28398556,54.1134
0.37585264,56.31051
0.43481177,56.700993
0.4915683,59.833447
0.47072914,61.487476
0.46918696,65.25685
0.66702044,65.39271
0.6739491,69.22579
0.7715353,69.27407
0.79798067,72.22594
0.8245015,77.4564
0.9369194,78.80376
0.8371217,76.44051
1.0141387,82.93655
1.0046952,82.74357
1.151767,87.54027
1.1435264,86.70642
1.2582927,90.1813
1.2215338,93.394455
1.2861593,94.9808
1.292254,98.98473
1.380942,99.3176
1.4071633,100.9551
1.4076855,103.67721
1.4154578,104.04356
1.4707469,104.88286
1.4035238,108.394936
1.3879808,110.802315
1.4703771,108.439545
1.4653919,109.90569
1.441804,108.90986
1.4020388,110.69461
1.3801483,111.833786
1.4341377,115.45657
1.4601464,113.619675
1.407922,115.02469
1.4352837,114.701675
1.4619616,114.32446
1.3949181,114.93503
1.2459764,113.45408
1.2894603,114.23635
1.3413601,115.24443
1.1825529,113.81614
1.2202204,110.70596
1.3715442,110.56284
1.1791152,109.88246
1.22459,108.13922
1.1728888,109.06825
1.1553878,106.46971
1.0623813,106.773186
1.1814985,106.80685
1.096213,104.227684
1.1409755,104.47031
1.0314993,101.48963
1.0230584,103.636
0.9471493,97.026436
1.0198777,98.08756
1.0437533,97.92423
1.0096792,95.9025
0.9960728,96.86292
0.90995604,94.091896
1.0196354,91.04067
0.9297034,92.03581
0.93342406,90.9111
1.0109012,89.17976
0.8639119,87.34533
0.940459,87.39108
0.82323074,85.02946
0.8777126,86.268745
0.836622,82.85459
0.8673154,81.76348
0.8702873,81.48759
0.7036505,78.54707
0.72294444,76.67898
0.76571834,77.231544
0.73786765,75.657646
0.6736601,75.33814
0.62015957,71.57652
0.67579925,71.6388
0.6775615,70.75765
0.6002555,70.81391
0.52363265,66.95809
0.58624697,66.370346
0.5031012,64.11458
0.58299357,62.24453
0.41252288,63.340435
0.39469838,60.54546
0.49358034,59.922928
0.30782843,59.98253
0.34089878,59.7019
0.2789532,56.38309
0.43486264,55.113903
0.42470995,53.56234
0.33173284,55.406384
0.28451404,51.81696
0.3403914,49.517372
0.26329947,50.386063
0.36041546,53.527363
0.40545693,46.573223
0.2684937,43.363625
0.33607325,45.514965
0.34977436,43.48573
0.33785498,43.655136
0.21439314,41.84117
0.34165773,42.91136
0.31331277,41.10549
0.21756665,40.0
0.19088301,40.0
0.31061408,40.414726
0.24972509,40.0
0.15209442,42.932396
0.07919794,40.83487
0.065559365,40.0
0.08906586,40.4579
0.09087043,42.46275
0.050017126,42.86571
-0.014012426,40.0
-0.024476448,40.46082
-0.031957045,44.36143
-0.09333637,43.189423
0.03304971,44.223175
-0.021436723,45.27391
-0.007955798,48.700794
-0.015142404,46.549595
-0.009003936,49.13092
0.050649945,51.178913
0.11581713,52.387596
0.14914724,55.415924
0.16227245,55.71707
0.1706688,57.55965
0.2521572,59.796467
0.2704154,62.8854
0.45484814,62.520252
0.42870352,65.82657
0.5229333,68.98725
0.6648092,71.96361
0.72061753,73.81453
0.6457059,78.21185
0.87682784,77.4888
0.84123415,80.33757
1.0292907,77.856
1.0636538,84.474754
1.017987,87.93102
1.0837612,90.49453
1.141584,90.28932
1.2692883,92.73868
1.2405857,93.99004
1.3076216,97.2413
1.2359856,98.99638
1.2911167,99.526146
1.3610252,101.20951
1.4028555,105.47692
1.4197551,103.77608
1.3842865,104.29215
1.468915,107.168076
1.4831264,108.65974
1.5387372,106.44248
1.3722312,109.40628
1.5106239,109.456116
1.4677969,111.604614
1.4369648,115.47549
1.5404086,116.13106
1.4522374,112.07447
1.4369178,115.04355
1.4633533,114.615395
1.4646192,110.39479
1.4858104,114.198395
1.4201179,110.98839
1.3627119,111.46679
1.4422325,114.79443
1.3925859,113.78663
1.4131676,111.85978
1.353736,111.73611
1.40605,107.82117
1.2777122,111.70643
1.3450845,108.163826
1.3586491,107.78715
1.2425313,107.092354
1.3315024,104.66121
1.2266103,100.65164
1.1797388,104.76249
1.1321325,103.4047
1.1661495,100.56423
1.1699283,100.39512
1.1479481,97.576805
1.2059925,98.63187
1.1232482,94.06485
1.1378093,93.592445
1.1070335,90.85832
1.0919849,92.06803
1.1226321,91.9667
1.079857,88.82393
1.1227763,86.92092
1.1120586,84.77571
1.0769646,85.81795
1.0705068,83.60091
1.1892002,85.85747
1.1299098,81.20693
1.0329807,81.082756
1.1124092,78.72321
1.0779905,79.90364
1.0704094,79.80421
0.98280865,74.42105
0.90619797,76.77313
0.90520334,75.391624
0.9138798,68.63176
0.8960695,70.83679
0.80522335,69.40416
0.81383264,67.983864
0.8839431,68.938446
0.80810016,62.784134
0.76365685,62.797092
0.74044764,60.552998
0.7858185,61.337994
0.7081653,63.33668
0.6913026,62.87574
0.7223127,57.724247
0.6211138,56.951595
0.61523205,52.797222
0.5494007,53.28323
0.68075264,53.43124
0.6706819,53.070774
0.6757437,49.69558
0.6785354,50.40289
0.6235792,48.297024
0.65533835,44.5735
0.6188205,48.6379
0.62229085,45.45478
0.6908262,45.58681
0.6372219,44.68363
0.66070217,41.711666
0.6906994,42.7116
0.63160837,42.79432
0.6123767,40.0
0.5801749,40.0
0.6417875,40.954178
0.5901429,40.0
0.55700636,40.096107
0.52492344,40.0
0.48594722,40.507786
0.47240388,40.0
0.3308289,40.0
0.28941068,40.374565
0.4065087,42.282413
0.30864722,40.644176
0.4491245,42.132156
0.38348848,41.681156
0.32432818,41.944546
0.41434616,46.42092
0.36219397,45.321568
0.4243073,45.407375
0.51542354,49.23045
0.49612194,52.038116
0.47590068,51.475243
0.5678,52.75316
0.55861664,55.430244
0.67607236,57.902924
0.6204063,59.637356
0.6862094,62.014397
0.8615273,62.18762
0.8573716,65.12293
0.9580939,68.241
1.0035189,71.47984
1.0417688,71.309746
1.3021196,72.45489
1.2562099,77.11526
1.276187,79.166435
1.3537297,84.58087
1.3890204,85.35395
1.5359918,84.92364
1.5117426,87.596
1.6304361,92.69609
1.6419797,92.7689
1.674367,95.87258
1.8013641,95.93792
1.7251701,99.82732
1.7466129,101.43889
1.750669,102.54632
1.8490815,102.43503
1.7439011,104.40221
1.8889704,106.93095
1.8283112,105.317535
1.8871877,109.500206
1.8026016,109.59916
1.9367101,107.10235
1.9526144,112.77643
1.9001882,112.88754
1.8839451,110.31029
1.9332893,114.43518
1.8197166,114.47955
1.9222264,113.556046
1.8639971,113.13938
1.8500556,115.1157
1.8588849,109.37471
1.7891163,114.91187
1.8239655,111.083755
1.8358369,114.662384
1.7674346,112.26993
1.7779124,111.87425
1.7746161,111.38489
1.7559272,108.21642
1.8089074,111.02203
1.7100207,109.49974
1.6018221,106.63464
1.596995,105.773834
1.6247498,105.591064
1.63052,103.31859
1.6235402,102.70847
1.5916216,103.58584
1.5158345,100.8064
1.5375267,100.08253
1.5986203,98.65818
1.5958443,94.422935
1.4516774,96.62357
1.4615165,95.07366
1.5422413,93.606705
1.521565,92.55649
1.4516485,93.42726
1.4466007,90.12857
1.4240376,89.1523
1.3631785,86.55075
1.3484749,85.96952
1.4901383,85.501015
1.4612726,82.41445
1.5316161,83.6743
1.3288238,79.16851
1.4973872,77.55101
1.3620989,77.84416
1.3300792,77.409035
1.2816243,76.34905
1.2936144,72.866325
1.2930691,72.14809
1.3057774,70.68179
1.2390704,71.95272
1.2391833,68.80053
1.1301891,68.46181
1.1338935,65.97523
1.0234876,64.137375
1.162459,63.819176
1.0191774,64.610695
1.0777066,63.21416
0.9624509,61.353188
1.0069387,60.91515
1.0680329,58.75736
0.99318296,55.64665
0.9157821,54.028538
0.85288155,55.01441
1.0183798,54.515594
1.019243,53.383408
0.906057,50.543343
0.8897176,51.258907
0.9556858,47.38986
0.9091748,47.86461
0.92034036,44.653343
0.9040395,46.331013
0.97467345,42.33369
0.89838016,42.89602
0.9564122,42.337498
0.960469,42.34151
0.89679414,40.881023
0.7674331,43.583797
0.77329856,40.0
0.7275629,41.19118
0.88705844,40.0
0.7338153,40.62593
0.6903587,40.0
0.7187622,40.0
0.6154748,40.0
0.5417248,40.313885
0.51246244,40.879265
0.5229367,41.837208
0.4697726,44.24814
0.5102332,41.44416
0.5405393,41.951973
0.49576932,42.22781
0.5775474,43.75215
0.54275316,46.87831
0.46767285,44.46728
0.58180064,49.42088
0.6085995,53.31029
0.60075694,52.80824
0.6536248,54.64303
0.7223536,55.540733
0.8004531,58.236416
0.7782438,58.095734
0.881888,61.74344
0.825326,61.374935
0.9394445,67.044716
1.0147302,66.78396
1.116541,69.278854
1.2515266,73.790726
1.1872233,76.90955
1.3287412,77.16154
1.2817935,76.462234
1.4280739,78.99041
1.4675432,83.83098
1.4486817,88.05476
1.6528212,90.55218
1.5940101,90.94042
1.569851,94.2934
1.7400004,96.30451
1.7289484,95.2665
1.726951,96.6314
1.7044468,99.005905
1.8527992,101.0547
1.8300512,104.11875
1.8445525,105.96795
1.861446,106.19834
1.8231353,105.82185
1.8394719,107.801605
1.8449646,110.58239
1.8392826,111.31009
1.8697035,108.34677
1.7930233,112.56146
1.8919584,113.5608
1.8470082,114.6054
1.8484898,111.70122
1.881923,110.18206
1.7812327,114.27204
1.7862601,114.072426
1.6997991,114.442825
1.7120833,113.949356
1.6712948,114.26206
1.6278191,110.97998
1.6564621,113.15465
1.6639283,114.28056
1.6700625,109.45632
1.5903523,111.59974
1.7208056,107.13932
1.6284226,109.275856
1.4964665,106.66677
1.4872355,107.99198
1.4287386,107.470535
1.4310383,103.49357
1.4094253,102.56474
1.4706182,104.46222
1.4357535,98.50921
1.3593923,99.284096
1.3989246,96.69924
1.3716103,98.19367
1.382259,96.498505
1.2470714,97.207535
1.2687974,92.63669
1.298488,92.45802
1.3458871,89.89512
1.2657199,90.68695
1.2191812,87.456505
1.2502693,87.97869
1.1548074,86.17754
1.2334831,83.48972
1.1871992,84.88946
1.2482629,83.078636
1.1664702,80.713234
1.1745508,78.4154
1.0619547,78.82965
1.0430652,78.714645
1.0383198,76.814766
1.0778995,74.237885
1.0085663,75.37272
1.0562209,69.46708
1.004381,73.276085
0.9072062,67.23081
0.8781901,68.97576
0.854973,68.59749
0.8001309,65.50881
0.83318484,64.79152
0.8146074,66.62798
0.7392974,59.48372
0.6736627,60.533913
0.6729684,58.544037
0.5866612,57.069496
0.58760285,57.01801
0.6553163,59.581356
0.59264314,55.628963
0.60290927,52.678513
0.6298176,50.15306
0.5934108,51.96959
0.5231623,51.94386
0.5455231,48.81588
0.57077,48.523415
0.51048094,44.489243
0.5447984,50.8773
0.64008963,45.575947
0.63585216,43.843494
0.56457543,41.98713
0.5725692,42.143646
0.49623764,42.83063
0.46190166,44.719288
0.39389533,41.127983
0.45423496,41.639763
0.4077319,40.43685
0.35820144,40.0
0.242135,40.0
0.24812815,41.12855
0.2542858,41.24652
0.25577065,40.0
0.19706059,40.0
0.26091763,42.286976
0.20193595,41.853317
0.05405585,40.908497
0.08046892,41.512337
0.1556275,44.112793
0.108614646,45.99142
0.04632172,47.848587
0.116659015,44.09077
0.124062635,47.698074
0.14016773,51.021618
0.21744551,51.771717
0.20367356,52.734287
0.2099007,53.234985
0.2893999,58.624348
0.30249456,58.2086
0.31660336,59.8701
0.40426198,62.95835
0.4702941,65.4419
0.6533698,66.62004
0.6509414,68.80407
0.7630132,71.77576
0.89012927,75.13786
0.87194,78.13251
0.91677254,80.66772
0.9805953,79.7668
1.1222273,84.606155
1.2020895,84.05569
1.1110625,87.16726
1.182398,88.10272
1.1964786,92.41517
1.1876289,95.47737
1.370328,98.59786
1.2933987,96.94033
1.4159442,97.53402
1.3475207,101.332344
1.3956052,103.7418
1.4750082,103.94183
1.4405911,104.820724
1.3890355,107.69247
1.4246328,107.41798
1.4516009,108.70988
1.4514396,110.43306
1.4614038,112.84732
1.5034499,112.38872
1.3742884,112.761215
1.3745162,113.967255
1.4350976,116.40459
1.4520614,113.33687
1.3977097,113.19646
1.2764773,112.89057
1.3346914,116.01446
1.3036245,110.1453
1.2666858,112.26232
1.2750789,112.03196
1.2920619,112.249374
1.2756305,111.862564
1.2122891,111.58266
1.1741157,109.06834
1.1320121,108.96186
1.1370572,107.5028
1.1475624,108.731316
1.107611,106.82229
1.1208738,106.47549
1.0561132,103.51015
1.1397461,102.2319
0.99556524,104.80735
1.0370939,101.62782
1.0283892,98.386665
0.9236827,99.62102
1.0195696,97.5701
0.9676146,98.44941
0.9171081,93.29045
0.9782737,93.18542
1.0112492,92.41894
0.89974934,89.99492
0.98224705,88.61779
0.90556973,88.81683
0.8406263,85.89352
0.8935078,84.18181
0.8224725,83.540115
0.79929376,84.48195
0.84101486,82.786354
0.85685873,85.40628
0.7463589,79.578186
0.7459916,78.23433
0.7973425,76.74563
0.75570625,76.620445
0.71781564,77.829056
0.72466016,74.23099
0.63046277,72.38692
0.6926413,70.25226
0.65748537,69.29094
0.58365947,70.33131
0.5589977,68.14428
0.46974078,68.43627
0.49905157,66.78023
0.50389826,63.084976
0.46963942,63.448
0.3444752,60.366158
0.32508507,58.789875
0.36253816,55.59661
0.34957895,57.042763
0.39336443,56.550133
0.30159447,55.829926
0.33909175,53.63753
0.36679488,53.483326
0.32876006,51.756435
0.31621107,48.751442
0.37330008,47.68894
0.3657716,49.496803
0.30136275,48.565372
0.30978683,48.82306
0.40074387,46.720543
0.29319763,44.3376
0.2541414,42.116676
0.31723398,43.141247
0.19453096,42.38258
0.2071771,40.900215
0.28328618,40.0
0.25976077,42.10469
0.2239188,40.0
0.14287713,40.0
0.10050809,41.97389
0.11712935,40.0
0.050440993,42.603474
0.07078213,41.690506
0.02691611,42.98927
-0.0064917905,45.773705
-0.020037532,41.55961
-0.04557418,42.59247
0.030714601,44.705357
-0.010064909,42.557354
0.026747663,44.230415
-0.06164501,45.467896
0.013164861,48.2901
-0.04380409,48.263874
0.03309999,48.30752
0.18712786,49.188858
0.14046364,52.682755
0.15157282,56.939384
0.18053724,53.957394
0.20428659,58.463768
0.33033994,62.229767
0.4282908,60.120403
0.37211576,66.306595
0.5178589,66.66623
0.65721005,67.39298
0.73815745,72.200714
0.69230354,71.69748
0.77960825,75.77002
0.8569727,77.640114
0.8559829,80.69246
1.0277292,82.02332
0.97814095,85.93829
1.0724472,89.61981
1.0581104,91.59192
1.2926325,93.01842
1.3335505,92.78316
1.2598875,96.218216
1.3636214,95.084496
1.3042896,102.15297
1.3971792,102.22241
1.4545503,104.25093
1.4854981,102.54057
1.4309975,103.393166
1.4682618,108.07513
1.4618847,106.323166
1.5594645,112.83505
1.4924387,107.25456
1.5123054,109.435646
1.5422754,113.66572
1.474209,112.98501
1.3975528,113.39199
1.4340769,115.142876
1.509496,114.63031
1.5485001,113.33242
1.4589338,112.89456
1.506091,113.06652
1.5073433,114.879166
1.4068666,114.83518
1.4504223,114.63744
1.3869774,112.94445
1.4874177,111.77087
1.384718,110.876015
1.3555046,109.531685
1.4377415,109.51424
1.3756802,108.25819
1.2642044,107.25501
1.2963718,106.36308
1.2438368,109.27665
1.3029495,106.282455
1.2610832,104.8784
1.2026325,104.57902
1.147615,102.21674
1.1744211,101.524315
1.1374397,99.09725
1.2340057,97.025116
1.1024753,94.9704
1.2853698,95.49981
1.0855461,94.142426
1.1997668,91.63475
1.0245965,92.42313
1.1663568,90.2794
1.0925249,88.80382
1.1247811,90.27712
1.2068268,86.15339
1.104207,82.06654
1.0728532,84.712006
1.1798178,83.08493
1.0157882,82.36233
1.123088,83.052
1.0857323,76.505844
0.981608,76.39406
1.1169196,76.06867
0.9619397,77.44766
0.95161325,74.614815
1.0033945,73.0993
0.9530132,72.435486
0.7751206,70.04341
0.930198,68.80232
0.86900055,67.21435
0.7993423,69.3247
0.7434872,64.51991
0.8237137,65.88505
0.70767355,59.68485
0.807103,62.30846
0.8435483,60.30489
0.66682345,59.45802
0.6575908,56.84263
0.7293579,58.186123
0.70883995,55.028725
0.6665,53.712177
0.6972487,51.34381
0.75392824,50.734028
0.7233737,51.82651
0.6041919,50.791042
0.7836934,49.02561
0.7014942,47.586285
0.75700927,47.417404
0.78681934,46.432194
0.71446854,42.672897
0.62022024,45.843536
0.6621752,40.52183
0.70332485,42.299026
0.7540865,42.990517
0.5755239,43.121735
0.6527443,40.0
0.5871958,40.985397
0.48154885,40.0
0.5940459,40.0
0.47450718,40.0
0.47089994,41.671803
0.40400553,40.0
0.3706526,40.0
0.43037188,43.94123
0.42532557,42.75781
0.46888325,42.735542
0.37325242,44.088375
0.4533287,42.92222
0.39800632,43.428986
0.30295143,42.92104
0.3749557,46.949036
0.42135412,48.30968
0.4573319,46.974747
0.54404444,48.42682
0.5557925,52.799126
0.5553608,54.08785
0.5592401,57.468956
0.6816364,59.141937
0.79226744,61.75282
0.85870844,60.90197
0.96249914,65.81647
0.91505677,65.18932
1.1258826,71.325516
1.1060059,69.24784
1.1718713,75.90892
1.15278,77.60631
1.2814199,78.22086
1.4052544,79.991165
1.4875139,81.7513
1.4676466,83.30208
1.5433224,87.05586
1.6299946,88.008354
1.5660523,91.195496
1.6915839,93.086464
1.7245659,96.37496
1.7089267,98.11592
1.7485274,100.399414
1.8319875,99.88571
1.852062,107.18258
1.8712411,106.58799
1.9798259,102.58597
1.872357,103.41764
1.8446138,109.46292
1.9244171,108.60041
1.8570486,109.30166
1.8864058,110.8607
1.9534825,111.5341
1.974484,113.06931
1.8872955,114.20154
1.90103,112.823296
1.8752669,117.07916
1.8745712,115.36954
1.951981,114.0336
1.9176748,114.12401
1.9612734,112.54275
1.8440946,113.4569
1.8647285,112.72353
1.7772803,109.717445
1.7314407,110.788124
1.8441819,113.391556
1.8481101,109.66642
1.7631762,111.5965
1.7667031,107.89923
1.6788316,106.74675
1.6867266,107.72169
1.6850337,103.68917
1.6937684,104.70117
1.7141714,102.76307
1.6107053,103.271576
1.5775658,102.73435
1.6121417,99.72316
1.590785,100.853645
1.552568,96.81154
1.6280597,97.29905
1.6478916,97.05106
1.5650175,93.78585
1.5205277,93.2282
1.4817595,91.83643
1.6420146,92.15767
1.564587,88.792564
1.4799358,89.103294
1.554996,85.99612
1.4882083,85.13248
1.5272692,81.40469
1.5027043,79.52393
1.4054174,80.99736
1.3804905,79.0647
1.3209968,77.50097
1.2865864,79.19127
1.2911261,76.034966
1.3604941,72.609535
1.2863597,73.98403
1.1797826,74.99718
1.2243966,73.67414
1.1968235,72.02338
1.1949542,68.77294
1.1862177,68.21965
1.0925351,64.92035
1.074526,64.899796
1.0618486,66.39067
0.9806499,60.583187
0.996435,61.45817
0.98760873,62.69612
1.005391,59.3119
0.97405624,58.42167
0.8886696,55.170437
0.9169123,55.330906
0.86736375,51.80595
0.9948567,50.69557
0.9894095,54.07016
0.90900403,48.987904
0.8629708,50.10138
0.87413764,48.66044
0.9376576,48.458847
0.8747694,45.78446
0.931208,43.57154
0.86782223,45.154568
0.94038296,43.708187
0.8935898,41.444458
0.852292,43.486416
0.93017167,41.255966
0.7616487,40.0
0.82224804,40.0
0.8343881,40.19543
0.67279744,40.0
0.7908708,40.934578
0.71588266,42.470722
0.67693126,41.069435
0.6283271,41.078045
0.5620766,40.874737
0.6099693,40.816837
0.6041272,40.0
0.53693664,40.0
0.5533584,45.702946
0.3779823,44.77991
0.523665,43.848618
0.55602825,45.676544
0.48825794,49.673985
0.45094284,45.952274
0.5702704,49.73056
0.6201607,50.682613
0.6458286,52.42947
0.6710187,53.30126
0.74502635,59.666313
0.76003605,58.27115
0.70678663,61.87661
0.8994163,59.67573
0.93615454,66.741165
0.9876584,68.45943
1.0089065,65.464226
1.1712614,71.69229
1.2432607,75.62392
1.2234384,76.80329
1.2168207,77.53368
1.3865017,80.39308
1.3237951,79.42969
1.3530234,84.46151
1.5204241,85.56076
1.5339415,87.52567
1.6152917,90.782936
1.5700134,93.89816
1.7690122,98.840675
1.7459732,94.461494
1.7497388,98.87705
1.8357537,100.01745
1.6683187,99.9192
1.8347433,103.64436
1.774084,105.95583
1.847208,106.17757
1.7738806,107.801544
1.8753318,109.75014
1.8281748,110.46749
1.8834847,110.57966
1.816212,112.384834
1.8495935,111.74082
1.7497979,113.79518
1.7925522,113.00937
1.8248873,113.55962
1.8157698,110.98877
1.7223128,115.93804
1.7688042,113.8466
1.7764956,115.252075
1.7953875,109.46267
1.6905642,112.930725
1.5979682,113.363625
1.6706423,112.32874
1.5717404,112.91222
1.5314617,108.288315
1.4891764,108.77582
1.4756241,108.93585
1.5384383,109.90248
1.4983418,105.730354
1.4498887,105.30306
1.4591128,105.17137
1.4055214,104.35956
1.4030179,102.92375
1.3459598,102.40108
1.4272248,99.53689
1.299822,100.10939
1.3494318,98.56095
1.2716956,96.864296
1.3950113,95.189445
1.2956879,95.47985
1.300326,90.775604
1.2523503,90.47166
1.2780873,93.48106
1.2076142,86.731964
1.2233764,89.11619
1.1268489,86.96472
1.1859888,85.1274
1.201453,85.83159
1.1812152,81.283104
1.1621937,81.92224
1.0839634,78.245445
1.1126679,79.27766
0.9721567,78.84183
1.0570278,74.96693
0.95398116,76.98935
0.98630506,75.36558
0.898478,73.71114
0.930006,73.01384
0.89464206,71.97669
0.8241577,70.31343
0.8232397,66.785446
0.896194,66.443596
0.75729793,66.98326
0.72303045,67.534935
0.790494,62.89308
0.7247373,60.953842
0.69414353,60.256176
0.63927275,60.6399
0.5287605,59.99966
0.5505539,57.13063
0.59376985,57.1929
0.5132871,53.11488
0.5500849,49.935497
0.56343526,51.041836
0.60048974,53.48388
0.47418165,47.84371
0.52140063,49.94479
0.6043782,46.520954
0.62473476,46.510746
0.47882742,45.388134
0.505543,44.980606
0.50082046,41.51432
0.46878803,43.26921
0.5213829,43.461124
0.43503028,41.367176
0.39753348,40.0
0.42374766,40.0
0.49887958,40.0
0.3292266,40.0
0.3203708,41.613655
0.37032905,40.0
0.2173308,40.0
0.2749032,40.782116
0.11578821,40.0
0.16718802,40.0
0.045344952,41.860283
0.080645345,40.0
0.14470531,41.861103
0.14076297,43.682747
0.07891669,46.39393
0.14688365,47.517845
0.11062255,44.913723
0.12650852,47.891582
0.089609966,51.845455
0.14165278,52.711136
0.1414804,52.10399
0.38928762,54.701397
0.2980341,57.457855
0.36083692,57.857666
0.27326646,61.071003
0.34688586,63.62655
0.49780035,65.92772
0.5282748,64.29069
0.6007804,68.84026
0.697539,70.13029
0.86531377,74.25219
0.8357409,74.332466
0.91002065,75.873535
0.90931547,81.081276
0.99833,83.79831
0.9969981,86.638596
1.064857,83.236664
1.101763,87.920715
1.1494551,94.7487
1.1503307,95.67422
1.255269,94.88187
1.2899934,97.6267
1.3280367,95.33296
1.469773,98.95536
1.2899994,102.83236
1.4059281,103.76346
1.3183451,105.237175
1.32865,104.03666
1.3504292,107.36627
1.4142164,107.75953
1.3025374,114.39816
1.3740224,111.10355
1.3801417,114.14877
1.3605053,112.098145
1.348708,111.031166
1.4151419,114.55681
1.4407108,113.98769
1.4127529,112.056435
1.4215995,113.37139
1.3385938,111.75138
1.3640977,117.002846
1.3300002,115.55052
1.2981305,111.64577
1.2915969,110.82066
1.1765727,111.6964
1.2536955,114.71231
1.1230823,109.750946
1.1682577,109.926796
1.142626,107.64658
1.092047,109.46281
1.0573559,107.19085
1.0963202,104.69879
1.0486993,104.79202
1.0270209,104.53036
1.0091124,101.004814
1.0181607,99.071175
1.0311402,99.75238
0.99344575,98.96353
0.9310886,97.81622
0.965719,96.725006
0.91184545,93.49818
0.9737125,93.54525
0.92953986,93.46414
0.900043,89.98852
0.89203733,87.812904
0.93535656,89.52553
0.8616929,88.7948
0.85130787,86.128876
0.90451765,84.91521
0.9704425,80.78558
0.7600349,83.48451
0.8974662,82.29478
0.86039615,81.26185
0.79450685,78.185196
0.73260856,76.734146
0.7930433,75.89385
0.74438244,74.75962
0.70033675,75.00801
0.6404871,69.99736
0.6824075,72.54788
0.57341534,73.95116
0.6230225,68.4941
0.5401675,66.29512
0.54696286,70.40277
0.60180026,66.75368
0.49924308,65.94096
0.50945425,63.408154
0.43699634,61.574966
0.42464688,61.1434
0.40783194,62.78241
0.39503813,59.338783
0.37568617,57.719486
0.31829026,56.166237
0.37708706,53.03446
0.33658767,52.415752
0.2881266,52.90845
0.31091267,48.8422
0.42044678,49.881386
0.30781206,49.34902
0.32837448,44.93085
0.24625662,47.039124
0.4102381,46.023922
0.31239113,46.71869
0.23446809,40.778603
0.23959473,43.234806
0.31210625,41.02549
0.36837137,41.65569
0.13628024,41.19316
0.22680482,40.0
0.18109743,42.4957
0.17813705,40.32767
0.15603064,40.474525
0.18486196,40.0
0.19052906,41.88278
0.048677932,43.48252
-0.020033773,40.0
0.0012053761,42.647003
0.055961385,41.3537
0.07105998,44.01889
-0.015093763,42.64282
0.019458791,42.30234
0.03637803,44.45885
0.016296992,43.571445
0.0047711725,45.44007
-0.009084264,48.471764
0.09822813,46.274464
0.030332899,52.100346
0.18421273,53.994514
0.18496422,54.66329
0.17071247,54.591316
0.2636228,56.88961
0.43331823,62.190216
0.34677503,59.466743
0.5011761,64.35976
0.5937632,64.71442
0.4608341,69.613396
0.6487798,70.7626
0.6761345,74.19043
0.88865596,72.06409
0.92207366,77.94397
0.89552677,79.49352
0.9421638,81.28035
1.0233984,87.46227
1.0366296,85.596825
1.176227,88.78788
1.210935,90.646255
1.2434089,94.79504
1.2938687,95.01047
1.4397554,93.469795
1.3115573,98.95991
1.3867068,100.38517
1.3033917,102.36697
1.4104602,106.105034
1.4071622,105.30633
1.4563464,103.21658
1.4890676,107.69415
1.5257586,106.73667
1.444581,108.63396
1.4703599,110.6548
1.4757731,109.408035
1.5826957,112.37424
1.5392225,115.42794
1.4856083,114.405365
1.4105225,113.38721
1.4864978,114.50926
1.5559262,115.01243
1.5225916,109.912285
1.443816,113.575584
1.4695209,113.00531
1.43078,112.91115
1.3944817,112.869545
1.529675,114.29734
1.4299783,110.83597
1.4398881,111.12025
1.3559028,112.109955
1.4139729,110.27902
1.3258018,109.28677
1.4289956,106.18339
1.2664455,107.511154
1.2686446,103.91719
1.2578635,103.43713
1.2640399,102.142914
1.2532783,101.95177
1.1305728,99.445435
1.2062689,99.889046
1.1941332,97.95213
1.1576952,96.63969
1.1648141,96.65682
1.2179159,93.7957
1.2122265,92.908646
1.1718228,89.32145
1.2273532,90.62305
1.1858474,88.80566
1.2387836,87.27683
1.199573,87.990074
1.1421937,86.52417
1.1350536,86.11201
1.1158706,84.41263
1.1980696,81.98924
1.0749608,78.18786
1.1066924,79.55263
1.1970447,78.18795
1.0512162,76.579384
1.0801933,74.44306
0.9952691,75.08309
0.9742795,74.33906
0.91663927,72.09988
1.0224621,69.42569
0.92862356,70.804245
0.8759933,69.66352
0.725675,65.8777
0.74657065,67.20458
0.8195843,61.32609
0.7947016,63.38765
0.6555718,63.812443
0.78783756,61.320168
0.76632273,56.658474
0.7322546,56.203182
0.6810971,56.596527
0.77779526,52.721966
0.6751106,51.544132
0.75018346,53.21807
0.7611001,55.191685
0.6820134,52.51985
0.7877652,47.629627
0.76868284,50.58288
0.7850269,44.97631
0.7091814,48.649048
0.7312208,46.059113
0.66274995,43.078983
0.7025973,42.0668
0.6912359,41.639027
0.5915445,40.87448
0.70025843,40.106136
0.72757864,40.939053
0.66798526,40.0
0.64709663,41.16388
0.547082,42.22906
0.63678926,41.85143
0.64696664,40.149582
0.5394083,40.047382
0.48353285,40.0
0.48914534,40.08954
0.469322,40.84674
0.55782324,41.94799
0.44018462,41.08761
0.41805127,43.18515
0.3214535,40.23249
0.5563854,47.428234
0.5067999,46.73372
0.4690441,46.018806
0.5288394,48.588284
0.35285747,47.99254
0.5185179,50.81973
0.5938377,51.736336
0.6528669,51.293514
0.5859221,54.572735
0.71880716,57.91913
0.81304145,57.963253
0.84565026,63.087666
0.8179791,64.5406
0.9118947,65.25918
0.98686427,67.91447
1.1092877,69.62169
1.2171836,70.13027
1.1606227,74.64698
1.3148513,77.26214
1.278166,81.14544
1.3236686,78.38291
1.5094522,84.83416
1.5211495,87.629585
1.604741,86.98233
1.6944976,90.56133
1.5991541,91.19821
1.702494,95.07816
1.73971,97.59987
1.7120335,100.325005
1.9229631,101.54592
1.8430444,101.38823
1.9334565,102.26799
1.848516,103.037605
1.8932805,105.998825
1.98409,109.86013
1.9459217,106.81387
2.0202165,106.92824
1.8916439,109.10472
1.892823,110.38524
2.0172439,112.1626
1.9118327,110.315865
1.9768465,114.24831
1.8965662,114.787834
1.9125078,113.911514
1.9485656,113.25078
1.9568492,111.97484
1.9144028,111.65981
1.8928738,112.24699
1.9442999,109.18429
1.9593673,111.85316
1.8067919,112.21551
1.8037969,110.18141
1.797541,110.24486
1.7815241,109.62651
1.7537516,109.46897
1.7284026,107.70111
1.6796416,108.114174
1.7284133,104.167564
1.6498376,105.126595
1.580638,104.82702
1.6530627,101.33606
1.6992489,101.17727
1.5747482,97.38016
1.6046137,101.41015
1.595282,98.16679
1.5552787,97.671455
1.518218,94.25698
1.5116489,93.730286
1.4843147,96.43293
1.5808713,92.43446
1.5101496,88.63963
1.5619782,89.74543
1.4489659,88.8808
1.4972951,87.753746
1.4459857,84.387405
1.4981188,85.157135
1.4608766,83.45139
1.3827994,81.67461
1.3383255,80.68098
1.3831066,82.824165
1.4266734,80.00036
1.4430907,76.42063
1.3688799,76.64916
1.2610074,78.17036
1.3610369,75.60454
1.2027168,72.30379
1.222098,71.49846
1.1549158,69.55956
1.2724564,68.88847
1.1912384,65.233986
1.0736301,68.87977
1.0595217,65.31542
1.069936,65.2011
1.0245962,61.004955
1.0656152,61.19314
0.9691419,57.92932
0.9861882,58.23711
0.9766185,57.847736
0.9035803,57.952545
1.0101225,53.907116
0.9495167,55.73581
0.86964077,52.774372
0.857404,48.83869
0.8855556,47.29502
0.94011265,48.30893
0.8901224,46.885094
0.9366141,46.07507
0.9434793,47.62552
0.96289635,43.031548
0.87063676,45.30277
0.90110177,44.19318
0.7995599,41.677605
0.81474996,40.28838
0.8596058,40.529152
0.8668122,40.61129
0.78472,40.214333
0.6932358,40.440426
0.74571127,41.404507
0.6222403,40.0
0.66649777,40.0
0.62387246,40.0
0.57452697,40.0
0.53629625,40.0
0.6089309,41.282207
0.57217294,41.6742
0.4519797,41.636097
0.57001615,41.845375
0.429088,44.66294
0.42948318,46.023827
0.5189198,46.62284
0.4980509,47.186977
0.5313708,47.57306
0.49031922,50.75169
0.5526238,49.71233
0.6094248,53.13253
0.66677874,56.63349
0.7110327,56.906914
0.7723831,60.948124
0.7828774,62.334282
0.88124484,63.597378
0.93358976,65.331436
0.919729,68.73234
1.0422524,69.92872
1.0699192,73.90709
1.212541,76.834305
1.2833967,78.28607
1.3291976,78.02317
1.3393648,80.71264
1.4506156,84.4105
1.4952382,85.586266
1.5470097,88.126045
1.6096635,89.97855
1.5820409,90.41078
1.5938338,93.96643
1.5613616,94.50213
1.7093872,97.9141
1.6544175,99.79346
1.6992408,101.538895
1.6556022,104.79209
1.7846962,103.92357
1.8079582,106.40277
1.855374,107.67616
1.8024889,105.90834
1.85754,111.90824
1.7977774,108.331924
1.6852611,110.43564
1.6901094,108.04615
1.8174807,110.46911
1.8698552,113.51091
1.775099,113.6974
1.7683928,114.03979
1.8292465,115.332214
1.7602817,111.88567
1.7566073,114.54564
1.6417906,116.49368
1.5583203,112.471794
1.6539372,111.719734
1.6947237,111.79456
1.5991342,109.88451
1.5886148,110.28268
1.5128113,111.77273
1.5025178,109.621254
1.4600089,106.90218
1.4704545,105.93992
1.4385339,106.81271
1.4312096,104.919975
1.4542524,104.022644
1.4170262,102.74255
1.3343434,103.903404
1.2986988,100.036575
1.2902217,99.93343
1.3300624,97.728455
1.28851,98.66008
1.2384309,94.70259
1.2872478,95.377426
1.1963577,93.48759
1.2351142,90.40725
1.1930965,91.41483
1.2030694,90.83169
1.1408988,91.6515
1.1569381,84.77947
1.2285353,84.74688
1.1100423,84.04962
1.1655409,83.82047
1.0957503,77.9313
1.059332,82.50392
1.125528,78.21872
1.0804411,77.08988
0.9819417,75.99958
0.98305154,77.38027
0.9866145,75.785675
0.90608877,75.58945
0.9279146,70.44256
0.89914036,70.51847
0.8077338,67.17904
0.8063491,67.256676
0.8132847,65.994415
0.7272489,66.17522
0.7181655,65.26986
0.68651605,61.845432
0.66552895,61.439377
0.6358548,59.116493
0.60888773,60.133194
0.6486126,56.961666
0.69065535,56.851974
0.55924255,55.061073
0.5377372,52.481625
0.51454073,53.66497
0.53806436,52.324684
0.57890326,51.46665
0.50355536,50.1024
0.50106037,47.07793
0.5482965,47.32562
0.53371,47.811264
0.42449048,48.31327
0.36769462,44.860542
0.49167535,43.154377
0.46714818,45.918365
0.4692594,42.794243
0.4763879,42.4468
0.4114289,41.67804
0.3017123,42.266758
0.47120833,41.658836
0.39744183,41.219112
0.24039273,41.270737
0.2222619,41.630745
0.21360509,40.0
0.2362725,40.81282
0.17459942,41.273994
0.088364,40.0
0.106370986,40.57785
0.046132963,41.596596
0.038195122,40.820507
0.0797476,41.936474
0.006763133,42.416042
-0.003078455,45.335087
-0.012083922,46.839832
0.020995123,47.21503
0.060048435,48.657238
0.06872168,50.205013
0.07353699,49.408794
0.20070316,51.845028
0.23088099,56.596592
0.29314882,59.577095
0.32486892,58.44132
0.34460956,63.439865
0.40017372,62.70446
0.4329976,66.115204
0.5293045,68.18259
0.5138467,69.87054
0.65357983,71.17858
0.72695583,74.30335
0.72705173,76.223755
0.83689874,80.06417
0.8744979,83.01421
1.1041045,82.77892
1.0063996,88.16021
1.0872821,88.14854
1.174439,90.11051
1.0677086,92.465416
1.2165557,92.70473
1.3038284,94.15349
1.1843445,98.42615
1.3571692,99.6107
1.3664255,100.04395
1.2990638,103.704094
1.3590848,105.312645
1.333099,105.619415
1.3577888,110.55925
1.3248614,105.66714
1.4428998,109.54035
1.3780628,107.40392
1.382212,110.78778
1.3837843,115.0723
1.313621,114.69687
1.3719268,113.47452
1.4009373,112.39411
1.3817768,112.92197
1.2828819,112.9729
1.2629347,113.1996
1.2355226,111.60809
1.3272794,112.62271
1.3469416,110.39693
1.1450018,113.00459
1.31476,111.93784
1.1802834,113.6188
1.1493058,110.301094
1.1484692,109.91017
1.137492,107.04171
1.1236072,109.83577
1.1322932,105.76323
1.0586835,105.94399
1.0284089,105.15057
1.0301901,105.3386
1.0475588,105.2387
0.9974203,102.56139
1.0364442,97.13204
1.0310196,99.16611
1.0112021,96.90949
0.9753731,96.671715
0.882774,96.01231
0.902368,97.02203
0.949652,94.16438
0.8839793,91.23369
0.85580826,91.76788
0.8840727,89.1794
0.9159841,87.82922
0.9618465,86.99722
0.9585454,84.39531
0.7844123,81.87411
0.8652235,83.379555
0.89899635,79.59528
0.84992546,84.42326
0.789819,81.70878
0.8188963,79.19204
0.7641849,76.18178
0.79010993,76.94952
0.67219716,76.412224
0.6538024,74.7393
0.6676641,71.62845
0.63759506,70.55414
0.6313267,71.68523
0.62096,64.70605
0.4734189,68.00291
0.5074843,64.773155
0.42930055,66.38759
0.47845483,62.500896
0.46060213,62.579903
0.45348692,59.157196
0.3591869,60.53401
0.3852462,57.416073
0.51462066,58.576138
0.38579628,54.679558
0.31754097,56.448765
0.31368673,54.885838
0.30724823,52.723484
0.24843788,49.81366
0.4244059,46.844746
0.38518438,47.46396
0.3860027,50.91997
0.33736917,45.120564
0.21823855,42.86874
0.35550815,44.284657
0.3278717,45.969437
0.358052,42.520252
0.44903672,41.24514
0.41269213,43.92287
0.3581228,40.0
0.32541978,42.688385
0.30320272,40.389797
0.23994271,40.0
0.25228179,40.0
0.16685814,40.0
0.17075776,40.0
0.20992242,40.0
0.02682533,40.0
0.08648811,40.452446
0.1289465,40.0
0.059841905,41.059456
0.030522853,41.592346
0.032156136,43.346897
0.0068046562,41.265423
0.08592219,42.765644
0.0054706936,45.34166
0.066933215,46.799667
-0.016857503,49.275806
0.11331859,52.96139
0.21527793,52.10623
0.11949095,54.57047
0.11645587,57.36467
0.22615567,54.432507
0.4139811,60.187477
0.3203434,59.58395
0.46583247,64.99511
0.48729435,66.97807
0.64618313,68.319695
0.6107959,68.93893
0.6689217,70.68558
0.90375954,75.129036
0.87866265,74.790054
0.9125755,77.76952
0.9977276,79.64217
1.1158755,81.99464
1.1416206,84.91167
1.1571547,84.974434
1.1796355,89.39466
1.217892,90.97799
1.2515984,91.01611
1.2775028,93.198326
1.3437246,97.88972
1.3185067,98.090294
1.4499369,103.424255
1.4466196,103.78631
1.4594413,105.58229
1.5669588,106.775665
1.4709315,108.732475
1.5539807,107.86471
1.4999088,107.87612
1.5100396,108.55847
1.5957612,111.218666
1.5536723,111.70804
1.5701888,115.01482
1.6626123,113.048485
1.5304427,114.86679
1.589425,114.82436
1.5375212,112.42562
1.5851263,116.78552
1.4519008,112.21444
1.5979692,113.70766
1.4493281,113.59273
1.4410737,112.68747
1.3859174,112.672226
1.4298844,112.40196
1.3878043,108.2876
1.4469316,110.33971
1.3406417,112.03496
1.3865362,110.42006
1.4533601,108.60697
1.377725,106.6071
1.3354467,105.29173
1.2606298,103.181335
1.3260132,102.38279
1.2277372,102.006294
1.3587906,99.592354
1.275251,99.73977
1.1941261,98.09128
1.2396964,96.52488
1.2647395,96.856575
1.179799,94.79476
1.2859397,92.53518
1.2185162,93.6903
1.3212161,92.18843
1.1844265,88.96391
1.1063747,87.81864
1.2211692,86.96556
1.2367252,86.08294
1.2388448,84.37464
1.1428901,82.38905
1.1902746,81.01147
1.2556615,80.757324
1.1136857,79.53689
1.0649799,77.869774
1.1021608,76.603355
1.1214491,77.806435
1.1277442,75.866264
0.9943946,74.78458
0.95174944,73.12322
0.9860834,71.037315
0.9205949,69.7316
0.9633878,68.861664
0.95124143,66.588936
0.8625899,66.58843
0.88814646,65.93183
0.8291856,66.77606
0.73809135,61.815216
0.73420066,62.897438
0.76949424,61.656235
0.68009084,59.898193
0.7819908,56.70975
0.8086981,54.92534
0.80835134,52.732018
0.72178626,52.941177
0.7576811,52.4742
0.73873454,51.563007
0.77180743,52.32504
0.8127927,51.207687
0.7424597,47.963223
0.78866285,48.501743
0.7194406,47.702724
0.812924,41.944817
0.69056183,44.2723
0.7457742,44.58605
0.7132545,42.037594
0.77510154,44.248325
0.7984536,43.302452
0.64095235,41.276394
0.7089934,40.0
0.67875654,43.214268
0.62470806,40.0
0.6370757,40.0
0.4710332,40.0
0.6162174,43.25794
0.52860326,41.443535
0.50124663,40.0
0.45276356,40.54845
0.48611033,40.81444
0.51142544,40.630054
0.4660573,42.037342
0.386904,44.590645
0.46099743,44.22857
0.4449654,46.79547
0.43638155,51.00806
0.4683357,45.535908
0.5503429,49.716656
0.515164,53.62561
0.6213348,54.442215
0.6085363,54.826393
0.74604106,57.217316
0.6515976,60.847748
0.73387456,64.03743
0.8457436,62.12133
0.88078105,66.11129
0.99927264,65.60736
1.0462414,66.61365
1.1435692,69.924706
1.2024276,74.070404
1.2771128,77.73363
1.3973668,77.85927
1.4095968,82.26643
1.4508754,82.651215
1.5024546,83.266525
1.5803419,86.963234
1.668054,91.134
1.6595086,90.61953
1.7597698,94.48857
1.8403652,93.810905
1.7782797,98.80543
1.7080872,101.14642
1.9756433,100.39729
1.7503166,103.563614
1.819373,105.63941
1.7931197,104.726425
1.9318196,108.2464
1.924307,108.03944
1.9580804,111.57544
1.9618094,106.11306
1.9817308,111.11134
1.9766293,112.20909
1.9452776,110.50965
1.9579713,112.93433
2.0347893,115.35185
1.905718,111.50991
1.9878511,115.340775
1.8848732,113.01373
1.8707992,113.42104
1.8671726,111.773026
1.9245641,112.254875
1.8855344,112.90882
1.8634068,110.86732
1.8543024,109.866806
1.8485173,109.768036
1.8381741,108.415436
1.8328631,109.095
1.7935627,109.32336
1.7131572,108.074936
1.755541,104.68088
1.6273454,105.82229
1.7971859,106.539734
1.6102657,104.4284
1.6109439,102.264366
1.5649005,98.705185
1.6325507,99.59612
1.5467179,100.54888
1.5193002,95.77344
1.5046489,94.52608
1.4676123,93.50874
1.480702,94.71229
1.5807704,94.292625
1.4389676,92.758995
1.4995296,89.52428
1.4674227,88.14805
1.4630634,87.74336
1.4435208,86.04566
1.4958687,85.51665
1.4298143,83.99148
1.4879936,80.361015
1.4787028,82.855545
1.3792744,79.11529
1.4263637,80.20475
1.4098389,79.757126
1.3724688,78.7143
1.2408131,77.51562
1.3547052,76.05803
1.2624424,70.30805
1.2097563,69.766594
1.1503828,68.68692
1.1859269,64.8559
1.1117889,66.649574
1.1443233,64.66802
1.1128749,64.6953
1.0174595,64.62868
1.0089165,64.58638
0.9732098,60.0623
1.0556661,61.954414
1.0250626,60.45555
1.0261358,59.356045
0.9263077,58.857613
0.92300975,57.04546
0.83794177,55.600628
0.9139983,55.55809
0.8536161,53.890564
0.8672098,52.34362
0.9397446,51.68785
0.8555758,50.157024
0.82729447,44.922802
0.96208,48.549335
0.90681905,46.43591
0.86270195,42.469257
0.81663316,43.182796
0.9491143,43.34805
0.74250954,42.729507
0.8206035,42.050095
0.86072063,40.0
0.70485955,41.213924
0.63919437,42.013493
0.6527178,40.42706
0.69329685,40.0
0.56317747,40.396423
0.6487972,40.0
0.69316894,40.725494
0.53822285,41.2215
0.47074512,40.05408
0.45673475,41.359795
0.49371767,44.328114
0.416139,43.780674
0.4297684,42.15357
0.4447542,46.25894
0.41880122,44.628693
0.36812082,50.29557
0.4939353,48.151188
0.4560876,50.220364
0.62682134,52.839573
0.5476329,52.982296
0.644661,56.00465
0.613949,53.509964
0.74319625,57.710667
0.7825405,60.778362
0.7339307,60.182915
0.82129216,64.57438
0.9680526,68.50304
1.0039054,69.38254
0.98632103,71.025505
1.1081799,73.856
1.2155213,74.57998
1.2005222,80.26196
1.3666152,81.12789
1.4827955,80.659225
1.554935,83.56721
1.4535278,83.729034
1.4415973,89.02764
1.6045578,93.00024
1.6093799,93.30422
1.6222826,97.36029
1.6647009,95.471
1.664509,100.244934
1.6889734,100.402145
1.6867039,102.93557
1.7259152,102.992905
1.7389734,104.18366
1.7540047,106.402504
1.8328993,107.69911
1.7623259,111.57196
1.7765477,112.384544
1.7839901,110.611626
1.7185752,113.37323
1.7756573,113.02837
1.676178,110.69009
1.7263576,112.58813
1.7320914,111.55895
1.737905,113.77417
1.7558842,115.19449
1.6899475,111.32123
1.6763058,112.59634
1.6370952,113.56318
1.6614884,111.68705
1.6296278,114.439186
1.6747488,112.63005
1.5130647,109.38524
1.5550547,110.55134
1.5219961,108.54471
1.3580431,107.00251
1.4427669,109.116974
1.4251859,104.81501
1.3496003,108.222
1.2825384,104.75048
1.2883605,102.42069
1.3630223,102.9871
1.3311237,101.952736
1.290184,101.7406
1.2281286,97.821556
1.1831686,97.58679
1.2757123,94.87474
1.1944376,93.010185
1.1787688,91.97438
1.3231462,91.427025
1.2039692,90.94687
1.2372897,86.84648
1.1291275,88.60603
1.1499755,87.89998
1.1261215,86.75018
1.128948,85.014175
1.0912318,82.68339
1.0624083,80.49945
1.0828575,84.013275
1.1558268,76.44887
0.9832488,79.33774
1.0309055,78.31363
1.0343139,74.69902
0.88566446,79.29827
0.9521239,75.66786
0.9222981,74.64775
0.8116112,73.947266
0.77702475,69.81814
0.7737938,69.86109
0.7491358,69.47403
0.7024354,65.33523
0.69522417,67.11102
0.69484437,62.76349
0.6505597,63.6232
0.6036307,61.670116
0.5707214,62.07554
0.5079711,59.762573
0.63508683,56.502983
0.51209533,55.655624
0.44789416,54.08821
0.526684,55.264366
0.48020706,54.34431
0.5013779,51.288795
0.5362469,49.79123
0.5042597,50.866505
0.48327872,49.0322
0.51149267,48.966537
0.5442061,48.57923
0.38327572,43.88297
0.4366431,43.19473
0.34530354,44.148346
0.39358374,41.891956
0.43299517,43.31376
0.41187587,40.0
0.29213977,42.859592
0.3127647,40.252884
0.3681457,43.044113
0.21995398,40.276222
0.31594273,40.0
0.15829231,41.392365
0.26554003,40.0
0.24042219,41.504307
0.06265511,40.961082
0.1204795,41.589844
0.21692462,41.008312
-0.06727599,40.57597
-0.056107182,41.75309
0.12787758,42.30031
-0.01145599,44.09049
0.008544236,46.781475
0.08501968,47.306297
0.12382739,50.099792
0.08396068,49.79147
0.113171875,50.102623
0.06160382,52.8839
0.204542,54.465992
0.27503458,56.30642
0.27990362,61.39838
0.31262892,60.049267
0.3914985,61.164776
0.41018236,66.13096
0.5165839,67.710915
0.61485416,68.34093
0.59664905,72.381905
0.7208808,71.97893
0.7641337,74.70613
0.8870531,77.09854
0.9387306,82.531586
1.0043049,82.633354
1.045753,85.86904
1.0200956,86.70887
1.1314204,91.16635
1.0357105,89.115204
1.1441368,93.25769
1.1927524,95.33273
1.2610048,100.54422
1.2106812,98.80915
1.3646144,100.5877
1.2324752,103.27736
1.3157753,104.97144
1.3542678,105.79131
1.3940386,108.26814
1.3757858,107.6153
1.4130127,111.349495
1.4647764,110.29586
1.3759862,111.40918
1.4544088,111.512245
1.3868488,108.747
1.4138168,111.41481
1.3953558,114.97561
1.2945805,113.213425
1.32453,112.69221
1.4134066,113.40749
1.2504971,114.003265
1.2507652,112.67944
1.3842683,113.57182
1.2860273,111.86313
1.2092733,112.462524
1.3143971,112.92513
1.2205873,111.58698
1.198398,109.51909
1.2154752,106.5399
1.1579827,110.34026
1.0712682,110.37527
1.1842915,105.342064
1.0607978,106.423805
1.0253865,104.20745
0.9172791,104.754654
0.9626722,99.24881
1.0590212,102.2996
1.0535856,99.61585
0.9467185,99.72061
0.8720914,99.19503
0.9486832,96.16914
0.9152573,96.9541
0.9231328,92.75734
0.9146265,89.8234
0.88837105,91.14009
0.8253397,90.98492
0.99767137,90.35366
0.8516058,89.21533
0.8980531,86.141594
0.94116026,84.95569
0.84890854,85.99387
0.8416061,83.45726
0.7502494,83.79497
0.8330096,81.25182
0.88878626,79.51646
0.8099469,75.634705
0.855109,75.780174
0.75256455,76.916306
0.75984013,73.7878
0.63303465,73.81457
0.73842347,73.10708
0.74955875,70.695335
0.61707217,68.41118
0.6272579,68.87274
0.5437319,66.63546
0.61785406,64.94882
0.55399865,64.16239
0.48031718,66.370834
0.44283414,59.7628
0.45597607,61.868008
0.40647686,59.338913
0.47293872,58.33554
0.3848038,56.900272
0.43023232,55.231087
0.31825447,53.27545
0.39188072,52.12115
0.31633213,53.765434
0.2847063,48.83105
0.39639828,51.33736
0.40749463,48.835434
0.4054529,47.665844
0.38884535,45.79681
0.45883095,46.889294
0.38426334,48.922764
0.42781425,42.626114
0.38221377,43.692905
0.37390447,42.21408
0.28354692,40.151165
0.34847057,41.955044
0.28169677,41.09223
0.22907038,40.0
0.40619758,40.0
0.19426933,41.080605
0.103015676,40.292908
0.13249837,40.0
0.1417685,40.0
0.0896859,40.0
0.11901831,42.39992
0.03448188,41.854416
0.05757426,41.94753
0.060986634,43.062965
0.059200726,45.131454
0.026223393,44.2911
-0.00134387,47.24534
0.027204035,45.087715
0.10967332,47.36401
0.08991665,49.95233
0.08215782,49.30135
0.25272736,53.538124
0.09985248,54.87924
0.25765234,55.749695
0.39376876,55.633934
0.40117145,59.19607
0.41300732,60.37823
0.52193147,65.03169
0.516196,65.82479
0.6235083,68.44495
0.71963996,71.25111
0.826546,73.79109
0.85727483,74.82279
0.86413926,80.225494
0.9870672,78.7309
1.1368095,81.82379
1.1201384,85.34192
1.1602708,83.99997
1.2578528,88.65341
1.3895925,90.025154
1.2781161,93.46888
1.3464985,92.246376
1.4264907,95.79219
1.4239169,100.93971
1.5025359,102.24469
1.4382958,101.48956
1.6141385,103.3305
1.5084704,105.25358
1.4649891,105.67314
1.511224,106.296196
1.5280659,108.42717
1.5899062,108.25303
1.5434903,112.93542
1.6823677,107.36821
1.6291388,111.31627
1.6449606,111.27693
1.6847134,110.45054
1.591016,111.65452
1.6005671,115.6604
1.5455894,113.90514
1.5492117,117.05596
1.5311166,110.85695
1.483283,111.431366
1.5592866,110.923775
1.5368913,111.0692
1.5209554,110.50159
1.4526561,111.432655
1.4467224,109.23893
1.4217908,107.142715
1.4217232,107.1297
1.4017364,108.36594
1.3991541,108.79328
1.4285909,106.364555
1.4003496,102.294075
1.2610699,104.19919
1.3165379,104.09339
1.2865953,101.721954
1.2296247,100.31686
1.2735456,101.459145
1.3376169,97.94584
1.3283298,99.3584
1.2818892,94.66561
1.2714231,93.48197
1.1585028,91.2949
1.247714,90.65377
1.2449615,89.031746
1.2459437,88.332184
1.3191111,86.30349
1.3375925,90.16132
1.2270998,85.47189
1.1764715,82.52946
1.2511811,81.3671
1.2040031,80.080826
1.1435442,80.75721
1.2475662,82.36301
1.1073735,77.84969
1.2029424,77.50797
1.159728,74.66862
1.0632461,72.83963
1.0374326,72.77683
1.0649996,72.15133
1.0128552,71.62213
1.0314897,70.145004
0.97106,66.54885
0.8810202,67.55832
0.8984004,68.28066
0.83853346,65.06228
0.81117964,61.97736
0.8194135,59.32656
0.7591126,61.171253
0.8447877,60.134945
0.74938786,57.04747
0.8816734,54.675877
0.8724368,54.592827
0.6384122,56.42673
0.81480426,52.406387
0.6665422,54.41873
0.82071173,50.383617
0.81134415,47.374413
0.92095596,46.681
0.6932775,48.288452
0.81511503,47.653336
0.80458933,48.43155
0.73539996,45.012566
0.767868,44.315533
0.7942213,41.64677
0.7093867,42.731884
0.62598896,40.866676
0.7087868,41.265247
0.72714484,40.290047
0.7148519,42.050564
0.68386525,40.0
0.6704011,42.506832
0.63464946,40.0
0.5372699,40.0
0.46726808,42.611347
0.56814444,40.054153
0.57639974,40.55619
0.486403,42.86465
0.54119605,43.588455
0.5198815,40.816887
0.51349175,44.04597
0.5209005,45.27947
0.5406757,45.00372
0.518166,44.057747
0.5282933,49.670883
0.57680833,48.661488
0.51785123,47.31928
0.61503536,52.966625
0.6093172,52.67713
0.7107029,58.47104
0.6884129,58.56128
0.8260951,62.100903
0.93577445,60.450867
0.9656357,62.12831
0.9821,65.560875
1.0350059,67.06746
1.027333,68.49889
1.213928,76.78985
1.2014303,75.96504
1.4313462,77.98431
1.3236219,81.51731
1.3405054,84.33509
1.470837,82.577614
1.5528597,84.944466
1.5731391,91.037056
1.7092818,92.219894
1.7043214,91.2226
1.7924411,94.5052
1.8830086,98.027176
1.949352,98.91618
1.7951531,99.08639
1.779907,104.76992
1.9431762,103.361565
1.9450518,104.43751
1.9240739,102.45594
1.909096,106.31621
1.9175673,109.11246
1.9102436,111.176254
1.9392111,110.31737
1.945301,109.96816
1.843958,112.544044
1.9951216,113.31949
1.914474,113.72558
1.9529457,113.36418
1.9400781,113.9729
1.9659756,115.69776
1.928438,113.84672
1.9709408,112.645935
1.89758,112.0615
1.8728738,113.809814
1.8416779,112.66263
1.8528937,111.43172
1.8774068,111.87694
1.8389076,110.8704
1.7340989,107.516655
1.8225988,109.27872
1.7714428,107.88316
1.6750987,106.29549
1.7010237,103.88617
1.6534921,105.77758
1.652812,99.90167
1.5797669,104.494545
1.6543231,103.11616
1.5144897,101.18545
1.5995122,100.016754
1.5110955,98.313034
1.585741,97.84699
1.5950159,97.14763
1.4952401,93.31249
1.4889435,91.53941
1.5689694,93.495026
1.4409846,91.24861
1.4755824,90.52804
1.5233896,87.99141
1.4614413,89.25427
1.4158105,87.45052
1.4447796,84.39779
1.4745141,81.54333
1.4115251,81.706924
1.4718977,80.32966
1.343753,80.42174
1.3305249,75.40759
1.3498113,79.585686
1.3129709,75.01565
1.3532244,74.9107
1.2171323,71.16371
1.2066089,72.10546
1.211114,71.786644
1.1875808,68.68047
1.1465228,69.4191
1.0626965,67.66722
1.0979109,64.68556
0.9872326,62.612797
1.0423789,61.493725
0.8800643,61.240196
0.98687893,58.64648
0.9430126,58.1011
0.85929495,59.273407
0.9697822,57.295273
0.90491354,55.164318
0.97172123,56.01385
0.82332754,53.55108
0.7850226,51.948425
0.8612612,50.41504
0.86908454,48.381287
0.8249121,49.5547
0.8982264,46.610146
0.83364,47.605053
0.79498976,44.91111
0.7669884,43.41561
0.83043605,43.200386
0.9003666,42.05285
0.8815489,40.56361
0.7865908,40.940483
0.7242903,41.349754
0.7124444,41.665264
0.6884383,40.0
0.70890594,40.01478
0.68588424,40.0
0.665879,40.0
0.7321588,40.23537
0.6041689,40.0
0.49025935,40.0
0.5091032,41.74072
0.6067862,40.0
0.46932003,41.6813
0.40806255,43.541348
0.4522665,43.712612
0.44424346,43.837616
0.4245547,44.159378
0.3727034,47.870197
0.46741644,47.334053
0.32663918,50.52219
0.4181282,49.489365
0.49537838,53.43377
0.5538071,52.10931
0.61256623,55.151157
0.6795929,57.251385
0.60085213,58.757946
0.7149415,62.16466
0.81592506,62.55427
0.88614833,64.60313
0.9446155,68.066574
0.95652336,68.357025
1.1308653,72.90138
1.1011868,73.1318
1.1209056,78.300934
1.2095299,80.83358
1.2508217,80.04553
1.4248443,81.19102
1.518695,84.69745
1.4526521,87.36489
1.492352,90.528046
1.6318417,91.73427
1.5284821,92.85878
1.587186,96.9881
1.6458323,94.97507
1.5906429,101.94979
1.6278554,101.847115
1.718281,103.85013
1.7751459,104.18275
1.6322701,108.193184
1.7864989,106.12518
1.6588767,108.19112
1.6407894,108.1139
1.7438105,109.863525
1.7516478,112.334816
1.7555332,113.48542
1.6826931,113.240814
1.6373918,110.47389
1.7549878,109.89213
1.6566089,113.40844
1.5718313,113.55934
1.6632452,112.68182
1.7194697,112.23134
1.7011142,112.81332
1.622137,108.264595
1.6139567,113.53874
1.6071053,110.43732
1.5313538,109.56601
1.5460004,110.775246
1.4445082,109.69956
1.4037102,109.76642
1.4756484,111.50894
1.4277126,108.34429
1.4348992,104.59005
1.297382,106.78201
1.4680918,103.23058
1.3034726,102.04735
1.402901,100.91729
1.2325696,101.856476
1.1514229,99.71942
1.1672237,98.265
1.1400833,96.94478
1.2575557,95.20827
1.21191,92.615395
1.2528836,93.318
1.0562663,92.459785
1.2037479,91.67724
1.1813258,91.19162
1.1043247,89.418205
1.0479664,88.359406
1.16122,83.7802
1.1258385,85.832115
1.0912352,85.24601
1.1649395,81.499084
1.0033382,81.62693
1.0022932,80.16997
1.0737355,78.64317
0.9211283,76.583405
0.86740255,75.429726
0.93200475,73.24001
0.8808819,72.81584
0.8014051,70.78073
0.7512624,71.20038
0.78977865,70.5493
0.7912243,68.5307
0.7266802,67.65072
0.6384877,65.89073
0.55629164,64.70059
0.56731766,63.045727
0.55573064,61.649178
0.5282703,65.01658
0.5326901,60.989296
0.45194018,59.171394
0.48999393,54.683273
0.5486386,54.824074
0.57217526,51.09195
0.48777303,51.940052
0.39067194,49.32882
0.48952237,50.940067
0.5190122,49.47497
0.45238537,49.957546
0.40864477,49.778103
0.527165,46.332695
0.39854407,46.055946
0.5154871,44.81991
0.44079188,42.88367
0.46431664,45.66602
0.40295428,43.298504
0.29942596,43.005962
0.27871093,41.19916
0.3111097,40.0
0.33577678,40.0
0.2987839,40.0
0.15464312,40.0
0.23878855,41.33677
0.24302964,40.0
0.18608019,40.0
0.12976182,40.00833
0.090788044,41.822094
0.03271788,42.39395
0.010163899,40.0
0.017813485,41.750454
0.015033909,41.18
0.029956613,45.348057
0.024817202,43.8304
-0.010139977,47.27587
0.0068910993,49.545067
0.031000547,48.63967
0.09079064,52.73155
0.14433919,49.359615
0.15595087,51.40335
0.20077147,55.057247
0.22463913,57.19525
0.22087832,59.684036
0.37924892,57.125175
0.33695206,64.5664
0.4273547,64.20975
0.61743295,68.31413
0.51348096,70.09883
0.6493147,72.399254
0.7644178,73.87144
0.7769564,77.99977
0.8353155,78.79119
0.9093734,80.900986
0.97389364,82.84686
1.0505272,87.77616
1.0687869,88.61421
1.1227264,91.5448
1.1208618,90.85105
1.1811463,93.92166
1.1378257,97.8342
1.1956525,98.385735
1.3117819,100.48611
1.2973875,96.7511
1.3347414,102.63856
1.366855,104.9939
1.3518611,107.998146
1.3328426,108.54729
1.4222628,107.89489
1.3772743,110.02368
1.3500227,111.43699
1.5161644,111.30103
1.3546698,111.52448
1.4333715,111.25369
1.3939052,112.38384
1.2768289,110.06165
1.3092333,113.36175
1.2670628,112.94345
1.4104704,114.96797
1.3713403,111.45657
1.3246386,115.66204
1.2384357,112.29489
1.2082183,112.79653
1.2981465,113.775116
1.183514,108.54478
1.2419106,113.287094
1.1993544,110.07196
1.0652022,108.60107
1.2517754,108.68696
1.1276628,108.47034
1.0663055,107.62293
1.0550995,103.15721
1.0631335,104.83913
1.0006618,103.13649
0.9754946,103.56047
0.98126084,103.635574
0.99876046,102.74183
0.89619803,98.14736
0.94353193,98.94612
0.9215987,98.25386
1.0127277,92.53125
0.9358716,96.149376
0.9149765,93.68542
0.84351975,87.54603
0.83078784,91.702866
0.9363629,90.651146
0.94625825,86.875496
0.7843366,86.44447
0.856534,83.6403
0.9238615,81.5575
0.88328695,83.776085
0.8862914,81.953896
0.7642003,80.350746
0.8339109,78.415276
0.7155038,74.561516
0.6499871,76.14895
0.7026873,75.15666
0.6125977,73.20569
0.69230616,71.03516
0.74183935,69.89137
0.6102408,70.13877
0.5113972,68.41647
0.51083505,66.41741
0.5770073,68.97336
0.5018336,65.43055
0.45734933,60.704304
0.42529047,62.57773
0.40573233,61.93245
0.53466934,59.682976
0.34119126,58.77249
0.34491116,55.66025
0.43506697,55.507114
0.3424998,52.05316
0.4091585,51.51074
0.28799656,53.081192
0.44868547,51.736458
0.37426385,48.75686
0.37881303,51.064175
0.39074254,48.33611
0.38243157,45.593307
0.33920878,46.0344
0.36661807,45.355347
0.35096928,45.94257
0.36971918,44.67967
0.27478334,40.0
0.42854038,40.0
0.32254028,40.91244
0.26509273,42.41748
0.31055823,42.28883
0.3058354,40.0
0.28846046,40.0
0.15410848,40.111877
0.16180052,40.0
0.13584314,40.0
0.15742998,40.0
0.07858935,40.0
0.06240226,41.546707
0.029970463,40.310036
0.08225732,42.78211
0.02467212,42.721626
0.07720422,40.939354
0.033564154,43.31452
0.05050929,43.915867
0.015585824,47.509052
0.17698926,49.51119
0.13024265,51.192204
0.20976734,51.24601
0.22040081,53.50113
0.23511972,58.307785
0.32665467,56.50087
0.4401961,61.34257
0.42756405,59.660885
0.43032098,62.337433
0.54242444,62.044277
0.59175324,65.496475
0.62260205,69.66259
0.7773494,74.09616
0.94481534,75.43161
0.9514089,76.27081
1.0336494,80.80638
0.9953145,80.40266
1.1210598,83.406784
1.0965682,84.8374
1.2328435,90.67612
1.3277769,89.27982
1.3719748,91.00622
1.3546606,95.939316
1.4487445,94.693275
1.3559219,98.27386
1.3836706,100.207634
1.3884827,97.8097
1.5168158,103.760025
1.6030756,102.61873
1.5759156,105.119125
1.6617079,109.3114
1.542687,108.71567
1.6217932,110.18754
1.6056945,110.9364
1.5404176,111.48083
1.578824,109.37394
1.6606768,110.69059
1.6159328,113.76715
1.6720471,111.88225
1.5595787,114.37397
1.731232,113.983604
1.6187347,114.16094
1.5824689,114.77788
1.6069864,113.51979
1.4733121,114.54252
1.5782105,113.2999
1.5493602,112.896385
1.5524071,109.61437
1.5053942,112.36981
1.5006982,109.67399
1.4342229,111.328224
1.4071541,107.95814
1.4011421,110.004715
1.407649,105.76332
1.3328477,105.184906
1.4302715,105.3389
1.3660824,102.382904
1.3068252,102.96555
1.2982738,102.670685
1.2299428,100.04141
1.3177,98.07195
1.3245987,97.41911
1.2662617,95.553474
1.2915612,95.55413
1.3156587,93.08836
1.2550405,92.73728
1.2582898,88.18539
1.2826608,89.198456
1.1505525,87.463165
1.3062936,85.37712
1.3394632,83.510445
1.2634519,85.72853
1.3192407,80.554085
1.2345426,83.540955
1.2755797,80.69668
1.2824132,81.09363
1.1658963,78.23201
1.1623715,77.69798
1.1871047,76.072334
0.9700677,76.68687
1.0159695,72.78681
1.0821823,73.756134
1.0297529,71.61391
1.02517,69.1509
0.9591775,68.59951
1.0038931,66.173065
0.93244195,62.022156
0.978608,68.21074
0.8579855,65.029976
0.8330717,63.080875
0.7837613,60.559334
0.8310847,56.63261
0.813482,58.397125
0.87047195,59.75121
0.7860589,58.286873
0.8141722,56.6697
0.8388434,52.27312
0.7469918,52.600037
0.7944679,53.03206
0.86676735,50.33442
0.7818466,49.580215
0.6976674,49.21881
0.7693226,48.50917
0.8147195,46.38478
0.80476624,46.129246
0.7880162,44.279324
0.84167266,44.780075
0.7939813,42.23933
0.80566835,41.85954
0.7711088,42.30635
0.72926116,40.0
0.7667498,40.0
0.7019774,40.26494
0.71568,40.0
0.58068943,40.507187
0.69221187,40.0
0.46951616,40.0
0.62060577,40.926224
0.5633391,40.0
0.5221511,40.885624
0.54291964,41.159935
0.43594778,41.03954
0.4439044,41.25942
0.46013728,45.01705
0.507807,44.84226
0.56033635,48.050358
0.5569405,47.823406
0.61832285,48.299103
0.54002005,50.67021
0.5698862,52.7846
0.5361622,55.63298
0.7144501,53.812756
0.6642094,55.52986
0.772417,58.546318
0.7836029,59.852165
0.86422,63.639416
0.95794,64.07044
1.102188,65.6645
1.1705289,71.526695
1.1483375,69.42349
1.1993645,75.68866
1.2979409,77.430405
1.4134669,77.50576
1.4413841,83.2997
1.4119813,84.111725
1.5418736,87.51809
1.6571807,87.533875
1.7241491,89.77537
1.6621574,90.37489
1.7778351,91.70834
1.7754931,95.921074
1.8605257,98.99402
1.865014,98.21153
1.8693149,100.54792
1.9111003,102.35748
1.9258016,105.69841
1.9621991,104.96751
1.9343182,106.94272
1.9627275,109.44491
1.9282976,110.66037
1.9532773,110.88295
2.0149302,112.66328
1.9550529,110.02134
2.00159,110.69134
1.9118838,112.97138
1.8531269,110.969925
1.9086268,113.510826
1.9599438,113.21828
1.9281421,114.73943
1.9162271,113.23138
1.9096719,110.9422
1.8569444,114.05389
1.87789,113.67882
1.8148745,112.57031
1.8222386,109.07339
1.7056267,109.74146
1.7591081,109.474434
1.7867813,110.187744
1.7519336,109.64112
1.7074323,105.7677
1.7124923,107.2485
1.562061,103.895325
1.6803328,107.78499
1.6283042,105.86156
1.5663304,101.971115
1.5251402,100.95934
1.5769336,100.88074
1.6291068,99.59645
1.49829,95.73909
1.5429492,95.66564
1.6028641,96.91722
1.5512223,94.47794
1.5251282,91.4054
1.4609483,89.97827
1.5053662,89.26643
1.5206091,87.72214
1.56918,88.15034
1.4335941,83.35781
1.4803174,84.59803
1.4334012,84.63116
1.450995,83.19777
1.309572,79.92807
1.3835996,81.41017
1.3885834,79.43187
1.3403376,76.11686
1.3330064,77.44125
1.2290715,76.70344
1.3429751,74.2472
1.2379162,73.59292
1.1772393,73.58064
1.1098026,69.10818
1.1519755,71.35101
1.0139318,67.617195
0.9933243,66.99918
1.0130621,68.01777
0.87767357,65.09091
1.0274885,62.37529
0.9853305,63.007656
0.94547415,60.86686
0.92070115,58.66962
0.91169167,55.9424
0.8205198,57.136887
0.85381585,52.306244
0.9205353,54.666214
0.899959,54.486732
0.7966817,50.895462
0.87302077,50.38275
0.8589668,51.579735
0.8245034,48.06692
0.83488095,46.28997
0.8502605,47.85059
0.81848234,43.133713
0.7777756,44.26211
0.88486433,41.956017
0.7178463,42.890736
0.757742,43.724766
0.81083596,40.656178
0.7949937,40.817547
0.76484716,40.0
0.6424921,40.0
0.690325,40.0
0.5933918,40.0
0.6665017,40.0
0.54108495,40.0
0.589426,40.0
0.5618894,41.348614
0.5023491,41.648575
0.39215145,40.859974
0.43490148,41.038902
0.45966846,40.82271
0.46052223,43.91026
0.44342986,41.870117
0.4490039,45.690495
0.4167399,46.311398
0.5289284,47.9509
0.4470599,48.855988
0.43427342,51.7053
0.55137235,53.19197
0.49903095,55.150826
0.5604552,57.60545
0.7565163,59.03683
0.66389984,62.462017
0.73152,60.33367
0.82682955,62.37437
0.81588453,67.0374
0.98394036,70.10894
0.96983653,72.46518
1.0247777,74.64652
1.1069075,74.92645
1.2300128,77.844215
1.1806377,78.86391
1.3117161,83.02174
1.3419433,86.03926
1.4074103,85.99639
1.4379874,89.517944
1.5545058,90.44404
1.4998288,94.7833
1.5965028,93.33173
1.6564007,97.83278
1.6188519,98.94409
1.6915663,101.92967
1.6035564,103.16682
1.6419156,104.42815
1.6688143,106.269066
1.7070141,107.237816
1.6911707,109.99083
1.6275611,110.19896
1.7905492,113.965225
1.7194915,110.29098
1.6929259,111.216446
1.7507355,110.57643
1.757452,115.01352
1.6752962,115.82239
1.703709,112.11137
1.6728848,114.41274
1.617404,111.09177
1.6014152,113.62521
1.4778637,109.51133
1.5749551,113.73562
1.6221116,113.92747
1.5766473,111.444664
1.5047302,112.416725
1.5256635,108.92295
1.4051648,110.71634
1.5459622,109.94472
1.4440136,110.66458
1.3747894,110.81995
1.4057888,106.09388
1.437864,106.42344
1.2138395,105.52898
1.2680439,103.10168
1.4052066,103.2495
1.307253,100.45838
1.2372054,101.74803
1.2238721,100.122154
1.2473329,97.00407
1.1969287,95.46751
1.155397,92.362404
1.2265811,93.841
1.1259028,91.76615
1.1795436,91.99553
1.0758864,91.25989
1.1104012,87.55033
1.0506166,86.57734
1.0433031,87.15327
1.1101407,84.65789
1.0388566,83.04325
1.043715,83.08611
1.0414188,79.59713
0.99726796,81.32605
1.005613,75.218796
0.94334245,77.93502
0.88169533,75.69234
0.8862139,75.86188
0.8507658,73.65076
0.8605369,74.15777
0.8338573,72.00987
0.80598056,70.317314
0.730147,72.394356
0.72082424,70.33944
0.5379465,68.89475
0.62237793,66.52391
0.68736327,62.27717
0.5734153,64.82028
0.52268577,61.262424
0.6196849,61.675495
0.54493964,58.20464
0.50924414,56.791622
0.5600936,56.538666
0.50937825,58.688683
0.40723228,54.562225
0.45745707,53.780167
0.5230623,52.57061
0.3887349,50.62486
0.4287852,50.222645
0.45973834,49.578938
0.35719907,49.05546
0.43893483,47.549675
0.36081675,45.02902
0.50717133,45.159523
0.38561934,42.952652
0.32424375,43.093464
0.39543766,43.6782
0.31284276,44.667717
0.3756472,42.291607
0.26982272,41.08161
0.23425302,43.113266
0.29803088,40.0
0.23015101,42.707474
0.062940516,40.0
0.11029925,40.46655
0.07727798,40.0
0.07034666,40.0
0.013025849,41.662624
0.117137946,41.67531
-0.011636703,40.315727
0.03056829,40.0
-0.06428513,44.14989
-0.019231563,43.490562
0.031104112,42.00537
0.042835563,47.626785
0.050838903,45.92762
0.02084543,47.87033
0.084494844,50.83624
0.13810411,54.336136
0.14954963,52.75845
0.17535281,58.20154
0.22955614,59.06395
0.33083656,59.952618
0.3219651,60.711468
0.5018558,62.574726
0.46506622,66.292046
0.59885794,69.21683
0.694452,70.446915
0.6063949,70.61771
0.70006216,76.45353
0.75075036,78.206604
0.8719363,79.46413
0.81908953,81.32743
0.9408759,85.94406
1.0277307,85.942215
1.1344054,89.93174
1.1394042,90.65121
1.1713834,92.24904
1.2518783,94.34606
1.2411866,99.528755
1.197701,97.99174
1.3378527,100.81139
1.2331306,104.73616
1.2656964,103.99372
1.3299671,105.17349
1.2946385,106.85576
1.3943152,109.12135
1.3492686,109.19094
1.4164501,110.20545
1.4314543,108.92816
1.3541644,111.82874
1.3774567,112.66135
1.3167794,110.44394
1.4297287,113.699844
1.4528104,113.99608
1.3853995,113.59112
1.168342,112.31155
1.2489434,113.11115
1.2843305,112.02664
1.2287145,114.71119
1.2945242,112.47821
1.3219379,112.7298
1.1768389,112.00167
1.2746731,109.999794
1.0613157,110.45888
1.1522729,110.4645
1.2325824,107.55883
1.1459459,109.3421
1.0934049,106.28454
1.1184314,108.33371
1.1139365,103.290565
0.9762569,103.40387
0.88282603,102.56295
0.95345724,102.66704
0.9615557,100.76605
1.0453176,98.81989
0.94858646,100.17518
0.9108157,98.102615
0.9481028,95.32803
0.96733916,94.921036
0.91149306,91.9853
0.9400493,89.64232
0.8773129,91.35768
0.97946626,88.55246
0.93601584,85.5762
0.8894176,85.79215
0.947581,85.2017
0.83460486,84.44975
0.862503,82.48129
0.82419384,82.537056
0.8544549,80.12991
0.9131498,79.36462
0.80220664,80.719864
0.8538786,76.98459
0.7618527,73.37114
0.7199245,72.80884
0.76470155,74.54273
0.7372055,74.90545
0.68433094,71.25724
0.6556515,66.98117
0.60690844,69.11043
0.58636737,64.708374
0.5841515,65.13706
0.56094813,64.09848
0.53222317,61.778854
0.4791409,62.171707
0.4880647,61.5469
0.44607815,59.153046
0.5033405,57.74956
0.35133594,57.458244
0.41043016,54.91812
0.41322154,54.20876
0.34924328,55.485043
0.4054402,49.25119
0.3567672,51.81316
0.48481897,45.861343
0.44747904,49.021145
0.38915285,47.53806
0.35416394,44.58279
0.43412054,46.838634
0.4040387,43.279846
0.35095015,45.05574
0.3910917,42.44827
0.34304217,43.639347
0.33615133,40.329617
0.3182193,42.71823
0.30493557,44.121853
0.369495,43.714176
0.26884213,40.0
0.24507378,40.0
0.25131345,40.0
0.24552403,40.0
0.25097862,41.973354
0.18069467,40.69653
0.18422173,40.207146
0.15660168,40.655136
0.042727545,40.0
0.14784972,42.634758
0.08885169,42.34152
0.16404083,43.380123
0.14330138,45.635845
0.12382766,45.616634
0.1838695,48.997414
0.1923001,49.859688
0.14363587,50.74972
0.24850866,53.72937
0.30403715,53.69811
0.28067082,56.075012
0.38554108,57.612267
0.49481344,59.008846
0.5171393,62.307236
0.625947,65.5271
0.6421769,64.346016
0.68327045,69.92409
0.77332187,69.96523
0.8384998,73.88583
0.8967465,73.936806
1.0018677,78.89773
1.0732285,78.33777
1.1386847,78.76177
1.1784303,83.76964
1.2966982,86.14925
1.2570937,87.605446
1.3424752,90.21132
1.3278348,92.444885
1.4119314,94.235916
1.464983,96.478195
1.4612526,97.59746
1.5608747,101.06361
1.5793056,103.334816
1.6313417,103.696724
1.5724583,106.32616
1.6133353,104.65236
1.6689538,107.96498
1.6190177,108.93245
1.5384076,110.66399
1.6681944,110.906494
1.6993328,110.50619
1.7013324,113.576065
1.6845092,110.959755
1.6119353,112.83933
1.6735983,113.050575
1.6335926,113.65384
1.6166902,114.086296
1.6633834,115.24964
1.6576897,114.28675
1.5785644,109.74043
1.6518463,109.56443
1.5954218,110.61316
1.6163888,108.995
1.464603,110.26558
1.5226132,110.63218
1.4897467,108.293365
1.4199742,109.38308
1.45272,105.49903
1.3913692,106.320885
1.4292445,106.28707
1.3845171,105.8008
1.368041,104.10926
1.3900943,101.887024
1.413748,101.72944
1.4010341,99.27097
1.2930764,97.46346
1.3764218,98.7357
1.3248082,95.988655
1.2540969,92.97756
1.3409662,95.68153
1.2749053,93.60499
1.3157325,90.024826
1.3018222,93.04128
1.3384527,87.84579
1.3631889,86.536835
1.3212873,89.78595
1.3508855,88.24589
1.2828634,83.52036
1.2963132,79.859184
1.2795894,83.959755
1.1021742,78.95059
1.168352,79.12261
1.1515849,77.42127
1.1870981,75.86065
1.222928,77.157936
1.1324961,74.295746
1.1909341,74.0355
1.0644196,71.62435
0.98305035,70.76117
1.0825186,69.354004
0.94839144,68.24312
1.0798659,68.35526
0.9421031,66.91306
0.9124671,63.31851
0.9984917,63.64061
0.83346784,62.35575
0.90443313,60.31523
0.8248304,58.59885
0.78272384,59.36259
0.86968607,56.17994
0.95922965,53.690273
0.9311807,54.479935
0.8243691,52.727325
0.86550874,53.91364
0.8011109,49.119816
0.81206566,48.066837
0.84606475,49.237698
0.73745406,45.224995
0.8406188,46.58569
0.8840341,45.803688
0.90194297,44.34082
0.8389665,43.390644
0.7534559,43.326202
0.89179426,40.079628
0.8729738,40.724857
0.7740509,43.572445
0.67950016,40.496155
0.73692346,40.0
0.66050154,40.0
0.6870966,40.662903
0.6426642,40.0
0.6524656,40.0
0.6594018,40.09611
0.62450886,40.0
0.5428767,44.51871
0.49694014,40.168354
0.48624682,45.038536
0.4276799,41.839203
0.5222127,43.943184
0.47447026,43.617275
0.50347406,45.494835
0.5249115,46.842937
0.49422842,49.363205
0.4776115,49.072346
0.6082659,50.784264
0.7090459,53.707283
0.67541146,55.64658
0.6732879,57.764496
0.79714996,59.524967
0.8644244,58.9096
1.0054642,63.423626
0.8631874,63.633575
1.0930011,65.54306
1.1212275,66.32224
1.0676526,67.70089
1.1777867,74.24333
1.2420813,72.34492
1.3823638,78.53539
1.3888603,77.91809
1.4679424,82.28818
1.5657071,84.98652
1.601959,87.46628
1.6589332,85.99949
1.704194,89.6808
1.7083163,93.20793
1.805966,94.01027
1.7206782,94.88196
1.8682383,98.500084
1.9184926,98.2693
1.8722745,101.05131
1.7977839,105.564354
1.9409881,104.09728
1.8613408,108.046776
1.923761,108.979805
1.9597458,108.521866
2.0476472,109.87102
2.0664089,109.36939
2.0604746,110.42285
1.8927711,111.92085
1.9426286,115.525345
