ppg,abp
1.0247728,109.90503
1.1800581,116.927704
1.2218989,116.38163
1.3466833,120.22464
1.3849874,123.1281
1.4209461,128.19092
1.48368,131.22467
1.48526,132.42007
1.5754563,132.4579
1.7029959,131.37457
1.6349787,139.28767
1.6919788,138.47597
1.7099549,138.78902
1.669874,139.21844
1.7088523,142.1833
1.7071747,144.64087
1.7896101,144.86084
1.7254274,149.3836
1.7070506,147.48836
1.7875856,142.51367
1.6407361,148.02116
1.6567941,148.38716
1.6896995,149.27116
1.658862,143.66376
1.6231118,147.3506
1.6033714,146.02766
1.6417117,143.62216
1.4765823,144.4674
1.5760545,144.56297
1.5316929,143.34636
1.5388808,138.28806
1.5336881,140.64307
1.4346896,136.87411
1.4483907,136.58241
1.3780799,137.77985
1.3520188,132.49654
1.46824,129.74084
1.3883474,130.724
1.3930517,128.82626
1.3630959,127.023865
1.4026275,125.27624
1.350778,127.04448
1.2703485,122.544136
1.2930282,122.93033
1.3236871,119.475296
1.3333579,120.64201
1.3265048,117.95783
1.2547089,114.49249
1.2098159,111.66284
1.1191107,110.33699
1.2279336,109.76677
1.1658419,106.18576
1.1077793,107.88988
1.1042821,108.12259
1.0108804,101.57865
0.9980865,104.32816
0.92467594,101.538414
0.9157147,100.02758
0.8656056,98.435684
0.8569756,97.0786
0.8932538,94.56516
0.92287296,95.53884
0.89645875,91.124084
0.84032553,89.719315
0.84916085,86.29052
0.8701446,88.940895
0.8448538,88.70673
0.8174351,85.091896
0.8130171,85.889824
0.9052865,83.09452
0.8534286,81.2158
0.84220535,78.261665
0.8255176,78.533966
0.75720954,81.45779
0.7161529,77.04841
0.78129286,81.65213
0.66627896,80.69818
0.65446055,77.89345
0.61375314,80.60803
0.61981106,76.71404
0.5890229,78.84943
0.5216206,81.0071
0.4844757,77.59683
0.54050547,80.022194
0.50983614,81.74767
0.53700244,84.11316
0.5674705,83.00129
0.6247986,87.81584
0.60064656,89.74854
0.64811015,91.765335
0.6675288,93.79054
0.81303537,94.23278
0.83335567,98.2986
0.82395846,98.71567
1.0437217,100.50227
1.1093477,104.03077
1.141141,108.40506
1.2832446,113.82064
1.3561658,114.67336
1.5239357,117.0991
1.5145901,120.24596
1.6077163,121.541405
1.7007009,126.19673
1.6798995,123.29107
1.7761365,127.13072
1.761025,133.85695
1.8832135,135.48532
1.8586694,137.52599
1.9087671,141.98354
1.8727833,139.56445
1.9327372,140.07532
1.9766513,144.38574
2.0093763,143.45428
1.8772963,145.59988
1.9851886,145.96326
2.0484128,144.37888
2.011351,146.47261
1.9921818,146.91582
1.9135458,146.51448
1.9814607,148.28693
1.8433243,143.76556
1.8371992,146.2921
1.8963686,144.6124
1.7863097,143.29297
1.82194,148.44644
1.7378864,142.00905
1.7795893,144.67996
1.6954302,137.80637
1.6824219,137.36461
1.5798063,137.63356
1.662353,137.8761
1.6079992,133.75653
1.5555462,133.47588
1.5254971,131.88478
1.4656278,130.10252
1.5569911,125.391624
1.4518486,126.98333
1.5386151,126.63825
1.4492062,125.79454
1.4839176,122.87528
1.4867642,120.69867
1.533241,121.44194
1.3509856,116.39767
1.4733379,118.66044
1.3073205,116.456116
1.2544847,110.87399
1.3461407,111.18638
1.3038528,112.04528
1.225007,107.10089
1.1820297,105.75295
1.1627301,108.68985
1.1737888,107.59187
1.1232706,105.200935
1.144722,102.2951
1.1311066,99.68575
0.9709518,98.137794
0.96228504,94.09348
0.9269602,95.970375
0.89352536,90.737854
0.9280764,93.03516
0.964993,92.508224
0.88812095,89.36864
0.8573108,83.23907
0.8952325,86.21427
1.0020771,86.49811
0.892377,85.06339
0.88677704,81.37662
0.78484726,80.956795
0.7945832,78.77086
0.80185187,81.00935
0.8431595,81.60895
0.8630518,80.114975
0.73648983,77.70185
0.7357375,78.14482
0.6860455,78.5169
0.6224854,76.880104
0.6038091,77.67316
0.59518325,78.30743
0.45913187,78.273674
0.5065692,79.68127
0.52536654,82.159515
0.43169522,82.74615
0.47764847,81.96727
0.49315408,85.507256
0.56573313,85.146034
0.5054735,88.43127
0.6242364,90.8828
0.65860873,91.12035
0.73028266,94.98119
0.77882403,95.2342
0.8353782,98.28512
0.91994935,102.00232
0.969057,104.34159
1.1129981,106.43542
1.1998297,112.22567
1.2318997,112.91235
1.3283355,113.927986
1.4576092,117.993645
1.3974378,122.36944
1.6249558,121.62857
1.5811526,127.169426
1.6197408,127.98879
1.652423,130.31178
1.6541358,133.55199
1.6802846,134.20268
1.7366247,135.12228
1.748564,142.12228
1.8070967,140.60617
1.7582891,142.50536
1.7936774,141.52933
1.7001162,144.77266
1.7811382,144.53775
1.8216438,144.64137
1.7970448,144.7148
1.6929088,142.1525
1.7083156,146.64677
1.7886279,144.73824
1.7348373,146.69983
1.6249478,143.30902
1.6570891,148.35019
1.7429057,145.49834
1.6119316,144.22899
1.508901,142.4406
1.5296215,143.49529
1.5021611,137.03598
1.4554657,140.42566
1.4679983,140.09749
1.4403747,140.0366
1.4108272,136.81331
1.3859771,136.02853
1.3233405,133.51027
1.3197606,131.89677
1.2818995,131.35774
1.3094873,127.5558
1.3178287,126.227844
1.3401097,124.66895
1.2683508,123.747635
1.1718209,123.19774
1.2593583,122.73675
1.2155606,116.63461
1.1318969,116.797455
1.2173324,112.220245
1.1226884,114.96819
0.99285555,114.20889
1.0832151,111.259315
1.0686859,109.144554
1.0297699,107.78362
0.87406975,106.8785
0.8155433,109.21912
0.8790483,105.07498
0.76139724,103.116714
0.75153273,99.57646
0.6659791,103.26434
0.59147906,94.9999
0.6805639,96.78526
0.65912724,92.76229
0.6173232,92.629616
0.7024276,90.57177
0.63636816,92.60918
0.59487313,88.39707
0.6678326,89.453186
0.58070725,87.606155
0.57613105,85.00234
0.58640647,80.40178
0.5277981,84.68119
0.54981834,79.439224
0.49872816,79.45598
0.52520853,82.3106
0.48679745,80.67321
0.47033158,79.35025
0.47358602,77.0859
0.4046015,81.26668
0.24278972,78.188995
0.327282,78.03723
0.21251096,78.06315
0.28829575,77.25779
0.21414202,79.38632
0.19446358,81.12319
0.12885244,80.12288
0.1460239,78.78672
0.14707588,87.30995
0.107458964,87.300606
0.25888243,86.41529
0.17462896,88.30223
0.20379789,92.78708
0.33281475,94.8309
0.44065988,94.2567
0.4797101,100.0084
0.5345595,102.48528
0.65297216,103.72061
0.62450254,106.62716
0.8439523,110.75156
0.91849256,111.08601
1.0166364,115.78821
1.1362888,116.77513
1.108609,120.913895
1.1477368,123.55885
1.2166508,127.100945
1.3259567,127.57652
1.2961789,126.68158
1.3499691,133.81126
1.466128,135.78583
1.4586363,135.24117
1.5310153,139.52887
1.4802307,139.57399
1.460223,145.08148
1.396651,143.56952
1.4829773,146.05759
1.4927514,144.91835
1.4715943,147.91197
1.4978158,148.14977
1.4167508,147.44072
1.3562999,148.87514
1.42033,145.67058
1.3931515,147.79828
1.3482124,149.36375
1.3358489,146.04886
1.3277227,148.20494
1.357926,145.6682
1.307899,142.90677
1.2203963,142.10358
1.1922326,143.04231
1.2301018,141.57198
1.0425719,138.6428
1.1148157,138.72551
1.0020887,135.02777
1.129978,134.99756
1.0692859,131.3002
1.0026581,135.28377
1.001515,129.83087
0.9438777,131.36357
1.0382959,126.65252
0.93503636,127.078835
0.95527357,126.41688
0.8743392,123.12692
0.84404004,121.38456
0.9377137,118.695786
0.8242242,116.91269
0.8720274,116.43302
0.8239114,115.05791
0.82929754,113.39492
0.76370764,111.13752
0.68490386,112.19482
0.6858138,110.463905
0.73813856,105.615654
0.65245205,107.39508
0.5895178,105.32342
0.5521824,102.16641
0.55757034,102.78577
0.43414408,102.31901
0.40574998,99.40608
0.3970035,97.81343
0.3813123,96.17726
0.37296158,93.51944
0.29453823,90.576225
0.40024874,92.37862
0.3551177,88.67756
0.36946607,88.0059
0.32519096,86.794395
0.2689441,86.222565
0.39125174,85.2299
0.3101416,81.928375
0.3074261,82.571304
0.34703115,80.20611
0.30044532,81.70197
0.24299283,78.294586
0.26551554,80.95041
0.19824314,78.33437
0.14643781,80.178635
0.20245098,76.242226
0.06689196,78.920494
0.054331385,77.66457
0.067628115,75.35843
-0.022143275,78.76934
-0.02202565,79.117874
-0.025767874,79.81844
-0.04102544,81.070625
-0.052387275,82.76261
-0.08015692,83.624245
0.014824317,83.773544
0.048102852,89.679214
0.10734185,90.14684
0.120208316,91.65898
0.2296696,93.54087
0.30045518,97.27362
0.3484551,99.22949
0.4285102,105.106636
0.6337818,106.9162
0.67314,109.210106
0.7018703,111.04223
0.8381474,114.15903
0.8964658,114.608925
0.9337892,121.25032
0.9748777,121.09879
1.005695,123.2755
1.1835304,127.09165
1.2126868,129.77065
1.2474687,132.07527
1.2944255,134.3661
1.244134,133.43196
1.3214359,136.10204
1.397022,137.74333
1.4658041,142.4865
1.330094,141.18231
1.411831,139.80074
1.3693297,143.6611
1.47178,143.68436
1.3762414,144.73482
1.2989863,147.01538
1.3829471,148.68353
1.4035013,145.31285
1.3066089,147.88892
1.3357399,147.15933
1.320762,146.553
1.2706242,145.42526
1.2020057,145.42538
1.2808378,144.03468
1.1829923,144.80351
1.1546075,141.21626
1.0589677,142.84995
1.0871524,138.58412
1.0468818,140.39542
1.0732255,136.04556
1.1303465,139.58456
1.0307888,135.97641
0.96921617,132.39528
0.99231076,129.93202
1.1589333,129.65184
1.0461031,124.57748
0.931429,125.78161
1.041946,125.98257
1.0007516,123.460526
0.9160095,121.667175
0.95194465,123.889275
0.9316942,120.04154
0.922208,114.093346
0.89104533,113.9875
0.8593968,113.936035
0.8952816,112.43746
0.8341885,110.24612
0.86136764,107.656845
0.74049026,107.66944
0.72516537,105.57978
0.7410444,106.45894
0.6183457,102.296906
0.58156765,102.06355
0.53813493,98.85063
0.55182016,102.05894
0.552498,96.59718
0.48655057,97.682076
0.4709044,97.78838
0.5079648,95.24451
0.46433157,94.00439
0.4713718,88.84939
0.47795296,87.75015
0.47519246,87.38124
0.44936717,87.812645
0.48183146,82.37063
0.5088201,82.82031
0.4959572,85.36923
0.46497983,81.27768
0.41412744,81.039604
0.42537978,81.9645
0.44285035,80.65386
0.4060019,79.72514
0.41959342,74.12268
0.33581245,76.999
0.29422504,75.79764
0.23904815,73.8701
0.22601289,77.91516
0.25605127,75.78271
0.08883329,79.42805
0.19639446,77.6531
0.12231592,79.25901
0.26459754,82.94423
0.11452183,82.55091
0.20088974,86.33972
0.1539251,87.77584
0.29819474,88.023994
0.32585114,86.11117
0.43791133,93.76399
0.45976585,95.721115
0.6142563,98.52833
0.7348479,99.95172
0.73011345,103.20857
0.8034754,102.99067
0.8484488,109.62267
0.92351085,112.97783
1.1706911,117.2818
1.2712146,118.06878
1.2843636,122.14026
1.351419,123.23901
1.3483855,124.2827
1.2917199,127.8237
1.4459035,129.88747
1.4709828,135.63672
1.5475322,136.64777
1.6105537,138.224
1.528676,137.60803
1.6434048,140.8004
1.6372098,142.88176
1.6281977,143.8495
1.6676911,144.31113
1.7163153,144.6155
1.6752819,148.86627
1.6981487,146.7286
1.691286,145.8575
1.6729802,147.07649
1.6859276,146.15352
1.6309619,146.42418
1.6904598,145.9997
1.6275778,144.71823
1.5431448,146.11467
1.5341384,145.83981
1.5146132,144.23584
1.5461435,139.82364
1.4161192,143.05125
1.4141749,142.58888
1.3600518,140.55817
1.3740097,138.68881
1.3932078,133.8948
1.3955745,135.07372
1.363189,132.98897
1.4202864,131.63712
1.3166859,128.81471
1.3005127,127.96592
1.295045,126.41877
1.2044972,125.48294
1.2229954,124.9498
1.2069839,123.36525
1.1810627,122.07571
1.2778444,120.9728
1.260721,115.40401
1.2693833,116.74304
1.2745532,114.786995
1.1559724,111.26544
1.1481832,113.23284
1.1675539,110.13387
1.1186019,109.11363
1.0970775,107.56718
0.98634267,105.290794
0.9310397,102.4998
1.0475603,101.20162
0.986409,100.945816
0.8804922,97.49444
0.8237366,97.05575
0.87185466,97.69295
0.8703497,95.14738
0.7518245,94.36826
0.7940772,93.64202
0.81381583,90.39852
0.7935512,90.3699
0.8024654,88.75866
0.79283786,87.08567
0.84634846,84.78887
0.77206993,83.53325
0.8403333,81.31817
0.84199476,80.879616
0.7965658,79.8206
0.925472,81.7303
0.8065314,79.83173
0.8678836,78.93337
0.73532206,78.14475
0.6717751,77.70628
0.64927137,76.9017
0.64540136,80.09685
0.52964133,79.00827
0.5181223,79.98347
0.5038277,78.23211
0.45941904,77.56939
0.49285418,79.12241
0.4551097,81.12749
0.47661272,83.947815
0.43069944,84.61967
0.46063873,85.94294
0.5750465,89.30817
0.6562581,92.33357
0.68759245,94.1629
0.73461485,92.10022
0.81050324,98.51619
0.947484,101.838104
1.0668486,103.61133
1.0958327,106.1024
1.1918355,109.32263
1.329183,111.014
1.2496953,115.1008
1.442955,116.848366
1.508458,118.27149
1.5568099,120.71366
1.5762054,127.81869
1.7390562,127.29651
1.8488679,128.85303
1.7638946,131.35803
1.9282833,133.4769
1.8629055,135.67784
1.9207815,137.75957
1.8863661,142.22365
1.9182448,139.42282
1.9355718,141.39943
1.9751451,143.29402
1.9863802,142.0145
1.9303952,143.65395
1.966721,147.26068
1.8902472,148.30643
2.012544,148.7642
1.9476892,147.69801
1.9135157,144.73552
1.8446985,147.43265
1.8365226,148.93542
1.8609635,145.41121
1.7843782,142.48286
1.7402581,143.5472
1.762262,144.02165
1.6246735,141.14694
1.6390573,141.1467
1.6370016,142.33368
1.6831461,139.12764
1.6447291,137.1385
1.5822927,135.66212
1.5654713,133.5339
1.5561148,129.59833
1.5390636,131.38766
1.4932775,127.950264
1.4295791,128.23465
1.5069964,124.917366
1.5388206,124.32096
1.4797826,122.901825
1.4876947,119.37617
1.498641,118.63023
1.4672412,118.23253
1.3918763,117.40731
1.3726705,118.10482
1.3907619,115.02439
1.3406167,111.11577
1.2569536,108.4362
1.310726,108.906105
1.2138894,107.53118
1.2408519,107.11482
1.1028577,101.96947
1.1827643,104.693504
1.151969,105.43899
0.95493096,99.53469
1.0132033,99.00081
1.0358603,99.50513
0.9720428,95.92861
1.0147586,95.9143
0.9470258,92.95145
0.97084373,94.02211
0.8698152,90.97418
0.88030833,85.692894
0.9173015,87.3818
0.8646283,83.54816
0.91876376,83.8032
0.8937961,84.829605
0.89297444,81.00804
0.8794818,82.72039
0.82656175,79.230095
0.8564923,76.155075
0.8246736,78.032
0.79967344,81.196365
0.7232415,77.959335
0.70954126,77.990585
0.62956035,77.83447
0.60249704,80.22162
0.63585454,77.543205
0.6193128,80.20085
0.55947757,80.273155
0.4634904,80.64623
0.54074204,78.335526
0.49498916,78.981
0.49757057,84.577515
0.5237634,84.068825
0.623113,87.31263
0.56016105,88.71731
0.5836745,91.401505
0.6796308,92.49782
0.81254697,95.3021
0.83519953,100.47719
0.924795,99.64087
1.0095536,101.597885
1.1266482,108.44411
1.2535826,111.062
1.2730367,115.14002
1.441165,115.41476
1.4532322,118.12545
1.5337114,120.127106
1.5328467,122.44466
1.5479364,126.07166
1.7730138,131.28085
1.8037955,131.65028
1.7634146,134.8842
1.8328447,134.19138
1.7879276,135.94704
1.8803066,139.9966
1.8904665,140.7798
1.8561431,142.44751
1.8640095,144.19232
1.8394097,145.47168
1.8732436,143.84135
1.9126697,146.6202
1.7358141,147.18439
1.7861453,145.69164
1.8057183,149.11674
1.6981845,147.34082
1.7359016,144.85849
1.7691957,148.37767
1.626548,144.73781
1.6103511,145.8613
1.6040367,143.66333
1.6429884,145.94319
1.5981461,141.02795
1.5722945,140.66002
1.501408,139.65854
1.575341,136.8402
1.3851497,138.82162
1.3986323,136.04248
1.4121952,135.0817
1.3853682,132.75937
1.3538594,132.44067
1.3606151,128.84529
1.3382165,130.14539
1.340951,126.78966
1.3365895,122.631325
1.2747968,124.159874
1.2643473,121.95957
1.3173355,121.98727
1.1763221,118.40912
1.1814861,118.53807
1.2090877,119.449715
1.2002621,111.81794
1.0858223,113.39702
1.151587,111.51481
1.0370961,108.084656
0.9801414,107.595314
0.9843305,107.888855
0.93927133,106.87664
0.9746915,103.67363
0.78796613,102.00351
0.83132905,102.00384
0.7744927,98.29552
0.78004265,97.45051
0.73371094,98.281204
0.75506634,96.08565
0.6902156,90.10029
0.6768205,91.15862
0.6557738,91.79159
0.63290614,90.30256
0.54355216,86.58505
0.61991096,86.97277
0.5784478,81.361084
0.60119957,83.6514
0.65576124,81.26598
0.62235487,78.42445
0.56414336,80.79625
0.52922946,78.54425
0.59571844,77.2409
0.46364835,79.73274
0.42308196,79.143936
0.35944968,77.44676
0.35841116,76.67573
0.32418,76.67496
0.2613449,78.75895
0.24398014,77.069824
0.21757826,78.94324
0.1622409,77.83576
0.20178683,76.70137
0.13753329,80.77346
0.23870388,83.47304
0.16324824,84.809845
0.20728885,86.594826
0.26266223,88.98614
0.34218726,92.03955
0.41329402,91.771996
0.43054155,96.436134
0.57016015,97.38063
0.5843423,100.777016
0.67111963,102.0599
0.7990434,107.229774
0.90027386,108.74497
0.9591231,111.42338
1.0659729,113.05739
1.0334624,117.7959
1.1396437,117.58407
1.1587231,124.86196
1.3298708,125.25878
1.2751318,125.42456
1.2693125,132.59215
1.3740766,134.0958
1.4852817,134.73308
1.570551,137.67177
1.4378684,138.18515
1.5192224,139.81273
1.6476377,144.78676
1.5114992,144.95059
1.4579412,142.8453
1.5198772,145.18243
1.4502436,147.66652
1.5275333,150.60596
1.5496484,144.71313
1.4193827,145.0863
1.4935465,150.61975
1.4746481,146.87761
1.3998811,145.60284
1.3433937,146.35268
1.3145269,148.93608
1.3035327,142.67368
1.2576263,146.3703
1.2826577,142.80092
1.2516847,141.5309
1.2805511,140.19278
1.1930516,139.36154
1.1011744,139.0824
1.1555591,138.41583
1.0385166,133.90742
1.0959578,133.89192
0.9798878,131.31766
1.0437125,129.31657
1.0105737,126.21751
0.9978866,127.52358
1.0021026,128.82259
1.012943,122.81824
0.95860237,123.27056
0.89071125,121.907135
0.9343259,121.52413
0.87114245,116.775116
0.85674566,115.92536
0.82262087,115.646286
0.8642883,115.80782
0.7875077,110.90076
0.7738921,108.89697
0.7312547,111.06192
0.6731559,108.25217
0.6290003,105.20954
0.6015812,102.274605
0.5723901,104.155556
0.4940039,103.52727
0.49460202,102.515
0.43990442,99.38223
0.3623529,94.1275
0.34567603,96.67985
0.29210985,91.48813
0.35497403,93.79046
0.35111794,90.34902
0.46640894,87.59727
0.41268244,87.58993
0.37469515,86.066444
0.31816414,86.01763
0.2852503,85.39123
0.3936379,82.01754
0.29248637,80.5609
0.27451622,81.7834
0.3251318,80.29286
0.34152484,77.89054
0.21307045,81.81166
0.19011487,77.93151
0.26650134,81.06586
0.15454623,77.95249
0.049260106,74.71424
0.033438772,79.03535
0.08115347,77.89012
0.0147310775,77.36896
-0.005010587,79.242004
-0.060595203,79.817535
-0.14899722,82.30671
-0.020989403,80.90925
-0.035084493,85.397
-0.01694622,84.833855
0.018635347,88.88573
0.0043260786,91.50136
0.07560699,93.99022
0.28305042,92.34974
0.28030092,98.125916
0.31919384,97.067726
0.36043417,102.97456
0.56783223,106.67109
0.55794936,110.70517
0.69357395,109.2356
0.80035096,114.142494
0.84940666,116.751274
0.98350096,120.74228
0.9879093,117.52031
1.0495352,123.3302
1.1216425,124.4076
1.1475217,129.50452
1.1853297,132.0164
1.2701683,132.4946
1.2712885,133.27536
1.2977445,140.15073
1.2625098,138.1389
1.3308812,141.99706
1.4214127,144.34813
1.3439366,143.52295
1.337083,144.62018
1.4020675,145.37521
1.3996843,149.5609
1.3974236,147.20116
1.3695017,150.46762
1.3975422,147.89658
1.2638272,146.27931
1.3066865,145.95213
1.3606483,146.40694
1.2888798,148.64545
1.2196574,142.52696
1.2674615,145.71759
1.1762699,144.25311
1.1938102,143.56392
1.2292838,140.84279
1.1248561,138.36292
1.022308,139.41
1.0324596,138.60641
1.1388782,137.25243
1.0210654,134.771
1.008075,132.91629
0.9649575,130.2226
1.0622522,129.8338
1.0167876,127.93509
0.9872161,124.94779
0.9898603,127.09919
0.9254354,122.48348
0.8691467,121.397545
0.9242124,122.83602
0.94303876,121.20075
0.9117323,118.64438
0.88244754,114.5112
0.82829237,117.86943
0.7812871,112.839134
0.77092,112.80978
0.7297832,113.51586
0.6751412,110.0725
0.73640126,105.050125
0.6021644,107.0609
0.56825113,101.71719
0.5363858,102.543335
0.46973068,101.287346
0.49254736,99.92453
0.4994809,98.18341
0.41236714,98.81932
0.45978686,94.19784
0.4328729,91.12948
0.46036297,90.5271
0.45557758,89.84468
0.40410084,89.17392
0.36370054,85.949135
0.4050146,83.2856
0.49490997,86.46849
0.485019,81.31786
0.4898164,82.96436
0.40263936,80.161644
0.49585226,81.34791
0.4123407,79.47506
0.30454984,79.5551
0.25277066,76.62049
0.39020598,78.430435
0.2894342,79.64949
0.23425335,77.49579
0.16052745,76.93918
0.15794645,76.438286
0.18352008,76.69322
0.12268258,79.96048
0.1009779,80.15977
0.08265213,80.72798
0.06683411,78.827576
0.06609105,85.18012
0.20799676,87.41447
0.19740106,85.88935
0.18883686,87.510185
0.26493022,91.88857
0.31931278,92.51172
0.47948793,96.24727
0.49341735,99.50967
0.59191686,101.014946
0.5418312,102.459206
0.7538743,104.61306
0.8190478,111.11331
0.9740385,112.125786
0.99218976,114.976944
1.1653607,117.223015
1.1778136,120.54932
1.276994,121.9991
1.2784928,124.996056
1.3293508,128.43858
1.4768649,128.0003
1.4860698,131.12231
1.4416668,135.5967
1.5146682,136.53717
1.5866238,138.73515
1.6126165,142.18025
1.5150167,141.07553
1.5793122,142.2355
1.6623393,146.82928
1.6824694,145.13829
1.7251513,145.51183
1.70929,145.35027
1.6756364,148.49733
1.6250592,147.71115
1.6138611,144.21306
1.6249933,143.3225
1.5825876,147.98581
1.4820819,145.06308
1.5598824,145.99701
1.5370741,142.79771
1.4019454,146.0013
1.4230564,144.47116
1.4351902,144.18106
1.4145515,140.73346
1.3814281,140.54173
1.3057015,136.29665
1.321501,137.2677
1.3354738,137.24008
1.2078583,133.58708
1.2729155,131.67766
1.3564637,130.01363
1.3053453,129.34174
1.2483951,126.53972
1.1556735,126.93568
1.2662098,126.33776
1.1747912,122.45746
1.2466733,123.5935
1.2923734,118.46562
1.214651,119.41048
1.2094527,119.1536
1.0901512,117.22251
1.095074,112.33096
1.2243026,114.187485
1.1025484,105.33398
1.0473835,108.61278
1.1468676,110.68831
0.9848002,103.961685
1.0665934,103.26468
0.94964886,101.61359
0.90396917,102.403656
0.86739576,102.582664
0.861771,97.69632
0.8705466,97.68893
0.8008689,97.068115
0.8040258,94.01146
0.71057,91.02887
0.74982226,89.75132
0.75095254,92.79226
0.67191726,87.172226
0.8470584,84.39638
0.82308054,84.259735
0.8023524,82.8042
0.7796795,82.905
0.7445762,80.785934
0.88033754,79.47152
0.83348614,77.31146
0.69105613,78.60749
0.6651097,77.12674
0.68776745,78.28576
0.5560334,77.77184
0.5581663,78.24084
0.5637206,79.55633
0.5457878,80.402054
0.54190975,79.05017
0.4837962,78.06796
0.4629442,82.42307
0.40389782,81.05167
0.42517492,80.28984
0.41978043,82.6953
0.4592671,85.55523
0.49164918,82.108635
0.5248434,88.914536
0.552664,90.64816
0.69208866,94.99843
0.7459169,92.75905
0.7886578,98.29177
0.91941494,102.95242
1.0496713,103.14156
1.1401887,107.83689
1.1771247,106.701614
1.2751338,110.51927
1.2780408,114.384766
1.4028894,113.22101
1.4260738,114.805984
1.538482,123.30218
1.5423734,123.62636
1.7006309,127.43112
1.6889957,131.1727
1.7810066,133.18979
1.8148803,134.40236
1.8845334,136.15294
1.8870528,139.86493
1.9103081,141.01251
1.843135,139.6349
1.894255,139.36197
1.8379138,142.91293
1.9616203,144.22997
1.9013449,144.67906
1.9362679,144.04329
1.9808606,148.0414
1.8643394,143.32742
1.9895322,145.39482
1.917692,144.77112
1.7669764,146.79037
1.8909162,142.62051
1.7963309,146.70573
1.7934165,145.43315
1.7222805,145.20557
1.6901548,145.28818
1.7076602,139.37233
1.7486585,140.00327
1.7311025,140.65044
1.7117214,139.82388
1.6580642,135.8103
1.5885987,131.73683
1.4884747,133.13774
1.3707685,129.18521
1.5012599,130.69235
1.4634469,127.33119
1.5931304,128.53181
1.5379251,128.4439
1.4909773,124.40446
1.4665608,126.89391
1.4819695,122.418816
1.4587009,119.687584
1.5014894,117.77917
1.4133712,116.57225
1.4692985,116.81345
1.4522017,114.03364
1.3982278,109.58982
1.3243843,112.839386
1.2094501,111.56119
1.1801846,106.87126
1.1339495,107.551994
1.1338183,105.84218
1.1183593,103.36577
1.1339194,103.07966
1.0330076,101.518936
1.0437493,96.34828
0.9886772,96.92321
0.9716259,94.559814
1.0232561,94.66587
0.979178,89.46453
0.95278686,93.44904
0.91920483,89.16955
0.8593201,90.47406
0.9076742,85.531136
0.9350344,83.23642
0.92832935,82.2638
0.9371064,83.06899
0.8207971,82.24408
0.9520719,81.53697
0.874335,79.23514
0.7988277,77.68133
0.80158377,77.771194
0.90814734,75.35127
0.6225146,78.85066
0.711274,77.808426
0.53256315,77.03344
0.7367247,77.751274
0.5786479,78.06476
0.57379055,80.91678
0.5884363,82.16229
0.5013123,77.534164
0.48014402,83.14655
0.5272081,80.75011
0.55947405,84.125786
0.59315944,86.27948
0.59735674,87.08668
0.6668092,90.173065
0.6066988,88.86353
0.77425057,93.313644
0.8338789,96.10897
0.88411176,95.96007
1.0569079,102.79802
1.1535555,103.028656
1.1394007,105.63936
1.1579376,107.99844
1.3104874,113.54395
1.4671773,114.87321
1.4990916,117.858185
1.5715538,122.27896
1.610397,124.60702
1.638644,125.19223
1.6194826,128.4349
1.8360475,131.56934
1.7659945,135.06178
1.8515623,136.52538
1.8475275,138.73512
1.9259028,139.50262
1.83259,143.85966
1.8409462,143.48169
1.9435402,144.44592
1.8754764,145.28174
1.912856,147.93501
1.9175466,146.27959
1.8297539,146.95544
1.887529,147.95598
1.8772538,146.89864
1.8903674,149.79367
1.8227087,145.88799
1.7572156,145.4635
1.7524221,144.32077
1.6421624,145.60281
1.7467129,145.6149
1.715925,143.5641
1.6253132,144.95944
1.6428859,139.37291
1.5974063,140.78345
1.5552493,135.75616
1.4869702,141.01501
1.5646571,133.67458
1.4158026,134.43747
1.3513855,132.82915
1.3982955,134.19408
1.3540788,130.02823
1.3716877,126.59376
1.3838919,128.0921
1.2484586,125.95871
1.3255757,125.414856
1.322447,119.77521
1.2950145,122.361336
1.2696112,122.12469
1.2615489,122.26209
1.2083007,116.44539
1.2429751,115.527954
1.1943568,117.52035
1.1078857,109.57928
1.1492409,107.773544
1.0353177,109.76283
1.0071353,107.09794
1.0069535,105.14971
0.9706262,101.19501
0.91909736,103.772484
0.81227046,100.52869
0.8983853,99.37851
0.8455136,97.50777
0.71179545,96.1033
0.8049289,97.41673
0.6796084,91.72505
0.7450588,91.11486
0.7260581,87.19335
0.74251413,91.174324
0.6896224,85.79678
0.6684115,85.36948
0.69406945,86.781784
0.6878302,84.75947
0.71393603,82.221725
0.6117187,80.642784
0.6053516,83.57306
0.6318126,79.220276
0.5940817,77.37577
0.5714905,80.07898
0.5329891,76.30012
0.48361462,77.696335
0.40246844,76.68393
0.34041977,76.57745
0.3888385,76.63623
0.33890846,76.16106
0.30006355,81.187485
0.2336215,79.29372
0.3245212,82.281334
0.20754696,83.79552
0.19727573,83.04949
0.18116397,85.8207
0.34311342,85.712494
0.27881917,91.0643
0.38574633,92.373825
0.37573853,95.57525
0.5107778,93.242355
0.5695534,99.06939
0.5964196,99.449936
0.6594528,101.49926
0.87763864,107.69757
0.82438844,109.08254
0.9763092,113.48405
1.0184572,112.90812
1.1550429,116.69794
1.2291082,119.4853
1.2171528,122.11287
1.3261695,123.31612
1.3640087,126.86738
1.3765607,131.06128
1.4132221,130.7683
1.4353771,133.54112
1.4717593,138.6852
1.5029786,138.07083
1.5652107,139.182
1.5039077,145.02888
1.5533454,144.18353
1.4275988,143.77539
1.4976294,145.649
1.5752043,144.90674
1.6344368,145.23059
1.4709946,147.16975
1.5568908,146.76738
1.5798477,146.83878
1.4435487,145.06801
1.5159761,147.99704
1.388806,147.63994
1.3380939,141.29478
1.330509,146.06883
1.369122,143.93419
1.3371996,142.74675
1.235335,140.8908
1.2093649,138.499
1.1335161,141.4994
1.2050982,138.54713
1.1898532,134.02086
1.0479307,138.09383
1.0345454,134.02142
1.0224069,132.55931
1.0044175,132.72246
1.0893966,126.67029
1.0575317,128.11098
1.0059233,128.92297
1.0082732,122.64714
1.0623666,121.58374
0.9527523,118.79032
0.96254426,122.640465
1.0024731,118.73656
0.9719451,113.11288
0.9127436,111.84556
0.9223,112.12537
0.8453505,112.35351
0.79350406,108.92789
0.79955393,110.84858
0.6587815,104.5005
0.6150457,104.7218
0.6338454,104.11817
0.5959754,99.75015
0.52633804,100.61388
0.52102584,101.33023
0.4409997,96.991005
0.54102683,94.7336
0.43623477,98.518936
0.36412176,93.87654
0.39878795,92.62501
0.37523904,92.73132
0.42498952,89.53013
0.36636725,91.447075
0.37114885,85.88764
0.35872114,83.161354
0.4237965,82.9091
0.32526156,81.01808
0.39008015,83.958374
0.3760443,80.72893
0.27770898,80.436035
0.28146875,81.37882
0.23372638,77.918365
0.19859992,78.801125
0.1337401,77.60725
0.13970213,79.28774
0.09440246,78.36596
0.047643457,77.82669
0.032887734,76.050186
0.0072134733,78.77954
0.031786427,79.201225
-0.043905348,83.21161
-0.017528811,81.014755
-0.015677733,81.78929
-0.0456538,84.1817
-0.01333665,85.40785
-0.017275108,90.22513
0.08200313,90.23023
0.15809186,91.56833
0.3232069,93.16025
0.25201145,100.890335
0.308334,100.836235
0.4847118,103.003395
0.48597452,106.18717
0.6236184,109.19552
0.81043386,111.36249
0.88275045,110.962296
0.8500179,117.11855
0.97491485,117.71383
0.9989206,122.260155
1.0475075,125.84826
1.1337259,128.30086
1.2411559,130.16588
1.0643443,129.09216
1.281828,133.77092
1.3045565,138.9473
1.2617741,137.99213
1.2187048,139.617
1.323128,141.25769
1.2805563,142.23076
1.3828484,142.36221
1.3578066,143.511
1.39659,146.26344
1.3788645,147.39227
1.3889922,147.40993
1.4014771,151.43068
1.3779899,146.13992
1.2603285,146.30382
1.2639421,149.06174
1.1741894,149.48865
1.2892865,144.89153
1.1772305,142.82764
1.2885562,145.42255
1.1627978,142.31226
1.1366696,141.35762
1.0466853,140.29237
1.0807314,140.38593
1.116757,137.70432
0.9910339,135.00246
1.0391438,138.50304
1.0263549,131.7331
1.0692531,132.76607
0.9489726,132.38847
0.897213,128.15208
0.9364357,126.07026
0.94295144,128.07693
0.91105354,128.1317
0.9571796,121.15987
0.87827104,122.979034
0.9027831,116.32824
0.8695372,119.4028
0.8591899,118.15674
0.89500153,116.40342
0.77535343,113.736244
0.817006,111.89409
0.7839037,111.62079
0.74910605,109.87889
0.7239547,108.05462
0.66102725,107.49845
0.6258124,102.59235
0.57752764,103.57758
0.5682885,101.926704
0.44333,103.112236
0.47937113,99.23435
0.37010786,96.35736
0.4127422,97.2841
0.45730543,93.220924
0.4572518,93.29978
0.4287334,88.51562
0.43546203,89.35098
0.46934178,87.092735
0.48793083,84.40062
0.43879446,87.00062
0.43434665,86.94448
0.4064763,81.79163
0.37336862,83.28975
0.3915049,80.775856
0.44547305,76.60298
0.32051283,78.61937
0.36223218,79.73396
0.22623354,76.6074
0.2734617,78.92376
0.16924825,73.91934
0.22706224,76.997345
0.22220442,76.203064
0.13260888,77.122025
0.1110006,78.224396
0.07830614,78.39547
0.048669454,78.31714
0.025869813,80.48873
0.11612147,81.904045
0.079326645,83.66382
0.06172853,85.41499
0.12967439,87.97679
0.23797143,91.32457
0.27553618,89.766
0.40467706,88.44255
0.39424855,94.7151
0.43477282,97.58026
0.5900717,103.356606
0.67333776,105.783
0.7069344,107.805695
0.819519,111.57154
0.9022789,112.89603
1.0110018,114.56953
1.072453,118.72632
1.1576538,116.88638
1.254909,123.41184
1.179714,124.75401
1.301657,128.69629
1.3947067,128.8789
1.348288,132.88861
1.4650156,135.10774
1.5483226,139.1274
1.4832662,139.50897
1.5507153,139.42491
1.4733891,142.0714
1.5482377,144.1399
1.683759,141.99492
1.5966476,145.4733
1.5281271,145.18936
1.6315837,148.0522
1.5908022,148.14229
1.5723534,147.36165
1.580885,145.47852
1.5925082,150.46927
1.6046488,145.3145
1.4828906,146.89328
1.471359,145.20761
1.4604274,144.71791
1.4618865,142.49628
1.4267149,142.61722
1.4446356,144.10466
1.3994168,139.7775
1.3891311,137.7905
1.257909,138.99937
1.3204943,134.78108
1.2601409,135.23994
1.2146466,131.59671
1.1282351,131.78078
1.2555791,130.13701
1.2138051,131.82039
1.2003356,127.35622
1.2625883,127.02461
1.2050364,123.93753
1.1542329,119.84301
1.1213752,122.17446
1.2130721,117.74575
1.1603557,116.88014
1.1547337,117.21702
1.1423284,114.820564
1.0621569,115.464325
1.045672,113.31963
1.0613569,112.64023
0.97254753,104.37877
1.0605662,106.41284
0.95948064,106.78768
0.8706113,102.73646
0.8758743,102.15921
0.8784784,99.7741
0.8634227,96.88959
0.7634262,98.92032
0.7298251,96.24952
0.70840514,95.248924
0.7475785,96.2806
0.6854926,93.33095
0.7231789,90.021576
0.7285385,89.19279
0.7514338,89.2164
0.8103155,85.486885
0.7398758,84.05075
0.7058521,85.0696
0.7895545,81.152054
0.7288728,83.490265
0.6785375,80.34169
0.72261924,80.59544
0.68380797,75.8227
0.6662116,80.79423
0.53712654,75.19191
0.5729777,76.14917
0.53837883,75.977295
0.58414143,76.85649
0.48553237,78.71737
0.4440347,79.3604
0.4166825,77.1081
0.5016726,82.05445
0.4006671,79.91181
0.39090994,80.55794
0.44399446,80.628296
0.47282073,83.70196
0.45696875,88.549675
0.50945145,90.54723
0.54225945,90.75747
0.6026904,94.70784
0.63718194,93.37853
0.79638904,97.02131
0.8853299,98.04796
0.87519777,100.18782
0.9912638,105.18911
1.1548853,112.1841
1.1817465,112.2284
1.3331852,114.45665
1.3404107,118.35437
1.4774511,120.958115
1.5845022,122.2797
1.5145928,125.144356
1.6139585,127.62317
1.6965078,130.66145
1.7236975,134.38795
1.7682419,134.36942
1.8718352,133.86734
1.9119743,137.52118
1.8405309,141.42177
1.8616378,141.20299
1.9511693,140.7836
1.8682417,143.44945
1.9187684,144.69063
1.9172559,147.44344
1.9029313,144.56262
1.9520358,148.43645
1.9270903,145.64977
1.9167757,150.7353
1.8638767,147.5342
1.7951131,146.72108
1.8837413,147.7658
1.8597822,146.59921
1.834235,142.42046
1.7082283,145.17819
1.738162,144.01445
1.6604611,143.61089
1.7715665,143.10197
1.6734664,142.22446
1.6717592,138.34767
1.667969,136.60976
1.5211912,133.90123
1.5833642,134.14406
1.5021689,133.45024
1.5549874,132.74614
1.5058148,129.6662
1.4841413,130.09514
1.4811335,125.79459
1.5223515,124.18604
1.5547745,123.56636
1.5161657,121.33768
1.3936409,121.82794
1.4398131,118.99566
1.3473074,115.5574
1.4273309,114.131195
1.3702356,111.9662
1.371262,113.738434
1.3113819,108.41674
1.3064852,111.26838
1.2435274,107.18652
1.1697956,105.62479
1.2538555,103.43766
1.1297109,103.47513
1.0868299,101.64149
1.1483797,101.428215
0.97864485,100.03591
1.0356629,94.16821
1.0068872,95.03655
0.97318643,92.537674
0.97863144,92.77414
0.98756105,90.95519
0.8884981,90.32794
0.9535049,89.18657
0.88666403,85.9393
0.94140095,85.79075
0.9593859,82.22515
0.92970264,85.07194
0.90767556,84.30688
0.89652723,81.787445
0.9354055,83.06937
0.8427445,81.710396
0.88847005,77.07383
0.9048399,77.849556
0.7525946,74.898674
0.72520727,75.52969
0.5919656,75.061775
0.71720475,78.47027
0.62277067,75.1754
0.6635827,75.38726
0.5084592,80.347145
0.56727016,82.38785
0.53125197,83.6952
0.5042343,82.14265
0.51772135,80.600975
0.61444604,84.14693
0.6405211,88.995895
0.7449224,89.05819
0.7209147,92.32851
0.7572185,94.33481
0.8279656,96.35878
0.9478331,98.26621
0.9879385,103.41055
1.0336092,105.576096
1.1578411,109.17927
1.2296163,107.8182
1.3309854,114.68319
1.4124012,115.41514
1.4759994,118.83838
1.6554022,119.88338
1.6404513,123.132095
1.7099507,126.90046
1.7595319,128.38026
1.7455636,133.5167
1.8422586,135.23439
1.880108,137.85027
1.874621,138.37576
1.8641045,138.45496
1.9346268,139.0561
1.9433899,142.39418
1.7945645,142.36528
1.9127179,144.28091
1.8929164,148.24199
1.89661,147.40427
1.9225856,145.99266
1.8588498,149.0348
1.8701354,146.81584
1.863798,146.13222
1.8098679,146.06079
1.7620691,148.51315
1.7915804,144.6855
1.7479587,142.3759
1.7465026,145.30026
1.67801,145.67244
1.5992857,142.69795
1.6187644,139.68494
1.7045342,141.68208
1.525067,138.34718
1.5927398,137.24936
1.4701177,138.10298
1.5241735,133.43619
1.4527156,132.74081
1.4703774,130.32669
1.3667406,127.9622
1.4556378,131.4562
1.3862479,129.35945
1.3741803,125.72296
1.3884163,122.76031
1.4080449,122.733025
1.3921514,120.0632
1.257415,118.17371
1.3069699,115.06151
1.2534492,113.58347
1.2382832,116.49076
1.1149555,110.923935
1.1588188,112.753204
1.1858448,107.27306
1.1480225,107.09125
1.1137283,108.19133
1.0215352,107.57579
0.96030456,101.85849
1.013509,102.84387
0.91334707,101.925606
0.9111043,98.77561
0.7867995,96.99149
0.8142765,95.09565
0.69902873,95.02931
0.83557796,91.58628
0.70604074,89.928085
0.7966718,90.24285
0.7537244,91.06088
0.7121997,87.181435
0.7690774,84.44409
0.75401795,84.608536
0.7547522,83.65551
0.74290895,84.375626
0.7278077,79.974144
0.73295426,83.18281
0.6007048,80.82694
0.6326724,77.43253
0.6766004,80.6678
0.576788,77.80865
0.5424594,76.5963
0.45131835,78.781136
0.48790357,77.311195
0.4310439,77.40439
0.3379788,77.54701
0.33167255,79.56786
0.28159845,78.865814
0.28288934,81.712
0.30933294,84.388275
0.25225788,85.70195
0.29803735,86.674126
0.33771518,87.28188
0.4119393,86.685585
0.47877443,90.64951
0.47044027,95.42437
0.52333564,96.343796
0.60225666,98.284004
0.68373924,98.146194
0.8098594,105.34701
0.83940053,107.15186
1.0522176,107.59368
1.026482,110.50568
1.0482639,112.17615
1.1573864,120.546776
1.251345,119.6613
1.3020389,124.56193
1.2510558,125.84507
1.4243609,126.92713
1.379616,130.34622
1.537576,131.15524
1.5306237,135.32109
1.4943639,137.12013
1.5311682,141.6808
1.5516808,140.78555
1.5448312,141.95435
1.5897751,143.20886
1.6503446,145.77144
1.5368444,145.84724
1.5512199,146.33629
1.6190001,145.82472
1.5086417,145.80052
1.6056663,145.48657
1.597118,147.7575
1.6459833,146.19263
1.5375625,146.42772
1.4981451,143.61308
1.4999491,147.50888
1.4207253,143.97357
1.4195008,143.10478
1.3386575,141.1132
1.3215455,139.07307
1.2262734,137.44875
1.2547065,137.38293
1.2176287,135.82259
1.1918974,136.26796
1.160094,133.5212
1.166212,131.36461
1.2343111,131.83688
1.0267367,130.37567
1.0521735,127.61271
1.027743,130.77153
1.0415329,126.32579
0.9927458,121.65159
1.0197232,124.22846
0.9864251,123.29793
1.0450978,117.26815
0.92108375,118.86157
0.9892577,115.9011
0.9508371,117.61587
0.96391207,112.310074
0.8580122,111.61189
0.7933644,111.833984
0.77584153,110.151855
0.6825515,105.88165
0.70685744,105.45946
0.72692615,103.059235
0.6567839,104.087715
0.6955513,103.37033
0.49626097,101.71499
0.45713544,100.111
0.52177906,96.26831
0.51097757,95.98878
0.391763,92.38169
0.48218507,91.69041
0.41840404,92.99708
0.437721,88.86737
0.36919194,87.38967
0.37572068,86.99748
0.3271728,85.01304
0.40049353,85.6359
0.38756794,84.07509
0.37439102,81.08441
0.3714942,79.13285
0.2797611,79.816284
0.35882124,80.18337
0.2354676,76.03205
0.2727508,79.180855
0.23129092,76.43268
0.13214149,77.937
0.07627409,77.51598
0.112681486,79.09853
0.13323669,79.17273
0.06870788,80.595085
-0.09695792,78.630844
-0.07247481,79.596954
0.04973659,80.52137
-0.04042391,83.58669
0.0002153051,87.101395
0.041376155,86.2627
4.0674047e-05,88.00837
0.13264772,90.52018
0.16941945,91.21725
0.17691234,94.45549
0.21705446,97.6112
0.41438207,99.466446
0.44602758,102.433395
0.5837579,104.60593
0.5934435,106.130104
0.70999986,110.1915
0.7159031,113.677185
0.89328337,115.962524
0.93212336,118.86491
1.0399873,122.469406
1.0504981,122.35376
1.1207927,128.53328
1.2585642,127.841835
1.2088299,131.28665
1.2988883,135.44302
1.2869779,135.73204
1.3368894,140.11069
1.4044789,138.36154
1.3628218,141.328
1.3487664,142.26453
1.3954871,143.74033
1.3423479,144.85243
1.4223299,145.96799
1.2536117,146.70949
1.3658367,147.73212
1.3592863,145.4747
1.2779132,147.32602
1.3147748,148.11388
1.2393771,148.32936
1.2759326,145.76065
1.2142477,144.84615
1.1550759,145.41321
1.240016,145.52142
1.2039615,143.01321
1.1161412,142.8774
1.1186658,142.34727
1.1047305,139.40675
1.0779945,137.361
1.021157,136.59375
1.0127792,136.94698
1.0250272,133.00984
0.9549764,131.5669
0.93504214,131.13046
1.0161723,130.45862
0.9482763,129.16841
0.92744994,126.796326
0.9442932,125.81941
0.90961194,124.64309
0.8951161,119.820625
0.8590206,121.73874
0.86475027,120.082565
0.94870394,116.023834
0.7954699,112.144394
0.8722775,116.14286
0.7867426,111.64189
0.7462276,110.941696
0.7126631,110.614555
0.6996568,108.03826
0.56704736,109.43179
0.60969436,101.746666
0.55826545,103.71348
0.43771526,100.8443
0.51487345,99.48246
0.43057847,97.288445
0.45571092,98.56328
0.41650128,97.17807
0.47433597,97.14319
0.40474764,93.984566
0.35299146,93.23378
0.332988,88.65329
0.31447163,87.27528
0.3841329,85.70824
0.33261618,82.45106
0.4095302,84.688385
0.3102142,85.402954
0.342647,81.311905
0.37081182,82.8079
0.34162295,80.54049
0.38821504,78.91801
0.29068297,77.65895
0.2872467,76.23202
0.2384906,77.57835
0.19089817,79.439514
0.20044686,77.56156
0.1408367,80.66919
0.1008052,80.687706
0.045846652,80.76906
0.12685548,77.8138
0.009482909,81.18106
0.032167647,82.128204
0.054792345,80.9782
0.036922645,81.40041
0.072431594,86.655716
0.114860944,85.49647
0.17669234,89.353935
0.16547462,93.033676
0.26231903,94.82749
0.33932555,96.25612
0.38720334,99.59067
0.52757794,100.75339
0.5255961,103.91323
0.6949833,106.22901
0.8074373,109.742065
0.8495444,114.45559
0.92827183,113.3712
1.0411432,114.358894
1.0778327,117.316925
1.0894567,119.34458
1.259408,125.14972
1.2660085,129.88326
1.3103044,131.85367
1.340094,135.74762
1.4193255,137.22801
1.4759632,135.82643
1.4420798,141.0109
1.5100143,138.98119
1.5493408,140.50194
1.5639956,144.28838
1.5593517,143.96324
1.5725539,144.12947
1.5888416,144.1585
1.5316739,147.00491
1.4981055,147.80179
1.479277,147.77048
1.4487015,146.2875
1.4719417,144.60364
1.437029,147.92532
1.4345592,141.45023
1.4802479,143.51402
1.4596773,142.41295
1.386204,146.8957
1.3298041,143.66502
1.3280764,141.82224
1.3364806,139.51747
1.2793097,139.55417
1.2785484,140.39417
1.2498544,138.07706
1.312203,135.3134
1.2450743,133.01924
1.2426264,132.09164
1.1819623,129.06642
1.1876713,127.6254
1.2307508,126.45363
1.1335797,126.52134
1.1777401,124.16018
1.1611696,123.906166
1.086357,123.35279
1.1769245,118.86125
1.1886381,120.80886
1.0572056,118.69019
1.1102049,116.32997
1.0871638,111.62436
0.9905058,112.333435
1.0855073,109.52926
0.9176203,108.93676
0.9521182,108.50101
0.91250527,105.87794
0.87941223,104.77976
0.80179,103.274124
0.879758,99.69749
0.7518789,98.91438
0.7579372,97.77499
0.641895,96.516685
0.68343925,95.42341
0.6258805,95.09774
0.68447953,90.7206
0.70360476,93.18324
0.71824473,88.71888
0.6849737,87.106964
0.6579125,87.98581
0.6599086,85.24522
0.7328329,80.73791
0.70837784,83.32667
0.75824356,82.82238
0.63982147,80.8425
0.62425953,76.10377
0.6875893,77.976944
0.6173063,78.63387
0.611813,79.49215
0.5290218,82.36317
0.46730056,77.66947
0.45555064,77.5476
0.5087255,78.608444
0.38573682,79.07132
0.44208065,78.18536
0.32176432,81.18415
0.45280716,80.60818
0.40083975,84.1815
0.3559124,81.726845
0.38828647,84.89967
0.440397,87.26565
0.49255982,88.112236
0.45628518,91.315994
0.57030135,93.402725
0.69856507,97.925606
0.8376867,97.43142
0.81322086,99.47509
0.8295072,104.53152
0.9866255,106.69841
1.1541748,108.40497
1.1787214,109.35907
1.236757,114.80673
1.385523,120.20655
1.4187335,120.155945
1.5149157,120.79981
1.5033389,123.15905
1.6058761,127.8978
1.7078489,128.43922
1.7373637,135.72086
1.7701403,133.73091
1.740218,135.91351
1.7972306,135.39116
1.7576575,139.3674
1.8476678,143.42189
1.8807994,144.66048
1.8797522,145.04688
1.9073067,144.6943
1.7820317,146.46407
1.877086,149.38342
1.8475001,148.16148
1.7942547,148.45148
1.8144392,146.24506
1.8585284,145.75626
1.8139341,145.23279
1.7513671,143.06522
1.8259822,142.6139
1.6670555,146.1046
1.6742725,143.65614
1.7494459,140.9717
1.6488023,140.67024
1.7096932,142.08806
1.6361905,137.54813
1.715128,137.24394
1.5639361,136.19495
1.5814271,133.15013
1.5252994,136.13306
1.4411016,132.21223
1.4896344,128.94745
1.4502141,125.96408
1.4893132,127.2478
1.4604646,124.12449
1.4812227,126.68412
1.4865574,124.21384
1.473319,121.446335
1.3775246,121.50567
1.3724412,119.334435
1.2928618,117.63791
1.3480471,113.74292
1.3648187,115.298485
1.2824279,111.23096
1.1905034,111.4375
1.3005756,108.94254
1.2654108,106.74986
1.2147744,103.14181
1.1851434,103.5475
1.0883039,102.77845
1.1954052,103.497086
1.1075809,100.395615
1.0418191,99.34977
0.93083906,98.67503
0.9778694,96.03145
0.96409404,91.1081
0.8953405,92.85827
0.9580128,93.36436
0.9853031,89.356285
0.93024254,86.628
0.85628647,85.541214
0.9259098,84.32502
0.9090997,82.33854
0.9313228,81.77588
0.85268146,79.90074
0.95367813,78.439606
0.8542662,80.68628
0.8241973,76.63463
0.86401486,76.64351
0.8177112,77.18886
0.79163486,77.822334
0.6934514,76.50181
0.678536,78.25727
0.66714245,78.100815
0.7616243,77.23751
0.68889916,81.50532
0.47084185,80.999016
0.6129411,76.2606
0.54144937,81.039505
0.5796026,81.74239
0.49828073,82.60507
0.6493875,86.119354
0.6637306,88.85407
0.6278386,87.22136
0.7084108,92.52456
0.8515373,95.543495
0.9532483,94.812065
0.94939995,96.90452
0.99660593,103.75236
1.0017406,105.54548
1.1452296,107.71806
1.2391106,111.32224
1.4289522,108.44995
1.4220492,115.113075
1.4907625,118.52099
1.5372715,123.688484
1.6566209,125.264656
1.6774559,125.77042
1.7010411,126.295715
1.7607427,129.53185
1.8683987,134.38252
1.8272704,135.1961
1.8965532,137.68248
1.8947934,138.60805
1.9427291,142.4733
1.9139618,140.23924
1.9531069,144.15889
1.9827797,145.7888
1.9584056,148.53983
1.9229962,145.70879
1.9652156,145.04593
1.8625164,146.52473
1.8923267,147.90244
1.8554953,147.81883
1.9116946,145.3636
1.8155007,146.85956
1.7913698,149.49278
1.7900095,144.36978
1.7280294,144.59415
1.6818902,145.17386
1.6917378,143.20607
1.6392184,138.71786
1.6995417,137.51051
1.6858408,138.93423
1.6394452,139.71167
1.5426496,137.71756
1.540121,134.62607
1.521027,133.46637
1.438143,132.05132
1.4833516,131.8906
1.4157044,126.425224
1.4370792,124.885254
1.3689303,123.42971
1.4202312,125.00713
1.3320787,122.62219
1.4399205,118.980064
1.3840221,122.332855
1.4342904,114.07895
1.4159585,116.89255
1.3773052,117.302414
1.1488404,112.33099
1.2623644,110.88475
1.1967752,112.70394
1.2061578,111.80936
1.0993202,106.18933
1.0874782,101.57933
1.0326978,105.612686
0.971417,101.49402
0.8957633,98.16915
0.88018715,99.297066
0.922008,100.95832
0.8504799,95.85416
0.787868,94.53005
0.8215185,89.980865
0.7442783,92.015205
0.794108,89.07952
0.7516348,86.06215
0.7571929,81.50717
0.7609845,84.75287
0.7379448,84.475845
0.7486499,83.55108
0.8563827,82.17651
0.76865405,80.96125
0.79661065,82.99316
0.69290537,82.33195
0.6897146,78.300064
0.68093,78.48344
0.5704559,80.96616
0.53565615,74.45147
0.56244427,80.008705
0.5109023,77.565865
0.4661437,80.20512
0.39220813,76.89621
0.3775565,78.26675
0.3197847,81.14157
0.30195832,81.369286
0.316722,81.02373
0.2670769,83.58184
0.34819916,86.59005
0.39469346,87.347084
0.46557224,88.73439
0.39397353,88.93102
0.56073236,91.18338
0.5497804,95.65299
0.65277225,101.19292
0.7305732,101.08076
0.7774708,103.08025
0.92486477,107.688255
0.9988031,109.22208
1.0536608,111.358315
1.1638976,114.68792
1.1421673,117.06603
1.3055272,118.60786
1.3060668,121.82169
1.4168621,128.03395
1.4210396,130.9231
1.4961822,128.59271
1.5349267,134.50581
1.6220181,132.48602
1.7036195,135.60437
1.5924175,140.7167
1.6602259,139.13667
1.6735849,142.68802
1.6869767,145.99092
1.7093562,144.20291
1.6635767,142.31047
1.632195,143.9693
1.7279305,147.73907
1.49233,147.08043
1.6016399,146.18872
1.6030679,144.53427
1.5845338,146.79233
1.4729973,144.69043
1.5214798,149.02664
1.5333487,143.42593
1.4638109,146.6448
1.425744,142.38377
1.3411717,144.52791
1.3109558,141.04631
1.3217975,137.07678
1.296393,138.56023
1.2214235,138.67174
1.2907767,133.89516
1.2656273,136.65028
1.2041968,132.87885
1.1289053,130.35753
1.214659,128.46469
1.1862563,132.19368
1.1876761,126.17086
1.0623249,124.057
1.0921173,126.41603
1.0624946,124.26377
1.0193819,123.629036
0.9893054,118.13481
1.0984496,115.73076
1.0029397,117.300415
1.0059819,114.794655
0.8969174,114.97882
0.8716075,112.38871
0.8794964,111.01938
0.8522588,107.846985
0.8611866,110.467354
0.7427922,105.27554
0.67564577,103.8904
0.6659988,104.45497
0.63260794,101.57014
0.564285,102.06877
0.625445,99.8751
0.55390227,97.10194
0.4769304,94.95443
0.4809204,96.491264
0.46710667,91.34704
0.5095869,90.40109
0.3948317,90.87113
0.43382055,88.94265
0.42027396,86.02627
0.43979838,85.79776
0.3354091,82.056114
0.40447745,83.30656
0.48364842,81.08747
0.31463796,80.78863
0.37428612,78.14161
0.3100887,74.58307
0.3104307,77.84738
0.3146423,77.1954
0.23066142,77.636406
0.1485271,80.44937
0.13911091,75.55192
0.15375373,77.28169
0.09633336,78.69834
0.10356929,78.29935
0.101670876,78.683426
0.06703395,78.956604
0.0702234,78.46282
-0.004915708,84.64699
-0.013010495,84.678764
0.008208777,86.65365
0.12255909,90.069916
0.14429584,90.61045
0.20293632,93.34018
0.19040436,93.686844
0.37724224,98.44947
0.2696331,99.7344
0.4540923,101.53985
0.5088835,101.98515
0.7080235,108.237366
0.723435,111.84602
0.83965075,114.77633
0.8075789,115.495316
0.98258847,118.63441
0.94376886,118.9617
1.0336076,126.37518
1.1702842,130.1646
1.2527024,129.73529
1.2592367,133.43774
1.239344,132.52525
1.2743579,133.65585
1.4060745,137.7043
1.3030977,140.58572
1.3251543,142.41328
1.4197013,143.406
1.3348356,147.3169
1.4934652,145.08842
1.3764621,146.61087
1.4311839,145.9717
1.3948808,146.37515
1.3129053,146.18172
1.2726973,144.93283
1.3066291,147.28973
1.3501362,146.91515
1.1734781,147.68916
1.1817204,147.54323
1.2358904,148.3625
1.1801468,145.2665
1.1748456,140.69398
1.110621,142.57835
1.0353614,138.92316
1.102129,138.84473
1.0465137,140.06169
1.0481254,132.85411
1.0112904,134.51968
1.0003077,133.60199
0.963733,133.1715
0.92189354,132.99103
0.940522,131.2628
0.93800986,128.39885
0.84810776,125.93666
0.94043237,125.48917
0.92718226,122.37704
0.87177557,121.50927
0.84927654,120.9167
0.83546084,117.507416
0.8549322,118.35124
0.7959497,116.68597
0.9240295,113.685814
0.7940536,111.08869
0.7461716,110.28903
0.78331465,108.3076
0.6492433,103.94449
0.6637756,106.63109
0.6106197,104.76871
0.5224866,104.59494
0.55185556,100.88139
0.4456192,103.08675
0.39579222,98.59535
0.36391336,97.14867
0.29966757,97.05147
0.38664973,91.881584
0.31014985,91.877884
0.35179424,88.92384
0.3370412,88.74314
0.3576708,89.59246
0.40000796,85.95427
0.32661983,85.16362
0.31390998,81.91786
0.39684075,78.93744
0.34522602,77.82305
0.34725097,76.735695
0.3588689,82.28327
0.30738708,80.3555
0.26717022,76.62924
0.27878642,77.52135
0.16590674,76.71039
0.14992563,78.39402
0.14044383,77.6596
0.12467077,79.349174
0.036346607,75.22597
-0.025580144,78.52974
-0.017013228,80.13798
-0.054336745,83.04734
-0.056840368,82.10396
0.007110766,83.251305
0.0071074725,84.45849
0.01245951,84.223434
0.05484999,87.22794
0.09722726,88.04539
0.17530428,91.689156
0.24248022,95.1326
0.35355973,96.4575
0.3964385,100.397606
0.44452912,101.132065
0.60616475,107.158646
0.61746925,107.159195
0.78034943,106.67582
0.8125648,112.515175
0.91893,114.72194
0.95699203,117.92892
1.1025207,119.57042
1.132357,120.46165
1.1306295,126.94376
1.2465192,130.09184
1.2941849,132.84964
1.3249458,133.72083
1.3068058,135.8787
1.3721589,137.55873
1.3919944,136.1744
1.4261051,140.8419
1.4031074,141.31364
1.5008975,143.65802
1.4797403,146.14459
1.5884154,147.17635
1.5028839,149.65991
1.4937909,144.67151
1.5447484,145.89815
1.4747721,146.15219
1.4256836,147.31267
1.3834631,146.99785
1.3977226,148.1854
1.4356122,146.50537
1.3763467,142.05504
1.3204622,144.39217
1.3841561,143.47508
1.362344,142.428
1.3497099,140.6707
1.3065805,140.41028
1.2726659,140.58388
1.266427,134.42459
1.1947533,136.36871
1.2076873,134.2981
1.1580797,134.47093
1.097922,129.95284
1.1035396,130.16997
1.1611501,126.76882
1.1552972,127.99696
1.129266,125.43277
1.1134366,123.76464
1.0911041,122.36347
1.1173056,119.83163
1.0607643,119.38196
1.1798187,116.212585
1.0363281,116.71962
1.0356555,113.272675
0.9926932,110.82573
1.0222675,111.64564
0.8998344,110.88126
0.95501214,110.96734
0.8485319,104.1875
0.9229184,105.80117
0.7795925,105.25558
0.75159323,104.830055
0.76713365,101.33876
0.79991084,101.24838
0.6146682,99.400894
0.64188224,98.434845
0.63631654,95.27069
0.6503327,94.04604
0.6335747,91.797386
0.59506446,89.93199
0.5950757,88.78575
0.6244978,88.75082
0.6084523,83.912605
0.56398076,84.46396
0.5919584,86.01572
0.6728244,83.52014
0.5514479,80.17014
0.60054296,82.85873
0.58136284,79.41886
0.6047593,79.54959
0.54511464,78.824844
0.58253783,77.56362
0.48650458,78.12377
0.4362797,76.61254
0.40343708,76.7797
0.46689385,77.147026
0.32630366,77.242325
0.32341093,77.35485
0.33890697,78.70963
0.3438956,80.50464
0.31251636,78.19796
0.3929611,86.01814
0.36076817,85.299904
0.35540313,88.61551
0.49459478,90.38371
0.43851665,90.32213
0.5186387,89.20383
0.5755425,96.57886
0.7298009,95.808174
0.81519717,101.344376
0.9126763,102.74876
0.96308196,106.1216
0.99363405,107.87725
1.1124942,109.91288
1.1762294,114.807945
1.2500308,117.98453
1.369626,116.35608
1.4617832,123.166565
1.4937224,127.68483
1.642478,128.28279
1.6623633,131.79143
1.7015113,133.68303
1.750982,136.9964
1.7462498,137.15808
1.7794627,138.46312
1.7922564,139.7006
1.7701973,141.0023
1.7875098,142.81163
1.8258811,145.82214
1.9808999,148.7969
1.7887213,147.95403
1.8399755,149.264
1.804811,149.61324
1.8362372,147.86923
1.8089722,147.36644
1.8865296,144.71176
1.7882586,143.57234
1.7824552,147.3767
1.7956924,145.20663
1.6774768,147.36363
1.7743982,141.77512
1.6370734,141.29694
1.6502379,144.27199
1.6128662,140.11932
1.5376163,140.25067
1.5808173,136.1048
1.4708306,139.80582
1.4984663,138.45218
1.5342183,135.5149
1.471822,133.95602
1.4944513,136.24362
1.4954528,127.82335
1.5221895,126.97169
1.4092017,126.15969
1.4230436,125.700935
1.3937751,123.49915
1.4666275,122.06833
1.4521657,123.6317
1.4317136,119.59838
1.3523755,117.83946
1.2911904,118.27816
1.2942842,115.15058
1.3339553,113.3793
1.237784,112.172
1.2830242,110.97298
1.1954739,107.95753
1.1099982,107.09159
1.0772051,105.69156
1.0819734,104.52063
1.0467411,102.87714
1.0732427,97.676155
1.0961181,97.21605
0.9853624,97.36339
0.9812328,95.87779
0.944241,92.690895
0.9602403,92.25425
0.85553414,90.72814
0.98965335,90.79815
0.93601817,88.28698
0.9101382,87.706856
0.8931105,85.88198
0.9236719,84.14617
0.88165784,84.148735
0.9449313,80.75511
0.8791019,80.86548
0.8891144,81.43774
0.8507309,79.9505
0.7978548,80.25829
0.762227,79.67442
0.71255153,78.74401
0.6944525,79.85045
0.721939,77.49451
0.63777804,77.23403
0.6725388,77.41901
0.63587147,76.26968
0.5005954,78.13325
0.5704476,81.22003
0.55617493,79.75647
0.5348844,81.44535
0.53127956,85.145905
0.574431,84.14808
0.5586713,86.48001
0.6593248,87.21882
0.719437,91.17294
0.7687843,95.2339
0.8345012,95.06572
0.9481995,101.03869
0.9089855,101.22186
1.0824181,103.127075
1.1672918,109.40944
1.2736778,108.13863
1.3025459,111.87637
1.4560951,116.99503
1.5350612,120.15548
1.5530555,121.20629
1.7809832,123.392235
1.704066,129.53786
1.6527448,130.40173
1.7910049,130.48479
1.8208054,134.2723
1.9052247,134.47824
1.8455892,138.15877
1.8553543,137.295
1.9691733,139.19075
1.9738995,142.97104
2.019516,146.29317
1.994258,144.00784
1.9449916,142.62318
2.0001183,145.82169
1.8922197,146.67943
1.8806556,149.14557
1.8571334,149.12189
1.8810098,146.49126
1.835746,148.20668
1.8990582,145.26596
1.7610404,145.96564
1.8523561,143.6286
1.7129848,143.21204
1.747109,145.44904
1.6974087,140.38522
1.751476,140.75978
1.6356831,139.33171
1.7164857,139.1125
1.5810407,137.83867
1.597949,136.29309
1.5181748,135.75064
1.5156337,128.50932
1.5133924,133.01854
1.4591182,129.82474
1.472443,126.81968
1.4176236,125.98627
1.4913876,126.01931
1.4611536,125.9105
1.5322717,120.62958
1.4486591,121.42202
1.4493464,115.631165
1.2532934,119.97637
1.334449,113.02364
1.3299934,116.21409
1.3035988,111.950516
1.2060289,113.14403
1.2574569,109.65205
1.2250828,109.22441
1.2328393,110.81523
1.097929,105.75678
1.0662336,102.84969
0.96299213,103.021324
0.9662943,100.78933
0.87940085,99.62292
0.95723224,100.1368
0.8437453,96.55623
0.84082013,94.602165
0.8259289,96.72835
0.94433516,92.19665
0.8248366,90.11768
0.8032714,83.54379
0.8210753,87.48681
0.75706565,87.82514
0.7944853,84.526
0.77406687,82.67564
0.8034178,81.297356
0.728021,79.02124
0.70382035,81.653564
0.7548716,79.83501
0.7909346,79.60533
0.64117527,76.68253
0.6184891,76.38625
0.5936837,77.62411
0.5841889,75.644165
0.51605624,77.120026
0.5232023,77.831345
0.47156242,75.79954
0.42123985,77.60639
0.38151518,80.37638
0.4598264,79.05745
0.3133739,82.126
0.37394947,86.112045
0.31655625,84.83095
0.37508398,83.58659
0.5235696,88.81657
0.53916883,91.65111
0.58022094,89.56864
0.63876384,95.77075
0.70780885,98.842255
0.77993506,98.66596
0.84860045,101.75968
0.94796956,104.68963
0.97715807,112.20118
1.1899849,112.48441
1.158856,118.79229
1.2973189,116.920135
1.3780106,122.14562
1.4778415,121.49045
1.4825773,128.52104
1.4438232,125.13546
1.5956521,127.93562
1.5731081,133.19484
1.6190065,133.51758
1.6533045,136.95552
1.7323831,141.09248
1.7099268,143.87772
1.6975758,140.6625
1.6813152,145.09416
1.7597238,144.93826
1.7341504,145.00432
1.6720215,145.00356
1.6921297,151.50427
1.7333707,147.27208
1.5898069,147.4331
1.6475712,147.92842
1.6289694,145.81477
1.5513551,147.43681
1.6177645,145.4732
1.4962453,143.9111
1.552359,145.36656
1.4807239,140.94603
1.3932531,145.29
1.4066987,143.3974
1.3039716,139.33844
1.3783915,141.63876
1.2507001,136.38663
1.2563264,136.95105
1.2365524,137.27977
1.2459412,131.98671
1.2930051,133.75117
1.2090473,129.07472
1.2350698,128.20311
1.1573225,124.90076
1.1029071,126.22217
1.1343006,123.520615
1.094096,125.73402
1.026028,120.530235
1.0502689,120.81855
1.0533497,118.76686
1.0563415,114.611176
1.0263286,116.65735
1.0308613,116.30329
0.9881796,113.35006
0.93898094,109.18794
1.0124242,107.15708
0.8249794,107.23045
0.7505169,107.566795
0.75179136,105.73725
0.66252494,103.21045
0.6663986,103.27236
0.5813879,98.43369
0.60481864,99.643684
0.5931824,98.01644
0.6053122,95.83752
0.4795043,93.33871
0.4916197,89.8086
0.4379796,88.27848
0.51419175,90.48511
0.5670579,87.27294
0.46375638,85.385925
0.51442546,86.196
0.4502291,86.02942
0.44269463,81.88295
0.46861085,82.96244
0.3934878,79.22274
0.43772915,82.03648
0.38507637,78.59668
0.2680165,78.6928
0.34471634,78.37055
0.25802678,76.11345
0.24418883,76.20029
0.1844989,74.63496
0.19604534,76.9532
0.15150172,79.0681
0.1596569,77.43574
0.09124476,81.63164
0.022357022,80.45345
0.0169061,83.27973
0.07317337,86.32906
0.023987342,83.395195
0.025432685,84.28382
0.10522876,89.604324
0.1392665,93.27357
0.20318134,90.29796
0.23453227,96.57853
0.44087186,98.82709
0.46675348,98.305244
0.57900804,100.16371
0.5699366,104.05299
0.7089357,108.69813
0.7445262,111.19499
0.95991695,110.35089
0.8925929,116.195854
1.0196383,117.67803
1.0686657,121.27804
1.0870377,123.54124
1.1677343,125.11188
1.149292,130.19867
1.2561986,133.04219
1.285294,134.2295
1.2749832,136.96458
1.3035256,139.80539
1.431316,140.24405
1.3768859,140.62161
1.3987572,141.63065
1.5319079,144.54358
1.374477,143.3545
1.3296751,146.30211
1.3753989,142.9102
1.3643826,146.89229
1.327071,148.50546
1.363973,145.69382
1.2602854,146.07573
1.2772093,143.86876
1.2815682,147.03418
1.3185084,144.51437
1.284882,144.87709
1.2504714,146.30763
1.1462576,142.11853
1.1930207,142.12048
1.1847689,141.09651
1.1003524,139.0062
1.0846542,139.35435
1.0236824,135.26123
1.0018946,136.03064
0.941564,135.91318
0.9971642,133.74068
1.0277066,130.19205
0.9606994,129.06644
0.83389634,127.480705
0.8571886,127.7021
0.82761943,126.52144
0.83506477,121.09967
0.8712492,122.79053
0.8800797,119.34731
0.8332337,116.667755
0.7893377,116.36567
0.82793313,116.07248
0.81253636,112.80879
0.74705416,113.568146
0.7593625,111.42271
0.69588536,111.85755
0.7355834,110.750626
0.5689266,104.345024
0.54345,102.63269
0.48989716,101.49479
0.45921794,100.47335
0.4680287,102.10005
0.37671444,97.08319
0.36008197,98.30706
0.35315648,98.73013
0.4368157,95.239365
0.41879296,92.5143
0.37011155,89.94303
0.37382838,89.069145
0.3568854,87.49234
0.3431033,87.184006
0.3962277,85.08705
0.31122407,86.085724
0.3200915,85.55394
0.32644278,83.144516
0.23706137,80.89445
0.287047,80.88434
0.21647222,78.76615
0.23044601,78.473694
0.20862573,82.97917
0.2618544,74.36916
0.20851372,76.54316
0.11423508,75.702484
0.13079265,76.55054
0.13059695,79.68994
0.04432032,77.22721
-0.051583316,78.91406
-0.1209434,80.79131
-0.11398843,82.65702
0.03546181,80.84329
0.00049031625,82.74463
0.03766137,86.11294
0.0724235,89.42395
0.09173803,90.32348
0.20169151,93.12754
0.21724132,94.42553
0.2379973,96.73586
0.33826435,96.95642
0.51977056,103.17454
0.51645523,103.623436
0.57257104,106.47378
0.65713674,108.99618
0.75722015,110.74134
0.8537858,114.136475
0.95336246,118.760284
1.0320143,118.91369
1.0569646,123.55076
1.1338279,121.744194
1.208274,127.429474
1.1772026,127.285286
1.2936344,133.15752
1.3195512,136.88103
1.4346286,137.73442
1.3500345,141.41412
1.3922415,140.19841
1.3899076,142.53433
1.3761038,145.02464
1.5401314,143.8559
1.4140573,146.60692
1.5528547,146.26167
1.4345335,147.4462
1.4203925,145.41048
1.4677186,146.7631
1.5134252,145.83885
1.3745265,148.58252
1.4517615,144.5731
1.3724982,146.60164
1.3304019,144.94197
1.430459,143.74266
1.3369082,144.06018
1.3149153,141.98882
1.2125897,138.83292
1.2059447,138.20673
1.1972852,135.81654
1.1392596,136.49939
1.2069753,136.86021
1.192893,134.49303
1.1283503,133.70726
1.0817053,131.95268
1.1040004,131.13817
1.0514442,129.06226
1.1385595,128.5117
1.0731727,125.01062
1.0204178,123.39577
1.0039369,122.32926
1.0202003,119.77738
1.0265199,120.08742
1.0086967,118.26307
1.015524,112.85535
0.9382591,116.2335
0.9988434,112.57655
0.9175779,110.61359
0.91694987,109.54052
0.9312162,108.71709
0.8378491,108.67313
0.7794048,103.08234
0.71437025,103.94768
0.69097966,103.21048
0.66960406,99.719986
0.5959668,99.17473
0.69121003,96.41294
0.545998,96.10535
0.6360688,93.78922
0.6137445,93.93209
0.5624644,89.56722
0.67373043,90.80047
0.6640644,87.84829
0.5557306,89.57108
0.52600867,86.55758
0.5816632,83.952
0.6241315,84.33191
0.6989089,81.33645
0.61698604,81.60501
0.57456857,76.79264
0.6195192,80.27052
0.53000873,78.86101
0.4763737,79.581116
0.4791753,78.43867
0.39754865,76.712616
0.4079175,74.028694
0.39311656,76.067276
0.3954747,80.473564
0.29780668,77.09106
0.24594797,78.10804
0.28523833,77.84
0.37436402,77.94774
0.30477816,80.467705
0.26971725,82.64301
0.27899513,82.7039
0.34775236,88.72482
0.34095395,85.437126
0.42955658,89.87152
0.48334095,95.74196
0.5494223,96.48446
0.6134802,96.793816
0.79795486,101.95548
0.7857359,100.97866
0.8171663,106.539215
0.9592265,105.305984
1.0984756,111.38411
1.1810074,111.71873
1.2042515,119.86363
1.2699907,119.69056
1.4407248,120.32887
1.4894598,122.394714
1.5629123,127.32018
1.5823553,132.04465
1.673567,132.03867
1.6099842,132.6666
1.6341654,135.79306
1.6923125,135.63498
1.7833627,141.14554
1.7288735,143.02003
1.7669096,142.20374
1.7399315,143.87848
1.7758397,143.22812
1.7507832,148.4506
1.8156524,147.54659
1.7445817,147.40106
1.7338724,147.15292
1.7453848,147.91534
1.7641617,147.60417
1.8024824,144.84726
1.7349801,150.68605
1.7126485,147.54932
1.7052824,144.1062
1.7034423,144.7628
1.5957427,142.74713
1.5827392,141.03049
1.6149015,140.04166
1.5225321,140.15123
1.5444739,137.55054
1.5077939,139.12758
1.4048187,137.77705
1.4283733,133.3647
1.3830776,132.79933
1.450901,130.2882
1.3694668,128.67725
1.3823991,127.97491
1.4040469,127.04814
1.4325148,124.82082
1.4574686,124.901085
1.3145849,120.81274
1.3421617,121.57831
1.384979,116.76867
1.3452511,116.47374
1.3280717,117.854645
1.3346012,117.592545
1.3549731,114.628456
1.1841625,110.84362
1.2727454,109.987755
1.2652825,108.1404
1.137474,106.9592
1.1178299,102.721054
1.1547611,106.3731
1.032575,101.34431
1.0104868,97.69169
0.89833194,95.59591
0.95200485,96.34748
0.922944,94.60229
0.89669484,91.19283
0.8539295,91.322296
0.8524592,87.51524
0.83989,88.127205
0.86370295,87.26425
0.97937304,85.41768
0.81304795,84.35544
0.8838683,83.05886
0.8308567,81.531624
0.8475622,80.85803
0.8087794,82.58928
0.84539866,76.75039
0.83869725,80.70139
0.80231583,77.02704
0.7891631,77.74333
0.76158655,74.614426
0.7508175,76.33592
0.62411565,78.06962
0.60494435,77.700516
0.6562113,77.70856
0.58914006,77.61893
0.592918,77.675224
0.553937,81.06026
0.49080768,83.64141
0.46532285,80.98716
0.48139375,82.52434
0.5803732,90.44125
0.67115796,88.64901
0.63839805,87.73232
0.73147714,90.19515
0.74524516,95.76867
0.9033729,96.79281
0.9192381,98.30694
1.0962673,101.27851
1.1386563,103.001205
1.1983545,108.015495
1.2460189,111.75358
1.2843244,113.951515
1.4335799,116.13791
1.5764751,121.61559
1.5243095,122.42665
1.6079879,123.25395
1.7327294,126.141846
1.736425,126.846985
1.9119571,129.09108
1.7657528,134.83621
1.8951336,138.26877
1.8875872,137.27625
2.0382533,139.18788
1.9734192,139.70166
2.0167253,142.38257
1.9719516,146.50726
1.9889466,144.51942
1.9719162,144.86308
1.8998367,149.34528
1.9476471,147.29135
1.9733832,145.02644
1.9307492,147.26898
1.865871,147.41927
1.8820624,148.60944
1.8432628,144.08604
1.8129638,146.90366
1.8322742,146.44643
1.8001844,146.04002
1.7904017,144.61967
1.7276194,144.19891
1.6828221,142.0201
1.6830345,138.53717
1.6163623,137.67833
1.640138,137.11548
1.6394829,134.70099
1.4549178,135.57993
1.5047326,132.32935
1.550107,130.96
1.4840031,128.4639
1.5408373,130.18681
1.4120795,125.137955
1.4292935,121.189
1.4533713,121.49279
1.3830996,120.92715
1.5235183,122.864716
1.4227778,121.79985
1.3973349,118.92817
1.3304551,115.26451
1.3949429,114.95013
1.3453633,112.01197
1.346631,111.05439
1.2281106,109.94705
1.2104429,106.30994
1.1524556,108.03709
1.0944204,106.35881
1.124344,102.308655
1.1420878,100.638306
1.0773371,101.45763
0.9502132,102.059
1.0060062,99.42115
0.94289124,94.95331
0.9122798,98.68563
0.8901003,96.4914
0.904999,92.14261
0.871271,92.38013
0.8424188,86.90585
0.8636186,88.11346
0.7843663,84.48622
0.77895445,84.58464
0.8540383,84.26062
0.84103656,83.461426
0.96810555,81.222015
0.7444174,80.862465
0.79184467,79.19691
0.7168413,79.55394
0.7696221,79.65595
0.65486604,78.031555
0.63808745,81.48037
0.66033965,79.4912
0.5884333,75.81805
0.5427098,75.716774
0.49249515,78.83916
0.51201344,79.52755
0.40245146,80.628975
0.42090055,80.09545
0.47936857,83.70883
0.42662403,82.54601
0.46729964,84.35365
0.42724884,87.36094
0.44095555,88.676895
0.49175328,89.29867
0.5517235,93.20431
0.71523696,94.09418
0.75925237,99.83939
0.81981146,98.71715
0.89707005,103.19623
0.95464414,106.190865
1.1724234,110.74227
1.190598,112.03747
1.2229255,115.40384
1.2849671,115.525375
1.4529638,119.71821
1.417511,122.98639
1.4848826,125.65662
1.5402465,128.02826
1.6255566,132.76263
1.5832494,133.31036
1.6568719,137.8247
1.654208,135.29852
1.6871098,139.77025
1.7325594,140.48103
1.806729,143.81003
1.6831453,140.4633
1.7427808,144.60461
1.7854078,144.9263
1.7621583,146.42001
1.6783171,146.88199
1.7268525,145.51558
1.6468476,149.62102
1.7038716,145.66917
1.7076055,144.31572
1.5885981,144.9194
1.627313,148.17627
1.5218397,146.1135
1.5423995,145.76314
1.5760899,143.38626
1.466423,144.36359
1.5431309,141.64085
1.3706074,141.74454
1.4537747,141.25081
1.2682403,138.5598
1.3542503,136.85051
1.2752525,135.80502
1.2194372,134.2907
1.2401788,132.1083
1.2764063,129.191
1.26081,129.01703
1.1617208,125.43446
1.2298272,124.18128
1.1525879,124.21666
1.2245839,121.503296
1.1740205,120.48761
1.2279668,120.382065
1.1262445,117.37891
1.0236452,119.86615
1.1483204,116.71907
1.0108031,111.71324
1.0381761,112.44445
1.0339789,110.357025
0.9246808,109.64453
0.86370045,108.68583
0.9070099,106.845146
0.7633415,103.8513
0.74225354,104.765564
0.6820732,103.05423
0.679357,99.36536
0.65253407,98.79539
0.6803186,97.792725
0.50461704,92.90883
0.578368,93.70137
0.5073532,91.945465
0.53607905,89.70582
0.53929234,90.03841
0.55981493,86.04459
0.4961875,86.772835
0.48394802,84.734375
0.45192474,83.36092
0.55041426,86.40948
0.5083181,80.87752
0.526809,83.15998
0.47639856,80.51229
0.4372252,78.206154
0.32112086,77.90359
0.29659364,77.834656
0.30200464,76.63356
0.36835533,79.21308
0.22583197,76.402954
0.20601489,76.30608
0.1367024,75.93458
0.13957305,80.26028
0.1555176,78.41513
0.032608934,81.2137
0.116528735,83.5592
0.025645228,84.33787
0.07698901,83.90502
0.13431609,88.6103
0.11191385,88.981415
0.20475994,93.29563
0.16912544,90.33935
0.35417604,94.156136
0.38335845,94.682175
0.4164363,99.4088
0.5185096,99.437645
0.62286365,104.53953
0.6574446,107.51449
0.72310513,110.16619
0.8308452,112.07941
1.0550612,118.13954
0.9465228,120.335915
1.0614197,118.416725
1.0973974,123.429634
1.2123272,126.46468
1.2679005,128.7335
1.348674,129.84232
1.2823175,132.1051
1.3555397,136.94966
1.3558168,137.7307
1.3337189,141.47974
1.4279143,140.58914
1.4522554,139.41032
1.4846989,143.33556
1.42343,146.70995
1.4045707,146.11432
1.469144,144.79643
1.4109181,148.48433
1.4211366,145.21846
1.3882495,146.88217
1.4611925,148.13435
1.2858067,147.80016
1.336082,144.49559
1.1897162,146.28033
1.2561625,145.99239
1.1673657,145.34726
1.2157602,144.24144
1.1498238,138.38434
1.1744438,139.66745
1.1187242,140.60399
1.1369274,142.36815
0.95678306,138.0064
0.9997477,136.19197
1.0235554,136.42422
0.90181106,131.72786
0.9590058,127.66387
0.9234824,128.43945
0.9629792,127.71145
0.95032984,125.030266
0.90838104,123.69677
0.837226,123.20815
0.8486499,124.48842
0.83927995,120.96319
0.87937516,116.2772
0.85166025,117.22144
0.79577315,118.11996
0.7947499,114.67283
0.79100066,114.55961
0.6625706,111.27347
0.800642,110.06899
0.6377051,109.623344
0.62659824,107.57574
0.51870364,105.55694
0.56752485,100.58437
0.5990138,103.96229
0.45547062,102.18228
0.41128376,100.653824
0.42599165,96.19748
0.44041228,96.03709
0.40454996,95.31123
0.36197174,90.815056
0.3713988,91.27887
0.33720312,91.48613
0.31749442,89.40748
0.31084976,85.70332
0.24963513,85.39393
0.32070637,84.21441
0.27909952,83.40249
0.42136165,81.64444
0.36000675,80.825005
0.38444772,81.5514
0.29697835,78.01366
0.25540438,76.798874
0.23740184,78.75802
0.18331163,79.06823
0.15796039,77.95931
0.19647394,79.49681
0.033445697,80.50285
0.12304095,77.64721
0.02910187,78.25579
0.019677605,77.18072
0.0816065,77.952515
0.007692652,81.12046
-0.06323718,80.53093
-0.055906285,82.69181
-0.05987172,85.98286
0.03334644,86.2934
0.0062234984,88.14451
0.19602995,91.596985
0.2529984,94.53641
0.29563314,98.22595
0.35649163,101.300476
0.4189484,98.95416
0.48928675,104.51628
0.6461721,109.17404
0.66686386,108.50933
0.70855194,111.56278
0.87416965,114.327675
0.9418151,118.16796
1.0278221,121.98973
1.0288321,122.90961
1.1808531,124.83326
1.166889,130.00783
1.1936334,133.33504
1.2808586,134.29297
1.3550383,137.02396
1.3501656,137.59131
1.3200691,137.93713
1.4536071,140.10175
1.386195,143.48828
1.4496808,141.93098
1.4182377,145.5322
1.4604744,145.50996
1.367894,147.02802
1.4648341,145.73698
1.415286,149.01357
1.3845685,149.78319
1.3961691,146.76057
1.3330781,146.46054
1.3290306,145.14426
1.3538023,145.42676
1.3232332,145.32256
1.232479,146.67921
1.2989491,144.64488
1.1971824,141.10376
1.2289226,142.68115
1.150758,141.8065
1.0672028,140.66579
1.1201593,137.66801
1.1385369,136.7019
1.1082206,135.18143
1.1298114,132.44402
1.0276827,132.45201
0.99214834,131.27725
0.94989693,129.3865
1.0808884,128.13762
1.043069,121.64734
1.0000517,125.909676
1.033812,120.25967
1.0190907,122.37132
1.0219018,119.59919
1.0418063,115.264114
0.90127945,115.916885
0.8929565,118.33499
0.8788079,114.46374
0.9227253,111.4432
0.8631863,108.83586
0.7987955,108.7829
0.845079,108.07156
0.8575845,106.7092
0.6992708,104.65831
0.66661817,103.51499
0.61247903,99.485146
0.5705407,99.77652
0.6158149,99.702705
0.59569305,96.10739
0.5052397,95.60162
0.5835211,95.14655
0.57713634,90.44548
0.5361061,89.148964
0.5657932,89.56679
0.5425444,85.859764
0.48640198,85.58552
0.531225,85.09493
0.51468724,85.45549
0.51976556,82.68482
0.656219,81.5276
0.55725896,78.43135
0.45734766,80.48185
0.54987675,77.444885
0.3640576,77.92943
0.36573046,78.07161
0.39191014,75.935905
0.36326167,76.09303
0.30127198,75.37637
0.28674665,76.48274
0.26394758,76.48289
0.21104589,78.97215
0.23383065,78.15532
0.23258948,83.3198
0.266645,81.33593
0.1944182,82.19242
0.21759817,87.697655
0.32390484,85.5723
0.4072458,92.13267
0.32366598,88.471115
0.49683398,91.91837
0.5020829,94.4721
0.58770025,97.70372
0.8040071,100.62459
0.7617556,104.33222
0.8489547,109.38015
0.9818647,106.93759
1.0469179,109.56341
1.1662577,115.03078
1.2543219,117.36451
1.3523494,121.15634
1.4354999,120.59871
1.3634881,122.94713
1.5316111,126.83962
1.4207867,131.57643
1.6016626,131.26501
1.6525147,133.58199
1.5825417,138.4581
1.6700993,140.99205
1.6059134,140.24124
1.7185767,143.88693
1.7287118,142.7874
1.7371963,143.53397
1.7154588,143.07855
1.7597743,146.23122
1.7357223,148.3708
1.7107072,148.36311
1.6301234,145.59445
1.5895586,147.19923
1.7030956,145.81262
1.7139318,147.9449
1.712386,145.6438
1.6381391,147.86852
1.6149138,143.92624
1.623825,144.03194
1.6225404,144.72337
1.5173882,141.14072
1.5479884,143.0491
1.5776426,138.05891
1.5596777,139.73828
1.4440057,140.42337
1.4271287,138.16924
1.425983,135.59592
1.391585,133.9438
1.3628043,132.00174
1.4186722,129.8082
1.341042,125.28504
1.3607134,127.86928
1.3269861,125.867195
1.3644071,122.4841
1.3584677,119.992584
1.3655161,121.084915
1.4070526,119.04151
1.267863,115.37287
1.1695726,113.67005
1.3541479,114.074165
1.2448335,112.412094
1.154583,110.65511
1.2233391,110.37058
1.0974755,105.44613
1.0375469,108.69536
1.1177688,105.42486
0.98452723,104.401184
0.9703065,103.773476
0.8807611,101.40897
0.9450394,101.71686
0.8515435,97.083206
0.8743231,94.76571
0.90291464,91.73878
0.9046612,91.837395
0.87618244,88.95419
0.7814299,92.242805
0.8414161,91.02079
0.92369807,85.19495
0.8100876,87.25406
0.76899546,82.912315
0.8874692,81.18011
0.7826221,81.17723
0.86634916,82.00672
0.8140003,80.78222
0.77432126,77.13077
0.7584635,77.50439
0.7626726,75.80491
0.7135507,76.86786
0.66806906,79.67744
0.69149625,76.770775
0.6491107,79.22451
0.6312974,80.594215
0.6254508,78.0678
0.5179702,78.39205
0.49867567,80.346344
0.5316165,78.771675
0.62118506,83.2412
0.5116628,84.388435
0.6206367,86.007065
0.64144796,87.476265
0.6375974,91.40879
0.67948776,94.119064
0.6977372,93.30655
0.8787932,92.993034
0.8703362,95.95129
0.9370433,103.5351
1.2005498,106.03779
1.1959345,106.59857
1.2946374,108.2001
1.294853,113.5093
1.3996011,113.77228
1.4096931,119.5972
1.5768136,123.10015
1.5920165,122.43423
1.6190064,124.95237
1.7338427,129.70648
1.816486,132.81297
1.8845168,134.21973
1.8355558,134.14168
1.9926236,135.61183
1.8969011,138.34366
1.9667863,144.16937
1.9188442,142.3737
1.9120613,141.6535
1.9130888,145.75526
2.0154662,143.89612
1.9938401,146.08958
1.9434713,147.4277
1.9308878,150.44623
1.864025,147.87534
1.886264,147.22112
1.8829075,147.54309
1.8660802,144.64015
1.8843173,146.53038
1.8132141,143.68907
1.7409421,145.69606
1.7542278,145.33762
1.7511318,142.3643
1.7275356,142.73163
1.6381012,138.70435
1.8230721,141.6736
1.5895116,137.30432
1.6024076,133.41599
1.6661206,139.12683
1.5457397,131.82341
1.5143951,131.70618
1.4639094,130.48985
1.4900074,128.2888
1.4949753,128.03914
1.545485,122.74537
1.5128508,124.06492
1.4570236,122.68985
1.4610438,122.16036
1.4235963,120.06016
1.4685618,116.03272
1.370043,117.174835
1.3984983,115.43483
1.3545444,115.618706
1.3097317,112.51655
1.2677952,110.44861
1.284992,109.35593
1.2298529,110.49987
1.1587923,105.08311
1.0489463,103.08801
1.0263884,100.001884
0.97531646,102.72483
1.0337504,102.24961
0.9271886,97.26394
0.9333668,97.136154
0.9357839,94.37747
0.9330371,95.55196
0.90062094,92.37685
0.94131577,90.366936
0.90333253,90.91975
0.9610304,89.318855
0.89794123,85.638985
0.9298992,84.34925
0.82555026,84.97996
0.87924653,82.02259
0.83406705,84.06186
0.8831882,78.270195
0.82067126,78.798325
0.72652435,79.96925
0.8201626,78.63875
0.73622864,79.45941
0.69447434,78.62491
0.6205417,77.48421
0.6282827,77.7457
0.520713,76.92043
0.6335115,79.188286
0.4437719,78.25375
0.44763428,79.17955
0.4987457,79.59161
0.42728943,81.10191
0.46054065,85.6681
0.44395694,84.72225
0.41177595,88.39464
0.5198725,89.663475
0.61803395,92.26441
0.6778765,93.91414
0.680434,95.77248
0.81942016,99.63284
0.7816997,100.988045
1.0379658,104.71307
1.0149311,103.81934
1.042064,109.53073
1.2135786,115.41835
1.206564,110.60026
1.2550583,115.524315
1.4283328,122.34483
1.4689764,122.633255
1.5880107,127.81085
1.6375508,126.63152
1.646072,129.3304
1.7144289,130.06937
1.7032851,135.48882
1.8361938,137.27844
1.7019659,138.95592
1.7695731,143.1405
1.7061056,138.8059
1.6776283,144.06712
1.8831022,144.08704
1.7568728,145.37202
1.8727627,145.32964
1.7923709,143.15178
1.7661321,149.14192
1.7777548,148.58078
1.7385393,144.78143
1.6916384,146.86469
1.7895815,148.4409
1.6202991,144.44012
1.6160717,144.67236
1.6064389,147.65758
1.5481628,146.7728
1.5614122,141.71666
1.4795532,140.73088
1.4494592,141.82893
1.4393717,141.65181
1.3939458,139.4494
1.3798012,139.37372
1.3273311,137.3625
1.4019465,134.27583
1.3338169,132.65698
1.3300958,130.0262
1.2737951,129.4844
1.2721989,125.777885
1.3189131,126.02888
1.2395588,124.56006
1.2283052,121.337944
1.2219241,119.91358
1.2940738,121.450325
1.1394491,117.01475
1.0807563,118.40736
1.1284772,114.492226
1.1241322,113.2544
1.0343906,111.30105
1.0582377,111.78433
1.0149364,108.35525
0.9340579,109.73547
0.91242504,107.05984
0.88918245,105.50378
0.8667023,106.051735
0.74078816,100.85387
0.69506526,98.60092
0.6852902,97.2027
0.69051456,97.39223
0.748001,94.591415
0.62566763,92.693634
0.6326311,91.94542
0.63630456,92.67979
0.5293868,89.25336
0.56214887,86.42489
0.4934945,84.34844
0.56051034,85.72845
0.5679445,84.24508
0.60251623,82.673065
0.4640057,80.76479
0.50716555,82.81327
0.4990804,78.829994
0.42020115,78.040695
0.42575732,77.09115
0.43503687,78.3763
0.3117869,80.51614
0.36986843,76.22766
0.21140261,77.676674
0.24837126,72.85117
0.16844262,79.736595
0.21209332,80.59946
0.17676635,81.7805
0.118008904,80.504234
0.11392874,83.08971
0.06403427,81.40123
0.03725947,80.93441
0.15965831,83.22331
0.14265563,87.21225
0.16583481,90.00911
0.23828429,90.6067
0.3620121,93.338486
0.43361932,97.96323
0.5060425,99.95053
0.58164746,99.65183
0.70423365,104.55124
0.7019503,106.03308
0.85904056,110.544174
0.8710598,114.24414
0.95663816,113.96752
1.0077941,120.82255
1.1171347,121.357765
1.1961117,124.46118
1.2731757,125.13394
1.3006482,127.22095
1.3582366,132.45892
1.3907579,134.87122
1.4184415,134.61491
1.315145,137.33989
1.405674,139.47612
1.4374015,140.71227
1.4775473,140.51535
1.4850315,143.82492
1.409819,144.04788
1.4890954,146.39914
1.4709494,143.86841
1.437063,147.83577
1.403956,145.45532
1.4351937,145.63129
1.4496372,145.74283
1.4113111,144.64859
1.3504121,146.77318
1.3784198,143.58731
1.2799944,140.46284
1.301591,144.48459
1.1433623,142.26825
1.1504241,143.17796
1.169522,140.51837
1.1063893,138.8823
1.0226912,138.09158
1.10539,137.79405
1.0887576,136.33055
0.9976001,131.65837
0.9501917,134.90012
1.0593127,132.43651
1.0153005,128.98145
0.9423948,127.3366
0.9137092,126.47923
0.9000742,123.1913
0.94869167,125.16251
0.9343883,122.06467
0.8637688,121.61477
0.88918173,118.62535
0.8576121,118.59556
0.8714862,119.41218
0.7895229,111.418495
0.727902,110.736176
0.6861603,113.23138
0.6724202,108.94399
0.6611435,107.056076
0.6612979,104.58846
0.582544,105.69934
0.58944136,106.423904
0.5319716,105.39255
0.5005689,101.21286
0.370346,97.37308
0.39744195,95.59642
0.3814401,97.05347
0.28277165,95.89542
0.2521796,93.83666
0.27315456,92.5577
0.36981425,89.66764
0.32282734,87.46294
0.39275363,85.156876
0.26997358,86.84724
0.3922548,85.64726
0.32124493,82.93127
0.28739998,85.17456
0.36145866,81.760445
0.31533274,77.96112
0.286346,81.66717
0.24937934,77.13165
0.23250866,76.71581
0.20086849,78.22028
0.14958163,77.41102
0.17467543,75.0523
0.073506735,80.03177
0.08472319,76.67597
-0.0043864544,79.50121
0.06576013,76.63756
-0.023276389,78.28291
0.018177485,80.48182
-0.053116564,81.843666
0.06798692,84.69284
-0.010821704,86.09333
-0.00060446066,85.31285
0.09181154,93.06903
0.055874303,90.26272
0.21544525,94.23291
0.26690692,96.953606
0.33985674,96.4779
0.33269224,103.636154
0.40954435,103.353676
0.6131692,105.79874
0.65399206,110.67517
0.78743356,115.61608
0.7819306,116.02836
0.9806804,116.08705
0.96666014,122.53255
1.064959,123.14406
1.1197668,126.2024
1.1261353,131.95296
1.2352763,127.117256
1.2180133,134.13216
1.2257371,134.57687
1.3465464,135.8487
1.3735915,136.656
1.4090687,141.34358
1.4324107,140.73576
1.4124304,145.22377
1.4682931,147.29651
1.3475257,145.14381
1.3619139,149.36955
1.4694002,143.1617
1.378695,145.2745
1.3263398,147.24841
1.3652458,147.9373
1.2599696,145.45885
1.3036745,147.41092
1.3393978,144.88214
1.2982996,144.98442
1.1960585,145.63716
1.2161422,145.22609
1.125743,144.35013
1.2269926,140.7045
1.1885636,140.85358
1.1713196,136.72627
1.05927,137.37251
1.0523611,137.06236
1.0133195,133.94661
1.0984734,134.91864
1.0479634,131.79414
1.0551506,130.31499
1.0026091,130.0511
1.0811125,127.686935
0.87612724,125.49691
1.0380027,125.395584
0.95424753,123.854
0.90766025,124.063095
0.9638543,119.7944
0.8966122,120.45015
0.8682377,115.24642
0.9552068,113.41952
0.9082687,111.953835
0.903891,113.45054
0.7985064,108.348015
0.84385216,108.56217
0.7635749,106.87635
0.696197,106.54815
0.69711494,104.18999
0.6845925,103.45397
0.6156553,101.11711
0.58925,100.84788
0.5618527,97.272514
0.50108933,96.26078
0.50699574,95.05363
0.4955091,95.74783
0.40989608,91.90386
0.44165015,88.36
0.487321,91.036545
0.4771899,87.31335
0.51623726,82.506935
0.5293253,84.03779
0.4392748,84.662704
0.48147327,80.15916
0.47034064,83.5145
0.39272717,79.8678
0.3725502,78.91693
0.44764182,76.413055
0.39856908,80.39321
0.4409535,78.42081
0.38487265,76.25805
0.33568126,79.56217
0.23341858,79.06367
0.21719572,77.309906
0.12773998,81.87898
0.24231821,78.08784
0.18990049,78.293106
0.16532739,79.80741
0.18025869,81.65918
0.18634091,83.987175
0.13640283,85.41316
0.21854402,87.688255
0.16394894,87.080826
0.3844761,90.06221
0.4122532,92.30663
0.48678684,95.87759
0.5860986,96.61609
0.62229013,100.3959
0.6647497,103.071075
0.78225625,105.01476
0.9202437,107.54976
0.99522597,110.59673
1.1600064,114.75325
1.1678325,116.24692
1.2248623,115.192856
1.3121151,122.95632
1.4502752,125.925354
1.4946859,124.09778
1.4301778,129.90218
1.5256215,130.30807
1.5426555,136.41576
1.5154482,138.44876
1.656355,135.11255
1.618719,139.13498
1.6599323,142.59909
1.71832,143.34058
1.7065749,145.35295
1.7791303,145.1301
1.6837703,144.53847
1.6627183,146.61835
1.6896024,147.0332
1.66279,148.45601
1.6917386,147.4969
1.6692888,147.42812
1.6690838,149.27711
1.6378957,146.02705
1.5740459,146.96104
1.6355895,144.44307
1.5754579,143.86115
1.5375371,143.18344
1.5599558,142.92151
1.460176,142.912
1.5084621,139.38533
1.4751192,137.14519
1.4203932,136.89238
1.4594853,138.4135
1.38111,136.66206
1.4074588,134.34978
1.3516589,131.52376
1.324558,128.933
1.3129766,128.67691
1.3332664,124.5128
1.2544729,126.025375
1.3082062,122.906395
1.363955,122.916565
1.3505698,118.92092
1.3107793,118.387886
1.3110782,116.98989
1.2284358,115.96568
1.3193303,115.0735
1.2610269,111.76511
1.2216681,110.17973
1.1429573,111.05506
1.0518178,108.08985
1.0288588,109.9469
1.0872412,104.638756
0.9759839,101.069954
0.9305074,105.09391
0.9691073,97.96671
0.9127995,99.89606
0.8722813,95.75965
0.9146685,92.47038
0.8952355,95.02084
0.75149447,91.90397
0.7963112,91.2386
0.79856145,87.44071
0.78665674,89.502914
0.83627087,85.02275
0.85127866,85.4142
0.8059095,83.64475
0.7828201,81.121994
0.80781907,84.63249
0.84517825,80.907845
0.81078583,77.35512
0.759976,77.253296
0.756803,77.32296
0.8771503,75.52222
0.68956375,77.050766
0.6798366,76.54029
0.7100974,78.3803
0.5983804,77.90652
0.5689948,77.81094
0.62282646,77.8036
0.5324445,79.58011
0.4708391,82.9637
0.47784412,83.836365
0.5401087,81.35073
0.45861304,84.54838
0.5311577,85.642365
0.5675941,88.13876
0.5929394,87.95599
0.72330385,94.268555
0.7327839,95.23435
0.75503945,96.60968
0.9640348,98.72901
1.0255384,102.01836
1.0120256,103.2216
1.1196576,106.06111
1.3025335,110.91058
1.3260936,113.37909
1.3750461,115.08831
1.4557272,116.20956
1.534007,122.15262
1.55356,124.498604
1.6935427,127.326294
1.7945877,129.62961
1.7543659,133.676
1.9332663,133.36272
1.8068205,134.94054
1.9530891,135.54192
1.9345307,138.05464
1.9716103,141.53021
1.9649775,144.20778
1.9560713,142.6878
2.0082433,141.62328
2.0215173,146.74701
1.8948879,145.8578
2.002414,145.36516
1.9969884,145.93988
1.9598898,148.13342
1.9290087,146.64427
1.9648082,146.54012
1.8694538,146.30014
1.8945485,144.8703
1.8369,146.06587
1.8474321,145.51422
1.7505323,142.92839
1.7633916,141.25641
1.6833718,141.3122
1.7234554,141.7598
1.6297344,139.91623
1.6572335,137.4639
1.6128898,138.23048
1.6269776,133.75352
1.5327028,135.48805
1.4649976,132.25482
1.4768815,128.29486
1.4922236,129.92007
1.5281968,127.769196
1.5374097,128.06775
1.4809879,122.9854
1.5503011,122.816666
1.5742744,120.1629
1.4599224,119.91795
1.5721055,117.98384
1.3787999,115.45053
1.453323,111.42662
1.2862996,112.149284
1.3305681,110.96458
1.3348719,113.4386
1.1437864,107.57175
1.173478,109.42512
1.2749774,104.4209
1.1552052,106.2944
1.1691831,99.276955
1.0549573,104.5411
0.891474,102.458084
1.0185268,99.08451
0.9413946,94.234406
0.9235408,95.72103
0.9289343,95.774315
0.9473764,91.58249
0.9086901,89.99486
0.962689,91.43505
0.947353,90.80602
0.8554902,87.90109
0.93832546,85.32276
0.96039087,83.63107
0.9100949,82.45991
0.8836474,81.6499
0.7979916,85.19763
0.80273885,79.1945
0.8180266,78.53781
0.7297954,78.11737
0.69046646,75.976295
0.78375924,78.31576
0.6808981,78.89207
0.60444885,77.04766
0.5863401,74.46486
0.54172975,75.19279
0.45685297,80.63685
0.4718107,78.29753
0.5554763,77.98612
0.5500909,82.78447
0.54049945,82.74688
0.5639066,86.20316
0.5828818,84.47742
0.6097941,87.262024
0.64677966,90.3029
0.71237737,96.42769
0.8244111,97.32615
0.81021905,99.9571
0.9006132,99.62775
0.9824995,103.03178
1.0322347,106.709816
1.1833061,108.21486
1.1554186,112.3019
1.2645497,114.08154
1.3115975,115.53469
1.4464959,120.15324
1.4625632,122.36365
1.6137484,125.007034
1.6442392,125.71333
1.7737114,131.59839
1.6907945,130.39946
1.8000586,135.20514
1.7666982,136.43755
1.8311568,140.03882
1.7971334,137.84354
1.7792023,144.5913
1.8500267,140.69267
1.8204707,144.59702
1.8780149,143.16588
1.8035864,147.6809
1.8188539,147.12357
1.8196163,146.51338
1.7459781,147.98457
1.755358,147.00905
1.7447587,148.16377
1.7113949,144.2148
1.7017401,146.0035
1.745277,146.56137
1.660839,145.27675
1.593572,144.19016
1.5365146,143.10553
1.5653478,141.0615
1.5248759,140.067
1.4152206,140.42047
1.4219426,139.90239
1.4333601,134.56937
1.39413,137.82027
1.3168167,133.50258
1.4453111,131.28142
1.3703315,130.21509
1.3185543,127.309
1.2492039,125.57741
1.2845732,127.82571
1.2674818,127.16623
1.2131101,121.665886
1.2826283,122.70527
1.1889579,119.5758
1.1392695,118.72657
1.1627009,114.90817
1.1623842,114.29685
1.1783592,110.71439
1.0872048,114.063286
1.0927547,111.17766
1.0575311,105.515724
0.9451647,106.70395
0.8891911,106.44257
0.88451433,107.08136
0.9155915,103.48328
0.744393,101.39158
0.79966027,98.371994
0.80115,98.22395
0.66224855,97.40831
0.6412904,93.853516
0.7133561,94.81343
0.6260186,95.308495
0.6468849,90.88636
0.6089579,92.25133
0.6473182,85.55268
0.62930113,84.841286
0.59709346,86.77301
0.63855296,82.1939
0.62999576,83.85651
0.68350714,81.149124
0.48005775,82.42744
0.5428899,80.32883
0.5463761,81.26826
0.50741595,77.5496
0.43820006,79.50896
0.47133088,80.27075
0.3756817,77.21905
0.33523956,76.16127
0.29954958,80.309875
0.256467,79.4772
0.16858077,77.9666
0.07920616,77.39823
0.13811219,82.43108
0.20621595,81.71506
0.23771279,82.20489
0.18098293,84.17328
0.19544369,90.020676
0.20714149,89.55037
0.23820475,90.4501
0.32152095,90.94236
0.33161393,92.85403
0.5675477,96.73787
0.62559503,100.87963
0.6217262,100.63629
0.6900127,104.029076
0.7012572,107.90767
0.87776715,111.17019
1.0153676,111.70536
1.0733147,116.67654
1.1105691,119.94607
1.1415997,121.570435
1.2669317,125.50275
1.2327067,126.75774
1.2046275,131.01425
1.3900443,131.99776
1.3710071,135.75519
1.42979,137.22925
1.4502473,137.9106
1.386552,138.33633
1.4884964,142.80327
1.4453807,142.20386
1.437325,145.43108
1.4996852,144.36696
1.4964141,144.03546
1.4838804,146.99039
1.4624472,144.72835
1.4738939,148.13077
1.4028065,145.67232
1.4024884,147.76537
1.400041,147.06989
1.3473297,146.903
1.3973095,145.24962
1.2790636,145.80905
1.360465,146.4644
1.2477052,140.30795
1.2036756,138.7879
1.1804632,139.72624
1.1510252,141.42476
1.112164,138.4031
1.0766393,137.18573
1.0628422,139.45227
1.0474173,132.69104
1.097077,130.27614
0.9623527,129.26003
0.906053,129.8984
1.020967,125.69318
1.0720822,125.849724
0.990577,123.29363
0.9586382,124.49132
0.9573555,120.37651
0.9648264,120.80044
0.97232825,115.74792
0.9226009,117.1711
0.8267214,118.69298
0.9158509,115.89255
0.7709771,112.599884
0.78275514,108.77878
0.7075743,108.40452
0.6680473,108.49609
0.6225535,105.29711
0.55752563,105.3455
0.5953554,106.06132
0.48674712,103.9337
0.4917769,100.232735
0.4392421,100.29942
0.4578239,95.14877
0.3839437,98.02753
0.40887812,92.500595
0.37946042,93.42604
0.31106582,93.260056
0.3330131,86.919876
0.3133646,88.0391
0.4582521,87.341034
0.3465154,85.4396
0.37921372,82.60004
0.3494293,85.96488
0.24548103,81.197235
0.33672374,79.125244
0.22717895,78.01183
0.2251782,76.95575
0.2248565,77.452614
0.23639877,74.60664
0.16746344,78.9875
0.1495121,75.3152
0.10431131,78.10671
0.074079424,77.2429
0.12401928,78.20759
0.06441049,78.49291
-0.06950185,77.11447
-0.08236537,79.797226
-0.03457286,80.422615
-0.086345464,84.62235
-0.061645232,83.45718
0.019460157,84.93713
0.023152258,85.430885
0.06818872,89.9708
0.014318488,95.06257
0.18706208,92.97207
0.23585014,98.09084
0.27405164,98.15993
0.34984905,103.3492
0.47144267,103.10019
0.50636905,105.272446
0.6378841,110.73776
0.7933177,113.025986
0.76979804,117.593796
0.9307312,120.56623
0.9926031,122.14215
1.0234545,123.330826
1.0708474,124.577614
1.2073375,130.58797
1.2154577,131.81143
1.1652379,130.72267
1.2755743,137.57356
1.3289012,132.54973
1.2801436,138.15434
1.3275307,142.74568
1.3567282,142.7906
1.4226018,143.49377
1.393306,145.3162
1.4090266,143.91373
1.4478213,145.1483
1.3097265,146.25116
1.3294659,145.73634
1.2675159,147.85199
1.4276247,149.04413
1.3935795,145.45023
1.3000195,147.23059
1.2117897,148.69733
1.2282411,143.49245
1.2017401,145.16747
1.1477087,145.4626
1.1412795,145.36632
1.1470407,140.51064
1.09522,141.57434
1.0491906,138.15721
1.0710971,137.27997
1.13349,135.48386
1.0240326,136.17993
0.9570609,134.11002
0.96544975,131.91714
0.92130136,129.9561
1.0472441,129.21844
1.0424521,125.25209
0.9395903,128.11957
0.9674832,123.87822
0.8406288,123.70231
0.9649063,117.670555
0.93444186,118.46841
0.9049361,116.34129
0.96004504,117.93641
0.8103399,116.15607
0.837454,115.204475
0.7253123,111.51758
0.82478124,109.96044
0.72551525,112.21823
0.6829276,106.108505
0.649211,105.8233
0.65726715,105.981415
0.6128428,101.98974
0.6067106,103.77515
0.5893795,98.10609
0.5576798,98.53347
0.4759901,100.22136
0.5109905,93.44493
0.4666566,91.65488
0.4499086,94.233604
0.41045257,91.22744
0.44372642,88.15062
0.48724425,90.296036
0.4263565,87.65109
0.39617884,85.25551
0.475152,82.78568
0.41078267,83.49004
0.45103598,82.486244
0.4986891,80.11812
0.37007895,78.45851
0.30860844,80.12987
0.31562674,76.97329
0.38138926,75.67761
0.29035953,77.93389
0.24852951,79.35794
0.21219966,78.04378
0.19539721,78.21135
0.17937154,77.11439
0.24012786,81.49231
0.14582092,79.39539
0.16062334,79.42126
0.048626818,84.03814
0.12258143,83.97904
0.15971996,84.3915
0.22252314,85.39388
0.21751924,88.22556
0.30473,89.67499
0.34035668,92.953735
0.3449773,94.818954
0.5164014,97.59165
0.5604774,98.75635
0.6656475,101.50754
0.7890966,104.2045
0.87239516,106.56811
0.9148677,113.017456
1.006105,115.512215
1.0842777,119.46769
1.108965,120.37913
1.2763674,124.46554
1.4083349,122.152306
1.3541918,124.14521
1.4734329,131.73093
1.4068595,130.42114
1.5579349,134.01326
1.5887246,136.10751
1.5200353,140.67697
1.6530308,138.89455
1.6178038,139.28877
1.6361518,142.81242
1.6229218,143.30273
1.5470593,143.26135
1.7047505,142.41368
1.628143,144.16626
1.6924889,146.171
1.6149213,148.76132
1.6568189,144.67903
1.644312,146.04558
1.5792373,146.50671
1.6256851,147.75574
1.5322393,148.70448
1.5598208,142.84737
1.580329,144.55853
1.4575218,142.40378
1.4635581,140.76735
1.4582705,138.86636
1.4120268,139.3638
1.3817458,142.05635
1.3427836,137.8795
1.3429366,136.75182
1.4060385,133.52644
1.3543969,132.71065
1.3572311,131.34418
1.3272341,128.64195
1.2631873,128.17862
1.26083,127.75766
1.2467589,124.26033
1.3047341,124.11901
1.3082588,122.63354
1.2146432,118.91082
1.2442702,117.38238
1.212137,116.14616
1.1933558,113.12979
1.1948757,116.6102
1.1684093,112.95661
1.1562136,110.90523
1.1326394,107.161385
1.0952172,109.06428
1.0717157,105.16188
0.9944152,100.91797
0.99567354,102.406075
0.9750635,103.089424
0.9247746,100.02666
0.85308254,100.60893
0.83223397,98.53661
0.8197559,94.80538
0.8538455,91.74494
0.8416088,91.02275
0.75570965,91.823654
0.81803054,88.383514
0.7108411,88.99639
0.78698295,86.74272
0.80719835,84.26931
0.74084496,83.44775
0.84507203,85.184616
0.8642329,81.51723
0.79799867,77.63027
0.81699663,80.19782
0.80795485,77.978485
0.77299,80.28891
0.7592338,76.961136
0.6964703,76.74007
0.6749256,77.574615
0.6804482,75.790146
0.53193605,77.13004
0.4722416,77.16213
0.46781918,78.27923
0.55781126,81.158905
0.4255425,79.60183
0.53162205,80.86416
0.4169976,81.559006
0.5249893,81.46087
0.58695394,84.088264
0.49478757,85.74613
0.5898893,86.67398
0.618834,90.22325
0.702859,91.54789
0.8017563,94.8646
0.90646285,96.99962
0.9760198,101.33905
1.0143692,103.731384
1.1883839,106.403015
1.2250185,111.723434
1.3177462,112.822495
1.3966278,114.38183
1.4132438,117.37746
1.52017,120.14312
1.5947347,124.13527
1.5458783,129.22346
1.6961539,130.98003
1.7817805,131.69618
1.8258862,133.10255
1.8614881,135.064
1.8980092,135.77368
1.8637758,137.70058
1.8977411,140.4715
1.8965979,143.9682
1.9911491,142.31105
1.8966368,142.56194
1.9347764,143.8761
2.0099618,144.96867
1.942958,146.16017
1.9508387,147.34398
1.8910108,149.32315
1.9754269,146.61403
1.8832139,146.93831
1.8690417,148.18259
1.868151,147.76314
1.8450975,144.4788
1.8324679,143.56784
1.7039574,143.68637
1.7461005,145.39177
1.7399791,138.68979
1.6905676,139.28468
1.6484537,138.57129
1.6214732,138.7609
1.5486358,134.14456
1.5517426,136.45415
1.4955684,131.6328
1.5093712,132.8332
1.4800321,130.47784
1.4741064,130.01753
1.4574128,129.01173
1.5836574,127.56592
1.5366983,124.07484
1.4477184,119.36627
1.4752704,120.29648
1.4941213,116.99833
1.4141439,120.32244
1.4173447,114.31389
1.4168175,117.426
1.3558912,112.10981
1.3292371,111.74737
1.1957678,108.46131
1.308451,107.42543
1.2532012,107.05775
1.132999,106.864525
1.140029,102.04394
1.1556258,100.39923
1.0591389,101.97234
1.1426097,99.115486
0.9944767,94.473114
1.0799773,96.270775
0.9918217,94.84242
0.98399615,95.781006
0.8656451,95.99805
0.8708082,89.1789
0.9175451,86.08489
0.93072164,89.06754
0.9479631,84.84068
0.8907055,85.669754
0.9365994,81.38076
0.9242666,81.86729
0.89548737,82.1668
0.904909,79.14441
0.84424853,77.72908
0.85513425,80.061584
0.8280563,79.50686
0.7415745,76.02914
0.7745819,76.8288
0.6800332,79.018295
0.61699253,76.344475
0.63334775,78.102646
0.6630121,79.11124
0.5162609,77.829994
0.48198414,80.73453
0.5217545,80.61287
0.4838627,80.610146
0.42991737,84.20422
0.5041526,85.511086
0.6300581,88.79365
0.59513456,88.394
0.59661293,91.80906
0.7391522,92.76535
0.7842348,95.05695
0.95223194,98.352455
1.0263928,98.22123
1.0541688,104.32647
1.1216494,107.65741
1.1349947,108.19158
1.2516092,113.898926
1.4067622,114.69807
1.3818694,117.72971
1.5088397,122.145454
1.5789284,123.02753
1.5228666,126.69414
1.6270646,126.929634
1.6937195,131.9471
1.7197192,130.36354
1.8568729,135.13191
1.7511252,133.76532
1.8660245,134.01543
1.9182255,143.42183
1.8743047,139.76259
1.8527728,142.48672
1.826922,146.92111
1.8189137,146.88785
1.7963564,147.86975
1.905751,147.14587
1.8783756,146.57555
1.8273323,146.82626
1.8146989,147.42847
1.7978277,146.10541
1.7676526,147.51263
1.8070018,146.1934
1.6698383,142.43979
1.6560167,143.4501
1.6960562,144.70285
1.5201235,140.2862
1.6177367,140.2053
1.561261,140.09187
1.4858729,140.56662
1.5115,137.63286
1.4354123,135.63016
1.4300634,131.88365
1.3851727,131.99614
1.343537,131.68478
1.300225,133.46812
1.2829348,127.092125
1.318808,127.90158
1.3475387,128.2279
1.3185366,124.46477
1.3529192,122.33637
1.2947,123.93901
1.2387114,121.32059
1.2126904,116.98045
1.2118468,117.349014
1.187857,114.26193
1.1445706,116.19142
1.1601313,112.83625
1.0604897,109.46577
1.108262,110.82892
0.9975416,106.549416
0.97648513,104.96023
0.968,103.978226
0.8636726,106.34233
0.7956419,102.221405
0.8707591,100.280846
0.79721344,97.835815
0.76008195,101.53794
0.66880065,95.506645
0.6857228,93.74745
0.72489583,94.502365
0.7019098,90.130646
0.6446815,90.181656
0.70969003,88.66474
0.6163325,85.53167
0.7061283,86.21814
0.67212504,83.06919
0.58611584,81.2112
0.66254425,81.22988
0.5614524,82.81674
0.6413494,79.481094
0.49187237,78.2844
0.50968575,79.78236
0.43699232,79.32113
0.5047355,81.02073
0.3744534,77.76439
0.43720588,78.02404
0.34511644,78.395645
0.26222202,80.72008
0.29503924,79.533936
0.23610204,79.30596
0.2763324,78.63843
0.2504417,80.908775
0.1681064,82.44718
0.26890993,82.47129
0.25204748,83.78001
0.27758035,88.61618
0.3709611,89.79157
0.43733004,93.01301
0.38719687,92.88979
0.47953117,96.28436
0.6510629,100.77141
0.73956203,101.51015
0.7116375,102.771484
0.79854304,108.49142
0.8714557,108.25403
1.0002531,112.23228
1.0841875,116.49053
1.1032903,118.993355
1.2385422,122.74056
1.3039101,125.65132
1.367417,127.366516
1.3008648,131.11516
1.3851292,134.2414
1.3783253,133.67545
1.5013252,135.13992
1.5035356,138.81396
1.4437985,138.04132
1.5130857,142.48447
1.4762058,139.62852
1.5122652,142.7818
1.5103264,147.83006
1.601086,146.50168
1.5230296,142.05519
1.5406201,146.34224
1.4989688,147.29196
1.4636811,148.96564
1.5422306,148.42657
1.3683258,145.3166
1.3549949,149.25356
1.3550156,144.71777
1.3707143,144.74138
1.326119,142.84686
1.3269078,144.42172
1.3222849,142.39859
1.190382,141.10019
1.2362685,140.41553
1.1271652,140.87383
1.1738678,139.43533
1.1485122,134.49544
1.0381135,134.55675
1.0544451,132.02873
1.0452384,132.9303
1.0884007,128.64165
1.0238787,128.40758
1.0644917,128.0423
0.98173195,124.9734
1.0164471,124.44254
0.98415524,119.19779
0.9639429,122.07616
0.9405296,119.709305
0.8896161,117.06093
0.85707873,117.148575
0.8014803,112.06518
0.8035528,112.34781
0.7654504,112.47975
0.75471646,111.28855
0.70391476,107.059395
0.6168719,107.81432
0.6358085,103.68984
0.62426275,104.9281
0.5757618,99.2904
0.4572186,100.81618
0.4773362,98.90442
0.50497246,98.004105
0.33955312,93.905365
0.39841112,94.60597
0.32333395,91.41489
0.31169367,91.14505
0.41029796,88.10833
0.38370916,88.3987
0.3207361,85.39248
0.422677,80.82614
0.3466799,84.83302
0.34134698,83.92059
0.32126358,81.86862
0.25351885,83.924355
0.24973167,80.70576
0.27198553,81.393
0.22819701,79.30581
0.23548895,74.72342
0.14935532,77.75574
0.2024824,79.212135
0.17033172,78.4207
0.108908474,79.12798
-0.022613032,75.337494
-0.008268784,81.04354
0.031049026,82.62267
-0.07486095,81.588295
-0.06472768,81.935036
0.0054254066,80.47218
-0.028850537,82.85432
-0.052593652,86.080315
0.08051953,85.12755
0.123735406,92.827255
0.13398658,90.2033
0.1573668,89.79144
0.19948727,93.70814
0.23426813,98.79743
0.3744436,100.93609
0.5543879,104.16325
0.6293545,109.15576
0.64248383,106.048645
0.73659635,111.709175
0.8456101,114.37298
0.903114,118.13828
0.963391,120.70378
1.1286112,126.11929
1.1444284,123.16049
1.1946082,128.89392
1.1631169,129.0509
1.1905595,135.37473
1.1897542,134.61589
1.2259169,136.16019
1.2793031,139.53104
1.3757291,140.4072
1.3247861,143.14886
1.4073817,144.30424
1.4080408,142.9285
1.4130514,147.95885
1.3546581,144.82532
1.3608702,147.6765
1.3099091,145.11133
1.4078287,147.72089
1.3201889,150.10013
1.2903945,147.74998
1.2685213,147.47299
1.3160118,145.66707
1.1913241,146.32285
1.3199254,145.45833
1.1663411,144.61128
1.2101903,143.631
1.1163169,139.92227
1.1289926,140.52753
1.1528329,140.04901
0.95526606,136.3378
0.99898046,135.89029
1.0052,134.16351
1.0093274,132.1272
1.0602691,130.65758
0.96623766,129.94818
0.9138814,128.33559
0.97211236,128.11531
0.9140296,124.344345
0.9506132,124.81642
0.9229444,122.98346
0.8987246,122.83505
0.8904177,117.98756
0.9971955,114.74597
0.9108119,114.326065
0.8062886,113.98013
0.8018309,112.705864
0.8196837,112.23265
0.75539136,111.48288
0.77445173,110.85976
0.7318181,108.11445
0.6740386,106.554306
0.62250704,103.63818
0.57823336,102.314354
0.5793357,102.76088
0.50002456,98.40416
0.43113244,96.546616
0.42699957,95.19735
0.523872,94.23662
0.46551442,90.51667
0.41183642,93.499
0.42130312,91.261024
0.4167505,86.969955
0.4816002,85.39727
0.41659924,87.76553
0.45269763,87.079254
0.36314246,83.94449
0.44553235,82.26769
0.28863516,82.16765
0.39552182,81.659195
0.30203637,78.26065
0.22927901,80.71438
0.34815973,78.465515
0.2389574,77.6223
0.23198393,75.08127
0.18960068,74.89534
0.17138807,78.951256
0.22189997,75.653885
0.18923415,77.79171
0.18926153,74.88135
0.13364671,78.205025
0.09130581,80.20931
0.09417198,79.69516
-0.00551027,86.40553
0.12366263,86.36226
0.15167424,87.85778
0.15688838,83.86578
0.22706859,90.11656
0.27332914,94.00786
0.3821554,94.837105
0.45857948,96.92796
0.56495327,98.607376
0.58787954,106.713905
0.80681217,106.564545
0.8012573,106.09621
0.93813616,110.086334
0.9329814,113.960556
1.1041235,115.868286
1.1562737,119.69891
1.2310439,121.248566
1.2648386,123.29007
1.3657126,125.29206
1.4622947,130.96869
1.4377152,130.20842
1.4572306,132.68591
1.4959892,137.86197
1.584953,136.24089
1.5772102,140.21283
1.5607908,139.93925
1.4986899,142.30109
1.6393008,143.23952
1.5340394,144.79208
1.6438465,148.6849
1.6798725,147.11794
1.59084,144.37367
1.607109,148.52412
1.6425807,147.18185
1.5769333,148.18646
1.6034845,151.57779
1.5720922,146.61118
1.4707197,145.74394
1.5602866,143.91338
1.5154103,147.6809
1.5162764,142.99948
1.4510351,142.10045
1.4087214,140.33682
1.3217206,138.89224
1.3654484,139.34277
1.3321973,136.91739
1.315284,136.78938
1.3052759,132.5946
1.2064619,132.81818
1.2747742,132.58432
1.2631477,126.265495
1.1806337,127.10467
1.2042933,126.25032
1.2247164,123.27133
1.2759614,117.54796
1.2272335,121.45207
1.2466353,123.01993
1.1367154,116.68352
1.2056422,118.34615
1.088068,112.82455
1.1621919,114.03167
1.0913738,112.58356
1.1441805,109.930695
1.2032971,113.154686
1.0459388,108.31939
0.9010999,104.01582
0.9965302,102.483246
0.80886704,104.31026
0.85687506,98.17109
0.86952126,100.98379
0.81511796,98.071915
0.7217783,96.794716
0.7809216,95.54134
0.8033407,93.85243
0.8544021,90.83754
0.7700003,92.18001
0.7418935,91.26408
0.7952385,88.75286
0.82311374,84.274414
0.7405922,85.78881
0.7472422,84.58465
0.7896673,80.23303
0.7574831,82.13356
0.7174112,81.42443
0.7552408,79.77132
0.66726035,81.00617
0.7729575,77.82144
0.6780972,77.469315
0.6260528,76.485535
0.54610413,75.30282
0.5536467,76.029625
0.5948695,76.05024
0.535356,79.69093
0.48133975,79.36683
0.4193547,79.4409
0.4709073,75.94698
0.43828812,80.66173
0.4843077,81.45571
0.45330787,86.2811
0.48929143,86.83286
0.4845186,88.79577
0.5584246,87.977356
0.59118915,92.375854
0.701006,95.111595
0.7374136,98.812225
0.86901647,95.697495
0.953265,100.39982
0.9797815,103.298485
1.0487182,106.963715
1.1141331,108.82843
1.291228,110.1232
1.3340955,116.43452
1.4456923,121.068115
1.5277492,121.619995
1.6070142,121.85965
1.6792537,126.71079
1.7435976,129.44534
1.7401054,131.94412
1.8068855,132.84785
1.8077697,138.44711
1.9103487,136.2222
1.8280845,135.65631
1.8640641,142.30437
1.8895136,140.69833
1.9191012,141.30919
1.9090307,143.42741
1.9103352,143.43149
1.9620432,146.09743
1.9266957,147.82549
1.9307443,144.88226
1.8781091,148.78769
1.9488152,144.90727
1.8927081,146.53969
1.7933685,145.51056
1.7953888,144.16219
1.7803427,145.53064
1.7711647,146.58678
1.7541219,141.7019
1.7598107,143.50082
1.7144465,145.03468
1.7000633,142.63132
1.6937351,140.94823
1.6390541,137.86961
1.6126156,135.12569
1.5645847,136.3294
1.5392005,137.79091
1.540416,131.37538
1.4699785,129.88773
1.5076079,128.69655
1.4793303,126.94885
1.4132642,127.25284
1.4480569,122.857376
1.4800938,123.51278
1.4813672,121.96387
1.49654,120.17958
1.450272,119.71975
1.4027696,116.22285
1.4330982,115.133514
1.3812563,111.938736
1.4148617,113.67217
1.3102765,109.69309
1.2831076,106.66839
1.2336562,103.18274
1.1850853,105.60157
1.1257098,103.886375
1.1001855,102.820816
1.0147675,103.98668
0.9939044,98.64802
1.0436704,99.35333
0.9678067,95.1701
1.0191544,94.189735
1.0398293,95.13259
0.8970809,90.26784
0.99717003,87.830696
0.8770351,85.39619
0.82906413,85.87184
0.9244203,85.29137
0.9227791,85.785515
0.92177564,85.52408
0.90253025,83.174835
0.8945944,78.51001
0.8773306,79.53024
0.8776011,78.273155
0.9648829,78.73311
0.8186177,76.164116
0.759725,78.62647
0.7482396,76.59942
0.71418905,78.77735
0.588928,81.7769
0.6211082,78.84362
0.5853862,76.139275
0.5826621,80.440346
0.44033793,81.29962
0.5642039,83.15466
0.45394787,84.837524
0.5067178,83.46848
0.551614,86.97368
0.6364558,85.64295
0.6046809,91.130806
0.6690228,91.05022
0.6518872,92.64944
0.75035775,96.75903
0.97043294,96.814354
0.93261737,103.35879
1.003119,105.52887
1.1926359,107.52509
1.3116612,107.2422
1.2759519,113.531624
1.4164861,117.24399
1.4164286,116.224304
1.4752209,116.166374
1.5727204,122.4544
1.656582,126.10189
1.7534809,127.45109
1.7113752,127.11593
1.8376061,130.05241
1.7857361,133.27328
1.9040734,136.73476
1.8603504,138.56618
1.8515204,142.71974
1.952301,143.39023
1.9091896,143.93819
1.87226,144.95384
1.8011749,147.19757
1.9036716,143.97998
1.8755231,148.04286
1.9225328,147.60109
1.8912402,146.65077
1.8915927,145.98946
1.880445,147.03275
1.7849493,150.27625
1.818077,145.51685
1.7194085,145.85202
1.6943792,143.14922
1.6920588,143.1917
1.6644934,144.3492
1.6807164,141.22467
1.5789886,141.06003
1.5878596,137.01834
1.500081,139.75848
1.4581325,138.1872
1.3604088,135.59016
1.5010334,134.34732
1.4717945,132.01207
1.4249306,131.074
1.4020951,130.7716
1.3678966,130.0476
1.3867346,128.06512
1.3050232,122.80179
1.3716034,122.951
1.3759251,124.05336
1.3235054,117.259415
1.2758536,118.03627
1.2463115,115.702484
1.2461941,115.490875
1.2444236,115.38824
1.2298799,113.46964
1.2197398,111.48946
1.0954391,109.58695
1.0301418,109.243515
1.0642071,106.4572
1.0088335,107.22284
0.8680477,104.26416
0.9278541,103.006195
0.80176353,96.92059
0.8871252,99.748116
0.91504234,95.00666
0.7798815,94.7348
0.81752,91.61925
0.6861088,94.149994
0.6606736,90.73154
0.7234033,89.131386
0.692548,90.26792
0.697989,89.382965
0.7154805,84.46811
0.73419166,85.25092
0.7629488,83.96188
0.75163555,81.268456
0.66547555,82.403435
0.60999775,77.91754
0.576508,80.12742
0.64946705,80.4618
0.59778005,80.6068
0.48373157,77.56118
0.4466688,76.40893
0.45122963,78.67864
0.41414118,80.66048
0.36895204,78.30645
0.35554495,83.86746
0.2645535,77.632744
0.32265463,80.12946
0.3066716,84.93913
0.24061638,81.79833
0.19979203,84.266815
0.2691826,84.24259
0.19791952,88.17797
0.433893,89.815994
0.47283226,91.61335
0.4794439,94.20319
0.5222942,96.64004
0.6658998,101.15722
0.70674485,102.66882
0.80162615,106.9599
0.90131384,108.37182
0.98703146,108.945015
0.9873594,113.65013
1.1276478,116.468506
1.2285722,118.92165
1.1650261,120.28264
1.3097938,125.50886
1.3515295,129.67238
1.4773057,127.39258
1.4704752,133.37102
1.4919332,132.25862
1.5601696,139.78687
1.4935579,137.88797
1.5705224,141.48476
1.5890303,143.46318
1.6051855,142.07794
1.5588423,143.38467
1.5797237,143.56604
1.5351626,144.98878
1.5661302,146.42274
1.5569086,145.51157
1.4948432,145.28207
1.5365049,146.65437
1.5324527,148.34723
1.474456,146.96599
1.4527241,145.76242
1.3929975,146.85919
1.3885751,145.14764
1.2539353,144.60097
1.2671577,141.46153
1.335087,142.90208
1.275088,142.40047
1.2401118,136.91621
1.2271453,136.21121
1.1425153,139.1779
1.1627616,133.70883
1.1064551,133.84622
1.139991,133.30244
1.0400919,131.62267
1.1230056,130.58257
1.054539,128.90974
1.0556659,124.562195
1.0589622,126.36243
0.997751,121.77801
0.97298485,124.321915
1.043261,120.40815
0.9338764,119.373566
0.89445496,117.75146
0.92277616,115.97499
0.860758,113.83457
0.90631247,110.195656
0.8404014,110.42797
0.80648273,110.55414
0.7651366,108.652176
0.6752033,104.134514
0.6073805,103.52912
0.5996488,104.464836
0.48261824,101.26985
0.5988288,99.19652
0.56176156,99.08846
0.4777233,95.42282
0.55842084,97.969284
0.4820757,94.14244
0.42440224,93.3752
0.44092384,89.49903
0.34346104,90.75193
0.41525322,91.67982
0.48969564,90.11686
0.3928023,83.96681
0.447759,82.70299
0.4135103,83.81373
0.28516322,80.87465
0.41241196,81.04447
0.31976122,79.67472
0.26287022,79.19283
0.30238524,76.4308
0.21799429,76.74171
0.23599271,77.3442
0.098407194,74.62228
0.16224141,75.86337
0.039262064,77.91602
0.08795808,76.952805
0.0428552,74.1901
0.05366946,80.607185
-0.0735329,82.839035
0.09376018,83.274796
-0.056375448,84.50056
-0.015704328,81.61428
-0.06728595,84.880394
-0.032355163,87.86762
0.07330419,91.97324
0.16655089,92.28143
0.21860461,94.4276
0.30638248,96.01038
0.26369774,97.244446
0.38251665,101.5958
0.45964324,102.87335
0.6706134,106.591194
0.5768676,109.91865
0.8317797,111.355125
0.83761084,114.65478
0.87333876,115.81045
0.9736643,121.31627
1.0129821,123.75765
1.1852195,126.09958
1.2129731,126.67622
1.2069523,132.26497
1.1866761,133.53899
1.2729825,137.09674
1.3256121,138.40787
1.3291351,140.51688
1.2948356,142.09792
1.3377981,140.81505
1.3589718,145.10042
1.4489869,142.4044
1.3808908,146.84175
1.3821858,146.17935
1.3159691,147.78816
1.3029163,147.15016
1.2820272,147.43346
1.3553994,146.66154
1.2964242,146.471
1.2027228,146.19682
1.2911669,149.32607
1.3179932,143.93033
1.216382,144.21538
1.279511,145.65462
1.11937,142.9006
1.1442574,140.81589
1.198179,143.94467
1.1220082,141.97426
1.0681833,136.11746
0.9989097,135.36598
1.0120051,134.57262
0.950823,132.66083
0.8919957,132.2423
1.0199261,129.93652
0.9614006,129.19466
0.9278348,123.7221
0.9174568,125.04685
0.9321426,125.51778
0.88200885,121.21672
0.91647357,118.734055
0.9373739,120.0512
0.8978872,118.64872
0.8248914,116.122665
0.9062735,114.48139
0.83752334,116.02261
0.73765117,110.185555
0.71590394,112.605415
0.6603528,105.52787
0.6481444,107.98234
0.66634923,106.25414
0.6215813,104.77204
0.55467916,100.20772
0.56496316,101.50047
0.4173796,98.31215
0.38925934,101.92967
0.39796445,95.20501
0.45063302,95.6089
0.44798052,94.3643
0.32678205,94.690765
0.33789656,92.0047
0.32065836,89.78022
0.3824033,87.78809
0.39474294,87.69288
0.42343268,84.95848
0.3711222,80.50667
0.39457357,83.67439
0.34396917,81.92306
0.3925808,79.54937
0.34233856,80.631195
0.29701918,81.36199
0.29182914,78.04179
0.2932376,77.27938
0.30820686,78.41273
0.123055585,77.85962
0.13091147,74.28947
0.20112963,80.784584
0.15344287,75.653206
0.19202335,78.91472
0.0025216676,80.28141
0.11688221,80.153496
-0.068928204,83.46527
0.022499671,85.313225
0.023954721,83.279564
0.10702914,88.82855
0.16363826,89.95416
0.22036386,88.5255
0.33883274,94.97431
0.30023286,95.16445
0.44519264,96.01786
0.48212215,98.85239
0.6442768,104.08449
0.6227769,104.375786
0.7006354,109.744576
0.86230546,110.01551
0.9067608,111.247444
0.98448867,116.90032
1.1387554,121.81002
1.1328992,124.15386
1.2187525,124.61985
1.2663443,126.8838
1.3448697,130.48189
1.3797297,132.07164
1.4168552,133.62996
1.5036758,133.75737
1.5604374,135.34872
1.5170327,138.31467
1.5810736,144.47063
1.5435306,143.70618
1.5246959,142.7419
1.6119491,147.15788
1.5433102,143.6812
1.6009351,146.76225
1.5555265,148.75293
1.5928317,146.21466
1.5885897,147.1167
1.5470867,146.45593
1.6131505,145.26172
1.4547393,146.76515
1.5799283,145.81248
1.4530538,148.4152
1.4350445,142.48059
1.3381944,142.86786
1.3377572,140.45845
1.3758657,140.90884
1.2783456,140.26007
1.3199934,134.1872
1.3323016,140.31966
1.2409986,135.56096
1.2821233,133.25127
1.2659563,133.193
1.2445254,131.28078
1.254453,129.34244
1.2094175,127.15389
1.2088258,128.35268
1.1748917,124.07383
1.1828969,125.1165
1.2005715,122.47555
1.1015463,118.63913
1.158134,119.00322
1.110337,115.26422
1.1028455,117.5259
1.1450977,114.058395
1.0876288,113.52738
1.0577487,109.56426
0.9789448,107.96296
0.9518678,106.341934
0.9952925,108.49174
0.9549519,102.00213
0.85421413,103.258415
0.8309512,104.03513
0.8091749,104.00026
0.732281,97.72563
0.7516315,93.580444
0.75517327,92.50345
0.7094983,94.626495
0.7252951,92.867325
0.6598416,90.92061
0.66137224,89.12931
0.68191946,88.03039
0.7336936,88.82049
0.75746804,84.13634
0.65963453,87.19653
0.7276751,80.9113
0.62263465,78.89115
0.7126457,80.562294
0.7082316,79.981346
0.7027789,80.09531
0.55874807,81.64779
0.6440898,76.578026
0.5389442,77.35017
0.6185995,79.0492
0.49574968,79.39382
0.40713546,77.50205
0.551067,78.842606
0.35003555,77.059425
0.34537444,80.57821
0.34907955,79.569405
0.32822472,83.25375
0.4020232,82.97583
0.40945795,84.0257
0.41551515,89.810814
0.43732595,88.05818
0.442308,90.002106
0.54888374,90.765076
0.6681875,94.20706
0.78486633,93.19401
0.82260674,97.55438
0.8724107,101.31324
0.89596474,103.96925
1.0926026,104.94248
1.1329435,110.95295
1.2199852,112.7924
1.3389356,117.24812
1.3981385,118.27144
1.4486403,119.63122
1.5516587,117.52023
1.6229243,126.66667
1.6633419,130.73245
1.7333848,131.92534
1.825522,130.98299
1.7787768,135.32953
1.7418582,136.71442
1.8068911,143.98286
1.8278993,141.97417
1.8955922,142.6693
1.8588473,143.59956
1.824051,142.79295
1.9297287,145.50938
1.9024025,143.73135
1.9320346,145.65483
1.8722746,148.80742
1.815447,149.1078
1.809709,148.48247
1.8692142,144.4837
1.8202802,148.17857
1.82796,146.69293
1.7792835,142.96562
1.719144,142.83832
1.7444155,141.57489
1.7592207,143.1255
1.7208278,142.92682
1.7291334,139.7489
1.6319152,137.34912
1.6251049,139.21642
1.5129701,135.35541
1.5097284,132.02396
1.6032861,133.24335
1.4841299,127.925644
1.4826493,130.912
1.4155303,127.18387
1.4313558,128.47244
1.4827961,124.21461
1.4870068,125.15589
1.3767856,123.82178
1.4645027,122.13658
1.4948442,118.58479
1.4246027,118.106804
1.4300864,121.70072
1.3870263,113.01806
1.346798,110.47785
1.3603616,112.495544
1.2314336,109.57323
1.2171031,108.220894
1.3008958,108.35232
1.1865116,106.99314
1.1219267,106.23909
1.1519004,103.23279
1.0245988,100.55311
0.991494,99.4314
1.0554107,97.66347
0.97473156,96.763405
1.0023338,96.13333
0.946134,92.82087
0.925001,91.018394
0.8905162,89.60956
0.9192219,86.77156
0.9309618,90.59034
0.87223965,86.94982
0.9450329,85.46893
0.9434139,85.56648
0.82136947,83.82593
0.9241644,83.78874
0.90335375,80.57122
0.91891736,78.0394
0.9231086,79.59793
0.7319902,80.82172
0.81675863,79.087585
0.73908293,74.167114
0.7980397,78.10994
0.7251627,77.21473
0.668713,76.64098
0.59321946,75.42437
0.5878305,78.01606
0.5594849,80.1699
0.5403298,79.33121
0.5383493,81.44088
0.58629227,83.99417
0.65273684,82.40244
0.5341076,83.96889
0.58565205,85.824486
0.654335,91.651085
0.73519593,94.313934
0.8698543,96.97521
0.87167794,98.5862
0.99037176,100.339615
1.0513109,103.10963
1.1678293,106.10002
1.1663238,108.54919
1.2846954,109.12503
1.4628823,115.70069
1.382015,115.24481
1.499003,118.87449
1.5694463,121.85959
1.6856854,125.95222
1.7406332,123.99473
1.7421119,128.35426
1.8273933,131.47923
1.7786646,135.65314
1.8695447,136.33894
1.9414681,138.49413
1.8578863,142.19405
1.8933346,143.06444
1.9543436,142.28725
1.9608096,145.06201
1.9491216,146.34642
1.9338388,145.7568
1.9577082,144.57864
1.9272691,147.65115
1.8668848,143.71808
1.8735665,150.76027
1.902091,147.22398
1.9075905,145.88054
1.8240721,144.0862
1.8342289,146.30806
1.7341576,142.99425
1.7553941,142.2954
1.6467038,145.83368
1.6578082,141.01581
1.6786674,138.55728
1.565565,137.62775
1.525291,139.19069
1.5898925,141.21808
1.4654273,136.02179
1.4348568,134.14864
1.4637998,133.18913
1.495366,131.76802
1.362851,132.62538
1.3122945,127.66867
1.3498968,125.028366
1.3957964,125.08025
1.386747,121.305435
1.403721,120.78234
1.3496373,122.009346
1.3755091,115.47419
1.4094665,116.63277
1.2839916,116.39964
1.2578735,114.30985
1.1676129,112.08993
1.2381649,105.72151
1.122687,109.46055
1.0731878,106.965706
1.0622343,106.08323
0.98510337,106.51516
1.0659018,103.91124
0.8110678,104.10795
0.9672819,103.57036
0.95455474,98.9232
0.87439305,98.32977
0.8689302,94.521034
0.7473674,92.50721
0.7931387,90.01295
0.8657721,93.60278
0.7077618,88.49133
0.8150884,87.77958
0.76363873,87.1755
0.76365143,85.24776
0.6602862,81.79464
0.74771947,83.22213
0.78395206,82.79801
0.59411347,78.94819
0.69737047,78.99446
0.65678126,79.1253
0.53475857,75.749016
0.60341126,77.813805
0.5416596,76.57584
0.48790026,77.73308
0.46372616,74.42004
0.38256702,75.816345
0.37215638,80.44909
0.36621222,76.86351
0.4488839,81.83519
0.29995322,79.72471
0.25622058,80.28457
0.38852483,85.01704
0.26335746,87.093765
0.38008726,83.99859
0.44859576,88.20751
0.41287196,92.1726
0.46818265,90.41743
0.5250638,94.4493
0.5751399,96.850586
0.69335496,99.6861
0.7970244,101.49745
0.87358016,105.26281
0.9109848,109.26085
0.9548603,110.039055
1.1296688,115.888824
1.1713868,114.946144
1.2421887,119.67301
1.229532,118.732864
1.3151727,123.08613
1.3614632,130.51938
1.3924894,128.83942
1.4852412,131.03375
1.5350475,135.44429
1.6198276,135.64813
1.6597995,138.09042
1.6584293,140.57549
1.6426595,141.6645
1.5501385,141.62225
1.7025248,145.34091
1.6254851,146.54741
1.5797031,147.12204
1.5357552,148.37308
1.6805013,144.81535
1.5590918,147.3733
1.5604229,144.58965
1.6531518,147.85628
1.5158384,148.49673
1.5605614,145.60417
1.5183873,146.51059
1.413968,144.01262
1.4506882,143.94708
1.4311173,140.96777
1.3958573,143.49837
1.2665133,140.44379
1.2785693,139.9435
1.2446834,136.00128
1.2329379,137.38625
1.2146014,137.60474
1.1381172,132.45615
1.1377654,130.70149
1.0467389,131.97227
1.1567836,129.23007
1.0706563,130.03294
1.0958861,125.87153
0.9941231,125.38341
1.0735356,122.42498
1.0618654,123.06631
1.0864357,120.34395
0.99845415,117.54352
1.031857,116.58793
0.99750775,116.6755
0.9098548,113.870476
0.8904175,114.20433
0.86359364,109.97047
0.7660878,113.57229
0.75360614,108.50026
0.69852847,107.20139
0.6337827,106.88915
0.7424608,104.475395
0.6872984,103.33533
0.5417667,102.37112
0.5701035,100.51693
0.56619287,95.65911
0.4897356,95.46838
0.47373244,93.22983
0.47868985,97.12255
0.4447195,91.79266
0.39707243,91.0841
0.49299744,87.84412
0.41803834,86.01443
0.36399508,87.981514
0.46017483,82.84711
0.42278665,84.71531
0.36283168,81.38143
0.3624463,78.521576
0.41533762,84.27031
0.38284183,77.16127
0.2815908,79.96717
0.25377434,78.181076
0.29746783,77.598366
0.21290816,75.42043
0.12901932,76.96541
0.140239,77.286896
0.07197881,78.314575
0.03889052,80.272896
0.020524357,78.849
0.048827346,79.12272
-0.010948613,79.751396
-0.028471468,82.79756
0.009075111,84.46026
-0.015811715,82.8999
-0.05246411,85.86327
0.11820155,89.4679
0.09541138,90.63951
0.21581215,97.08317
0.250661,98.12296
0.36005884,98.70482
0.4751292,101.37509
0.46373492,102.08147
0.51874954,104.23495
0.7167933,106.93403
0.8050683,111.20516
0.8875674,114.12418
0.87557596,117.763176
0.9459362,121.422874
1.1086313,121.86726
1.1545962,125.321556
1.2163891,124.07775
1.2137656,130.23305
1.2367092,130.70813
1.2985758,135.01202
1.319255,137.35811
1.303332,137.78162
1.4174923,141.48232
1.3744173,141.88968
1.4469757,140.19064
1.3145499,146.41089
1.3157835,148.51927
1.415327,146.18065
1.3311266,145.88084
1.3354859,147.18652
1.3556187,145.77599
1.3621887,148.31491
1.2437006,147.02026
1.2772568,147.85835
1.2128329,145.12814
1.2002467,146.10121
1.2040033,144.62856
1.1994424,141.8163
1.10527,143.85196
1.1468635,140.96794
1.1186211,140.23706
1.0629523,138.8574
1.0549692,138.2017
0.93501914,136.57805
0.94883955,132.62863
0.9662548,133.54785
0.99167824,133.62819
0.9547217,131.53336
0.94784343,129.3526
0.82402533,128.42107
0.82262635,123.62974
0.90321887,126.201775
0.9425068,121.01396
0.91780025,122.00882
0.94129413,120.70385
0.8816584,117.54933
0.7712242,117.88315
0.7517328,115.27387
0.8331808,114.742676
0.76089364,113.103134
0.79270303,112.79683
0.6450257,108.96622
0.67113835,107.96384
0.6609521,106.2596
0.66181296,105.34456
0.49829116,104.20064
0.40036294,99.12363
0.4668641,96.804504
0.42166108,99.16347
0.41524652,99.07451
0.40738377,93.949455
0.34230754,97.58373
0.38155925,94.261185
0.39742303,89.90226
0.37309456,89.259346
0.25301856,86.69199
0.34014443,85.46256
0.3851575,87.04776
0.31953216,87.10308
0.33759356,82.839325
0.26682606,79.87292
0.38915497,81.6455
0.3382921,79.90833
0.38400653,79.654724
0.31157586,81.5613
0.19873957,79.4899
0.20408244,77.62165
0.18303761,76.6687
0.122702956,79.11165
0.11788369,79.43236
0.0064792517,76.68192
0.030838247,75.338554
-0.021841394,78.19795
0.065519184,78.68199
0.037380856,79.52139
-0.016150912,82.90896
0.023187522,83.258
0.04383096,83.31446
0.17198347,89.42148
0.21455936,92.347626
0.17641833,93.58052
0.21038434,97.029564
0.35453495,95.327545
0.5040204,101.553116
0.54651564,101.578835
0.62741715,104.09521
0.63829726,106.9546
0.78084093,113.845505
0.8306873,114.54504
1.0518525,117.835175
1.0975633,119.49936
1.0729284,123.88624
1.1600834,125.33999
1.23652,127.95228
1.3122517,128.7961
1.278257,131.8404
1.380773,136.75743
1.268865,134.7029
1.4963185,137.0647
1.4334105,140.88702
1.5483575,143.70468
1.4942613,142.34558
1.4493957,141.23996
1.5645914,144.81895
1.539004,141.61674
1.449018,147.70438
1.4944668,146.23921
1.450334,147.0995
1.4459857,146.49701
1.4678682,145.66121
1.5126642,147.99379
1.4725709,147.44649
1.4189831,143.18687
1.3940322,145.35793
1.4213675,145.54857
1.361093,143.29292
1.3538395,141.8456
1.3446767,142.42514
1.2925934,138.73349
1.1828972,140.26779
1.2426257,136.10374
1.214987,137.70427
1.266032,133.89832
1.2051425,130.6932
1.1807961,129.81494
1.1115124,128.85753
1.1208192,129.12096
1.1596066,125.22389
1.17551,122.900696
1.1799496,125.91855
1.1466122,123.04546
1.141922,117.71151
1.1546745,119.181526
1.0938534,117.957054
1.0255998,117.4196
1.0389956,115.90039
1.0665796,111.62416
1.044232,109.61457
0.93243796,107.71364
0.8550119,109.65224
0.9027991,107.761086
0.90353566,106.054276
0.7655783,106.19282
0.763963,102.0074
0.77351236,96.71597
0.7389836,101.33482
0.7333509,100.01916
0.7082432,93.487564
0.6777257,95.09419
0.63373184,90.96553
0.69051427,90.604095
0.6618992,91.73099
0.69994897,89.27411
0.66213846,86.46363
0.7015454,87.30611
0.6856092,87.8727
0.7066372,81.06985
0.6183879,85.86358
0.65973145,80.527985
0.69620746,79.90259
0.540231,80.195854
0.58856505,76.131134
0.58906895,77.98383
0.59240764,78.37201
0.54747313,76.55662
0.48563734,77.613
0.35012224,77.3575
0.42485306,77.7482
0.38887227,79.4702
0.38569194,79.893845
0.35639974,78.15111
0.18979879,81.56207
0.40982574,81.491936
0.4269129,87.42226
0.37494448,86.16402
0.41945624,85.90203
0.3892849,88.69311
0.6016732,88.45978
0.688642,91.65662
0.71801794,94.06541
0.7770351,100.13115
