ppg,abp
0.922572,89.8236
1.1774085,94.15318
1.1235635,98.33156
1.2132438,102.80718
1.4144025,103.6222
1.4625599,102.51464
1.4312333,108.01075
1.3051665,116.670105
1.5572367,112.697075
1.6120361,116.42187
1.6095204,115.32432
1.545436,118.60367
1.6292727,122.14918
1.7734522,127.24689
1.7310237,126.98476
1.6864811,126.82536
1.7770516,127.09532
1.7833067,131.29283
1.7494315,129.65181
1.7476221,129.38782
1.7136081,130.52795
1.729489,134.37248
1.713644,131.82892
1.7686149,132.38542
1.7739401,134.23036
1.6223205,137.61598
1.781081,134.18517
1.6910429,132.74472
1.6599642,132.94724
1.6892512,135.49075
1.6253865,130.72081
1.6274507,132.90587
1.6383141,132.8162
1.5438217,131.72444
1.5226616,129.24309
1.5517309,126.806244
1.5590516,123.05484
1.455855,126.20627
1.5408766,125.024185
1.4311329,121.01023
1.2624098,122.8052
1.4194845,117.605354
1.3738084,117.344
1.3377839,114.865
1.3922462,112.136765
1.4586707,112.94373
1.3480659,114.24881
1.442563,113.32012
1.3491856,104.625465
1.3569607,109.40545
1.3838109,101.298645
1.3272401,103.3595
1.3309754,100.09394
1.2736907,100.21367
1.3343818,100.98558
1.3427018,96.7468
1.3161331,94.063675
1.3188022,93.03979
1.2638326,94.389755
1.1093342,94.017845
1.147226,89.17592
1.2694639,85.91473
1.0954342,88.33919
1.0956321,82.30493
1.0271541,81.89377
0.99848187,82.064255
0.967214,78.39934
0.9986596,81.27966
0.9786975,76.393326
1.0035472,71.90809
0.95299673,73.818405
0.96322125,70.763885
0.7863106,70.91534
0.8865606,65.03167
0.93802553,71.180984
0.9051275,67.411736
0.7832338,67.37714
0.8086208,61.521317
0.86912376,62.194626
0.8682419,60.2084
0.9471743,57.75742
0.8252393,54.93902
0.92929167,55.689278
0.95828307,54.909874
0.9558757,53.767662
0.7946385,53.873573
0.815714,49.580814
0.8268408,52.913322
0.8388805,48.990513
0.83945346,47.753864
0.7237384,48.35685
0.804452,49.199276
0.71764106,48.505314
0.7341466,45.78044
0.7043918,48.350964
0.56878483,47.795193
0.53390044,45.910873
0.5243586,47.795086
0.6504507,50.783855
0.592163,53.402187
0.46543092,54.99462
0.45534387,50.59803
0.51003706,55.481495
0.48167735,56.218422
0.5462416,56.73447
0.61529976,56.186787
0.6827014,64.549065
0.7081615,62.440044
0.75279826,65.819855
0.8124455,69.145004
0.80223584,71.8456
0.9522339,75.14036
1.0713472,76.634865
1.0179474,81.38986
1.0497348,82.39619
1.1403836,84.19057
1.2768528,89.554306
1.3815678,91.219315
1.3916484,95.92071
1.4512368,97.78549
1.4183813,101.60636
1.5271384,105.65457
1.677791,105.65116
1.6761192,108.98484
1.7905229,112.90519
1.7425361,115.70713
1.8087738,116.73774
1.8523221,118.71068
1.9451954,122.29117
1.9194362,122.37308
1.9458092,126.22769
1.8742907,127.99215
2.0051818,130.06882
1.9971675,125.13791
1.9612428,128.91348
1.9684384,131.34645
1.9229517,131.01337
1.9241843,131.49745
1.8932072,134.98412
1.889658,135.67545
1.9407812,131.84132
1.9094992,133.17386
1.9919385,134.98666
1.9415915,135.08272
1.8956838,136.9593
1.76802,136.18974
1.8848977,131.81087
1.8310717,130.18187
1.8968893,130.14536
1.7280301,132.95703
1.7566732,132.887
1.8290628,129.29329
1.5679255,130.47676
1.7095554,129.11685
1.6584241,125.772766
1.568451,125.38979
1.7124368,128.44055
1.5249832,119.80548
1.5503833,119.775955
1.5082004,117.782715
1.5443532,115.72737
1.467166,114.373665
1.5644242,112.30693
1.5761539,110.84304
1.5127224,110.95736
1.4513229,107.88726
1.4763879,107.04363
1.4298247,106.23142
1.415351,104.94005
1.4031317,100.96953
1.4409595,102.66787
1.3630515,96.832245
1.4359157,100.44848
1.3704159,93.564995
1.3061392,96.15074
1.4609847,88.694214
1.2236097,90.95235
1.2630991,90.12479
1.2341204,92.91027
1.1686659,88.959915
1.1999112,81.1168
1.1391299,83.04476
1.0725414,84.04513
0.9376554,76.12485
1.1250479,75.892265
0.94080126,76.637764
0.9537162,77.74069
0.92522717,73.65129
0.8309237,73.90609
0.83820456,67.84172
0.8173962,68.113174
0.78856367,63.71471
0.85089785,68.95412
0.8079399,65.6135
0.8082041,60.48801
0.7955069,60.809856
0.84144866,57.721043
0.921733,60.05114
0.7525126,58.19303
0.83792436,54.5396
0.6958923,53.07784
0.7993224,53.987076
0.7284374,53.561142
0.8832688,49.2227
0.7630442,52.126083
0.74620026,49.38912
0.6652754,45.9113
0.6884044,50.50463
0.67481,47.454414
0.5553901,47.93802
0.62118626,51.802887
0.4765182,48.02727
0.4379524,47.227943
0.5252126,49.763844
0.38928652,44.393917
0.47902787,55.599514
0.4796251,48.209263
0.3025627,53.13181
0.33696634,53.169594
0.37734616,55.98052
0.4079135,55.368065
0.4423663,57.3732
0.4238035,60.101
0.47123665,63.813473
0.50906825,62.36287
0.5543284,65.06329
0.5198208,67.60186
0.74786526,72.09182
0.6616763,75.07962
0.7907854,73.38583
0.8246539,75.54009
0.90786403,80.72826
0.96127987,82.95612
0.8872011,85.79795
1.0882093,93.989044
1.1162686,94.61939
1.218736,92.287056
1.2224184,98.47606
1.4172844,99.63265
1.3889066,101.139854
1.468497,106.516365
1.5493386,109.75981
1.5052098,113.707405
1.4295131,113.75
1.600719,117.157135
1.4898039,122.329865
1.5834914,117.85879
1.5839365,123.521675
1.5957614,123.8129
1.6911906,125.81545
1.6593761,128.59149
1.681872,130.21365
1.5396652,130.57376
1.6270685,133.12975
1.7598574,132.1576
1.6688734,131.228
1.5109985,134.83098
1.4525317,133.1655
1.5482185,136.7228
1.668362,135.60416
1.6292442,136.08173
1.4561011,132.85818
1.5954527,131.80412
1.5113857,134.21591
1.4501814,129.30101
1.4936881,129.55617
1.4036304,135.59589
1.2682086,127.89223
1.2834809,131.94029
1.4208398,124.771416
1.3424253,125.83302
1.3860507,128.1187
1.321698,125.345955
1.2075884,121.63627
1.1664985,120.29494
1.1195984,119.99553
1.0514265,120.71818
1.0949292,113.54161
1.1224662,116.802704
1.1360279,113.709145
1.1624776,113.66708
1.0234718,111.702995
1.0761541,105.90564
1.0216203,107.64476
1.1188868,105.78061
1.1370202,105.157326
1.0900934,103.37999
1.0112448,100.89388
0.97836596,99.77382
1.0740033,97.66239
1.0450623,97.949905
0.91265404,93.84406
0.8513764,92.9632
0.85762197,88.56534
0.8035335,91.96561
0.82723314,85.34024
0.8622743,88.19521
0.80206466,84.17016
0.6849718,83.552956
0.6603158,79.76428
0.63724095,82.127556
0.5832855,79.78585
0.62571263,77.37679
0.52328765,78.61642
0.59090626,68.783325
0.49504283,72.33958
0.41684026,69.312294
0.46089202,69.81041
0.51013106,63.223812
0.43727216,66.65046
0.31717488,61.72054
0.4287528,61.419567
0.41005886,61.331528
0.39385277,58.964954
0.43194804,59.854607
0.32143015,58.841713
0.41009846,56.995872
0.37090662,57.298767
0.34614402,52.47715
0.3596318,54.857647
0.2887785,52.31532
0.2420311,49.23808
0.35968778,52.033546
0.3411326,50.615063
0.23774874,49.975452
0.2923064,47.338066
0.24601702,47.441914
0.3327888,49.027744
0.16843632,49.302498
0.03938975,50.96571
0.07486629,49.393177
0.08358238,49.984184
-0.075587966,48.16549
-0.043043442,53.92783
-0.03246445,51.88134
-0.018300736,51.939415
-0.043459523,56.066746
-0.05746898,56.067375
-0.034436595,54.67319
0.009212175,60.53835
0.06534582,64.70301
0.015915615,63.931225
0.18551867,66.3569
0.17052753,68.38468
0.2661955,71.60123
0.28343555,70.34769
0.36324728,77.13241
0.44231588,76.93683
0.47292158,81.43537
0.4893166,84.60321
0.55015105,87.74323
0.7601095,91.717316
0.7795466,90.219444
0.844293,94.476746
0.8844693,99.26656
0.8912811,104.37401
1.0845026,107.58244
1.1162764,109.66592
1.172036,108.18784
1.1886073,115.78451
1.2307228,111.3997
1.4309946,118.36793
1.238111,118.23821
1.3545972,127.09298
1.3500708,121.26434
1.365289,123.482925
1.2594593,124.32075
1.344569,128.86592
1.400534,127.61135
1.4032863,130.64314
1.304591,134.01234
1.3202497,133.57355
1.3392844,133.18329
1.2902697,136.58261
1.452296,134.53813
1.3792036,132.90726
1.327414,134.2116
1.263009,133.44347
1.3437246,135.57309
1.263042,130.74496
1.1971488,133.4443
1.2183197,130.66037
1.2204635,133.04947
1.2349609,132.92252
1.1725667,128.57512
1.0889816,133.27986
1.083954,130.79953
1.2152988,126.6908
1.0229251,124.94118
1.1402208,123.10813
0.98904514,123.76818
1.0914516,122.55852
1.0226496,121.60899
1.1596916,118.43439
1.0021906,115.44915
0.98116463,113.40509
0.87935305,110.80463
0.9233939,114.25306
0.88534945,111.917305
0.8575141,109.10977
0.90843415,113.5682
1.0159881,107.52592
0.82849216,102.51572
0.8449343,100.350494
0.93620884,100.58983
0.7446007,101.44428
0.89642227,95.26699
0.9742486,96.9291
0.77857375,95.34409
0.7640367,90.2522
0.75264776,89.81529
0.7442793,92.3136
0.79333323,91.680756
0.6874289,88.16398
0.58832574,84.13638
0.67659456,84.82533
0.6253369,83.34838
0.5435304,79.96293
0.586392,79.982315
0.48265716,75.47987
0.4821329,77.39449
0.33085883,78.191956
0.3920074,69.96391
0.5105956,72.77657
0.3769409,71.16818
0.36901414,67.893
0.44662055,67.12227
0.35474974,65.60391
0.35649166,66.513954
0.2905171,64.09228
0.5233761,59.99847
0.37592828,57.87585
0.49929044,58.383553
0.44709334,59.492462
0.44567358,56.5659
0.28182775,52.46581
0.467308,52.58061
0.28719407,53.71662
0.41334963,50.8173
0.41311753,50.163124
0.2807985,51.9652
0.30152413,47.09745
0.22144222,48.57785
0.2366466,46.815937
0.3218889,46.835663
0.19843434,48.716347
0.098824084,51.70418
0.13640776,47.185307
0.14843364,52.15405
0.09412706,52.628555
0.11629149,51.668644
0.12039848,50.578297
0.14032742,54.253002
0.106169626,57.031998
0.13153325,51.18288
0.0931244,57.021656
0.15861021,58.648605
0.04803648,61.689365
0.19889247,62.634968
0.22248796,62.974285
0.30745456,67.78569
0.41474357,67.173904
0.44373313,72.50303
0.49724352,75.04019
0.49397978,77.51989
0.6642417,84.712685
0.7359083,84.03652
0.70811856,85.23296
0.876293,86.682365
0.9597147,92.6207
1.062389,92.86519
1.1020955,96.30612
1.3270086,104.55255
1.2085325,99.7702
1.2695416,106.3524
1.337608,104.62528
1.3344985,109.77498
1.5082747,117.26537
1.4553075,119.74011
1.5153068,119.816246
1.4517186,118.4805
1.4928904,127.485306
1.610927,122.37918
1.5142605,124.52641
1.6501923,127.27041
1.6176529,130.2643
1.6172335,128.89523
1.5929163,127.69464
1.7464365,132.46758
1.6235024,135.73898
1.5722594,132.47244
1.6201677,134.81287
1.6316419,135.73424
1.6275771,137.6693
1.5582455,134.3458
1.5641716,135.07442
1.4717394,132.1875
1.549547,131.80684
1.5480558,133.33751
1.6423674,133.54475
1.5543485,129.36443
1.5109158,130.07297
1.42116,131.47871
1.4267578,128.95914
1.2971689,128.86546
1.3425916,125.128334
1.347102,126.28649
1.4689368,122.59769
1.3670778,124.41668
1.4372804,119.233925
1.329921,119.77112
1.3317155,116.12455
1.2537531,116.64244
1.2644663,112.97781
1.3633127,112.560684
1.3689,111.81102
1.2262928,108.22728
1.307499,106.94611
1.3628764,108.550285
1.2474416,104.21208
1.2026007,103.66506
1.2803509,100.13018
1.2261537,100.4924
1.1405264,98.21115
1.3108691,100.42011
1.2663938,98.78061
1.2243348,94.35383
1.2571793,93.423256
1.0375582,91.94198
1.0423329,90.72901
1.0118873,89.900566
0.96126306,88.16001
1.0603765,84.50961
1.0192508,83.2948
0.9267478,80.67981
0.8960612,79.556656
0.95852906,78.699524
0.85925335,78.23558
0.91972893,78.12112
0.87108916,75.30788
0.80500627,73.7098
0.9296132,68.872925
0.7971608,67.89123
0.93419147,61.12459
0.86586064,66.994415
0.6750552,63.971844
0.71059453,60.97501
0.8553084,60.28814
0.8501794,58.078968
0.74825984,55.867012
0.8053684,57.1677
0.78328145,54.64591
0.7717259,51.201817
0.7990888,58.33064
0.7614296,49.868332
0.8793749,48.85184
0.85333145,48.35121
0.76256686,47.397274
0.71231776,50.25008
0.66171,49.964287
0.71681434,49.085747
0.6480982,48.691868
0.5035686,51.11529
0.5239282,44.761795
0.5568781,50.862587
0.49924,51.046867
0.48325717,49.468216
0.39060658,51.581284
0.3873365,53.96368
0.5356539,56.03203
0.4825221,50.199326
0.5524888,56.295822
0.45227048,57.067875
0.546284,60.577587
0.47867078,62.730915
0.49170947,61.844055
0.6366674,64.53065
0.73567855,68.24301
0.7562442,70.43344
0.83644974,71.79421
0.9016238,75.85024
0.8122534,74.799095
0.96364695,81.52982
1.1726377,80.827576
1.282763,85.10445
1.2899249,88.30443
1.3258603,91.481415
1.4347696,93.73329
1.5092796,96.3829
1.6128573,98.0048
1.6134357,101.37251
1.6587414,104.23798
1.6267512,106.07976
1.6935866,107.405235
1.8531107,111.57732
1.8435981,111.3722
1.8009324,114.47237
1.8167186,122.29698
1.9474051,124.75659
1.8826604,124.51826
1.8097098,124.95743
1.8290644,130.07193
1.8978583,130.71649
1.9998536,129.16335
1.9158602,133.5004
1.9947995,129.54771
2.0224195,130.74791
2.0134892,131.3244
2.030476,135.38164
1.9148989,136.12918
2.0360208,134.26692
1.8751992,136.29887
1.8453394,135.88655
1.8056973,132.96921
1.8120701,131.56088
1.8802327,133.26738
1.83541,130.71779
1.8504505,131.01596
1.8305268,130.00441
1.8293436,130.599
1.6885507,126.62338
1.7183652,128.02472
1.8146383,131.08376
1.7162244,126.77658
1.6244456,123.92116
1.5573051,123.68316
1.6573004,120.82827
1.5810622,118.206924
1.6034238,120.635895
1.4835122,116.00009
1.4960706,117.44952
1.4646785,110.43381
1.4802336,108.17008
1.5938528,112.23471
1.486005,111.77288
1.5330333,107.36554
1.4529715,105.99326
1.5479639,102.60845
1.4197823,98.71381
1.3359127,103.72794
1.5076203,95.64844
1.4299442,101.40886
1.3956078,94.749016
1.4783777,96.022385
1.2718776,90.682785
1.4313061,91.83333
1.2886407,88.575325
1.2504448,87.95213
1.2281584,88.532425
1.286125,87.461624
1.1989629,81.64108
1.1576369,81.05826
1.0964893,83.833374
1.0086608,79.106
1.1264073,77.81541
1.0135674,70.231804
0.97988665,74.85997
0.857531,70.98357
0.91058886,72.16487
0.89639413,71.46972
0.94410896,67.65279
0.8468335,65.86921
0.95096344,62.470448
1.0600958,65.52224
0.9245175,61.029285
0.8164003,59.50851
0.8040453,58.74575
0.83038276,59.377438
0.85207,54.835556
0.83788884,54.18717
0.9141021,57.402924
0.850705,54.886864
0.8245826,52.928066
0.77956945,52.215843
0.63346523,49.701412
0.7368194,49.642628
0.7352137,49.703857
0.76645416,46.33001
0.66017145,46.488712
0.6393225,49.71722
0.5811987,45.145226
0.5903441,52.510883
0.51966494,47.314816
0.5281,49.724766
0.51910704,50.753933
0.4642606,52.12256
0.5701215,53.573753
0.4619471,56.58357
0.45664316,57.584858
0.44680095,60.143272
0.50360674,56.881737
0.5051816,62.43634
0.48293298,64.589935
0.5262908,65.3987
0.6132138,65.70045
0.62004256,69.22374
0.65370405,71.1891
0.6893686,74.91874
0.9448002,79.213036
0.9198713,79.53267
1.115395,80.77464
1.068806,86.74553
1.0711191,86.34113
1.2014571,89.5696
1.2561426,97.64478
1.2520585,98.13818
1.3156543,101.065865
1.5044907,107.57873
1.4003779,105.864334
1.6158544,107.57093
1.6004153,109.03125
1.5756322,116.242256
1.6549923,112.9239
1.7356917,118.75743
1.809773,120.74644
1.8222386,125.08713
1.7593539,122.86573
1.7394644,124.38512
1.8535998,128.47804
1.8277665,127.44937
1.639576,129.20023
1.7984078,130.19899
1.8238242,133.35477
1.6866543,134.83516
1.7981535,132.58359
1.7671182,136.64893
1.736067,135.29785
1.863432,136.66348
1.7236536,136.10332
1.6484637,137.96458
1.6452281,134.27243
1.600379,132.57599
1.6093967,131.4561
1.6172968,133.49648
1.5230867,131.25975
1.5786188,132.38216
1.4929556,131.53549
1.4458897,127.408134
1.5163097,129.21791
1.4236987,126.72039
1.4304067,122.59815
1.3056349,125.71147
1.2988124,125.89844
1.3553419,122.422615
1.266965,118.56318
1.3122842,116.81126
1.2929224,115.287254
1.3295693,115.77911
1.3301085,110.43381
1.1407354,111.48928
1.2864238,112.82703
1.1020614,109.70127
1.2878722,106.49098
1.2653011,107.69294
1.1211737,104.60976
1.1168268,101.412704
1.2289069,101.0617
1.2663517,99.769806
1.1303104,95.37866
1.0956365,97.176125
1.0269015,95.63544
1.019411,93.87687
0.9056903,90.984375
0.9982925,88.47598
0.91681826,90.36161
0.8875038,84.3051
0.80730706,85.393745
0.76698476,84.87532
0.75212127,81.77563
0.6675306,77.77726
0.7190206,78.450966
0.75626945,75.71837
0.58010405,72.2786
0.50683933,73.98075
0.5791544,73.00347
0.5069993,70.78922
0.49233434,66.80742
0.57466865,65.51972
0.45081326,67.71725
0.5512794,62.51008
0.48496607,64.801254
0.535941,62.25465
0.4048507,60.36293
0.48849452,58.77218
0.5410926,60.105022
0.43959102,55.869907
0.4370863,54.89393
0.4868655,54.73871
0.48230946,54.711765
0.29344314,53.264545
0.37478235,53.395355
0.47498447,49.03254
0.37298912,50.0655
0.27035397,49.566574
0.3552593,47.03233
0.28368056,50.882698
0.2705695,47.037148
0.19866598,48.895824
0.1731578,50.641277
0.22819352,54.21221
0.12970932,51.41465
0.125332,51.39057
0.12840417,53.993885
0.13394776,53.11982
0.11006659,54.49786
-0.006636615,51.804356
0.07509119,55.981148
0.07503235,58.85839
0.06353503,59.80789
0.18038027,62.399834
0.13687433,65.40735
0.1950682,68.45271
0.2596586,69.37017
0.2600095,74.8829
0.37930658,71.94336
0.50369054,77.49328
0.458431,78.40712
0.5818259,83.34358
0.64979947,87.71754
0.6671024,85.42972
0.6465797,91.45604
0.89891857,94.8371
0.9811575,99.25746
0.9566592,102.56212
1.0061291,102.4397
1.187072,104.247765
1.23701,108.31048
1.1983463,108.72153
1.2105935,112.28142
1.2999597,111.921265
1.3139985,119.80919
1.350657,120.64569
1.3321835,121.64966
1.4821082,120.625435
1.3380617,128.62619
1.3092259,128.56378
1.3784958,128.6836
1.3488021,132.28856
1.4951333,131.82506
1.2970831,133.25798
1.3598582,136.01009
1.4288185,133.35893
1.3432354,136.54347
1.39967,129.88925
1.3124331,138.01329
1.3603263,133.00873
1.2943476,134.05867
1.3596901,134.11395
1.3334566,135.4615
1.2856839,130.0116
1.2735333,132.22662
1.2209611,130.44745
1.1516684,131.70935
1.1474748,125.43805
1.1539562,129.13925
1.1397561,126.97956
1.16078,127.495605
1.1113706,129.284
1.0217128,126.68775
1.0104735,124.89208
1.0275178,121.63117
0.99031085,119.87203
1.0993619,119.90037
1.0566964,115.6765
0.9664499,113.301476
0.9820666,116.538956
0.87272173,112.33785
0.94047946,111.88043
0.8910278,108.07395
0.8623684,108.10195
0.9518158,106.09822
0.9254982,103.53816
0.88852274,103.530624
0.91078067,100.597145
0.8589628,102.89568
0.742751,99.75707
0.8590745,98.194695
0.796577,97.926575
0.70686775,95.6603
0.7922474,87.295746
0.72315544,87.17284
0.70856947,87.59868
0.7112703,88.0512
0.59362185,86.15601
0.7522612,85.57424
0.61719084,82.53025
0.45350543,77.81455
0.5290489,77.74293
0.46746778,77.40232
0.33900204,74.94124
0.45314628,76.387375
0.49726152,70.305725
0.4099588,68.29523
0.38872877,66.578125
0.19108431,70.58586
0.33823985,65.46215
0.3541307,63.74576
0.33063117,62.481377
0.3823933,61.74985
0.27645025,59.852726
0.31284967,57.98866
0.32294697,61.014816
0.26979652,54.810337
0.34851584,56.711536
0.26479894,55.25479
0.2468819,52.162292
0.24719901,50.267708
0.316901,49.83084
0.27918246,48.370823
0.26995608,49.01796
0.19350292,51.64597
0.24383298,51.740616
0.08591741,49.36898
0.11133702,47.122013
0.086426385,47.218105
0.045538202,48.79925
0.08491269,50.6424
0.022448676,49.83427
0.04372717,49.474316
0.042023018,50.379738
0.024195645,55.709663
0.02517721,53.383183
0.017994465,56.08337
-0.037925724,56.095146
0.019957727,56.25695
0.035691477,60.097748
0.046895158,64.95
0.10183755,64.25103
0.24919608,68.07843
0.20567526,66.749596
0.30278748,67.78491
0.3616442,74.16134
0.38082916,78.018524
0.5263718,82.45024
0.5460973,79.111374
0.67281914,84.79449
0.79710394,86.554115
0.7505906,91.034
0.9176589,94.47585
1.0745555,94.9708
0.94314796,103.529976
1.1471668,104.36621
1.1589471,105.64782
1.1910689,106.36471
1.239863,111.490585
1.2017429,111.81225
1.3123944,113.71603
1.297377,116.78412
1.3549644,116.94782
1.3669715,122.4672
1.4361043,122.423256
1.4125723,120.37845
1.4911255,128.3553
1.433652,124.754196
1.4870199,130.14478
1.5383877,131.60619
1.51062,129.81676
1.5476358,130.66844
1.4624376,133.41054
1.5106692,135.50058
1.5562156,132.92284
1.405466,131.82484
1.5714834,133.16454
1.5270902,133.44806
1.4901341,133.90628
1.5119702,129.47813
1.3757585,134.55644
1.3964614,129.01666
1.4210624,129.7768
1.4660382,127.17045
1.3857118,134.37303
1.3389641,129.18277
1.3263508,129.84352
1.3174386,125.793144
1.3291816,126.50615
1.4455291,125.51496
1.3458848,125.68116
1.2235242,118.53754
1.2178832,116.72805
1.2385783,120.56972
1.2120521,116.78004
1.1874636,118.09366
1.1502665,113.78235
1.2128723,110.62593
1.2561438,112.177475
1.0370792,109.58964
1.0377787,109.6333
1.0785995,104.17771
1.1532514,108.33972
1.0502023,103.96701
1.0588446,103.20381
1.0604292,100.39564
1.1619382,95.79021
1.1078517,97.460365
1.0869012,93.05918
1.0918881,97.98398
1.0235679,93.82874
1.0551455,85.24886
1.0511407,88.31519
0.9819759,87.82957
0.9802098,85.64291
0.9460702,81.34491
1.0120584,82.33273
0.81174934,79.06041
0.79768306,75.173355
0.7860327,77.23451
0.76308846,79.5382
0.6356157,75.16641
0.67402625,74.810776
0.810012,70.72073
0.7371839,71.92382
0.6122191,68.61886
0.7651655,65.80739
0.70253235,66.52765
0.5874517,61.16852
0.6840288,63.60361
0.7311034,59.7548
0.66943467,58.317566
0.5777033,59.515026
0.6138832,56.911964
0.70286316,57.568497
0.7462324,56.4906
0.6506456,48.13593
0.7369573,52.775047
0.59047186,54.992973
0.60726976,49.32526
0.71478206,50.832726
0.4358163,52.1568
0.60443664,51.197433
0.5483442,46.85753
0.47522876,46.733574
0.3214404,45.714565
0.45160708,47.73341
0.3421553,48.706196
0.46493453,47.066692
0.36232707,55.46839
0.35744274,51.643364
0.35501313,54.140896
0.32630968,51.38287
0.3634123,52.200417
0.3764733,53.430553
0.41423485,58.873882
0.38038236,60.13739
0.43795356,60.252808
0.4891101,64.387054
0.5546673,66.73722
0.55208045,69.50547
0.7727121,71.40142
0.76706237,71.49031
0.89080596,75.42597
0.92631245,75.593796
0.9831063,79.90688
1.041174,86.503365
1.1476831,87.68123
1.1701583,88.57138
1.2479382,91.02302
1.2905102,92.185905
1.2934471,95.0895
1.3394426,100.3943
1.523991,102.188576
1.4736142,106.728035
1.6921097,113.0508
1.6659777,110.248825
1.7951624,113.54259
1.7743417,119.2429
1.7232261,115.344604
1.7575049,123.73363
1.8388042,119.43998
1.870005,123.027275
1.8620104,126.20513
1.8465614,132.50636
1.9007424,128.6209
2.022019,131.15932
1.9416533,129.6006
1.95931,130.69681
1.8323469,130.3625
1.9027627,133.40932
1.9420611,135.3036
1.968467,132.88268
1.950981,135.58754
1.833332,132.08427
1.811203,133.75027
1.7254882,135.512
1.8809882,133.73883
1.8307246,135.22339
1.6996586,126.58975
1.8670298,133.49643
1.7659825,127.0279
1.7214098,129.50029
1.7840726,129.03925
1.6793957,126.307396
1.679337,128.32289
1.6316118,123.6245
1.5431087,123.50463
1.6168759,125.65195
1.5190456,119.855865
1.4692022,120.463974
1.5282754,118.78322
1.5680562,114.58934
1.6177586,113.969215
1.5460125,114.973946
1.6183277,110.263054
1.5448595,112.09992
1.5180552,103.58885
1.4954888,105.165344
1.4472516,103.469574
1.5466648,101.24992
1.4764497,102.074684
1.4119881,104.417915
1.429523,99.12412
1.4710155,97.75489
1.4534624,94.30726
1.4326743,95.91757
1.2169598,91.97162
1.3228958,90.20693
1.2380155,88.18279
1.2582043,88.68521
1.2628345,85.506355
1.1771642,86.70878
1.1698313,81.41088
1.1064874,81.36156
1.0487251,78.23831
1.1129555,79.373825
1.063786,74.73962
0.9995505,74.47834
1.0271177,76.19279
1.0338026,70.321045
0.93695694,70.47343
0.90147084,66.71951
0.92525166,67.27314
0.959599,61.99455
0.9382695,61.221737
1.0818166,61.78649
0.9930912,60.72268
0.87308025,58.504814
0.96213377,61.397236
0.9139622,59.726536
0.84500265,55.844788
0.87428355,53.506474
0.9207697,56.259983
0.9850341,50.374252
0.9092943,51.930016
0.850435,48.050125
0.9138256,47.250797
0.6551351,50.113323
0.8037709,50.470272
0.7109157,48.151825
0.69839144,51.067516
0.61319226,48.51496
0.696927,48.64198
0.56839526,51.159405
0.58025897,49.479218
0.63694507,45.441162
0.61825496,52.25478
0.559702,49.60242
0.4924175,51.442986
0.52760875,51.159554
0.53491783,56.19594
0.48106423,59.821445
0.57170373,61.67613
0.57094944,62.432613
0.6067082,63.302914
0.6655456,67.02736
0.61185163,67.18756
0.82435644,70.701965
0.7744797,74.588875
0.7378827,76.30554
0.90016687,76.256516
1.0016156,80.03433
1.1073239,81.31667
1.1726984,85.496506
1.1558019,88.06387
1.2460226,91.36369
1.3235109,94.38849
1.5057586,98.90259
1.5464052,100.06962
1.5038174,102.013435
1.578379,106.01649
1.6283238,110.14386
1.7485994,110.84055
1.6088519,115.74158
1.7366443,118.13612
1.7923707,118.169556
1.7847625,121.82507
1.8323486,124.02916
1.8280104,122.852264
1.8374795,125.91392
1.8509872,131.08017
1.8483921,128.37193
1.8835558,127.35364
1.8797183,134.83464
1.8110499,133.71611
1.9194609,131.50531
1.8444054,135.4793
1.8734335,136.88084
1.7964218,135.54578
1.9233103,134.13869
1.7590779,133.51164
1.8501499,138.0322
1.8462553,131.39346
1.7343092,135.67091
1.8235818,136.43652
1.7637196,128.47493
1.6261683,131.0216
1.6564014,133.97333
1.5424049,125.34996
1.6697639,129.87875
1.5389857,124.187454
1.5856422,127.07671
1.4910578,123.86811
1.5495344,119.91859
1.456657,119.71707
1.5411673,121.77565
1.3321205,115.87396
1.2862256,116.545395
1.4731588,116.57131
1.3508067,117.549515
1.429803,111.894325
1.2282323,111.320305
1.2654622,111.18477
1.2802465,109.2658
1.2611566,104.681366
1.387963,105.34953
1.3325096,104.16814
1.2591095,97.126144
1.233643,99.458015
1.330026,98.74756
1.2218106,96.415825
1.1304232,98.12105
1.2240615,95.07079
1.1232522,93.73156
1.0658683,91.17149
1.0267149,87.850105
1.0277694,88.217896
0.9551117,86.62641
0.9370531,81.0888
0.9456538,83.340355
0.9471559,82.19866
0.7830808,81.95535
0.7193034,75.546234
0.7475983,75.88594
0.856445,78.882256
0.6764564,73.89467
0.7188359,71.269035
0.5616404,69.38861
0.68822414,65.88757
0.5893958,66.33026
0.7230978,67.54814
0.6596267,64.02051
0.5207995,61.659435
0.6189753,58.945534
0.6039412,58.598694
0.49609232,58.732544
0.6000644,58.02034
0.65265286,57.134804
0.5705332,59.42367
0.46968445,53.686687
0.59063554,53.61507
0.53680754,45.9957
0.534132,48.476902
0.48764354,53.767376
0.46938205,53.51957
0.4118615,47.713173
0.40682334,48.483555
0.36390942,49.293976
0.3512139,47.836884
0.28012457,44.59414
0.2756826,47.76041
0.2895704,46.241623
0.23810011,48.701473
0.19213656,49.884243
0.19209665,52.011223
0.32655197,53.07242
0.063609526,54.23574
0.23676834,55.143543
0.13967797,54.795864
0.28185472,60.487137
0.21178688,59.879818
0.279278,63.131145
0.24772567,64.7705
0.2845017,71.06935
0.349685,73.97
0.4060757,72.85287
0.528272,74.97178
0.57439923,82.862045
0.6423432,76.43284
0.6857358,81.07474
0.73587465,85.26453
0.91026264,87.32992
0.9059442,87.10236
0.994601,94.23916
1.035246,97.54538
1.0738075,100.23458
1.2475938,101.86561
1.1449479,106.73164
1.1314794,103.059074
1.2874535,113.03528
1.3007423,112.61763
1.3359789,113.55994
1.2712122,120.1181
1.3067924,117.96031
1.400893,122.10169
1.4476978,125.57591
1.4647839,126.67482
1.5350145,127.07635
1.3971145,128.44705
1.3765166,130.39026
1.5031296,131.73619
1.5606325,132.2866
1.4963143,136.99466
1.4791793,135.72734
1.4413049,138.79535
1.3552947,133.99994
1.4258766,134.22443
1.5041095,133.11617
1.3550104,137.09879
1.436903,135.76476
1.30912,136.38715
1.2740054,132.85512
1.201676,131.65196
1.2546194,128.41664
1.2562863,131.10582
1.3324882,130.16496
1.2131115,129.24416
1.176125,125.41487
1.1469371,124.92148
1.168587,127.59369
1.1190586,124.49953
1.1575307,123.68415
0.9777222,122.86316
0.87673897,120.67781
1.0177745,121.60703
1.0925936,117.92106
1.0377918,113.2344
0.94456697,110.69248
1.0123522,113.0003
0.8915806,111.15115
0.9672357,109.43986
0.958913,106.61801
1.0545053,106.57854
0.90205425,102.9939
0.9512549,104.12055
0.8680332,100.27954
0.8564767,103.72802
0.90946305,101.764435
0.7338399,95.87
0.819292,95.60787
0.7816217,92.41029
0.7231755,94.03203
0.8658438,92.237564
0.6689881,90.57917
0.60993123,85.297165
0.6213025,85.288536
0.63948005,83.88112
0.569367,82.607124
0.620129,79.32252
0.64608794,78.30049
0.47900623,75.91393
0.46079952,75.34886
0.43407336,71.88826
0.44442448,72.81716
0.34952366,70.61683
0.4485748,69.14281
0.4540835,67.33664
0.3741235,67.38344
0.28201178,61.82435
0.42243093,60.47054
0.2605161,57.547142
0.21089011,61.504536
0.21813355,56.759064
0.35521296,54.57057
0.3024127,54.168926
0.31901562,55.77061
0.2672077,53.915394
0.35438475,56.023247
0.2842357,51.87514
0.35252818,52.62867
0.3079618,53.157555
0.21842968,48.725124
0.21727648,46.12427
0.30959767,51.081524
0.19769879,46.597954
0.18855008,47.26267
0.07724148,53.550133
0.09053397,52.790432
0.016930994,48.590065
-0.031344708,51.938725
0.00017953583,53.2556
-0.053801708,52.024002
-0.17771342,54.099804
0.033255905,55.9695
-0.07763612,59.02969
0.015771728,53.250813
0.0036058254,57.429703
0.08776639,60.78371
0.0005002456,61.66579
0.10996657,64.175835
0.13711993,66.92744
0.17886078,66.02564
0.23824355,68.58689
0.25080895,73.540565
0.495324,73.03643
0.51006204,81.90806
0.5909788,80.47597
0.63257265,85.05535
0.69483685,86.1935
0.731691,91.165794
0.7492523,92.38614
0.86233395,98.95523
0.9338249,103.528824
0.96500075,102.14606
1.062783,103.54494
1.127146,111.58002
1.1992681,108.64999
1.0864266,116.9957
1.2721899,116.335396
1.3216163,117.90668
1.3195543,121.66518
1.2332981,121.77834
1.3122165,125.18222
1.2993284,125.37265
1.3234335,125.67829
1.3827821,128.42468
1.5250689,128.72987
1.4704369,136.34238
1.4195305,134.29951
1.3985374,133.0271
1.5617975,133.48134
1.460802,136.8528
1.4266993,137.2998
1.3159823,131.97043
1.3765838,133.55933
1.3871441,136.99936
1.4388112,131.4266
1.3723199,135.18362
1.285412,131.22316
1.3183556,129.63591
1.4029031,135.52382
1.3197238,134.01736
1.2957131,131.60791
1.1942259,124.723785
1.2453029,123.90302
1.1791301,125.47292
1.2909817,127.861984
1.0952814,125.48255
1.1267211,120.44146
1.0403984,123.71538
1.0939447,118.60131
1.019269,120.54363
1.1128855,116.77371
1.0135695,119.753105
1.0513482,115.45492
1.0625983,110.312614
1.009808,113.58391
1.111574,109.47937
1.0602471,104.69281
1.0716585,106.70981
1.004182,105.12428
1.0709275,100.63614
1.0560253,100.81683
1.0603616,97.63073
0.9521084,98.26117
1.0103707,91.625725
1.0681349,94.526566
1.0345863,91.54559
0.9812947,91.18613
0.93858224,91.49212
0.77815557,85.13779
0.8093705,88.306625
0.79199475,83.18266
0.8388957,84.86307
0.75965875,85.45138
0.72600496,83.78403
0.6137933,79.499954
0.67917,78.56357
0.682739,75.91147
0.5142964,75.451
0.6155159,70.79711
0.5132723,69.66328
0.5890515,70.02829
0.5188177,68.87608
0.6468205,68.357124
0.52242595,65.87449
0.5040047,64.03844
0.67236614,62.727974
0.6239117,60.142136
0.5132111,60.110825
0.44552588,58.24376
0.49275976,51.669205
0.6958297,56.464085
0.5878198,56.023823
0.5734292,53.407864
0.5951524,52.175594
0.5782132,47.523182
0.6043395,48.47805
0.5661767,50.733673
0.5134685,52.104942
0.47154292,50.021267
0.50533056,50.439827
0.35698637,54.351273
0.43118474,47.85027
0.35840964,50.018658
0.30840722,50.32548
0.23986499,49.05376
0.29168817,52.921772
0.31283942,55.380493
0.27057722,51.28331
0.38871485,52.771946
0.3088256,56.222088
0.36013478,56.64293
0.34722355,60.896084
0.3954971,58.43124
0.38624394,63.198082
0.3369064,65.92513
0.49852306,70.006744
0.54689735,73.54586
0.5778162,72.862595
0.6301675,70.13207
0.7145892,78.611565
0.8296354,80.43174
0.82870805,79.714226
0.9078108,85.45856
0.88254195,87.21639
1.2030661,86.693634
1.246979,92.53658
1.1593934,97.85462
1.3585066,95.84697
1.4234413,100.130585
1.4091871,106.04981
1.5274358,106.52734
1.5492144,111.75608
1.5991569,109.39794
1.5674332,115.33042
1.6636215,116.29398
1.6234086,116.22263
1.7735026,119.69278
1.6897614,118.81364
1.7242659,126.95886
1.7978089,128.4385
1.8525476,131.75357
1.8593389,131.30318
1.8317337,132.02214
1.824113,131.43433
1.8323208,130.56857
1.714688,130.54898
1.9280846,135.74564
1.8050499,134.29788
1.8392605,133.74626
1.7432281,133.58186
1.7561306,134.18248
1.7674268,130.98323
1.7100439,138.33893
1.799016,135.02457
1.7178913,131.57712
1.68578,134.07648
1.7293613,130.4905
1.746906,132.29456
1.5556593,128.43233
1.626952,130.77979
1.5626572,125.02303
1.6034992,126.240875
1.5069721,124.120415
1.528785,119.88858
1.348472,120.06966
1.5095236,121.50139
1.5269505,121.74267
1.4000255,115.69591
1.3981035,118.49413
1.4559541,115.06902
1.3403007,111.72413
1.4844021,111.47651
1.4124254,108.30545
1.4199519,104.87296
1.4734977,106.9822
1.4515436,103.66365
1.3166318,104.56937
1.5260698,99.99655
1.4561459,99.68022
1.382325,96.256546
1.3996485,95.061455
1.3686992,95.06936
1.3163846,94.99234
1.1797162,96.655815
1.2287766,87.45572
1.3148146,89.51061
1.3110322,91.65606
1.1902803,84.96595
1.1664609,85.17772
1.1493365,78.37145
1.2267601,82.75197
1.0484062,78.592766
1.0834516,80.32276
0.98459035,77.06219
1.0354689,78.00595
0.94360155,73.40587
0.8755181,71.67536
0.837772,67.47282
0.8536549,67.03087
0.9582628,69.20724
0.9251735,66.70895
0.8711369,64.41725
0.90781057,60.39033
0.947426,62.319473
0.86904836,57.17276
1.052342,60.800674
0.86567783,58.244843
0.9270112,51.264473
0.83045655,51.163136
0.8376366,52.245697
0.8848812,53.12131
0.85756266,50.701244
0.8229609,48.943295
0.86856574,49.394543
0.9530713,48.75267
0.79134357,53.078285
0.8377883,47.47148
0.75633687,49.805267
0.61471057,45.031292
0.72064006,50.62444
0.7630862,50.478413
0.58738875,48.991856
0.56170607,49.989685
0.5963117,51.482944
0.55166286,51.821564
0.5907102,51.70633
0.7179819,54.903282
0.5398319,56.342773
0.53497,55.43637
0.6769951,57.660683
0.69358957,61.65604
0.62869644,61.838253
0.705082,69.38429
0.7905362,68.77496
0.8297504,69.44953
0.9324815,73.72115
0.87671924,74.689
1.0435948,76.5787
1.1473817,83.49561
1.1953651,82.545586
1.1441997,82.59361
1.2107823,89.825294
1.4292235,91.91958
1.4763232,93.1096
1.437903,101.54287
1.566632,99.6117
1.5813614,104.64634
1.6323552,103.79797
1.6823906,109.19932
1.7099196,110.63114
1.6994675,115.05261
1.7278531,118.713646
1.9136999,121.00253
1.8590468,120.477486
1.7423254,123.79082
1.8874694,125.709175
1.8878936,123.00272
1.862414,128.25655
2.0482125,128.30742
2.0784492,129.8478
2.0091383,126.815544
1.9554034,132.6941
2.0589097,133.77972
1.9397981,132.50613
1.9276078,134.56404
1.8598102,131.4099
1.8733058,136.19331
1.8927878,135.14508
1.8573709,133.72444
1.8357241,138.82439
1.7835672,132.28209
1.7889911,135.65437
1.809736,134.63509
1.7214575,130.94203
1.6934694,131.19249
1.7204955,132.82256
1.5177977,124.339966
1.6873473,126.66232
1.6024766,125.43668
1.6041939,121.54306
1.5268623,120.90406
1.5484165,120.81636
1.537054,121.758255
1.4185244,115.55648
1.4924698,114.874855
1.4974737,117.82281
1.449619,114.835365
1.4932514,111.862274
1.5342057,110.01566
1.4418514,108.36352
1.4408982,108.21921
1.3784882,102.54871
1.291111,104.44731
1.2764271,101.45522
1.3895173,100.86328
1.2891821,99.82327
1.3185269,95.60296
1.3051144,94.374664
1.255687,93.59138
1.2773052,91.76047
1.250285,89.4409
1.15744,89.87364
1.2219937,88.80409
1.274104,89.50874
1.0732772,87.86438
1.0660203,82.40754
1.0722347,82.45263
0.9141233,80.50111
0.96049345,74.86408
0.95943755,82.838585
0.8384093,78.17925
0.7921831,74.28154
0.7834671,73.09139
0.7609552,72.27368
0.80884326,73.46024
0.8683403,66.86866
0.76533824,69.51942
0.6797955,66.62478
0.88564825,63.764023
0.7354963,63.467518
0.7188505,61.681915
0.6709999,54.11132
0.7366242,55.63439
0.77053857,58.688694
0.7678022,58.31728
0.747323,55.96467
0.7781693,56.907654
0.7569914,51.01899
0.80520916,51.384045
0.6204908,52.555294
0.6972394,50.97178
0.4937594,48.771187
0.5199752,51.205116
0.57327265,52.282516
0.52921504,46.714344
0.44963643,46.81013
0.45478028,52.003384
0.4039174,45.85264
0.37566864,45.75936
0.27674392,51.52519
0.31417474,51.567142
0.35930538,51.596725
0.27415586,56.248474
0.23254672,49.420174
0.2758461,58.94103
0.22435313,55.646343
0.26766533,59.455032
0.32552597,58.63905
0.36903337,61.96699
0.41988593,64.376015
0.4612273,64.769714
0.40840954,70.426506
0.6197791,75.69822
0.61553407,74.19108
0.7395169,79.75225
0.7517764,84.28622
0.7240235,87.70876
0.848152,87.243866
1.0214938,89.96638
0.9867486,94.09824
0.97863775,94.634926
1.1437889,99.5035
1.2442696,102.91414
1.2460269,105.12608
1.3131968,107.88026
1.3987932,109.459206
1.39958,110.51266
1.4734691,112.981
1.4313725,117.96082
1.4579568,114.278946
1.4694037,123.95824
1.5686034,119.668594
1.6567426,122.97223
1.5647677,126.33599
1.612615,126.23184
1.736161,125.27965
1.5259928,133.2369
1.5735681,132.26396
1.5923843,130.8512
1.4714222,131.09126
1.5729938,131.27391
1.5271337,134.28606
1.5515,138.13837
1.509714,134.28471
1.5668106,135.60382
1.4539031,133.68431
1.5325594,137.12013
1.379545,134.60527
1.5126916,135.6627
1.4630134,131.0121
1.3419487,134.04138
1.4195884,130.10355
1.2695467,126.53667
1.352892,130.53387
1.1435757,125.83754
1.2583351,124.44024
1.1740123,123.30123
1.1809129,123.83974
1.0844486,124.857635
1.0475268,119.520874
1.1242242,119.49752
1.1140555,117.23191
1.1660459,114.10478
1.1200899,117.14051
1.0443546,113.04442
1.0508611,109.49483
1.1146028,110.31857
1.0760902,106.37504
1.0610406,104.168915
0.9856213,103.630684
0.99676746,98.5502
1.0050834,103.656685
0.8979089,97.59909
0.92765146,96.026825
0.8560501,94.23818
0.87205,96.167465
0.85560465,91.53865
0.85651374,93.24169
0.82930696,89.46136
0.8625448,89.83821
0.7147673,86.39206
0.78712976,84.76329
0.66013,87.86958
0.5578242,85.08134
0.6292321,81.240005
0.5260124,80.979614
0.5653646,79.28875
0.42881352,77.57166
0.47476342,79.62336
0.3877607,73.278694
0.39205593,68.345146
0.47594178,66.77457
0.40574703,69.07739
0.3624955,66.410164
0.34313074,62.418682
0.45970994,62.8894
0.3221294,62.077606
0.39370188,65.362526
0.36131534,60.28766
0.36391544,58.410442
0.4323477,60.82103
0.43020183,54.291786
0.30024666,55.26488
0.3448864,55.429398
0.31125462,52.21862
0.2531644,49.69743
0.36226308,46.848557
0.27793136,51.466618
0.22964267,50.764988
0.22339344,51.630245
0.14815992,50.99118
0.20251344,49.137493
0.029230017,46.569145
0.014602095,47.581917
0.092532605,52.178802
0.019388588,49.073307
0.0029668966,53.797646
-0.060931172,53.147873
0.030727496,51.96826
0.015310646,51.84153
-0.09020713,54.985035
-0.11059961,54.82639
-0.12871087,55.755314
-0.03455968,60.115902
0.06981645,60.58969
0.09575812,61.518654
0.059016954,65.503845
0.12917027,66.451416
0.24034591,69.90023
0.34253904,71.21572
0.3386445,77.74064
0.4008945,76.7668
0.48890388,84.44875
0.5146541,83.34267
0.57305187,88.47499
0.60482645,88.25047
0.7055967,90.91059
0.91358525,95.23294
0.86631185,97.120995
1.0379859,99.731834
0.9996176,102.07678
1.0837332,104.48271
1.0938522,105.878975
1.1285559,113.05229
1.1505125,112.92082
1.1383635,114.346245
1.1356652,118.13793
1.2504448,121.62209
1.2614558,125.73463
1.3373911,122.93177
1.335097,124.288475
1.4383672,128.4867
1.4257135,130.9859
1.2933336,131.37814
1.4516761,131.19948
1.3421556,130.92632
1.4388907,135.82385
1.5133537,133.3755
1.2221406,133.2583
1.3141832,134.31065
1.4117873,132.75781
1.34162,137.84515
1.2977427,136.70018
1.3646895,132.61287
1.2756344,131.35376
1.2499341,133.19434
1.2378385,135.27768
1.2325464,132.26324
1.2024739,132.7229
1.1828845,130.2919
1.2472748,126.89443
1.1881614,127.51389
1.1367381,128.31148
1.0681626,123.04922
1.0993041,127.576866
0.98960495,119.52547
1.0565498,121.167015
1.0889555,123.764786
0.98357534,113.98416
0.98735654,116.75797
1.0369196,112.45589
0.93818367,114.82947
0.8831917,113.59985
1.0412344,109.192116
0.9998555,107.75282
0.9928122,103.956894
0.8667253,104.099266
1.0233765,101.81886
0.8810436,106.824554
0.8616123,103.303955
0.92674965,96.299904
0.92309475,98.19081
0.92615926,97.746506
0.83962506,93.27553
0.798413,89.26448
0.8757107,89.780914
0.8856002,91.26691
0.9322913,84.46151
0.7674605,87.11321
0.7348931,88.00804
0.68170077,83.89571
0.63586056,83.242195
0.54215074,81.25675
0.56155133,76.19481
0.54756796,78.59456
0.6014435,74.79471
0.53311455,73.05593
0.44247788,70.358345
0.43733293,72.149704
0.46201217,68.1001
0.57100445,66.49129
0.38341463,63.26323
0.41947252,64.6886
0.5392177,64.88861
0.45595017,62.57699
0.45885438,59.60505
0.4356386,55.598244
0.480747,58.241146
0.44183835,55.065975
0.36067143,55.92866
0.4456488,54.30277
0.47511393,53.424202
0.3695169,53.067333
0.37562817,52.28787
0.39923364,49.96978
0.3766647,49.47068
0.39095908,44.758663
0.28848183,47.56051
0.35652062,49.662354
0.2934636,54.074924
0.25586236,44.814705
0.22860381,47.317707
0.1860091,47.64195
0.28573522,48.560276
0.07363254,52.002823
0.15369575,48.770576
0.12165102,49.865364
0.16484967,54.94201
0.22146368,58.75466
0.13370827,56.667397
0.13466665,55.607964
0.2123136,60.418755
0.11866229,61.86328
0.31612745,64.562775
0.37891313,68.17624
0.45422393,68.258514
0.44084084,68.014435
0.6151634,72.47741
0.67113,77.574715
0.80415726,82.74835
0.8531686,83.30449
0.92173743,83.0072
0.90377426,89.32375
0.94422734,87.90279
1.1141796,95.53432
1.1293913,98.73546
1.283885,98.154465
1.295147,102.997505
1.3880212,105.373146
1.4296663,108.00198
1.4190662,111.545456
1.4373922,115.92234
1.5732932,114.345924
1.5697904,116.25455
1.5560592,116.91252
1.6042383,121.51232
1.5971857,124.00787
1.607552,127.79676
1.5897384,130.00027
1.6847818,132.42686
1.613882,131.72278
1.628071,129.80588
1.7827318,133.52432
1.7609454,133.96587
1.7331327,136.45883
1.6698973,136.05324
1.7973281,137.668
1.6781963,135.10747
1.6993005,130.4897
1.675203,134.09174
1.6649369,134.07178
1.7197454,131.5921
1.593452,131.47289
1.4742224,130.75168
1.5865295,134.6936
1.6583992,131.64194
1.6687175,131.05252
1.527774,125.066055
1.5499269,125.77371
1.5397779,124.45419
1.4738065,124.61268
1.4257582,126.13315
1.3310515,120.81726
1.3651673,120.99705
1.3861045,122.33385
1.4752661,118.691124
1.3708661,119.05952
1.433365,113.71571
1.3983567,111.35185
1.4385546,111.046906
1.3657658,110.82398
1.2760983,106.65407
1.4794749,106.491356
1.4377165,108.387276
1.3131508,101.674904
1.3724369,98.88839
1.3385546,103.4327
1.3317882,102.01791
1.2616355,95.89089
1.3480256,99.26328
1.3193219,96.29201
1.1985073,95.06697
1.1751059,89.45148
1.1865048,90.00099
1.0809019,88.838974
1.1221547,88.27713
1.0346192,85.12029
1.0529573,80.25023
1.0473064,81.42893
1.1083345,81.319145
1.1118447,78.25007
0.87796795,75.02108
0.9312172,77.05076
1.0249661,73.62778
0.94363654,71.47843
0.8525782,67.835075
0.7808813,71.22188
0.906466,65.604836
1.0061284,64.63479
0.77836746,63.28051
0.8959083,66.02365
0.8569031,63.31849
0.8739496,59.607067
0.92473125,58.362457
0.8994833,59.70851
0.9619018,58.53943
0.9156383,54.307682
0.9239922,58.258335
0.7081629,53.33703
0.870606,52.430984
0.77789927,50.55282
0.8072801,52.416286
0.78907317,48.2461
0.7258964,48.291527
0.70331436,49.408295
0.7932669,48.10632
0.7915401,47.907055
0.5514765,47.894806
0.6019507,52.29446
0.59808147,49.58446
0.5423028,49.35178
0.5482079,51.944336
0.50698835,51.60093
0.44068736,53.85884
0.4109767,53.484753
0.49496004,53.34882
0.49421677,59.35675
0.45335615,58.498703
0.49871328,59.969715
0.6179447,59.133904
0.7101293,67.231606
0.71563035,68.982346
0.72806835,69.69792
0.9261639,71.966286
0.77265394,73.748
0.9740767,75.45434
1.1057082,80.56665
1.0556818,83.80734
1.1702778,85.29899
1.2147533,87.38281
1.3453128,92.01981
1.422727,90.64645
1.4429674,98.54246
1.5863565,101.709015
1.5206362,99.10696
1.5330924,104.924
1.7989247,104.37832
1.7060918,108.72673
1.7641164,112.81918
1.8333257,117.60245
1.8881246,117.537056
1.7915683,121.31067
1.8388892,118.7225
1.8665661,125.20358
1.982376,126.364944
1.9416201,126.968155
1.9069996,127.36993
1.9564202,128.34885
1.9932051,133.27267
1.9373037,130.34285
2.0244918,133.4209
1.9345847,133.1115
1.9257836,136.39221
1.9519801,132.2847
1.9628632,134.4734
1.9086754,135.39597
1.8046483,133.01202
1.800859,130.47604
1.8613132,132.33832
1.878444,134.71292
1.7755611,133.57436
1.7869345,128.52939
1.7114252,133.64641
1.7294912,132.28935
1.7516377,129.00351
1.7062383,129.92168
1.7248042,123.60878
1.6944457,125.00633
1.5803813,123.17714
1.6257987,122.93808
1.6324315,118.763664
1.5802594,115.274124
1.460548,120.72434
1.5020573,117.354485
1.5312078,115.79925
1.5840073,112.5905
1.4962916,109.65254
1.4214419,109.918785
1.4524057,108.54138
1.4391035,108.16163
1.5986707,105.90763
1.4659089,104.644775
1.4642712,103.18822
1.3687689,101.97532
1.518506,101.2637
1.4316326,95.76433
1.4383537,94.4308
1.4196396,93.361885
1.2005464,90.70242
1.2582421,91.13457
1.2969786,90.55375
1.1711304,90.482346
1.4152031,87.771675
1.1882234,84.83722
1.1031408,90.55433
1.1751893,81.99219
1.0908481,79.48826
1.0521431,80.24596
1.0513086,79.48212
0.9260949,73.78421
0.930924,75.08532
0.9068412,72.559425
1.0194408,69.00222
0.9751935,71.57823
0.839652,68.89995
0.8262776,67.7352
0.9066452,65.2682
0.6978562,63.261383
0.9183955,64.239365
0.80078924,59.038788
0.82802343,61.365974
0.9047105,59.2157
0.79645675,57.541153
0.86365527,58.314686
0.7717279,53.067913
0.8315851,54.325752
0.8360584,49.27004
0.7014864,49.748512
0.6848966,50.137177
0.7271638,50.009666
0.71474016,47.56799
0.69922674,45.55804
0.7179522,50.166615
0.6409574,48.022575
0.5821868,46.9114
0.4612127,51.325302
0.48219198,51.13743
0.52560127,45.993084
0.46293178,49.756485
0.56544703,53.04356
0.34158945,49.89488
0.42288497,53.41066
0.44962674,53.185284
0.40364015,53.9056
0.44542775,56.972153
0.2602874,57.59376
0.4631297,63.42851
0.49319926,65.68562
0.62978965,64.34044
0.6069081,66.717804
0.64823204,69.56612
0.6968009,73.12552
0.697812,74.4833
0.7793007,78.67839
0.9603427,81.525604
0.9555965,82.613205
1.0375327,89.91579
0.9932677,89.24961
1.3552357,91.36326
1.1659579,95.80135
1.2052917,98.07902
1.3588321,98.98911
1.4020562,105.96794
1.3786901,106.59429
1.462958,108.060196
1.5549488,110.25296
1.5828484,112.67787
1.5740293,119.95254
1.6483202,118.2214
1.5850147,120.72249
1.6418568,125.34694
1.6840413,126.43358
1.6820534,126.33408
1.6656103,127.75447
1.6574762,126.996666
1.628659,129.26694
1.6958305,127.19426
1.7237909,133.4644
1.5488341,132.45699
1.6396484,132.5539
1.6568838,132.82744
1.5942612,135.91873
1.6554854,133.5585
1.6557326,135.43951
1.6141962,133.15854
1.6264434,135.2433
1.6137731,135.52773
1.462916,132.48755
1.4835964,130.49057
1.5026411,132.68808
1.4450005,133.80646
1.4179085,129.34525
1.3897467,128.3283
1.3973308,127.411354
1.3971176,125.548164
1.2848536,123.24435
1.4250553,119.434784
1.390016,123.47042
1.2473135,120.109116
1.2381228,118.9456
1.1614106,115.04465
1.0402871,113.996414
1.1888756,112.642525
1.2092775,112.79702
1.0280339,107.32362
1.2595254,109.184586
1.151461,106.959045
1.1959047,106.35018
1.0538566,105.411224
1.0082648,98.32431
1.0567755,100.48458
1.0307947,98.73331
1.0175189,92.75577
1.0573424,97.73097
1.0767097,96.41152
0.98355883,92.13554
0.8854256,91.59133
0.87828135,90.71884
0.8094096,89.244156
0.7321433,88.07192
0.857843,79.7155
0.7458009,86.61443
0.7131307,85.374214
0.7075692,82.80692
0.63483936,79.63676
0.7118322,76.50499
0.5348678,74.68281
0.53657544,76.26481
0.51518583,70.818954
0.5069813,70.44628
0.53964496,72.45043
0.48693493,66.903534
0.5071863,67.43468
0.48127428,64.69412
0.49364936,63.100525
0.45424277,56.040363
0.4240455,61.292427
0.43629828,58.28717
0.45693076,59.32075
0.3972866,57.534576
0.4470592,57.10889
0.41663834,54.341896
0.4341873,53.653545
0.34426066,52.849007
0.3847954,53.944138
0.29267097,53.035686
0.27454874,50.80523
0.26931155,51.508965
0.3164436,50.594704
0.3647695,45.958256
0.21953346,47.80268
0.18107793,51.2529
0.1794207,49.461365
0.03520525,49.023052
0.10145195,45.61673
0.100615755,46.775917
0.017172819,50.018375
0.083608605,56.516308
0.053506758,54.58151
-0.00530815,55.551346
-0.12048351,53.36546
0.021398492,57.415043
0.051346105,59.501152
0.12955724,61.747
0.04329926,64.03012
0.21665514,65.54897
0.107840724,67.80302
0.21196926,75.40756
0.29501694,74.07271
0.3680272,78.25387
0.5656222,81.373985
0.35892686,79.8996
0.599125,84.783554
0.61226875,85.03817
0.71944255,88.72709
0.76441795,89.66269
0.8611402,98.185814
0.844921,95.7324
0.84848475,98.163864
1.0350112,106.7888
1.1142001,109.3942
1.136418,106.57874
1.2100618,112.656525
1.1638544,112.2559
1.2797774,116.2004
1.31699,121.16685
1.295696,124.18291
1.3314402,127.91161
1.3414187,127.71671
1.331467,130.0006
1.3986968,127.838196
1.3883471,127.97652
1.3772736,132.33142
1.2915683,130.95111
1.3315996,132.87068
1.3172783,133.20084
1.3578242,132.88754
1.4187073,134.93666
1.3613347,131.74042
1.4346312,133.52962
1.28933,136.86938
1.3924618,135.1447
1.2707483,132.15366
1.3165054,131.48958
1.281412,134.63393
1.2384849,129.9904
1.1829882,126.32625
1.234502,129.47928
1.1707885,130.88522
1.0770105,127.47903
1.0708776,126.103966
1.0264307,126.7851
1.0911242,126.72051
1.0055983,122.81149
1.006527,118.431435
1.0295849,117.60583
0.99744755,120.15218
0.96102506,122.36451
1.0026423,115.20651
0.94091016,113.632645
1.0083617,112.65722
0.96961874,109.494545
0.9299892,110.874245
0.82570636,105.60077
0.8735389,104.93318
0.8087773,103.21266
0.7918017,101.449165
0.87982553,97.763084
0.88422877,100.41438
0.9113334,97.45406
0.7048844,95.736374
0.8287078,95.7171
0.8289029,93.64318
0.79047346,90.66206
0.74104774,88.06672
0.6870601,87.110344
0.75307363,83.16658
0.7165379,87.44424
0.58213437,83.015625
0.61724055,78.74696
0.6280105,84.17222
0.4769119,81.3137
0.4819349,75.8616
0.5231013,74.169365
0.51879954,71.95632
0.5224605,75.01486
0.4047083,71.85339
0.36102375,67.98809
0.38186258,63.994972
0.40872377,69.18919
0.41256154,65.30053
0.48214617,62.99682
0.358637,66.0617
0.24345358,59.108715
0.41087896,58.842224
0.2627929,55.872086
0.45384824,59.10196
0.36429057,53.1994
0.36595944,52.67548
0.35199973,55.510685
0.33864132,52.8872
0.34547567,52.0752
0.38023457,49.416607
0.17028892,51.248943
0.3091471,45.75667
0.3312422,47.26746
0.17089933,48.445282
0.33712333,51.35969
0.12451558,48.98578
0.11395318,50.266254
0.14192618,47.960297
0.07999162,51.380043
0.13029154,49.254436
0.026676575,51.534634
0.027448794,56.260063
-0.0075485,53.778915
0.11631596,55.449337
0.07311295,52.997066
0.17977302,58.592857
0.04182862,60.98487
0.22247781,62.611485
0.12945399,57.85733
0.20741636,63.307453
0.3491975,66.47758
0.4145129,76.19381
0.25189394,71.57692
0.39614764,71.481575
0.55129236,78.985855
0.6062816,84.72107
0.6362763,84.04857
0.73994344,85.526024
0.8695996,89.54968
1.0122045,90.10136
0.9021103,95.94416
1.0278912,99.73141
1.0846992,95.956406
1.1235828,101.98868
1.2890413,105.78777
1.3109533,107.32361
1.3830221,109.86909
1.4288758,115.11374
1.4796275,116.94526
1.3684995,115.23464
1.4041843,118.847206
1.4920444,124.24738
1.6058477,126.177055
1.4900668,127.90718
1.5498946,125.441
1.549073,130.83453
1.554166,130.11742
1.536727,133.38986
1.493781,133.63567
1.5408925,132.92679
1.5274538,136.13446
1.6025727,133.12729
1.537168,133.55875
1.5742972,136.94276
1.5848942,134.26427
1.5734601,136.26654
1.556137,135.10982
1.4070549,129.54488
1.443061,131.5121
1.5160608,131.53905
1.4487623,132.22864
1.4998515,128.1181
1.5414227,131.84792
1.3602321,127.19964
1.3818908,132.24377
1.2820094,127.9117
1.391242,123.051636
1.3069353,125.63528
1.2774354,126.20791
1.3072543,119.24478
1.3224609,122.45532
1.3397776,118.66033
1.1417979,116.39905
1.2641517,112.54517
1.2483505,113.16955
1.303863,114.10029
1.3696805,107.23892
1.2549158,109.47625
1.1864634,107.06621
1.2065178,102.43012
1.2281718,103.56004
1.2713023,101.39512
1.2616656,100.96595
1.1796324,92.80308
1.2045447,96.6375
1.2678598,92.33885
1.1695479,94.74119
1.190405,92.21857
1.0295066,91.46662
1.0803785,90.13035
1.0861129,86.69403
1.0088155,90.838684
0.91698414,87.34149
0.95804006,82.8107
0.8435847,81.564095
0.9976607,79.66265
0.925233,79.517845
0.80394953,74.93063
0.856954,76.26688
0.8468289,73.6467
0.8427912,75.815506
0.77696854,71.51246
0.79623336,66.15843
0.799448,70.217606
0.78568786,64.753174
0.722653,65.354416
0.77320063,63.247456
0.8095512,58.49929
0.71064305,58.318233
0.6784148,56.45447
0.6262278,58.154655
0.739852,55.535393
0.7304361,54.79963
0.8196662,57.558086
0.8935203,52.023357
0.7805759,50.57986
0.7068995,52.31037
0.76784617,54.3737
0.72800565,47.359344
0.6887743,50.054596
0.49932325,46.604
0.577825,49.927357
0.5416005,45.087322
0.5192153,48.658203
0.47264025,51.1897
0.4640695,49.547092
0.4924596,49.32554
0.46674296,50.10417
0.53074986,48.32292
0.48309696,51.074463
0.5172998,53.85717
0.47918722,52.81034
0.40742853,58.248062
0.47292367,60.217777
0.52950954,59.48495
0.5519497,65.64781
0.63321936,61.738884
0.55500656,68.03498
0.82230484,67.33147
0.8495073,72.27859
0.8101821,72.90489
0.8506861,73.84589
1.0038947,79.63051
1.1326294,82.56479
1.1740253,87.41097
1.2057306,92.78299
1.3404843,89.80601
1.3219161,93.95353
1.4551687,97.09919
1.4790542,101.44229
1.5090064,101.6374
1.5990808,103.61962
1.6571316,109.70016
1.6425071,108.208755
1.9132826,113.676125
1.7457409,115.172424
1.7841189,120.72398
1.8014585,117.2765
1.8254356,124.95174
1.8986975,123.87124
2.002932,129.7199
1.9785392,127.129944
1.9649493,128.1606
1.9139789,128.38246
1.9869595,131.61467
1.8861629,136.44353
1.9662503,133.73221
1.9136097,137.19534
1.9503598,136.09056
1.9450978,135.08815
1.8395325,136.48523
1.9597542,135.6289
1.8807817,131.36037
1.8278505,136.2581
1.9710497,134.28867
1.8617046,131.05235
1.8414254,134.89763
1.8579966,131.01448
1.8313763,135.28055
1.7361689,133.3208
1.7527168,127.125435
1.7016982,125.708466
1.6832907,127.18866
1.6706448,128.61021
1.7516817,123.68642
1.7142503,124.437386
1.6491454,123.75663
1.5615633,122.5279
1.6560818,119.01725
1.6701366,117.76962
1.5401411,115.84922
1.5903026,116.07316
1.5199511,113.8166
1.3994122,112.31473
1.4927369,106.01267
1.5391479,105.939964
1.5102284,104.228195
1.477899,104.34644
1.3609118,101.664894
1.4804231,100.892296
1.4891379,98.60381
1.4458207,95.873634
1.4579052,94.729935
1.3509505,98.09211
1.364415,92.99566
1.4116743,89.13931
1.2958102,93.77812
1.1814085,90.13624
1.3188663,84.952126
1.3691767,86.4334
1.1466033,84.14841
1.1500123,79.76208
1.1641262,79.33415
0.99698156,77.47164
1.0235391,75.39381
0.95236623,79.18498
1.0385475,73.81562
0.8781301,69.708496
1.032037,71.59793
0.9482635,67.36374
0.9112915,69.94436
0.97768825,69.53662
0.95010334,64.141975
0.85533154,64.25151
0.9253478,57.926456
0.7684304,59.1042
0.88324666,61.428837
0.97644067,58.028706
0.8584151,55.390358
0.9537491,56.25397
0.84304816,52.90187
0.8594452,54.673084
0.8545242,49.77824
0.798659,49.783005
0.8404654,51.61956
0.8480181,48.851463
0.76911205,47.060226
0.686587,50.562286
0.8152827,49.212852
0.6814062,46.97976
0.6577182,46.66006
0.64946944,49.748955
0.54062665,44.285458
0.51712066,47.309902
0.50370806,50.89213
0.49364167,54.513786
0.4935974,53.681522
0.38591522,50.522213
0.40684912,56.715572
0.5107956,52.719147
0.5424163,56.94295
0.540515,59.170418
0.64104724,64.75925
0.56824094,64.854065
0.6893453,67.90415
0.6475608,68.17598
0.83549535,74.76525
0.84499806,73.811325
0.913243,77.00379
0.9595967,78.7506
1.0733186,84.13855
1.1262728,83.66548
1.1818346,84.42769
1.1501505,92.15153
1.2440867,94.25656
1.2802486,94.56709
1.4583162,100.817986
1.5127282,105.68734
1.5687909,106.30529
1.5769645,111.08745
1.6075562,105.90887
1.6027843,109.416374
1.6868105,114.82472
1.6523155,117.12859
1.7063631,120.27772
1.7287462,122.41926
1.7628137,125.75831
1.8330083,126.5078
1.7860905,130.24478
1.7726649,121.39007
1.8379894,127.83646
1.8010901,129.96094
1.876341,131.17033
1.7200679,134.43803
1.7744876,132.6415
1.6906621,131.13022
1.821802,135.72179
1.6904927,140.24939
1.7213092,134.4609
1.649975,136.73506
1.841458,135.78064
1.7033756,133.13716
1.7605633,135.18251
1.6225728,128.87457
1.5278969,131.24173
1.5274237,129.89334
1.4917275,131.85547
1.5468591,131.24835
1.6045979,126.86691
1.3729148,126.31312
1.3568374,125.31192
1.4190613,125.06124
1.3422028,121.43484
1.3294897,118.68039
1.343273,121.73491
1.193756,118.77641
1.2332395,116.582016
1.305997,117.20153
1.3170753,111.045135
1.3039522,115.30586
1.2298015,116.93971
1.2555352,107.67519
1.2435496,104.25441
1.2728096,108.38608
1.1849645,103.694305
1.0172081,98.50411
1.1548247,101.96676
1.1495862,99.48744
1.1982777,97.04298
1.1018231,96.89319
1.0695171,94.36735
1.0426726,99.50199
0.94190615,93.241356
1.0678588,90.523186
1.119481,86.56856
0.9439391,89.0261
0.75412077,82.87516
0.87071496,81.44488
0.7625536,83.55358
0.77270395,80.0144
0.7698303,78.55288
0.83823997,76.6589
0.6276117,77.29103
0.79776585,74.723305
0.68099314,71.43332
0.62996393,67.99521
0.64054435,70.35624
0.61541903,70.65944
0.58289945,66.74717
0.53075665,61.271545
0.5898067,63.861633
0.5556155,62.15633
0.56392777,61.915874
0.41850013,60.597427
0.5346277,56.585392
0.37653005,56.387257
0.3974716,56.975296
0.48699924,54.4012
0.43839473,54.146637
0.36668378,54.42415
0.39909053,51.24793
0.41476014,48.467606
0.40969527,48.158836
0.45207742,45.318348
0.22865878,51.242153
0.41837493,51.208694
0.34183806,49.420624
0.3604792,46.67911
0.18563545,47.64443
0.18628089,52.9683
-0.0012647941,51.67695
0.16329065,50.293808
0.15848479,48.951847
0.019519879,50.998985
0.14982231,52.043465
0.050652016,50.663982
0.094430864,56.53575
0.1631888,57.00028
0.14171752,61.386692
0.03964091,61.9973
0.24097358,66.958855
0.21270768,67.19806
0.34360838,73.91466
0.41352746,71.14089
0.5112591,71.634155
0.3810175,74.13357
0.48194653,78.60978
0.59743315,83.28451
0.6135022,79.83652
0.6829586,87.07733
0.87761754,92.14247
0.8551938,96.24473
0.95606863,94.0564
1.0739946,99.57073
1.1211594,100.28932
1.1187614,104.3101
1.153597,106.55623
1.1396792,111.293465
1.1244761,111.749016
1.2595831,113.42208
1.1707628,118.81458
1.291851,121.11266
1.4381356,124.856995
1.4345021,121.595795
1.4393667,123.733185
1.3990078,128.38255
1.345854,133.66057
1.3704054,131.2304
1.3711152,135.18416
1.4819926,133.27007
1.492502,133.27972
1.3520234,140.63055
1.467122,134.91751
1.3814542,136.48033
1.3051592,135.13428
1.4190931,135.6198
1.3746883,137.9011
1.3222198,132.5219
1.2840233,133.2175
1.18186,132.48322
1.2941861,133.29709
1.2761903,134.16907
1.1759675,131.73422
1.1983683,131.19824
1.1197239,129.65764
1.2159337,125.50128
1.1480826,129.12402
1.1183039,122.97798
1.0007809,121.10965
1.0681044,122.2273
1.050715,119.512634
1.0091269,121.50205
1.033429,119.69204
0.9056624,115.27644
0.94721466,115.21878
0.90788996,115.64954
0.9913049,110.365074
0.91004413,108.90457
0.9831225,106.476036
0.91534114,107.05769
0.8693974,106.77276
0.9329705,101.77908
0.9324846,103.58198
0.85952073,103.13621
0.9222272,97.85944
0.902953,101.63015
0.87882364,95.06055
0.72133785,92.31885
0.68660825,96.486664
0.7979145,91.41199
0.7040509,91.50396
0.66358876,85.505066
0.57543045,87.48203
0.6974781,84.645
0.6266937,85.24644
0.6001662,79.4545
0.55886114,82.022675
0.65136564,78.28294
0.47241387,76.307205
0.4454117,77.45481
0.36166784,72.901146
0.3779722,70.63794
0.4872055,72.66175
0.43576717,68.05438
0.34509343,70.21185
0.34515822,66.94969
0.28630573,62.912125
0.36052042,62.995808
0.21220773,60.09321
0.4055531,61.588833
0.43070877,59.425564
0.27497452,59.562077
0.26320538,55.207855
0.27427873,54.356297
0.4124614,52.180786
0.32252607,51.62044
0.3318624,50.476467
0.32729533,51.476143
0.19252403,48.892487
0.32005244,45.60845
0.21077034,44.73119
0.18284431,47.145596
0.16022219,48.683155
0.200936,48.41638
0.052605726,48.31964
0.10067052,49.977245
0.023190204,50.770733
0.042904343,47.606678
-0.03518272,50.5407
0.032322813,52.32758
-0.09705146,52.28879
0.04950103,52.46029
-0.058206398,57.730434
0.029469602,58.807236
-0.04027884,54.47342
0.12701644,58.423935
0.16724017,58.81311
0.20085786,58.509377
0.2096334,64.738525
0.12370547,68.64268
0.13462152,70.811516
0.3689367,76.90137
0.45294914,72.98823
0.40781185,79.01846
0.47861418,81.25407
0.667847,84.546715
0.70223665,84.24118
0.8275124,88.537834
0.86702675,92.887405
0.94807947,97.24334
0.9683596,99.611946
0.9794166,104.28574
1.1028864,102.65065
1.2107221,108.63963
1.2235894,108.292755
1.2609673,111.51997
1.2974465,114.81436
1.4510916,117.54239
1.3559364,116.51513
1.4724047,122.02197
1.5032583,123.504745
1.5072926,122.90471
1.4399753,126.84607
1.381942,128.86098
1.4482509,129.72316
1.5077838,130.95212
1.4324752,132.35454
1.4719748,131.54817
1.5939038,133.21034
1.4470439,133.69931
1.4545561,132.99384
1.6067857,131.16225
1.539854,135.40048
1.5429313,129.1366
1.3391898,134.8962
1.4326894,133.31755
1.4471915,131.2219
1.4538566,132.34299
1.4014333,132.6567
1.4077611,130.98347
1.339515,129.42418
1.2546467,131.87508
1.3155923,127.61496
1.3166609,128.79099
1.2299446,124.75261
1.1641439,126.13874
1.1772673,121.0351
1.2591374,123.10254
1.2222562,122.7376
1.1204189,120.37023
1.2936668,116.504555
1.24446,116.53107
1.1770682,116.47589
1.2051424,112.31374
1.0653106,107.92503
1.1377771,112.21825
1.1951658,107.526115
1.1186055,108.69723
1.1056752,105.34149
1.1366014,100.06002
1.1844288,101.25121
1.010271,102.22584
1.1390592,98.91533
1.1454989,98.488525
1.1074474,96.29983
0.9622887,91.447784
0.8995575,93.63031
1.0639375,92.27228
0.8921664,91.21747
0.910973,88.03494
0.9222893,85.66756
0.9236021,81.93933
0.7821725,82.600136
0.8750532,80.67373
0.7651031,81.382996
0.85906285,75.49901
0.5757998,74.84542
0.70515716,75.2261
0.64484763,72.720634
0.6480127,74.247314
0.6861968,69.67897
0.6268705,65.96491
0.63433915,67.57022
0.66977096,62.155193
0.57274675,63.884865
0.62785155,63.29122
0.68349177,60.300903
0.63017625,62.044884
0.6939481,53.983185
0.6262438,55.865044
0.64181817,56.83593
0.70150024,55.215885
0.7145935,55.647575
0.738532,54.2051
0.61255157,52.431664
0.6321422,46.720436
0.6912046,51.833046
0.6766093,52.854984
0.6541273,49.44811
0.59157324,49.567974
0.57682264,51.828026
0.5100115,45.84808
0.4593916,47.48489
0.40410092,47.48842
0.38804933,47.37379
0.31638134,48.687664
0.3224174,51.336292
0.3789021,54.75891
0.32909888,51.002113
0.3839507,52.569633
0.34441355,57.358387
0.45749062,58.437157
0.3190245,58.480854
0.4439719,59.261547
0.42871296,62.181107
0.4789912,68.47184
0.57800794,69.03544
0.6342741,70.42764
0.683717,68.725464
0.84873515,74.85703
0.99483836,79.86232
0.87395394,78.51767
1.0290785,77.95675
1.0492878,83.21477
1.1942569,91.83655
1.1497264,93.27695
1.2932549,94.976425
1.3088624,95.8805
1.3744928,100.6137
1.4672829,103.08305
1.549051,110.83159
1.6614093,108.61638
1.5631747,114.537384
1.6470903,114.78665
1.6042206,114.39165
1.6796573,117.88938
1.8926704,118.283615
1.7469354,119.99352
1.8605083,127.294586
1.8724338,124.05831
1.761828,128.70786
1.8951995,131.07925
1.8129067,130.13132
1.9739512,133.55396
1.9053953,132.16469
1.9100746,135.10335
1.966857,136.42595
1.9554724,135.14337
1.9531336,136.37962
1.7856438,133.94563
1.8353564,136.74812
1.8444628,132.44542
1.7923329,135.86363
1.8328387,134.17253
1.7598461,136.4256
1.8823264,134.51913
1.8075113,133.7208
1.7405136,128.72282
1.7846569,131.81029
1.7465105,124.42215
1.6737885,128.11963
1.6330918,126.19254
1.6403091,125.627426
1.6418756,125.554016
1.626329,123.07296
1.4837098,121.67004
1.5099088,119.11453
1.5550731,117.76488
1.5215099,113.781525
1.5442775,117.15947
1.5472611,113.32834
1.5312257,110.51431
1.5119042,106.77978
1.4627463,107.25595
1.4830133,109.17156
1.4923017,107.79261
1.4464889,105.72046
1.3802403,101.19035
1.5439445,98.917816
1.5653315,101.88491
1.5478452,100.6466
1.4051613,92.425804
1.3933939,93.06649
1.3564534,92.45655
1.2358732,91.8149
1.2159412,90.06855
1.2937273,87.26362
1.1927971,87.48442
1.1260864,79.7425
1.2444223,82.25406
1.1605865,80.5556
1.1658118,78.01019
1.0223647,78.75005
0.9602546,77.66159
1.0053787,74.6832
0.99764335,75.33818
0.93125135,69.90963
0.99414784,71.79394
0.9160565,68.90048
0.9891373,68.95233
1.0064068,69.39965
0.93780166,62.98382
0.94216263,64.16223
0.8876989,61.602455
0.99023616,60.095505
0.91974825,58.23768
0.90912247,57.591755
0.8998544,59.02762
0.89113766,57.85276
0.9402336,50.998344
0.8374898,52.53289
0.8896994,48.343792
0.8907384,49.422157
0.87791455,52.546158
0.7434623,50.510925
0.77463305,50.55983
0.7514243,50.632057
0.70642483,47.099598
0.88920915,48.623882
0.71404684,46.8612
0.7161931,50.036797
0.64396566,46.616753
0.582022,51.048447
0.5345305,51.89378
0.5499717,50.33398
0.5347041,51.962143
0.5547044,54.79451
0.52160233,55.84446
0.5320251,59.749916
0.61088794,60.805885
0.67840916,61.47534
0.60486203,62.863155
0.6529717,64.97159
0.6490364,67.03086
0.7585864,67.990204
0.7289574,72.27636
0.8685317,72.2749
0.97560024,76.96534
0.96571237,78.453064
1.1324618,84.52731
1.0666337,85.22758
1.2737039,85.60369
1.27576,92.742004
1.3452276,94.38474
1.518987,97.294945
1.4871908,98.90317
1.4734694,104.802574
1.5031296,107.35095
1.6901695,107.282845
1.6756294,112.65367
1.8035777,111.93014
1.7937729,115.50551
1.7058215,116.595924
1.8264407,120.14888
1.9001849,123.277534
1.8992074,125.118744
1.9177299,126.053185
1.8918002,127.11187
1.885631,125.88978
1.8883696,131.55043
1.8816893,131.03845
1.8890432,133.08173
1.8935461,133.9163
1.8606466,134.01103
1.8283749,135.50552
1.9065762,137.11546
1.7818519,133.90517
1.7843913,138.07918
1.8830596,131.23964
1.8315513,134.84973
1.7565455,131.24503
1.7860184,133.62733
1.740436,131.49406
1.6761045,132.4626
1.5844232,130.04404
1.6855918,128.94894
1.5588269,127.32346
1.719494,127.12452
1.5688068,127.17054
1.5360767,127.9806
1.5341215,121.131355
1.5368553,120.94986
1.4887062,121.13985
1.4622216,119.62347
1.404281,119.38417
1.4298804,116.0919
1.2997009,114.08958
1.412918,112.97474
1.2646427,113.252525
1.4038173,109.992096
1.2997464,107.794495
1.3804605,107.9291
1.3881092,103.44132
1.2748432,103.76025
1.2631258,100.21984
1.2738355,102.880455
1.2422714,98.22896
1.1303579,95.05094
1.2204634,95.71832
1.2093787,96.512825
1.1001999,94.335396
1.2619565,95.02602
1.1369375,89.07672
1.1117209,84.75522
1.0175364,89.209305
1.0602562,83.98681
0.8877879,88.17647
0.87977064,80.83063
1.0009707,77.932365
0.81265676,75.36785
0.8177409,76.34684
0.8396791,77.23335
0.7823838,73.86192
0.6490199,72.23923
0.72009665,70.5763
0.75597584,73.223274
0.71869224,66.23785
0.6602294,61.443604
0.6618719,65.34654
0.6498808,64.04537
0.6581081,60.924896
0.71698165,60.16314
0.55785626,57.25111
0.6681494,58.274403
0.6943325,54.694508
0.61226064,53.615055
0.5872532,51.850212
0.596803,52.766605
0.6771162,50.41836
0.5080174,49.655796
0.60465676,48.66526
0.56463987,49.659676
0.6659991,49.028915
0.4666197,49.660202
0.4704115,49.2442
0.3403053,48.09344
0.27659312,50.577236
0.23994115,43.426945
0.2961497,49.49155
0.3001599,49.920605
0.29910758,51.783535
0.2534385,48.899998
0.11666595,53.865696
0.12582603,52.24932
0.16766834,59.468826
0.116501436,55.35686
0.2096421,58.944233
0.21964161,62.690342
0.297243,62.918255
0.21973205,62.14607
0.29357055,67.55595
0.5289206,69.69087
0.4509302,75.77697
0.5156905,76.50625
0.67686546,76.31989
0.5746205,83.11767
0.6638009,83.002106
0.7576009,86.767334
0.822425,88.348564
0.89973795,90.22821
1.0265769,90.73467
1.078864,97.18593
1.1254746,101.63317
1.1697968,105.58065
1.22997,105.82744
1.2783413,107.16887
1.3257765,111.50018
1.2606691,113.82591
1.3840919,117.21201
1.3675345,117.434875
1.4390277,122.22727
1.4262159,125.00097
1.3875974,122.94213
1.525585,126.004326
1.4464734,126.02105
1.4948162,127.6337
1.5803974,131.57631
1.48459,130.87662
1.5147176,130.7472
1.4053576,133.68369
1.4320917,133.03596
1.440616,132.96486
1.5737537,133.95633
1.3775238,135.3119
1.5196961,138.3266
1.4465033,135.87912
1.5064917,133.31538
1.2973809,130.04465
1.3333511,131.71689
1.3401022,131.09431
1.26569,133.51207
1.2662059,126.49575
1.2387061,130.82253
1.1688478,128.46257
1.3055607,126.85625
1.1540895,125.69355
1.221848,123.34368
1.1584703,127.0191
1.113201,125.837006
1.0115676,122.81359
1.01622,118.95345
1.1140068,117.83516
0.9967169,114.5366
1.0621318,117.486084
0.99354273,115.34439
0.98396945,108.964
0.9343751,108.48591
0.9704695,110.23518
0.9473863,106.20007
0.936279,105.49824
0.8225132,102.43278
0.9451693,102.54697
0.90813804,102.62972
0.9229341,100.123184
0.8065735,100.66147
0.8263213,90.87005
0.91218996,93.97191
0.6997358,92.31568
0.68242615,90.23993
0.8414898,87.90876
0.70343214,86.40758
0.6997352,83.656906
0.64560425,89.00613
0.63560474,84.94689
0.5515732,82.01601
0.5683444,82.06164
0.49969986,79.66701
0.48447117,78.0051
0.48222592,81.81739
0.43325707,73.26404
0.48980197,71.85035
0.40045896,71.753044
0.299551,67.07835
0.47176054,66.32533
0.27157536,61.51251
0.33364528,66.85431
0.427088,64.96334
0.3309805,56.801346
0.2338766,58.88948
0.3759024,58.711826
0.35862735,62.93609
0.3526591,57.139458
0.3533341,51.71398
0.3205845,50.650513
0.32827964,53.78585
0.1683417,53.613575
0.18911807,47.67797
0.3456593,49.31084
0.22108324,53.050392
0.17815538,48.90916
0.19697274,52.565662
0.16520512,49.374443
0.07003059,48.93557
0.1364255,48.095104
0.021739691,46.91031
-0.0109447995,53.069637
0.10489623,48.772087
0.046966724,51.08104
0.038223308,50.856003
-0.06204391,53.442913
-0.11323935,51.731377
-0.09978905,55.058987
-0.016959421,52.529366
0.06750697,57.31717
-0.032276798,54.823593
-0.015326504,61.46709
0.035696983,62.982586
0.15835144,64.88785
0.15839228,67.541954
0.2720429,71.49888
0.35596484,70.63889
0.37515256,79.73602
0.41954195,79.05596
0.5479088,82.263504
0.5473264,86.61899
0.7265327,86.94472
0.6517847,88.64536
0.76999104,95.26072
0.9062366,95.65711
0.9075431,98.24352
1.0228344,100.81288
1.0237089,102.6103
1.1597162,108.59973
1.1328813,109.259
1.120852,110.73664
1.2275406,116.345985
1.2569753,119.60542
1.2645308,119.25546
1.2549443,122.09738
1.4337898,124.77636
1.3977902,125.35362
1.3668151,125.79447
1.3911196,131.76259
1.4715661,130.38818
1.4042857,130.4496
1.318461,134.85114
1.4255582,133.5069
1.4446976,132.93118
1.3611343,132.69728
1.3324493,132.08653
1.410072,131.25105
1.3439053,134.01118
1.3989491,134.48091
1.3370379,132.52779
1.3348073,133.90184
1.3838913,130.26567
1.2083246,132.6263
1.3254533,132.87357
1.2220672,133.42726
1.1806957,129.17155
1.2142134,130.87437
1.2957244,128.55515
1.1759374,123.6671
1.1020244,126.86592
1.1271435,121.780174
1.1201999,121.9959
1.0184675,122.01343
1.1327221,119.12607
1.0069869,122.66133
1.1095145,115.40683
1.0649822,116.08306
1.0085609,114.57959
0.9429656,113.497055
1.0069463,109.42929
1.0428786,112.50998
0.9832394,111.159
1.0126387,107.64786
0.9877906,99.84367
0.8125566,99.34745
0.9654113,100.48574
0.99693614,100.61544
1.0548904,97.486595
1.1470637,100.88349
0.92003083,93.83547
0.8821102,91.18847
0.9444525,88.685234
0.8523849,87.95778
0.8374243,87.1611
0.8281262,83.3512
0.6439234,83.93805
0.81758875,80.48311
0.7890568,81.79584
0.65487576,79.5259
0.70463216,79.24819
0.6797918,79.4442
0.7223647,80.15242
0.55892664,73.038155
0.53152114,71.74943
0.5242028,72.13915
0.47706094,71.87881
0.5698132,66.45503
0.58432955,66.19658
0.515616,62.079193
0.5772193,64.57822
0.5552905,64.2659
0.6271968,59.562828
0.56432724,58.314316
0.47106558,58.604126
0.4519966,55.592064
0.45237565,54.14289
0.6495262,54.766544
0.63838744,54.611614
0.42679164,48.57367
0.55057347,49.29171
0.5552561,50.466637
0.4932831,51.316853
0.5231492,53.210583
0.40238893,47.084213
0.4060165,49.152374
0.37943786,46.442753
0.39119634,47.622227
0.37238115,48.90632
0.33826312,48.10292
0.25792295,49.573666
0.34209302,51.54138
0.1897487,52.662758
0.21816558,51.218807
0.28755867,52.15846
0.40218,54.850346
0.2678591,55.152573
0.3241586,61.38801
0.3192345,61.00152
0.30553433,59.670273
0.33414,63.814495
0.45962042,66.84432
0.44149864,68.17818
0.5756717,68.18595
0.59434974,74.49082
0.6467625,74.37876
0.8138145,78.967476
0.8074248,82.608955
0.95487666,85.03915
1.0379562,87.70362
1.0381267,92.94726
1.1146064,92.008026
1.2262152,93.84735
1.2020794,99.90765
1.4388279,99.068985
1.4282072,105.74582
1.4401737,106.3588
1.4189569,111.676216
1.4760405,114.62005
1.6547713,113.738235
1.7302214,113.02617
1.7512736,118.53098
1.7174664,118.71748
1.6601353,127.361176
1.8069189,125.738144
1.6665177,124.66871
1.7055303,124.722496
1.7690998,131.42827
1.7886859,134.65854
1.7503175,134.28947
1.8716159,130.67569
1.7871867,135.42628
1.7577934,134.70763
1.769253,131.10104
1.8208855,134.98802
1.8237302,136.56635
1.8288013,136.88593
1.8230158,132.99628
1.7683706,133.11201
1.8007598,133.78871
1.6297061,137.40326
1.70946,134.59192
1.5712281,132.6422
1.7404788,131.67334
1.6253374,126.985596
1.4999332,124.01442
1.5221653,131.0361
1.555255,126.63839
1.5704002,123.94808
1.591648,122.599075
1.6000137,121.201294
1.6057949,117.73813
1.5606765,116.92351
1.4913512,116.49661
1.3836504,114.82949
1.4369811,116.74554
1.3551193,110.78007
1.3525364,113.41135
1.5091712,107.64432
1.4967185,110.33492
1.4311405,106.18201
1.3526382,102.1313
1.4307462,101.9693
1.3991526,102.80074
1.3459345,100.59215
1.3358276,99.632484
1.4441874,93.99167
1.3744316,94.28736
1.3782268,95.08914
1.30094,93.07734
1.3701292,92.69561
1.21235,88.664185
1.1994836,87.543724
1.2444899,85.90126
1.107851,84.6626
1.1711347,82.659546
1.2366872,82.75045
1.0796626,78.418205
1.068654,77.36975
1.0701405,74.85655
1.0228447,78.376396
0.9754389,74.4677
0.92595804,72.78114
0.9273056,67.36931
0.9548614,64.56656
0.83927315,64.75253
0.8538377,62.01484
0.7843889,62.56228
0.9518577,65.796295
0.8869324,59.47201
0.8502148,58.967827
0.8626691,55.833073
0.9631056,56.337196
0.857178,52.37327
0.8261015,55.965008
1.007237,51.46121
0.9522202,52.804413
0.8548236,49.205597
0.77641284,49.786503
0.85434425,47.480568
0.7684227,47.75983
0.78466,48.464336
0.65481967,46.465363
0.8069247,52.952797
0.7083971,48.742023
0.6617856,43.031147
0.7024946,48.39112
0.670957,50.266243
0.59906006,50.17195
0.6187456,55.100494
0.48950854,54.36272
0.4638152,50.70495
0.62575823,56.91387
0.57567626,54.73775
0.5274579,57.994083
0.62452036,56.747425
0.65081567,59.404198
0.6067389,62.698055
0.85514146,63.361282
0.7684245,71.60448
0.86697316,69.82113
0.8026082,71.456
0.9203385,77.15058
0.9978021,75.64706
1.1265347,78.909325
1.192533,83.02513
1.2459092,87.235016
1.3293886,89.77769
1.4520398,92.479614
1.427119,95.00594
1.5307299,99.75226
1.5464038,101.13416
1.6204568,103.08779
1.6746461,104.23947
1.6837469,107.87176
1.7646723,112.30462
1.7975191,114.79071
1.8865019,117.731186
1.7841994,120.01332
1.9402348,117.856514
1.9719132,124.17209
1.8608294,124.68787
1.9731581,124.46209
1.9246402,127.41971
1.927932,132.18486
1.9302169,129.3118
2.0043166,128.13159
1.8946141,133.96162
2.058656,132.51067
1.9380566,132.81001
2.008945,137.52869
1.9521091,137.58887
1.9583163,138.37471
1.8338382,133.1455
1.8859066,136.13281
1.806966,132.65567
1.8984891,132.04657
1.8701421,136.66855
1.7765766,130.6105
1.8552238,133.57193
1.8061063,128.09555
1.5735108,127.16201
1.6912621,131.58693
1.640874,123.2205
1.6442155,127.31275
1.6822627,119.689514
1.594192,122.81703
1.5325557,120.88367
1.5398958,116.69288
1.4753262,119.36329
1.4815669,114.09918
1.5926682,113.7522
1.4411212,115.04025
1.395728,112.7391
1.4525125,107.80429
1.4151716,111.24101
1.3613869,109.47632
1.4017972,105.882
1.3697957,104.03721
1.5261118,101.69302
1.2649187,101.881355
1.4132986,102.46777
1.3145897,97.92333
1.3526161,97.25539
1.3306631,95.11181
1.315114,93.869514
1.2786022,95.59445
1.1739566,90.54715
1.1214436,87.163704
1.2595118,83.77142
1.1661153,88.79786
1.1185939,86.0071
0.9664169,83.53739
1.0131937,81.544
0.9732936,79.99526
0.9101824,80.07414
0.92886037,76.50515
0.8818133,71.47112
0.8988246,72.341125
0.86617947,71.19497
0.7797143,68.889114
0.8801457,69.18444
0.6471367,66.85703
0.7119007,65.689674
0.7659555,60.561066
0.7175492,65.51971
0.8087465,59.81213
0.69518703,61.33369
0.7262008,60.02542
0.6625093,55.714676
0.7247225,55.294792
0.77716863,54.233692
0.716705,49.273415
0.7814533,51.181858
0.66424906,53.93653
0.72038966,53.061855
0.5246894,48.98237
0.5669907,48.581123
0.6643133,49.821968
0.47266528,46.223606
0.6322793,47.50714
0.48671976,45.2208
0.4334438,44.20721
0.39423966,48.86125
0.40697706,45.425785
0.35866305,50.729263
0.33006334,48.795654
0.26739636,52.5974
0.35178235,52.915333
0.36052704,54.811806
0.3584884,56.67372
0.2582709,56.511124
0.3188942,59.87105
0.3077108,61.734787
0.49270713,61.896275
0.4971445,66.357666
0.32965398,68.995445
0.629765,69.18143
0.5806572,73.23233
0.69842106,74.259705
0.63218707,76.62066
0.7571638,80.84416
0.81060755,82.627884
0.78153473,86.65046
0.9391539,88.497734
1.1043984,91.434746
1.2612906,94.32328
1.1314251,95.233864
1.3190467,99.97377
1.3665665,101.91527
1.3417908,107.02285
1.3688228,109.21986
1.5240002,108.22369
1.4990348,112.26017
1.5539435,113.7264
1.4952766,117.9478
1.624892,120.0052
1.4657408,123.047356
1.5281563,126.82515
1.6944399,124.45178
1.5104588,128.36758
1.5250884,132.93019
1.5888492,130.82867
1.5871774,129.79228
1.5788009,131.77856
1.5208435,134.90465
1.5016533,132.94904
1.5526967,134.71475
1.5890149,132.1418
1.55309,130.88406
1.4712225,130.25905
1.5169662,138.02348
1.4980558,136.18898
1.474955,133.35266
1.4207654,129.96469
1.4342179,134.89406
1.3276219,128.89818
1.2844276,132.1422
1.3974352,129.47614
1.4155116,123.65627
1.2167647,129.52783
1.3350581,124.111824
1.1963013,125.07223
1.2255067,124.95952
1.1630645,120.842155
1.1759887,119.71691
1.2111282,116.74545
1.0440115,117.909164
1.132602,120.4784
1.097408,113.75308
1.17063,111.245865
1.010468,109.91061
1.0272056,108.64187
0.9984195,106.86723
1.0239571,106.79637
1.0276744,99.8066
0.9360168,102.46516
0.94720536,101.1385
0.94493073,101.378136
0.9267908,98.46253
0.7931849,94.58764
0.9473819,93.36256
0.9042306,93.74165
0.8933007,91.997925
0.7767721,93.65103
0.69673854,89.74672
0.8372897,86.97654
0.80625576,87.38015
0.61899537,85.92393
0.6003122,81.7436
0.6459109,82.325874
0.61799306,76.851
0.4872853,77.91129
0.5426961,76.17053
0.45051965,76.6445
0.42059278,77.90243
0.4294037,70.54746
0.45561606,71.95504
0.43533182,73.01951
0.27161658,68.33547
0.48376974,65.92831
0.43059778,63.850246
0.3370424,63.329563
0.43679294,65.177704
0.39747283,59.0015
0.26833498,62.05903
0.2771526,60.654476
0.20174284,52.45238
0.34146205,54.656067
0.36231062,53.09091
0.28400505,53.056084
0.36951923,53.54612
0.2541219,49.734974
0.2336674,52.05068
0.36910716,48.168617
0.3187654,44.889313
0.20477305,49.53067
0.2137273,46.336353
0.14833376,49.94289
0.036901034,48.171516
0.085877866,45.227345
0.04609951,48.011574
0.03419074,50.18067
-0.15035224,49.063065
-0.001283405,53.191418
-0.069324516,49.75075
-0.05171812,52.505898
0.060087,53.13298
-0.025702868,58.46252
0.07511368,62.432636
-0.049713552,59.829002
0.003675053,62.599106
0.14816122,63.02229
0.15725583,66.35574
0.21443455,69.42391
0.19863966,71.634766
0.2742363,74.94927
0.44543436,76.844246
0.39684844,77.00653
0.45245364,81.11924
0.70276064,83.89767
0.7393667,90.40844
0.72267765,89.98788
0.83184385,92.54961
0.79300874,98.21283
0.9349751,103.76221
1.0768921,105.93036
1.093283,109.49016
1.1863661,108.444145
1.0664582,110.18717
1.1656511,112.70832
1.1975867,118.60139
1.1862584,119.5346
1.2147332,119.22305
1.3526309,118.2778
1.2692019,124.76793
1.2425137,126.109024
1.2945721,125.03301
1.3723611,128.74663
1.203171,127.38273
1.3737823,129.96338
1.2983826,131.21861
1.3799219,131.77904
1.358783,133.354
1.3724681,135.42397
1.433076,136.55421
1.3200002,134.1562
1.3161887,137.61761
1.2833071,136.9984
1.382835,134.314
1.2311292,138.19914
1.373438,132.91647
1.2328507,134.75795
1.2097052,133.19058
1.1817106,125.16083
1.1706249,129.54205
1.1631031,132.47633
1.1736379,128.7932
1.0933485,123.47711
1.0657765,125.25464
1.0997646,126.22982
1.0620124,122.78908
0.925365,118.54883
0.94185746,119.893936
0.9661702,115.21287
1.0069425,118.068665
0.93449706,116.97307
0.8949373,113.716606
1.0279456,112.60501
0.9142484,111.27361
0.89458406,106.78842
1.0173004,106.36708
0.90714246,105.29331
0.96564305,102.28013
0.9186758,104.26713
0.8939982,102.83364
0.9911882,98.80129
0.9568501,97.25509
0.8281633,93.27926
0.8781338,95.80565
0.8430568,91.19182
0.8716521,90.4009
0.7667418,90.25934
0.7358288,88.20011
0.6225565,82.42591
0.6573531,83.782074
0.6307863,83.20612
0.64836293,78.71971
0.6120004,79.23991
0.4969477,81.4436
0.48340595,74.788376
0.48407125,78.02474
0.4897302,72.07601
0.38213468,72.11465
0.488519,68.59061
0.4572543,70.4851
0.53977287,70.08713
0.4683299,69.0331
0.37598947,65.8646
0.5175686,59.64622
0.36236188,60.61345
0.3774113,56.73395
0.4588922,61.061684
0.47777516,58.642395
0.3822058,54.356983
0.4575739,51.401394
0.46495908,53.661053
0.42623153,48.03728
0.37771872,50.719017
0.3445825,47.85239
0.41261333,51.742897
0.36999837,46.3189
0.32542354,47.00971
0.26229307,46.99112
0.31487542,46.8574
0.13910548,49.347084
0.13103454,50.792187
0.3094784,48.39386
0.20809066,51.445023
0.27247512,48.668312
0.16710885,49.52305
0.18007101,53.74205
0.12699717,51.09394
0.024478232,55.60637
0.14581044,52.254307
0.16720234,55.141468
0.1258066,58.813953
0.26076052,57.31922
0.23077497,63.63451
0.23417914,63.232796
0.39591953,66.99766
0.3857568,70.78514
0.49626413,69.30825
0.4462057,73.37486
0.5376236,77.08631
0.6939149,76.391754
0.56356275,85.44462
0.7339172,82.973465
0.99279803,86.28582
0.97853285,91.89046
0.9978818,91.94947
1.1060876,94.905876
1.1437641,99.82891
1.2851247,101.032425
1.3748274,100.90925
1.3595123,107.35063
1.3974004,107.561745
1.4450731,111.74768
1.4059577,119.05979
1.5468484,114.48877
1.5468953,119.12823
1.5407568,121.550514
1.5399628,121.68716
1.6222826,125.466866
1.6150008,128.2137
1.7118987,133.65495
1.7223897,132.06778
1.6468217,130.44356
1.6634587,132.13504
1.7038182,132.87837
1.687297,137.60757
1.6229111,137.91772
1.5979003,134.68227
1.6829709,135.05064
1.6925539,136.46866
1.6066748,135.82436
1.5884683,136.20183
1.683935,132.06227
1.5374285,139.7968
1.4938895,134.65488
1.6154904,130.60759
1.5752101,130.17265
1.521107,129.98944
1.4235481,127.48086
1.4441354,125.66328
1.391984,127.70831
1.3698771,124.9253
1.4297943,125.86162
1.4469961,128.2298
1.3877244,119.309364
1.478579,119.92148
1.3475938,124.31074
1.3895557,115.821686
1.3224874,113.506226
1.3073833,118.000885
1.3838183,114.182014
1.4102727,114.574234
1.4518374,108.86284
1.3278884,107.50651
1.3081768,105.536125
1.2445457,102.140625
1.2664922,102.72727
1.3250113,98.662735
1.33792,96.18909
1.25241,99.85811
1.2756468,98.161865
1.2466022,90.67646
1.2379295,88.95275
1.1797411,90.76886
1.1786703,90.0856
1.1400435,95.5277
1.0487332,88.37201
1.1447691,87.27045
1.0454091,86.7024
1.0331546,83.77617
0.93979114,84.29338
1.1001433,78.23611
1.0546976,74.3989
0.95451593,76.808235
0.94455796,78.38105
0.92574936,73.84031
0.8353792,70.573746
0.8329805,68.18085
0.7885192,68.03882
0.87679446,68.78559
0.78989893,64.96171
0.79948,64.76387
0.9101479,61.952454
0.7910701,56.284843
0.8836156,58.474648
0.81089103,57.51604
0.9417924,57.846535
0.87026215,58.305046
0.75914603,56.894234
0.8709307,51.144
0.8538942,50.541958
0.8430302,51.84286
0.7399299,50.900463
0.8181411,52.10038
0.7285242,50.780727
0.6587682,47.91594
0.63108605,48.80228
0.62092155,48.2513
0.6718621,47.73253
0.5837597,48.71958
0.5578298,49.03212
0.5312325,46.746418
0.5443219,47.915386
0.57273936,50.183804
0.56133723,52.669277
0.4287671,55.414337
0.4888674,55.942142
0.455007,54.40835
0.47119933,57.810772
0.5273929,60.05987
0.6867807,60.421707
0.62327385,67.20703
0.66265476,65.68319
0.76895726,70.715866
0.893682,69.51597
0.7929636,77.25484
0.98259366,75.65387
0.9802897,80.13533
1.1216933,84.111336
1.1021535,83.60367
1.2101578,82.56733
1.4211662,88.03066
1.3188717,98.25871
1.4441652,92.45616
1.5250587,99.14969
1.5160458,101.92909
1.542096,105.16283
1.6142902,106.33775
1.6761676,110.44344
1.7655182,111.19228
1.8595816,114.2256
1.8375138,119.181694
1.7572541,119.18365
1.8178886,118.71422
1.9955542,123.67164
1.9344608,125.62867
1.9600372,128.73262
1.9892445,129.42268
2.0001714,130.32562
1.9848932,130.82101
1.9715121,131.8486
1.9225667,132.64407
1.9330046,131.02353
1.9824219,135.8672
1.9157051,133.21074
1.8725426,133.55733
1.913263,131.80089
1.9212484,131.56483
1.8667036,134.31589
1.8770871,135.608
1.7871832,133.52043
1.8190345,131.56158
1.8469585,133.90562
1.7847372,131.09836
1.8394942,130.16759
1.7610701,127.995895
1.6733701,129.9342
1.6232964,126.48044
1.6982224,125.55476
1.6357865,126.22733
1.6139416,121.93275
1.5764,118.78664
1.5705477,119.64765
1.5228887,117.55064
1.6369839,119.34189
1.6344485,115.138374
1.5675012,114.66072
1.58938,109.410095
1.5094674,112.40083
1.5104301,108.303566
1.4576719,110.95203
1.4492011,109.580864
1.475079,100.20876
1.4939235,102.14294
1.5780383,102.7891
1.5329127,97.91004
1.4846234,97.73152
1.2963203,97.257935
1.3090926,95.35394
1.3663836,96.05625
1.2614921,89.23533
1.2336333,87.308044
1.1853527,84.52123
1.2187845,89.90567
1.1970724,86.698784
1.144591,87.50915
1.1252677,81.11766
0.96905804,81.70386
1.0605748,81.60243
1.017476,79.219185
0.95354104,75.973724
0.9544681,75.49789
0.90309536,71.54724
0.9955036,72.28199
0.8447547,72.3527
0.9215698,68.66844
0.85054785,68.008675
0.9128889,64.97322
0.8323144,64.25599
0.8283512,60.603355
0.8668755,59.26601
0.8897421,58.63224
0.81818825,61.113773
0.87942445,56.60077
0.83245564,57.432518
0.8221562,51.18083
0.84314805,56.821903
0.79612714,49.647827
0.94723,49.741844
0.7491563,52.285755
0.713483,49.551067
0.8841519,50.086136
0.689281,48.900642
0.6298127,48.934784
0.7096638,44.564354
0.60872567,51.537495
0.57737017,51.90411
0.59370714,47.875294
0.63628024,53.13203
0.39868706,47.984203
0.4527977,49.341423
0.46614787,52.831993
0.40626606,45.777996
0.37798774,49.755432
0.44555226,54.84784
0.34422374,54.350483
0.5375145,58.615795
0.45343637,62.17055
0.4955186,65.38095
0.4821149,66.646965
0.65984637,66.45212
0.6517248,71.94375
0.66328996,72.682526
0.87625974,74.59527
0.8400945,75.94114
0.82187164,83.5122
0.957951,82.238335
1.0647146,82.83017
1.1451855,90.0203
1.1508899,92.71804
1.200079,96.504364
1.2930996,97.05639
1.4702544,100.48163
1.4553231,104.42725
1.4570847,108.97827
1.5441915,109.27113
1.4618818,113.188194
1.575839,113.63371
1.6800021,117.180466
1.6651293,120.26196
1.7105827,122.24697
1.6299051,121.23904
1.6506399,124.154526
1.6500164,125.48035
1.7266464,127.53494
1.637,125.59615
1.6787256,128.45221
1.6686933,132.5905
1.8782139,131.36716
1.7043788,130.83553
1.7010041,135.69907
1.6992744,134.72597
1.7809029,134.95224
1.5810623,139.33398
1.6123815,136.10612
1.5944746,138.12766
1.6147964,134.6444
1.6341954,131.00656
1.5115916,131.77094
1.5912362,132.24876
1.5638069,132.12985
1.5006564,127.70688
1.3876413,128.3327
1.4277352,130.19135
1.4599043,125.889175
1.3709,128.69441
1.2585385,123.249435
1.3392172,122.730194
1.3769414,121.31433
1.4394487,120.8242
1.1882783,117.4994
1.2119454,118.2934
1.1715574,117.83863
1.1239847,114.917496
1.2116997,112.487595
1.0956452,110.82552
1.1305084,108.438644
1.18764,105.61127
1.0362233,106.08846
1.1356958,104.56623
1.1935234,100.80478
1.0129426,102.90301
1.0866555,98.824745
1.0042285,96.78744
1.057872,97.47385
1.0015299,92.83541
1.0928096,98.59354
1.0214425,91.81085
0.92603296,93.21901
0.88786906,88.1364
0.9004871,87.75417
0.8548612,82.62708
0.65714633,83.25826
0.7753172,84.550156
0.70765334,79.47026
0.73597354,79.704865
0.6186793,79.44562
0.6293785,81.551796
0.5627735,73.671555
0.5346036,72.2025
0.62173116,72.45645
0.5523308,71.27418
0.4924291,67.38617
0.524705,65.76582
0.5270732,63.490913
0.5277294,63.599472
0.4915038,65.92618
0.45950872,61.302563
0.48470852,58.956966
0.39321375,52.861332
0.42895633,56.82866
0.29953772,59.421036
0.41595963,52.378246
0.34140122,54.414467
0.3793454,47.816837
0.3353852,51.120903
0.4241725,50.306118
0.23576157,48.178867
0.24326524,50.934837
0.18065226,49.81145
0.12744221,45.36052
0.3149853,48.5389
0.10082913,53.01511
0.28315344,49.983753
0.045108516,50.17321
0.06792037,45.652237
0.011433155,49.89464
0.07996982,49.38037
0.02213904,51.442657
0.18604006,54.57796
0.050472435,53.47977
0.09447933,54.091114
0.08062605,55.381287
0.075842686,59.15148
0.07932403,61.692513
0.0371683,62.968143
0.2853119,65.28564
0.14548841,69.396545
0.19301136,67.47289
0.25653,71.05265
0.37620726,75.46202
0.4108406,80.38407
0.417979,82.36574
0.4723781,85.36321
0.6856584,86.756874
0.6803713,92.375206
0.7842118,91.61007
0.7789392,93.83403
0.8912006,95.538414
0.9274189,101.86055
1.1295195,100.88567
1.0438268,107.95099
1.1024718,107.59156
1.2031411,110.84639
1.0824851,112.49944
1.1434083,114.54652
1.2802287,116.19136
1.2891158,123.190575
1.3030763,123.996704
1.3346117,124.50509
1.352365,124.62096
1.3600482,126.38456
1.3719447,127.91264
1.3399271,129.02766
1.3270037,134.09071
1.43955,129.11777
1.4250754,134.94844
1.3731939,134.60905
1.3356537,130.73706
1.3142204,134.24197
1.3828918,133.7084
1.2716231,135.02426
1.3577012,134.83856
1.3900341,133.04651
1.1688752,133.71126
1.3013035,133.81767
1.2802672,130.11414
1.1706634,130.39574
1.1767722,130.99046
1.2036513,132.20627
1.2165271,128.15073
1.0341,131.24689
1.1706696,126.091286
1.0446252,123.6798
0.9002629,124.33144
0.9565575,120.476456
1.1088321,118.129105
1.0929656,119.96707
0.9978054,119.635345
0.9527044,116.31502
0.8721544,117.78662
0.91727537,112.50025
0.842097,114.75581
0.97662395,110.01035
0.8952612,106.89509
0.83410317,103.09493
0.8142526,105.07188
0.87153697,98.99013
0.8673755,103.30778
0.8578533,98.358894
0.7748118,95.85826
0.78558415,99.78064
0.81427205,95.0431
0.7361613,95.731186
0.6948308,92.19772
0.67148775,94.02665
0.7215091,91.40134
0.60924894,88.38385
0.69506896,89.21923
0.62508667,85.48865
0.59413993,82.13119
0.5500286,76.51941
0.49716842,82.281555
0.5283316,74.2995
0.524196,75.72736
0.42542636,74.18545
0.41982254,72.049736
0.31926566,72.17355
0.37377948,70.482765
0.38496807,65.25428
0.31052727,66.394424
0.35406905,63.316948
0.431168,65.50715
0.40911806,62.095566
0.3487551,58.97862
0.27227816,61.692196
0.33660012,60.51557
0.34793645,57.967846
0.21926276,56.778645
0.36384183,51.766647
0.33617988,57.067184
0.36173803,51.605602
0.3349024,52.168083
0.3677289,49.263504
0.3699863,50.61156
0.21730717,47.611717
0.2250678,46.84924
0.21726336,46.855484
0.16017063,47.87033
0.121232584,47.805862
0.11094494,50.046272
0.06732565,50.38712
0.14449069,49.470646
0.010793765,48.81481
-0.008086473,51.647472
0.12820236,50.568012
-0.018869532,53.109306
0.00845379,55.343475
-0.050305627,55.239277
0.0289308,56.736492
0.12830241,56.870262
0.14865127,59.7833
0.12994373,62.377136
0.31778994,64.6865
0.22324324,68.34681
0.33549932,65.35432
0.36258036,72.25298
0.42643464,73.170876
0.4716512,76.00848
0.52398634,79.361565
0.6371259,82.09677
0.68695945,84.823784
0.8409419,83.39317
0.872835,95.33717
1.0621731,94.38935
0.9479247,97.09298
1.0874193,101.55087
1.172369,102.8711
1.2946647,105.9189
1.2817124,108.21662
1.3776438,111.48891
1.4106501,112.43838
1.3157675,118.18164
1.4347023,117.51089
1.5224983,119.80512
1.4490113,120.48709
1.5348415,124.03682
1.3866979,123.3933
1.6090549,126.26534
1.5080744,130.43953
1.6619228,129.27953
1.5348912,128.89137
1.5890572,132.59912
1.5780847,132.65637
1.4910473,134.28572
1.5828726,136.58296
1.5934118,134.97774
1.5166097,132.48187
1.5281724,136.27441
1.5485365,136.44785
1.5077792,138.02876
1.4573311,130.72108
1.5081804,137.65033
1.549613,129.08905
1.3453387,133.11827
1.3111244,132.14626
1.418287,124.9153
1.3192868,128.5643
1.3903247,128.99255
1.4014382,125.45983
1.356309,124.51664
1.3471562,122.69728
1.3086362,121.51945
1.3291154,123.41523
1.2731732,115.614944
1.2136632,119.860344
1.2452829,114.490005
1.2187502,115.46265
1.2417219,115.35728
1.202613,112.38476
1.1382278,110.01533
1.2665766,108.20408
1.2008314,106.76219
1.2367891,106.41251
1.1848933,104.0207
1.253104,101.486084
1.127841,100.01533
1.2128074,95.86609
1.0055203,96.94377
1.245509,95.06352
1.1476953,96.128334
1.1362493,89.52791
1.0595648,89.69848
1.0102818,87.00383
1.0446613,85.434845
1.0561682,87.18055
1.0452166,86.70038
0.9949905,79.859215
0.75080866,83.11866
0.86247075,80.61876
0.8794047,82.66271
0.8496617,74.566666
0.8056232,74.392685
0.67686856,72.02717
0.7004067,74.45944
0.7783808,70.83666
0.773936,69.45193
0.88065714,66.35554
0.7935439,62.86678
0.80233157,65.49694
0.77662665,62.16483
0.75026006,58.66158
0.8606671,62.335762
0.7560582,59.565132
0.76995087,57.64806
0.74402344,58.365818
0.72893554,50.42842
0.71874976,51.894123
0.74684906,54.589825
0.6537268,51.169
0.75373226,52.21804
0.72138876,48.8087
0.60468173,51.038994
0.57537884,48.718174
0.66675395,46.55271
0.49716073,50.097363
0.6405174,46.84204
0.5889577,48.31549
0.4540141,48.544003
0.5441118,46.75792
0.37828416,50.566208
0.44550353,49.855476
0.5183192,49.77795
0.35686097,53.031414
0.4779507,50.47596
0.452323,58.23097
0.5685882,58.48414
0.42861104,57.677467
0.5423511,60.509743
0.46195474,62.842453
0.5354303,65.14818
0.6065043,66.038506
0.7876906,68.24805
0.7709566,71.64242
0.80969566,71.34629
0.7893412,77.14266
0.88690037,82.55943
1.0281086,81.16892
1.0883249,85.31485
1.210357,92.69648
1.2649338,90.03637
1.4063586,95.72449
1.3580948,99.4001
1.3538673,98.29829
1.5790502,100.115845
1.6954961,105.53138
1.522444,106.66311
1.8053267,111.81393
1.7105819,113.78203
1.8201913,117.25571
1.7656814,116.522415
1.8648727,117.49389
1.9115984,123.13902
1.9385319,120.11061
1.8958827,128.45789
1.9130118,125.979904
1.9419682,128.90225
1.8737994,134.26299
1.9097886,133.60393
1.9913192,134.7801
1.9133273,132.80772
1.9527639,136.94536
1.9547923,134.93767
1.8664418,137.61176
1.8947192,135.80681
1.9315763,132.44734
1.9285997,137.8042
1.7852247,135.05028
1.8494349,135.1815
1.7863275,134.5521
1.9354159,132.18558
1.8951105,132.94
1.801057,130.25163
1.7952268,133.3355
1.7002329,128.79205
1.7628402,129.17723
1.6592296,125.13475
1.677291,126.39238
1.6198831,123.31726
1.5888098,119.270134
1.6266985,122.92413
1.5522372,121.285286
1.5468084,118.59979
1.5266722,120.805046
1.4691383,112.090805
1.5600798,112.58841
1.5782374,110.60164
1.5509814,112.27886
1.4985272,108.5178
1.5147352,108.44374
1.3950125,105.824036
1.4983622,101.48033
1.5146382,106.166695
1.4512274,98.93418
1.442844,97.090515
1.4390907,96.77106
1.3565737,96.574265
1.3349637,91.81115
1.4377112,91.48421
1.4282076,91.89993
1.3799127,88.499886
1.2733241,91.08801
1.2976811,84.32037
1.0930725,85.81721
1.0968151,86.427025
1.2511543,83.176025
1.1946009,77.91064
1.1353778,77.717186
1.1623602,80.0853
1.174377,74.64237
1.0825344,69.44572
0.95058346,70.563965
0.93965316,65.75068
0.98296773,68.77213
0.88661104,66.97624
0.9136291,66.219666
0.9906025,63.181087
0.950591,65.1016
0.8663492,64.353004
0.919115,61.20189
1.0433859,58.831253
0.9153354,57.833553
0.9704153,57.629204
0.9147952,56.46478
0.81802696,55.98836
0.76995295,50.208874
0.8624435,49.623543
0.7957323,52.717575
0.82397914,47.382153
0.8918822,50.30963
0.7726458,50.550697
0.76434034,48.649708
0.76670873,49.94188
0.6125233,50.751865
0.55629545,46.657146
0.62409085,47.898544
0.6192861,46.251213
0.51923865,48.876522
0.43902773,47.936306
0.46723536,53.03929
0.52335817,54.477806
0.56489044,52.514206
0.5456889,50.5779
0.5076474,54.535126
0.4738629,62.29331
0.52131563,59.566925
0.5484694,62.399685
0.60731936,66.098366
0.52460355,69.5472
0.7648364,70.14552
0.78887075,72.69813
0.84598583,72.509514
0.95329946,79.14628
0.9469592,78.91836
0.9988363,79.18787
1.1361672,87.23127
1.0955384,85.74387
1.2112828,91.32012
1.1771853,95.90334
1.3289287,95.93779
1.4048971,98.24468
1.4484149,100.74182
1.5668538,104.29827
1.4552331,105.61891
1.6861688,111.295006
1.5758537,113.727776
1.79579,111.54049
1.7974421,116.22017
1.7794449,117.844246
1.7325009,121.289986
1.7211939,121.3173
1.848567,123.37267
1.873895,127.807915
1.8389142,130.76497
1.8738612,130.20161
1.8689128,135.50153
1.7503866,129.7601
1.7429391,134.24318
1.8360415,133.06982
1.8843458,130.38728
1.8739507,132.84486
1.8413807,135.507
1.7149348,134.74428
1.7977062,136.31125
1.6910025,132.78067
1.6235155,131.9346
1.8289845,135.66513
1.7013656,135.79466
1.5914595,129.98416
1.6650469,131.14796
1.6180935,130.82103
1.5707347,129.47617
1.5808834,128.97873
1.49066,125.64266
1.448944,127.954414
1.487037,124.55473
1.3762145,122.21514
1.4663426,122.70438
1.3988148,120.740005
1.365215,116.14007
1.3384475,117.714
1.3352344,110.7696
1.331981,113.832535
1.2958958,110.6454
1.2118001,112.62649
1.2606082,110.56428
1.2916235,110.54738
1.321301,105.75628
1.1920929,104.93844
1.2954452,104.987335
1.1454121,99.7294
1.2408192,103.796585
1.1756555,98.648766
1.1530011,97.48844
1.196403,93.34666
1.0513144,92.53389
1.0713059,95.25441
1.1617069,88.74842
1.0261194,90.90989
0.998576,85.66276
0.9610357,83.12988
0.8481759,84.34168
0.7977413,80.90223
0.73962194,80.36144
0.803977,78.30846
0.77845293,79.97183
0.67911637,78.3428
0.68157345,73.422775
0.72789437,71.99998
0.67029345,72.47469
0.67346054,71.697105
0.6095249,67.82479
0.58380055,62.890415
0.60205483,67.33497
0.59935087,63.285583
0.6381033,59.609573
0.5892719,60.84834
0.5037954,60.93167
0.43565232,57.3197
0.59925044,55.98351
0.46791327,54.944016
0.43259093,53.809135
0.45812678,54.170692
0.49780473,51.302937
0.49731573,49.249714
0.43661195,50.11091
0.4600046,48.50237
0.39790708,46.068623
0.33105415,48.520847
0.3706397,46.2884
0.28977737,46.906925
0.2610797,48.19863
0.3011909,48.63398
0.26778832,49.71179
0.1683974,46.96909
0.20786852,50.507847
0.20018104,48.850143
0.059450127,52.7105
0.0597788,50.186028
0.09546368,55.32026
0.017434916,54.09663
0.065396346,56.455414
0.02297537,59.443844
0.17394416,61.26349
0.18719059,61.41281
0.3053504,65.67721
0.32471117,64.219765
0.2602056,70.66448
0.29825,72.56941
0.30810475,76.51281
0.48691002,78.19978
0.49669924,79.78166
0.7032545,80.91948
0.7873354,84.57919
0.82283103,89.51515
0.93230724,94.065056
0.9792437,97.08304
0.99313414,99.577446
1.0352291,100.5353
1.1239076,104.58115
1.1481512,105.0991
1.1881527,110.60608
1.2011455,108.26366
1.3256922,112.28093
1.3784945,118.684456
1.2806599,121.24265
1.4002613,122.457954
1.3870192,125.12499
1.4317155,121.882996
1.3853114,127.43638
1.5184945,132.16003
1.3991382,127.45436
1.470147,132.94275
1.42746,134.26115
1.4148754,130.54718
1.5016834,135.0477
1.4235682,132.94
1.4177237,136.74783
1.3349309,137.06935
1.3229252,138.29865
1.3480045,137.46928
1.2799423,137.92267
1.3180907,133.7965
1.2629097,132.97108
1.324122,136.7083
1.2799819,133.96356
1.3615663,132.69705
1.1296585,132.087
1.207785,127.62544
1.1188288,129.7229
1.0681713,125.39114
1.0517002,126.627754
1.1051682,121.201706
1.1280828,122.26387
1.1291525,119.818886
1.0101161,118.536865
0.91601896,118.65847
0.99457866,115.17776
1.0198984,115.94496
1.0116256,115.69566
1.0315926,111.23093
0.93186605,110.74417
0.917334,109.464294
0.9644019,107.98538
0.7968051,108.013954
0.788778,105.289375
1.0168833,103.532036
0.8569253,103.956245
0.8980217,97.76017
0.74882275,98.37692
0.870355,93.54983
0.9077413,90.78938
0.73175687,91.69961
0.7935102,93.93988
0.7256821,90.5196
0.63380474,89.60917
0.6343067,83.516365
0.596178,85.68607
0.6832069,83.427284
0.6260756,85.86039
0.42331532,77.75369
0.52831846,76.371346
0.3836379,74.809784
0.440501,75.58096
0.4709577,75.0129
0.4619494,77.74828
0.40940636,69.543106
0.41676828,71.118225
0.41924,70.88704
0.3598431,65.93441
0.22352126,64.860054
0.2507685,62.162277
0.26065877,60.1676
0.41496423,56.828903
0.32166126,60.912296
0.3737068,58.568996
0.2822809,57.210457
0.44730145,56.53949
0.38588437,56.36182
0.21094206,53.5376
0.21943934,48.290028
0.26712757,52.174038
0.20817879,52.069805
0.15031344,48.51699
0.21439055,50.0096
0.19965594,49.041622
0.06336934,49.312134
0.06385318,48.21424
0.24565858,49.247616
0.042581767,49.120888
0.092188485,50.598698
0.12922037,47.854965
-0.11114326,49.90199
-0.10423227,51.323
-0.016412629,54.407375
0.01954112,55.018738
-0.034796163,55.824562
0.046225913,57.20575
0.03152259,58.18283
0.06854362,60.125793
0.028145097,60.52922
0.21289639,63.30147
0.21945845,64.095856
0.25540134,66.61973
0.26839346,69.01826
0.2240381,76.08042
0.36506444,73.83896
0.44683695,79.57102
0.5770053,83.2115
0.5463894,84.57717
0.55130774,85.077034
0.70950276,88.818054
0.7364947,92.22597
0.84858173,93.300125
1.0749868,96.40312
0.9899652,100.79262
1.0150137,102.09125
1.0124999,104.49632
1.2075869,107.149956
1.3004907,112.23669
1.3111929,112.97072
1.2882518,117.01725
1.4060601,121.63751
1.4070659,117.79299
1.2757597,121.17863
1.4669152,126.94109
1.4052142,129.81563
1.3474351,127.96175
1.4717486,126.027435
1.5051905,131.05989
1.4751607,130.99776
1.4968385,133.75307
1.4432087,135.47008
1.4081863,132.74928
1.46551,134.0382
1.4534163,132.60062
1.2753227,136.29588
1.3840095,136.04996
1.406952,132.46321
1.2653371,133.53192
1.4162751,132.33043
1.4459715,133.54895
1.294176,130.52402
1.3620441,130.99893
1.2952166,128.78398
1.327815,131.8233
1.1881831,124.095406
1.2523673,129.64473
1.2890133,126.29673
1.3098418,123.721794
1.0890511,122.829094
1.229055,119.10427
1.2024502,119.91716
1.1414801,116.028854
1.1267133,118.580215
1.1180677,112.17241
1.0592681,111.20903
1.1260339,113.27119
1.0454813,113.54707
1.1265357,108.864716
1.0288662,109.84407
1.01568,106.381744
1.0273937,105.65744
1.0592299,103.753044
1.1238792,102.73851
1.1463116,103.689125
1.0090288,99.84803
1.0354359,98.602135
1.1256633,95.39287
1.0486507,91.217705
0.99481523,91.39364
0.95317954,91.41632
0.9288834,92.46549
1.0128157,86.99581
0.94981307,88.16856
0.81823367,81.5058
0.7617057,80.38568
0.85419023,82.47543
0.7369709,76.078705
0.844208,81.66565
0.7563911,77.22657
0.6559195,76.28135
0.6591821,70.18981
0.69760716,71.328995
0.63906497,72.64653
0.6365472,67.97718
0.61065716,67.2726
0.60078305,67.66365
0.6062018,65.01991
0.65412116,61.71375
0.53897727,58.837093
0.7492575,61.86929
0.6159354,63.54924
0.69309086,56.117085
0.6109644,54.877445
0.68867123,55.385933
0.59306175,53.86799
0.6012964,50.377407
0.48035267,50.603966
0.5998982,50.096138
0.53262264,51.35565
0.48111737,49.497944
0.45351055,48.488213
0.6211375,49.280537
0.5201993,45.901848
0.48830298,49.85208
0.4384963,46.47359
0.40318942,48.896797
0.39218402,51.015892
0.2680764,51.47071
0.30309588,50.796165
0.42081526,52.249866
0.30171108,52.749004
0.26386252,55.56192
0.37870622,56.229256
0.23081462,55.016838
0.42434844,59.530205
0.5229708,60.1459
0.33022377,60.70003
0.54422975,64.746445
0.54341596,68.69681
0.6638946,63.62454
0.67309076,73.52534
0.7404835,75.0594
0.79324484,74.699455
0.95348495,80.64461
0.86575854,85.395386
1.0690417,82.208855
1.1347958,85.643135
1.0622389,92.50226
1.4640476,95.05658
1.3307018,93.646904
1.2926774,99.09909
1.4891486,106.535675
1.538689,99.95223
1.5691417,111.34621
1.6060392,109.88657
1.7191911,114.64316
1.6070552,114.55802
1.768037,117.21996
1.6837182,123.34799
1.7208575,124.740524
1.6913202,122.97826
1.9059596,123.999115
1.9447871,128.95645
1.8348689,126.11938
1.7821265,130.08023
1.9242724,129.56271
1.933221,134.89133
1.822089,134.74892
1.896371,133.77591
1.8988593,133.11089
1.8993331,135.10663
1.8796154,132.92235
1.8929163,134.36557
1.7525841,133.71219
1.8533425,137.37439
1.8049977,135.73062
1.892666,131.51068
1.6937106,131.20255
1.7664367,129.70241
1.7275147,131.78929
1.6083387,127.16637
1.6125828,133.35791
1.6420118,129.61307
1.6668898,125.12883
1.5215294,124.60372
1.6690079,122.37951
1.6332097,123.56542
1.5741743,116.215485
1.5271829,120.13515
1.4689925,119.002235
1.4464422,117.08431
1.5615222,114.59501
1.5003581,113.25169
1.5085516,111.24672
1.48066,110.246925
1.5047433,107.742905
1.516222,104.12097
1.5596238,108.73096
1.434243,105.73522
1.4144197,101.540245
1.5180055,97.96754
1.5754743,99.40835
1.3717703,97.39028
1.4129639,91.74659
1.3763679,94.453575
1.255494,94.67908
1.2999048,91.775604
1.386319,88.84916
1.2180563,86.66625
1.2801365,89.73004
1.1809098,83.21581
1.2133579,81.55163
1.162939,83.13361
1.1163063,80.55387
1.1106579,79.10742
1.0319606,76.64346
0.98701763,75.34713
0.83066124,73.16753
0.97591025,73.96897
0.98947424,70.13402
0.98495084,67.24397
0.92742246,65.930405
0.9465854,66.86658
0.87974757,64.397964
0.95408875,62.96545
0.8559447,61.43355
0.98326266,57.80072
0.91615486,58.094193
0.8948396,55.77607
0.92378837,56.490837
0.90263426,50.893322
0.8834204,54.042862
1.0159788,51.578983
0.85927653,52.396557
0.8749189,48.77507
0.7150268,52.03772
0.8052704,47.352654
0.72801137,49.170013
0.7507481,48.306488
0.7142162,44.731064
0.722965,47.083836
0.7297488,47.758175
0.59449685,48.32678
0.4716495,48.89818
0.62657154,52.279087
0.49959037,47.8291
0.6593179,54.774536
0.5415438,51.30286
0.48920056,52.198936
0.56792206,55.355957
0.57702094,57.32251
0.5562647,60.82579
0.5709804,54.77926
0.64615047,63.781425
0.6280037,67.81746
0.7595572,65.55319
0.8176186,71.741325
0.8638969,71.156944
0.8445563,72.460014
0.9603093,76.853134
0.98536944,76.74071
1.0624499,80.30543
1.1698387,81.06257
1.2355587,86.42755
1.2679988,91.55447
1.359404,91.77375
1.4195726,98.62826
1.5433668,98.44835
1.511428,98.69645
1.555825,103.99896
1.760199,106.776955
1.6651,110.386894
1.7157862,111.95687
1.7865065,117.15219
1.7266642,118.92199
1.938552,118.730446
1.9077853,124.75083
1.8734139,128.3681
1.7753993,125.68335
1.8839226,128.17549
1.8892679,129.82175
1.9260955,130.43848
1.9756018,131.85608
2.0300314,134.50366
1.8599852,133.55408
1.9375852,138.26234
1.8161898,135.44286
1.9919494,133.80954
1.8977194,134.98831
1.9223427,130.07901
1.909485,137.05942
1.8357205,135.71284
1.8239784,130.8788
1.7772591,134.60614
1.8478286,131.7295
1.5732105,132.71822
1.6178375,133.07516
1.6785852,131.59114
1.6027393,128.09778
1.5657152,127.481445
1.658117,125.539375
1.6112952,125.68327
1.6000633,124.11424
1.5448178,128.03238
1.4817467,124.23843
1.521824,121.16903
1.3752823,118.04468
1.4041967,117.97163
1.488901,115.32147
1.4234772,110.733925
1.3822954,110.72014
1.4331229,107.146996
1.4311134,104.200905
1.3795792,106.1642
1.420485,108.507545
1.4333806,106.18857
1.4111686,101.60932
1.3244349,102.21554
1.3559883,98.717705
1.2758477,99.28167
1.2685608,94.91251
1.1819193,93.43731
1.1429985,90.62554
1.2071353,91.30683
1.072736,90.77631
1.0415204,88.50688
1.0907456,87.1415
1.0735108,84.24756
0.997364,86.67474
1.005068,83.72102
1.032555,81.41062
0.88144815,79.23017
0.89930195,78.30058
0.7635896,79.86929
0.8523238,69.27919
0.74527115,69.21707
0.82559204,70.30132
0.70909894,67.278496
0.6829185,62.840687
0.7327032,63.69318
0.733741,65.3019
0.67108226,65.80102
0.5839941,57.96848
0.74304205,61.45371
0.7057474,55.65451
0.6260604,57.792355
0.65974236,54.260513
0.6627814,58.116768
0.7273321,56.296818
0.6110277,54.020477
0.5834571,53.26032
0.61072487,49.641655
0.62572163,50.340263
0.59424776,47.980133
0.56711006,49.552555
0.46297216,46.795235
0.37895024,48.4151
0.42896438,51.65078
0.3424541,49.36019
0.37562928,47.114113
0.28157285,47.81604
0.34228393,48.508526
0.27866283,48.124535
0.17836577,53.442436
0.17359452,49.034607
0.27828696,55.04133
0.1271642,58.032234
0.19255759,57.80067
0.34352186,59.34621
0.3289129,61.117744
0.30060193,59.658897
0.3888603,67.261696
0.44603515,69.86622
0.41518655,67.892914
0.42259267,70.81996
0.5785574,73.487305
0.6286577,77.76761
0.7320103,78.306816
0.6528234,82.77422
0.8275064,84.373
0.901834,85.214554
0.86166406,92.941284
1.1039975,89.69335
1.0256072,97.34683
1.0945055,99.508095
1.2400573,98.53713
1.3086488,101.913445
1.3222255,107.485916
1.3806745,108.77425
1.3639613,109.24952
1.3902571,116.49977
1.491129,116.45641
1.4409593,117.35597
1.4720098,122.90156
1.6503574,122.36337
1.5050694,124.887024
1.446955,124.38311
1.490442,128.89784
1.5036974,129.38214
1.4747992,127.85598
1.5212401,133.2301
1.5176946,132.76012
1.5146552,138.22427
1.5603508,130.91336
1.434072,131.99869
1.5094233,138.51053
1.4269577,131.86682
1.5885644,135.71114
1.4272165,133.52087
1.3557733,136.0519
1.3960032,132.1655
1.3848912,130.6723
1.3058251,132.23126
1.2747946,127.647865
1.2859445,131.8939
1.2854707,128.7362
1.2345529,127.2757
1.2249925,124.349365
1.1469046,128.69019
1.2398812,124.046486
1.0106117,120.14886
1.0137514,121.93246
1.0465193,118.5036
1.0333173,119.74024
0.95776796,117.821335
1.0685189,111.76607
1.0005893,116.59237
0.88402355,114.56943
1.0433558,111.86406
0.9798504,109.42548
0.9367311,103.95098
1.0428683,108.12379
0.8234528,105.07112
0.9563929,106.37179
0.96721154,102.880905
0.8625562,98.441025
0.8862744,97.353004
0.8676561,97.30021
0.80545706,92.65642
0.82367975,88.65805
0.8419121,96.2424
0.7741703,91.551506
0.76687425,91.17715
0.5949051,87.11215
0.6856266,84.58618
0.67883795,82.68832
0.5615618,80.126205
0.59048575,82.87778
0.6725222,77.01541
0.47290155,79.02422
0.522799,77.949326
0.4850959,71.99619
0.39611566,72.81691
0.34757653,68.69313
0.4455286,67.743744
0.39435557,70.29407
0.2799663,66.79332
0.36563653,65.11714
0.3094645,67.52784
0.37070572,61.93354
0.31559038,60.8246
0.3434455,61.353138
0.31021288,57.543736
0.3588032,57.346855
0.29070985,55.429104
0.34363478,55.241096
0.34069586,53.14572
0.3012777,54.655228
0.24386603,49.656124
0.2036738,52.529747
0.25234938,47.678196
0.2054517,47.540295
0.21067603,50.862755
0.2199771,47.910473
0.16736506,49.628162
0.03280342,47.727814
0.1007244,49.348347
-0.04836034,50.639984
0.07933396,51.719185
-0.018191157,49.47916
-0.05129871,51.32956
-0.09083041,53.213074
-0.029997993,53.748283
-0.07552618,53.832085
-0.12180874,59.23202
-0.052272152,58.716946
-0.037866496,60.29427
0.11255595,58.07583
0.054945603,64.54296
0.08555609,64.44106
0.1867654,68.38134
0.16289896,68.32189
0.3684922,72.04157
0.30862755,72.644
0.42749932,77.587006
0.47047535,81.87667
0.57077396,85.565254
0.6626487,86.99319
0.7433791,88.85624
0.8049781,89.77484
0.82845896,95.406906
0.9411087,98.63189
0.9591573,105.444664
1.0997889,99.70576
1.1634744,104.75374
1.0993053,107.54641
1.3514254,109.6954
1.1877862,115.31348
1.286525,117.99881
1.1722469,121.325195
1.2328683,119.665855
1.387497,124.845856
1.2467084,120.747314
1.355821,127.825874
1.4905143,129.33287
1.3600135,127.97344
1.4054661,129.86235
1.3884745,129.82954
1.4100423,131.18889
1.3805473,133.89845
1.4938895,133.49246
1.5354395,137.19447
1.3796799,135.94841
1.464008,131.4979
1.3878751,135.57164
1.3260498,136.86359
1.3092889,135.66461
1.3175722,132.3412
1.2847605,130.4309
1.2190834,131.66649
1.2402631,128.72485
1.2589267,128.54709
1.2744741,134.21278
1.1303481,127.2968
1.1749587,126.95475
1.1414617,125.5212
1.0734817,127.68799
1.0626943,123.703545
0.99700975,122.87631
1.0283915,118.73454
1.0597229,118.20852
1.035272,119.53441
1.0681094,116.75667
1.146254,111.49006
1.0863185,113.21679
1.0339217,110.998764
1.0696915,106.39717
1.0663289,108.25325
1.0432366,105.7454
0.9335515,106.627426
1.0773729,103.590385
1.0082829,99.95297
0.9375143,97.90687
0.91900754,99.38984
0.9634457,96.72461
1.0441492,93.662674
0.8309885,93.75802
0.89369893,88.25964
0.77300936,91.441895
0.74839425,90.27187
0.92330843,89.05111
0.6033547,85.016335
0.8174652,81.79831
0.6993041,81.76863
0.53390193,82.48893
0.6076717,76.889534
0.71040636,77.91762
0.56268156,76.26539
0.694057,75.71455
0.52028215,71.31408
0.5414373,70.573425
0.5105195,66.29973
0.46229824,67.54308
0.4268988,68.53683
0.5518097,67.6213
0.5998645,64.22523
0.4843999,62.269943
0.5428302,59.214165
0.47107768,58.303314
0.50219154,57.869923
0.54496133,55.5159
0.5058006,53.33823
0.54888415,52.010387
0.49014074,51.3826
0.3821357,52.408546
0.41278154,53.558384
0.56345147,50.9998
0.4685414,47.02202
0.5061466,53.0112
0.48965013,47.967094
0.4430499,49.976685
0.3950891,45.920876
0.34602988,51.34504
0.23480965,48.73765
0.3133853,52.27895
0.34535992,51.12237
0.12782197,48.213085
0.20171548,51.62983
0.07706016,54.937172
0.21365403,51.991158
0.25552452,54.207737
0.26262948,51.241325
0.23753513,55.771976
0.41075838,58.39256
0.30810767,58.209385
0.3686389,65.15586
0.36263058,66.32579
0.45707124,69.19414
0.54641414,69.79122
0.7435055,72.64706
0.640534,74.62988
0.7844095,74.25798
0.7314192,80.667625
0.86868334,79.81489
0.9620742,82.82354
1.050293,87.75611
1.0237517,97.10223
1.1531467,98.75397
1.1663358,97.223656
1.2740328,101.15142
1.2994126,104.57227
1.4177884,109.21688
1.5100777,106.38037
1.4460373,113.78633
1.6369458,115.477715
1.5076338,117.05137
1.5757842,118.43939
1.6315204,119.19108
1.6728418,123.38233
1.6577295,126.642494
1.8131295,126.883156
1.8151128,129.08392
1.7172333,129.4773
1.7011731,130.44724
1.7935703,130.74464
1.7613429,130.21284
1.7285843,135.5892
1.6458088,132.45148
1.7382631,136.94313
1.7481025,133.33899
1.8027284,136.92516
1.7574892,132.11987
1.5276937,136.43173
1.7583147,133.5783
1.6596218,133.3191
1.7108587,134.81343
1.748571,130.35565
1.6864619,134.34529
1.761252,131.72617
1.6134868,131.12292
1.5481617,130.23355
1.5037727,123.59372
1.5700134,122.176704
1.4497716,122.13567
1.5475757,122.040306
1.4543055,121.70357
1.5359541,121.777176
1.420973,119.253494
1.4829538,115.144104
1.4503155,116.39288
1.4847571,116.39712
1.4813807,113.91574
1.5670176,108.828064
1.2564074,108.06049
1.4177598,110.980774
1.363328,106.89208
1.382984,108.06476
1.4391519,102.50034
1.3265454,100.746826
1.323176,101.6644
1.3965776,99.09744
1.2155437,97.872345
1.3567932,99.182335
1.3360865,93.96467
1.2809635,91.957954
1.2761288,89.05894
1.2734755,87.960686
1.2812982,86.891815
1.2709591,84.7968
1.0530981,83.359825
1.1364754,85.44575
1.1166731,80.184616
1.1549608,77.525246
1.0011803,77.308784
1.0288404,78.76671
0.9504715,74.26646
0.9529469,73.38286
0.95636547,70.78755
0.8372281,71.58032
0.96138173,71.462326
0.8235788,67.82618
0.9573959,65.98219
0.9928418,64.04238
0.83874816,66.75869
0.8088584,57.88836
0.8754882,55.8844
0.8952772,56.86211
0.91016644,59.244087
0.78377455,60.5033
0.89335954,55.139545
0.82122934,50.81775
0.9234175,49.265324
0.90225947,47.35376
0.85976815,49.402607
0.83324206,50.975372
0.91510004,54.00424
0.7843477,48.181225
0.7403586,45.480556
0.73132634,48.84513
0.68533075,49.51879
0.58907616,48.553864
0.6353426,51.259434
0.6132117,49.16719
0.4247688,50.13351
0.629713,50.23067
0.49883893,51.261623
0.64643884,54.80259
0.5148835,51.879154
0.6068833,57.209023
0.58419085,54.106346
0.546539,57.46389
0.6798171,62.91251
0.6781654,62.757355
0.67326444,65.25962
0.84386194,65.701675
0.82950646,68.51065
0.76279694,72.891136
0.89572,72.15886
1.0225494,74.10759
0.9754157,83.61093
1.2170942,83.0197
1.2181473,86.75498
1.217033,87.49071
1.2767372,91.72973
1.336792,96.40247
1.5811181,95.36971
1.5045944,100.64287
1.523465,103.07134
1.7177607,103.47218
1.6630094,106.83267
1.7410687,109.87424
1.7726451,112.6105
1.8537146,116.90872
1.787076,119.97643
1.8042061,118.94829
1.9524996,126.62491
1.8418365,126.52822
1.9157102,125.20087
1.953574,129.1072
1.9043643,128.99178
1.8927957,129.54166
2.0444493,132.0302
1.9810975,131.33073
2.0221126,131.60802
1.9193072,132.7608
1.9034014,137.13705
1.9243166,130.99582
1.9058336,133.82811
1.8303763,133.96143
1.9659936,138.50945
1.901121,135.63745
1.7886003,131.36627
1.759034,131.68364
1.7371737,135.10257
1.7398114,131.92184
1.7817522,131.08377
1.68179,126.21986
1.791842,131.64494
1.610806,128.34267
1.6036853,126.45565
1.6939808,127.813126
1.6446935,123.81737
1.5443039,123.80919
1.5924687,120.49457
1.5988814,120.902336
1.6435815,116.69796
1.5041635,114.374275
1.5697994,114.60096
1.5352172,114.37691
1.451617,110.986664
1.5018905,110.36049
1.5229975,107.094025
1.4580787,105.338875
1.4480917,108.72864
1.4458269,104.50811
1.4069643,98.1799
1.2675114,100.44556
1.3185002,97.39608
1.4195455,94.314674
1.395043,95.09135
1.2789329,94.43529
1.2325437,94.227196
1.2593843,91.88208
1.1171639,82.11925
1.2338791,88.939415
1.1505337,86.89462
1.0801672,84.560104
1.074751,86.88272
0.9563521,82.09344
1.0242512,78.67054
0.9891082,77.03068
1.0447897,79.461464
0.828439,75.86724
0.8402937,75.915695
0.9388481,73.03927
0.75724626,70.568756
0.8141117,69.70134
0.8624401,70.72109
0.8404401,66.831024
0.94139534,60.169163
0.7283903,61.302555
0.7399633,62.71393
0.74157125,64.975
0.8562109,57.743034
0.6503525,56.056934
0.74263906,57.874657
0.7324062,57.754765
0.80053747,55.497456
0.643545,49.937454
0.6574289,48.51942
0.6442738,52.780804
0.6511973,48.22141
0.6543001,45.749245
0.6618904,47.708714
0.6068814,48.15267
0.51857436,47.854958
0.60288393,46.21727
0.52947646,50.92467
0.47865677,45.504696
0.4067933,50.399128
0.3797333,47.504345
0.3718112,48.290638
0.3904889,48.380505
0.3555151,51.70514
0.3893339,55.699688
0.27650958,55.87856
0.21472172,53.800953
0.39587945,60.539993
0.4735786,61.14793
0.34434327,60.81411
0.32230124,66.4063
0.6213502,66.70076
0.5143511,74.20034
0.5729055,73.655594
0.6511156,74.543724
0.7668436,78.93419
0.81040835,78.73974
0.8869869,88.02658
0.9166382,88.02731
0.9905623,89.191765
1.0904499,86.91032
1.1345783,96.09612
1.2633044,97.02796
1.2763901,100.64631
1.277366,100.7079
1.4143138,110.480576
1.4746314,107.916664
1.3468986,112.54502
1.4051706,110.29623
1.5836234,117.4775
1.5566446,117.10476
1.574148,118.89064
1.6238794,119.10403
1.5104066,125.51855
1.549576,128.5517
1.6225554,124.38625
1.5692537,128.88402
1.5526656,127.48977
1.7180619,126.60905
1.6262684,129.93628
1.6057935,131.63832
1.56058,137.00688
1.6566241,131.33849
1.5925555,135.48123
1.4942983,133.60106
1.6408888,133.41554
1.6087394,139.2511
1.4902477,134.03864
1.4553158,134.44534
1.4439617,129.46431
1.3978133,128.30847
1.4511362,131.5757
1.4465175,135.35211
1.3968893,128.93575
1.3740256,130.78848
1.4227762,132.40106
1.2493453,127.84068
1.3051032,125.01851
1.0870087,122.27703
1.1866759,122.98181
1.2151489,122.10593
1.1331606,119.99951
1.1943789,117.20547
1.1144134,113.66141
1.0205772,113.15854
1.045242,116.47923
1.1456695,109.35084
0.9694879,110.59634
0.9924604,108.867355
1.0556458,102.65686
1.0687455,108.04739
0.9413366,105.39662
1.077025,101.329094
1.0594249,97.119225
0.95832527,100.543755
1.0195578,94.23874
1.0014973,93.881744
0.8767368,92.17864
0.887347,89.45541
0.8505001,87.77332
0.86848795,88.3202
0.815553,90.0841
0.778083,86.55482
0.67825735,82.61542
0.68776137,83.71326
0.61005163,84.735794
0.63218147,80.813896
0.61482763,78.045204
0.61457443,76.674866
0.5586602,74.295204
0.5362692,75.66458
0.51610786,70.192635
0.45170555,70.30754
0.3683404,67.922844
0.43670964,67.02355
0.3675552,65.67156
0.3561149,62.42529
0.48369184,65.97152
0.43586397,60.739285
0.31800136,61.428463
0.4108415,58.600006
0.44676092,56.153973
0.51291853,57.258373
0.36398888,53.46414
0.31788257,53.32019
0.3524566,54.92693
0.4351824,52.78109
0.38604307,51.576
0.18385723,52.48173
0.36469358,49.993446
0.29209623,44.735718
0.20327288,52.30673
0.16706708,52.305214
0.074237555,46.304756
0.057601962,48.766335
0.12988281,48.279808
-0.0085208025,49.850735
0.027566632,48.941486
-0.008526005,50.884445
-0.048923936,49.758614
0.011746079,54.05549
0.08825773,52.508
0.017375283,57.369495
-0.04249916,53.453777
0.10113345,59.595036
-0.087321065,60.869514
-0.07000028,66.4461
0.040839225,63.344254
0.13963568,66.19984
0.15513057,68.935196
0.31847978,67.85622
0.43779436,73.333374
0.46436566,75.75159
0.45774817,78.1414
0.41447997,83.70679
0.6445424,86.522095
0.74019516,87.31029
0.72819537,90.047935
0.810717,93.37071
0.86706364,94.01232
0.942289,100.53364
0.83627164,101.74629
1.0688506,106.849525
1.1903142,107.90911
1.1638864,111.65075
1.1967071,112.022606
1.1927247,110.47944
1.1654564,118.027885
1.312181,115.97487
1.2081779,121.94556
1.2429708,125.68891
1.2301557,123.92052
1.4070867,129.29018
1.3236916,128.14275
1.4986589,126.87999
1.3819256,126.67429
1.3436989,132.17497
1.3076512,132.60901
1.3340187,133.16005
1.301126,134.77106
1.3746893,134.52815
1.4476936,136.0174
1.3235111,134.9331
1.3768705,137.17393
1.2621515,133.07774
1.118654,134.49937
1.3459784,135.78415
1.352264,132.37636
1.170236,130.5821
1.2860322,130.83003
1.075298,128.1972
1.1064457,127.39638
1.0061495,130.80681
1.0828494,125.987724
1.0601956,125.489075
1.053463,126.54861
1.0319376,120.38756
1.013787,120.561874
1.1043656,123.22719
1.0327343,114.39905
0.98475665,120.89218
0.9441316,115.219376
0.8785438,113.867325
0.88378793,112.3295
0.88252956,110.18906
1.0044281,108.338326
0.9277593,103.95397
0.9537684,104.800186
0.97765905,107.060776
0.94287217,102.888115
0.7707501,95.91541
0.94375575,99.335205
0.8910357,105.38501
0.7276834,100.689125
0.8912213,92.719894
0.932966,93.86976
0.89091206,90.328156
0.7478351,88.85067
0.69879794,89.84412
0.745989,87.198784
0.63389856,84.9844
0.7633772,85.535866
0.48911187,80.700005
0.5994551,79.96557
0.53796935,78.86087
0.4802266,77.640724
0.5388697,75.541145
0.43242538,73.165184
0.4818489,75.83397
0.4740724,69.34408
0.35140148,70.54318
0.51248306,68.7691
0.45300922,65.56055
0.44900703,65.09699
0.4390965,62.80493
0.4962114,64.62224
0.3278179,61.079113
0.41207612,60.452187
0.40535095,51.862
0.42493525,52.375866
0.4199816,54.15265
0.43261704,54.796597
0.3986948,51.676483
0.34535056,49.573708
0.40288645,51.494102
0.42853802,52.67341
0.505828,48.765335
0.32067308,52.39627
0.25408894,49.658028
0.15447801,51.649277
0.23727584,47.730682
0.24636582,51.689114
0.23686323,49.077705
0.15674737,46.554695
0.14972088,46.752533
0.16491742,49.604504
0.234274,51.11055
0.14062555,54.422718
0.11650622,51.91628
0.09740473,54.629536
0.12919524,51.51284
0.1338297,51.36402
0.27150476,59.75251
0.24811691,61.71012
0.18790507,61.262375
0.23671855,67.09032
0.30990008,68.47727
0.4891097,71.436035
0.47838464,72.92794
0.6266427,75.87633
0.5145638,81.285065
0.68214667,79.31885
0.821339,82.22311
0.94599617,88.59104
0.89365476,89.838554
1.0126171,90.52013
1.1008989,92.80009
1.0938615,101.02454
1.1378025,100.24028
1.3011019,101.32098
1.3251112,107.91824
1.3577938,112.155495
1.3956083,113.46098
1.4362925,112.85446
1.5840757,116.65148
1.5479155,115.85672
1.5031248,118.65623
1.5997475,125.40462
1.6102846,123.71063
1.5819083,127.49459
1.6186961,129.96106
1.711718,132.96255
1.5928346,125.97964
1.7457542,129.51611
1.6698712,134.38812
1.5557574,132.7411
1.6603965,137.36931
1.6463026,134.32729
1.70035,138.51166
1.6899344,131.48065
1.5180628,135.64227
1.5789981,134.14775
1.5945464,134.07399
1.5506576,134.45749
1.5128655,131.1885
1.5133108,133.31554
1.5986992,135.01712
1.5364605,132.83397
1.4758157,126.718735
1.4721395,124.29129
1.512465,126.656975
1.4227014,126.457306
1.4195795,122.08199
1.3689114,121.937386
1.4110692,120.794975
1.4322959,122.71431
1.3423796,120.57305
1.2969301,114.99173
1.3294148,115.9117
1.2809258,113.34018
1.2615976,114.89437
1.2437614,105.55076
1.3103008,106.22724
1.3200299,108.20171
1.1954216,106.098625
1.1285784,103.69441
1.328839,103.387985
1.3243785,104.26351
1.2365569,99.97133
1.2645506,99.254715
1.2445089,99.58532
1.2404318,96.56311
1.1483879,94.30822
1.1542975,94.89086
1.0767512,90.567215
1.0889881,83.84
1.1015544,82.956215
1.1037871,86.22964
1.1228412,83.37033
0.9697646,85.07563
0.96325606,83.970055
0.9720071,77.98489
0.9716856,74.428055
0.9505327,77.85355
0.87772983,69.57518
0.875855,69.113525
