ppg,abp
1.0868298,97.4545
1.1533229,94.81181
1.1299574,103.32816
1.3232474,106.150276
1.2850245,105.81627
1.4513979,108.218704
1.4708818,109.573235
1.4749191,111.54503
1.576645,113.19948
1.7066387,117.66041
1.5673213,118.747894
1.6638678,121.01135
1.7024435,122.695496
1.6526889,124.706375
1.7190332,127.4495
1.8081592,127.68443
1.7178109,127.848465
1.668192,129.00336
1.6820933,128.49756
1.7569469,130.46178
1.722082,129.59665
1.722174,130.60939
1.6892154,132.51755
1.7441738,130.67317
1.7070901,129.57993
1.645017,128.0254
1.6189973,129.99693
1.7777692,124.56077
1.6085953,124.933235
1.6246082,128.13724
1.574551,126.85515
1.5529151,126.304474
1.5323722,122.830536
1.5245185,123.42109
1.4725562,120.66724
1.5565177,118.79406
1.4599941,117.17344
1.4813424,116.39815
1.3766056,114.594864
1.426764,113.65988
1.3550178,113.41187
1.3385912,110.70807
1.2627387,110.03802
1.3519036,105.13926
1.3923702,106.95856
1.4020976,108.219154
1.3771657,105.09156
1.2892537,100.53421
1.2678295,103.10959
1.3104198,101.357605
1.2430546,98.32626
1.329037,98.4796
1.2009554,96.27095
1.2235057,94.387856
1.164295,90.306274
1.2577269,92.78895
1.0225171,90.67769
1.1400179,90.777115
0.98899186,89.445465
1.0289474,85.17304
0.92837095,85.962814
0.93963116,79.00692
0.9432226,83.65048
0.8979093,82.92594
0.88456786,78.67271
0.8482796,76.33117
0.9053202,74.969696
0.85359174,73.150604
0.8523638,76.700676
0.8822936,73.88271
0.8698234,72.385284
0.9121064,67.82867
0.8147126,70.054634
0.892709,68.90724
0.8125968,67.64776
0.88697475,65.54548
0.85015553,62.348846
0.8035612,60.926426
0.8391299,63.319546
0.77662605,61.83218
0.6950196,62.518574
0.68064666,58.551453
0.7452163,62.625927
0.6881879,61.544796
0.637792,62.011707
0.5640343,62.019318
0.5054137,64.09947
0.4659658,63.14488
0.46017915,64.74846
0.53179693,67.339386
0.5417002,66.757645
0.5384009,62.831745
0.5715859,68.55176
0.571719,71.24093
0.5846123,70.9721
0.5932823,71.66616
0.64386314,77.703575
0.79905146,78.853195
0.8503728,79.47166
0.93256015,80.43829
0.9967064,84.79544
1.0009223,86.767525
1.2249225,92.489845
1.2580748,94.935326
1.3351465,94.21055
1.3785229,95.33362
1.4658874,101.73433
1.5258565,104.105705
1.5828786,104.67842
1.7278605,109.145966
1.7446446,113.155075
1.7930288,112.49445
1.7583562,117.97148
1.8353934,116.65808
1.8732376,118.79406
1.8935444,120.17179
1.8967817,122.41315
1.9798505,123.64434
2.0385878,127.119675
1.9750348,124.688034
2.0274463,127.752945
1.9110637,125.13675
1.9773453,129.22853
2.0139406,130.7565
1.9535958,125.41896
1.9663881,131.62816
1.9346169,131.84178
1.8170614,130.35045
1.8815012,131.38208
1.8157234,126.46498
1.8893802,125.42666
1.7630148,128.841
1.7038159,127.03287
1.7160919,124.075836
1.7443942,123.90422
1.7832023,127.17068
1.5957875,126.2886
1.629283,122.45359
1.628877,119.99662
1.5359753,119.04304
1.5737574,118.463
1.538346,116.71459
1.5497776,116.386345
1.5943677,115.85643
1.5077237,112.876495
1.5340111,112.40729
1.6028708,109.53272
1.3960747,106.72733
1.5158966,108.52053
1.4145541,109.17591
1.4102255,104.02192
1.4248408,103.92946
1.4321245,103.12486
1.3967155,98.78809
1.4084954,97.41105
1.4928249,98.24677
1.3929882,95.74597
1.2505405,91.8315
1.2546139,92.082306
1.1962345,92.89347
1.1666564,92.32317
1.1498865,89.28978
1.106888,86.01904
1.1320215,87.1569
1.0675262,85.085526
0.96522105,83.928085
1.011052,83.60299
0.91068727,78.73284
0.9114627,80.8606
0.88633,77.69952
0.82737106,75.697975
0.85073817,76.3985
0.87731916,72.70901
0.93175864,71.772736
0.9450567,73.58619
0.8928422,71.24967
0.9314182,68.74006
0.787124,67.42873
0.8227644,66.91109
0.749333,66.746506
0.9060217,64.86373
0.83924055,66.87861
0.7701119,61.2063
0.71554506,59.494465
0.69768876,63.93516
0.7404811,61.301132
0.654472,59.33507
0.5358558,60.593807
0.55507106,62.612534
0.53919506,64.058525
0.5589214,62.082783
0.5166252,63.75455
0.3518275,63.33712
0.4584582,63.04725
0.53078866,66.761795
0.4045514,69.32638
0.4117475,71.08449
0.43749747,71.72901
0.61520654,72.702354
0.6055845,71.41891
0.61903733,75.61915
0.6412669,79.06693
0.73837197,81.06492
0.82192296,84.69245
0.8651038,84.43037
0.90441704,85.72642
1.0531063,88.44886
1.1242554,91.677505
1.201926,92.96446
1.2262155,97.78743
1.3712051,98.14718
1.439143,105.51226
1.5968713,103.51767
1.4536734,108.2006
1.5546181,112.25623
1.622319,111.9385
1.6035465,112.14684
1.7172475,116.04319
1.7252461,119.27569
1.7632878,122.315796
1.7307589,124.67773
1.7916789,124.57785
1.7715255,123.772736
1.7979492,126.39645
1.7796665,126.761925
1.8290159,123.478676
1.7460351,128.62563
1.7172219,131.7505
1.6958075,128.92804
1.795647,132.09073
1.6863014,129.81093
1.7227463,133.08366
1.6976478,130.45415
1.6246961,127.66151
1.5555183,130.91788
1.5053867,127.73324
1.5991033,130.32263
1.592293,125.98459
1.4066144,123.112114
1.5156124,122.89838
1.4330268,122.84572
1.4076252,121.74683
1.4288167,121.40375
1.4182872,121.14412
1.3197181,117.47501
1.356066,117.27092
1.2789876,115.53004
1.2737669,116.71462
1.3198819,111.78675
1.2606227,111.723335
1.2289159,107.89819
1.2098156,110.28127
1.2501181,107.66894
1.1050861,102.93883
1.1186087,104.96571
1.1392305,101.87561
1.0843288,102.494736
1.1815664,100.77208
1.1369411,100.20664
1.0155703,98.19744
1.0647143,96.659996
0.9885481,97.72825
0.94040966,94.98076
0.913138,89.57081
0.8973968,91.62761
0.84160167,89.067535
0.80878884,89.10256
0.7031006,90.40035
0.7753646,85.50878
0.67243624,83.01749
0.6282276,81.91782
0.7808503,83.09746
0.55625457,78.7803
0.54887664,80.787834
0.52735215,78.724686
0.5230388,75.78403
0.52525115,76.00511
0.4242599,74.16524
0.5285179,70.1136
0.5286565,71.658195
0.41790774,68.62572
0.45153373,67.9647
0.4375265,63.99635
0.5636156,66.73134
0.48795536,65.17265
0.43479627,64.87139
0.4195691,63.032463
0.4343928,61.1758
0.39366442,62.799633
0.31548968,62.276165
0.27000335,59.560356
0.21080302,60.17219
0.2759802,59.414177
0.15257287,61.4396
0.23954394,61.253746
0.103489265,62.099194
0.15947057,63.045143
0.07964477,64.930756
-0.034005083,67.51512
0.028246101,65.70305
0.117124684,66.768715
0.15099445,72.84756
0.11327063,71.29887
0.22319849,72.40391
0.26589137,76.0377
0.27005956,76.248505
0.31941667,79.344864
0.36160335,82.55737
0.46725017,85.61636
0.52866787,86.907104
0.6439681,90.50111
0.68004835,96.19942
0.8009454,95.233505
0.9924543,94.84577
0.91923857,102.07231
0.9500624,105.11635
0.96915233,102.708115
1.1208806,107.071465
1.216433,112.54964
1.2423255,113.64457
1.2626225,114.45243
1.3641503,116.41304
1.3391398,120.10592
1.4301629,120.184715
1.4200886,122.959915
1.3897947,124.066475
1.4176129,124.918976
1.3696762,126.40449
1.4393065,131.31146
1.391602,127.816025
1.3534323,126.75604
1.3547536,131.31688
1.3595049,129.81717
1.400425,127.98374
1.4510286,133.03235
1.3798989,128.96931
1.3217299,129.36685
1.3844495,128.48297
1.2523324,128.21625
1.3067051,128.7029
1.2164919,128.11942
1.1163083,128.45847
1.1328617,125.919975
1.2718719,125.91776
1.0978224,125.499054
1.0562721,120.10606
1.0528051,124.15818
1.0762442,122.180115
0.95324737,120.07217
1.013338,119.152565
1.0367352,115.28853
0.99589515,115.108444
0.99006224,111.64056
0.88002205,111.28517
0.8794973,112.69828
0.9284395,111.54517
0.9324202,104.80079
0.9559295,107.165985
0.9446002,105.57217
0.76064163,104.63994
0.8421534,100.84399
0.8501474,99.957214
0.8589442,101.178986
0.78761506,98.369514
0.7783648,97.80547
0.7199197,93.93323
0.69236565,93.94299
0.6601988,92.41698
0.6676735,88.39479
0.60309166,88.99071
0.47888726,84.7371
0.46795818,86.80117
0.439128,84.61644
0.4466342,81.98082
0.3836386,79.48007
0.45130396,79.43056
0.35354924,79.06004
0.30409697,80.04779
0.36095035,79.31773
0.35027933,75.404335
0.38527316,76.545784
0.28833538,72.64451
0.32807472,70.234566
0.34787607,72.09397
0.31982592,70.49291
0.2600625,68.1375
0.34572652,66.46961
0.28966373,66.65781
0.3602901,63.828587
0.24908742,64.6048
0.34432626,60.553055
0.28500897,63.153755
0.21981917,62.67793
0.14771865,61.37034
0.16986088,64.25448
0.08456933,60.957092
0.016425662,62.529984
0.03161273,61.2594
-0.01965302,63.52268
0.029434483,61.223434
0.043301225,62.770924
-0.06966693,64.95467
-0.06385595,65.95733
-0.048252977,66.57428
0.03477905,67.24729
0.033808134,67.91263
-0.012773026,70.76642
0.05854143,75.10616
0.20215943,75.55847
0.23764443,79.02307
0.3086406,80.24239
0.22831424,81.33194
0.32682842,84.15953
0.41575432,84.964424
0.5369435,89.86853
0.57048655,89.16728
0.7423472,90.061646
0.74592316,94.1295
0.8888584,100.24693
1.0151639,103.59851
1.0413182,106.79573
1.043775,104.30028
1.1847107,111.710205
1.2473025,113.55303
1.251271,112.99095
1.2326584,116.60578
1.3077,117.71003
1.297141,121.29611
1.3442785,118.793106
1.3525211,123.59198
1.3876629,123.48939
1.4096543,125.371376
1.5017501,127.11931
1.4826089,128.86314
1.4263,129.95705
1.432717,131.3399
1.3853248,127.817024
1.4079345,130.83795
1.4217383,130.58122
1.3387649,130.0063
1.4799287,129.97423
1.4136086,129.79625
1.2785674,129.43648
1.3393148,128.89459
1.3123808,131.21683
1.2635633,128.59293
1.2525212,125.84411
1.2514604,124.97475
1.2646116,122.43399
1.2306759,120.87032
1.1838994,119.775444
1.22282,119.45737
1.0818464,122.663284
1.1016932,120.139694
1.0952089,116.850845
1.146799,115.628716
1.0144335,113.82156
1.0329815,112.86257
1.0681648,108.58948
1.0558351,110.82858
1.0090631,112.14282
1.0183259,105.13091
1.1016148,108.344696
1.1252625,103.76819
1.0918282,103.36366
1.0641028,103.71502
0.9801269,98.64309
0.9461596,97.58014
0.95866275,96.16322
0.84870017,96.607796
0.94698685,95.840096
0.8915075,93.95537
0.87098867,93.132416
0.87199485,90.56506
0.7293319,91.52895
0.7463233,86.40664
0.73986095,86.31564
0.62156576,84.31789
0.6526084,83.728485
0.6242557,82.240906
0.6009182,79.89205
0.57147706,79.5949
0.6074685,76.478386
0.57065004,78.87114
0.59108526,73.92145
0.46193436,73.96449
0.5469212,72.51025
0.6007158,72.09008
0.5916564,66.862
0.5635832,67.90914
0.5085858,68.89066
0.57803154,65.246475
0.589221,65.73034
0.5264583,63.520767
0.55194247,63.463837
0.5063572,64.09737
0.5116758,61.29444
0.45055854,60.384792
0.4599311,60.150455
0.38088384,60.494083
0.36665538,61.54173
0.42523998,64.85619
0.2681195,64.19199
0.2968517,64.48093
0.2493718,65.28535
0.29610178,61.051453
0.22336787,65.472466
0.28913024,68.81688
0.27830642,70.98012
0.38878313,66.26697
0.33661222,72.076645
0.33442256,77.53657
0.43421996,74.521576
0.33992377,75.35111
0.46342385,79.02706
0.6130331,83.84382
0.70267314,83.85365
0.78089106,84.8867
0.8082727,87.72759
1.0322767,90.66152
1.149999,92.33238
1.2076331,95.575005
1.2382584,99.22942
1.240903,101.210144
1.3323401,105.49265
1.3711966,107.42037
1.507676,110.17872
1.580957,108.56293
1.5967791,112.28425
1.6967338,115.21423
1.6216941,118.64876
1.7242681,120.49818
1.7247735,119.579895
1.7227123,123.30018
1.784168,122.32277
1.7874155,128.17625
1.7956733,128.92516
1.80066,125.81807
1.8579862,129.47917
1.8182336,128.50943
1.7522422,133.27434
1.8377014,130.52626
1.9026747,133.53516
1.7167693,129.0327
1.7145413,131.00508
1.6922128,126.28881
1.8051591,130.29231
1.8033164,130.8519
1.689041,126.53119
1.7178204,126.929214
1.7493418,125.77945
1.6242856,126.7732
1.5767293,124.5231
1.5924985,125.21365
1.5649246,122.194
1.5996586,119.51918
1.4996536,121.88932
1.5324609,118.46858
1.4058902,117.70578
1.4335443,115.29733
1.4663566,115.54254
1.4419743,111.92383
1.4303622,109.72275
1.3988634,112.02241
1.3933312,110.120605
1.317723,106.357635
1.442256,105.42588
1.3830595,104.36367
1.4082572,100.46701
1.2965355,101.30637
1.3882163,98.773865
1.4523411,96.7681
1.3426496,98.755974
1.3344957,93.49078
1.2614164,91.73499
1.1979773,94.357445
1.1597525,91.00871
1.1365314,90.57622
1.0710855,88.000496
1.1121217,89.04945
1.0583872,83.20447
0.9424647,87.36806
0.9665415,84.73636
0.9110838,80.62876
0.8742866,78.06032
0.9336824,81.52109
1.007262,75.99274
0.86994314,75.63678
0.91190904,75.09371
0.88077503,75.36024
0.9210272,74.933334
0.9804006,67.30493
0.9097944,69.692375
0.898623,69.916016
0.8745017,69.298195
0.85284984,66.08898
0.89919597,64.568016
0.8966723,62.74284
0.8912311,61.456013
0.79957795,60.109135
0.8007521,60.863766
0.7247569,61.85266
0.70630985,60.217445
0.7173773,62.258755
0.654529,61.02658
0.6638762,61.6105
0.6429408,63.31415
0.5443984,64.46951
0.56378794,66.00008
0.55426794,66.48684
0.54553,63.745514
0.5327946,66.47427
0.59525186,67.04886
0.56022644,71.53029
0.6162439,68.854034
0.69264215,72.7865
0.56256074,74.04105
0.7546828,77.58847
0.82141465,77.591255
0.91060203,80.76294
0.93157035,84.45522
0.9628276,85.913666
1.1220145,88.145966
1.2115633,89.800735
1.2122562,92.482864
1.3205976,98.03626
1.4340041,96.46522
1.5313246,101.39616
1.5695223,102.32111
1.5845157,106.23676
1.7247133,111.43774
1.7081139,109.91972
1.7526295,114.386925
1.7761278,117.17921
1.8697151,117.11194
1.8806975,114.65628
1.8391939,119.477905
1.9308174,120.86089
1.9593023,125.00195
1.9220902,125.453285
1.9857068,126.49192
1.9659766,130.05685
1.9333994,129.25883
2.0104008,128.69788
1.9834013,130.13066
1.8595275,124.62962
2.0163002,132.15804
2.0017416,130.11205
1.9076599,131.4842
1.8844358,128.47276
1.9199638,128.9953
1.7480102,127.20004
1.7997085,127.44294
1.7070632,124.93578
1.6974459,126.230034
1.7859992,125.866394
1.6921932,125.47334
1.6544293,124.122086
1.6664945,120.504425
1.5555727,119.29104
1.5727357,119.99669
1.57776,117.33529
1.5308355,116.82946
1.616988,115.10164
1.4957966,112.772736
1.4219227,113.538246
1.528881,113.066574
1.4174751,108.41001
1.5501461,109.46182
1.5418044,108.78806
1.4735332,105.12684
1.434323,102.42417
1.4325507,99.14326
1.4359975,100.649506
1.4069791,102.25615
1.4038606,96.67554
1.3943831,96.196884
1.2990721,97.25919
1.3182123,93.379
1.2163609,90.09037
1.1357381,92.73475
1.1513664,89.47761
1.0604942,92.82882
1.0226274,87.8574
0.9833181,84.2382
0.97219634,83.92804
0.9578347,87.48263
0.97662795,80.198425
0.91900545,80.99937
0.90025723,80.94013
0.8603242,78.91061
0.89056444,76.98431
0.85718,73.33904
0.86422217,74.67401
0.9196267,72.77385
0.7767708,72.31117
0.85570806,71.55027
0.84002334,69.19364
0.71025956,68.85765
0.76756537,65.2314
0.80358374,69.61764
0.75452286,65.28235
0.74232244,64.72709
0.7893981,62.764606
0.67742646,63.348675
0.7101293,62.934517
0.6138115,60.342316
0.62040603,63.543533
0.54498875,63.32089
0.45053732,63.11273
0.4839694,60.467102
0.49870753,63.944736
0.44801986,62.319157
0.39240295,63.611168
0.3818737,66.76642
0.39227518,66.12614
0.3511961,67.02756
0.37771872,66.66926
0.41464368,71.39349
0.39400837,69.84926
0.4652138,70.92246
0.5740335,78.80349
0.6207848,75.84377
0.6574962,80.659485
0.7344371,85.02645
0.83581114,85.13452
0.85965794,87.42541
0.9463002,89.1329
0.9718897,92.86836
1.0541186,95.55532
1.163903,96.17773
1.255604,101.01591
1.3400992,105.13576
1.3351443,103.354515
1.4028685,107.29114
1.510516,110.052185
1.6396855,112.74773
1.5577514,114.97048
1.6087794,118.43639
1.5683917,117.364716
1.6629436,122.06429
1.6555861,121.44205
1.6075854,122.85775
1.7414958,123.946655
1.6042241,126.81017
1.7827431,126.54413
1.6062661,128.1645
1.7003081,129.88005
1.6826205,130.7864
1.6452215,130.48491
1.6477973,131.06944
1.6914743,131.2915
1.5216428,128.58778
1.5963708,128.41
1.546587,129.33678
1.4892397,128.33902
1.4882177,125.20541
1.4810275,126.038345
1.4581559,125.149765
1.4316126,126.30651
1.4127777,124.37568
1.3875786,121.80744
1.3415047,122.81241
1.3285528,122.20826
1.2751458,119.30803
1.3211354,119.01083
1.0944188,117.155174
1.218506,114.573074
1.2333786,113.84788
1.2162222,114.19635
1.141129,114.44343
1.0791233,111.586555
1.2335491,109.3761
1.0551279,106.324875
1.1365002,109.958176
1.0539856,102.97927
0.97738504,103.8764
1.0382565,99.86721
1.0789975,98.61929
0.9938383,101.384705
1.0593517,96.590805
0.98605084,97.325424
0.8817078,94.24261
0.9345752,90.721245
0.862202,89.99188
0.7417325,91.88228
0.7439614,88.448235
0.73855686,86.25765
0.7912347,87.91709
0.64431447,84.978935
0.66348046,82.31806
0.5562205,82.94263
0.5667895,79.26004
0.5139833,78.61236
0.54185843,77.34199
0.4716725,74.37234
0.4285313,76.15095
0.48473606,75.23876
0.4660353,72.82046
0.39534658,69.763725
0.4909803,70.60246
0.41165298,67.6893
0.5072281,70.05745
0.48492977,66.16686
0.49550945,65.16275
0.29861185,66.45557
0.3302489,58.681183
0.36055994,64.38919
0.34879586,64.53885
0.28206754,61.355026
0.29246494,60.47787
0.3353406,61.89971
0.13844347,62.128387
0.14911455,60.717934
0.115711465,64.556076
0.09187934,61.26535
0.05136851,62.6063
0.059666492,61.823017
0.049793467,64.90042
0.015419596,69.113976
-0.022936415,68.37625
-0.012841211,69.751434
0.054346833,70.961876
0.028293442,71.91122
0.09073572,73.75195
0.16956235,76.541916
0.18684024,80.30969
0.33528945,81.95342
0.42164606,81.03358
0.40646073,82.28427
0.49184546,87.35883
0.7350123,87.44554
0.6507607,93.986824
0.886451,95.49136
0.8567863,97.30683
0.97775763,99.15289
0.9200683,103.076515
1.0263264,105.40854
1.1342359,110.30621
1.13075,111.875175
1.132898,113.96972
1.2420233,115.61825
1.2784033,118.68497
1.3070633,120.90665
1.3178079,120.992546
1.3722128,121.908455
1.3757844,122.81064
1.3564975,125.528435
1.3557132,124.44158
1.4152,130.4661
1.3366868,130.58922
1.4451641,130.74547
1.3387451,131.20505
1.3779579,131.02383
1.4417913,131.99178
1.3809539,130.76276
1.2759761,134.55261
1.3069923,131.58368
1.4265151,132.31262
1.1336051,130.30182
1.2809228,127.00945
1.2236992,128.78716
1.1751561,127.82835
1.1707162,127.00346
1.10914,126.12365
1.1307534,125.73457
1.102839,122.51699
1.117557,122.3217
1.0519023,118.28184
0.934616,120.42338
0.9483444,119.51295
0.9718881,117.30029
0.9737396,116.83916
0.92729914,114.546555
0.9982826,112.087585
0.8490942,112.17891
0.86970586,111.31806
0.9295446,108.07948
0.9478763,106.654465
0.83130664,106.828926
0.8734877,104.24253
0.7974511,102.003555
0.85605454,100.65783
0.76936215,98.62808
0.8426484,94.92807
0.7515926,96.40786
0.7260438,96.32921
0.72128624,95.89294
0.6198904,90.74741
0.5880236,92.5251
0.51421833,91.349724
0.663657,89.601395
0.5052832,84.51554
0.42142957,84.52057
0.38065243,82.15821
0.35209998,84.13859
0.41911486,80.02556
0.3640987,78.026024
0.3475764,76.724266
0.31507492,80.936264
0.33183894,74.56836
0.31856683,73.835976
0.19641909,72.79952
0.36469617,70.75022
0.40317073,70.10029
0.3896143,73.07606
0.4163842,70.136925
0.33724308,65.6752
0.35658976,66.446686
0.44860414,62.78177
0.32404923,62.624844
0.29216298,61.675022
0.21031842,66.33195
0.19935629,60.910156
0.23128875,59.4127
0.18183604,61.057457
0.18450661,61.103058
0.22533226,60.559498
0.09939465,60.542942
-0.0251681,61.746864
0.083852716,62.464172
-0.04784557,63.440006
0.026634024,66.07128
-0.026703525,70.13828
0.053771626,65.84781
-0.015855685,68.49583
0.13721219,68.73338
0.092764445,70.09112
0.12876831,71.88359
0.20595378,75.31533
0.2620838,78.30758
0.24905202,80.852104
0.27029055,82.05338
0.47494745,84.52653
0.51735836,85.20859
0.5743731,88.554436
0.74217016,92.58393
0.8162094,91.71705
0.88071334,96.38523
1.0925018,100.799515
1.0511687,100.08894
1.0877304,104.04144
1.1528125,105.66225
1.1982634,111.87179
1.2181311,112.05277
1.3272768,113.095146
1.3346034,117.31611
1.3888301,116.83083
1.3978138,117.75959
1.3921374,122.51382
1.4645855,123.0657
1.4829867,123.08766
1.5186492,124.05199
1.5275673,128.13538
1.5502455,128.33952
1.4861741,127.326324
1.5195694,130.86827
1.5418717,127.837326
1.4615948,129.17204
1.5432165,127.812294
1.3931044,134.82748
1.4722317,132.63756
1.4265666,127.83958
1.4876256,132.05695
1.4238329,129.96042
1.3139653,126.18579
1.3889157,127.34931
1.3051056,122.95239
1.3469402,125.45529
1.3161671,121.84024
1.2390051,122.83245
1.2904472,120.7797
1.2029793,122.73987
1.1854724,121.83346
1.2531655,117.212906
1.2169474,114.06191
1.1812911,112.800674
1.2166402,115.312195
1.1127871,111.3043
1.1733108,109.65997
1.1768775,109.14853
1.0733346,109.00368
1.1176512,110.78384
1.0312552,104.27441
1.1455226,102.17355
1.0933603,99.70571
1.1056678,101.19983
1.1087421,100.483246
1.0250818,97.67374
1.0693825,96.41614
1.046945,95.070885
0.9627102,95.40148
1.0062155,92.62907
0.86972123,87.10504
0.86857164,92.04682
0.793704,90.65627
0.82450217,86.46711
0.8218149,87.09543
0.741678,84.13128
0.679267,78.39682
0.71515167,81.16423
0.6550342,80.198006
0.56720406,78.44325
0.6519364,76.29459
0.672429,73.39151
0.71926033,74.10573
0.7077509,71.8411
0.69506055,69.022285
0.6765822,69.39223
0.6766834,69.478775
0.64905006,70.144646
0.71784973,69.14044
0.6317162,68.422935
0.7197545,64.68208
0.66747123,63.290363
0.6048341,62.5362
0.5901734,62.685905
0.53720397,62.16239
0.5814117,60.36464
0.5306031,60.09319
0.4167254,61.144623
0.4577935,61.68739
0.38172197,61.56405
0.38684854,63.31408
0.42482117,63.51881
0.32847148,62.590004
0.2674436,67.84796
0.33536202,67.12737
0.26491022,64.92142
0.36521128,67.925575
0.40987805,71.755104
0.43479115,74.02109
0.46598274,74.5219
0.57845825,74.3996
0.58584356,77.19269
0.6577807,83.81722
0.81861365,81.886086
0.84699374,83.23934
0.827451,87.667404
1.001839,88.98703
0.99599487,92.1249
1.2317058,94.113525
1.2047029,97.605675
1.287466,100.581635
1.4216231,100.70734
1.4668355,102.107315
1.5463549,107.2167
1.5114297,108.448074
1.5454904,111.653114
1.6891786,114.87475
1.6766875,117.42086
1.721422,119.01943
1.7145612,119.563416
1.8499166,122.19967
1.8330984,125.43565
1.903594,124.10407
1.8616757,127.36494
1.9275596,128.4762
1.798505,130.76985
1.8601576,128.77007
1.9188515,127.74671
1.8689612,129.4435
1.9361037,129.58289
1.8135799,131.75563
1.795853,128.88219
1.8510407,130.05978
1.8423843,127.68838
1.8466611,131.77612
1.7599,130.17621
1.7670604,127.84517
1.6711712,127.74762
1.7463074,127.18784
1.645095,125.56632
1.6237893,126.40791
1.6409948,121.40578
1.604315,124.016
1.4953408,118.480515
1.4987617,119.65264
1.6214247,119.86787
1.5187212,113.0416
1.4808776,112.70766
1.5076393,112.88003
1.5577034,113.27007
1.3669575,111.53164
1.4073328,109.503136
1.476489,107.33503
1.4751363,106.41297
1.5455787,103.46362
1.4587697,103.71963
1.4204258,102.78695
1.4135238,101.9679
1.4274914,100.077126
1.4160092,99.023346
1.3478601,94.88473
1.4586284,97.0644
1.2583059,94.69313
1.2559199,92.47845
1.177907,93.75764
1.2540807,90.69406
1.2234836,91.52249
1.1327033,88.25511
1.1230383,87.333145
0.9871525,85.29946
0.975841,83.60718
1.0729644,81.25091
0.98825467,81.10196
0.90943843,76.89466
0.96493214,74.69571
0.9414435,76.66323
0.903216,74.63001
0.88602656,73.03415
0.97643083,72.356964
0.96686906,72.6933
0.8596544,68.8047
0.9406534,67.15397
0.9702619,69.43839
0.91506714,64.759796
0.8408006,63.785435
0.8441266,64.83115
0.7987176,63.056686
0.8816755,62.218792
0.7930673,63.71865
0.78490645,63.10818
0.74619067,59.469193
0.73625684,62.900322
0.7604935,62.079132
0.67151767,62.506207
0.57483906,59.687744
0.599374,63.155495
0.6828161,64.03039
0.55064553,63.60866
0.55143845,63.345406
0.57587457,66.62276
0.4813016,66.48683
0.51680523,71.00825
0.58897185,71.88655
0.6508621,72.44913
0.6309613,76.41398
0.70942247,73.250496
0.73664194,77.74086
0.8734664,83.362434
0.91140544,86.01581
1.0456108,87.83218
1.1024652,92.801125
1.1325195,92.335266
1.2313368,94.00064
1.4306039,95.24877
1.478731,98.26574
1.5153735,102.06196
1.5349561,104.57619
1.5801513,106.02665
1.6815075,108.9539
1.7891011,110.41604
1.7157733,114.73428
1.8390242,114.208115
1.8319404,117.39805
1.8550451,118.89781
1.9597397,120.33684
1.9289075,124.83441
1.9968635,126.87697
1.928273,125.85099
1.9443929,126.33121
1.9194994,127.802795
2.0169802,127.08757
1.9551469,127.2306
1.9387628,132.21382
1.9088268,128.949
1.9200119,132.3137
1.9189755,131.5107
1.8561165,129.69202
1.8017366,130.58699
1.7502286,127.1011
1.7837915,129.92195
1.7888618,126.08371
1.7537093,127.715935
1.7126292,126.8394
1.6560537,125.20431
1.5924851,122.70867
1.6805607,121.504776
1.5980399,123.30537
1.534338,123.11305
1.5257727,120.98219
1.5773082,120.28677
1.4771036,118.29564
1.4729103,116.553696
1.4663472,115.40086
1.4130855,112.990074
1.4618897,112.294525
1.4202292,108.273346
1.4415705,107.41084
1.4057177,106.65485
1.3522329,105.02974
1.422288,103.865875
1.2977704,102.043335
1.3209932,103.59408
1.2797685,98.19517
1.3045124,99.509056
1.2530624,99.53736
1.1548194,94.44534
1.1373479,95.36331
1.2107598,95.357475
1.1632851,91.932045
1.1686952,88.49603
1.0692255,88.88665
1.0305243,87.131744
0.9326979,84.87159
0.94413894,87.13102
0.89957666,85.35166
0.89803743,77.769325
0.87711126,78.701485
0.84647834,77.27613
0.8405476,75.561646
0.7900184,75.646
0.69068944,75.76101
0.74066955,73.75148
0.7503268,73.632195
0.7539568,73.48923
0.7658461,71.817474
0.7904485,69.655304
0.7332458,65.14703
0.7983202,63.791176
0.7074412,66.68108
0.69571954,63.818783
0.7069344,62.722443
0.64627206,64.9401
0.6524889,60.13286
0.60841066,60.331493
0.55645746,61.478928
0.5251947,64.21976
0.48462996,59.751503
0.40847713,61.3735
0.42021695,61.03287
0.4065875,61.011814
0.25482282,65.812065
0.29953992,65.07228
0.29976845,66.607086
0.42799866,65.064766
0.32792875,68.8376
0.29798633,65.0893
0.3554475,73.54851
0.36111933,73.948555
0.3619498,74.94744
0.41638875,74.74967
0.5690349,78.87484
0.5526574,78.72858
0.68010485,83.35054
0.7746965,85.51575
0.8274525,87.79885
0.94898397,91.65678
0.9701863,93.29448
1.0704796,96.047676
1.1468449,96.20277
1.1585387,103.749
1.2553447,102.61001
1.3303933,105.66658
1.3621906,109.272545
1.4330121,110.53976
1.4032624,111.75639
1.4005216,118.804756
1.3979577,117.48783
1.5410149,121.409035
1.5886426,118.51628
1.6050268,121.692604
1.5716797,123.4977
1.6052456,125.87917
1.5836699,125.88051
1.639897,127.62816
1.5931481,125.49372
1.5061823,132.43602
1.5509195,131.72481
1.6000679,131.44601
1.5442641,127.646286
1.5252692,131.57909
1.4738026,131.07686
1.4958317,128.40347
1.4782099,130.84436
1.4903725,128.48355
1.4831666,126.08251
1.3898784,125.26347
1.4050146,127.52375
1.3256706,125.19967
1.359581,124.8951
1.1978728,124.33262
1.2216686,119.95114
1.1470114,119.96796
1.1294383,119.47527
1.1702645,116.589165
1.1964773,117.28822
1.0168322,116.30862
1.0351768,115.79378
1.0438052,113.0302
1.0744165,110.90313
1.0588878,111.43384
1.0634987,104.1802
0.995909,108.24959
1.0755196,103.68065
1.0431213,105.26093
1.0401611,103.76608
1.0006307,101.20089
1.002138,98.581245
1.0380915,97.453804
0.9412005,98.28444
0.9258939,96.6931
0.86263937,91.50778
0.8683293,94.44161
0.723226,91.30427
0.7480214,91.859726
0.84314317,87.686966
0.66981864,84.311134
0.6380742,85.80698
0.5818242,86.951
0.44769162,82.60428
0.53929204,80.30069
0.41624162,80.121284
0.47273365,78.80542
0.5633583,76.850266
0.37471092,75.19319
0.35371214,72.34884
0.33618805,70.20949
0.37987432,71.94177
0.35057005,71.35158
0.44334048,69.749275
0.37076584,69.69757
0.378638,70.22876
0.3977122,66.12902
0.396788,66.3761
0.43682703,64.96808
0.31068867,63.99102
0.26536047,62.723843
0.1654729,60.448574
0.28562987,60.312454
0.18078148,62.960026
0.0944591,61.828632
0.12558533,61.493004
0.060354378,62.971054
0.0348375,60.45784
0.015493324,61.977272
-0.0077283657,63.91896
0.01655238,64.05206
0.0004908302,63.08639
-0.06904011,66.01145
-0.09205253,68.98474
-0.02506022,73.63525
0.044009935,72.27435
-0.015417863,71.85087
0.08122022,71.06783
0.13674322,73.96931
0.18561156,80.172264
0.16893357,79.56524
0.45664755,83.01034
0.35175192,83.964615
0.4788845,85.95619
0.4787876,89.73271
0.70935905,93.4889
0.7371776,96.61469
0.779239,94.99942
0.8841458,101.78337
0.8629026,103.5773
1.0947025,104.59475
1.088742,105.46428
1.1404034,109.091064
1.2569749,109.486946
1.218296,112.83344
1.2027444,114.661606
1.2285875,119.42947
1.2779005,118.70539
1.2872653,120.61008
1.3444726,123.26789
1.4154595,126.90896
1.3052447,127.56524
1.338543,128.06206
1.396679,127.44748
1.2663026,126.88051
1.3839201,129.2015
1.3059447,128.2419
1.3267238,129.751
1.4006293,131.92894
1.3229741,129.87779
1.3184311,129.36884
1.2503486,130.90028
1.1893911,130.11678
1.2053711,129.34166
1.2220556,126.38373
1.2025737,125.862625
1.2092497,127.9469
1.2767006,127.3249
1.0845864,122.72549
1.0224475,122.95566
1.1038613,124.31829
1.0863497,117.88009
1.0129608,120.60421
0.9769144,118.485146
1.0181596,118.10948
0.8902733,114.90766
0.98646337,114.804276
0.9447856,110.17536
1.0097643,109.91162
0.9159325,108.62714
0.96821105,107.23241
0.8451705,106.76409
0.9712608,105.322685
0.9368171,106.53726
0.93126124,101.6713
0.8484466,102.52506
0.7821282,97.444214
0.847864,100.80684
0.86933345,99.35832
0.77401084,95.55333
0.71225524,94.56972
0.63433284,94.88485
0.6967392,88.81078
0.6103591,91.00196
0.6082168,87.54059
0.5345922,87.238495
0.5010347,85.55954
0.5423962,83.48768
0.4657408,83.64854
0.377663,79.071915
0.42698616,78.62242
0.42970777,75.329445
0.40384498,73.98994
0.41516763,75.42124
0.33022085,73.440636
0.35076034,74.40596
0.45675668,71.7391
0.385921,71.20301
0.34989756,69.37075
0.4011164,69.218605
0.3275672,68.63837
0.38035563,64.20804
0.4097361,65.85574
0.33161423,62.87725
0.34506464,62.343643
0.31775355,64.64705
0.23247862,61.885387
0.2566445,59.42977
0.30452487,60.39663
0.17670307,61.807934
0.26800385,60.770985
0.1456464,64.393364
0.092448905,63.283115
0.044291545,62.767704
0.026732553,62.48499
0.058643408,64.48527
0.0105237495,63.76588
0.07590966,66.61128
0.061596908,71.09763
0.10258826,69.36315
0.18198046,71.10271
0.20487589,73.25541
0.25390518,77.521645
0.37050393,78.44406
0.37902382,82.25333
0.47372165,84.238335
0.5006773,85.60413
0.5796963,86.74601
0.71661663,89.0377
0.7967624,93.18386
0.6549636,94.82103
0.91703725,100.721405
1.0231562,102.50231
1.0666049,102.601944
1.2134057,106.04002
1.2091576,108.085945
1.2944103,109.22664
1.3115755,111.97655
1.3016379,115.03093
1.3118658,117.235664
1.4986295,119.33882
1.4784037,120.74195
1.505541,122.89811
1.5944605,122.79905
1.5748107,123.64698
1.6291158,124.38029
1.5835103,128.2518
1.5710961,129.91045
1.5817943,125.71895
1.5885794,127.5303
1.4778893,129.5166
1.5221068,134.86183
1.6047218,131.02748
1.6027472,132.94994
1.5324237,129.67297
1.4715245,127.62762
1.5568438,128.51416
1.4549584,129.79169
1.5193609,130.06912
1.467301,131.02393
1.4388838,125.23494
1.5081513,122.032364
1.3147777,121.67405
1.3900691,125.69681
1.2947286,123.97746
1.3021332,122.22923
1.2080942,119.622314
1.2177078,115.908066
1.2477943,113.705574
1.2978911,114.19633
1.2891936,115.35954
1.1553878,110.29522
1.1450391,111.01816
1.1813792,110.27068
1.1996133,105.75113
1.2313235,105.10557
1.1989235,102.44944
1.1469545,105.820816
1.2056247,104.68157
1.136946,96.83696
1.1146163,102.13065
1.0601867,98.37497
1.1050498,99.61683
1.1584115,96.96784
0.9971319,94.565315
0.9988988,92.35714
1.0022731,89.981
0.93305963,88.46369
0.9820344,88.41032
0.8723248,82.4839
0.8534742,85.207214
0.7941667,82.04757
0.75412637,80.181206
0.85387826,82.80887
0.7845891,79.08044
0.7828546,79.04295
0.68844444,77.62183
0.7219962,75.79775
0.7615153,70.049515
0.77877665,72.08794
0.85197866,73.04827
0.75822574,66.937614
0.7280365,69.40048
0.8319779,69.995094
0.7956394,64.54154
0.63892335,67.194275
0.72168785,62.608513
0.6542302,65.0925
0.67217094,62.151817
0.64860415,60.69489
0.7019855,61.212807
0.63529015,61.633682
0.585103,60.721565
0.5195223,59.630093
0.57336235,61.987286
0.49943182,62.39561
0.51594484,64.64648
0.52175933,61.935253
0.49150872,63.98763
0.41135722,62.662224
0.41217765,65.58725
0.4135408,67.216125
0.39219388,66.100105
0.4761778,73.19893
0.4930671,72.22984
0.5703863,73.61379
0.596509,73.36021
0.6229453,74.85189
0.7801232,79.122505
0.86080176,81.2132
0.8489549,83.67782
0.9914383,86.234375
1.0141321,86.35766
1.1414865,91.6162
1.296622,94.18871
1.2392722,100.26706
1.3260838,98.94976
1.3988079,103.63501
1.5184283,102.7526
1.6054728,109.3688
1.7058704,106.77454
1.734548,111.806465
1.6891415,112.807
1.7800412,117.41045
1.8083475,122.88627
1.9362321,118.9564
1.9451166,122.123055
1.857389,123.33281
1.9561526,124.48988
1.8379989,126.19475
1.8327317,127.559235
1.96399,128.41844
1.9233922,129.682
1.891465,132.5336
1.8139851,131.209
1.947404,130.87325
1.8292131,130.20331
1.9244947,130.64195
1.8275739,127.41645
1.87126,130.07533
1.8271073,127.06194
1.8287162,129.5292
1.7633305,129.43553
1.6502749,129.85242
1.7285993,124.34495
1.6831576,127.98875
1.6912849,125.05872
1.5993685,118.84238
1.5523683,124.999886
1.5846872,120.814964
1.6932988,118.50399
1.5316831,119.0011
1.5057538,119.044785
1.5689622,115.876686
1.5612228,113.909386
1.5081952,113.96474
1.615616,109.50554
1.5801831,109.384315
1.4620275,111.202095
1.5260416,106.079025
1.4129877,105.64167
1.4876677,104.4197
1.4380505,100.34489
1.4891949,102.695694
1.3645461,98.48609
1.4522407,96.5253
1.3737761,96.17365
1.3919564,95.73597
1.301975,92.78466
1.2359521,90.8978
1.2501018,92.13086
1.1277432,90.44646
1.1425585,88.86397
1.0279107,85.60982
1.0917962,88.458206
1.1218172,86.2397
1.0292912,85.01122
0.9837937,82.25357
0.9374823,80.191345
0.9569428,79.490234
0.9327097,77.108574
0.94468415,73.608604
0.8574113,72.2448
0.99510854,73.395386
0.9331963,73.27508
0.8882022,69.421364
0.8709047,66.615776
0.94445914,68.807144
0.87933713,66.40185
0.90719557,62.63475
0.9094421,65.35459
0.93158543,63.963875
0.8532191,61.761124
0.8529931,61.991154
0.75018895,61.95408
0.7684591,63.986034
0.69404346,65.58291
0.62870175,62.138557
0.70921177,62.58001
0.6617072,60.067062
0.6011563,65.077095
0.53339916,63.685978
0.516655,63.88382
0.50234896,66.11633
0.5519752,61.75244
0.6053931,65.26635
0.5562895,64.841324
0.6445347,65.69325
0.5832628,70.89345
0.5099068,75.81959
0.6754311,75.399475
0.75670516,78.987076
0.8139667,84.070465
0.90319574,82.77114
0.9334438,85.55258
1.0100306,86.34958
1.0543404,84.73542
1.2489291,92.67697
1.1881783,94.45157
1.31887,96.04985
1.4714866,100.75539
1.4898204,100.42604
1.5420915,103.08427
1.6190974,108.20025
1.6363678,111.657005
1.6696311,111.60308
1.7688105,116.04532
1.7044866,113.839
1.8415143,115.92474
1.7848222,119.168465
1.8298607,121.31449
1.7838256,123.95631
1.8105797,127.092445
1.9135115,125.06161
1.9392129,130.24655
1.8903308,129.31078
1.9331431,129.19138
1.8769395,126.02848
1.8791914,132.57826
1.8933555,128.7291
1.857405,129.22783
1.7685196,131.86177
1.8563173,131.17
1.7620951,127.07317
1.8376441,129.26247
1.7329938,129.67143
1.6746664,127.231064
1.6408153,126.578255
1.6438329,124.5746
1.6669084,124.090805
1.6534898,124.17441
1.5233856,127.05295
1.5188528,123.40691
1.5028399,119.049324
1.6063532,116.78547
1.4478807,119.854355
1.3875476,115.25448
1.4334078,111.81024
1.3195289,115.571434
1.4008164,112.51633
1.3660641,109.10506
1.3512925,110.55858
1.3886486,109.241165
1.2635431,108.48469
1.2895278,105.662926
1.278585,104.70604
1.2512056,102.815254
1.2163533,102.3377
1.3134891,97.47436
1.1323622,97.296974
1.1331646,97.97134
1.198734,94.27486
1.1935185,96.03875
1.0985172,93.83473
1.0760223,88.548065
0.98821336,87.522964
0.93964344,86.15329
0.8103505,88.298386
0.96151024,84.07983
0.812343,84.9682
0.73675424,85.553696
0.7612104,84.61414
0.69736266,79.69416
0.67052126,80.12858
0.79995215,78.28879
0.79932636,76.88711
0.78709525,73.15379
0.7108236,72.43277
0.6046826,74.8709
0.66261786,66.66507
0.6667316,69.48181
0.67112845,69.5841
0.6960893,66.61511
0.6326561,68.03174
0.61897653,63.117016
0.69771403,63.959183
0.5947992,63.844963
0.6218623,60.386375
0.45287514,61.791058
0.58887297,62.642982
0.52813065,60.20526
0.36129418,59.239285
0.37718192,59.875
0.38447976,62.761463
0.27375966,59.206306
0.3418411,60.68661
0.29068035,64.248375
0.25780892,61.85307
0.244666,66.32972
0.1478544,66.1941
0.17542039,66.67257
0.36668277,69.45167
0.28949076,73.259926
0.35816294,72.52502
0.385577,75.573235
0.33120874,78.29916
0.45995745,80.36138
0.6311293,79.2801
0.64832485,83.16921
0.66350454,85.98924
0.69521904,86.41316
0.83959985,91.52974
0.99272937,94.48637
0.8877691,95.064545
1.027376,99.34009
1.1066817,99.29307
1.2089931,103.669685
1.2125083,107.10438
1.3140863,107.460304
1.4047382,110.32229
1.4696022,112.97094
1.4589856,117.51754
1.4013633,117.73214
1.4783968,120.35565
1.5094333,118.421104
1.4232917,121.02824
1.5231782,124.49204
1.5284835,126.155945
1.5719155,124.73229
1.4675075,129.7983
1.5643425,130.36368
1.5353503,128.392
1.4745553,128.59213
1.5530668,128.70886
1.4481546,128.28671
1.38776,132.46147
1.3802106,130.14563
1.4340544,127.733635
1.4527615,130.37254
1.3719072,130.64983
1.3716277,127.1517
1.1715765,129.63504
1.2135273,125.0664
1.3382058,124.93797
1.2055597,124.73685
1.1696353,122.69386
1.121125,122.470764
1.1081474,121.44388
1.0924125,119.5657
1.0694287,120.9113
1.0342197,118.43622
1.0020019,112.77387
1.0739397,113.85468
0.90365654,114.17123
1.022313,112.71064
1.0104879,108.17198
1.022032,109.23022
0.911644,102.866875
0.98180306,109.7929
0.956979,106.783005
0.9644633,102.27425
0.93365586,100.61071
0.82773244,98.89209
0.89012444,98.96095
0.80740905,99.69668
0.829889,96.24919
0.8543198,92.42586
0.762892,96.09346
0.77514935,90.71548
0.67155516,88.38
0.59932685,87.34444
0.63450146,87.094284
0.5332007,86.73151
0.4966515,84.335205
0.5304,85.622314
0.51380044,82.40326
0.40171194,83.661575
0.4207135,79.1472
0.45736638,75.97681
0.3767597,74.44288
0.38579428,73.89293
0.34275296,75.77325
0.36363238,70.686554
0.41377774,71.01575
0.32429898,69.478745
0.3416954,66.64812
0.34248608,66.79642
0.34261724,67.9244
0.2771869,64.13787
0.3490503,63.51548
0.29298514,63.86708
0.27714893,62.6402
0.21722627,63.38461
0.3105949,62.91191
0.18546288,60.625908
0.11444661,60.8928
0.067241,62.78772
0.077942565,64.85767
0.007997378,63.97106
0.010181341,61.040142
-0.0033238612,59.49766
0.010869595,65.91198
-0.08163197,63.280838
-0.024668459,64.70183
-0.06474625,65.40491
-0.07325636,72.46686
0.099880956,71.95728
-0.047870215,74.75926
0.09643026,76.63083
0.12715466,74.73948
0.19123216,74.31512
0.27328146,81.92049
0.26127702,87.19602
0.47573948,84.67609
0.46370885,87.688385
0.6416143,88.59527
0.7345762,93.86081
0.7592943,97.201355
0.7333998,99.57915
0.98381376,100.82102
0.90180016,104.05798
1.0030484,105.243965
1.0649762,110.08934
1.1131086,114.180984
1.2344052,114.91737
1.0885755,115.01779
1.26045,118.9355
1.3769584,121.41777
1.2990429,121.41024
1.3531028,122.63651
1.346947,122.58567
1.3754544,125.27463
1.3139497,129.98042
1.2986989,130.78673
1.3749015,129.36403
1.4769305,126.94441
1.465695,129.76614
1.2730144,131.45166
1.4288306,131.72166
1.354084,126.83922
1.3326597,130.14137
1.3342539,131.63376
1.3713497,129.11168
1.353956,130.40416
1.2560873,128.5184
1.2481296,127.696075
1.2038479,127.19373
1.1283821,126.238594
1.1310487,125.063385
1.1151978,122.29517
1.0618628,121.048805
1.0984882,122.73691
1.0772389,119.078735
0.97911876,119.98658
1.0586612,116.96504
1.0328859,115.76005
0.90692747,112.199104
1.0305591,113.680405
0.987682,109.91251
0.96891505,109.851425
0.97526604,109.42156
0.8494831,107.484726
0.9575033,107.128746
0.9213481,105.00353
0.90868735,102.18424
0.8709839,100.23668
0.95789707,102.13781
0.81279355,98.72455
0.85524696,97.70752
0.87778986,93.72277
0.79963857,96.48451
0.7258806,93.60802
0.8148902,91.85986
0.6747451,89.833015
0.5426917,90.70407
0.66789484,87.72883
0.59921294,84.45599
0.5216177,81.92076
0.5802806,80.290146
0.4978533,82.88332
0.5166886,83.277596
0.5277234,80.635506
0.44767666,79.28717
0.47178778,79.73005
0.41215357,74.2727
0.37589523,75.09942
0.4223391,72.22784
0.45295164,72.67942
0.44343656,69.20946
0.42425188,71.17364
0.39137697,64.605156
0.46697152,68.39083
0.35507312,62.79896
0.5098209,64.83113
0.43128762,64.36272
0.3919508,64.513336
0.3820774,61.03606
0.29260215,62.390526
0.31561938,60.86954
0.35314423,60.677464
0.21274124,62.30904
0.2569935,62.026905
0.115587965,62.298473
0.19869015,60.899277
0.104462065,61.67048
0.08263056,63.82435
0.15779473,62.232426
0.15618302,68.386955
0.14116354,66.475815
0.20088983,70.08635
0.12170322,71.75502
0.25826585,71.75562
0.26237002,74.41192
0.35532635,77.637596
0.34445697,79.69925
0.47985026,80.82824
0.48302138,83.07477
0.63883173,85.146736
0.7232784,86.333435
0.78061813,90.93458
0.8650162,92.79274
0.97363985,94.00649
0.97849905,97.92336
1.0752571,98.64436
1.288275,104.08524
1.2960058,101.80482
1.2508312,108.77447
1.4122059,112.068
1.4281101,116.2937
1.4473305,115.32687
1.5340145,115.58615
1.5423391,120.71768
1.577497,120.66715
1.648233,122.108894
1.5300165,124.552
1.681373,125.68924
1.6100518,127.39347
1.5991418,126.56402
1.6156322,129.9762
1.6450521,129.07632
1.58195,131.42064
1.6503268,130.4688
1.567796,129.33879
1.6585634,131.08612
1.5635644,132.85504
1.6120116,128.7733
1.589647,129.82155
1.5783216,128.67981
1.5853665,129.81665
1.4820572,123.829056
1.5618798,125.80067
1.5090185,128.33087
1.3868357,125.409225
1.4459412,123.20017
1.3616936,122.25779
1.4150311,123.198235
1.3301399,120.377594
1.3074299,120.87936
1.2882168,118.811745
1.3287495,115.77394
1.3177433,117.24196
1.2237501,110.871284
1.3169817,113.5638
1.2997569,109.09533
1.3136628,107.59762
1.2220409,107.0264
1.301788,107.060165
1.1548392,103.17656
1.1735096,103.792435
1.2364393,103.45671
1.2177424,100.285065
1.146278,95.616005
1.1085967,97.6411
1.32797,96.41061
1.1621603,98.440475
1.0722868,93.562874
1.0518237,90.77134
0.97524977,90.86153
1.0778167,87.33016
0.99679196,88.099815
0.9863147,89.21091
0.88186115,86.14422
0.9029562,82.553535
0.9015322,84.08775
0.82546973,78.96291
0.8260331,78.321884
0.7576022,78.23414
0.7456875,78.67507
0.7834793,76.16422
0.67337656,75.522705
0.7475669,73.5077
0.836342,70.93356
0.7349969,72.67934
0.7757514,68.67103
0.8924095,68.971504
0.82661426,66.490295
0.6945196,64.455925
0.7133669,62.01547
0.75141966,67.08016
0.724031,64.56383
0.7086236,61.89129
0.656708,62.02428
0.6248591,63.024582
0.5796479,61.130054
0.7058326,61.619213
0.6473616,59.40685
0.47275406,65.52101
0.4537063,60.772537
0.49223128,61.818283
0.51797825,63.67486
0.46460903,63.456825
0.42737967,64.303535
0.549474,66.593666
0.5495402,66.8177
0.539915,74.316185
0.5188214,73.46658
0.7168789,70.93911
0.6400621,76.13944
0.6634426,80.7031
0.7729122,77.89954
0.80784434,81.49872
1.0005075,83.74244
1.0074606,88.13231
1.1027819,90.061966
1.1687447,92.561325
1.2873987,95.80315
1.4303352,98.35286
1.3886367,98.5904
1.496583,105.00462
1.5467048,107.037605
1.5684066,107.185356
1.7155683,110.85839
1.7372301,112.61804
1.8139046,115.23561
1.8460455,115.35943
1.8183881,121.63435
1.8692667,119.95726
1.9212042,124.14084
1.905309,126.933846
1.9646746,124.485
1.9736919,129.25723
1.948,126.348976
1.9214032,129.93192
1.9123617,131.3874
1.9086337,131.62238
1.9641072,131.11864
1.9154159,130.62624
1.9136363,128.94173
1.9863952,129.00809
1.9458805,127.20618
1.8974867,132.96933
1.8978091,127.44184
1.8426229,124.74065
1.7803823,124.99858
1.7418234,130.31412
1.77189,127.08614
1.7063985,124.17875
1.7333381,124.763596
1.8255225,121.53592
1.5576944,118.21917
1.6083215,120.035774
1.605393,115.775345
1.5153172,120.109276
1.5869461,113.628044
1.5983093,113.86884
1.4585559,111.90594
1.5737215,113.64048
1.4937569,111.7157
1.5345476,106.90929
1.5236299,110.3053
1.4915712,105.63435
1.5586458,105.1795
1.4891797,101.60839
1.5181997,102.63615
1.4924159,98.17832
1.4149705,99.487236
1.463016,96.12587
1.3561476,96.97757
1.3009393,94.450424
1.3014151,93.927086
1.3012093,91.0271
1.1647741,91.78488
1.2175252,88.8449
1.1492542,88.33093
1.0936396,81.35464
1.0774821,87.2865
1.0799154,86.33081
1.0383636,84.133675
1.0463693,80.11151
0.9591276,83.59033
1.0137575,79.97259
0.8599291,74.45331
0.98002,75.68713
0.8902291,73.67291
0.95592165,70.96781
0.9149097,74.18581
0.855498,68.34701
0.98178226,68.23692
0.91909474,66.92124
0.94448024,66.77689
0.84820354,67.609
0.89203954,65.029015
0.83635783,62.205776
0.90986663,61.54481
0.7597203,62.082897
0.8138636,60.930634
0.77905184,60.41481
0.74951094,58.58865
0.7292257,63.24963
0.6085596,64.13508
0.5676579,62.436794
0.6833735,61.339863
0.5265859,60.953064
0.5839039,64.67814
0.5277582,64.374664
0.51303583,64.87019
0.50587595,66.59889
0.47818437,66.44667
0.5466089,67.51786
0.5212099,68.585625
0.57402,74.83622
0.5556134,73.97806
0.68039525,78.06814
0.6701633,81.23262
0.8138499,82.38439
0.9490749,83.68296
0.98078924,88.419975
1.0432023,88.884346
1.1709634,91.52505
1.0945771,93.88138
1.2493957,96.77158
1.4682381,101.08984
1.4722418,99.95069
1.5551306,105.98352
1.5862718,107.32727
1.6583741,111.55208
1.6404732,110.6428
1.711897,115.346436
1.6703833,116.67842
1.8157265,118.47527
1.8191715,120.25887
1.7274934,123.49447
1.7455629,121.62455
1.7374659,127.18015
1.8566456,125.95734
1.9890063,128.00612
1.8176665,127.241234
1.8687143,128.32086
1.7498513,128.78699
1.8129103,130.2455
1.8339816,129.0606
1.7579951,130.13504
1.7178234,131.20741
1.7826246,130.36934
1.7269291,130.82373
1.6815503,131.76482
1.719258,131.5061
1.551776,131.08267
1.5586905,126.86771
1.5238855,126.23281
1.4964795,125.80159
1.5785006,124.471245
1.4849892,120.42928
1.420164,123.350945
1.3957541,117.63506
1.3816757,119.2978
1.4220979,118.727066
1.3521779,118.24495
1.33829,115.87507
1.298041,116.274895
1.3005588,113.356926
1.3255348,110.55371
1.302949,107.38207
1.3145065,108.14501
1.2667394,104.35059
1.2997814,104.59823
1.2210424,104.58426
1.2428557,102.63542
1.2352515,100.90892
1.1600664,98.664955
1.1965569,98.75452
1.0756446,97.415565
1.119727,93.93614
1.1178771,95.319145
0.97628784,94.18463
0.9996839,92.56728
0.94405127,90.05423
0.8563322,93.00316
0.7480401,86.61291
0.72248554,87.06284
0.80457354,85.09611
0.7410606,83.100586
0.73561424,81.15521
0.6717055,78.6244
0.5808201,76.01493
0.72151095,77.62615
0.5659298,76.62208
0.59620404,76.84681
0.64232355,70.73857
0.6272341,72.0176
0.68754685,72.07098
0.66278833,71.01735
0.6255278,67.86845
0.46880132,65.02624
0.5242186,67.66523
0.5278876,66.31203
0.5376451,64.297585
0.43524635,61.100094
0.46961257,59.752117
0.41328138,59.834774
0.5205844,64.05084
0.36549863,62.552055
0.32029435,62.4402
0.30010194,60.26989
0.24208201,60.757664
0.16496551,62.169304
0.116514295,64.13951
0.2237494,62.68645
0.13999556,66.29238
0.071920395,68.01699
0.10625538,65.36945
0.08652299,69.25251
0.1603134,68.59916
0.17619644,71.3457
0.2556735,72.118996
0.22204778,78.57138
0.2935168,78.523285
0.45173478,82.090225
0.3278832,81.140175
0.5192502,84.91297
0.5435632,86.49024
0.62979305,87.16986
0.7828471,89.91353
0.8524988,98.2404
0.88662124,98.932785
0.9463043,102.23556
1.105137,100.92455
1.1945492,103.13985
1.2223214,108.98748
1.2723513,106.31127
1.3329027,111.95939
1.2757546,113.7639
1.3651791,115.97309
1.3490828,115.34538
1.4052901,120.20754
1.3597128,123.27764
1.3920399,125.6151
1.4614773,124.10086
1.4957473,124.76085
1.4824361,127.76948
1.4259896,127.215904
1.448626,131.2083
1.5226129,128.99106
1.412072,126.83923
1.4262265,126.88168
1.4301852,131.46317
1.402167,130.4783
1.3459314,130.77728
1.374662,131.37508
1.3228008,129.68332
1.3625106,127.57778
1.2651143,132.10635
1.3849387,128.66324
1.2542979,126.96888
1.1466551,125.193275
1.1922301,126.101715
1.2597429,121.33556
1.0943438,122.18296
1.0707966,122.20954
1.045046,120.09971
1.0358762,116.77536
0.9464719,117.915596
1.0721822,115.639946
0.91528505,111.31575
0.9643991,113.07216
0.984999,112.46979
0.91910946,107.87563
0.96085584,107.75132
1.0457379,101.82393
1.0045713,106.000725
0.9244881,102.961525
0.8457632,102.58732
0.91580254,101.7291
0.8559821,99.07973
0.7880967,98.6118
0.7836244,97.20322
0.8427598,95.13918
0.7087699,93.39522
0.6229321,91.177345
0.62676495,87.851265
0.54220754,89.93457
0.5732861,86.90398
0.5454283,85.822945
0.57908255,88.09489
0.46908256,84.75922
0.3759297,84.57583
0.48039785,82.84702
0.41187125,80.91065
0.36421865,78.138054
0.38166428,80.51348
0.3047013,78.3765
0.32286724,73.84554
0.31551254,71.25732
0.33654273,71.4831
0.4044736,71.313515
0.29387298,69.50152
0.34851477,69.59005
0.366513,68.321945
0.31666413,66.370026
0.26661515,64.62055
0.2907894,66.75188
0.30095991,62.245583
0.23775929,62.007004
0.23046108,61.90823
0.18528597,60.684902
0.20175502,61.33599
0.13820337,63.54789
0.12387156,60.2951
-0.0074300705,63.28512
-0.09429973,59.96182
0.031732377,66.80008
-0.103158295,61.72172
-0.028018745,63.21665
-0.09278542,65.40825
-0.06112051,66.60999
-0.033120256,71.59884
0.055786237,69.2871
0.058582053,70.61052
0.054729283,72.68643
0.04550065,73.04849
0.043046903,76.45345
0.24335665,74.89746
0.34432876,81.12213
0.32663828,82.43086
0.4818325,86.63179
0.5599908,88.22503
0.52758247,90.79613
0.7678543,96.42629
0.8054793,96.247185
0.8451805,99.37339
0.89269584,102.647194
1.017519,104.19327
1.1190687,109.50417
1.1864932,109.60579
1.1930773,113.33455
1.2741253,114.95991
1.2841752,116.285355
1.2896295,118.375206
1.283398,122.28116
1.2752154,120.67872
1.4150391,124.93367
1.3478341,123.79168
1.3602659,126.05335
1.304945,127.22315
1.4535263,129.44583
1.4515312,129.94785
1.3895359,127.683105
1.3512285,128.19666
1.3630021,130.36768
1.3712846,132.07133
1.4035994,131.15797
1.329375,129.4143
1.2549145,130.26219
1.1468587,129.75925
1.3057051,127.20676
1.2633042,126.226875
1.2512702,127.67982
1.2333424,125.308304
1.2333611,125.15902
1.1000314,125.82894
1.1911271,119.83029
1.185747,121.78106
1.1268879,121.16071
1.0979123,121.27215
1.0604124,119.18869
1.0220536,116.13094
1.0302606,115.909935
1.1124914,114.28772
1.0712632,113.73263
0.9868474,113.87655
1.0260698,110.887115
0.9977032,106.842995
0.9834919,102.37854
0.95826006,105.12808
1.0295666,102.272
0.9502695,104.845314
0.96461266,100.37816
0.95423883,100.08319
0.9518241,96.590065
0.9081634,96.925514
0.7325031,95.53567
0.8163995,93.00181
0.8178689,94.674065
0.74276626,91.21434
0.7192938,91.757996
0.742044,87.276405
0.6477423,90.485565
0.5523299,87.32708
0.5003578,85.18583
0.5313464,82.216225
0.65484977,81.942055
0.50961894,78.11539
0.52189934,75.93288
0.4703889,75.06456
0.55252075,78.083534
0.45413062,73.33774
0.5182335,72.958725
0.492731,68.88881
0.41245022,69.16308
0.48743927,69.705696
0.5652977,68.71215
0.5192813,69.91177
0.52591413,67.50005
0.48319486,65.19134
0.46543837,63.22273
0.49014363,61.785748
0.4326237,64.845375
0.36192262,64.505005
0.40827805,61.401783
0.33513835,61.95665
0.3480297,60.62183
0.3159926,64.39331
0.2688805,62.702557
0.29106656,62.17837
0.16959766,62.1214
0.15913421,63.908092
0.2268021,66.35416
0.1737225,64.593765
0.19830652,65.54676
0.20027621,68.8959
0.17153426,68.24597
0.2995033,70.06094
0.3120103,75.71972
0.38832468,75.84103
0.3868319,75.86008
0.4513137,81.10834
0.5128342,80.67195
0.65256804,82.62482
0.74114484,85.460205
0.75998557,88.46608
1.0251136,90.0076
0.9646712,93.66354
0.9602429,93.26827
1.0534006,99.54897
1.1923871,98.90396
1.2905834,103.08303
1.3708918,109.7858
1.3934207,106.49069
1.4056951,109.58755
1.5487573,113.41313
1.6141461,115.60477
1.5819175,113.54292
1.6152985,118.45701
1.6559533,119.92681
1.565394,121.81746
1.6970284,122.32141
1.6707966,127.181694
1.6052648,124.59149
1.7215232,126.88237
1.7419524,127.92169
1.7266381,127.78909
1.7701092,131.20828
1.8184297,132.20615
1.6993947,131.46938
1.6980395,131.75273
1.7051897,132.03471
1.6314731,127.13172
1.6709702,129.94388
1.6844258,129.76595
1.6117724,131.68599
1.5377203,127.34241
1.5098166,128.63124
1.5974699,125.05
1.5695908,127.48213
1.5383184,122.01648
1.4981555,124.11611
1.5688871,121.23951
1.4730217,117.61125
1.4559398,119.46694
1.4528397,115.2283
1.4687186,114.67032
1.3877046,112.90182
1.3705868,112.68509
1.3044648,108.646164
1.2966291,111.49602
1.3864671,109.00253
1.3369082,109.8094
1.314798,107.68658
1.2911272,104.07885
1.241443,104.49531
1.3624307,101.94775
1.2563831,100.21593
1.2341019,101.38663
1.2317541,97.88538
1.253018,94.84894
1.2405394,92.37898
1.1664631,93.29346
1.1991827,90.567375
1.0695593,90.12853
1.1053414,90.91503
1.020533,88.931335
1.0085216,85.12988
0.9640462,86.668785
0.90973526,78.97957
1.0134945,82.011215
0.91632307,81.856705
0.86063313,79.35789
0.94722587,78.42915
0.9136915,76.15786
0.9059281,75.386154
0.7617021,72.02232
0.8524838,72.3659
0.8040281,68.52462
0.84459454,69.09279
0.87840194,69.13529
0.8449444,70.623764
0.8312797,65.08547
0.88613164,65.5909
0.81750584,64.65905
0.72378683,63.284935
0.8263044,64.095535
0.77439076,62.493366
0.7670603,62.10331
0.7648252,63.24025
0.6507825,61.36949
0.6242675,61.151844
0.65774053,61.38902
0.56486505,60.50748
0.5176658,62.128384
0.5308769,65.0907
0.53727716,65.52835
0.52687186,64.96229
0.5631542,64.71325
0.5583707,67.63754
0.5023261,68.79985
0.570352,70.96564
0.5586962,77.024734
0.69494843,70.07827
0.6380974,76.06649
0.7501885,76.67359
0.9188612,79.40619
0.8886394,84.79526
0.9744632,85.500725
1.0142858,86.63803
1.1052377,90.112816
1.3685598,93.34258
1.3829455,94.22658
1.4489346,98.11713
1.4738975,101.6136
1.4923152,101.60933
1.613291,105.56768
1.663388,105.26329
1.7263972,110.16929
1.6774875,112.23997
1.797582,115.06118
1.8922532,116.72422
1.9594443,118.7894
1.9077312,120.12901
1.9106038,121.41448
1.9944317,124.8104
2.0611515,125.73306
1.9837123,127.29349
1.9370306,126.84288
2.0007138,131.6735
1.9663855,125.53911
2.0254018,130.85925
1.9258838,130.96092
1.9478716,127.820885
1.9746885,131.0564
1.9699664,127.773705
1.8438525,131.9873
1.9022362,128.2493
1.8829842,130.79459
1.7727584,128.71605
1.8385874,128.0317
1.7711526,126.9883
1.7355626,128.79457
1.6774907,123.86566
1.5958915,121.972725
1.6258854,122.110886
1.6120977,122.01696
1.6357551,121.88537
1.6213146,118.600426
1.4895042,117.99916
1.6054078,116.136375
1.5719532,114.810394
1.5609013,113.35644
1.6097156,109.40477
1.5040638,112.61146
1.4992878,109.50035
1.5206513,105.58907
1.37959,104.78851
1.5333271,101.63274
1.4876218,105.00136
1.428455,101.850494
1.4733288,99.78761
1.3715329,98.170784
1.3459437,99.96853
1.2462002,96.15162
1.2156906,93.5802
1.2566831,95.060715
1.2690456,94.16336
1.1863496,88.381256
1.1201832,88.452255
1.1548867,87.37698
1.0769731,88.47878
1.019395,87.11002
0.9593925,81.62312
0.9305225,82.07413
0.89694005,81.49252
0.91493446,79.42648
0.8286842,78.47699
0.90438724,76.37046
0.9437685,76.3334
0.8348153,75.442894
0.8291687,72.71023
0.8848528,70.32276
0.8050977,70.533165
0.93159765,67.8196
0.8826214,66.7584
0.8680666,67.05253
0.79605114,65.102356
0.7437035,62.45922
0.8398062,62.378002
0.803015,63.566326
0.714343,62.130867
0.71121037,61.968548
0.703571,61.713406
0.67138237,60.547184
0.63703805,62.621037
0.6440484,62.64855
0.5139097,59.646015
0.47525054,62.293095
0.5171981,65.45646
0.41745472,63.87866
0.5030294,64.667595
0.370147,65.58682
0.44029132,69.47571
0.46536362,66.4875
0.4063812,68.68603
0.5027135,71.65357
0.5987609,70.37932
0.55534923,79.07398
0.644617,77.067375
0.7823624,80.75831
0.77672476,83.1937
0.80252725,85.387535
0.8662336,84.59698
0.9826137,92.91492
1.1008776,91.299194
1.2223085,94.337265
1.2357568,98.26732
1.4448117,97.61995
1.3590577,101.34281
1.4708617,106.12649
1.4511948,106.52584
1.513512,108.816444
1.5862535,111.59973
1.6705956,115.36174
1.5921288,118.623375
1.641167,119.643745
1.7354208,121.32806
1.6815045,122.73846
1.7780777,124.23189
1.7161852,125.46155
1.7210354,128.25978
1.7440288,129.66139
1.7700329,129.2723
1.6676242,130.302
1.7355903,129.27957
1.7838517,129.74467
1.724965,130.13898
1.6550803,132.97832
1.6815555,127.55268
1.6758494,133.44487
1.635824,129.88667
1.6724615,130.52917
1.6700906,123.99029
1.5324302,128.41203
1.5069973,126.643265
1.4985574,124.771645
1.4141669,127.638016
1.3917665,125.300934
1.3193858,121.64065
1.3978353,125.157005
1.3548878,118.979996
1.394963,116.91698
1.2754593,116.81152
1.2667158,114.42369
1.2599189,113.54733
1.1882585,114.41462
1.2684178,109.84793
1.267921,109.61911
1.1833428,108.770584
1.1865147,109.574776
1.1170436,106.99297
1.1477206,104.77068
1.1444697,102.6525
1.1268102,103.014755
1.0401996,98.82483
1.1455101,98.33634
1.0486951,99.63603
1.0088234,95.3914
0.98495376,94.09061
0.9068618,95.733185
0.8822233,94.91102
0.8498208,92.24592
0.8495037,88.665184
0.74684566,89.316635
0.83376336,89.096535
0.7126637,85.843216
0.64759964,83.0435
0.69820607,83.04514
0.58083105,80.13843
0.64309645,80.08426
0.619837,74.90187
0.55920535,76.32944
0.5607575,75.49888
0.5274687,74.23227
0.43184236,72.07155
0.6011073,72.68747
0.43363127,70.16139
0.5396318,68.94668
0.46445742,67.01384
0.4745756,66.51028
0.46062183,67.47462
0.46614075,63.87696
0.42302784,61.10747
0.3568549,63.321926
0.3537414,65.7957
0.32945704,64.17035
0.3154413,64.61611
0.31172615,60.95113
0.2578311,61.5225
0.22475761,58.830315
0.13520096,63.06944
0.1087582,61.856617
0.07444744,64.2058
0.093457386,61.472065
0.06752919,67.88521
0.019056637,65.83375
0.17711835,67.18209
0.08669105,69.501945
0.122628324,67.69537
0.17414306,74.5213
0.25051543,76.0286
0.24500197,73.00189
0.2646269,80.46497
0.33029202,78.8674
0.4143083,81.68708
0.46209198,83.669174
0.50286156,88.94942
0.6668161,92.653694
0.6834631,88.96735
0.8992777,93.811035
0.91540176,97.66085
1.0227699,100.75287
1.1166131,103.415634
1.0792966,105.43808
1.2321925,104.185715
1.123016,107.317825
1.3082447,110.49034
1.300163,113.58449
1.3129001,118.775696
1.3734444,117.904465
1.3499376,120.58589
1.3672633,121.087654
1.434603,124.19574
1.4426749,125.38698
1.3826091,125.08177
1.459351,127.20063
1.4523464,126.54986
1.3551838,129.59293
1.3775437,129.88432
1.5688025,129.66101
1.4212325,131.43248
1.3101834,130.05385
1.3140384,131.0563
1.3210036,128.90184
1.2826663,127.91894
1.2421471,130.40211
1.249416,129.88896
1.234704,126.80621
1.292036,128.76376
1.1856196,128.3327
1.1963857,125.34222
1.1918564,121.59769
1.1010307,124.31568
1.0765966,121.242744
0.93708915,121.33688
1.0652205,122.871086
1.0514469,115.759796
0.9820726,114.70713
0.9881811,115.20312
0.986472,115.11964
0.8830734,114.0021
1.0230693,109.76286
0.9281066,108.31166
0.89902747,108.361115
0.97375715,106.69852
0.8194189,104.660446
0.9698284,103.97127
0.87150943,100.93414
0.8695515,100.969925
0.78549165,100.22461
0.8308273,96.940155
0.7546816,94.851234
0.7835276,96.7278
0.69655395,93.87964
0.69547254,92.31359
0.6722892,91.71425
0.66978616,90.14343
0.50663334,91.624695
0.4996298,86.81114
0.4933187,85.1607
0.57784766,86.67651
0.48755825,84.07529
0.39087924,84.67496
0.37793392,79.83924
0.3917486,77.37545
0.37051195,79.0568
0.33769324,77.07749
0.39537615,75.815155
0.44981593,75.31225
0.24627562,72.26325
0.26064262,69.7711
0.44970873,69.868355
0.3440749,67.90801
0.3368356,69.96936
0.36165553,67.431244
0.27353492,68.17782
0.25364274,63.912235
0.30289346,63.511227
0.2886403,64.93462
0.21893539,62.055832
0.13110489,62.053852
0.14049785,60.79397
0.14316303,62.909935
0.17124549,63.32826
0.06703424,62.90195
0.058599938,61.184837
0.03481625,60.553986
-0.08019191,61.14032
0.027992252,63.454002
-0.034376442,69.0826
-0.072947726,67.74379
0.045689836,67.221634
0.010012021,68.7906
0.099838935,70.89722
-0.010873885,69.45528
0.08424109,74.08852
0.12944213,78.199394
0.23823442,78.859985
0.30943635,83.1535
0.4124054,85.04451
0.4782959,87.12746
0.5788933,88.58498
0.68724686,93.71337
0.72858465,93.23566
0.8997022,95.14032
0.80153733,97.643074
1.0118781,100.64087
1.1279744,107.14879
1.0191844,108.91384
1.2295141,107.553696
1.2399857,114.53895
1.3414317,114.99009
1.3114831,114.003586
1.3739158,116.83283
1.3263375,119.19833
1.4456115,120.63116
1.3640392,122.296936
1.400206,123.07653
1.385134,128.54306
1.4049134,129.7642
1.4565829,127.85928
1.451253,130.27809
1.4057119,128.48795
1.3923508,130.39078
1.3870932,129.70683
1.387142,129.89497
1.4213907,130.5707
1.3186944,130.27635
1.4033482,128.06824
1.329706,130.19897
1.3611629,130.05911
1.4219717,127.45965
1.2089411,127.41946
1.2658572,126.440475
1.2927117,123.401924
1.2136741,124.67956
1.2065752,124.24627
1.1128149,120.96819
1.0885272,118.0891
1.1729677,122.47066
1.1258354,116.32369
1.119627,118.305244
1.1119083,115.509895
1.085298,113.49667
1.0312682,111.739365
1.0081388,108.89063
1.0688539,112.28901
1.1277573,109.428856
1.0705853,106.53823
1.0536376,107.04417
1.111321,102.62419
0.9814291,101.01594
1.0514071,103.85162
1.0766772,97.88721
1.0217406,94.741066
1.0246125,98.119934
0.8442176,95.823044
0.85182947,93.56313
0.82358056,91.85234
0.8303726,91.45812
0.81639266,90.16129
0.7790261,87.092926
0.7680075,87.53943
0.6951257,84.74417
0.614754,85.64957
0.6311133,80.389626
0.62612534,78.069435
0.69177145,78.68241
0.4844178,79.29794
0.54730886,74.08528
0.6082099,76.502785
0.5623779,73.415565
0.5967905,71.378624
0.569641,73.4303
0.5778193,73.95686
0.61763024,68.6692
0.5942441,72.880714
0.535837,69.00654
0.6216266,67.35112
0.53926367,67.838425
0.550551,65.822266
0.42031986,62.549946
0.51416093,63.92701
0.4651186,66.02749
0.53831315,60.762867
0.5008146,62.274445
0.37515515,63.374943
0.35010472,61.869583
0.3569289,65.635216
0.39207137,61.08277
0.28842658,64.81596
0.35445008,61.75391
0.3742783,61.220837
0.28125325,67.298065
0.25205898,66.89819
0.22680698,68.94331
0.30455837,69.26766
0.3031436,71.569534
0.40360475,70.21953
0.3692105,73.35635
0.49241906,78.80665
0.5801445,75.127396
0.6492182,81.98753
0.71192425,84.585
0.841258,85.14348
0.91201484,90.6414
0.9551507,89.30121
1.1055018,94.284
1.1102397,97.039215
1.111697,99.634544
1.3173589,101.64558
1.3651764,104.01966
1.4209393,105.75085
1.4354122,109.39236
1.4717594,109.687035
1.5620193,113.08697
1.6138023,114.27939
1.56776,117.44816
1.7330475,119.67919
1.6449733,120.881996
1.8620777,124.93579
1.7184838,126.56243
1.8202865,124.66762
1.7488271,126.03361
1.7436364,128.83319
1.7864517,130.45987
1.8025796,129.3272
1.793088,130.62277
1.812555,128.90346
1.7467982,130.39699
1.7999991,130.43472
1.7636094,130.47356
1.7914962,131.60017
1.7510512,127.69803
1.7913638,127.62607
1.6401993,125.08346
1.6274996,127.536995
1.7049003,126.12277
1.6569289,126.480446
1.632317,124.39663
1.6313397,122.14842
1.6098351,123.60177
1.5158592,119.77521
1.5346041,120.30714
1.5337106,117.2406
1.468496,116.762085
1.4728042,114.742455
1.442507,115.585144
1.3947979,113.320045
1.4626762,115.11938
1.4771402,112.47985
1.4071136,109.7857
1.4957356,107.23977
1.3847616,105.74874
1.3692775,104.29226
1.3133816,102.829185
1.3647277,102.34462
1.3209558,98.38832
1.3870329,99.97455
1.3452666,97.76428
1.2612936,95.54406
1.2674541,95.145004
1.2590832,92.841484
1.2186714,91.2003
1.11239,92.207306
1.1750923,89.703026
0.9604842,88.738754
1.0496181,86.09527
0.96478087,84.858284
0.9672205,83.0799
0.9743047,81.11345
0.96957296,79.67028
0.9659946,78.36634
0.98626685,77.490585
0.921976,77.30726
0.8585324,75.43275
0.8337849,72.25193
0.9001053,71.70169
0.93647885,68.69154
0.92481387,68.300545
0.9635008,69.31376
0.88957983,67.170845
0.8706558,68.82105
0.89658797,62.874477
0.8715179,67.50101
0.81963736,62.574833
0.85876524,63.66684
0.7999068,62.52744
0.80297035,58.709312
0.6825996,63.564644
0.65231806,62.43203
0.6866808,62.05535
0.5749381,63.16701
0.5107547,62.7291
0.5164407,62.772102
0.5497434,62.05555
0.5473265,63.15937
0.54223996,64.833595
0.5751528,65.095764
0.6197036,67.344406
0.69829386,68.216324
0.6217759,71.104416
0.57565796,74.32261
0.6937188,75.56217
0.7618172,78.801956
0.8843943,80.2726
0.875836,79.497604
0.97690034,83.80975
1.0486907,85.691986
1.0412455,88.384964
1.1894429,90.82962
1.1949483,94.08562
1.3416122,96.72311
1.3978813,98.61322
1.4378971,100.83945
1.5507135,104.99131
1.5451726,105.37951
1.6800761,108.73127
1.7737314,111.12505
1.6981691,116.07961
1.760783,116.552444
1.8386692,117.628784
1.8109777,119.84219
1.9036136,120.20844
1.9214689,119.39454
1.9521297,124.02857
1.9192561,126.68873
1.9496424,128.8106
1.9206433,129.00742
2.0434532,125.98471
1.9338514,129.65137
1.9684169,129.58481
1.9809011,128.38857
1.9461385,130.01367
1.9420545,129.61487
1.8616267,130.97795
1.8730109,130.03561
1.9069773,127.5809
1.7759846,130.1024
1.7437763,129.50519
1.806487,127.40398
1.6361939,125.875854
1.8028405,127.6488
1.7157786,123.07152
1.6728075,125.43839
1.5473133,120.52086
1.6532975,121.887726
1.5657299,117.385445
1.5849324,120.87944
1.5815828,117.89263
1.5001055,117.506
1.5845566,113.416885
1.434181,112.48008
1.5199122,112.73398
1.4597,109.77567
1.4655334,108.43913
1.4349977,107.89839
1.3868964,106.047676
1.416139,102.05917
1.4221494,104.28923
1.2813461,101.51712
1.3624575,99.07384
1.3829747,100.355705
1.2499418,99.20311
1.3163291,97.40827
1.3353678,95.69745
1.2900226,94.41562
1.1462134,93.833206
1.1040219,92.41664
1.1605694,87.20132
1.0224389,86.543526
1.021399,83.5103
0.95394766,84.85106
0.99654573,82.24454
0.89850205,84.92322
0.9915955,81.347786
0.88792396,78.804924
0.84287065,77.58486
0.89995366,78.59578
0.8811454,74.74879
0.85903203,72.32503
0.8177756,74.65175
0.7704231,72.46001
0.91216266,66.94536
0.8383076,67.84174
0.8558995,64.06151
0.7775404,62.288826
0.74210787,66.69422
0.91217375,61.72458
0.7961233,64.934395
0.80242604,63.972
0.7162381,60.044224
0.62447697,62.99279
0.592352,61.900997
0.5990602,60.873104
0.42209855,61.145344
0.6627648,67.086235
0.47589234,60.497578
0.46255374,61.926067
0.4473368,59.09816
0.36231112,65.065544
0.2916702,64.538925
0.29709592,66.786964
0.32153115,66.701904
0.4831657,68.19005
0.41821358,71.58878
0.42464533,69.675766
0.43864378,76.301346
0.5593312,78.5652
0.56995773,76.36258
0.5821914,80.32848
0.7078764,81.494316
0.8187818,87.243645
0.87197137,88.40225
0.9217064,90.84369
1.0810175,89.682
1.1681275,95.11845
1.2034512,98.59833
1.2367744,102.66389
1.243669,103.47783
1.4350559,105.30176
1.2772044,108.79039
1.4677361,106.56238
1.525435,114.34432
1.5936356,112.340416
1.5989453,118.60511
1.473718,119.24237
1.7263385,121.83704
1.7171029,123.19176
1.6222651,126.203575
1.7138224,126.36283
1.7454104,128.17072
1.695247,127.89458
1.7310865,126.571236
1.6223257,128.90015
1.7098434,129.43518
1.6428456,131.43481
1.6459324,131.29247
1.6553419,130.24971
1.6333534,129.37927
1.6193292,129.87532
1.5285548,128.62514
1.4922327,128.60382
1.5159106,129.98846
1.5051324,128.87535
1.4173237,125.614075
1.459603,127.43367
1.371073,125.47929
1.4401718,124.68272
1.3307803,122.00316
1.3099558,121.77468
1.3451588,118.689606
1.3091973,118.58955
1.2053686,118.18463
1.1881435,113.28467
1.2110121,114.58917
1.0808278,113.96752
1.2601535,112.68455
1.147872,110.78276
1.1029701,109.2895
1.0143094,106.39088
1.109939,106.64454
1.0750585,103.13777
1.155467,101.66843
1.0499567,103.749504
1.0127245,98.40991
0.9426486,98.784485
0.95153856,101.849464
0.9639454,96.969444
0.8961452,95.917145
0.8585565,90.92078
0.85095006,91.8879
0.84901935,93.29636
0.7358703,92.53814
0.62411004,89.63933
0.5819347,84.0549
0.6084727,85.32554
0.605491,84.70913
0.61797607,78.93612
0.5278754,78.32548
0.5821021,79.85052
0.5162574,76.15053
0.46432686,77.39052
0.5072614,75.7646
0.53334004,73.34138
0.43496603,73.4762
0.45742887,69.947075
0.49953014,70.12659
0.4404317,65.99491
0.36426035,67.26056
0.35466963,67.06178
0.35737145,67.31962
0.4768173,61.78164
0.341028,62.189655
0.36865023,63.32374
0.3255746,61.37335
0.2322911,62.128674
0.2511073,57.956352
0.19004628,64.4726
0.22720535,60.973335
0.107138395,61.788284
0.11776212,63.01343
0.08313654,61.457073
0.14478607,64.73179
0.03973992,62.03929
0.09281308,66.20246
0.015242826,66.13
-0.05915301,68.78805
0.0032541105,67.905846
0.09380317,70.51565
0.058478728,72.49169
0.049371038,74.206825
0.18452,77.00999
0.24683958,78.626144
0.26245168,78.47911
0.33797184,83.26163
0.4284046,85.41413
0.50459224,85.41098
0.565497,91.82788
0.69904274,94.868935
0.85425633,96.35276
0.8434002,98.57775
0.92759955,101.908195
0.95475394,104.64751
1.0427493,103.294846
1.1402261,107.56784
1.0831246,110.81016
1.1882577,113.26015
1.2300614,114.66224
1.2439232,115.4438
1.2680045,119.71475
1.3325379,118.35168
1.2711433,123.55078
1.3352407,123.22342
1.4418185,124.94446
1.3417449,126.20942
1.3664658,130.73631
1.47164,129.88437
1.3057703,126.99154
1.3866824,131.8913
1.3568523,129.52222
1.3552389,129.77357
1.2770772,130.93607
1.288211,129.16263
1.3041689,126.27651
1.3283861,128.59123
1.292651,128.40564
1.2398036,126.35816
1.1841908,127.25303
1.1952598,126.51425
1.192955,126.202705
1.1010014,125.842255
0.9846906,123.99704
1.0803732,123.74902
1.0030742,121.87724
1.0735488,119.12227
0.92409307,116.53539
0.9526562,119.84339
0.89441603,119.27961
0.94195896,115.04108
0.9294456,114.75206
0.84088415,113.55
0.9758134,109.276184
0.94269234,108.734085
0.89604527,107.74118
1.0632815,107.25136
0.8194624,104.581024
0.87036383,106.27996
0.78173625,100.52213
0.8374289,99.637535
0.77312165,98.652214
0.83888537,97.84791
0.6993811,95.829506
0.72164065,94.811455
0.73112607,93.39429
0.57987374,94.269264
0.64180255,93.14641
0.627897,87.509346
0.52578884,87.54592
0.48467767,88.2558
0.44704705,86.41024
0.51836914,84.99029
0.4149058,83.78705
0.4221827,79.833786
0.41908437,82.276375
0.38712353,79.058
0.35842964,77.63325
0.38701952,76.80048
0.42982,74.100624
0.30794346,73.98789
0.40127373,69.50316
0.3709149,69.37124
0.26568913,66.73462
0.32138216,68.29642
0.4419254,66.51508
0.31670967,63.034676
0.42877045,65.33581
0.25344017,63.992485
0.2705888,62.550133
0.33862633,62.097557
0.25720555,59.600666
0.3276633,60.79306
0.2096928,61.008373
0.14601617,64.97138
-0.020575488,63.76739
0.07159478,61.755173
0.09163228,62.741062
-0.07312933,61.901173
-0.032441705,62.89412
-0.09092467,66.39805
-0.00081294373,69.330055
0.024665339,65.23725
0.024793936,66.28219
0.055191245,71.9688
0.08090831,70.93663
0.09943309,74.18984
0.20003499,76.38851
0.27079114,79.66322
0.31325585,79.61627
0.3316003,81.85478
0.4723274,88.41961
0.60144484,86.703735
0.6823053,90.44431
0.63342905,92.66339
0.8050505,94.517494
0.8403994,99.8629
0.93691254,99.3243
1.0376021,102.546265
1.059663,105.429695
1.2225431,102.64548
1.2425733,108.88705
1.2886726,109.76839
1.3459203,113.16245
1.3545965,118.23584
1.3448846,120.3459
1.3962245,120.52951
1.473229,122.00617
1.5106455,120.91441
1.4266759,124.39649
1.4570721,126.30169
1.4606146,124.66464
1.538633,127.09019
1.5426863,127.832405
1.5977496,130.18169
1.4760519,132.89534
1.5010371,129.57721
1.4991546,129.75142
1.4488952,129.36818
1.4917663,127.61869
1.4315909,132.91557
1.35891,130.66449
1.4148593,127.07829
1.3795241,126.83338
1.4004376,127.03356
1.3429391,126.90437
1.2585336,125.5983
1.2556206,124.178215
1.2740932,124.24517
1.2811184,123.04524
1.1942968,119.99898
1.2550024,118.40825
1.1390561,118.662315
1.18362,115.01956
1.1642822,114.74282
1.1346303,113.85319
1.1482038,111.86027
1.0908089,113.66655
1.1595248,110.41233
1.1366174,106.89492
1.1564918,106.96284
1.1678836,101.73198
1.1184244,104.60416
1.0735523,101.46524
1.1590524,100.14428
0.9853626,100.9341
1.0672791,97.444695
1.0813321,98.32362
1.0254248,94.70639
1.0029061,95.19021
0.94077736,94.611206
0.9010824,92.88027
0.84543407,90.917946
0.8319183,87.18958
0.72299147,84.97763
0.8607936,82.44829
0.73217636,85.57811
0.72336364,83.326614
0.8324817,82.71169
0.7193168,77.67704
0.73251253,82.19326
0.5445028,77.15875
0.6221209,74.533844
0.6187687,74.447174
0.6868844,73.8183
0.626438,68.66112
0.6504724,73.54662
0.7132411,66.45668
0.61606055,66.81151
0.6000747,64.88133
0.68491733,63.077732
0.6602836,66.90204
0.5773487,65.034836
0.603695,64.27096
0.584801,63.367233
0.58804005,61.081318
0.54244,61.566673
0.56912977,62.182728
0.5116748,62.38446
0.39746132,59.440548
0.49577335,62.222824
0.42868516,62.219994
0.3772143,63.53863
0.31595123,64.30394
0.3686021,65.95871
0.37148002,61.86846
0.4303221,66.55607
0.39018837,66.83652
0.33924714,69.91136
0.4124488,70.49825
0.3954834,74.538506
0.5707018,72.540375
0.5841046,76.55795
0.67741567,80.3062
0.6902096,82.316925
0.84145004,84.79729
0.8457915,87.37112
1.0651255,90.571915
1.0977982,89.972145
1.1373152,91.24788
1.1731377,97.30078
1.3542321,97.932816
1.3761857,100.77177
1.4585371,104.44147
1.554211,108.39711
1.6063566,107.54457
1.6332335,112.62311
1.6930231,115.995445
1.5237674,115.892426
1.7496784,119.17937
1.8133397,122.217094
1.7528442,120.75329
1.8153194,120.34612
1.7762508,123.73502
1.7987759,125.741035
1.9002126,125.85418
1.8327882,129.88908
1.8140625,131.45761
1.9517214,129.80922
1.7917188,132.47583
1.8281381,132.80641
1.9858727,130.81435
1.833714,129.29604
1.8642099,131.44342
1.758521,129.64688
1.7628297,131.821
1.8361773,129.5982
1.822436,129.17235
1.6673546,129.99138
1.7204043,124.6783
1.6216166,125.03623
1.6809232,123.5455
1.5767591,124.91217
1.5889416,121.38741
1.514266,121.12786
1.5971266,118.96342
1.582543,118.376045
1.5107435,116.01437
1.4771184,116.80416
1.497529,113.19104
1.4508517,112.485435
1.4628763,112.53915
1.5503919,108.64656
1.4569757,105.80084
1.4989433,106.33158
1.4612988,101.980606
1.5006648,102.29852
1.4347097,101.80146
1.3809757,100.11424
1.4240608,102.89617
1.4454025,97.60673
1.3091555,96.34296
1.3257312,93.67533
1.3949821,91.64024
1.3005735,92.07014
1.2080863,90.02192
1.1745155,91.07325
1.2189337,91.319336
1.1120605,87.106346
1.1270758,86.131294
1.0782825,84.96829
0.9751922,84.31218
1.0208508,80.69126
0.97561353,81.42347
0.99264175,79.039986
0.99370205,77.79965
0.8740191,77.540504
0.92212373,73.625786
0.9845184,71.73099
0.9240897,71.12272
0.9540077,72.712326
0.89541334,71.57769
0.87651485,68.47982
0.9274606,67.22844
0.9624615,64.22803
0.9272951,66.27874
0.91609585,65.727455
0.88051844,64.695366
0.7763979,62.4452
0.816259,63.169495
0.694639,59.65008
0.7207117,63.142033
0.7222713,63.087173
0.67522347,60.54959
0.6270458,61.042046
0.5894019,60.93449
0.60056067,61.04069
0.6060736,63.940784
0.60741866,65.28062
0.5722055,66.47711
0.6042924,67.68052
0.57566345,68.85371
0.53984934,71.244095
0.6041152,70.02448
0.6193978,73.248985
0.7072796,75.16965
0.699573,75.81169
0.78782237,79.151634
0.92599934,77.809135
0.8993966,81.13262
1.0936003,88.37363
1.0882195,85.642586
1.1708375,94.277214
1.3377846,93.84648
1.4089459,98.198006
1.4569738,100.230835
1.528488,99.42191
1.5786023,104.0089
1.6257255,107.57644
1.6833373,108.773056
1.7282779,112.35941
1.7747772,111.573456
1.8835022,114.0977
1.8731636,116.07947
1.7918166,121.30077
1.9520863,122.02974
1.8754771,123.74455
1.9863542,125.87386
1.8986788,124.76282
1.9217057,127.35783
1.9295125,125.806816
1.9217837,127.490105
1.9311222,129.56181
1.9210291,129.33617
1.9257883,130.65166
1.8342927,130.784
1.8511567,128.2002
1.8837495,130.904
1.8880253,129.4129
1.8240368,129.12604
1.8374933,129.27362
1.6776873,128.27814
1.7076634,130.13719
1.7568185,126.30036
1.7030412,125.75465
1.605008,122.89665
1.6005142,125.131775
1.5528183,122.735176
1.6324282,122.2374
1.5075891,118.9884
1.5346774,116.914536
1.5610199,117.68799
1.569267,118.484726
1.439447,113.940636
1.4159709,112.72243
1.4060591,110.583466
1.3378185,111.734344
1.4186548,113.08627
1.4402039,107.849205
1.3621534,105.98101
1.4037551,102.31175
1.3188087,101.0514
1.2810217,103.54862
1.3216966,97.23352
1.2949775,98.81854
1.2741201,97.712265
1.2941238,96.86681
1.1751049,96.197235
1.0613389,92.421715
1.2025582,91.694084
1.0900785,92.320335
1.0481106,90.754456
1.0355954,87.32036
1.0090927,83.93188
1.0126253,84.241035
0.9527004,84.691376
0.8209244,79.7055
0.7566146,80.1262
0.8904828,80.434586
0.7996799,74.98071
0.75705487,79.60193
0.7551925,73.95857
0.7671844,73.50153
0.75098425,71.295685
0.7123523,71.5966
0.68680847,71.894585
0.73366386,67.44489
0.6861624,68.89096
0.7174233,65.00996
0.79354495,67.31029
0.6626825,61.709003
0.6656168,63.645103
0.61010987,62.863834
0.544723,62.247746
0.58511454,62.46567
0.48170015,61.697437
0.5410383,64.11389
0.48095497,65.897354
0.42032528,61.391712
0.42246994,66.43875
0.4402236,63.068584
0.38813975,65.33008
0.32929528,64.0803
0.30063227,67.52852
0.2780363,65.52807
0.38849604,68.05538
0.30888364,67.93458
0.3742372,70.56711
0.29862806,72.51787
0.34452352,76.45614
0.5292659,76.67252
0.59737885,74.5452
0.6287785,81.34224
0.678712,81.81735
0.70997244,89.57854
0.81562084,88.16217
0.91837096,92.26733
0.97328657,95.53877
1.0031143,98.254654
1.0923055,101.52624
1.1929506,100.394554
1.259452,103.73561
1.2994239,106.66844
1.2652107,105.66999
1.3775942,114.89446
1.5369024,112.34024
1.4688973,115.236565
1.483078,120.66656
1.5540135,116.98152
1.4949749,121.02021
1.5195217,125.43899
1.5883071,124.75187
1.5961593,124.95908
1.6631875,124.781685
1.6194383,127.84884
1.6737596,129.69614
1.6866459,128.91515
1.6270204,130.28333
1.5414797,130.51492
1.5675218,132.40475
1.5781838,132.79887
1.443094,131.52911
1.4410086,131.2398
1.4422773,128.98654
1.4272473,125.84987
1.4447356,130.7367
1.333273,128.01752
1.2858558,126.58307
1.3422292,126.25812
1.2452695,125.9448
1.1896868,122.78882
1.2004145,120.9106
1.3067963,121.54156
1.1488825,121.07654
1.1774749,117.003494
1.0496906,115.61315
1.1359736,115.50234
1.0518025,114.51237
1.0935215,112.105156
1.1695821,112.12576
1.0722653,112.23417
1.1148905,107.50857
1.0281396,107.48572
0.9770463,105.473976
1.0849593,103.35747
1.0275713,102.133896
0.9503981,102.33266
0.8509186,97.48979
0.953046,100.04321
0.9357055,96.62073
0.7345884,97.34045
0.8488453,90.948105
0.80151373,91.32748
0.7917367,93.18066
0.7148479,88.53641
0.66429955,89.20803
0.5669063,88.30025
0.5905139,86.62964
0.6429607,83.46556
0.54573166,87.03809
0.54078233,81.84372
0.40308943,81.978
0.44209832,78.027214
0.3504799,79.93924
0.38940167,76.35846
0.40195578,75.97543
0.36423832,75.22789
0.31341988,73.83809
0.3571136,72.17312
0.48351625,70.045784
0.41718653,68.29242
0.3103762,65.626564
0.34109476,67.79919
0.26945186,67.15621
0.3866879,63.59514
0.38836694,64.46511
0.20461294,65.60541
0.25262076,66.27871
0.2912319,60.511364
0.18977012,61.165905
0.20790285,64.21442
0.14814396,62.57062
0.0394773,60.973984
0.16814864,61.297794
0.09251283,65.35867
0.0919877,64.91685
0.047247622,63.28158
0.023250278,64.77431
-0.05357375,65.34081
0.03699792,65.88093
-0.009851935,66.86055
-0.036058765,71.992035
0.05311181,73.54448
0.05084506,70.91973
0.21456733,78.022995
0.17591496,76.61296
0.34503576,79.69455
0.3718143,83.44448
0.4559676,86.09525
0.55374396,88.70387
0.58234626,89.16725
0.6838709,91.454155
0.80471843,94.910995
0.9211276,100.41786
0.9224217,99.84365
1.0860978,104.55942
0.9361642,106.84319
1.0858163,108.37866
1.1831906,111.299355
1.2052947,111.7317
1.2262391,114.911415
1.2964295,117.22863
1.2647876,118.27802
1.3059384,120.54624
1.329204,121.5584
1.3390636,127.467155
1.3371577,123.58068
1.3510004,125.846756
1.3346179,126.29012
1.3140405,130.71223
1.3888075,128.9023
1.2448342,127.91057
1.3777804,131.17902
1.3541147,130.14024
1.3769327,133.41405
1.3022869,132.4082
1.3345824,130.45776
1.1969416,131.91893
1.2199628,132.50327
1.1611006,128.03532
1.1574787,128.47401
1.2318252,127.63489
1.0775734,127.21038
1.1704105,125.00509
1.1201236,123.87837
1.0938126,121.64032
1.0933799,123.816185
0.97953814,121.125374
1.0193228,120.831024
0.92894965,120.96812
0.9641164,117.058846
1.0109518,114.43883
0.91677505,113.461205
0.9255595,111.12312
0.954589,109.1611
0.96418065,108.24331
0.9381216,106.049576
0.9048435,106.06325
0.86678183,103.67141
0.8740814,102.41204
0.8285219,100.30172
0.9030427,100.63288
0.9245333,97.61287
0.77353454,97.13475
0.80598176,95.47768
0.7639457,93.96577
0.7670682,94.60644
0.74545866,90.5768
0.64883393,91.270065
0.6169244,90.12684
0.49318892,88.57429
0.54869103,87.79897
0.4244978,83.868034
0.4952757,83.12822
0.43095472,81.60821
0.44529626,81.761505
0.47867075,81.26366
0.3994355,79.30573
0.2875352,73.28064
0.33519736,75.586105
0.33911422,73.72965
0.48881403,72.85469
0.32778093,69.649956
0.3601962,67.94169
0.39629707,70.04498
0.42135593,65.270966
0.31293017,65.03735
0.45412493,67.09042
0.34201103,64.47905
0.37331736,66.0803
0.35182327,63.031067
0.28898257,62.106888
0.18049555,59.779915
0.20851839,57.88951
0.1852317,62.31816
0.22285958,58.848103
0.14809087,61.595024
0.17796145,60.22591
0.14388183,63.43374
0.027344197,63.182888
0.08081794,64.88064
0.09718858,65.200874
0.063960336,65.096725
0.06020084,64.54619
0.16778378,69.536415
0.13393144,71.089096
0.07580944,72.244545
0.12027177,72.02156
0.21682808,73.58703
0.40788516,76.00447
0.3499414,79.68284
0.4645737,82.38378
0.54448044,85.789795
0.67201144,86.24261
0.6008357,87.14977
0.7632362,91.160194
0.84593934,93.58489
0.96843886,98.63883
0.9993547,99.779854
1.0920899,102.12177
1.130436,107.483284
1.2573822,106.36237
1.2213315,110.93811
1.484387,111.26106
1.3952091,115.82413
1.4441081,115.3261
1.5010746,117.57606
1.5157794,119.80995
1.3808081,118.5116
1.4935129,125.44903
1.4648294,125.25173
1.5388052,123.18951
1.5860835,125.98394
1.609725,129.24438
1.5794368,128.7839
1.624552,126.87246
1.4800082,131.65697
1.5227104,130.92776
1.559844,129.568
1.6022837,131.38556
1.54539,130.99054
1.4881352,125.079834
1.5004184,128.07072
1.4706769,125.60147
1.4105191,126.26816
1.4327234,128.4901
1.4233533,124.59839
1.3427557,125.28899
1.3340129,127.302475
1.4236479,123.3819
1.2871313,122.710495
1.2163454,120.68656
1.2894447,121.10801
1.2083373,116.643
1.2629809,119.45339
1.2237738,113.710144
1.2008548,115.12381
1.1659937,110.63295
1.2496283,108.683044
1.1860318,109.28083
1.2042155,110.81136
1.2003067,102.70237
1.2460561,102.5809
1.1520544,101.88238
1.1873218,103.33525
1.1582028,99.11386
1.1729048,100.32948
1.1594801,98.84802
1.0780112,99.36255
1.1373814,96.596855
1.0733466,96.58225
0.95355594,88.46085
0.906294,93.17076
0.9568386,89.10773
0.9089665,85.87802
0.90436053,86.51713
0.820197,87.093414
0.7995548,80.86427
0.8369545,82.23642
0.8611224,78.32434
0.70813954,83.697975
0.79623085,75.73679
0.7901791,79.11758
0.8040609,74.3378
0.72998273,73.89925
0.7568987,75.33565
0.8207042,72.50376
0.7038868,68.97061
0.77320886,70.082596
0.74993914,68.19252
0.69617313,68.79094
0.8282445,65.84835
0.73207164,63.92351
0.6749105,62.392517
0.6605681,62.591988
0.6484689,60.2226
0.6011565,60.16941
0.62967545,61.04644
0.62039787,61.84301
0.61105204,65.45012
0.550127,60.121918
0.50224763,63.99907
0.41490775,59.903732
0.48481572,61.654907
0.4221898,62.381954
0.44138733,66.615166
0.3538626,65.81038
0.41421765,66.73487
0.50933814,65.635124
0.4667306,67.499054
0.4643877,71.746826
0.5088619,72.94175
0.75889164,74.46074
0.644222,77.076035
0.70273656,78.08525
0.85742754,81.93448
0.8507105,84.240204
0.9729071,85.83382
1.0607964,88.666794
1.1518716,92.89382
1.2217647,95.11196
1.2891786,98.93572
1.313081,100.79158
1.4072571,103.467606
1.415102,106.932625
1.6272781,107.94798
1.6139768,113.61239
1.643033,112.68884
1.77763,115.60456
1.798148,112.572044
1.880723,120.74994
1.8405403,119.082245
1.8145982,119.115776
1.8308177,123.80789
1.9123272,125.06615
1.8954232,125.54842
1.9100986,125.67565
1.8427776,125.19254
1.8345147,130.71729
1.9830912,128.88734
1.9881856,132.07224
1.8644623,130.92963
1.9785658,132.84383
1.8722827,128.2723
1.8873895,132.15154
1.9084071,130.32399
1.845995,133.00786
1.744138,129.02658
1.7747684,126.234024
1.7009444,126.23045
1.6919959,128.75041
1.7506044,124.89798
1.6378344,126.649185
1.6373456,123.1412
1.6262475,123.17658
1.6532744,119.66283
1.5290259,118.968834
1.6225413,119.33173
1.5735492,116.717415
1.5644867,116.944145
1.5054035,113.08012
1.5170696,112.82867
1.4838978,109.77872
1.4965754,110.68769
1.5467826,108.203926
1.5395046,104.89229
1.4866266,107.20102
1.4704777,102.839516
1.4437976,102.11428
1.4610573,105.020836
1.402255,101.40498
1.4403794,99.58682
1.3557799,97.57945
1.3628366,93.17939
1.3344538,90.90392
1.2775967,93.5996
1.2315326,90.993324
1.2415844,92.715614
1.282715,85.10317
1.1346397,90.96913
1.0849627,85.98443
1.013459,84.81056
0.9508038,83.381035
1.04363,81.00859
0.93245405,81.428696
1.0191932,76.47082
0.9568819,73.87486
0.9608827,74.850525
0.9055044,74.99323
0.97153205,73.6635
0.8458677,68.64026
0.90000874,70.61414
0.94746476,68.40192
0.8949947,69.5327
0.85956967,66.39906
0.85676754,66.32796
0.8459876,63.98005
0.8956464,65.534
0.7783601,63.973164
0.81127614,62.54655
0.81072265,63.49512
0.7122194,61.9557
0.73973745,62.582943
0.7569724,61.21288
0.71605974,63.74948
0.666388,63.86585
0.65469795,58.216965
0.47153342,63.27807
0.6005343,61.405834
0.44794703,66.00622
0.5160955,65.7345
0.50644225,67.31654
0.52453595,68.5305
0.5279448,71.74119
0.56305355,70.03334
0.5697204,73.94839
0.6471964,75.07255
0.7459981,77.19538
0.77634114,77.27598
0.8461282,82.32656
0.96361095,85.701614
0.96881354,88.70751
1.0465411,89.64163
1.196879,88.83882
1.2629088,92.08801
1.3509694,98.5013
1.4739487,96.15392
1.4576614,101.66558
1.5755106,103.80414
1.6333393,109.14368
1.6642078,110.70836
1.6845793,112.40371
1.7965515,111.969505
1.7785481,117.12058
1.8412725,119.542076
1.8863639,120.80372
1.902089,123.53738
1.8775055,123.233894
1.8770875,124.687454
1.7942575,128.4568
1.8725375,127.81603
1.9688159,127.240295
1.8653558,131.5416
1.8230115,130.30637
1.8936958,129.36047
1.8741188,127.966125
1.7776103,128.57367
1.8605196,131.64519
1.8562242,129.1318
1.7540773,133.02606
1.7602737,131.00162
1.7415259,127.159096
1.7172213,126.59388
1.6296936,128.77278
1.6154919,128.02444
1.5853631,123.468765
1.6649044,123.98649
1.5310508,123.00582
1.5417476,121.45495
1.5494925,121.90746
1.5254822,124.084
1.4453337,118.14991
1.4023651,116.61077
1.352664,113.44477
1.3383101,116.39181
1.4033916,111.50257
1.4562991,110.95345
1.4340446,110.647575
1.2823367,108.42155
1.2858015,107.01864
1.4185055,105.48726
1.2891917,105.090096
1.1970371,101.87529
1.3942426,101.78998
1.1865487,100.10512
1.2236252,97.93287
1.2754357,100.02857
1.079614,93.340805
1.0496055,95.225235
1.0486903,94.5259
1.0029329,91.1878
1.0697614,89.03202
1.0138564,86.05999
0.9625709,83.602936
0.955967,83.83738
0.828757,82.76141
0.8181648,83.13447
0.84316736,79.587234
0.76435256,82.12175
0.7947786,80.35074
0.7823065,76.54959
0.649989,75.40162
0.7683475,73.29335
0.70172423,70.1632
0.7334832,71.567
0.6068462,73.599
0.7091176,68.55727
0.7291237,66.94889
0.7017283,65.45333
0.66265196,65.681984
0.67932427,67.503525
0.59610707,62.471947
0.6297541,62.131363
0.6332827,62.65046
0.4637157,61.469185
0.53359324,57.789917
0.4692413,64.05255
0.40901032,60.620663
0.42450953,62.053658
0.32042766,62.99106
0.45579386,60.626453
0.31214765,60.50691
0.2595678,65.59412
0.1265951,62.415195
0.17839624,64.06438
0.2658949,65.144356
0.192814,70.795204
0.18976459,71.155945
0.30917704,73.0462
0.35256913,72.19752
0.33317608,73.81631
0.5047897,75.73943
0.3664044,80.21666
0.4913675,85.931694
0.60357326,82.53985
0.66541237,86.68797
0.7061053,87.45925
0.8410804,92.3416
0.8685946,93.53823
0.99005747,95.27361
1.0174382,99.50033
1.0685147,99.59001
1.2349315,104.968216
1.1965435,105.22255
1.2849802,108.78744
1.4172117,110.40681
1.466845,113.979225
1.3670716,115.14293
1.4125923,120.3009
1.5181514,118.50698
1.5560213,120.95749
1.4501082,126.05566
1.4726706,123.93593
1.5282842,121.84567
1.5568018,128.02121
1.5250455,125.30166
1.5795195,129.79936
1.5269729,128.44987
1.5254242,132.22351
1.5294396,128.83124
1.4195118,129.839
1.459271,132.42006
1.4389526,130.64717
1.3877535,131.41328
1.4706936,128.35014
1.4679396,131.56068
1.2843789,126.59289
1.2744833,126.77058
1.2626139,128.05156
1.3001022,125.49346
1.290306,124.27236
1.1332895,122.234856
1.1927916,122.21469
1.1050612,122.242256
1.1148211,120.25354
1.1000037,118.91647
1.0672655,116.94046
1.1511855,114.67303
1.063116,117.53484
1.0015537,112.916565
1.0483007,113.77347
1.0612359,112.19249
0.9840368,109.525925
0.9950649,105.47317
0.93583953,106.45697
0.9442964,105.23247
0.89690197,99.73789
0.83069104,100.47785
0.9022971,104.84201
0.84706426,99.78276
0.85979885,93.83395
0.81894344,97.4548
0.7659366,95.0048
0.7950545,91.33381
0.71858585,91.884895
0.63509494,87.63084
0.6295155,88.92115
0.5204967,86.44374
0.4779894,87.03403
0.5077255,84.07534
0.4958426,84.282776
0.48606452,80.60932
0.43770114,78.9809
0.35471663,80.06404
0.33419192,79.71817
0.302181,76.04565
0.41529962,75.31034
0.4248904,71.75897
0.47133628,68.70288
0.3812974,73.635345
0.3075556,70.407036
0.38044405,70.38601
0.36972404,65.25031
0.39270973,66.31864
0.38932216,67.55101
0.39615998,62.55848
0.22225964,60.874302
0.24517705,64.28721
0.26433948,62.949223
0.23006335,62.516243
0.14474948,59.15449
0.16684926,60.95986
0.10383454,61.51383
-0.009531247,63.686016
0.12181909,62.020226
-0.14429057,63.138298
-0.0047699013,62.75763
-0.12153315,64.64455
-0.06272102,60.702213
-0.14263795,64.412315
-0.08746374,66.90983
-0.06713514,67.58012
0.022264412,72.23624
0.075191535,72.96405
0.14980718,74.16669
0.077185154,75.06663
0.22091253,79.029076
0.24692914,79.77932
0.2897067,80.901726
0.43478754,86.40921
0.4551836,86.51429
0.5291815,91.38152
0.69248587,93.227974
0.7129421,94.48547
0.8191027,99.97465
0.90998334,98.505745
0.9507684,103.20412
1.0358571,106.8744
1.1928506,105.98677
1.1025906,112.79206
1.1777624,109.82549
1.221426,114.87942
1.3033669,116.24672
1.2652212,119.51404
1.3362787,120.38639
1.2885443,121.83994
1.3303126,124.34875
1.3173858,127.81478
1.4117357,125.32074
1.3884797,128.10622
1.4174813,130.19403
1.3999869,129.40485
1.3790013,129.2098
1.3915066,127.58146
1.2675515,129.63304
1.3252363,129.69307
1.3699749,129.38394
1.2971603,130.15645
1.3059622,126.20172
1.2461423,130.20898
1.2334312,128.3114
1.2385916,127.88273
1.239181,125.33081
1.2099296,125.59207
1.2042519,122.789734
1.0999953,121.31219
0.999699,122.36133
1.0984058,121.54577
1.0520093,120.574585
1.0471288,117.2245
0.9441881,115.572685
0.95938843,115.72975
1.0012357,114.37957
1.0456866,110.71627
0.887021,112.87699
1.0093277,108.85264
0.94171333,106.034615
0.9461582,105.08817
0.85640013,105.34812
0.8775769,99.96687
0.9505922,103.951096
0.99769735,101.07657
0.82447803,100.815994
0.82047796,99.48214
0.7297988,96.73486
0.82558155,97.58067
0.799845,95.00224
0.70860714,95.01254
0.69119185,92.56531
0.7225369,92.26703
0.7023718,88.63624
0.5802236,86.153564
0.5335659,86.53097
0.61549777,85.47695
0.61039925,82.297134
0.37094617,81.37705
0.4395541,79.770164
0.5227961,79.26974
0.385846,78.40182
0.4128514,74.52331
0.39981198,76.33522
0.5000142,75.18794
0.42845032,71.878456
0.5126471,70.57368
0.43431446,70.829834
0.43632308,67.83791
0.43674108,66.98658
0.41739884,66.95963
0.43029732,65.932846
0.46242785,62.237373
0.4628508,65.2536
0.3971604,61.71327
0.31529558,63.354145
0.38790923,61.66197
0.35768574,61.205013
0.28403467,60.597214
0.20965093,62.319847
0.26475284,61.584488
0.23953278,59.91714
0.19974312,61.651783
0.09014271,64.77219
0.15543765,63.798817
0.16939569,64.58145
0.07885918,65.6415
0.20008746,66.5102
0.1951642,65.577255
0.17048827,68.95661
0.2603095,70.00161
0.24154,71.025246
0.2691947,78.39107
0.44186437,80.2451
0.42889172,79.15168
0.55015606,83.53265
0.6152167,86.42432
0.7504133,88.55204
0.7919272,88.10099
0.8501123,92.369896
1.045425,96.64891
1.012734,103.6859
1.1603884,98.65067
1.2386029,103.410835
1.2692591,103.967636
1.3226757,108.07757
1.3177389,110.84157
1.3509115,113.11833
1.4385521,115.70746
1.5385354,116.55881
1.5333891,119.407234
1.596324,119.44494
1.6046187,123.18914
1.596997,124.68979
1.672677,124.10986
1.6095837,125.61014
1.623513,129.59972
1.7317536,129.80751
1.6234893,128.79922
1.5994868,130.18854
1.609653,133.21373
1.7337296,129.82109
1.7146897,132.15416
1.6948622,131.31099
1.7674912,132.30875
1.6319048,132.10313
1.5910497,129.77998
1.5776043,130.04924
1.4076544,128.85092
1.4920034,129.42374
1.4800544,123.98735
1.5124515,123.342834
1.464666,125.07719
1.3352201,121.52239
1.3332933,120.54042
1.4193426,121.77968
1.3229429,117.71295
1.3466537,116.65287
1.3691007,115.56011
1.3148671,113.816795
1.2513766,115.03286
1.295784,113.22677
1.3070549,111.04798
1.3649663,109.1255
1.2723658,107.780136
1.2617785,105.06626
1.2607559,105.656334
1.1858332,103.17719
1.2693855,101.863205
1.219901,102.13876
1.1281086,99.823204
1.2546395,99.64689
1.1085716,99.41033
1.1120081,96.96045
1.170923,90.48715
1.063721,93.67807
1.0060027,93.436
0.96519846,85.68455
1.0207542,92.30713
0.8603355,83.996254
0.8664583,86.95078
0.8877393,84.91081
0.87888116,76.7426
0.8134811,78.75762
0.8605918,77.67139
0.8167076,80.95924
0.783767,76.45348
0.80284774,76.16517
0.9264024,74.13533
0.7199022,70.52152
0.819925,70.31317
0.8595181,69.296776
0.80054873,67.73158
0.85799074,66.78929
0.8285166,66.56097
0.8712709,65.888084
0.8525397,66.7376
0.8101446,63.94296
0.7529305,62.15276
0.7641248,65.11789
0.72163486,61.585182
0.6707568,61.868935
0.58706737,60.406773
0.7159334,63.181503
0.57104677,59.777016
0.55375946,65.043274
0.49893317,60.52126
0.53132355,62.50069
0.47452685,62.329304
0.5973109,68.36875
0.5030509,65.20804
0.46760044,64.011955
0.46745825,67.15559
0.533708,68.51159
0.6175492,72.222595
0.55680287,73.66573
0.63896036,77.714165
0.7077294,78.719765
0.8321238,78.71274
0.81430143,82.40189
1.0516802,82.572105
0.97533476,89.33569
1.0420759,87.50928
1.2043511,93.46282
1.246843,94.72852
1.3748308,97.66386
1.3799855,97.7364
1.5110558,102.7292
1.5439076,102.349106
1.5954626,108.79539
1.6521544,110.340256
1.7187338,112.931816
1.7361345,113.90693
1.8664889,117.78786
1.7738352,120.46849
1.9414282,120.72301
1.8713312,122.38598
1.894698,124.68383
1.9628428,125.44996
1.8401066,123.475204
1.9380391,126.7044
2.030129,128.36714
1.9165975,130.23799
1.9579446,132.13574
2.0048897,132.57556
1.8895752,130.4177
1.8603859,130.44016
1.9521894,130.70447
1.9632366,129.24902
1.8988655,128.71463
1.9028951,128.42542
1.859576,128.80872
1.7436371,129.21371
1.7283678,125.929276
1.7879865,126.98995
1.7911516,123.46736
1.7403963,125.04004
1.5783198,123.06267
1.6678795,123.492584
1.5137832,119.44976
1.5958115,117.29213
1.5870574,116.82639
1.5759573,116.32005
1.5824976,112.966484
1.4848014,114.63398
1.5813801,110.87047
1.4123887,109.521935
1.6264575,108.817154
1.4867771,110.501114
1.4894848,108.20916
1.4695674,103.63244
1.4787651,104.99585
1.4963208,103.90848
1.4935535,104.56314
1.360638,99.3573
1.3898787,97.571335
1.4205692,98.78863
1.3800334,97.56436
1.2723879,94.67365
1.2780176,94.42277
1.2775105,88.456245
1.1607044,89.17137
1.1478658,87.58265
1.1639367,88.13158
1.1040413,83.58964
0.97906995,83.24031
1.0599104,85.53657
0.9544306,84.02373
0.9674211,81.08711
1.0281447,76.713036
0.9035346,77.032616
0.91402787,75.48993
0.85652304,72.12866
0.8449662,72.21503
0.9783605,69.673294
0.8856999,69.08899
0.9017007,70.29374
0.8682576,66.67731
0.93779486,68.66839
0.9227934,68.57771
0.8443909,64.774666
0.82010484,62.77983
0.85042703,65.17455
0.7851283,62.45093
0.71479446,61.911022
0.6516028,61.48581
0.74032503,57.142033
0.6291034,64.63612
0.6194151,62.404472
0.5699386,63.28544
0.6331044,62.032024
0.51334554,64.395424
0.5178512,65.19333
0.519045,66.80945
0.44451472,68.470024
0.51260537,68.905815
0.6165543,68.36047
0.48955002,71.2025
0.55770904,72.383575
0.5817963,72.6125
0.6990771,75.428955
0.71394676,76.57271
0.7237333,75.8062
0.7965983,83.0891
0.9540813,84.63207
1.0252782,88.34988
1.0400275,86.80463
1.2145325,91.014595
1.242689,91.71177
1.3526622,98.9428
1.4650481,100.015274
1.4697014,100.76125
1.5502455,105.13228
1.5187504,105.39822
1.6012238,109.811485
1.5609525,112.03913
1.6981169,114.81725
1.7205771,116.79269
1.7523577,119.99728
1.7711495,119.338615
1.8175746,124.936966
1.8355554,124.57759
1.7918427,124.43903
1.8587106,125.39539
1.8178421,126.241486
1.8795048,126.16618
1.8702104,126.15025
1.8572483,129.10576
1.8389746,128.8747
1.8286918,131.77803
1.7969321,130.24123
1.8057903,132.59889
1.7791284,132.49759
1.7045487,130.48692
1.6922387,127.39986
1.706875,129.70389
1.6898625,130.04668
1.6424291,127.37733
1.5495955,124.609505
1.556076,126.16463
1.4913337,124.37067
1.5044985,124.64531
1.4845942,121.84272
1.5197083,119.38297
1.3574576,119.57156
1.3839387,118.747314
1.3284897,115.40183
1.3296862,116.277306
1.3618907,116.084625
1.324938,111.42658
1.2944596,108.257996
1.3825802,108.352806
1.263979,103.20244
1.4049861,106.038475
1.1364969,105.55423
1.2612742,106.766815
1.2453189,101.11644
1.1555786,103.17799
1.2577173,103.906075
1.0952564,95.648674
1.147274,96.50199
1.1012685,93.20578
1.0548251,93.97935
0.9943755,94.15468
0.9663891,93.601585
0.94270253,87.40472
0.8806063,89.11606
0.8652051,89.28237
0.84966725,85.21017
0.74881345,83.74513
0.8026134,82.57857
0.69700694,82.4182
0.6437269,78.14072
0.753339,77.99153
0.66161263,77.9327
0.6286494,72.28481
0.54928267,73.712654
0.6304792,71.15806
0.6181959,70.58293
0.61333317,68.944824
0.54184884,70.754524
0.58419347,69.61716
0.51853955,66.88213
0.59366184,63.116383
0.556181,66.0751
0.5033669,66.01896
0.44413733,63.469257
0.50691307,61.911907
0.49505985,61.258274
0.43567663,61.990437
0.31961492,63.134808
0.43207604,60.757027
0.30158067,62.239872
0.30871773,60.145958
0.141454,62.55478
0.20159082,64.74768
0.21305898,64.867226
0.16630445,63.223114
0.08718671,64.94374
0.09500591,67.9944
0.12996967,69.92002
0.12474158,69.08669
0.26569033,75.687614
0.22161217,73.28368
0.297037,76.12194
0.36754993,73.78268
0.36917028,80.87681
0.42376104,80.76328
0.6137921,83.64315
0.6131309,87.959114
0.66505486,88.44629
0.7091746,90.71951
0.8667087,96.64595
0.9142911,96.80767
0.870121,97.648605
1.1283427,101.36711
1.0746922,103.07161
1.1269137,107.21349
1.2877513,112.15645
1.2914833,112.56026
1.2575686,112.574326
1.4224236,117.16912
1.3839834,120.18896
1.3862092,120.77428
1.3970402,118.34639
1.3961308,123.02012
1.4895072,127.21797
1.4318186,126.81386
1.5607214,128.58852
1.4029005,127.36499
1.4554505,128.36736
1.395125,130.34973
1.4343078,129.57666
1.5296264,128.61922
1.5046711,131.78706
1.3997288,129.71243
1.4721981,129.37694
1.4705267,134.27129
1.3280919,128.92148
1.2821542,128.55562
1.3246956,128.0459
1.2817259,125.73174
1.2663895,126.562256
1.1663132,123.3157
1.2314683,125.745895
1.2036687,121.643196
1.0992757,124.73552
1.1908275,120.69956
1.0694363,117.87442
1.0357699,118.81339
1.1252484,113.13534
0.98494923,114.957565
0.9900659,115.50575
0.95921415,113.94695
0.847316,110.70866
1.0346245,106.63673
0.8913382,107.666954
0.8860472,105.776566
0.9062269,104.63098
0.9213705,101.303986
0.894145,103.21717
0.83813107,102.83268
0.92319137,98.61055
0.81480217,99.98722
0.8463971,97.735954
0.77385896,96.98008
0.7017753,94.61797
0.6964553,91.70371
0.5850236,92.95215
0.665978,90.67551
0.5035684,88.10672
0.54642665,85.752815
0.49704474,85.7394
0.44576442,84.30832
0.5417251,84.26667
0.4982477,81.61731
0.3400018,80.27992
0.34476495,74.715164
0.37206775,77.534546
0.38554102,76.51286
0.3321262,75.322075
0.396896,72.05207
0.35058653,73.0787
0.18889032,70.55
0.36971754,70.19781
0.3952084,69.41833
0.32085538,65.87023
0.27629092,66.3037
0.27661833,65.251335
0.34147534,60.373314
0.21711382,65.450195
0.22638589,62.662067
0.18759722,64.152016
0.28170884,64.28597
0.13904323,63.91363
0.11487669,62.062008
0.05143024,62.088547
0.078005575,61.881294
0.020957986,65.73819
0.012871661,64.97805
-0.055618476,63.53088
-0.03441232,66.28048
-0.14378889,66.44216
-0.05503627,64.91826
-0.07536055,65.48126
-0.072040044,73.03698
0.01771314,69.08391
0.11308539,70.15118
0.117191166,75.34527
0.15021518,77.34551
0.17299584,78.04661
0.27298245,79.43507
0.3104132,82.16811
0.4261563,84.52521
0.5682687,85.20718
0.59893435,91.43061
0.68057775,94.41059
0.79603165,97.485085
0.81005555,98.6264
0.9282528,100.41719
0.97242683,104.35325
0.9999294,106.85947
1.1594036,109.67686
1.2503546,110.083374
1.1845046,114.016525
1.3094122,113.93585
1.3292435,119.44756
1.2481394,118.73065
1.3391223,123.36775
1.3288723,123.986496
1.4143959,123.610405
1.3890306,125.12739
1.3673154,129.45122
1.4064002,127.63801
1.4567964,130.34277
1.3596193,130.01262
1.3677565,126.32906
1.3133167,132.5069
1.375314,130.1167
1.3562853,130.49779
1.3837088,132.12172
1.4077815,132.59328
1.3239086,130.13548
1.2901063,126.840485
1.3105032,128.28275
1.2154521,126.333176
1.231959,128.79025
1.2347654,123.3132
1.2153945,125.83355
1.1305081,123.11843
1.1308165,124.38989
1.0631207,120.58563
1.0396997,122.2883
1.0728581,118.30338
1.0915362,118.84399
1.0956613,117.07402
0.97457963,116.33324
0.9866725,110.055534
0.96963805,110.91927
1.0237105,109.004456
1.0048752,108.044235
0.9638945,107.0538
0.99787045,108.09663
0.86618626,104.54361
0.9706501,100.60351
0.974578,101.381
0.9226674,103.47576
0.98199874,99.10285
0.8885198,95.9807
0.88870806,94.11874
0.827703,95.20187
0.7714604,92.1562
0.8063059,91.884964
0.7462574,91.70993
0.61839664,89.45559
0.68230325,85.65974
0.6899835,87.08361
0.6182161,84.10658
0.61055964,82.54309
0.57205343,82.353096
0.5817852,78.91879
0.55877006,78.60268
0.56493473,76.50805
0.6165005,77.35289
0.5517543,77.20948
0.52669835,70.35082
0.45230964,72.941444
0.550753,71.95768
0.4467913,69.5037
0.46257365,70.71404
0.4954078,65.96883
0.46478865,67.98945
0.57225615,66.53165
0.46234864,63.072884
0.5073166,64.74609
0.46356824,66.41827
0.40982226,62.454926
0.48139337,60.911625
0.37608483,60.85755
0.32164428,62.941
0.31678158,63.26387
0.26971826,61.752407
0.25330073,65.34976
0.25277779,62.51305
0.15871088,64.35246
0.16316472,63.711132
0.12076465,66.80494
0.15040182,65.34851
0.25192952,66.150826
0.20049445,68.64808
0.22398661,71.29826
0.2746685,72.88939
0.3540935,73.522095
0.42892012,74.5123
0.53294617,81.40572
0.493164,82.92606
0.5278545,83.96063
0.6192844,85.513756
0.7898052,89.8457
0.85821337,89.05982
0.9157236,94.72776
1.0880752,95.444954
1.1479067,99.75155
1.2309504,100.666
1.2961365,105.95194
1.3193328,108.40209
1.4027537,110.67051
1.4583615,114.32678
1.4620429,114.20387
1.4951309,113.45675
1.5817953,116.42767
1.5852432,118.87096
1.6552864,122.78473
1.6222773,122.64287
1.6340257,122.24016
1.6935576,123.54092
1.6770647,125.259766
1.6712059,127.09397
1.7496574,129.4297
1.7838216,130.7382
1.7659094,133.13498
1.7677692,130.63304
1.7159698,131.41286
1.7473686,129.74892
1.7583586,126.67368
1.7289674,129.04146
1.6772436,129.69145
1.5907372,131.61829
1.6464913,127.60471
1.6909151,125.64483
1.5688581,128.09697
1.4942921,130.08382
1.5542896,124.22994
1.5442221,120.36382
1.4455242,124.03088
1.479555,123.19181
1.4176011,119.50888
1.4395931,118.28154
1.4132808,118.331726
1.439909,115.68853
1.4297509,116.200195
1.3810444,112.99258
1.4248366,112.35544
1.3921474,110.3236
1.4033265,108.09401
1.332813,105.23598
1.3532757,108.60409
1.3400464,105.1936
1.3619698,101.90573
1.3063887,101.11121
1.2486659,100.60961
1.3039784,98.171295
1.2956351,97.63515
1.1595253,97.88348
1.2301017,96.47372
1.2431747,93.58313
1.1119572,95.05973
1.1579249,91.24807
1.0990616,87.944824
1.0717906,88.79559
0.97178143,86.63655
1.0333873,81.825485
0.871867,83.65746
0.93345886,81.70411
0.8915773,79.627846
0.7839991,79.4219
0.8662694,77.54672
0.9290176,77.011024
0.89277816,74.62624
0.8537059,73.77658
0.849763,71.38332
0.8870931,71.10047
0.8198989,70.36779
0.9424225,67.76854
0.89316565,68.23002
0.7663608,66.39892
0.84963495,66.90568
0.86605656,62.997494
0.85987115,62.853527
0.77102906,63.532173
0.81240964,62.39172
0.66926277,62.326725
0.77474153,59.535923
0.65415627,60.194393
0.6924378,63.7003
0.6608933,60.8535
0.55312264,62.48085
0.53359807,61.779015
0.5302778,62.244804
0.4487573,63.344486
0.54540735,62.917473
0.46684143,66.09644
0.5372679,68.151085
0.5510869,68.81698
0.5875892,69.36976
0.6174928,73.36883
0.6169689,75.74889
0.7817838,78.98488
0.7724399,81.16268
0.84955734,81.54814
0.9497302,79.677216
0.96485543,88.635475
1.0997542,90.218285
1.185581,88.978745
1.2244813,96.209915
1.2291383,97.3103
1.2773346,99.168655
1.4062545,102.8249
1.5645386,106.25361
1.6724718,110.82573
1.682498,107.31546
1.8221538,110.8035
1.7972873,111.75627
1.8598166,117.21186
1.8831811,119.61661
1.8632042,118.89952
1.9154614,123.176056
1.928801,122.16143
2.03828,122.891205
2.005546,125.55175
1.8354895,124.37541
1.9964546,123.0297
1.9591953,128.43445
1.9450436,129.0933
1.9610283,131.833
1.9470204,128.23154
1.9215846,129.29562
1.9459275,127.699776
1.8668915,130.08481
1.8256911,129.32393
1.8344476,128.8253
1.8419362,128.2426
1.8316116,128.99342
1.7398529,123.89402
1.8478776,127.04692
1.7721173,122.184685
1.7471548,123.5279
1.6462612,122.578995
1.5823504,120.47808
1.5782479,123.24425
1.6012772,116.78734
1.6021413,118.94739
1.5630273,116.51873
1.5446738,116.27483
1.5407376,113.950035
1.5331539,114.791595
1.55256,110.59485
1.5922168,111.738235
1.5365713,109.23637
1.4461515,107.5634
1.4314003,105.6037
1.3771766,101.57098
1.4296906,103.418686
1.4029356,101.59062
1.3737073,98.34408
1.3466779,98.05619
1.3872037,98.35405
1.2981676,94.48352
1.2748221,96.13094
1.2507015,92.17815
1.2093219,92.069664
1.231894,93.05133
1.1903574,89.00856
1.1668279,86.71857
1.0108662,87.70313
1.0296843,86.4038
1.0552515,82.26367
0.87172085,80.92535
0.9747295,81.48514
0.96995926,76.60828
0.95710194,76.31003
0.9031433,77.38687
0.7962161,77.78513
0.91118056,73.91005
0.8538458,72.576454
0.91304266,70.5999
0.8308224,69.4461
0.8162181,71.67744
0.8325148,66.68938
0.86392355,66.15157
0.92819834,63.75692
0.86495394,64.57508
0.8023117,65.17924
0.7622949,62.60546
0.7331946,64.20612
0.7055749,58.351185
0.67457217,61.991207
0.7251135,64.157234
0.5656029,61.77305
0.5799401,64.44409
0.46291563,60.235195
0.47193968,64.05809
0.53463894,63.62984
0.49411055,61.612583
0.40667948,63.978928
0.5035559,61.931084
0.38845095,65.10064
0.45975092,68.55304
0.44627845,71.87935
0.56211287,70.177315
0.650628,73.02568
0.603127,75.50691
0.5951471,79.743324
0.77435994,78.68188
0.72961473,82.49449
0.83792806,85.68796
0.94409215,88.678535
1.0658523,89.23941
1.1726568,90.99903
1.1668836,96.38352
1.2457436,97.372665
1.31334,101.10406
1.4040821,102.7437
1.4995675,101.92761
1.5893004,108.724075
1.5346812,107.4043
1.6297125,112.36208
1.6122314,117.840935
1.7472535,118.44797
1.773919,118.2486
1.652556,123.18144
1.7272491,124.03797
1.6602095,121.219925
1.7878968,128.22838
1.806404,126.74173
1.6453378,128.11198
1.8352019,129.87132
1.730664,131.2048
1.7162491,132.71762
1.7454236,130.33685
1.6937486,132.4829
1.6837592,132.81598
1.5993035,129.69652
1.6610161,128.28549
1.6614444,130.4266
1.594001,131.56207
1.6194198,128.87735
1.6064618,128.10353
1.5587384,130.48343
1.369997,126.73528
1.4727744,124.94495
1.4156988,125.2469
1.3789982,121.75885
1.3732078,121.14262
1.3689059,120.65555
1.287204,117.041
1.3027599,119.043396
1.3339163,116.73171
1.3320688,114.09812
1.2110412,113.63737
1.2420249,113.57463
1.2391608,112.52363
1.20713,110.679756
1.0960127,108.17925
1.1308966,104.41989
1.1168017,106.36724
1.1351811,102.81462
1.2186011,99.84608
1.1306537,101.02383
1.1007744,96.85568
1.058856,99.681946
1.1308333,93.18428
1.0865474,98.0917
1.0806924,94.82254
0.90478605,94.268524
0.8740152,90.8195
0.8338207,89.680275
0.76404005,90.36641
0.7740755,88.33924
0.6697255,88.26891
0.6906815,82.2174
0.64877623,78.00122
0.6356983,82.60938
0.60913134,79.8191
0.5336002,78.70562
0.56764185,76.60103
0.47011197,75.34269
0.59449863,74.59285
0.5345551,73.53348
0.61209303,73.87186
0.4782865,69.349884
0.4921496,70.59962
0.5113103,70.63338
0.46774277,67.70509
0.4687608,64.4688
0.47302312,63.717453
0.40534213,64.565605
0.5205939,62.59659
0.39601958,64.0882
0.41576964,61.774395
0.28571358,61.9069
0.2937751,61.278
0.18145855,60.11306
0.1912155,60.905224
0.2005072,61.863087
0.12201972,61.699986
0.01847552,65.8067
0.059626788,64.842834
0.06659356,66.16195
0.119822055,63.442616
0.10383708,66.71757
0.10316452,66.58412
0.045488894,73.41801
0.10220652,73.3363
0.17662333,74.68898
0.21433754,74.00446
0.25866958,80.40432
0.38230038,80.826164
0.46667907,82.88294
0.54222924,86.38756
0.52974594,90.81655
0.65726155,89.68526
0.7135132,92.81634
0.7578751,96.00363
0.87679523,95.18907
0.93784046,99.172424
0.9765875,101.98376
1.0760641,104.25887
1.1890795,108.45513
1.1875994,110.04883
1.2934386,113.41591
1.3119727,115.59599
1.2317522,117.11703
1.265258,116.95135
1.4003973,117.20823
1.4180425,120.811195
1.3433765,123.388695
1.5009266,123.8533
1.4360105,126.80064
1.3786472,127.22172
1.4436737,132.79413
1.4477776,128.13873
1.3884779,126.64406
1.4044064,131.14783
1.2671286,132.23076
1.4236592,130.03651
1.3787022,131.9856
1.3802588,129.44817
1.3223537,129.28622
1.2203963,126.77884
1.291871,127.93297
1.3098112,128.81517
1.2864938,127.92103
1.1865551,124.946266
1.1113937,123.29239
1.149633,124.671425
1.1291648,121.96142
1.0386606,121.29254
1.0448785,119.33182
1.13873,119.155914
0.97709644,118.93849
0.9520427,115.53442
0.96457016,111.35385
1.0439464,113.78919
0.9391832,113.36776
0.94870806,109.36401
0.9108076,113.72861
0.9223713,108.15368
0.8824149,107.36211
0.89989644,108.61043
0.92187244,105.44652
0.82286227,101.240074
0.82939225,99.411156
0.81590533,97.83965
0.6978675,98.57097
0.7633637,96.0527
0.72969246,97.00561
0.67296505,93.09104
0.6079124,95.62292
0.60108006,91.80935
0.50458294,89.9747
0.4851197,86.58511
0.56040794,85.329735
0.45746085,87.53272
0.4020155,82.97831
0.36355588,82.02915
0.3324061,80.574844
0.40131032,81.87246
0.27232754,80.90014
0.43461332,78.959435
0.37643117,76.99189
0.33372143,73.89361
0.27526566,69.5588
0.33826977,73.945015
0.39872712,73.11004
0.36214107,68.506966
0.3455234,68.337685
0.3186066,65.26553
0.2998377,63.43769
0.2923682,65.13024
0.3434724,61.933838
0.2945187,62.249832
0.29126453,62.799515
0.1531232,62.209984
0.1283356,62.705204
0.14559522,63.849247
0.19095032,60.59774
0.07779817,62.05128
0.0022674764,60.678833
-0.03704846,59.555126
0.016725246,63.776127
0.02413732,62.681774
-0.035827637,63.459476
-0.018624572,65.315216
-0.085974984,67.940506
0.060598545,65.9422
-0.034976766,68.83721
0.0005315561,71.35147
0.028992558,72.15919
0.14228724,75.66403
0.23870881,77.78064
0.2982736,80.39076
0.39831203,82.1716
0.4560238,85.237434
0.52222204,85.45258
0.6252743,88.93679
0.73492455,94.27934
0.71316665,94.15974
0.7991542,92.99959
0.959039,99.8516
1.0154064,97.343994
1.083084,105.218735
1.0935237,105.37108
1.0690213,111.21087
1.1937873,113.06909
1.2908779,114.74844
1.268169,117.55476
1.3360772,120.69627
1.3767174,117.715164
1.3521835,121.50435
1.3033237,123.41399
1.3809626,124.43297
1.5260991,125.316
1.4146813,126.84605
1.4917539,129.60402
1.4857614,129.68546
1.4973502,128.70233
1.4403039,129.65239
1.4411111,129.92668
1.4928044,132.1859
1.3977664,131.58623
1.352306,131.95354
1.3366235,127.651596
1.3734641,130.7489
1.35768,129.39787
1.2860941,128.9073
1.292373,127.20168
1.2377512,126.625404
1.1930786,125.94931
1.2276975,124.24445
1.1588392,123.55671
1.1387577,125.20483
1.2216054,119.37277
1.0981714,120.97153
1.0733652,116.46601
1.1520875,116.02417
1.0484301,116.764435
1.1396773,113.2533
1.0816336,112.06139
1.131918,111.2109
1.1284014,111.23312
1.0210497,109.32659
1.0555823,108.388435
1.1136491,105.646736
1.0492256,106.96622
1.0294392,105.149216
1.0074735,100.77447
0.9518751,97.13421
0.97420686,96.75188
1.0485455,92.17714
0.96891403,95.44651
0.8741347,94.56334
0.83639735,91.81856
0.7950114,95.739174
0.71964234,89.798355
0.79667985,89.43627
0.6973008,87.966385
0.6966663,89.029015
0.6868855,84.45818
0.57869714,80.85043
0.65803415,82.98023
0.73714364,80.52971
0.64326066,79.951744
0.59913737,74.45351
0.55200464,75.558914
0.5348562,71.09283
0.54271233,73.17244
0.5185825,70.555855
0.53207445,69.88302
0.55257195,67.730034
0.577162,68.87907
0.6429665,64.05941
0.59963244,64.810394
0.56140447,66.4034
0.5606376,64.65484
0.45692986,63.08984
0.4805928,61.163944
0.5787572,63.2771
0.45461005,59.390995
0.4217247,57.929115
0.36440685,65.944756
0.4255316,62.10576
0.3813954,62.51126
0.26785114,62.62759
0.33392152,62.04176
0.24346863,66.37711
0.19975846,61.86409
0.27150956,67.32034
0.27876696,65.79097
0.22185542,69.55272
0.27658167,71.514114
0.31054732,73.96416
0.3368734,73.62522
0.4726404,75.59948
0.49033135,77.354996
0.5021284,80.36855
0.63836586,80.7493
0.74657005,84.80076
0.80789477,87.60088
0.9393226,88.38017
0.9689878,93.45689
1.0464417,93.069534
1.1515406,99.12116
1.2368857,99.02461
1.197273,104.516014
1.4318389,105.65737
1.5248207,108.05824
1.5715196,111.60271
1.6217413,109.745224
1.5668036,109.16869
1.7203815,112.99986
1.5556339,115.14481
1.6745884,116.30399
1.7404246,122.92542
1.8972929,123.21339
1.7234309,121.657715
1.7434425,125.87547
1.7703319,129.14713
1.8288143,127.06267
1.7637182,127.819725
1.8440843,130.58522
1.8512568,131.88605
1.7718986,132.84032
1.7964007,131.64665
1.721704,129.92245
1.6434911,131.09781
1.7325865,130.81042
1.726407,129.94237
1.7208208,128.61235
1.6761467,128.0095
1.6770558,126.44259
1.6696916,128.66109
1.6974148,125.522575
1.5158651,124.50759
1.6242977,122.19299
1.5144587,122.31216
1.5807768,118.33105
1.5045016,120.2659
1.449221,122.153275
1.4050971,117.49737
1.3401663,114.48041
1.3816355,114.74078
1.424153,113.7449
1.3541375,107.41236
1.5170585,109.68483
1.3961537,106.71984
1.508045,108.51656
1.493047,107.73774
1.3932394,104.60169
1.4151324,102.3151
1.3157032,98.53009
1.3334391,98.02102
1.3299818,99.43546
1.350759,99.742096
1.2324315,97.7883
1.310372,93.5713
1.1535913,92.20098
1.179937,93.06612
1.1297878,90.78355
1.1233162,89.253174
1.0905479,86.99373
1.0365285,83.2878
1.0564748,82.16047
1.0271907,84.33632
0.84952015,81.7196
0.8644058,81.89423
0.88701725,78.06295
0.99411285,75.48898
1.02483,74.3361
0.84451586,76.10321
0.9223722,72.98265
0.98372895,68.30076
0.8561561,70.933586
0.83873576,71.79079
0.95706254,68.05902
0.92882496,63.784462
0.87256736,66.15317
0.8475453,62.788395
0.84568363,63.19893
0.770592,66.36887
0.93451536,65.19198
0.7569189,63.368427
0.7599679,61.618744
0.7878616,64.359184
0.67243916,60.33174
0.7609957,60.781796
0.5743236,62.424725
0.5800546,64.1054
0.5696444,61.92844
0.6101218,62.91036
0.4362661,62.553146
0.48947364,65.529724
0.6640078,65.819046
0.57047933,67.18088
0.54417723,69.88424
0.5448033,69.35164
0.59825176,71.18307
0.6564878,74.46952
0.7440012,75.662834
0.79212505,80.856125
0.8603511,80.68426
1.0026777,82.75085
1.1210308,86.27734
1.0679343,88.27987
1.1552513,90.16417
1.2926611,92.14247
1.3686349,96.14345
1.3404324,97.80816
1.5367635,101.25329
1.5588492,103.90381
1.6602163,108.09626
1.7156353,108.538284
1.7715211,111.16345
1.8056812,115.16759
1.7653971,115.00445
1.8155005,119.01674
1.8668721,116.99225
1.9362843,123.232
1.9369271,121.99799
1.9470544,126.142624
2.0019124,125.136536
1.8793339,127.09022
1.9705107,127.19207
2.0139728,130.28448
1.9392595,129.08588
1.9794376,129.63033
1.9197661,127.46897
1.9486531,126.32456
1.9712707,130.56816
1.906704,131.32188
1.9446965,130.4296
1.7639799,130.96222
1.8266581,128.71327
1.7768271,127.31696
1.7675041,128.43674
1.774391,127.10415
1.7274309,127.6302
1.6458548,124.76724
1.6807916,122.88303
1.5676022,121.47445
1.6317679,120.75007
1.5589347,123.68533
1.4949765,118.43996
1.5805576,117.90429
1.5293978,114.88312
1.5585288,111.46768
1.4980252,114.07368
1.45208,112.72995
1.5016514,111.79399
1.4935902,110.52267
1.4277861,110.51457
1.43194,106.0853
1.4751325,102.829704
1.3865203,99.941475
1.332073,101.52341
1.3847736,101.9337
1.3943708,98.75196
1.3691499,98.24753
1.3261415,95.88515
1.2769206,92.827835
1.1300361,93.51508
1.2271888,92.00024
1.1208673,90.943405
1.0647521,88.07259
1.0797584,87.16188
1.0655968,84.35368
0.8797093,84.80143
1.0451115,82.738396
0.8882577,80.12273
0.9152584,80.22784
0.95040524,76.97856
0.8274029,79.52966
0.83844167,76.15669
0.8389358,74.91706
0.744138,72.48557
0.7257296,71.20475
0.8022804,68.94048
0.85061145,69.863594
0.7701273,67.367676
0.78017366,70.8337
0.854777,65.15354
0.71004593,66.0524
0.7151412,61.981503
0.683157,63.98586
0.700981,62.2638
0.71131194,57.420406
0.6436826,64.045166
0.62557626,60.69576
0.5644026,59.691586
0.49029586,60.75175
0.5894819,59.61839
0.46708068,63.66858
0.57022756,59.95985
0.3608495,65.45546
0.50259835,63.904278
0.34853718,66.28323
0.4047395,66.53344
0.30007616,66.72025
0.37262475,69.407486
0.45819297,70.679214
0.3751755,71.47775
0.45109364,72.728516
0.5515321,76.49448
0.71662146,75.84628
0.69669974,81.77499
0.71808285,82.95806
0.7840183,84.01104
0.8669127,86.37079
0.9333907,92.99314
1.0535921,94.1153
1.0759898,94.60107
1.2448287,100.502754
1.3474805,98.97739
1.3367922,102.23932
1.3525058,104.86056
1.45691,109.644844
1.5405668,109.82608
1.5055989,110.53637
1.4747939,112.90073
1.641781,117.26732
1.6998788,119.332954
1.6831865,119.67921
1.6825616,120.37001
1.712813,121.25623
1.7048364,125.03903
1.7096609,129.37267
1.6195974,127.223816
1.6363785,126.92071
1.6475564,131.20514
1.683719,131.47104
1.6414573,128.86192
1.5918975,128.68532
1.5808226,131.17989
1.5336934,130.30504
1.552294,130.47612
1.502533,127.96842
1.5201257,129.52446
1.5278463,129.66644
1.539938,128.39832
1.4826832,127.55401
1.4161757,124.445526
1.4271554,122.45539
1.3812985,122.246216
1.2752303,123.21512
1.2730008,120.02216
1.2227701,121.391716
1.2333137,118.20644
1.2499517,117.275024
1.2550527,116.67041
1.2667679,115.87676
1.1003891,112.882904
1.1200916,112.899796
1.0787523,112.39537
1.1941997,107.88445
1.1582552,109.68587
1.1187012,105.79882
1.119516,104.75265
1.0516719,105.95441
1.0694766,98.834915
1.0069084,101.4276
1.0395206,100.62218
0.9569201,97.3041
0.9582858,96.51568
0.8933812,95.08842
0.8765861,91.775566
0.9102529,90.8687
0.77734154,90.67257
0.75669503,90.118675
0.7506197,85.99869
0.72041976,89.628235
0.6627712,84.16118
0.536633,83.75344
0.56186026,83.09823
0.629545,79.55451
0.56540644,81.94452
0.45696777,77.29146
0.51623225,80.24087
0.48420498,75.859406
0.47537157,72.682526
0.36442092,74.01106
0.44611165,70.53243
0.4352362,71.09335
0.44146392,69.70677
0.4930534,66.17586
0.4227097,65.73511
0.3772808,65.18863
0.38003555,65.19477
0.34578452,63.352505
0.4267588,65.408356
0.31226167,62.47417
0.29227075,61.58309
0.21949708,58.22002
0.2113395,60.612263
0.21750697,62.852116
0.10464463,62.277176
0.18038227,61.914375
0.04456694,62.12
0.12203685,64.07286
-0.012644257,66.19022
-0.06465943,65.12926
-0.020662583,68.5801
0.054494083,64.23255
-0.0059324675,71.20106
0.025139788,71.88084
0.13235459,72.42022
0.13617398,75.32375
0.22558565,76.93523
0.22886522,78.268135
0.33078337,81.33383
0.387049,85.3136
0.3788586,84.919655
0.5391391,86.20937
0.5408208,90.53804
0.6490122,95.63574
0.8412531,93.896324
0.8892934,100.43833
0.96613985,100.12356
1.0136147,103.90733
0.9585366,105.79662
1.1798372,106.636604
1.1750405,110.35951
1.2174888,112.19643
1.1991165,114.97555
1.2545766,118.4051
1.2579732,119.734505
1.3936461,119.515015
1.283428,121.56039
1.369556,122.82251
1.3783654,125.79575
1.4562333,127.399956
1.3292588,127.69435
1.374128,129.33728
1.329987,126.44331
1.3786002,131.23282
1.4116014,132.23071
1.3369626,132.5149
1.2465973,131.52223
1.2738249,131.71521
1.3669537,129.87662
1.2552704,128.2616
1.2494016,128.82043
1.2422885,128.81506
1.2309703,126.87694
1.1166937,126.198784
1.1832633,125.57038
1.055733,126.202774
1.0777869,124.60687
1.0674572,120.77737
1.0032259,120.598625
1.0439249,118.28025
1.0311047,120.312775
0.97303075,116.10107
0.9320345,116.63835
0.99298066,116.75743
0.9043789,116.03043
0.98813474,110.5104
0.9581837,110.97586
0.93831855,110.56503
0.9067831,109.31391
0.8399645,107.82675
0.9028409,105.54488
0.8382729,102.27194
0.842495,99.18047
0.83689886,101.538025
0.8379973,101.584724
0.81098664,98.16164
0.7749867,94.11835
0.75010943,96.75385
0.7112107,94.0421
0.62244993,92.61744
0.7081637,88.74128
0.60936576,89.01425
0.6082711,87.817345
0.5268791,87.5232
0.5285702,87.110214
0.4643884,85.35473
0.49471194,83.61122
0.33372647,79.942314
0.4478996,80.52812
0.35288352,82.96881
0.3050017,76.89269
0.32945403,75.01589
0.29445568,73.86512
0.35207772,72.27479
0.20988613,69.84224
0.38710594,71.45335
0.31777227,70.222015
0.27989846,65.66922
0.3624856,66.52067
0.275194,67.91246
0.2519527,64.9981
0.36046714,65.33267
0.3342347,59.883965
0.24335362,64.92432
0.33822486,61.554527
0.20050429,63.52749
0.047330208,57.952675
0.07807857,60.915585
0.12911671,60.962822
0.06647468,60.150417
-0.041901298,61.72802
0.0847939,62.09533
-0.0044988594,64.6207
-0.04306453,65.08488
-0.08761413,67.347946
0.010963085,69.3946
0.025725432,68.34898
0.03125565,69.801285
0.089361936,71.667404
0.018296003,73.72101
0.1333584,75.85746
0.20775661,75.430046
0.28675845,76.98747
0.32620135,80.76713
0.37526298,86.04059
0.6075355,86.63559
0.6527647,91.580025
0.7084522,92.9436
0.7565484,92.5319
0.92509085,96.56789
0.9515522,96.95499
1.032804,102.03807
1.0592561,106.04391
1.1822773,106.68384
1.1781433,109.92159
1.2087755,111.85154
1.2727637,113.09425
1.409732,116.838425
1.4089755,117.56709
1.3953631,118.29177
1.4720069,120.933716
1.4585619,123.24354
1.4424783,125.91161
1.4029808,129.21924
1.5970975,126.687996
1.5425773,128.41643
1.589767,130.12416
1.5452187,129.936
1.5626553,128.60397
1.4350319,132.67752
1.443993,128.76782
1.3849355,128.38864
1.5109017,130.426
1.429118,130.77693
1.3736122,129.70958
1.3587261,127.53908
1.3047274,128.03027
1.382293,127.67422
1.3325803,126.27823
1.3146645,128.18413
1.2135673,124.62293
1.3030853,123.98768
1.2749695,121.32764
1.1480857,118.90723
1.2097003,118.82212
1.0785167,116.85834
1.1706454,117.48466
1.1847879,117.65238
1.1805643,113.815186
1.1344479,112.8677
1.1533405,109.81663
1.0618539,111.45904
1.1533799,109.52522
1.0906966,107.27243
1.2166966,104.95699
1.1854523,105.617325
1.1382084,104.02649
1.122109,100.921074
1.0471472,102.22447
1.0235265,98.33337
1.0374386,94.9709
1.0644331,94.70459
1.0443709,93.1322
0.9600606,91.702286
0.7999301,89.84432
0.8946274,89.45687
0.8497984,90.16663
0.8108898,87.80192
0.7425427,86.58932
0.80744344,87.37598
0.74607253,80.258995
0.6788338,82.95095
0.6834724,79.426285
0.6810903,79.11757
0.6840338,78.60856
0.6414896,72.94633
0.6788233,71.46502
0.57784796,74.47889
0.6907645,72.36481
0.6292857,70.62814
0.6612232,68.1102
0.64086163,70.43661
0.676364,65.853195
0.6210868,65.56164
0.5838009,63.51658
0.65558344,65.97438
0.63148403,64.70269
0.65506375,63.67123
0.6320378,61.54481
0.58778113,61.877373
0.48008156,61.619194
0.5345042,61.74266
0.5290605,60.69539
0.4575723,60.70107
0.30305675,61.23597
0.34856007,64.43798
0.4314449,62.702362
0.42193848,63.136276
0.36937538,63.47137
0.28073633,66.7935
0.36343023,68.279945
0.45994145,68.52308
0.44630295,70.72211
0.46675068,74.644516
0.5182788,75.68906
0.62984973,77.71154
0.70163757,77.03688
0.7402252,82.03896
0.8158317,86.16875
0.8954197,85.10501
0.9918036,90.22878
1.0702901,91.21861
1.1356735,92.42941
1.2972423,97.54506
1.2911218,101.45279
1.4328023,101.42983
1.5141481,104.24736
1.5575472,105.32155
1.5556538,110.98382
1.5601747,110.04418
1.6159418,116.23813
1.778321,117.79379
