ppg,abp
1.0891616,118.34046
1.2145015,122.61247
1.155297,127.53296
1.2052335,127.610855
1.3262166,131.42986
1.4359642,136.21791
1.4919423,137.2985
1.4597878,141.1956
1.496212,140.57988
1.7235268,142.90411
1.6349571,148.91414
1.6582296,147.47453
1.6866918,149.97198
1.7041677,152.25455
1.7238404,152.85149
1.737634,153.21564
1.7287115,154.81717
1.6657025,157.2015
1.7045658,156.2132
1.6866761,154.1822
1.7553478,156.31676
1.6600541,157.70363
1.6498314,155.06328
1.6941068,154.48793
1.5940726,153.86638
1.6225764,155.77681
1.6094234,158.73193
1.5781034,153.49715
1.5665419,152.30127
1.6307099,153.63739
1.5872507,146.21458
1.4659456,151.97777
1.5050846,148.52481
1.4490372,148.11655
1.3312006,143.21849
1.4445095,144.61209
1.3823364,142.69702
1.416453,140.65822
1.4256239,136.84558
1.2709196,139.22899
1.2876885,135.90143
1.3480508,134.73238
1.3922186,132.15703
1.3550034,130.9558
1.2288475,129.96
1.3243624,129.94363
1.3378845,125.24863
1.2887967,122.27025
1.1728041,122.146164
1.2377898,123.54258
1.1447587,119.40963
1.1647211,118.65527
1.1389428,115.78561
1.1661695,114.85176
1.0900651,114.07653
0.9260841,111.266884
0.94902796,109.65176
0.9742264,108.37171
0.89863634,109.1855
0.9734504,105.390656
0.83249104,103.88516
0.85878116,99.13197
0.88920337,97.0185
0.899931,98.22158
0.9066309,94.2381
0.81739813,92.093796
0.84967667,92.47
0.87858045,93.890755
0.88776696,92.18913
0.83878917,91.488
0.7795882,86.16488
0.81795514,87.29204
0.8932956,87.2578
0.8045573,84.81345
0.80075556,86.97341
0.80266774,84.30583
0.687744,82.9868
0.6645577,85.00907
0.55663145,82.990295
0.59030384,83.56916
0.6524433,83.005585
0.63654596,84.148575
0.52386045,82.8095
0.52116764,86.83518
0.51112306,86.43425
0.55272603,85.08846
0.562451,89.45289
0.5234042,88.73695
0.57094336,93.93268
0.62646776,93.02031
0.58122396,98.514496
0.64143044,99.741165
0.78166825,99.45475
0.82309216,102.078094
0.91239244,105.17435
0.9968893,109.93452
1.0613635,111.49444
1.1880443,112.12198
1.2907844,115.916046
1.306833,116.975204
1.4082588,125.32412
1.4770175,129.76447
1.5655868,130.65926
1.7229446,131.82173
1.7029705,132.4306
1.7131948,136.73444
1.7995622,139.95462
1.8751544,142.0296
1.8895228,142.24161
1.9473268,144.95097
1.9137721,150.85934
1.9517672,149.19078
1.8895695,151.1717
1.9925478,154.8886
1.9700768,158.61874
1.9740118,159.68456
2.0066073,153.10786
1.9508544,155.01485
1.9369313,159.72856
1.9865363,156.70544
1.9578485,154.22963
1.8331693,158.6725
1.8608567,158.20067
1.8672698,157.17982
1.7227436,157.62007
1.8357586,153.29872
1.8123022,153.79327
1.7703164,152.25047
1.6080538,153.08679
1.708833,150.32587
1.7869376,147.8982
1.7039884,145.77162
1.6011662,149.51767
1.5855734,143.82397
1.59159,145.72346
1.5760546,137.60521
1.5439639,141.38586
1.6557982,136.93837
1.5096084,136.94673
1.4322528,132.01071
1.5019695,132.04413
1.4054524,132.06624
1.4489001,129.91208
1.5331328,125.608734
1.4340785,127.24368
1.4244173,124.707855
1.4017591,123.424095
1.4142958,123.88241
1.3125504,121.517624
1.2788991,119.5004
1.2056684,116.76709
1.2532151,119.38324
1.1635443,112.890686
1.1511112,112.27003
1.0980932,109.58733
1.098607,107.278465
1.0226716,107.2665
1.0061394,106.19293
0.9676578,102.950096
0.95916545,104.244316
0.92034197,99.670586
0.91902745,98.488716
0.9502703,99.006744
0.9131911,95.71175
0.86380285,94.900276
0.91076356,92.14121
0.9025999,92.526146
0.8260146,89.600525
0.90399843,90.16182
0.8982324,87.36632
0.79968923,84.91735
0.8420862,84.36943
0.8655878,85.88324
0.7718175,82.72724
0.69871706,80.396935
0.74230266,83.124435
0.6055632,86.036995
0.68382245,83.09912
0.62380606,84.89052
0.6643569,82.43857
0.5678437,81.17383
0.57462686,85.277916
0.5079659,84.97979
0.44506288,87.14567
0.4277431,88.549
0.5714726,88.60369
0.510389,90.508125
0.51567554,93.40938
0.5903219,92.9276
0.51869375,96.112335
0.6741623,100.127495
0.7713528,103.41204
0.77596277,105.04838
0.9171436,106.410805
1.0281409,108.012764
0.9372937,113.94562
0.99706715,111.47991
1.1516117,116.56851
1.2612609,120.81542
1.3921168,124.98321
1.4475144,127.91341
1.4639561,127.14344
1.5448477,131.46199
1.6911713,136.176
1.7068872,135.9673
1.6585104,143.77538
1.7193842,142.65466
1.7541019,146.58253
1.7942572,147.9429
1.7225732,150.9105
1.8030727,150.19482
1.7933574,153.88202
1.8540733,153.42441
1.8439693,157.38452
1.8111109,155.23492
1.799815,153.55156
1.8059288,158.21169
1.7497387,157.2705
1.7774152,160.35075
1.7593763,154.26744
1.7636384,156.81877
1.7271092,155.47542
1.6689379,156.30696
1.6619757,159.68063
1.5620102,155.43523
1.5694039,151.01974
1.605368,154.18692
1.5778155,151.06488
1.5030884,148.71423
1.3886027,147.9152
1.4230502,145.8891
1.3781132,146.79272
1.4705616,140.13474
1.3199017,143.08244
1.2753208,140.6092
1.3319789,140.64583
1.3538556,138.66588
1.3056574,136.91716
1.2270525,134.65018
1.2456962,130.33
1.2397505,131.63461
1.1901113,129.41248
1.2230958,125.90453
1.1900804,125.57592
1.1123276,124.96896
1.1148081,122.629005
1.0849336,123.647125
1.120141,119.00897
1.0657923,117.455666
0.99805677,112.45494
0.8646218,114.33828
0.83378536,108.68729
0.88284993,109.855354
0.8850387,107.909904
0.76015896,110.37368
0.7484576,108.67114
0.6294605,103.92681
0.7054357,103.34757
0.7296337,100.907814
0.55536073,101.35189
0.59267706,100.10707
0.5522153,96.20321
0.6425433,94.65448
0.5428452,92.177925
0.5764246,92.927246
0.53937894,92.06562
0.54586947,88.57478
0.66382575,86.52711
0.50065285,86.19789
0.52774435,85.14499
0.58452165,84.12304
0.5938968,82.89997
0.47342193,82.78034
0.4469901,84.450966
0.35636374,81.12723
0.32726413,81.573
0.2919946,83.5671
0.3342456,81.91745
0.23258865,84.562515
0.23310915,83.709595
0.1991953,83.77995
0.14726321,86.77308
0.09216881,87.985344
0.15420955,88.40782
0.16710755,86.4612
0.20066871,90.83409
0.15931103,95.76196
0.22658482,95.50113
0.25311595,102.465096
0.36797318,100.20364
0.4633186,102.312775
0.48011506,105.760864
0.5630804,106.48227
0.613152,112.191315
0.6745653,116.00361
0.88154817,114.4784
0.9745935,120.55761
0.99807465,121.39877
0.982448,125.22714
1.0294585,128.58168
1.2174511,128.08144
1.2548276,134.09152
1.3361739,136.66551
1.3226641,138.1882
1.4471732,141.25887
1.4278997,142.35495
1.4782374,145.9287
1.3945739,145.53986
1.5262604,149.90216
1.4237703,152.37047
1.4890432,153.80078
1.438732,153.1493
1.4705027,158.2651
1.4369967,155.96954
1.505694,156.85419
1.4037075,160.70969
1.4948837,154.45937
1.3327484,157.39328
1.3745447,155.37163
1.41763,155.9288
1.3485044,158.13422
1.3511348,156.52602
1.2796378,155.09708
1.2931352,154.36095
1.2210006,151.07425
1.1430726,150.4153
1.1077985,148.8172
1.1719924,149.98537
1.1249375,149.71292
1.0301208,145.20241
1.1140531,141.97726
1.0621539,144.31998
0.9399911,141.35643
1.0290906,136.1885
0.98474133,140.13533
0.902666,136.75177
0.92850536,135.48227
0.9178719,134.36583
0.96975344,135.0679
0.89609975,132.12794
0.9077688,127.72521
0.9159106,125.46526
0.80704606,126.00466
0.87753195,121.73962
0.80924904,123.73866
0.8027222,118.175575
0.6630739,118.91749
0.7473084,115.56506
0.6675938,116.452545
0.6480993,117.354454
0.5897678,109.32959
0.5379513,110.00165
0.511306,106.40364
0.52640057,107.57151
0.42759767,107.419266
0.4189939,102.8548
0.36424142,102.575584
0.37477538,100.96878
0.37772188,102.057526
0.3399376,98.89053
0.24878198,96.94852
0.40690562,91.17915
0.2661789,93.01012
0.39915547,90.42883
0.31928948,91.30224
0.27583125,86.96513
0.325313,88.99838
0.2645115,84.1533
0.37394413,86.02327
0.24754076,84.01839
0.31234467,84.48349
0.23193045,82.60836
0.13117594,81.32158
0.17490226,82.785904
0.14871179,80.35134
0.080795944,82.240685
0.09228304,81.68921
0.0016973072,82.57665
0.014859426,79.984024
0.014583779,86.206894
-0.060782526,88.25599
-0.11737597,88.91455
-0.1195299,87.34364
-0.063922964,92.16538
0.0041967155,92.57213
0.03775207,91.56583
-0.028922414,96.9248
0.12110244,98.745346
0.22301021,102.43712
0.33586258,103.60746
0.3466379,106.04365
0.44511324,108.93429
0.5265595,109.73857
0.5775881,116.573166
0.71146274,119.47507
0.80462146,121.31744
0.8020043,123.45703
0.95180017,127.123924
0.87618953,132.30931
1.0933943,129.73148
1.1323221,136.00368
1.2570589,137.61613
1.319138,137.03934
1.3333844,141.9597
1.3244189,144.05414
1.2842544,146.04189
1.3043014,152.39609
1.4135237,151.81332
1.3303422,154.29314
1.3840382,151.20465
1.3420788,153.33118
1.473691,156.71843
1.4337959,158.21915
1.3684943,155.09645
1.3234056,159.07558
1.4067324,154.7384
1.2523078,156.8424
1.3135155,156.6673
1.3781904,158.33148
1.1720668,151.73737
1.2908394,157.36615
1.213514,154.5236
1.213281,153.5898
1.2137579,154.55653
1.1325364,149.44724
1.2302145,151.71474
1.1589806,148.18765
1.0738105,149.29553
1.01336,147.58357
1.1167421,145.92924
1.092334,142.525
0.949599,142.04132
1.0390779,141.30592
0.97947395,141.71394
1.000467,137.01784
1.0093944,135.22339
0.95772856,133.78767
0.9576248,132.51527
0.9196623,129.40393
0.9433085,127.41567
0.80769545,126.369545
0.8621805,121.38038
0.92686915,122.58185
0.9072644,121.698845
0.9150305,117.78869
0.9336453,120.133026
0.8220882,116.96099
0.77749676,115.47824
0.7363374,113.3928
0.7743915,110.437675
0.66636837,111.93666
0.609327,110.57357
0.66869485,108.625626
0.56254435,107.6176
0.5042548,106.75409
0.48271573,101.788574
0.5085146,100.70354
0.4595684,100.286194
0.47982103,96.73148
0.5227518,95.76004
0.46240905,95.22787
0.44086036,93.13804
0.47021484,90.53456
0.49661922,90.85951
0.49809828,87.44812
0.46710294,87.26062
0.39908904,86.13023
0.5216416,88.8034
0.5201108,86.4549
0.376546,83.64669
0.3965699,81.094154
0.47411266,81.48264
0.31162313,82.454575
0.33788353,79.11078
0.26667625,82.0069
0.30339912,84.14062
0.15998282,80.70092
0.2209752,84.116615
0.1792189,85.40164
0.2181897,89.71872
0.13647653,85.96172
0.18470651,91.71235
0.21151832,93.06036
0.28553322,93.134415
0.30542186,94.75182
0.24294277,96.63348
0.45312938,96.92737
0.4517699,101.13167
0.48625007,103.28702
0.6012869,106.34584
0.72091,108.12142
0.84098476,114.727486
0.9526632,116.68321
0.96419996,120.0883
1.001645,121.733055
1.1818721,120.15634
1.2262911,128.65541
1.3472673,133.33891
1.4208838,135.89291
1.4175645,135.321
1.5142081,138.17264
1.4829013,141.24034
1.5260546,142.6322
1.6581159,145.93541
1.6252644,145.7036
1.6814841,150.86801
1.6196927,150.35503
1.6449333,151.79828
1.7021763,153.40381
1.696245,156.69493
1.657983,159.69897
1.6828445,160.73877
1.7446195,154.5589
1.6809921,154.51102
1.7020017,159.3017
1.6937486,159.10156
1.6599797,156.9695
1.6996807,154.92363
1.6416539,157.99991
1.6224753,151.86482
1.5644553,151.06209
1.562474,152.66827
1.5222588,152.64986
1.4839334,153.12866
1.4086229,149.433
1.4792111,150.45761
1.5016844,146.66136
1.4896858,146.44461
1.358543,143.52887
1.3898656,141.04762
1.3773584,142.44363
1.3005223,137.16547
1.3494114,136.09978
1.2424154,133.0828
1.3059262,135.4404
1.3436974,133.55894
1.3360543,132.72566
1.3195726,130.08379
1.2770808,129.62735
1.3275076,126.022896
1.2965981,123.335144
1.1943471,121.61372
1.1985004,123.86904
1.1452459,115.17571
1.152789,117.30096
1.1470616,114.38899
1.1242795,115.271866
1.0694098,112.840675
0.95002997,111.26465
0.86591035,105.505646
0.9370257,106.28886
0.929471,107.558205
0.9086856,105.206535
0.87652606,101.36257
0.8682143,101.171555
0.876407,98.7519
0.8872167,98.379074
0.884208,100.498024
0.79487336,91.49199
0.7821747,93.93818
0.75817764,93.76014
0.8168249,92.443115
0.8725673,88.22868
0.898856,88.74511
0.81326807,86.918
0.74496853,85.93607
0.7935522,87.668655
0.7127427,83.90038
0.66532254,83.29403
0.8060189,84.208466
0.6605145,83.08451
0.5932141,82.3165
0.56997824,84.21468
0.66037256,84.691734
0.5069018,82.74782
0.5084528,84.621124
0.4822317,83.056564
0.49973512,87.72039
0.5600269,84.78156
0.5358155,87.20649
0.40590915,89.38223
0.46823952,86.57829
0.5422338,94.484055
0.68472713,97.88404
0.68856865,98.7283
0.81651837,98.135345
0.822223,103.08278
0.88058245,104.83614
0.9898121,107.54608
1.1224415,111.394936
1.1971536,112.87525
1.1728836,118.14454
1.4410458,122.0183
1.3633018,122.295105
1.4515041,124.34847
1.6336552,132.12796
1.5947489,132.73561
1.6552465,135.00594
1.7660975,136.38551
1.8285179,139.17659
1.8787608,144.6564
1.8006158,144.94926
1.9532728,148.66731
1.9993845,147.7472
1.9604013,148.98872
1.9389569,151.16234
1.8913141,149.70497
1.9975977,154.35997
1.9805794,152.91838
1.9341743,154.40855
1.9448159,160.3363
1.8984495,156.44307
1.8722467,158.22281
1.991213,155.81775
1.8804926,159.92888
1.8120831,158.30695
1.8860246,152.7727
1.867232,155.89983
1.8102565,152.60753
1.7143116,155.29596
1.7861514,152.87048
1.647584,153.23395
1.6627567,151.72453
1.6807094,151.31976
1.6965538,147.29164
1.5878646,144.94687
1.6434937,144.95837
1.597334,142.49109
1.5539407,139.33922
1.5640326,140.58514
1.5572673,141.18729
1.5816572,136.60205
1.5077416,134.99255
1.484449,134.86258
1.5093074,131.34355
1.4826475,131.15508
1.5091525,129.16646
1.4895461,127.19508
1.4648442,126.56883
1.3426843,126.12061
1.3020678,121.76365
1.3272488,122.05727
1.3057846,117.40003
1.3192005,115.98881
1.1964792,113.85139
1.0995378,115.34297
1.1753954,113.11636
1.182913,111.994804
1.0851834,112.02186
0.9978134,104.94397
1.0758153,106.57683
1.0206165,101.78215
0.8442305,102.44898
0.9963443,100.52619
0.9461229,98.963844
0.90753883,98.526886
0.8670427,95.53313
0.85960346,94.110756
0.96956474,94.01672
0.9460901,91.28826
0.8294636,92.40994
0.90325135,89.234825
0.8148724,89.37081
0.90049034,87.89432
0.8465856,86.23933
0.7928968,83.34774
0.82333875,83.508896
0.81936103,84.11783
0.7964794,86.092384
0.6810695,82.96662
0.72016984,81.36651
0.61336464,83.182144
0.47763103,82.24566
0.63298106,83.89369
0.49659723,84.81285
0.43911377,81.47134
0.5275569,89.82226
0.45738536,88.82368
0.5292615,89.40234
0.49903122,91.711006
0.49561983,89.38601
0.4547785,94.502884
0.63820815,95.00353
0.64830923,97.30522
0.7164138,102.772865
0.7876661,107.38709
0.87914217,105.1863
0.995826,110.26094
0.96163285,110.14887
1.137999,114.02814
1.1897709,119.54896
1.2362102,119.63375
1.3896577,123.340935
1.4573876,127.61236
1.4485936,127.03528
1.5228474,133.26744
1.5881501,131.54549
1.6091713,139.66246
1.7873268,141.60843
1.7118917,144.7713
1.761293,144.67657
1.7265261,145.57634
1.8381233,149.58386
1.819541,150.20215
1.8160472,151.46141
1.787339,151.37189
1.8199395,153.71373
1.8161638,153.75276
1.79671,150.59587
1.8761837,158.96968
1.7805182,155.41385
1.8471438,159.85216
1.7241567,157.57806
1.813636,157.55911
1.6837182,155.48611
1.7743695,155.6513
1.5702316,157.57275
1.6161892,152.83487
1.518779,156.98582
1.525143,153.7048
1.4961004,151.39998
1.5208972,150.3292
1.4463198,146.73341
1.4859625,148.68748
1.356031,146.70248
1.525237,146.56241
1.3674533,141.59825
1.341148,141.33266
1.320251,138.89531
1.2590846,140.87769
1.261368,136.8731
1.2279785,134.19533
1.2278248,134.85947
1.3383013,131.27458
1.2486851,132.14616
1.1890426,126.38746
1.1822588,126.664314
1.179508,127.465614
1.1840867,124.79031
1.1091312,122.91234
1.1126745,120.11372
1.0322214,120.63088
0.9644346,116.34264
0.96664697,117.70864
0.9348965,113.1124
0.9082459,111.17003
0.7884353,109.95544
0.82743645,108.35426
0.7863382,108.251495
0.7327028,104.73711
0.64101785,102.02543
0.71883905,101.31632
0.628554,100.59556
0.68487024,97.28619
0.6878562,98.127846
0.6619242,94.50221
0.69050634,95.47033
0.6136769,91.0904
0.5830688,92.70744
0.58410853,89.25517
0.5511333,89.29957
0.61496377,85.28246
0.59370327,84.96578
0.51661545,87.565216
0.44167066,84.69362
0.43156457,85.02033
0.5619067,83.29878
0.35779962,81.995476
0.42147678,83.56062
0.33745053,85.65808
0.2641976,82.2394
0.24299696,83.17272
0.25737944,85.790985
0.28484902,81.99705
0.152193,83.60493
0.24225245,89.89738
0.12565586,86.25585
0.17119712,90.0691
0.17964488,93.36598
0.19842552,91.85502
0.15588301,95.564026
0.28292438,97.43197
0.3523864,99.57438
0.3889983,98.38121
0.4803312,108.27339
0.63657945,108.839005
0.62568617,112.21212
0.69411355,112.35441
0.7038663,114.38987
0.91556144,120.791245
1.0724881,122.45056
1.0510535,128.75626
1.1875968,124.539345
1.076432,129.4916
1.2377688,133.10951
1.3339517,133.7547
1.2335656,139.42073
1.4376297,140.52205
1.3951077,146.95375
1.4412979,144.48775
1.4164709,149.70206
1.42053,147.83618
1.4101928,154.26909
1.5001445,153.03796
1.5111045,153.69159
1.4901636,157.79233
1.4413594,151.84352
1.4128299,154.47562
1.46993,154.21176
1.4997195,157.60757
1.4788721,157.53636
1.3897008,159.31854
1.4444418,158.95026
1.2770169,158.05725
1.466154,156.25517
1.2937952,157.2692
1.237641,155.9881
1.1579088,155.88655
1.2672043,153.33372
1.3087082,150.38297
1.1109592,147.4396
1.0576464,148.02919
1.1152146,147.60542
1.1198894,149.17444
0.99487764,142.25726
1.0407366,141.65761
0.88934094,141.63132
0.88730997,134.99449
0.96225786,136.95697
1.0420253,133.3403
1.0120144,135.5995
0.92294997,127.448944
0.95996386,130.3166
0.9093744,126.91396
0.91938466,123.88652
0.9579303,126.6047
0.84701174,121.08899
0.8220323,125.49796
0.7920631,121.38079
0.72474957,119.78406
0.7331658,115.51972
0.65095425,115.13516
0.6810736,112.80074
0.6622797,115.06012
0.6078083,110.70064
0.53586847,109.40267
0.48981467,107.81961
0.5676121,108.308365
0.48067686,105.82828
0.39009497,102.682465
0.3816578,101.54995
0.33852294,99.01819
0.2692299,98.21439
0.3967861,97.75014
0.35133597,95.198906
0.2861114,91.85817
0.29253536,91.90691
0.23303162,90.97063
0.2921812,91.349304
0.3200336,87.84352
0.28532788,85.44547
0.34579888,88.18655
0.3907014,82.66909
0.28954816,80.672745
0.2892592,83.83637
0.24060439,85.885735
0.1791691,79.30044
0.18111253,83.886246
0.16342868,82.70346
0.010802827,81.45229
-0.010949571,82.98876
0.0048913276,84.28083
-0.07295258,85.84505
-0.06245869,82.84013
-0.073517576,86.75813
-0.09399113,92.247986
-0.069867216,91.776054
-0.076528765,90.75867
-0.023818847,92.17503
0.06537629,94.936935
0.13781384,98.75396
0.22623558,99.592026
0.32726324,103.66203
0.34762833,105.25997
0.41068175,108.093605
0.49906042,109.326996
0.5802044,113.05757
0.61152005,115.37745
0.6249169,120.178825
0.79108346,123.36908
0.91517687,124.5468
1.0185438,127.87348
0.9977873,130.98912
1.0087451,131.9326
1.2506603,139.08003
1.1894797,135.26857
1.2864951,141.94823
1.2317264,145.99959
1.2497594,146.58775
1.3364612,151.688
1.3807727,149.91612
1.3931421,149.95135
1.4186364,153.48299
1.3657503,151.8355
1.3232679,154.11652
1.39093,156.5419
1.4851794,158.22678
1.3914374,157.5722
1.3196409,159.01526
1.3839682,159.02339
1.3335547,157.5104
1.3825513,156.45602
1.2622448,157.4423
1.2681948,156.47676
1.2294695,152.46443
1.1390096,152.659
1.1274949,152.6978
1.2429751,152.59819
1.2022122,150.17242
1.1153868,149.94623
1.0573007,148.6998
1.0959016,148.38849
1.080327,145.26848
1.049643,141.47379
0.9847077,139.70575
1.053502,140.64178
1.0553432,139.93047
0.9165607,139.28036
0.983284,132.29404
0.9989235,132.99994
0.9153183,132.6351
0.8823673,131.25461
0.89187884,128.3471
0.94373304,127.663155
0.93887365,126.22732
0.94855917,125.029625
0.91349435,121.40763
0.95740324,119.6702
0.79342395,118.05441
0.7695179,116.41123
0.7578951,115.09154
0.74390894,111.61317
0.682423,111.5751
0.61341906,111.15958
0.5709649,110.43046
0.6166715,110.246994
0.5320072,104.775375
0.57633024,102.14196
0.53035957,99.9137
0.5040686,102.14389
0.44223577,100.71849
0.50763047,94.29149
0.5109716,96.30759
0.48578036,95.07607
0.45337537,96.380226
0.4125989,92.79674
0.4995046,90.27023
0.46807986,87.58201
0.47859722,86.740814
0.41090187,86.942085
0.48121187,86.91801
0.44108778,86.25711
0.42300543,81.970436
0.3361817,81.64032
0.39208975,84.46482
0.3564577,82.06001
0.23105365,81.49554
0.22016391,83.70358
0.2679745,81.889114
0.15024973,83.60226
0.17521591,82.58606
0.13757847,85.59704
0.15952766,85.59415
0.0859417,87.52971
0.20389704,88.396065
0.16878699,88.24865
0.28074282,91.028496
0.26768738,95.63904
0.31300005,94.05175
0.29522935,96.868675
0.24889843,100.72673
0.50487196,103.97217
0.5803752,106.116516
0.5898559,109.987854
0.7878604,111.805664
0.8779751,114.41906
0.88887525,114.13976
1.0293071,120.721214
1.0745558,123.838264
1.186903,125.48919
1.2127997,130.64641
1.276802,131.49055
1.3768318,137.17859
1.4332619,138.66586
1.5208162,139.59511
1.5469896,143.26071
1.5130595,142.48077
1.6519672,147.02617
1.6302046,146.98558
1.6494598,149.70464
1.6993788,155.34875
1.6535083,153.02003
1.5572661,156.97493
1.777601,154.18402
1.7603855,157.19147
1.707817,154.28464
1.6476036,157.35284
1.7109194,156.19531
1.6662613,155.89989
1.6799821,156.03789
1.6816845,157.6475
1.687632,157.13007
1.6249684,157.05463
1.5392096,156.14468
1.6221596,154.3404
1.5102339,151.81668
1.5130785,152.89587
1.479997,149.98055
1.4296899,150.90082
1.2853718,151.16536
1.3020372,142.76767
1.3444337,143.2958
1.39065,140.45844
1.3031378,144.95375
1.3805546,140.17146
1.2629611,140.15428
1.2874233,136.34036
1.2897296,132.83223
1.2791331,132.27666
1.2580999,130.43576
1.2525251,129.10182
1.281162,129.75171
1.2949675,124.720856
1.2456228,126.7585
1.2647153,122.70835
1.1257533,118.84026
1.1644219,119.80345
1.119285,120.01117
1.148671,114.04105
1.1597651,116.3466
1.0155303,117.78459
0.9556173,112.91657
0.99968594,109.71102
0.95849067,110.04165
0.8922448,108.74353
0.8659151,105.508446
0.9594305,106.4274
0.80502343,103.60895
0.85103446,101.08623
0.8168954,98.03152
0.8760055,97.384094
0.77667826,97.58517
0.8600687,93.82313
0.8258328,91.71495
0.81098354,90.312805
0.85830665,90.50567
0.8695072,90.76819
0.84483665,89.27418
0.7907198,85.97877
0.7727473,86.16652
0.77812254,85.534195
0.7517833,82.86308
0.759114,86.53039
0.7625247,81.57968
0.67861104,80.67219
0.62493944,85.01681
0.59405893,79.69358
0.5842793,84.677734
0.48660967,82.79303
0.35641596,81.26255
0.43882185,86.68592
0.5207637,85.041046
0.44773644,89.17765
0.42685157,90.507576
0.51371425,89.25963
0.6363295,90.47074
0.55917937,94.005196
0.62896484,96.84399
0.6466541,98.14639
0.7533654,102.88918
0.8673166,101.23937
0.86116326,108.52223
0.9318308,109.71187
1.0896857,114.1078
1.130853,115.82909
1.3786997,124.38597
1.3559266,121.09437
1.4298161,125.39759
1.4007783,125.83354
1.5711532,131.64961
1.5545616,132.50734
1.7155885,139.60951
1.7538887,140.96928
1.775168,141.31354
1.8358122,141.80101
1.9200864,144.36464
1.9297456,147.63953
1.919051,149.34622
1.9485823,152.32365
1.9119469,151.17764
1.8702065,153.4462
1.9105668,155.5722
1.9380789,154.613
1.9946324,155.53874
1.9697322,154.10677
1.8404866,158.7022
1.9470097,157.89249
1.9672018,157.2967
1.8549229,158.56917
1.8413085,154.84651
1.9223136,157.79509
1.8339342,155.97289
1.6987978,153.66824
1.7254825,154.16893
1.7758796,151.92105
1.6961572,149.7652
1.6346972,148.5456
1.6479679,147.25964
1.6213479,144.60144
1.7202375,145.85895
1.6274729,145.008
1.5628247,141.12332
1.5899906,141.92966
1.6079699,137.0963
1.5821635,138.08276
1.4392557,137.58008
1.5207372,135.97847
1.4784323,132.60257
1.4749867,128.51408
1.4953626,128.99115
1.4349575,129.40619
1.4541905,127.23503
1.4772433,123.71911
1.429313,121.94687
1.3005005,121.186295
1.3425463,118.56282
1.2928474,117.20225
1.2611076,119.25566
1.2350944,115.33016
1.2150339,115.13697
1.1763276,111.25841
1.1223164,109.73298
1.063298,109.851555
1.1082249,108.94308
1.035313,106.65591
1.0141174,103.67449
0.9775859,105.377625
0.93876326,99.49287
0.99903786,98.309204
0.9581692,98.686966
1.022692,96.318726
0.8687325,92.40128
0.85510606,93.85201
0.9612881,93.705696
0.93111205,90.79352
0.85031074,86.85084
0.89774823,88.352844
0.87657934,82.16082
0.84179664,88.97209
0.79195964,84.56274
0.78492105,86.4058
0.7508464,82.91371
0.7189231,86.35756
0.68108654,82.25182
0.6385992,81.313034
0.56277823,83.48767
0.6059526,80.127945
0.6312481,84.09239
0.6081495,84.2143
0.6673646,84.29972
0.4988469,86.89021
0.5157099,85.26396
0.52148986,88.827805
0.42008904,92.15939
0.5772867,93.86786
0.5844814,96.23317
0.6807212,98.20059
0.63985777,101.02973
0.7471394,101.91125
0.87418026,105.42363
0.9211293,106.63349
1.0079305,113.35451
0.9865953,114.84255
1.2345994,116.25154
1.1797069,120.97748
1.3019936,121.902756
1.3074508,124.79786
1.4565696,129.45988
1.5717779,133.62065
1.5682483,131.48097
1.6103919,136.13884
1.6597451,139.76274
1.7874869,141.98526
1.7583525,138.17233
1.6990389,147.64345
1.8143617,150.15169
1.76706,149.04715
1.8084226,150.70844
1.8425516,152.66768
1.8368915,155.23318
1.9328736,154.55318
1.9078413,159.2461
1.8216766,157.62753
1.8893408,156.2383
1.8210709,157.85654
1.8671541,153.0996
1.7479639,155.61119
1.7630291,158.45386
1.7082368,158.6197
1.7123886,160.73904
1.6673852,153.18315
1.6250846,152.34026
1.5775868,152.64236
1.649436,153.22484
1.4947342,150.48119
1.5169415,148.25352
1.4590755,149.48169
1.3289176,145.916
1.3747312,146.45247
1.4360684,143.63092
1.4598832,142.42035
1.299609,138.26678
1.4132793,135.84251
1.416271,137.35826
1.3066722,134.9976
1.2688708,133.52477
1.3684489,129.42949
1.2515773,132.72806
1.2777599,129.06407
1.3507324,125.08042
1.2365584,122.45893
1.1381236,123.3361
1.1992447,120.66391
1.0674207,122.11701
1.1376665,118.44501
0.99453455,118.97964
1.0534245,115.23967
0.95199144,115.95348
0.9412556,113.10882
0.98928905,107.83678
0.80389977,108.08891
0.73014176,108.678345
0.77307457,105.02798
0.7490428,102.54363
0.76129645,103.79465
0.7177928,100.418
0.7526602,99.825066
0.6421453,99.658745
0.60897106,97.46037
0.60223514,98.46656
0.64599395,96.187225
0.6557859,88.91187
0.62857383,89.87375
0.6040421,88.50267
0.62643725,87.66826
0.69624716,87.14317
0.5995975,85.94758
0.5283648,83.37201
0.5163986,82.5572
0.5304643,82.37818
0.5740053,82.31107
0.42405,82.5442
0.33837518,81.066284
0.40250185,81.87942
0.28653544,84.72344
0.18000014,83.25656
0.2707445,82.512665
0.18757445,83.32533
0.18540211,82.15548
0.20206456,85.1111
0.19030827,90.35031
0.06688164,88.4727
0.21879217,89.98174
0.22929904,94.606964
0.25542322,97.603096
0.35169214,96.62267
0.40074036,101.05073
0.41299346,102.49873
0.5355854,108.04139
0.66543275,108.873604
0.69641227,110.174675
0.77295405,116.7685
0.8196486,120.00974
0.9261284,122.93965
1.0031084,123.30945
1.1169374,124.76209
1.1968615,127.60794
1.2183473,131.04913
1.2357544,137.79878
1.4003522,134.58449
1.4005169,140.6353
1.4608654,141.91739
1.4422537,146.76016
1.3940027,145.70473
1.4699527,146.97255
1.5854561,149.285
1.4508326,149.67297
1.4540242,154.36308
1.4591368,155.59517
1.4734762,154.78987
1.5495532,157.1585
1.4339398,156.08733
1.4145874,156.85214
1.4480307,156.16399
1.4401716,157.0712
1.5090079,157.69151
1.4692613,156.13594
1.3952576,157.40015
1.3639556,155.53093
1.3218583,155.39034
1.3605913,151.88019
1.1833194,150.8149
1.239588,153.08551
1.1026299,151.12976
1.1925842,151.14752
1.1005461,143.91115
1.1450882,145.48634
1.1432276,146.65387
1.0258752,143.29031
1.0023687,140.65027
1.0198809,140.20547
1.0089768,139.07613
1.006701,138.09615
0.96123403,134.77542
0.9382458,134.20668
0.8514755,127.44422
1.0304033,127.76462
0.91824085,126.5787
0.8514773,126.909256
0.8050965,124.32221
0.8818906,123.58907
0.894666,119.21446
0.8556577,123.13576
0.7120198,116.60612
0.7692809,117.1462
0.74134386,116.6097
0.61487526,114.49419
0.69981915,113.59766
0.5478777,109.15602
0.557033,108.13774
0.5105792,107.256744
0.5141978,104.17437
0.48152667,105.13302
0.43385825,103.28847
0.40056452,97.9493
0.37426174,97.540535
0.31741717,96.9948
0.33164683,94.26822
0.34672695,92.49325
0.2691104,91.66156
0.44204363,92.76874
0.32707784,89.21797
0.25339743,89.09641
0.32667553,87.22725
0.38177666,83.000336
0.31857824,86.478874
0.28645188,85.77224
0.314715,85.26895
0.24370135,83.86182
0.086545475,82.259766
0.098095894,82.62515
0.099808484,81.02599
0.062563166,84.392365
0.07781052,84.65787
-0.03496608,81.64881
-0.050817914,83.11417
-0.06564551,84.42183
-0.07526058,85.58395
-0.07709167,86.50459
-0.02842897,86.769165
0.0020333962,88.99466
0.030105866,93.64315
0.016494675,95.48859
0.10899147,94.560936
0.152645,98.9413
0.22822618,101.20881
0.28919733,102.526764
0.26933962,107.78082
0.39067945,109.932556
0.4944173,110.67958
0.66669613,113.4793
0.6225302,123.10611
0.77622855,121.11283
0.8724533,125.27058
0.91774553,124.191216
0.95616055,130.97334
1.0790963,137.2687
1.0785737,137.748
1.1709489,140.15706
1.1572968,140.08003
1.2804587,143.8961
1.3591135,144.8622
1.3233632,148.99641
1.3437438,149.73209
1.3538626,152.52339
1.3318367,151.92104
1.3528253,150.14854
1.3385493,154.7311
1.4211614,156.16324
1.3414252,157.10771
1.3246169,155.27313
1.4448618,157.35176
1.3085188,158.34604
1.3600218,155.40799
1.2860924,157.94012
1.2350345,156.38045
1.35688,154.97049
1.2502826,154.8834
1.1945534,154.23465
1.1966017,150.71713
1.1497335,151.63826
1.1246809,149.50432
1.2439557,149.68805
1.0839506,148.89638
1.0318573,147.8565
1.0690439,144.22841
1.0263495,143.03493
0.96159613,142.39658
1.0063688,141.12323
1.0680112,141.41734
0.966589,139.40266
1.0294869,136.46187
0.95691997,133.4681
0.91526794,133.05464
0.9673793,133.40866
0.9592421,126.94714
0.9696402,127.269585
0.9938718,124.31906
0.9023131,119.57018
0.77098686,121.24412
0.8730022,119.98724
0.8481457,118.77677
0.8034326,119.72502
0.79056054,117.77723
0.73357505,111.70653
0.5965117,116.15528
0.59028304,111.86506
0.6769311,109.49127
0.6241818,112.34571
0.496238,105.27643
0.5901592,103.97289
0.5016667,105.308464
0.5299025,99.76915
0.47994912,96.54549
0.46108896,96.91794
0.45487532,96.729935
0.36810654,93.03549
0.46329898,95.06785
0.43271574,93.59851
0.4183323,90.989746
0.4578319,91.32053
0.51363975,88.955
0.3776511,86.16371
0.51191,85.766014
0.46547964,86.15634
0.40698138,82.447136
0.40487334,85.645584
0.35510212,85.16509
0.37570968,86.434265
0.3282546,82.21424
0.30832312,81.829285
0.16102962,84.44845
0.26490086,82.93074
0.2518288,85.89459
0.14961766,81.7553
0.12631619,87.31833
0.12703475,85.82633
0.110762306,85.1908
0.19283855,88.274475
0.12078866,89.74173
0.23635784,90.22049
0.3061656,96.08668
0.2904129,96.15046
0.22544788,101.36822
0.4726085,105.55095
0.5133455,100.8291
0.5741381,106.977165
0.6475832,112.90162
0.7992118,114.35975
0.80414027,120.23084
1.0091617,120.08426
1.0872284,123.2782
1.0648483,124.08902
1.1507304,128.54065
1.2279997,131.71413
1.2620246,137.78983
1.3804901,136.01494
1.3891119,135.86671
1.5017926,139.7492
1.6259255,145.18503
1.4952741,145.4212
1.5004413,150.48615
1.5506297,151.26952
1.6177182,152.12152
1.7208861,153.97731
1.6085415,155.17358
1.6202651,153.62431
1.5746025,154.59573
1.6948242,158.98569
1.6560006,155.3716
1.6629163,154.43109
1.5961361,157.29646
1.6147479,155.75482
1.626391,158.02257
1.5454997,158.01195
1.5063624,160.03746
1.5544429,156.83086
1.4622103,154.15535
1.4333692,151.82959
1.5064164,149.75795
1.4238112,151.77693
1.3988309,147.3707
1.3800822,147.30267
1.4079149,147.90395
1.4352483,147.36568
1.3024349,142.54158
1.2942513,142.8143
1.2853991,141.4162
1.3033679,138.57243
1.4066559,138.19586
1.3012065,136.274
1.2692835,135.1892
1.37471,131.69417
1.3417739,132.33545
1.1921536,128.04561
1.2482548,127.259186
1.242145,127.0522
1.2090111,122.933914
1.1993839,120.40723
1.2153287,119.49516
1.182624,120.07356
1.0496272,120.06744
1.1294997,116.865425
1.0250655,115.424576
1.0110129,111.467926
0.96087945,109.82352
0.9595198,109.8925
0.8678735,110.98318
0.95254445,107.438934
0.8135163,104.324005
0.838774,105.150826
0.789877,101.6442
0.7855262,99.59702
0.84116036,97.85923
0.78805876,97.087715
0.8120269,95.12958
0.70082676,91.30484
0.765168,92.56989
0.784984,89.49285
0.81553525,88.40104
0.812659,89.686325
0.8274573,89.09994
0.7864611,85.75574
0.7735799,86.26671
0.6124632,82.92417
0.69259995,84.85261
0.67826587,81.041336
0.7297589,80.84709
0.66134405,83.024796
0.4930962,84.028206
0.5846412,82.21843
0.57217115,83.25104
0.39609924,86.442635
0.44770014,83.66214
0.42749357,87.97727
0.48767078,86.88854
0.4130498,87.139
0.47259846,93.7546
0.43654823,90.54699
0.56681776,93.58189
0.59840316,93.746735
0.65562505,96.56643
0.6887434,96.04026
0.8133657,102.19891
0.8377185,105.85394
0.94411963,110.85069
1.0918009,111.01649
1.1743057,113.85757
1.1229204,117.96149
1.2249385,121.78079
1.4301406,124.75188
1.4728566,125.279755
1.539985,127.257645
1.5208169,135.66043
1.6501913,135.34383
1.6707773,137.84761
1.7346961,137.00166
1.8061929,141.1429
1.8700604,142.08885
1.8512529,148.54514
1.8630608,147.37633
1.9137276,150.00505
1.922129,150.69363
1.9139874,152.26335
1.9303889,155.89291
1.9479066,156.6813
1.9714142,157.69357
1.8764827,158.12732
1.9294169,157.57137
2.0506325,158.8733
1.9171641,159.02187
1.815394,158.72871
1.8118258,156.893
1.8854436,157.06927
1.8227506,154.05856
1.7649173,153.58658
1.8239183,152.48145
1.8222258,153.14926
1.7387674,150.89456
1.6714339,149.91975
1.6670662,149.28859
1.6434703,146.62688
1.5590978,147.781
1.5298955,141.57994
1.5827318,142.58516
1.5199708,142.23132
1.5449727,142.23935
1.5556511,142.13792
1.5195986,137.17921
1.5152334,132.28784
1.5246828,134.01971
1.4978331,130.10645
1.4022831,130.95349
1.4955978,131.11543
1.4565549,126.7523
1.3738658,126.351974
1.4464908,124.337524
1.3661461,122.29296
1.3529029,121.48314
1.3382559,120.75314
1.3644896,117.66458
1.2778621,113.15444
1.1815987,114.16862
1.0966651,112.76042
1.1480914,108.98649
1.1028157,107.9192
1.1457582,106.71419
0.9471354,104.753914
1.0481697,101.33395
0.9230407,105.81024
0.9355773,100.48203
0.92184407,99.59476
0.8870981,98.260925
0.9393374,95.80668
0.9276579,95.61061
0.8811132,94.47641
0.9050777,92.35835
0.97736675,88.08276
0.92488897,88.12466
0.8836894,87.81738
0.85636115,85.11557
0.8268717,84.12223
0.88017005,85.230675
0.8761437,87.28966
0.8322415,85.14639
0.7565841,78.43681
0.77254325,81.984665
0.6373891,83.26207
0.6704012,82.63556
0.6019733,82.19811
0.6209362,83.18248
0.5750492,85.8151
0.5564685,87.64293
0.55506474,88.592926
0.5243089,86.82691
0.50857353,85.17772
0.4478154,89.72253
0.5496404,93.47669
0.61239773,95.783264
0.6984062,94.19941
0.6457324,93.065575
0.7822161,98.74903
0.813126,100.17717
0.7987306,108.14
0.96237445,110.94037
1.1249521,111.63947
1.1180124,113.59759
1.2601974,118.08847
1.2927793,123.773285
1.3564246,122.42599
1.3855599,127.53145
1.553204,131.85176
1.4840391,133.44728
1.6558536,131.9523
1.731126,137.11598
1.7308943,138.1178
1.7204179,145.09682
1.8004661,145.92874
1.8142513,147.65503
1.8861016,150.54716
1.8347102,152.88489
1.8786374,152.78136
1.8673625,155.06284
1.8594557,153.14972
1.8082213,154.71713
1.8880061,156.98418
1.7575473,160.91656
1.8404074,157.67845
1.7980973,158.48337
1.7583371,153.48907
1.8048182,158.12239
1.8281099,156.95581
1.7278383,158.62088
1.6986631,159.34811
1.5661374,153.5375
1.6358316,155.77405
1.5429124,154.1547
1.6663948,149.50139
1.5522203,146.42569
1.5172621,145.01857
1.457683,145.06354
1.4930956,146.28598
1.4847614,141.16713
1.345548,141.2757
1.3810426,141.24547
1.4623389,135.71397
1.4287549,138.37114
1.3719164,136.40451
1.3724116,135.807
1.2948347,134.76129
1.267158,134.30742
1.308578,129.74516
1.2643424,125.29518
1.2357786,124.26474
1.251848,120.35388
1.196886,123.15024
1.1441022,118.862915
1.1385142,119.15566
0.99628204,120.80603
1.0636183,116.39974
0.9567008,116.0156
0.9895686,115.15354
0.8711299,111.50068
0.8989629,110.196045
0.76795423,107.49881
0.76144993,103.64121
0.7538678,104.226524
0.6938221,100.978035
0.7462536,101.12014
0.67178917,101.22151
0.67799985,100.59403
0.65592206,98.03035
0.6899098,94.93808
0.5956718,90.96393
0.5655885,95.440765
0.67979115,90.410065
0.68534017,91.37248
0.6480535,88.14065
0.43595728,86.50932
0.5661482,86.600716
0.56836605,84.07471
0.5747802,84.610664
0.45490715,82.95549
0.51071805,82.84462
0.54303336,80.955505
0.47532666,80.2729
0.37481946,82.26423
0.35029662,83.452644
0.2568396,81.84714
0.29819658,82.35016
0.1433358,87.77776
0.13219938,86.97925
0.22501051,85.22695
0.21213931,87.87918
0.16882262,87.92762
0.17344713,92.32512
0.23678455,92.30684
0.36455202,95.66988
0.33248302,96.48782
0.42835703,99.482864
0.431261,100.392204
0.48703286,106.03482
0.6720775,104.63227
0.6432238,112.26857
0.76663005,114.13877
0.82203984,117.06569
0.9021992,118.781624
0.87891257,122.28869
1.0799314,125.48286
1.1510503,129.94304
1.1843413,130.93672
1.362907,134.62773
1.2988032,137.25902
1.4775698,141.92044
1.4018439,142.0887
1.452803,143.19206
1.4598725,147.29387
1.4929861,146.83916
1.4563879,150.3217
1.4804938,149.48741
1.5908967,153.52492
1.4261578,155.68506
1.4913996,153.57307
1.5434234,156.6117
1.5511885,156.81787
1.4843158,157.32216
1.4717556,158.31007
1.4892741,158.59529
1.4653623,158.07127
1.341541,159.0918
1.3403283,155.83295
1.3634197,154.97972
1.3829554,156.69585
1.3602281,154.9582
1.2170557,150.84062
1.1801845,152.33965
1.1705308,152.43713
1.1554056,149.47311
1.1107901,145.86395
1.137653,147.21782
1.0958165,144.5453
1.0329362,144.94547
1.0317658,142.10666
1.0595968,142.57481
1.0204585,139.32062
0.94480866,136.55568
1.0212432,136.95868
0.914464,136.16011
1.0052813,132.05069
0.96703774,130.71869
0.94312733,129.6257
0.8850435,125.51685
0.869286,124.85599
0.8905474,124.88105
0.88910216,124.36125
0.86084175,120.284966
0.76801693,119.09072
0.70224184,115.254395
0.6700397,115.80147
0.69163877,111.70897
0.6553524,113.45131
0.59776443,109.654564
0.60749847,113.29048
0.5086416,107.53231
0.4652352,107.20112
0.42973372,104.86647
0.41903576,102.7739
0.44370857,104.10279
0.44017357,97.57522
0.41536376,99.231026
0.29148513,97.698845
0.40272048,92.87635
0.425449,90.327644
0.31969434,91.476944
0.38208327,91.63197
0.38954377,91.215225
0.36661416,86.44976
0.30910662,86.455986
0.29028377,89.09595
0.2799802,84.44622
0.21339045,81.9774
0.15312997,84.33832
0.21951185,85.31489
0.14850402,83.5151
0.22522007,78.13952
0.0501369,79.04656
0.1351834,83.01219
0.028127968,84.32399
-0.02852118,83.29979
-0.11484482,83.03646
0.029407263,83.81874
-0.06572242,85.89592
-0.024167525,85.537605
0.033316985,89.68544
-0.02066844,92.13899
0.040041238,95.36226
0.113905154,94.4821
0.08209425,96.84436
0.15514137,100.486946
0.25089872,101.50864
0.2526309,103.034775
0.43041918,112.304276
0.5671791,113.366035
0.48521772,110.73513
0.6297515,117.09864
0.700743,121.58452
0.7396956,123.916534
0.89840287,127.110405
1.0561192,129.07248
0.9680041,130.65704
1.0886233,135.83156
1.1273911,140.16414
1.197586,139.7361
1.2745765,141.46486
1.2822741,140.32016
1.3453199,147.3886
1.4058459,148.20695
1.3540084,149.2911
1.3956407,152.05238
1.4175737,151.05997
1.4913474,158.19255
1.3799251,156.33125
1.4521476,155.62587
1.3901837,157.54724
1.4108983,158.4434
1.3525755,155.60475
1.3216991,154.78477
1.2958412,157.43532
1.2695563,159.39531
1.2425976,156.29099
1.2753614,154.88275
1.2137017,152.94801
1.2269615,152.46999
1.2142168,152.01183
1.1707689,153.43466
1.0652914,154.81616
1.0808144,148.81232
1.0345145,147.09782
1.1237068,148.49858
1.0756516,147.54997
1.0109135,143.22516
1.0550426,140.70001
0.9841061,142.10927
0.954316,141.79665
1.0298014,134.30728
0.93391424,135.92198
0.9338692,129.62935
0.9532937,132.94731
0.89235294,131.495
0.9106834,128.50575
0.860666,128.17827
0.83763045,124.69013
0.90241957,124.47604
0.7940401,122.619995
0.8253943,122.40777
0.74239415,121.98025
0.7419812,117.70451
0.7091561,114.881645
0.71939224,111.484985
0.6346338,112.04742
0.7084433,107.840034
0.58633876,109.98617
0.5773662,112.51978
0.43045542,105.526146
0.47305185,103.86116
0.49903592,100.188965
0.48700136,98.84383
0.3869024,101.135254
0.49384794,97.650406
0.4162088,96.070435
0.44549873,90.754974
0.40835097,90.583435
0.46466294,90.56254
0.42869714,91.57179
0.43539718,90.64416
0.406198,87.84142
0.43639344,87.69904
0.427674,87.30678
0.26337,85.866615
0.3019194,87.67922
0.28165823,82.61101
0.3018416,81.6873
0.14370602,88.32916
0.27712765,81.1183
0.12917703,85.05801
0.15988395,83.1411
0.16111977,81.65784
0.08405414,81.68165
0.13273646,86.367836
0.035602376,86.02915
0.18384467,86.306526
0.1069348,91.064964
0.15401042,91.999275
0.1342998,94.97987
0.22028233,92.681145
0.24514455,96.53321
0.28169784,96.19744
0.29602095,100.94482
0.48884282,106.30725
0.5325507,107.04531
0.6360833,109.56038
0.7304369,115.313736
0.83523446,114.17547
0.78677666,121.65801
0.96853256,123.892685
1.0976535,121.702286
1.0931603,129.45152
1.2615488,132.50171
1.3094589,133.54752
1.2680926,136.12744
1.4226696,136.66257
1.4765093,138.79942
1.5200278,143.96571
1.5143813,144.24956
1.5244329,151.22223
1.5620612,148.05713
1.603272,150.11154
1.6667751,151.66699
1.6233087,154.61118
1.5859928,155.54413
1.6275209,154.04295
1.6991538,155.59308
1.6032724,157.23732
1.645719,157.75858
1.7272172,154.96773
1.6151514,156.34534
1.5861235,159.2417
1.5194852,156.93758
1.5248206,158.24106
1.5256017,153.56845
1.5082544,156.3754
1.4328591,152.8526
1.446412,152.80988
1.4467187,151.75975
1.4335129,150.69603
1.3415209,146.21991
1.3937457,147.5278
1.4386991,146.47552
1.3389155,146.15552
1.2859321,145.6854
1.3131051,140.15265
1.3167021,139.00429
1.359214,138.75478
1.2244736,136.89018
1.2399685,137.21466
1.2412437,131.51923
1.2847426,131.99832
1.226658,129.18701
1.2318356,125.46721
1.2255034,128.0151
1.1639014,125.35097
1.2124599,124.32694
1.1800387,119.375015
1.1289747,120.47749
1.1068149,116.949196
1.1505935,115.807846
1.1264503,115.83316
0.97412515,111.63507
0.98869896,113.72922
0.9093872,111.2369
0.9504889,108.248924
0.9559603,106.67601
0.82536846,104.779045
0.85069096,106.63263
0.78913844,103.629326
0.7931155,103.290245
0.8664213,98.02824
0.80662715,98.6073
0.72221875,91.96147
0.8214426,93.12735
0.74784386,91.96111
0.848662,90.59778
0.7114419,89.780106
0.7256365,88.29342
0.6666601,86.85708
0.83541304,84.67886
0.7833433,85.81631
0.7103961,85.67795
0.692578,85.66547
0.6506227,84.69491
0.6130136,83.76415
0.5287406,79.653366
0.57698727,84.22227
0.55540025,82.866005
0.5752622,83.503914
0.5380236,87.380615
0.4759059,83.074715
0.4180756,83.95395
0.45498252,89.21751
0.4036196,86.60371
0.48755416,91.110344
0.4642768,91.18313
0.54685247,92.09114
0.52490276,93.36197
0.6266976,98.13851
0.6940043,99.189224
0.7116313,99.94025
0.7696204,102.77718
0.97579193,104.67475
0.8969255,106.60707
1.1569644,111.307945
1.2036862,113.384544
1.2827023,122.70293
1.3695446,124.00533
1.3391576,125.74685
1.4681491,127.39389
1.5404365,130.21388
1.6780565,134.03468
1.6426446,138.13182
1.7078975,140.61786
1.8845873,140.58589
1.8313752,144.3726
1.8430291,143.78725
1.9124935,148.93958
1.8707668,153.24817
1.7979414,152.03818
1.9673325,152.68651
1.9470415,155.89558
1.9409218,152.93465
1.9299784,154.84393
1.972379,159.71878
1.8580064,161.69586
1.9957385,158.53482
1.9556433,160.92035
1.9434748,155.44527
1.8628455,160.9208
1.8818254,154.0192
1.8123195,154.44928
1.7765088,152.5718
1.8472714,152.57123
1.7798672,156.41785
1.7014548,151.92351
1.667897,151.42947
1.6401031,151.9032
1.6140826,148.48517
1.5177771,145.83884
1.6060742,144.52156
1.5703967,143.0265
1.5538795,139.49812
1.5358596,139.62889
1.4761363,139.67616
1.5935947,136.08015
1.5717678,136.43599
1.4786693,131.14478
1.5624175,131.11111
1.4882007,128.24196
1.4352922,128.59253
1.4585482,131.27791
1.4496948,127.65977
1.4591889,121.04968
1.3642806,120.88966
1.3753631,125.48242
1.3080089,122.6222
1.2063295,119.01932
1.3102851,115.16745
1.2060246,114.472435
1.1926938,112.11449
1.1173642,109.36343
1.1365147,110.25969
1.0418985,109.510376
1.0966102,106.53908
1.0459455,104.031296
1.0529957,101.146835
0.97064734,103.45567
1.0042967,100.279396
0.96530294,96.14494
1.0038716,99.26945
0.8538321,94.53712
0.9690993,92.29901
0.85012937,92.46225
0.84113204,91.71474
0.9584408,90.78829
0.8229672,91.99965
0.8823142,88.26662
0.81983405,86.42083
0.9470721,89.02123
0.8659358,82.18811
0.8534768,81.36786
0.90926015,83.1277
0.80947953,83.23918
0.69843376,83.553474
0.72324914,81.20849
0.6403363,83.92169
0.5804586,82.730896
0.536998,80.26333
0.5477511,84.37062
0.5541085,86.84432
0.5129229,90.78133
0.43562907,87.041405
0.5387119,89.96936
0.47307435,89.871445
0.6826625,94.7782
0.596382,96.111275
0.68341666,97.70125
0.8151017,101.22651
0.7883436,101.47118
0.8805338,105.55417
0.9356312,106.60719
1.033446,110.33123
1.1621554,114.28222
1.1456637,115.89528
1.3079277,118.77251
1.3705243,123.702324
1.4536946,126.99694
1.4979334,129.82382
1.5391414,128.10579
1.6617609,134.75179
1.6425252,134.6132
1.7773634,139.49742
1.8282194,138.41742
1.822835,141.63506
1.8187819,146.44699
1.84228,149.10678
1.917095,151.63829
1.7788249,152.75175
1.8507081,152.18134
1.9037062,154.16805
1.8504256,157.76169
1.8971435,157.83481
1.8926603,156.86021
1.8649117,156.96648
1.8456086,155.63756
1.8597552,157.27759
1.8698813,158.86748
1.8000047,157.60988
1.7063023,156.35066
1.7297277,155.21503
1.7036362,153.75359
1.5999756,152.7632
1.6672878,154.25963
1.5984517,153.91469
1.5942383,152.16505
1.6172476,149.95044
1.5201244,144.37883
1.4727352,144.01053
1.4665426,144.82304
1.4207896,143.26825
1.4171777,142.6348
1.3541411,143.86652
1.3597423,139.05461
1.2848006,137.38701
1.3256605,132.97255
1.430037,132.47644
1.2741618,132.9397
1.4053506,129.60728
1.3601824,126.06849
1.2956132,127.48591
1.2053342,126.40098
1.1862394,120.89453
1.1523523,120.71917
1.1902646,119.09117
1.0441607,120.10462
1.0744599,114.83378
1.1163119,114.14292
0.95470965,112.20315
0.98700255,110.3147
0.9605929,113.37011
0.89571565,108.84527
0.7927004,107.87845
0.8318214,105.18115
0.81788737,105.17749
0.7794174,100.01697
0.6918259,104.189224
0.7062984,100.63037
0.71315473,96.30745
0.66244805,96.26053
0.6923427,94.17213
0.7137961,95.612656
0.7395228,90.85903
0.71052843,90.18637
0.6859094,88.43302
0.6724521,88.69588
0.64277184,89.50107
0.6469877,87.62095
0.6395189,85.03023
0.57000613,85.05743
0.56574696,88.24801
0.5030244,83.456
0.39040557,84.08496
0.44502708,82.16506
0.33652055,82.8321
0.33848298,80.40713
0.3459304,81.98199
0.2458384,84.17702
0.36086497,84.96622
0.22285812,85.72656
0.25224876,86.301
0.23373131,89.416016
0.22660735,90.13885
0.25147086,89.529686
0.34131277,92.29835
0.3734466,94.51409
0.36262023,98.60109
0.34788272,102.333664
0.55639434,104.35232
0.6420126,106.09368
0.71392286,107.63025
0.80956435,112.24854
0.84653646,114.0521
0.85287076,120.90419
1.0501846,123.34377
1.121938,121.81441
1.2291166,127.18909
1.182197,126.74196
1.2769095,131.20995
1.3856045,133.98346
1.4290086,136.88754
1.4446863,140.77505
1.4547691,145.52254
1.515957,143.08957
1.5262605,145.42421
1.5657833,148.29936
1.6134318,153.88844
1.4857476,151.31287
1.6174875,154.7306
1.5887583,153.11536
1.423522,151.35631
1.416419,157.23627
1.4396609,156.42703
1.4337732,159.2395
1.4985628,160.82387
1.3609076,159.18137
1.4101958,156.67642
1.3745544,153.03792
1.3574815,155.18639
1.3513788,153.82329
1.337923,154.58182
1.3785427,156.15442
1.3866571,154.22487
1.2746882,149.37187
1.2264184,148.41797
1.1470089,147.48097
1.2478948,146.32732
1.1354166,144.41637
1.1238736,146.17163
1.0377475,141.77847
0.9078435,141.36807
1.0749848,138.12473
0.9752047,136.25993
1.0141176,134.29836
0.96370405,133.24095
1.0158451,134.03036
0.930908,130.70848
1.0357068,127.65517
0.9578143,126.52358
0.9465884,129.8839
0.89290196,124.02099
0.9329664,125.33971
0.8074633,124.423645
0.6879051,119.800186
0.73965424,119.40887
0.6822152,115.29212
0.7324807,114.96181
0.60722125,113.68526
0.4945433,115.00184
0.6609764,109.03335
0.56320244,109.4679
0.47018498,107.94946
0.47500753,106.27258
0.44099534,106.17462
0.41832763,102.80569
0.42757183,101.665535
0.37407288,101.33806
0.3620447,96.331764
0.38952577,93.3513
0.31739673,93.859055
0.28864735,93.20954
0.30633986,91.40549
0.3596928,87.81612
0.31342724,90.72598
0.30146185,87.80048
0.31529263,85.61778
0.2871057,86.47566
0.32353494,85.24451
0.24396883,84.66795
0.27355942,82.37605
0.12576488,81.21189
0.16842927,80.456505
0.14802533,83.08425
0.15564938,81.35455
0.0761023,80.94228
0.030958949,84.75921
-0.042561606,86.69993
-0.10924299,87.9593
0.0032071513,86.43667
0.01038394,85.72082
-0.11723714,87.54927
-0.020733684,92.61318
0.031665288,92.677444
0.07470757,96.28236
0.08662375,95.474655
0.17295393,98.918396
0.077932805,100.07425
0.30742657,103.59267
0.36302945,105.252266
0.4603959,109.98695
0.56905437,113.359474
0.6320432,114.98903
0.77501583,118.12417
0.8018824,120.94691
0.91674876,127.66599
0.9176445,129.60751
0.9803149,132.30183
1.0943302,131.42511
1.1412452,137.0716
1.2140421,141.63007
1.2699829,138.33191
1.2847255,141.45262
1.2590744,143.29861
1.2568247,149.41185
1.3349669,149.57484
1.3467983,153.07893
1.3893366,152.60883
1.3106829,153.90213
1.3355181,154.77756
1.3912683,152.21687
1.3850126,157.62872
1.2861314,157.84877
1.3557956,154.39578
1.4398878,160.56618
1.3507115,155.6736
1.3911878,153.63731
1.2907789,157.87917
1.2324536,155.80432
1.2007089,156.63065
1.1684917,153.30939
1.2052572,152.18234
1.1526002,151.27057
1.2006347,151.5855
1.0728012,145.997
1.0754031,147.50357
1.1027983,147.53064
1.0493581,146.22928
0.9511517,142.60669
0.9780575,142.3532
1.0440927,137.46817
0.9876329,136.81023
0.9434123,139.53203
0.9949051,134.99734
0.93141556,134.58305
0.8365374,134.72142
0.9626385,130.40916
0.86162317,129.10585
0.84520817,128.41963
0.86629057,127.3559
0.91920495,122.99052
0.8691091,123.357864
0.796387,122.43001
0.7747087,121.21118
0.79344165,118.07782
0.71677613,118.1905
0.62033236,115.80495
0.64754033,113.85865
0.585495,110.62762
0.57613146,107.11296
0.58124673,107.60419
0.49067086,108.4487
0.4436605,103.92946
0.41156033,102.70784
0.5176529,103.24183
0.5455435,99.77319
0.36463127,100.13608
0.39851326,95.289986
0.45418712,92.25005
0.3947561,92.93829
0.42362744,91.89785
0.36360374,92.822296
0.39066762,90.545204
0.34726822,87.67994
0.4915232,85.91535
0.40785405,88.45612
0.33472583,85.55085
0.43815356,82.8221
0.35758555,84.08911
0.2131949,83.100464
0.25673473,83.97544
0.23450626,85.11456
0.21958888,80.140205
0.189961,83.1937
0.22169298,84.85848
0.1557019,85.62806
0.07619933,86.800255
0.015492083,83.33116
0.020840745,86.69519
0.065088525,84.86451
0.12997161,86.9069
0.078011945,92.38344
0.22840004,92.9061
0.2529171,93.79724
0.2731966,98.83369
0.3979124,98.72232
0.45686024,102.86961
0.4726426,105.84909
0.5111849,106.88814
0.6087421,110.2247
0.8134013,116.13223
0.80636346,116.12746
0.9106262,116.77913
1.001122,123.50908
1.0782939,126.70214
1.1496662,129.06197
1.2386788,131.35579
1.273305,132.44254
1.2618406,139.22375
1.3588027,138.06325
1.4302385,143.77002
1.3669502,143.77422
1.5117433,146.59895
1.5688453,149.63625
1.496566,148.18315
1.5043099,154.02434
1.5846019,149.76627
1.687666,155.64197
1.5412331,156.37244
1.5948097,156.0622
1.6265328,156.18973
1.58756,155.6369
1.6490906,158.28806
1.5309927,155.30568
1.5850037,158.94257
1.5781392,157.48921
1.5922512,156.09094
1.3761115,157.30182
1.4896033,154.0423
1.449018,153.31616
1.406183,153.23589
1.4408655,152.52122
1.3716638,148.8985
1.2426243,149.08157
1.3404906,151.00041
1.2558327,145.51743
1.2660928,147.38954
1.3020428,140.31525
1.297525,139.3563
1.2492356,142.2354
1.2710665,138.25546
1.2317144,138.88968
1.3062903,132.52168
1.2295897,134.22563
1.2613823,133.66252
1.2465255,130.75078
1.222828,127.51108
1.283269,126.285164
1.2469274,127.42569
1.1600624,122.06219
1.1616347,121.79005
1.2550663,118.363945
1.0481042,120.736336
1.085822,112.08208
1.0771319,115.38187
0.9980732,112.45151
0.9656474,114.564865
0.94733185,112.31273
0.8565298,107.557594
0.8526607,107.29002
0.86459154,102.62342
0.8159241,102.10638
0.69310373,104.77227
0.71513265,103.69313
0.7533907,99.42005
0.82963747,99.62876
0.75665534,95.949165
0.79607344,92.95976
0.7457951,92.23672
0.7879872,91.279366
0.7608701,90.127686
0.70134395,87.1663
0.76124364,88.369
0.6612751,88.59056
0.75350523,83.90058
0.74397355,85.942566
0.6097699,85.77934
0.65768504,83.50871
0.5563455,80.73247
0.5477213,84.26544
0.64819545,83.29972
0.58160144,81.80971
0.51987,85.47232
0.5109575,84.84887
0.4798291,83.18782
0.3980703,81.208466
0.4236693,82.238655
0.42148963,87.00939
0.4099059,87.74399
0.584402,91.265205
0.49911663,93.094444
0.5674297,90.80843
0.5472312,98.159225
0.59789985,98.6788
0.69939184,97.42272
0.77436805,104.185974
0.85567546,106.61018
0.9864613,108.70728
1.0067194,112.597084
1.1198038,115.874016
1.1369876,118.00318
1.2783322,121.52924
1.3694004,121.033264
1.4931905,127.58811
1.657269,129.45657
1.5823702,133.69049
1.6526027,135.87051
1.6477164,139.05518
1.7572792,138.83739
1.7627732,144.96935
1.8258526,147.38535
1.817847,146.47365
1.9608214,149.88464
1.9889598,148.56516
1.916886,149.26282
1.8468537,154.81496
1.905333,156.03322
2.0934322,154.08008
1.9813029,157.68335
1.9090902,159.57631
1.9230269,157.37408
1.906446,157.78583
1.8513098,152.61919
1.83852,158.06856
1.8797414,156.8329
1.7818356,158.50392
1.8711303,153.98665
1.9055625,154.81697
1.7588053,154.95058
1.668328,152.57849
1.7451909,149.6692
1.6644629,148.2005
1.6542108,150.6502
1.5956234,146.97392
1.6355612,144.64824
1.6308231,147.54224
1.5085212,140.44237
1.4079715,144.34248
1.4566926,142.77245
1.5277476,138.28336
1.4961722,139.53978
1.5255913,136.61758
1.5453377,131.35509
1.5551243,130.69415
1.4647819,128.87465
1.5610071,127.58648
1.454105,127.14193
1.4605553,125.82393
1.4369223,121.376785
1.4451119,121.27793
1.3727417,120.62977
1.322799,119.93925
1.2750252,116.3128
1.2493128,113.30973
1.2172166,111.602776
1.198588,112.73491
1.1454033,109.54102
1.09785,109.188614
1.0805975,109.34008
1.0553215,106.24064
0.9718509,103.122185
0.9618639,103.24147
0.95386434,99.54903
0.96597075,100.60318
0.89809173,98.09624
0.8999488,95.006676
0.98234016,94.9066
1.033882,93.09117
0.9023448,92.80842
0.8383592,91.89472
0.9745126,92.07073
0.8584098,90.90369
0.83091646,84.34157
0.84582263,86.277145
0.8107838,84.258484
0.78892505,85.83874
0.8164147,78.11332
0.6517535,84.58896
0.6544501,81.79748
0.72003955,83.008644
0.6369788,84.220245
0.63667035,84.16208
0.5502517,83.46562
0.5479925,84.1739
0.5230616,84.56227
0.51281315,87.208626
0.45309874,86.231606
0.5629899,87.24142
0.53448546,91.01
0.5282266,95.5094
0.63621354,96.704475
0.7153903,93.499214
0.7711115,97.908
0.75480556,100.230255
0.8782125,102.019196
0.9629057,104.607285
0.98949754,108.74714
1.0965818,113.51153
1.2648457,111.82739
1.198434,119.98305
1.278859,122.019104
1.4359661,124.42605
1.5257161,128.56996
1.5708077,128.71628
1.6524036,136.13849
1.7133095,139.02466
1.7582989,139.293
1.8554661,140.52461
1.815301,144.35455
1.7517627,145.63814
1.9257599,149.44205
1.922771,151.05438
1.82001,150.59668
1.935967,153.51767
1.896863,154.42082
1.9637066,154.05573
1.8554194,157.94601
1.8715078,155.07617
1.8287462,157.22836
1.8617043,160.70735
1.8740797,155.95848
1.8552366,154.88474
1.8493171,156.09593
1.7317661,155.7905
1.7939858,157.2497
1.747383,151.99173
1.6439089,154.3178
1.6535664,152.96686
1.6158601,154.31209
1.5726568,153.10144
1.5679835,147.23798
1.4796679,149.48705
1.5043682,146.62547
1.3942894,145.55342
1.4585173,145.41125
1.4230576,144.10378
1.3983446,140.83429
1.408921,140.21793
1.4231012,138.74242
1.3232,135.18524
1.3247672,135.10951
1.3870472,133.52159
1.381141,129.54338
1.3108639,132.90663
1.3113265,127.873665
1.3351947,125.35784
1.3568972,126.13058
1.2387408,125.14796
1.1668696,120.516136
1.1643819,119.72233
1.1412681,120.51629
1.052221,115.374115
1.1240461,114.61054
0.98452234,110.22061
0.9671123,114.41487
0.89680976,111.61247
0.89902514,108.29828
0.85780865,107.2635
0.7837519,105.69534
0.8483379,102.97824
0.7539106,102.22333
0.7643363,98.58915
0.8097177,98.85417
0.7757866,98.04196
0.6827685,95.10515
0.7198679,96.17355
0.7228873,93.95714
0.6662139,93.26176
0.7709165,90.15924
0.68555194,88.82262
0.72930557,87.84952
0.6936383,85.91387
0.6046392,86.88127
0.6199717,85.81054
0.58519274,85.43985
0.5342628,83.9818
0.5409809,82.71766
0.51249474,83.18775
0.39176828,80.355865
0.4294127,80.581215
0.3326212,84.680016
0.3196551,80.746864
0.29895565,85.07396
0.23171036,85.718475
0.26229876,84.731125
0.26121044,86.508896
0.25788182,91.61535
0.25884297,92.30957
0.27320346,94.75823
0.34763217,95.32491
0.3481035,98.21536
0.39682183,97.43699
0.5397962,103.15009
0.47591558,103.449524
0.6095598,106.27512
0.72018635,113.36862
0.8636719,117.65267
0.83815664,119.5521
0.98711175,120.45094
1.1389202,122.23404
1.1588315,127.203064
1.1586914,124.26147
1.2467307,131.82973
1.3051445,129.8129
1.3261023,136.71686
1.4519088,139.18277
1.4514999,140.22404
1.4674314,146.00598
1.5461472,147.20482
1.4736023,151.70482
1.5256786,151.35117
1.5841782,154.24304
1.5575312,151.19426
1.5729157,154.81056
1.5394219,155.05663
1.640836,157.09285
1.585188,159.06612
1.4841914,153.69034
1.572431,157.24164
1.5330977,159.98865
1.4618566,160.53075
1.5088007,155.22832
1.4620153,154.44063
1.3770778,158.36353
1.4875454,153.07973
1.3298343,153.21486
1.2819785,154.13016
1.2451608,153.45305
1.2254587,147.50314
1.3617804,150.82545
1.29853,151.72408
1.2601143,146.53658
1.1977657,145.69403
1.1465287,145.70628
0.99176335,143.25052
1.1581116,136.9891
1.0930525,137.73659
1.0586385,134.3344
1.0187268,136.84383
1.093225,132.44225
0.9452991,131.92241
1.0919888,131.57
0.9302361,125.65204
0.93448526,129.56995
0.96596396,123.88139
0.95244753,124.64024
0.8912115,119.85429
0.97775304,122.02188
0.80940676,120.13346
0.8363864,117.77824
0.7934181,116.49697
0.6696878,113.17533
0.67515737,111.00674
0.6593381,110.8314
0.62725997,110.45106
0.6266309,106.47486
0.5047924,106.72683
0.3832759,104.25272
0.4187996,102.640305
0.42112195,103.40683
0.36012015,97.36839
0.4500944,97.28713
0.41469494,95.507904
0.35885507,94.79638
0.33610156,95.314476
0.28171453,87.61583
0.43801177,91.30189
0.33961117,90.85632
0.4115597,87.05063
0.36731577,87.57193
0.3319703,85.87627
0.29567182,84.54197
0.32669342,84.22772
0.21953878,83.00147
0.18609522,83.70298
0.047219638,83.07157
0.13715123,85.30271
0.15160488,81.17787
0.02577502,84.58217
0.059641045,80.78997
0.069171034,82.16341
-0.06292892,83.64657
0.030129753,84.74446
-0.040887434,86.30878
-0.045763217,87.45999
-0.020842638,88.299446
-0.0051156655,92.58159
-0.01128508,95.31396
0.123382635,94.32326
0.23085548,99.24506
0.17911427,102.47323
0.3561595,104.90903
0.39261302,105.406006
0.37540388,109.35499
0.41230935,110.85645
0.58337224,113.18585
0.7215228,116.103935
0.7549038,121.90134
0.8520755,121.72842
0.9583602,124.84742
1.0436591,129.12546
1.0985965,134.66034
1.174028,132.78183
1.1129724,138.361
1.2250793,141.5419
1.2521266,142.23264
1.2823648,140.92644
1.3877137,150.09883
1.3358957,150.72913
1.3617201,147.10838
1.321051,151.52611
1.4099611,151.36151
1.3144447,157.16927
1.386225,157.00276
1.3479306,154.41302
1.4112551,161.73106
1.3126523,155.1889
1.2901725,157.87299
1.2813873,159.88144
1.3372146,152.9927
1.3811039,156.49278
1.2826495,153.59752
1.2538452,157.15207
1.2385445,156.78043
1.2476989,153.07993
1.15891,153.16708
1.1940504,150.69048
1.101249,149.30588
1.0658017,149.08273
1.0535169,145.97826
0.99535584,146.24667
1.0540627,146.5833
1.0416075,143.36092
1.0159895,143.18515
0.980736,141.14583
1.0184627,136.70563
0.8947513,135.9308
0.93507814,134.2115
0.9198657,132.49077
0.9944213,132.22876
0.91695803,129.62714
0.9345181,129.92436
0.8455971,123.10231
0.94746685,125.42682
0.93986046,123.14495
0.7874353,123.260056
0.86828744,124.19885
0.7357656,119.52774
0.70369923,117.92718
0.713366,115.035194
0.6483907,110.994385
0.58343965,113.56293
0.60574615,110.72098
0.49865866,109.86085
0.51478904,108.3761
0.47179908,103.30588
0.4728125,101.09543
0.45197663,99.70484
0.43935347,100.601364
0.43493637,99.1421
0.37326658,96.990105
0.34371516,96.06913
0.44242784,93.89979
0.4092896,91.320114
0.3370311,90.46175
0.39861047,91.54875
0.27039176,87.328705
0.37808472,85.30344
0.29342252,88.19329
0.33994707,85.00493
0.3458474,84.14545
0.3287175,81.447174
0.28396717,81.23863
0.20610777,83.0095
0.25137237,81.29539
0.21600078,81.09664
0.16469829,80.65137
0.17175455,83.754745
0.19266592,83.622185
0.059066363,84.97485
0.025885569,86.47955
0.085023284,83.62685
-0.048377037,88.169846
-0.007787022,87.454575
0.03471815,90.48808
0.12503141,93.34105
0.17110728,96.13144
0.21920244,97.05289
0.31238315,99.640945
0.33932507,100.849266
0.39160088,105.923256
0.4161969,103.70161
0.65951353,113.01461
0.7530462,110.76545
0.7660445,116.096634
0.79233027,117.534225
0.8697128,121.67767
1.0289868,126.22459
1.0255942,125.79919
1.0737809,131.68799
1.2833335,132.86823
1.3688838,136.42319
1.3588188,138.36499
1.3850671,139.67157
1.4682119,142.34392
1.5023601,147.842
1.5077078,147.3249
1.5378915,149.3626
1.5775974,152.6904
1.5567654,153.7552
1.6635587,151.6036
1.5716338,155.56305
1.5446868,155.55478
1.5402303,155.77045
1.5618482,157.91122
1.6407094,157.94728
1.4592637,155.70857
1.5866148,160.32953
1.5216655,157.21613
1.6167158,158.28195
1.5809954,156.51662
1.5337871,154.11185
1.4965923,151.98956
1.4354358,154.6663
1.3873631,152.64287
1.4521734,149.93982
1.3401717,150.24733
1.3137308,147.17294
1.2935202,147.40427
1.3034081,145.43532
1.176151,145.22353
1.2501023,142.26048
1.1634816,139.88289
1.1849351,139.2339
1.1940975,140.18063
1.1330708,135.44456
1.1447246,132.54234
1.2074326,130.9962
1.2062615,132.75153
1.1249734,131.39487
1.12579,126.82428
1.1565602,125.94256
1.192074,123.465065
1.198741,121.27123
1.074434,121.65506
1.0939022,119.06594
0.9847449,120.157814
1.0144464,115.18225
0.92985916,115.484184
0.988464,117.350174
0.94270474,111.07131
0.84136593,113.29054
0.8425371,109.98738
0.8830319,109.20182
0.8608169,105.90313
0.8381088,103.0259
0.81961066,102.659424
0.7279691,101.673645
0.7090655,94.983604
0.74687064,97.185715
0.73232377,95.24458
0.76202613,96.15605
0.7170018,94.417366
0.7329425,96.67139
0.7277037,92.12688
0.81713265,88.566986
0.7172098,86.54782
0.74428487,84.32787
0.7276959,84.41995
0.63564235,84.039345
0.56026834,82.593864
0.6956617,82.17328
0.6510798,86.26825
0.5652185,81.220474
0.56088394,84.264404
0.4505264,83.10382
0.51328087,79.58487
0.46599033,82.27393
0.46149272,84.49894
0.5550741,87.793365
0.36678192,88.588715
0.40984842,88.72827
0.33089826,89.85431
0.41122866,90.14403
0.41739514,96.45734
0.52261287,95.951805
0.61088043,99.22884
0.6670981,97.84253
0.7795878,100.512596
0.7954976,104.88239
0.95643383,111.278824
0.8932843,108.969635
1.1706929,113.11185
1.2297987,112.712845
1.2048461,118.05239
1.3916217,122.95349
1.3670875,122.427345
1.5242599,130.03313
1.574039,131.42627
1.6526628,130.91338
1.6799196,137.70386
1.669816,139.20593
1.7284425,140.30063
1.832878,146.44545
1.8140264,144.37688
1.8123362,147.72401
1.8943526,147.75652
1.9055177,152.76613
1.8351728,152.99323
1.8852562,158.39325
1.8420485,150.03392
1.8657464,156.30818
1.8364787,156.55254
1.8251708,157.04596
1.8974409,157.11353
1.8059546,158.61147
1.8592732,157.13574
1.918781,156.56487
1.7795938,155.48506
1.9151343,152.32132
1.743637,151.53685
1.7251444,155.80919
1.7245284,151.57298
1.7313255,151.51613
1.7212633,149.54352
1.6395136,150.85081
1.6385096,145.60165
1.6421388,146.79861
1.6248206,144.64767
1.586116,142.79832
1.4480714,143.58125
1.527452,140.65607
1.5522082,140.32791
1.4094052,139.69534
1.4903085,134.92772
1.5183005,136.99416
1.5201025,133.69092
1.4867736,129.47343
1.4249187,126.9901
1.4563663,126.63711
1.3629093,126.03823
1.3673246,121.51033
1.417548,122.80963
1.3396552,120.53615
1.3422918,117.9589
1.2489492,118.92709
1.2765006,117.01447
1.2759701,115.62483
1.1265433,112.68775
1.1692348,114.42155
1.0515089,107.27948
1.0582169,106.14567
0.97501266,104.04248
0.99171853,107.26002
0.9504069,102.657646
0.9768979,101.88119
0.89114934,98.84016
0.8774407,96.95308
0.9635946,96.73175
0.95883423,97.54426
0.85343355,92.60293
0.88100433,93.25811
0.9269155,92.841774
0.8897032,90.68054
0.97278064,86.415596
0.8594209,87.36499
0.8969899,85.40048
0.75718665,83.85663
0.77679276,84.00807
0.8639095,85.046844
0.8041117,83.36836
0.7368008,85.004166
0.6725791,84.341934
0.6350266,83.26217
0.6927236,81.71714
0.6830437,87.51945
0.57204676,82.31246
0.51346856,83.37501
0.60413545,88.44775
0.52871895,86.82813
0.5028951,86.53501
0.50041795,91.19045
0.6664422,91.67708
0.6542654,90.96404
0.62640554,96.204414
0.7444733,100.16065
0.79920185,101.87447
0.85264003,104.08345
0.7637759,104.20463
1.0786213,108.4489
1.0175018,110.82444
1.2138612,115.58469
1.1589519,119.94002
1.3273997,120.37643
1.3919127,121.08227
1.5418874,127.9195
1.5536802,131.23563
1.5986328,129.94136
1.6693547,138.48839
1.7343658,138.55344
1.7201104,139.20668
1.8941666,139.29558
1.9117959,142.63576
1.8787911,146.75531
1.9240603,148.09149
1.8879033,149.40558
1.8593123,153.0463
1.9193931,158.95953
1.9405074,154.83524
1.9450897,156.41252
1.9072869,158.3342
1.9014434,154.95679
1.857321,157.40547
1.9011084,159.0364
1.7366725,155.90701
1.802067,157.662
1.8165292,156.16234
1.8103116,156.9123
1.7547336,154.35693
1.8155019,155.33733
1.73264,155.15857
1.6731385,153.18971
1.5598093,152.89178
1.5925851,151.93196
1.6076591,148.03171
1.5755,151.08514
1.5762857,144.4456
1.4707468,142.39688
1.5988377,142.35677
1.4281704,141.38441
1.4337244,141.0041
1.417989,138.52007
1.3651042,137.98415
1.3890574,132.76872
1.4259238,130.93515
1.3952534,131.19783
1.4319412,129.89027
1.3607018,126.56694
1.2529712,125.01161
1.326408,125.96679
1.2322141,124.22322
1.2536619,122.56882
1.1663684,121.91564
1.156071,120.23744
1.1871289,117.75297
1.1329767,115.2895
0.9839974,116.553986
0.93934816,110.75917
0.9786573,107.20977
0.95886606,104.891266
1.031938,105.48685
0.77378833,104.68802
0.8240984,103.97297
0.79055256,103.479935
0.6919788,99.48949
0.8218069,99.957436
0.85720766,95.03938
0.7442704,94.10838
0.7635933,92.29243
0.80610955,92.10991
0.7356887,90.80574
0.69469726,92.56592
0.7122364,92.0851
0.63741654,86.82
0.65084267,86.853035
0.58421504,84.272705
0.64673775,84.367195
0.69049656,84.91557
0.5841678,81.38161
0.56204414,86.696396
0.42430574,82.8751
0.53649473,83.527214
0.42452574,84.427826
0.40896094,80.47031
0.26967874,84.85457
0.37925035,86.0531
0.26973432,85.28911
0.36211327,85.88687
0.2864973,88.22679
0.30177793,90.328995
0.2510667,89.16917
0.26093587,91.274086
0.402386,92.19094
0.39377224,93.57806
0.4463542,94.130905
0.42101127,100.982475
0.5514565,101.64055
0.6086007,107.71959
0.7067477,111.5256
0.81660944,116.31109
0.8801562,114.694534
0.9702516,115.33472
1.0230877,119.12349
1.1569045,124.54431
1.207853,124.90895
1.211844,130.24431
1.3101547,134.21274
1.359491,132.38951
1.383335,137.68622
1.4541779,140.06909
1.3816801,142.35693
1.5660479,145.78258
1.5825998,145.04288
1.5126376,150.41095
1.6612043,151.55258
1.4958229,156.5617
1.5596213,155.15204
1.7004101,156.30888
1.6215466,156.00768
1.4942024,153.74568
1.569659,159.93018
1.5717596,156.8872
1.4468443,159.20897
1.4524194,159.52565
1.4520298,157.50725
1.5683683,151.79199
1.3436991,154.13277
1.3626398,155.27513
1.3773798,157.93636
1.3411322,155.68745
1.341297,152.31294
1.3029027,150.9294
1.2902348,148.56279
1.2040864,150.59828
1.1799179,146.33716
1.1014547,143.19423
1.119366,146.07697
1.1459458,141.07393
1.1113913,140.62805
1.0553769,140.64894
1.0584141,137.80156
1.0965599,137.30855
1.0453014,134.00296
0.9802386,134.87111
1.0783156,131.38254
1.0352721,131.51038
1.0189719,129.42462
0.9408669,128.67484
0.9365371,122.465126
0.9501742,121.911194
0.9436884,120.39699
0.82758224,124.21339
0.82739955,122.03186
0.7981939,118.8853
0.78038776,115.20339
0.63400686,114.037
0.7305659,112.47449
0.6553219,111.52111
0.550578,107.72266
0.5573373,110.64205
0.49650943,103.44673
0.5941984,104.784775
0.53391576,103.11357
0.39297402,100.58746
0.3861692,103.08959
0.41061252,95.8212
0.4268501,98.83808
0.4668044,97.65143
0.44233298,89.41933
0.32672498,93.72265
0.32382774,88.64128
0.37136915,88.83293
0.3296927,88.132675
0.38889498,88.60959
0.3043476,86.53878
0.31494293,83.98288
0.23399474,82.68765
0.27917075,85.69221
0.32439715,80.86628
0.1173587,82.854996
0.11097007,82.05912
0.15612637,83.72582
0.0054426016,83.15731
0.0855978,84.960304
0.006179366,83.782906
0.02028793,82.51416
-0.01505837,86.994064
-0.00547128,86.8023
0.026563823,89.553925
-0.03897082,91.42168
0.040779017,93.47831
0.06637347,92.50835
0.2535736,96.36074
0.2090768,96.928215
0.2761561,103.308304
0.33348066,105.407135
0.40396214,108.392845
0.519654,111.60042
0.5248386,113.26691
0.59895295,118.84525
0.79756325,118.907936
0.86172855,122.790306
0.89341784,123.545135
0.9563095,128.50032
1.050101,131.66615
1.1533369,133.35295
1.0740628,139.62804
1.1747413,137.27902
1.2604927,139.06621
1.2743704,144.98448
1.2593771,143.04407
1.3221505,149.12265
1.3139277,148.01561
1.2399284,150.05644
1.3486481,152.77892
1.2976414,154.8777
1.3364364,150.19408
1.3065577,155.63435
1.3244221,155.3479
1.4140552,155.16475
1.3201839,156.05377
1.3606675,159.27982
1.2301784,153.71867
1.2648783,157.37349
1.2328368,153.32112
1.3181039,155.19577
1.2296426,155.87431
1.2766815,151.85536
1.2130374,153.05057
1.1558194,151.86792
1.0145386,153.21535
0.97630984,148.05424
1.0491062,148.24883
1.0747153,145.11598
0.9890273,143.99243
0.9630939,144.26018
0.89193016,140.8579
0.9078544,140.77322
0.93853664,141.54039
0.92294425,136.75824
0.9876785,135.24312
0.801122,135.22234
0.8726324,131.5671
0.9500843,132.87384
0.84910065,129.5465
0.83356184,124.4901
0.94135606,124.32606
0.7841521,122.85064
0.8850178,120.513664
0.73959893,121.54907
0.64566135,119.01428
0.6703377,115.043304
0.704282,113.49844
0.6445635,114.831985
0.6345205,112.76622
0.49447754,111.06473
0.5257705,108.70177
0.5223561,106.797455
0.40242854,106.9767
0.46713856,106.59029
0.46876052,100.14712
0.35945663,100.763504
0.41166085,100.851364
0.3126521,101.18847
0.34142876,98.9179
0.3928624,96.21854
0.3529829,93.246704
0.36348647,92.06868
0.40679508,90.4187
0.409521,92.59991
0.3121749,87.20188
0.4066012,84.397125
0.27592728,87.70307
0.35842836,83.533195
0.2961011,84.95149
0.25474754,84.53945
0.26866364,82.10721
0.21607697,81.807365
0.19017327,83.51009
0.16994199,83.418755
0.17453207,78.92502
0.15223652,81.0071
0.13932197,83.295425
0.04361328,86.286545
-0.017711477,86.61363
0.09173714,86.11851
0.035513736,88.66029
0.16012608,85.91162
0.11746492,91.50801
0.111510366,92.79948
0.1548946,95.53943
0.20201184,97.42392
0.26777065,101.80285
0.3385471,102.82764
0.36672267,107.29346
0.4608299,105.14444
0.6364642,112.30689
0.7622606,115.60328
0.7991816,116.196686
0.8461314,121.43049
0.96846235,121.40194
1.0634233,125.6754
1.0604832,131.08743
1.1323818,129.34148
1.2823418,135.55685
1.2810382,138.77806
1.4140682,141.98746
1.3515435,142.53635
1.4269929,145.05597
1.4311011,145.78976
1.4817356,147.82228
1.5878081,149.70392
1.5212504,152.35335
1.6619977,150.79344
1.5173619,152.52397
1.5966586,156.35376
1.5144649,158.05334
1.5654327,156.10526
1.5581982,156.8154
1.5188026,157.89284
1.5202783,158.36964
1.4909024,157.31007
1.6041095,155.51424
1.4575442,156.5588
1.4235129,156.80637
1.5001512,157.4153
1.3581022,153.1193
1.4323242,156.37192
1.3277426,152.82687
1.3754065,151.17784
1.3586702,150.01822
1.3234453,147.66167
1.2954623,145.33409
1.2386935,146.01573
1.2599559,144.10008
1.2345458,142.83945
1.2184855,138.23149
1.1856517,136.90573
1.1897357,137.36542
1.2254192,137.57591
1.0962846,135.47914
1.1651102,129.57986
1.1789191,132.22432
1.092441,128.4861
1.1694683,128.52281
1.1821164,123.42361
1.1108336,125.180916
1.0488962,123.314606
1.0535015,122.54969
1.0939573,119.19024
1.0268152,116.13943
0.9412708,117.10017
0.9320117,116.410095
0.90532655,112.379875
0.9232924,110.229126
0.8664283,106.81579
0.91103745,108.4568
0.7889812,104.14305
0.7889506,106.329575
0.71303797,100.61548
0.733671,99.55416
0.6735284,100.26382
0.73382246,99.95964
0.6827141,96.66787
0.6579866,95.26921
0.64216816,94.18592
0.62489206,92.778534
0.7762066,88.27432
0.6545269,87.891304
0.67216367,89.84611
0.6660162,87.42193
0.7096395,83.31257
0.73210555,81.86768
0.70183355,82.11519
0.60443574,79.851906
0.600749,82.92533
0.48563763,83.840294
0.63173264,81.11411
0.48340115,84.395256
0.41812536,82.80718
0.49461573,81.301575
0.4987581,85.532265
0.33194536,86.08083
0.27731514,85.475105
0.34709987,87.10525
0.3660367,89.094734
0.44998366,91.32302
0.3847938,92.738464
0.5226552,96.90574
0.5114226,96.8643
0.6478777,99.97737
0.6264515,101.7927
0.7820194,102.00438
0.8379075,108.59844
0.9253684,107.13055
1.0913638,110.85005
1.1375719,117.75123
1.1475308,116.78495
1.2345268,123.59981
1.3698901,126.34001
1.3982387,130.37141
1.4598081,128.36885
1.5148515,134.38301
1.5855342,136.52145
1.6765723,138.61401
1.8209063,138.66907
1.806111,141.3381
1.76613,148.89948
1.8579237,148.25336
1.805182,149.63644
1.8134564,152.0474
1.8758916,152.39462
1.8778408,151.68701
1.8947035,158.58478
1.8546858,153.8456
1.8472859,155.63739
1.8268884,158.36278
1.8085121,158.54659
1.8793828,156.954
1.944353,159.27333
1.849534,158.67177
1.8545259,156.51653
1.8061938,157.79149
1.7494689,157.56912
1.7777206,154.41496
1.6844538,150.51215
1.727874,153.10225
1.674112,151.71342
1.6322114,151.34624
1.5180199,149.2265
1.6058203,146.94278
1.559051,145.0309
1.593057,143.52689
1.5777038,141.33173
1.5433593,138.54529
1.512757,140.62837
1.5123698,136.09561
1.4678881,137.5314
1.5535457,136.12901
1.3821344,132.13113
1.4484081,128.53728
1.4049574,128.74223
1.4466262,127.25818
1.395483,128.92102
1.4137658,125.62677
1.4265873,122.11662
1.391133,120.24096
1.2769704,119.82519
1.1533276,117.35831
1.2841194,119.46762
1.1699291,114.06265
1.2053666,114.0861
1.0666633,112.87797
1.1092455,110.17144
1.1302625,107.63629
1.0816756,109.19771
1.0105189,104.633766
0.9526637,101.98383
0.96856683,101.95723
1.0178038,103.336815
1.0501717,98.67717
0.94764394,98.897125
0.94034296,93.719124
0.9455796,93.70422
1.0117506,93.79631
0.856479,91.2108
0.9263647,89.219376
0.91374826,91.563484
0.87750876,85.40119
0.97402525,85.9995
0.8691984,85.94463
0.7852556,88.60246
0.8097999,82.53029
0.77931565,85.4194
0.64471596,83.050705
0.78819436,82.79628
0.6638424,80.377716
0.69373286,80.94878
0.6648899,83.65227
0.62614363,84.87307
0.53424984,84.67442
0.58321327,81.59826
0.5693001,85.15665
0.442117,84.22862
0.5270345,87.34714
0.60297555,88.93075
0.6855497,95.37991
0.64129287,92.54872
0.7173707,96.35178
0.7481215,99.779655
0.87370855,100.21104
0.8983027,102.64299
0.9912718,107.77436
1.1971128,108.28917
1.172469,115.88531
1.200933,116.47861
1.298677,119.22802
1.4575509,123.02676
1.502001,126.58756
1.4934323,128.5841
1.6014931,131.4565
1.6795002,133.29832
1.7058696,137.54205
1.7832437,138.09688
1.7684306,139.85986
1.9049419,146.50122
1.854995,141.98807
1.8950477,147.31212
1.8465649,149.47429
1.8932824,152.65276
1.9179608,152.0997
1.932738,153.9458
1.8553953,152.30823
1.8641248,154.35272
1.9754311,156.50916
2.060054,157.15678
1.9071226,159.7799
1.8810904,156.20781
1.8196558,157.05565
1.8339205,157.4017
1.7490009,157.648
1.8179679,156.47621
1.7988367,156.83205
1.775926,153.70277
1.6912099,154.50342
1.5993568,148.16139
1.7316635,150.77881
1.6674929,148.62332
1.5493207,148.03525
1.4955736,144.77441
1.4891094,146.21501
1.5693197,142.53897
1.5108224,142.22691
1.461663,139.7434
1.4116702,136.89297
1.5256249,138.07664
1.4448823,134.37306
1.4473747,133.71211
1.3950714,132.71956
1.2622089,132.35747
1.3374646,129.6793
1.2974961,125.968414
1.3716067,127.79164
1.2961346,124.02455
1.2362796,122.53726
1.2629837,118.87503
1.1864544,121.809944
1.1994523,117.17517
1.0783073,116.43487
1.1273341,113.82606
1.0285348,113.61964
0.94743353,111.89332
0.9172359,111.271416
0.9757828,106.05173
0.82424164,107.15023
0.909638,107.24126
0.8545677,100.11766
0.77393335,102.56325
0.79267895,99.79275
0.7831909,96.30698
0.83009684,95.466064
0.822414,95.51345
0.79608953,93.56754
0.6629567,92.15668
0.8777793,92.63382
0.7352297,89.56
0.6494083,87.90932
0.70739263,85.739555
0.63771427,82.642746
0.6976794,83.651955
0.67819244,82.37838
0.6121732,84.29911
0.5361659,79.339424
0.5263992,83.098946
0.5891681,83.92488
0.5643765,83.646935
0.4403819,83.47398
0.38450736,81.86528
0.32282782,88.243904
0.35326293,82.88296
0.28636152,83.53024
0.20766322,86.78707
0.31129465,89.149605
0.39115342,87.69023
0.41746974,93.174835
0.31153736,95.71231
0.455748,97.420555
0.4898574,100.63288
0.4950877,95.95864
0.52905625,102.717545
0.64270353,104.61714
0.6872051,109.75313
0.78715914,109.56238
0.81588167,111.76152
0.917696,115.73909
1.0210029,121.725975
1.1466668,120.27225
1.1965367,125.72069
1.2584984,129.12524
1.3149604,135.37576
1.3934036,137.84116
1.4429333,139.37794
1.3946583,138.2671
1.5269881,143.78093
1.5072361,144.97382
1.5083882,147.49158
1.5717502,149.74242
1.5785613,148.34831
1.5532014,148.9561
1.5825669,152.22919
1.5758166,155.6878
1.6278946,158.03375
1.6180419,157.3951
1.5096196,158.56854
1.5834183,155.499
1.502175,158.02574
1.4667712,157.6749
1.4555058,156.85309
1.4903953,155.88806
1.5415415,156.03133
1.4540328,154.45824
1.4033552,158.34435
1.3816682,154.73889
1.2382392,151.81755
1.2247984,151.52525
1.3044693,151.28061
1.2375008,148.30128
1.2715214,153.38177
1.2398028,147.21605
1.1024172,146.65683
1.1333385,140.3237
1.076344,141.33264
1.1201506,140.1334
1.1403493,138.1674
1.1628965,135.63286
1.0298374,137.86452
0.9937539,133.13707
1.0242227,133.42924
0.9725556,130.13232
1.0328971,129.27661
0.9713564,128.51274
0.96326286,124.4182
0.9763842,127.873726
0.8994794,122.29472
0.89349127,119.06545
0.86727494,117.55633
0.86458904,114.62619
0.7897442,115.596
0.84486556,115.161
0.66982836,113.10897
0.63928795,113.81197
0.6520381,109.43637
0.5833338,108.539536
0.5087722,106.57355
0.5978683,108.97017
0.5371949,99.48901
0.4153091,99.91188
0.40112275,97.394005
0.39911884,96.484344
0.43454948,93.75525
0.5301467,91.00426
0.4137919,92.5735
0.35915357,92.13501
0.38583207,89.76403
0.4101362,84.89357
0.2828449,84.93827
0.4059877,85.39445
0.44119027,87.66624
0.31807178,86.61605
0.3384796,87.3075
0.23146215,83.152824
0.22808562,85.213066
0.26316708,79.733894
0.16550693,83.88222
0.09838826,84.76249
0.075955875,85.04747
0.054919686,82.9482
0.017277496,84.28538
0.022480002,84.045845
-0.026945319,86.439156
0.04142272,85.82802
-0.10978321,87.21773
-0.05927018,89.971306
0.05885599,91.435104
0.11127738,94.46264
0.08306216,98.51724
0.12024912,99.1972
0.2809554,104.75814
0.2694225,102.7267
0.3718165,107.57502
0.4020406,107.62295
0.61788523,111.789604
0.6442641,114.49795
0.7646518,116.22466
0.77494305,125.20447
0.93049103,125.22431
0.9007022,127.63656
0.9776691,130.4949
1.1144943,132.96619
1.1796213,137.18697
1.2217155,138.05476
1.1491319,140.80377
1.2057842,144.19943
1.3367003,146.27623
1.3599849,145.94435
1.3547834,149.20415
1.3152157,150.31586
1.3661761,154.2112
1.4093544,151.22
1.2635332,153.96475
1.397914,153.60791
1.3722441,154.37411
1.4161185,156.43608
1.3847384,157.29796
1.2710468,158.63603
1.4206161,156.74564
1.3678851,157.50833
1.215361,157.22507
1.22586,158.82071
1.2339834,155.2587
1.1956961,155.58342
1.1473521,157.74084
1.1338981,152.44061
1.0958,147.75275
1.1008393,150.56096
1.0734081,148.02762
1.1211491,148.28694
1.0048289,147.22144
0.9729731,145.52045
0.91755515,143.45818
0.9561945,139.529
0.8815681,138.19028
0.91578645,136.49957
0.9598652,136.99406
0.8646048,134.74022
0.9333116,134.36436
0.91581476,132.09573
0.9349423,129.18874
0.8945663,128.59065
0.8697894,125.090935
0.9093675,122.854355
0.8299948,125.19892
0.78784233,123.608765
0.78962183,120.963936
0.7015105,120.01392
0.6546372,117.525536
0.69685346,117.0894
0.5874165,115.2315
0.55482805,110.19851
0.5259249,111.1063
0.50580966,113.10042
0.5312745,105.392166
0.4957111,108.791885
0.46820384,103.5021
0.42690966,101.463394
0.387481,102.51726
0.37093753,102.21688
0.3880196,95.23004
0.36707413,95.103325
0.40011126,94.02906
0.4135264,92.49155
0.3252005,88.44489
0.34274474,90.3636
0.35023183,88.40471
0.30778912,87.428635
0.3345572,84.54605
0.31807902,86.4459
0.2561742,84.75697
0.37580872,84.01314
0.32429048,86.04792
0.15925951,82.41653
0.22136506,83.92481
0.17433497,85.38918
0.11386346,78.80534
0.11928324,80.56788
0.122202285,84.26883
0.053015437,81.43479
0.054519977,83.25864
-0.008327557,84.76251
0.046949744,86.291374
0.030764777,90.82719
0.07420524,90.14639
0.1384105,92.67688
0.14215761,95.37075
0.19160208,94.59495
0.22804981,98.6539
0.39891276,100.58449
0.43779972,101.307144
0.4535318,103.953125
0.5010029,112.53006
0.5932858,108.2872
0.7590074,117.88488
0.8182739,119.965744
0.86547595,121.49467
0.98919934,123.43438
1.0647753,128.29153
1.2133901,130.7218
1.217368,132.28555
1.2089806,135.43613
1.2955873,139.5447
1.343528,139.40811
1.3470948,146.1656
1.4512944,145.73674
1.5039285,145.7637
1.533279,143.61896
1.5373579,155.8555
1.5322815,153.6059
1.5221616,153.82808
1.5888355,154.7167
1.608253,153.77293
1.3972406,154.49936
1.5227345,158.67903
1.5187731,158.15665
1.4012796,158.70532
1.5353795,155.9573
1.5534936,161.6906
1.3964152,155.53568
1.4979894,156.79482
1.5162748,155.40048
1.445867,154.64253
1.3318018,155.56306
1.3485794,154.09526
1.3030745,151.98476
1.2884673,147.94426
1.2548008,147.32086
1.2780889,146.89381
1.2839713,146.51031
1.2508923,146.1378
1.2288033,142.67935
1.1599721,140.13202
1.2591785,136.70102
1.202761,136.80936
1.1684572,136.5307
1.1679581,136.71992
1.1347353,134.20175
1.1284448,127.75149
1.1043868,129.79305
1.0676162,125.769485
1.1511604,127.83109
1.1190716,122.91303
1.0672117,122.16315
1.1432763,122.499565
0.99424946,121.02817
1.0216421,119.90726
0.87687016,115.159645
0.9032301,114.66377
0.8645835,113.8908
0.9139934,112.3177
0.81862104,109.57011
0.84656143,110.5418
0.84347063,110.19656
0.7947023,104.85201
0.7424513,103.29575
0.6513516,100.256676
0.7097442,99.706985
0.757431,98.010414
0.70106083,100.17453
0.63623285,95.091324
0.60526955,92.89001
0.5837898,93.46876
0.67351496,90.00373
0.61265635,90.16593
0.7060168,90.45462
0.66424984,88.36
0.55904055,85.13279
0.70072937,85.86656
0.70856845,85.74641
0.5870366,82.27668
0.6237282,79.281105
0.5791509,79.16807
0.47708434,83.21031
0.4748892,83.83481
0.46659467,88.45471
0.4862391,84.60807
0.4291074,80.556725
0.4973926,81.42787
0.35616374,84.273636
0.4237078,88.891396
0.3176244,86.02262
0.3390452,88.512146
0.3767625,87.68163
0.43785453,96.126396
0.56763625,98.3917
0.6421527,97.96673
0.51398426,97.55127
0.71573234,103.187965
0.7957779,106.92566
0.83170795,107.93073
0.96305585,114.73363
1.0162613,112.31115
1.1015681,115.9102
1.1589676,117.1668
1.2542462,122.954216
1.4059981,125.9764
1.4568797,127.13562
1.5755599,130.85211
1.6039659,134.4182
1.6526511,135.31111
1.5969472,137.97372
1.7607011,143.66405
1.7934104,143.82983
1.7169502,147.08177
1.9112314,147.4391
1.827378,150.61061
1.9065956,151.87773
1.8900931,153.03648
1.9710681,157.38712
1.8604103,155.08444
1.9399265,159.65651
1.8668126,157.45847
1.856655,158.79796
1.8840363,160.65854
1.900124,159.8081
1.7998874,157.24887
1.8504022,156.77252
1.8053541,154.03705
1.735735,157.1906
1.7079643,155.7695
1.6709878,155.24776
1.6663469,152.51657
1.6196133,154.30496
1.6004375,148.94626
1.6169163,146.52705
1.5172894,149.85652
1.614066,147.62257
1.6302457,144.47209
1.5007156,142.03989
1.5207965,141.6023
1.5149552,142.21709
1.4913588,138.71794
1.4531087,133.79437
1.4776134,136.44267
1.4831411,130.99829
1.4322886,129.69038
1.4002643,130.64102
1.4148765,130.03163
1.3802966,127.679375
1.3706114,126.41052
1.2981682,125.3224
1.2923539,124.81009
1.3332313,121.67684
1.3780378,118.36891
1.2480471,117.931755
1.3026164,114.67184
1.1479849,113.43264
1.1333964,111.46783
1.1440644,109.58139
1.1437296,111.02743
1.0377536,106.144615
0.994818,105.492905
1.0267174,106.51479
1.037976,101.589584
0.97046614,99.408424
0.88533616,102.52433
0.8537673,98.90179
0.9876108,95.36362
0.9332718,93.455605
0.96387404,93.53916
0.9001644,88.46135
0.94062114,90.811844
0.8742623,89.76087
0.9773687,87.118286
0.87427294,85.58057
0.89825666,86.52882
0.8982832,83.75742
0.8470179,83.5478
0.8534332,86.19061
0.7512004,86.15923
0.7347458,83.47543
0.743194,78.13968
0.6410243,84.80512
0.67896897,80.25725
0.54621065,83.18346
0.62619305,81.96242
0.5947516,85.008675
0.48656192,80.380226
0.5909178,85.008385
0.52529275,89.89999
0.63639134,89.20227
0.64857936,90.238945
0.533501,94.83831
0.7163857,94.63319
0.72553617,98.37627
0.7941411,101.026024
0.9013409,101.692986
0.9789662,108.45469
0.9997828,108.47367
1.1446111,111.24889
1.1526117,114.68898
1.2539654,116.247826
1.2970514,119.06204
1.4029752,123.69274
1.5020633,128.31812
1.6142181,130.15334
1.6330591,129.65446
1.6858447,132.52121
1.7498127,139.64381
1.7639567,142.6562
1.8878026,146.77061
1.8289578,142.15242
1.8492864,149.25533
1.894797,149.14058
2.0303235,153.26743
1.9906992,153.8549
2.016303,148.34908
1.9413762,151.14594
1.8926432,156.08585
1.9242646,154.46243
1.9169605,156.56158
1.9922813,154.75298
1.8946061,156.05217
1.9064469,157.69203
1.7949721,155.07822
1.7951496,156.2031
1.7684835,156.69214
1.8149921,156.7443
1.7087873,153.72101
1.7150937,155.75494
1.7373005,152.53853
1.6902485,150.70506
1.6747292,151.11414
1.6586645,146.5253
1.612145,149.40718
1.552891,146.02858
1.5000489,145.63539
1.5908313,145.33118
1.4800223,143.74677
1.53027,142.04147
1.4054981,139.49156
1.4232359,135.61697
1.4937522,137.33206
1.4446019,132.76503
1.4808661,132.62413
1.3474268,131.57109
1.3711243,128.93588
1.2907794,124.731346
1.3731039,127.727646
1.3836927,121.85932
1.2789336,121.750824
1.2014384,119.4311
1.2328175,120.012184
1.200491,115.50277
1.068068,115.18812
1.0433655,111.271484
0.9975156,111.87208
1.0199637,108.46722
0.95651317,107.01685
0.90020275,107.79235
0.90553015,104.96333
0.8731728,107.618225
0.89919066,100.074615
0.77734333,102.01195
0.7564191,98.93847
0.7791191,97.298744
0.8007837,93.134705
0.8042672,95.69418
0.6990199,92.95564
0.7435764,92.20253
0.835379,91.52428
0.722228,88.08427
0.75333995,86.57576
0.8530492,85.37698
0.7111487,84.181625
0.7096641,82.863235
0.6508217,85.12509
0.61587733,80.20639
0.5701998,82.222916
0.46857762,83.50142
0.47828522,85.76609
0.44221666,82.750244
0.44471955,84.49974
0.39617294,82.499435
0.3843521,84.72733
0.38600853,82.86376
0.34793198,84.43058
0.26182985,86.633835
0.2510728,88.58166
0.33568257,93.223564
0.3843944,93.22099
0.34479278,94.08297
0.5147977,97.26461
0.5134378,96.574066
0.5531687,101.88672
0.6219872,105.21597
0.7934694,108.40949
0.78322154,110.64245
0.8807112,113.02595
1.0120056,116.549904
1.0143979,121.0095
1.1041954,122.692604
1.1583261,126.57043
1.2455431,128.54431
1.3901744,128.6602
1.4202101,131.33994
1.4334189,135.63239
1.4585129,136.74927
1.546999,141.05298
1.5390804,143.18303
1.5230383,140.35516
1.6776625,146.07884
1.5976857,148.93228
1.5945637,150.25354
1.6704303,152.383
1.7544749,156.68906
1.6932465,153.18819
1.6171343,156.19836
1.5645618,156.11327
1.5135901,154.89413
1.5995687,156.12303
1.5470232,157.04333
1.5325162,157.7549
1.5352496,156.89859
1.5572487,154.27701
1.4907047,154.77608
1.5203134,155.36153
1.4338454,155.47096
1.3361824,153.78577
1.3133587,150.64249
1.302992,147.67963
1.306409,149.91112
1.2348137,146.66676
1.3616385,151.87544
1.2455097,146.80588
1.2213603,142.7432
1.1644313,144.08783
1.244949,142.85878
1.2094625,139.03336
1.0977304,137.48026
1.1328377,133.48262
1.0897096,133.73863
1.116287,133.30244
1.160294,132.92499
1.0666157,129.2163
0.9656163,127.32925
1.05226,124.13106
0.9775183,122.299446
0.8621001,119.46637
0.91590184,122.343735
0.84735477,120.08674
0.7618796,121.42586
0.786425,114.366936
0.7433005,113.43963
0.8341785,116.55331
0.65837115,107.985855
0.65674245,111.673065
0.65216607,108.55712
0.60879123,108.04619
0.42734498,106.7875
0.5482616,102.56869
0.447716,99.21001
0.45741472,97.34302
0.4376692,96.105034
0.4565892,96.41278
0.4829673,96.231766
0.411993,93.07983
0.37710586,93.76222
0.3868303,91.11046
0.46644476,86.63587
0.39254838,88.731964
0.42548767,84.80908
0.32122785,86.40964
0.31604105,82.50618
0.36133948,83.87128
0.24300186,83.494804
0.25707623,84.93176
0.21222726,82.00827
0.22737421,83.722336
0.18979093,83.998795
0.15835795,84.23843
0.1150146,80.5322
0.1111241,81.23245
0.009543744,82.896355
-0.0050880536,82.87275
-0.007635898,86.9813
-0.083826914,88.402954
0.060892645,88.91827
0.0037002177,89.18989
0.056670036,90.927574
0.08402375,96.316536
0.17573196,97.96985
0.1910185,99.040215
0.32815444,104.769516
0.38452348,107.060875
0.4760092,107.71392
0.5217564,109.46218
0.6259478,111.12594
0.6474074,115.64105
0.80009556,120.5301
0.84081733,125.637405
0.9586971,126.45296
1.0571077,127.578705
0.99429315,130.16905
1.1537733,136.1004
1.1617318,138.51427
1.1726853,139.57591
1.2772188,140.87926
1.2247894,144.72464
1.3727884,148.47902
1.3071098,148.59958
1.3972658,148.0682
1.3606234,149.81207
1.3833833,151.75609
1.3851916,155.02701
1.3445857,153.63728
1.3232439,153.51926
1.3956746,155.87505
1.3830968,156.02628
1.2914654,157.96283
1.3513604,158.04097
1.3855585,158.71648
1.244337,157.22552
1.297954,157.42406
1.2309957,155.37607
1.2293268,156.16794
1.1892772,151.62183
1.1408873,152.46931
1.1064597,151.649
1.0860366,152.18755
1.015819,150.95229
0.99693954,147.81975
1.0618137,144.76335
0.97774035,144.69395
0.9718567,143.57271
0.91385174,140.3962
1.0060657,142.7929
0.9407459,138.15889
0.97282785,136.715
0.9491904,135.11024
0.9073256,131.71051
0.9404277,130.63675
0.9351125,131.45563
0.92236334,125.460075
0.84078383,129.82892
0.9153562,126.958466
0.88196075,124.495285
0.8786303,122.55372
0.78043646,124.74969
0.7213735,120.45212
0.631904,118.28116
0.6766234,112.7418
0.693126,115.43608
0.48125887,114.46063
0.5277202,111.26953
0.41161892,108.05216
0.5115409,107.60892
0.4401575,106.93256
0.515016,103.98964
0.42247412,101.06251
0.35044435,102.626595
0.38954344,99.35346
0.36995843,95.16879
0.35014522,99.673706
0.2979532,95.20365
0.3139455,96.3537
0.34579545,90.07683
0.28622115,92.588715
0.30559626,87.03642
0.3831119,88.117096
0.37008578,85.432365
0.32245237,85.6488
0.30562317,81.57818
0.35257798,82.74549
0.24710323,82.15861
0.29054463,83.47976
0.21405193,77.58621
0.15021066,83.66838
0.13794649,83.22075
0.03750806,81.38549
0.14579736,80.3719
0.014521604,81.22456
-0.025504077,83.457886
0.0031260327,87.00368
0.05049868,88.254135
0.027347876,88.559784
-0.05110827,87.75454
0.043247685,93.09655
0.09746884,96.31387
0.119891375,97.558
0.1620622,95.695465
0.20730038,103.36505
0.3899015,100.59501
0.38748375,107.16852
0.5707275,107.99079
0.6927992,113.31691
0.60186476,112.162155
0.8005417,118.48171
0.8006839,122.35937
0.9455494,123.61502
1.0672482,124.4009
1.0532029,131.67534
1.2260876,135.16444
1.3166468,136.95395
1.259888,135.98131
1.410087,140.70229
1.4002262,143.95116
1.3706276,145.50279
1.4459233,144.76913
1.4464039,143.82716
1.4188699,152.79138
1.430246,149.86621
1.5876341,156.39453
1.5148404,151.96925
1.5707328,155.07213
1.5633802,160.05072
1.5270278,156.70999
1.5845171,158.46826
1.5470353,156.09445
1.4669654,157.93059
1.4594433,156.95415
1.4541149,156.72314
1.4442312,155.69278
1.4267808,156.37315
1.4010832,158.46736
1.3596114,155.52937
1.3388363,155.90018
1.3664297,151.40881
1.1804224,150.87991
1.2274351,150.39014
1.2541596,149.60706
1.1755539,147.35304
1.1679262,142.55263
1.1637155,141.39114
1.2112515,137.30702
1.2088821,141.62633
1.1589677,137.82883
1.1879333,136.44029
1.126683,134.65099
1.1826696,132.9819
1.1404763,131.54698
1.1802437,126.297195
1.16279,127.18637
1.0676203,131.334
1.018651,123.30642
1.0183727,121.03823
1.0034711,120.06761
1.0553102,119.93762
1.0445632,114.97564
0.99841905,117.72734
0.9369829,116.75295
0.8368808,110.76785
0.89259964,113.10615
0.8715077,108.359085
0.82438916,108.74222
0.77555513,106.93927
0.69283295,106.06231
0.6700693,105.846085
0.7136851,102.42416
0.6999788,98.97997
0.7371205,102.19411
0.62657964,96.17195
0.696808,93.19777
0.62129635,94.68116
0.681028,95.2697
0.61522734,92.070946
0.7071109,87.00896
0.6367969,91.22409
0.6446452,86.711784
0.62058324,86.39479
0.58077633,83.01962
0.68272126,88.36469
0.6001989,80.58372
0.55891335,83.70255
0.598278,87.60593
0.59736794,83.94704
0.47599366,85.41868
0.49359232,81.25165
0.40400806,83.549774
0.3329625,82.189674
0.36657754,83.11391
0.2840599,84.93975
0.33318895,89.02626
0.29343027,86.88884
0.31420308,90.69792
0.39334524,91.07715
0.4405774,94.91074
0.39365187,95.19145
0.488496,100.09261
0.619245,98.85066
0.66303486,104.70001
0.74131644,106.55753
0.8196881,105.113716
0.9391217,110.75821
1.0201812,115.50625
1.0509956,115.38167
1.1789856,120.527466
1.263476,121.05415
1.2899692,124.37405
1.5011652,126.02782
1.5440516,129.07756
1.5827017,133.47414
1.570606,134.00443
1.6002662,136.42726
1.7499357,141.30962
1.7888936,143.59846
1.7862741,144.16696
1.8564643,145.94713
1.7734413,150.59718
1.8825274,151.21333
1.8646209,152.81937
1.9138097,155.70235
1.945499,151.5774
1.8296865,156.27956
1.8970462,152.02829
1.9270813,157.84431
1.82168,160.2327
1.8608017,155.25362
1.8180016,155.23442
1.778918,156.209
1.773002,158.59813
1.7539576,156.06253
1.7564121,158.1467
1.6786517,153.69383
1.5761595,154.60551
1.6389104,153.69046
1.6768674,150.53424
1.6697494,151.28688
1.6069381,147.3841
1.5449678,146.12004
1.5342196,147.93126
1.4757967,147.05196
1.5584116,140.99983
1.479711,140.71303
1.4853705,139.35625
1.4684993,139.11636
1.512312,134.93896
1.4094878,133.16478
1.4522623,130.86374
1.4486259,129.26433
1.4454437,128.57889
1.438366,128.62204
1.4477593,127.58492
1.3852034,125.23952
1.3704453,123.45285
1.3598416,120.988525
1.3617247,121.144226
1.3617605,121.30697
1.2716632,115.75082
1.2057805,113.65345
1.1608461,111.5634
1.1446213,110.22712
1.101004,113.663765
1.0108219,109.14004
1.0545835,104.50468
1.0034282,106.484406
1.0644068,102.8639
0.94290817,102.49854
0.91191024,100.41799
0.818506,97.54305
0.9554086,96.53494
0.8653811,94.063446
0.9350681,94.29479
0.92359114,91.75535
0.91616994,91.209564
0.83674407,88.104034
0.8821654,91.13561
0.8402388,86.20582
0.8810735,86.92639
0.9064462,80.78221
0.8995935,83.02193
0.77230066,83.916046
0.8177605,85.339775
0.7235324,80.74577
0.68985146,80.341
0.7006619,80.189674
0.6904085,84.50087
0.63576686,84.53654
0.6016526,83.82598
0.5379687,81.54098
0.585453,87.59933
0.5059507,86.3786
0.5638746,88.00568
0.56757236,89.49674
0.60752267,89.54218
0.60525066,92.856926
0.6504135,94.44868
0.6432783,98.37457
0.7226605,98.15772
0.7528647,100.09149
0.85309297,102.135864
1.0390043,112.47504
1.1872132,109.8603
1.2067361,114.05845
1.268294,113.827126
1.2744615,119.173065
1.3806448,120.49633
1.4754317,128.875
1.5766762,129.50455
1.6350354,129.52408
1.6534886,133.36055
1.7801186,136.87811
1.7056285,139.626
1.80031,143.25623
1.8545076,140.76422
1.9783044,146.61603
1.9092733,146.44518
1.8951175,147.90262
1.8881291,153.23375
1.9001828,150.21712
1.9830581,151.25993
1.991028,155.51068
2.003331,155.78246
1.954526,157.3575
1.9343387,156.04808
1.8577687,162.70021
2.0197325,157.68407
1.9573889,159.75972
1.8234105,158.71132
1.8963928,155.50871
1.7143669,154.17073
1.8185855,152.76619
1.7090708,152.84154
1.6870793,153.27968
1.6625419,151.9109
1.6756616,149.42647
1.6551654,149.59724
1.5812001,145.93335
1.5590085,146.65314
1.5174618,145.98244
1.5030694,144.25041
1.4146748,138.78935
1.492552,140.57088
1.4746135,138.53734
1.398179,135.13446
1.4401075,132.93147
1.5238998,132.20895
1.4097592,131.37843
1.4113966,131.32909
1.3836936,127.2396
1.2855048,127.04474
1.4061371,125.52083
1.2692025,126.42908
1.3220979,117.66878
1.2858676,119.50696
1.3164973,120.56587
1.1977792,116.90955
1.1828412,115.47643
1.176978,115.37847
1.0212309,112.176094
1.0363158,109.062454
0.9972326,109.05741
1.0519565,108.72426
0.88734734,107.785545
0.85991377,106.29772
0.93241036,104.00328
0.7912161,101.207436
0.75504535,102.86559
0.79265636,96.77947
0.7972026,96.09786
0.82017225,95.779976
0.74705327,93.560074
0.67943,92.58512
0.75531197,91.675285
0.8019927,90.925385
0.7287738,89.70177
0.80450314,85.950226
0.79521567,85.84424
0.7887802,84.24821
0.72660923,82.22726
0.7023121,82.61138
0.6265933,84.30047
0.57202154,79.91459
0.6358603,84.80018
0.5298038,83.56212
0.4567058,80.431854
0.47122747,86.52354
0.37520006,81.70779
0.27966878,84.88215
0.37032473,86.99274
0.3326679,86.999596
0.29273474,87.51565
0.31339964,93.53546
0.35400298,89.96112
0.36254093,93.79226
0.38919643,97.4832
0.36339006,99.943825
0.5518527,98.35953
0.6769059,101.946205
0.7387056,106.82056
0.7746485,107.115395
0.852675,113.44957
0.9052053,114.486725
1.027709,120.26632
1.0963383,123.109985
1.2157212,123.46994
1.2944052,126.72195
1.3738152,130.31201
1.3737626,132.53954
1.4944224,135.06485
1.3741881,134.98181
1.4790969,141.16249
1.6466585,142.37285
1.6041933,146.42331
1.616958,148.6224
1.555345,148.87527
1.5767097,151.79553
1.6139514,150.43051
1.714918,151.29727
1.6657968,154.6827
1.6429418,154.75644
1.7079536,155.03964
1.6189494,156.28743
1.5828305,158.62492
1.6606891,157.35971
1.6170578,158.90962
1.5272847,156.91383
1.4441285,156.92139
1.5248874,156.3814
1.471116,156.26779
1.4290897,157.11609
1.4503058,157.13326
1.358886,151.71478
1.3071663,152.51384
1.3461441,151.31866
1.2870057,150.33856
1.2186215,148.18938
1.2137623,144.21762
1.2387469,149.05199
1.1458223,142.34808
1.138304,139.07787
1.1778113,140.6406
1.0299568,136.17801
1.1624469,138.26758
1.1056994,137.97763
1.1137285,131.68686
1.0724714,131.82985
1.0488174,128.26517
1.0807883,125.627045
1.0935316,125.59951
1.0910432,125.34951
1.0200121,124.53286
0.93084055,120.72768
0.9072968,122.13463
0.90820485,115.32398
0.8568279,111.94216
0.86965334,114.08199
0.7218415,114.100006
0.7190909,113.00373
0.68507475,110.701454
0.76011825,105.938675
0.6500865,108.33294
0.6034492,105.02872
0.48421282,102.14495
0.55621594,100.83216
0.43726534,101.512886
0.45761472,98.452614
0.44065577,97.25125
0.4881896,94.92015
0.42229927,98.33255
0.46733096,94.05176
0.39175615,88.79408
0.45735925,88.6319
0.45663044,85.97045
0.3925083,88.086716
0.31769162,87.8639
0.39874533,86.94031
0.30550474,84.45257
0.4066043,83.74687
0.2957812,82.98685
0.2998741,82.91901
0.2123227,81.96546
0.14330912,83.11529
0.1414755,83.76012
0.18613718,85.707344
0.08821593,83.34991
0.027107898,83.615364
0.042028256,85.98862
0.03918227,89.16682
-0.0391605,88.10566
0.0029849692,88.19365
-0.048411526,90.74974
0.072595924,89.41637
0.13430828,92.79704
0.08788238,96.60389
0.1108375,96.81947
0.2976278,100.58118
0.2880163,102.46962
0.37431717,106.46327
0.49047345,110.72667
0.5527049,109.674774
0.65877235,118.293465
0.69589263,118.80172
0.71226,122.876366
0.81464607,126.399216
0.97995216,127.3069
1.056017,129.41786
1.1434525,132.4114
1.201342,135.8739
1.1911342,137.20052
1.2349129,138.74406
1.2477219,141.95454
1.2971305,144.01071
1.3376712,148.01816
1.4406976,151.96901
1.4287497,149.64389
1.4118006,153.34778
1.3847839,155.63098
1.3587056,155.75659
1.3000777,154.62563
1.3485138,154.13081
1.380704,157.35121
1.4136554,156.65111
1.2394812,157.69374
1.4044968,158.98225
1.3238779,156.04044
1.2227882,156.6958
1.3141867,157.3223
1.1641258,157.36934
1.153187,155.46492
1.1802348,151.24448
1.1497219,153.58733
1.1153334,152.27742
1.1231171,148.5958
1.0004151,145.66884
1.1011235,149.29665
1.0389378,144.87006
1.0071113,143.8603
0.9676897,145.27774
0.9051647,141.92181
1.0121094,139.7648
0.8907457,137.81111
0.95696986,134.77019
0.9213808,133.32347
0.8768781,129.4975
0.8171216,133.05519
0.96259725,132.41687
0.85883766,128.80682
0.8328097,126.5368
0.9146423,124.05387
0.72437394,118.49373
0.7366013,120.57009
0.6728251,122.84451
0.7344684,117.42561
0.62922215,117.93541
0.60218483,113.55344
0.5854405,112.73917
0.55971026,111.56571
0.5405993,108.57759
0.46362993,106.149796
0.4784678,106.59866
0.48198655,103.42464
0.44397706,105.23243
0.45679393,102.60553
0.42397827,99.64478
0.3510169,96.653885
0.37098163,96.75829
0.25669125,96.13576
0.32623446,94.08324
0.35833898,93.577896
0.36649212,91.55911
0.34976858,91.02549
0.29807726,88.69361
0.40585563,89.81844
0.2958524,84.64026
0.35069087,87.75384
0.3064185,83.43747
0.22294009,84.75464
0.22135706,81.40462
0.30796847,80.70606
0.144228,83.55408
0.18140304,82.420815
0.03577595,80.693634
0.046588447,87.37426
0.058942653,83.705864
0.09830637,85.62921
-0.022654794,84.97711
-0.00054278,88.77326
0.012561327,85.15041
-0.034329895,88.43324
-0.045720197,93.31071
0.043598145,93.27529
0.079748705,94.52869
0.23105519,96.21605
0.26898575,95.46851
0.32580724,103.40494
0.35641754,106.977196
0.52986765,109.79204
0.5173644,110.31925
0.5926161,115.07431
0.7848319,114.98698
0.88909537,120.41014
0.87931174,124.347824
0.9216814,122.74456
1.0534804,129.5352
1.1051605,127.464935
1.0985684,132.50287
1.2597133,138.30148
1.2529734,141.07582
1.2816398,141.74884
1.3418475,143.06236
1.3444058,146.24803
1.3691214,151.20943
1.3420675,153.72063
1.431766,152.54594
1.5728362,154.00496
1.5680978,156.98866
1.4833641,153.6026
1.575221,157.85742
1.4154123,158.07767
1.5431633,157.93398
1.4640044,154.88203
1.5018125,160.16895
1.4364537,155.91504
1.4961557,153.55463
1.4060484,155.22859
1.4113357,156.25839
1.4250352,154.09898
1.404268,155.47182
1.2917497,152.50603
1.2657655,155.43182
1.1932116,150.53178
1.243845,147.80591
1.155171,147.11017
1.2163495,146.90703
1.2134272,149.0969
1.2072338,142.7155
1.1542135,142.91653
1.0911248,141.6187
1.1463692,141.73979
1.0683492,136.10757
1.1078489,137.30765
1.1239692,133.25969
1.1455963,133.5631
1.1416945,127.222534
1.0942848,128.42332
1.0835139,127.24928
1.0389029,125.285965
1.0451633,123.21179
1.0912124,123.2123
0.9685579,120.02223
0.9701563,120.629814
0.93552166,116.656784
0.85278916,120.39803
0.84254676,116.13435
0.86502236,109.59127
0.7907477,114.42031
0.8354107,111.06688
0.6961078,108.945366
0.7055698,106.202896
0.6648421,103.58213
0.6204536,102.35325
0.62747216,100.00523
0.70451677,101.243355
0.6603816,98.622955
0.6127545,94.851425
0.63182425,95.359085
0.65766114,95.50685
0.56734705,92.00138
0.688424,89.76608
0.4751394,89.237755
0.66088927,88.79492
0.5832815,89.19599
0.5124049,87.64262
0.6589799,84.21596
0.6124016,85.72715
0.6178095,82.482765
0.5695505,83.480034
0.50776064,84.387184
0.42914286,80.34037
0.47606024,84.90914
0.4593124,85.20881
0.4174396,83.5241
0.36789212,82.30696
0.28108758,85.05333
0.29891986,85.22925
0.31992897,85.39021
0.35815355,87.362724
0.3372351,91.30755
0.36285737,94.01826
0.38217166,92.31561
0.45380145,95.1961
0.4821435,98.032005
0.6890186,100.06836
0.7132535,104.06548
0.7939126,107.782394
0.8013941,107.840225
0.8703237,116.33143
0.95188874,116.85813
1.0615803,116.31972
1.1274868,119.3538
1.1952881,123.556595
1.3531086,127.36446
1.4724412,127.96014
1.5439088,132.33221
1.5504149,133.09897
1.6778814,141.38806
1.6728706,141.46155
1.6468773,139.24615
1.7744431,141.72725
1.7950195,145.46428
1.7621197,148.47453
1.790567,151.48523
1.8171991,151.93198
1.8246409,153.2373
1.97065,155.49124
1.9249032,159.38524
1.8252856,157.0776
1.854233,158.05565
1.8374351,154.57378
1.8197159,156.7242
1.8432223,157.69414
1.7839997,156.75803
1.8493325,156.46416
1.7739848,157.33475
1.7659146,150.70378
1.7278782,159.09332
1.7570083,153.52536
1.6208122,153.3313
1.6239271,153.55624
1.5784084,152.24478
1.539158,147.98598
1.4829625,148.71902
1.4020365,147.65796
1.5603261,147.258
1.5074532,145.17917
1.5266316,141.88605
1.5785555,139.63219
1.4395407,139.57399
1.3839377,136.73566
1.4557809,134.15477
1.4377648,131.35948
1.4280568,132.42119
1.3613819,129.79239
1.4846556,126.36186
1.4068066,125.61469
1.3555954,125.18988
1.4207604,128.0611
1.3777119,122.56252
1.3657365,119.41807
1.3082902,119.011116
1.2795012,114.95054
1.1482718,111.90857
1.1784123,114.742096
1.1191337,115.16885
1.2118337,111.79232
1.1904749,109.69483
0.93701386,106.75216
1.0217439,105.96628
0.94433695,105.12683
0.97633266,102.893875
0.91443205,101.26354
0.8435628,99.20266
0.99659234,97.7373
0.80062747,93.99348
0.9133926,95.40555
0.87717205,90.10852
0.912372,90.64686
0.85657454,90.44495
0.9394085,90.466255
0.85357136,86.64151
0.9570709,85.925705
0.89048374,86.7425
0.8874435,83.83155
0.8707933,82.70093
0.79554737,82.78888
0.8493709,84.89939
0.7558219,83.06517
0.7384571,81.27382
0.67829794,81.10622
0.6458415,86.38489
0.65077716,79.99039
0.55022585,82.45172
0.575195,83.74884
0.5638327,82.99811
0.5261767,88.64597
0.6293943,89.82208
0.5509088,90.635
0.59403056,92.894264
0.60590893,93.118195
0.721187,97.42842
0.83240247,100.5886
0.8484153,100.92524
0.8263799,106.66171
0.8870859,106.35777
1.0161092,108.753944
1.053814,110.714134
1.2296078,115.4355
1.3739485,118.16835
1.4709222,121.77843
1.3997396,126.43644
1.5366292,124.63975
1.5707501,132.04977
1.6691254,131.01657
1.7520647,136.52335
1.6980166,135.9907
1.8049685,142.02197
1.7812188,139.84016
1.7582542,147.38388
1.9044087,149.33809
1.9562129,152.04305
1.9775097,150.60817
1.9901868,151.00986
1.9817231,154.20172
1.9581958,155.76672
1.8745861,159.72824
1.9663343,155.05756
1.873124,155.74155
1.9775504,158.27567
1.9267615,155.17966
1.9361328,157.91081
1.898469,156.86874
1.852236,156.03497
1.8319279,159.43788
1.8056624,156.0917
1.7878582,152.1491
1.7177967,154.50197
1.7376257,152.97229
1.7254163,148.79749
1.6870527,151.63889
1.6684897,152.15634
1.5736527,146.24158
1.6047081,145.2088
1.5557635,145.72981
1.5601861,143.99657
1.4577059,140.94485
1.5723974,136.79391
1.4871793,136.97389
1.4449431,134.6333
1.4529347,133.04578
1.3910477,135.90187
1.3901464,132.02516
1.4188861,127.65431
1.4734344,127.19783
1.3356501,128.11212
1.3735478,125.53371
1.3358066,125.47747
1.2682618,122.77499
1.2803534,121.19417
1.2627158,118.174904
1.1715267,118.407265
1.1601505,112.8835
1.1339098,115.12208
1.0538933,112.729515
1.0375746,110.29009
1.0341069,109.52028
0.946328,107.3265
1.007245,105.46359
0.9209376,106.46659
0.9225855,103.01901
0.87277555,102.44437
0.8371512,98.69656
0.81739295,94.8086
0.9416639,94.2361
0.7496373,94.87741
0.8467941,94.104965
0.7663436,92.67179
0.78925496,89.656845
0.78463936,87.07393
0.79276913,86.34873
0.7379876,89.44935
0.68642724,85.80209
0.68115157,84.39413
0.6490075,82.105774
0.65355104,82.55031
0.5846855,84.31149
0.6105193,85.51804
0.5416896,84.529655
0.50123245,83.82441
0.48637843,83.65339
0.44454527,81.08678
0.3394987,81.8637
0.33884424,86.19669
0.35743928,86.877144
0.47038516,86.19926
0.2946489,86.007324
0.42544138,90.00735
0.447615,92.85716
0.45940182,97.13452
0.4218563,97.94437
0.50750345,99.2351
0.539133,103.39865
0.7501347,102.95461
0.73710895,107.045654
0.85106224,108.238434
0.99203044,112.254425
0.9780272,117.22524
1.1510686,120.44323
1.1070076,122.47753
1.2215953,124.51053
1.3569775,129.48532
1.3278127,130.83156
1.3907727,132.62349
1.5283018,135.07918
1.4791354,139.17108
1.6175278,139.10875
1.5657783,144.93254
1.6123856,145.82271
1.7252365,145.4089
1.7381095,149.31442
1.7421521,150.53822
1.6629514,150.46576
1.6725359,155.49384
1.6884962,154.50716
1.7749431,154.41281
1.637284,155.44138
1.6792443,156.7859
1.5990857,159.77994
1.620868,157.81088
1.6265261,157.42043
1.6999977,156.99017
1.4969543,157.9558
1.5356083,155.27661
1.4926333,156.18022
1.494826,153.80724
1.3923513,153.54552
1.3184712,148.52075
1.3302903,149.83649
1.3699734,146.23836
1.3191806,146.90637
1.3280839,146.85805
1.2087815,145.62616
1.2846302,141.53456
1.2909741,144.36073
1.1307366,141.78085
1.1360452,138.32657
1.1790738,138.13544
1.0951964,133.2392
1.1015803,135.8277
1.0288061,130.59203
1.1561087,127.957054
1.016531,127.11872
1.0703194,128.87892
1.0362147,124.74295
1.0272468,122.177284
1.0064538,124.95
0.8774968,123.128914
0.87195855,118.663315
0.92073363,115.65065
0.75665724,117.28553
0.7763043,113.78401
0.7346795,111.543846
0.74623156,110.59927
0.7756985,112.344444
0.6132413,109.664215
0.63249004,106.86408
0.63402206,106.79707
0.5559459,105.31016
0.5850763,101.85609
0.41762248,99.89365
0.45333514,98.81993
0.4441227,95.0489
0.4002144,97.14251
0.4501874,94.537384
0.4393515,91.564735
0.3445661,93.49369
0.5789107,88.1297
0.48061782,86.52896
0.41405874,85.33123
0.3616896,86.63074
0.34303838,81.64526
0.4045659,82.99785
0.23698188,83.67698
0.32723382,82.90624
0.2677936,82.55439
0.23733552,82.109955
0.19267924,80.161255
0.15531681,85.466034
0.058761075,83.09761
0.057788864,83.3537
0.04696089,86.199
0.009451164,86.773895
0.03849245,87.43377
0.06881292,88.66512
-0.07302608,91.129166
0.08663125,90.198395
0.051389784,92.533005
0.17094593,93.69021
0.16969234,96.72181
0.22009827,100.3812
0.41458336,103.12654
0.33815303,105.57183
0.49631822,110.22403
0.5362144,113.40191
0.6160282,113.58072
0.71697855,119.195786
0.7835805,121.61458
0.9167892,123.54427
0.9247923,125.689186
1.0984558,129.4086
1.0132813,133.63562
1.1638875,133.86974
1.1774848,139.68332
1.200581,139.80132
1.2454206,144.24876
1.3159497,145.81853
1.3304853,145.4772
1.4093531,147.25679
1.310474,148.74626
1.3598706,146.28122
1.4239625,153.68376
1.3924601,155.66519
1.4541528,158.86906
1.3744001,156.15323
1.3703364,153.0632
1.3148186,156.54779
1.2732731,158.7984
1.3656195,156.62166
1.3069464,157.01295
1.318846,154.73721
1.3223314,155.54596
1.358649,154.83864
1.2448995,154.50684
1.3137507,152.73576
1.0876616,151.09204
1.1456503,151.19313
1.0851855,147.62665
1.1146656,150.1629
0.9821418,148.29428
1.0652633,146.14546
0.9206717,143.46024
0.97810477,141.91089
0.88423973,142.10405
0.97565764,142.79507
0.9804318,136.82567
0.969275,136.94064
0.7921465,135.40903
0.91870236,133.69409
0.8762968,131.793
0.876185,131.18898
0.8208387,126.51447
0.8495137,128.08499
0.8128698,126.11042
0.77266437,126.539085
0.8280496,121.07089
0.77475005,124.58737
0.71473646,119.31048
0.7491924,114.816795
0.62848276,118.23818
0.6846134,115.73562
0.5349946,113.61226
0.5942021,111.42062
0.4173268,111.00477
0.4401006,109.10982
0.50513124,107.84835
0.39067164,106.72546
0.32895353,99.74152
0.3663752,101.6733
0.38402173,98.220276
0.31274483,99.55709
0.32293054,97.50872
0.27749678,93.0321
0.3565595,95.861694
0.34546492,91.446556
0.3162522,91.53431
0.29486185,85.71989
0.40772814,85.48449
0.37656662,89.38105
0.3317491,85.92572
0.2834332,83.01066
0.32524905,83.65697
0.19901147,83.095604
0.205019,83.54596
0.25378007,81.79545
0.1251588,82.2921
0.16019896,78.828094
0.11539246,85.051285
0.06889,83.22293
0.016077327,82.48535
0.010445571,83.8992
-0.07411834,87.46746
-0.06935709,86.34732
0.021195928,88.29171
-0.023557344,88.479836
0.130415,91.393684
0.0026722841,94.232925
0.19118825,93.3397
0.20877425,97.71407
0.2389212,102.557495
0.37437615,102.29697
0.40400004,106.365906
0.45093587,108.953
0.58341026,113.63313
0.71706903,113.529366
0.72242737,116.86864
0.8709271,124.90874
0.9744287,128.50346
0.9918754,126.91623
1.0813282,128.6699
1.1445621,132.80655
1.1723721,131.52185
1.2421179,137.78629
1.3063979,139.31123
1.2966034,145.96509
1.4735274,145.81384
1.4535438,146.66965
1.442799,149.08629
1.4097886,148.92262
1.4575578,154.97104
1.5125005,152.97832
1.3880712,154.2039
1.4260681,152.86887
1.5152551,153.09387
1.4778106,155.46283
1.421118,155.70557
1.4814218,158.87881
1.441515,156.82413
1.3528333,159.01668
1.4247493,158.15889
1.4042733,153.96007
1.3973737,155.41614
1.3903537,154.03317
1.3138247,153.67337
1.1500525,151.34952
1.3050652,150.43335
1.2208385,149.49834
1.234943,149.3072
1.2633271,148.08873
1.2555953,147.14151
1.2163575,145.5852
1.2268307,141.35226
1.1197832,140.98386
1.0963882,139.89427
1.0869821,135.70772
1.0521449,136.44649
0.9952422,135.62105
1.0104398,132.32927
1.031775,134.25722
1.0545759,130.33435
1.1270062,127.69096
1.1079606,127.53328
1.0165538,122.134636
1.0245616,121.52135
1.0805483,120.114265
0.9849,119.51199
0.94763273,117.44572
0.9115745,115.744804
0.86681473,116.012
0.9023911,113.65539
0.8154772,107.24837
0.84305876,110.36706
0.7550264,106.60406
0.6443639,104.83147
0.67503273,105.79406
0.6310052,103.39445
0.65890044,101.17459
0.5060064,99.949394
0.5120316,100.251816
0.6560652,97.73456
0.65191066,95.46394
0.5883307,96.35042
0.7109309,92.64223
0.612861,91.54487
0.6357713,90.66671
0.5424345,85.99451
0.6511506,88.82449
0.58228844,87.05335
0.61608267,86.07583
0.5328118,84.9354
0.69588125,84.64344
0.5427911,82.886696
0.4496166,80.7339
0.44272515,81.7749
0.48645464,82.49576
0.38600087,81.30178
0.3430374,83.495705
0.3182012,81.018906
0.31370512,81.81257
0.22266966,86.25303
0.24281442,83.548904
0.3079662,89.69182
0.2711763,89.34233
0.36252028,91.11484
0.3476611,94.66353
0.43506247,93.37893
0.3940107,97.25437
0.41752386,100.12359
0.605493,101.12954
0.6061437,106.01563
0.8059929,107.72067
0.87385076,105.84496
0.9582024,114.53729
1.0167686,117.5808
1.1645198,116.677864
1.2133933,122.828476
1.3543011,123.7432
1.3789994,129.9641
1.4440686,130.43213
1.3720194,133.244
1.6607281,136.29259
1.5497794,137.76497
1.6598799,143.13034
1.6148101,143.6235
1.7142533,143.99919
1.7365552,148.18687
1.7482885,149.27536
1.760767,152.91675
1.8624891,152.01816
1.8401568,153.70653
1.8502398,155.69022
1.8157021,157.20372
1.8662746,157.59198
1.789569,157.90964
1.8535756,159.7802
1.8155055,156.74388
1.805194,155.56119
1.716263,154.62411
1.7498724,154.88406
1.795755,156.74734
1.6894159,154.12473
1.7156985,151.80441
1.7010186,154.5335
1.605716,154.85147
1.6721995,151.24097
1.5415252,149.6603
1.6076732,151.7351
1.4842331,147.28822
1.5823739,145.01099
1.4833109,147.03183
1.4885032,142.80096
1.4346883,141.69238
1.4986941,135.94621
1.3667915,137.92003
1.3969966,135.43967
1.4777069,135.2072
1.426598,134.95839
1.3343201,132.00548
1.4223372,131.57166
1.3515049,130.00859
1.3924773,126.80765
1.3893148,122.16469
1.3821889,123.18129
1.3025454,121.771996
1.221217,120.81169
1.2613206,121.321915
1.2235417,115.74608
1.1148072,113.002
1.138255,112.55167
1.1437916,110.870895
1.0235595,108.37728
0.99815285,106.086525
1.0259534,106.67216
0.9775556,102.03794
0.9378599,103.9826
1.0278686,97.26755
0.87005776,100.22302
0.89253265,100.132065
0.93435013,95.27995
0.8925085,95.01117
1.0017262,96.064156
0.87136155,92.08255
0.9004858,92.75169
0.8495912,90.9046
0.84890157,89.543526
0.8717417,85.827545
0.77290076,87.18449
0.8983611,85.2927
0.79563385,83.5172
0.8768986,85.62036
0.78031886,83.593864
0.7058678,81.95526
0.6788862,84.37501
0.65011376,84.48622
0.6379118,81.7554
0.5981875,83.17622
0.6054071,81.38132
0.6292251,83.078316
0.5814091,86.1397
0.5596178,85.72349
0.58310753,86.618805
0.5168246,87.85341
0.55499226,91.401085
0.58613074,93.64755
0.6225,100.07446
0.7145533,97.1968
0.7325923,99.187805
0.85542583,101.06946
0.9056505,106.03918
0.93660337,110.44917
1.1049211,110.85093
1.1263909,113.67844
1.2573801,119.08062
1.41082,118.63523
1.4359506,123.57061
1.5636655,126.69669
1.5778639,126.84805
1.5844572,132.35144
1.7992034,136.8257
1.6979702,134.85184
1.7316284,141.38528
1.8431003,141.01746
1.9407533,143.6244
1.8983883,149.17235
1.9301572,148.41673
1.9352123,149.0897
1.9790165,154.33922
1.9397508,154.82748
1.9372303,154.46317
1.9439427,154.3879
1.9229994,158.29105
1.8452313,156.73474
2.0037034,157.67538
1.9707769,157.09526
1.9755868,159.69977
1.8500923,157.3766
1.8631253,155.17111
1.8020325,159.68257
1.8433435,155.10301
1.7850716,154.63808
1.8134763,154.04556
1.7483426,152.53621
1.7060122,152.84367
1.6992586,153.86066
1.6202955,147.8474
1.7184395,149.71979
1.5969373,145.86783
1.534318,144.95505
1.5104707,143.56421
1.5757188,141.71095
1.4917531,141.39503
1.5127296,137.23526
1.4694455,134.58153
1.4323416,135.85773
1.51755,133.69614
1.522196,132.10988
1.4096705,128.68428
1.4451216,124.598045
1.4281024,127.21695
1.3953471,124.50725
1.3793916,124.777916
1.3943594,123.08655
1.2847084,120.38842
1.2872858,120.833206
1.3261774,115.31313
1.2518562,119.24099
1.15715,114.5998
1.0728736,112.67253
1.0383931,110.43285
1.0994301,108.73289
1.0227133,105.11641
1.0530679,105.97564
0.991616,103.58447
0.8860106,100.693016
0.89624697,100.441925
0.86587566,101.13447
0.80006385,95.87284
0.80723906,98.22254
0.7757522,93.355804
0.8734613,89.78799
0.83566,91.6643
0.8295979,88.76974
0.78444535,89.382065
0.78363836,89.29003
0.81257254,87.21426
0.82218605,83.721634
0.6772757,85.51714
0.75106865,83.82857
0.7308416,81.913895
0.5532392,87.088745
0.6075099,82.44009
0.61754936,80.4855
0.6301833,83.02596
0.51842177,82.38688
0.44319284,85.34662
0.4176261,84.30541
0.3902924,84.22899
0.3907411,85.219765
0.36675468,87.42594
0.36873174,89.56313
0.40781236,93.06419
0.38906014,94.02181
0.48388243,93.614876
0.5223296,96.12596
0.58829015,97.528244
0.6126586,100.28222
0.7071458,103.757675
0.8282447,108.36699
0.8780445,108.303734
0.99299234,114.18383
0.98837066,112.82903
1.1076486,117.55519
1.2376733,119.4308
1.2357957,122.16402
1.4671478,124.956696
1.4188771,127.20488
1.4578971,131.95471
1.5304234,133.32082
1.5960747,138.33783
1.6734667,139.91408
1.667237,144.3555
1.6831119,143.34914
1.6812977,147.28596
1.7278966,150.40395
1.6880207,153.7138
1.7365679,149.82109
1.800097,153.48952
1.7556111,155.33084
1.7603495,156.32971
1.7619193,155.2269
1.6462932,159.69423
1.6573749,156.2666
1.665601,157.20265
1.6478533,158.01268
1.6559392,159.72844
1.6424279,155.49771
1.5679781,155.56955
1.5915569,155.89539
1.5833416,152.86415
1.4573963,153.79674
1.5201819,153.5555
1.387912,149.89253
1.3349328,151.4947
1.2999004,148.55101
1.3111886,147.06145
1.2953322,146.87013
1.3457705,145.4202
1.2688605,142.99216
1.2078179,141.07722
1.1675777,140.93752
1.1518674,138.58679
1.2259547,136.56737
1.1577283,134.68979
1.180841,132.13034
1.1350553,134.38754
1.0976335,128.2699
1.0730937,127.83437
1.0146383,127.433365
1.036353,125.32196
1.0444646,122.79989
0.94742864,124.22842
0.9108296,121.162926
0.8807213,118.49858
0.95874494,116.05711
0.80641985,115.04918
0.83603185,112.87329
0.67349964,111.057816
0.72621274,108.87419
0.6855967,109.124565
0.686775,106.15747
0.6402992,105.889854
0.6373862,106.12839
0.50654364,100.74921
0.5004445,101.12012
0.49965885,97.535965
0.4584443,94.03749
0.53351134,96.7926
0.5639124,95.22528
0.52018696,91.93792
0.3893476,92.72507
0.5465328,89.88979
0.4750043,90.486824
0.5460786,85.188034
0.5239873,87.235695
0.45423925,84.93756
0.4448105,85.43157
0.4030627,84.39695
0.36628833,83.249405
0.32297164,86.584595
0.31428105,81.83773
0.31002724,85.44671
0.20347022,83.68352
0.15504356,83.09011
0.15606442,84.73753
0.07862472,82.054985
0.092918396,87.417496
0.100151815,86.048416
0.04682631,90.96222
-0.00042681355,85.97037
0.062588885,91.68029
0.12935501,92.672844
0.095820256,96.00484
0.17485222,95.637924
0.2768008,99.25728
0.28702378,101.67271
0.39023656,103.992424
0.4596525,108.02958
0.5012296,110.547775
0.5848481,114.22402
0.7098637,114.86615
0.75702804,122.22086
0.9350164,120.13978
0.92553985,124.169945
1.0335103,129.05464
1.096618,129.03088
1.1550364,136.33553
1.2330912,134.7151
1.2511464,138.45384
1.2904092,141.762
1.3571523,143.6356
1.3493321,146.82918
1.4542066,148.34166
1.3555279,147.63785
1.4436014,149.16388
1.348711,153.1993
1.4329535,156.03094
1.3796943,153.66154
1.4101769,153.6259
1.3440617,158.31859
1.3934753,156.21619
1.3519921,157.68591
1.3172328,159.31195
1.3183719,157.94551
1.3635076,157.65508
1.3217292,153.30629
1.2014506,155.62326
1.2873392,151.46437
1.151668,152.6122
1.2729806,157.00687
1.2035937,155.39615
1.0519634,154.05988
1.1040028,152.05263
1.0043861,149.04155
1.0076029,146.91411
0.9679288,145.50235
0.9576799,142.52548
0.8603752,144.17934
0.9756381,141.45883
1.0571243,138.14854
0.8842848,133.45195
0.9400442,136.99947
0.9372762,135.78798
0.96283114,134.6269
0.84173566,132.84099
0.976101,125.24114
0.924486,127.411385
0.8722495,129.41463
0.82117116,125.63923
0.8726675,119.523636
0.71246934,121.513306
0.78458565,117.48186
0.7406131,114.39501
0.68887687,118.47134
0.64875096,113.33032
0.5380355,114.484764
0.5092453,111.23636
0.568645,109.86685
0.41998044,109.94541
0.41845936,110.487076
0.28123176,104.87158
0.39460427,106.31484
0.45601797,101.1173
0.44414392,100.25433
0.41940576,95.09911
0.23672865,93.18668
0.32975012,96.72588
0.27994087,93.28382
0.3331605,92.59707
0.25461575,91.38369
0.31185308,91.82333
0.41247267,87.495346
0.27239212,87.236626
0.34243017,87.559715
0.33120123,84.05965
0.2849326,86.55696
0.22718424,81.409195
0.26955292,83.69089
0.18664752,82.22851
0.1332006,84.82918
0.10168854,81.426155
0.17725699,81.21298
0.06329241,81.09588
-0.017906586,83.68616
0.040310964,85.20215
-0.036580633,84.28361
-0.035731573,85.40547
-0.010384542,87.53204
-0.032598022,88.29918
0.013250098,93.87527
-0.02072559,95.90247
0.14949466,92.32218
0.11695231,96.1713
0.24145041,97.46703
0.25800508,104.31881
0.31913927,103.220314
0.3854736,106.222404
0.61790746,112.56865
0.6332187,116.22687
0.76130277,114.24871
0.7932428,119.06272
0.9290846,123.44562
0.86893684,126.57057
1.0070796,130.892
1.1007521,133.65623
1.2069604,134.83426
1.1961274,140.00975
1.2850446,141.8058
1.3919426,140.99397
1.3920172,144.97633
1.3919513,144.02896
1.4088895,147.9176
1.3434783,151.21724
1.4869443,152.03134
1.4639827,153.7219
1.3998141,151.73192
1.5392354,156.75919
1.4969715,156.81062
1.4844909,152.91452
1.4227526,157.86798
1.4309063,157.95737
1.4221147,154.43323
1.3143486,156.55482
1.4184225,156.35643
1.3627666,154.94785
1.3867874,156.40094
1.3400204,156.00038
1.3244516,152.85548
1.2926834,151.89923
1.266587,149.66557
1.2308748,146.71245
1.1879133,148.40125
1.0840398,147.03828
1.1654018,147.69261
1.1320744,146.70638
1.2123631,141.82481
1.0490196,142.11986
1.1885422,137.5907
1.0891329,137.73717
1.1036514,136.21953
1.1267284,134.08496
1.1282048,132.0227
1.1558529,131.74847
1.0722799,128.79562
1.0812268,130.97533
0.99188215,129.77078
1.0430245,126.18055
1.0354606,121.90022
1.048313,121.32692
0.9694176,121.46746
0.9508152,121.66011
0.93451387,116.71825
0.85530746,117.5196
0.76692396,114.29285
0.7584751,114.63978
0.7602981,109.27919
0.7057958,111.64421
0.72189045,109.18231
0.7139269,103.9855
0.73858315,102.13817
0.56119466,103.5362
0.58547556,101.12442
0.5082818,99.87446
0.5695531,96.046234
0.64034116,96.14846
0.697603,96.0127
0.5629336,90.5009
0.52756226,90.86871
0.5176428,91.31743
0.64180756,87.91175
0.6006991,85.60311
0.63707477,83.89965
0.59748423,83.982346
0.51040304,86.198685
0.52321863,85.24224
0.45249996,81.96565
0.5160292,84.69997
0.4680804,84.80554
0.39233565,84.19484
0.34613982,81.689186
0.3999898,84.7169
0.30365196,82.95314
0.29640654,85.65751
0.30832678,85.439644
0.3210782,83.59301
0.21060443,88.129295
0.350153,90.82781
0.32896462,89.189705
0.39288577,92.495026
0.37103906,95.85038
0.4397054,96.9834
0.45631808,96.35245
0.59809434,101.582924
0.62154895,101.64643
