ppg,abp
1.166907,101.832275
1.0902603,104.03113
1.2768588,107.00665
1.3282268,107.626236
1.436622,112.417465
1.3821548,115.904976
1.5216113,112.68995
1.4200472,116.68741
1.607993,120.06909
1.5985768,121.71827
1.6787261,122.881935
1.6293597,124.54891
1.6789315,127.14505
1.8374616,128.94415
1.6367618,125.99448
1.6661136,131.54205
1.7675198,132.14636
1.7559309,133.29974
1.7291114,129.40738
1.6941713,131.27293
1.7535257,133.89088
1.6805577,131.62975
1.6496043,131.16574
1.5516752,127.39221
1.6480823,130.13919
1.585476,129.84349
1.5846729,125.23391
1.551254,128.84387
1.5528089,124.19747
1.447752,125.06308
1.4113458,123.473206
1.3007175,122.80555
1.4240605,118.16369
1.2933345,117.158485
1.3320783,120.08135
1.3170931,112.276054
1.3889611,115.22009
1.3763422,113.37647
1.3990873,112.77692
1.3456701,107.72769
1.3995023,108.18717
1.3153154,107.84852
1.3050046,104.00897
1.2165185,104.460526
1.2052099,100.85222
1.1151681,98.841255
1.1502024,99.79956
1.0964031,99.54734
0.99763566,97.148315
0.96265,96.25374
1.0700748,91.378334
0.9380157,94.898964
0.90643275,88.310974
0.9228696,90.37654
0.92792237,90.02172
0.92422485,85.03446
0.75447905,85.2731
0.8541523,84.57604
0.7869363,83.33943
0.88814753,83.69186
0.7906773,81.64235
0.79227656,79.63756
0.8096862,77.5255
0.8096247,76.98447
0.9382743,74.43046
0.88204825,76.90942
0.76241463,71.56669
0.7549915,76.206764
0.80598754,71.196434
0.64808106,73.29781
0.73926604,73.507805
0.6111889,73.26093
0.60173285,73.58393
0.6735118,71.60002
0.46320647,75.33589
0.54844314,72.92722
0.56543356,75.446335
0.4993239,76.04689
0.53199714,75.30347
0.4472438,79.29786
0.5672863,76.192055
0.66813266,79.60131
0.7154383,85.50742
0.67225295,85.97698
0.9728468,84.909004
0.95048326,89.62659
0.89803916,91.97992
1.0691432,96.45026
1.1349683,95.22943
1.2013582,100.547195
1.4589413,103.111084
1.4139358,108.34878
1.595862,107.306595
1.6423576,111.272644
1.7054785,114.30431
1.6931899,119.322174
1.7617787,119.47169
1.7310874,119.54829
1.9625301,122.48171
1.8217858,120.62094
1.8317324,124.45984
1.9242885,127.616776
2.0442045,128.19662
1.9705483,127.987305
2.0204933,130.30302
1.9236392,132.79681
1.8644232,131.70444
1.9370143,131.54108
1.9500482,129.89355
1.8924346,131.949
1.8352249,131.26926
1.8441166,130.2507
1.8325092,128.35063
1.7503946,129.9996
1.658357,126.60794
1.7320747,126.73979
1.676145,124.12303
1.8049436,121.71687
1.5682887,123.90622
1.5804896,121.38891
1.6080122,122.286156
1.5829614,120.016205
1.4989305,117.97925
1.5079591,118.131134
1.5283223,115.398674
1.4927388,112.46086
1.5333041,114.26447
1.4975779,111.680405
1.5166258,111.56949
1.510175,107.09358
1.515546,107.48594
1.409569,106.92915
1.3209965,107.982605
1.3237059,103.63737
1.3054789,101.782036
1.3655674,98.83899
1.2843275,96.749825
1.3063738,96.436005
1.2113383,95.27129
1.1154263,94.907936
1.1238978,94.10881
1.018217,94.37892
1.138694,91.196945
0.93249506,91.967155
1.0210993,83.45294
1.0464654,84.805336
0.95353943,87.58233
0.98474246,83.67484
0.8936481,81.00119
0.87909895,80.47533
0.8834379,79.815285
0.9844913,78.29087
0.86237454,79.457275
0.87716097,75.864494
0.91323465,76.79087
0.8729446,75.74258
0.75200784,69.065
0.7331193,75.903175
0.8262611,72.505745
0.7761293,74.727104
0.6965328,71.16889
0.6416162,71.63028
0.68645066,70.190475
0.5353389,73.882385
0.43280113,72.50507
0.39694646,76.483765
0.52048063,78.030045
0.4390541,76.452965
0.5437337,76.3537
0.68664867,78.866165
0.6915932,81.45665
0.584209,82.20419
0.7283546,82.22665
0.7472042,90.596535
0.861045,90.41101
0.9049076,92.44964
0.9461306,96.72199
1.1617949,98.14842
1.2321783,99.46292
1.1644772,98.345665
1.3574369,103.862465
1.5438306,107.616455
1.5351791,108.832405
1.6151334,114.32314
1.7214795,117.95694
1.7502998,118.38045
1.6988978,116.42891
1.7763937,122.33011
1.8208519,122.18671
1.8324485,125.9436
1.977472,125.45848
1.8789077,126.68927
1.8416127,128.3439
1.9644699,129.43983
1.8206807,128.44925
1.8748243,130.81013
1.9520228,133.44893
1.826652,131.38684
1.7706403,130.57793
1.8026536,132.71458
1.7191823,130.51973
1.6915448,130.64682
1.8259561,132.6488
1.6023617,130.87292
1.5886137,128.56995
1.5309291,129.15503
1.5729423,124.82697
1.5480233,123.50244
1.4947567,122.32847
1.4209114,122.16061
1.4492378,120.17544
1.3926823,117.64454
1.3914346,117.24581
1.2527225,116.46094
1.2326558,113.77696
1.2629061,110.65289
1.3148025,110.94949
1.3466811,108.00963
1.189027,107.56907
1.2953255,108.0854
1.1813064,104.80474
1.25165,104.40132
1.1737192,103.52614
1.1404595,100.94979
1.162629,101.240486
1.1250851,97.491486
1.0099622,96.97975
1.031451,98.22635
0.89352334,97.19884
1.0257204,92.362144
0.8578176,92.55962
0.8454512,91.356895
0.7624887,91.89107
0.7886694,89.83017
0.63323116,83.63915
0.64824754,87.75231
0.6489003,82.56597
0.5971076,82.675575
0.71044344,81.68937
0.713068,82.11407
0.6903754,78.98021
0.7024109,77.063126
0.76412064,75.370926
0.55095124,73.44115
0.68611014,75.69064
0.5318895,74.75519
0.5067067,72.30531
0.5088452,70.84768
0.52251387,73.00977
0.40719151,72.85231
0.31574553,71.11632
0.26255083,72.00233
0.37550652,71.64431
0.24060243,71.94951
0.29707444,72.86303
0.18182878,73.318825
0.20722613,76.71346
0.28409806,76.19667
0.2890083,79.58641
0.19326176,80.661575
0.3042195,83.13092
0.3136027,85.20451
0.370863,87.676125
0.5232647,86.53189
0.6211462,92.73743
0.719227,95.846085
0.81765217,97.192764
0.861675,97.60425
0.8873054,105.763855
1.1196207,104.42021
1.2178311,109.205345
1.3249469,112.3896
1.2624038,113.12468
1.314442,113.74782
1.4001228,118.1205
1.3954899,120.41575
1.4352438,117.68124
1.4488581,124.03938
1.478933,127.90739
1.4775379,125.65359
1.4496912,128.0514
1.5834185,124.98189
1.5932647,129.13605
1.5563592,132.41658
1.5893153,127.3297
1.5331161,129.34982
1.4687003,131.33376
1.4166735,129.4959
1.4291072,127.42538
1.4962832,132.83562
1.4209604,127.80273
1.3903406,128.26364
1.3886807,128.09349
1.2761983,128.4454
1.3898928,128.58972
1.1842242,124.78929
1.2271262,124.77476
1.323861,122.662575
1.1877304,122.48219
1.0502722,121.96891
1.1466241,121.02195
1.0026761,118.04945
1.0405279,118.1345
1.0911974,113.2232
0.93872064,111.24173
1.014959,109.466835
1.0974629,112.948456
1.0564561,108.66016
0.9476525,111.06051
0.9727036,108.53115
0.89587665,106.77197
0.8691093,103.79076
0.75270057,100.563736
0.85701245,104.002014
0.82390666,99.0523
0.84495735,98.73593
0.72282964,97.214645
0.54953665,97.33458
0.64972144,94.77135
0.6131796,92.46688
0.416273,90.95992
0.41958353,93.60907
0.4718256,90.69144
0.3410067,85.89561
0.39254782,88.31878
0.5071115,83.392555
0.41356975,80.62179
0.32984468,78.8057
0.30421627,78.06564
0.424676,78.93145
0.30950928,76.491264
0.31752563,76.637085
0.42623103,76.464874
0.45677257,73.78482
0.2946173,72.95735
0.20536819,73.98737
0.21077397,71.40669
0.17159766,71.84227
0.15502627,70.17237
0.062168047,71.40859
0.09442241,73.63098
0.010678243,73.0014
0.048603617,74.56136
0.0061445413,75.135864
-0.071802445,74.685555
-0.14150476,78.59025
0.066910125,76.19921
-0.06329581,80.256096
0.02664236,82.115486
0.111796975,82.4544
0.15415446,86.26376
0.298555,89.684814
0.3131255,88.70261
0.3801772,89.72074
0.5504223,95.23491
0.6677013,96.55231
0.61611867,99.58265
0.7121771,101.00736
0.76914066,101.42298
0.9218659,104.16816
1.0275257,109.144196
1.0298551,109.46742
1.0732023,113.7775
1.1028239,117.45058
1.1945397,116.79761
1.1567234,121.410934
1.2717115,122.47644
1.2753978,127.0556
1.2805833,123.521545
1.4087895,126.91345
1.3804929,129.45349
1.2376018,126.49549
1.2797637,129.59753
1.2950308,131.16907
1.4093823,127.93808
1.3639616,133.72818
1.2889618,129.88782
1.3998541,132.37675
1.4098463,131.51996
1.2522988,127.81933
1.2839829,129.29977
1.1081285,129.3101
1.1161066,127.136536
1.045026,126.812225
1.1296002,122.72512
1.1137508,124.60708
1.0128353,125.02648
1.0680437,120.75929
1.0229841,120.40428
0.99784034,117.9201
0.9275916,121.34221
1.0387396,114.942184
0.97694933,113.40615
0.9046278,115.39292
0.8944299,115.69651
0.9316234,111.41464
0.91262,108.45922
0.83994275,109.76513
0.8203674,105.34151
0.95189583,105.34783
0.80242497,102.145645
0.74295276,103.96541
0.82066834,103.16036
0.74572086,98.69518
0.6201466,98.4937
0.6223611,97.517235
0.5858848,94.71147
0.5739737,96.619835
0.4770542,94.66819
0.5172932,90.44609
0.4387824,88.62116
0.4620652,87.69417
0.34550658,85.07041
0.4224129,84.44947
0.3647923,83.129395
0.47224742,88.48662
0.35960558,83.04073
0.4747378,80.422104
0.29188368,79.500946
0.43551376,75.9723
0.23042311,77.805214
0.4390952,75.87432
0.39225483,76.90666
0.3839164,75.04696
0.34236106,72.71405
0.24625264,71.505005
0.22444098,75.580795
0.21823119,74.0517
0.14845249,69.6193
0.19371784,72.698944
0.16817693,71.52255
0.03083106,74.47116
-0.012355204,72.230415
0.07446155,76.98046
0.021741277,75.11865
-0.069538854,76.33347
0.012521202,77.51925
0.09684947,78.73191
0.110520475,83.84149
0.2764895,84.10839
0.30559888,86.960686
0.44448948,90.51455
0.48425475,90.86011
0.4458276,91.11739
0.62217534,92.23922
0.6601033,100.18261
0.85163754,100.380775
0.96066904,102.38223
1.0844646,106.659004
1.0981277,109.38335
1.1592981,110.84031
1.2672298,110.72232
1.1517912,114.810394
1.3627305,118.28594
1.2938246,119.92885
1.3537694,120.764885
1.4714806,120.118195
1.4979879,124.00857
1.5327988,125.380806
1.4986818,125.87739
1.4685616,127.54823
1.4566362,132.39778
1.459894,130.40488
1.5349934,133.35295
1.4145478,132.07318
1.5120205,134.17027
1.4886862,133.51231
1.5609095,131.30292
1.4552302,130.9587
1.4730753,128.16118
1.3674629,126.93279
1.3552024,133.52199
1.2935635,126.99308
1.3277215,125.67807
1.2884396,125.68136
1.2433767,123.19078
1.2931254,122.26428
1.1513745,121.94032
1.240193,118.367874
1.2051051,119.118965
1.1332707,116.37745
1.1433811,116.22645
1.1696867,113.67634
1.0900444,110.861115
1.11894,108.71607
1.1197256,111.1223
1.1398089,107.183464
1.0856389,108.23509
1.0270908,109.01519
1.0746033,105.70502
1.0448889,101.6496
0.9790388,100.98275
0.95812154,99.584496
0.85037106,101.753845
0.9061574,99.67142
0.9103816,97.710365
0.89242023,96.366615
0.78307885,95.25757
0.7850963,92.95848
0.7817458,94.27246
0.7175417,85.98046
0.6933394,87.98792
0.632801,83.6231
0.6841395,86.60217
0.5691753,83.69879
0.64420766,80.579735
0.6105598,81.63648
0.6084143,79.74752
0.60114646,75.027466
0.7186256,78.860794
0.72785014,76.567665
0.5860201,75.82538
0.6199996,77.72574
0.59406877,72.748604
0.50530523,73.548164
0.49695206,72.731514
0.6539955,69.22979
0.5097741,73.23119
0.50804144,73.26184
0.3836081,75.782425
0.39164084,72.95345
0.40449387,75.34419
0.33688986,74.61308
0.30174735,74.69682
0.3656121,77.57097
0.37503985,80.721176
0.29156697,81.98973
0.37220418,77.72282
0.5061333,82.990204
0.5596053,86.276344
0.5751615,86.8505
0.61554146,89.2857
0.8631196,89.37386
0.94129413,94.10306
0.9948813,97.347916
1.0187689,99.78898
1.242724,101.99429
1.3528035,105.3984
1.3605071,108.434784
1.4393495,107.51997
1.5600101,112.79988
1.6657797,116.018
1.6583833,117.68922
1.7220715,119.96628
1.7973903,120.09199
1.8393643,124.998665
1.8089538,123.25416
1.8831449,125.593735
1.8656191,127.1106
1.833783,127.60421
1.8277652,130.07552
1.8279194,127.584305
1.8863598,129.36815
1.9012122,129.61246
1.796109,132.68036
1.7784288,130.60115
1.7471416,132.69444
1.7890341,131.39418
1.6771501,128.06596
1.8425732,129.99475
1.651005,125.574455
1.7842495,128.09462
1.6502184,128.04483
1.6211507,125.33805
1.5813636,123.56077
1.5182444,124.017494
1.4489379,121.39753
1.5131035,120.941505
1.4821911,118.25633
1.5241419,120.87894
1.4264865,119.65838
1.46674,114.49125
1.5222716,118.32408
1.3934579,111.821045
1.4411205,107.330826
1.3624312,111.67628
1.3021222,110.71831
1.420235,107.90507
1.4370524,104.43518
1.3069533,104.73694
1.392468,105.01073
1.235769,98.620316
1.1444814,99.69921
1.2729867,99.284225
1.0773789,95.30582
1.1837183,94.86569
1.0813818,94.92265
1.0792605,91.647766
1.0748497,89.68678
1.0484035,89.74868
0.95778614,87.08598
0.91708183,83.72547
0.90643764,84.45592
0.87198704,82.21082
0.81222767,83.01723
0.88819534,82.14312
0.90287447,81.09791
0.83593714,78.40087
0.9178222,78.76677
0.84465194,74.9611
0.9485281,76.86617
0.85655856,74.62918
0.98241496,74.0681
0.8461138,73.64189
0.7852091,71.79945
0.7456655,70.94468
0.7310102,71.95661
0.71513826,72.71381
0.5572553,68.88716
0.6900916,72.02978
0.62099546,71.72859
0.610351,76.895355
0.61366785,76.64029
0.5835929,74.63589
0.4555181,79.111084
0.652837,83.61864
0.55854917,81.12565
0.63782185,86.54498
0.6574481,86.49995
0.8117107,85.63484
0.8430007,84.127464
0.9091326,92.146065
1.0317479,94.06442
1.1053501,95.30589
1.3287252,98.79967
1.3446583,98.788155
1.3806428,102.30966
1.5176703,105.47226
1.6700091,104.5866
1.7180434,111.95956
1.7956583,113.14422
1.8265381,116.638405
1.8525332,117.65925
1.9360943,119.57189
1.9280567,123.578674
1.8033172,127.9698
1.9807543,126.98913
1.9396173,128.782
2.015252,127.789604
1.9557852,126.54968
1.9891393,127.88699
1.9395787,129.11179
1.9909533,129.87575
1.8527972,130.15695
1.9275796,131.05405
1.9629568,132.94275
1.9164116,128.83261
1.7910734,130.34515
1.7984037,130.67444
1.8062155,127.53929
1.7097328,126.39311
1.6776621,129.31778
1.6986296,125.12552
1.658842,124.58492
1.671032,124.97167
1.5208291,123.09114
1.4913257,122.009834
1.4488584,120.39499
1.5143168,117.1441
1.5002543,116.46374
1.4842613,115.09686
1.4033489,111.11498
1.4225559,111.02424
1.4000217,111.692184
1.4888756,110.34056
1.4894118,109.34633
1.3797175,105.869125
1.2625458,106.18154
1.4718884,104.1146
1.4045295,103.18885
1.2814428,100.30588
1.3061161,99.07014
1.2234721,101.256386
1.178825,97.18724
1.1346585,97.24697
0.949893,94.93793
1.0120391,94.00786
1.0310161,91.985146
0.97825706,88.74992
0.89600253,89.011086
0.7651103,87.611565
0.84446084,85.89139
0.85085994,83.66652
0.80613244,83.0943
0.854499,81.646645
0.8001436,81.544235
0.8173702,78.68656
0.831623,77.55389
0.76995116,74.882095
0.8257006,77.84332
0.84388316,74.109535
0.69600004,75.52597
0.852359,71.49859
0.7524093,71.92128
0.6252625,70.2928
0.7108549,74.07478
0.5818665,72.99618
0.5028533,73.014175
0.50729203,70.56313
0.51608855,72.57341
0.41665143,77.925156
0.360653,74.819954
0.3639322,80.49377
0.36139107,77.81703
0.4080726,78.87222
0.3867871,79.84127
0.40520036,84.16515
0.52404344,84.3179
0.6377237,87.09581
0.71258116,88.14339
0.8453389,90.8513
0.9324938,89.5139
1.0980012,97.27945
1.1117212,99.19358
1.1948378,101.54024
1.2128754,100.84858
1.4303852,108.848724
1.3117241,108.92464
1.555799,111.01751
1.5808015,110.58566
1.6605057,116.17384
1.6667196,118.42463
1.7788926,117.94026
1.6504614,122.20285
1.6824654,125.10569
1.7388681,124.06669
1.7729244,130.0601
1.7362036,123.814026
1.7130736,129.25383
1.6826088,131.04669
1.7332482,137.14572
1.7270325,131.10684
1.7181892,129.89597
1.7040095,129.80164
1.7028071,131.53107
1.7961498,131.7082
1.6671114,128.25575
1.5827321,128.65907
1.6790949,130.36832
1.5395269,126.70778
1.4453605,129.21935
1.4374093,125.568085
1.4947778,123.123535
1.395061,124.59
1.422928,120.87064
1.367089,123.63032
1.3171557,120.36264
1.3442212,117.71267
1.2211623,116.90478
1.3705778,116.089836
1.1893549,112.62304
1.3780092,112.85256
1.2145975,113.77373
1.1690602,106.69645
1.1701199,105.02219
1.1445274,107.5524
1.1211709,106.42088
1.1229346,104.2727
1.0688962,101.72441
1.052107,102.43763
0.9673554,99.14108
0.9569752,99.17816
0.8669204,99.08651
0.7764095,94.31401
0.8019595,92.30891
0.62370247,95.79256
0.7423206,91.121284
0.6192668,88.353035
0.6647238,88.623116
0.6015034,88.52572
0.62309486,85.33772
0.5076122,80.2287
0.4925777,81.56576
0.5367954,82.154335
0.5940181,82.584564
0.6088796,79.67467
0.5983765,80.28259
0.4569644,77.898026
0.5773768,76.21111
0.47303653,74.25628
0.47682017,74.30401
0.54997784,71.51817
0.39397055,71.32026
0.4029833,73.76989
0.36257556,71.19496
0.36190608,72.691086
0.27814123,71.370544
0.24673726,71.53437
0.16239882,74.48512
0.14065509,74.71326
0.13138458,74.67035
0.07124166,74.20053
0.075365424,80.41214
0.09799544,75.27133
0.08873024,81.94293
0.23385091,80.61268
0.19459276,84.10042
0.29030958,86.324326
0.29707873,88.1744
0.37326476,94.62754
0.5792225,92.882515
0.6383542,93.55692
0.8435052,101.51476
0.78458446,100.875305
0.97945666,100.65763
0.91213536,104.88238
1.0502602,107.06332
1.1432412,108.534615
1.1579287,109.45488
1.3083354,113.64135
1.2274574,117.57379
1.3446559,118.16174
1.2899009,124.99951
1.3736689,125.542465
1.3675506,129.32594
1.4010636,126.48357
1.4160568,130.19673
1.3956923,128.70213
1.4458822,128.67613
1.3880069,132.49167
1.4703634,129.4029
1.4768454,129.38805
1.385573,128.01498
1.322624,131.2127
1.2177637,129.26997
1.348618,129.45367
1.2506168,128.08957
1.2887802,129.01787
1.285859,125.887474
1.0935773,129.35716
1.1238672,129.60582
1.0589199,125.360176
1.1000627,124.0192
1.0848595,122.94421
1.0569971,120.7989
1.0989802,121.269646
1.0676067,118.87982
1.0161785,119.95329
0.99075454,118.09185
1.005985,112.68236
0.9467548,116.635124
0.8397778,110.40233
0.80685216,110.39297
0.9562533,108.86981
0.8840822,107.95159
0.99399436,104.47905
0.863283,107.24501
0.75945127,105.27734
0.7306396,101.06786
0.7127249,98.3742
0.6740218,101.88879
0.66609305,98.94844
0.6130355,97.640816
0.6193121,93.49515
0.5560064,96.5144
0.5160588,89.75854
0.35462418,91.44095
0.42655933,87.13008
0.33329844,86.93959
0.39639598,86.440254
0.25398913,85.22189
0.3048132,82.730965
0.44536287,83.78897
0.37559748,81.4264
0.29282784,81.884094
0.37620667,78.379364
0.33310267,76.18439
0.34303933,72.54041
0.37461394,76.53469
0.3435153,75.08591
0.19651724,69.68007
0.30502737,73.391624
0.25941366,71.60754
0.10119392,72.91928
0.24748649,73.33977
0.056663856,72.75911
0.15573506,73.54444
-0.016682658,74.4519
-0.0835834,71.66845
0.005264226,76.072685
-0.10844149,75.06402
-0.11812529,75.22798
-0.038336948,80.3591
-0.043592665,79.37624
-0.04832198,79.488106
0.05645517,82.4417
0.10306239,88.72415
0.15764149,89.53151
0.20371558,89.226746
0.3412547,92.11884
0.40145972,93.3795
0.5140788,96.41369
0.713607,101.15091
0.77104044,102.26072
0.86119264,105.089134
0.97306055,106.98847
1.0427828,110.00816
1.0587183,110.142334
1.1126553,114.10446
1.2081971,116.60127
1.2005428,118.883194
1.2108798,117.8963
1.3945785,120.801025
1.2961513,124.836334
1.4159038,125.34246
1.4064701,125.42466
1.4303119,128.83823
1.4751828,129.28833
1.3932394,131.5489
1.3475891,130.65445
1.4705336,130.44998
1.283461,130.35081
1.3250277,129.21794
1.2461507,131.3561
1.3447843,130.3757
1.2858479,129.13615
1.3009982,125.64611
1.2488444,126.188225
1.1827475,128.27295
1.0902734,128.39081
1.1107762,124.065865
1.0905797,122.0514
1.1311923,124.75533
1.01841,121.72673
1.0487874,119.36817
0.9544011,118.77882
1.0713938,121.40733
1.0730174,116.05256
0.9443688,112.96679
0.9866761,111.58717
0.88471067,111.22525
0.8544817,111.848274
0.89457464,111.399864
0.94366294,105.08763
0.9624331,106.19971
0.89587593,103.708405
0.84458786,104.255775
0.8119258,103.61962
0.8187584,101.72513
0.8191331,100.62623
0.67267007,99.66344
0.83444536,98.38069
0.6926748,94.41476
0.6952884,93.825714
0.7005995,89.62502
0.4530459,93.772606
0.5788271,89.718925
0.5309772,89.26654
0.42622536,89.06538
0.4561681,85.93995
0.46644238,81.73324
0.5164275,83.98952
0.5346841,83.49564
0.47200975,78.05597
0.40723062,79.02922
0.46442205,80.2183
0.4099489,77.51875
0.49024838,77.14669
0.4926259,73.11546
0.45217937,74.76806
0.345346,71.69282
0.34886718,76.29496
0.40334195,74.961716
0.26665494,71.09397
0.2968082,73.71454
0.19699968,72.98212
0.25091085,72.875595
0.13665813,68.45529
0.15214181,74.046616
0.11236411,74.68551
0.20032905,74.94766
0.19422843,81.273445
0.13995309,79.30258
0.23442346,79.59453
0.26535133,81.303535
0.30267903,89.008026
0.46264797,86.617065
0.57106215,84.931274
0.5426685,86.52199
0.7333759,92.23259
0.7732784,97.77823
0.8325054,98.64095
1.0273689,101.30582
1.0387299,103.35547
1.2808328,104.46598
1.3011987,106.5709
1.2449567,111.43875
1.2548978,114.60637
1.4923466,115.98848
1.4875739,116.40707
1.5772307,120.94593
1.6586876,124.48649
1.6698276,123.40842
1.6424569,125.44595
1.5914487,126.28151
1.580036,128.19685
1.7280143,128.25377
1.6863666,131.52582
1.6038402,131.65865
1.6347017,130.24834
1.7062055,131.67879
1.5982153,131.6544
1.6056048,132.66783
1.6138873,130.27104
1.7013954,128.68591
1.5636799,131.82983
1.4018885,130.51709
1.5196443,124.19959
1.4305607,126.03829
1.4236705,122.52004
1.5225253,124.57333
1.3877003,122.00223
1.4116396,120.8729
1.18384,120.85388
1.3387873,114.851234
1.3829083,120.62465
1.2326444,114.2783
1.2590301,115.956184
1.3338099,116.90051
1.3161813,115.506516
1.2386106,109.51238
1.2778417,109.89288
1.2615908,106.88219
1.2539904,107.573494
1.369104,104.557655
1.2495438,101.54829
1.2035258,101.7549
1.1395041,101.94681
1.1197506,99.26588
1.0787308,99.44416
0.99430174,96.80542
1.0090936,101.29777
0.9164473,95.279564
0.87211615,92.92496
0.7793714,92.78544
0.88947237,92.2823
0.87533975,89.09962
0.8771517,87.34275
0.73465973,85.064964
0.8932145,84.995255
0.8892977,82.59143
0.8420427,82.29149
0.8115047,79.77077
0.80418456,82.59821
0.8230646,79.65063
0.7281982,75.63072
0.791084,76.46949
0.81564295,74.821266
0.7742382,73.98429
0.7838053,73.00018
0.6546483,76.11317
0.7005081,72.88713
0.6177331,76.71178
0.54183453,72.75104
0.45952642,74.83548
0.58903563,72.05522
0.56150705,72.563446
0.42831132,72.625786
0.38075358,75.6428
0.5130575,77.65758
0.4488694,78.47848
0.5176522,76.64801
0.5266881,82.516685
0.6243296,82.59193
0.61470604,86.815155
0.6902179,87.334305
0.7784887,87.01284
0.9098759,90.576935
0.9121239,91.75787
1.050574,96.02185
1.0740916,98.99458
1.1662843,99.46176
1.3718178,103.079254
1.4072924,103.814545
1.5126102,106.29137
1.6607447,111.319145
1.5637673,113.802666
1.6845762,115.031746
1.7097044,118.83535
1.7514331,117.78524
1.9324838,122.06953
1.835558,123.5171
1.9425911,122.73346
1.9320214,127.88745
1.7753174,126.11822
1.9139929,126.830284
1.9712497,129.20592
1.9730576,127.796295
1.8767517,130.86183
1.9340556,132.37135
1.9164342,131.55948
1.8686873,127.57672
1.9455414,133.56047
1.8881978,130.03642
1.8888168,131.2735
1.8807238,126.48409
1.7694013,130.15933
1.67697,124.24016
1.7150196,125.8088
1.7238921,124.98509
1.5377369,125.36943
1.6195414,125.51626
1.5299649,121.02499
1.6130172,120.29048
1.5131261,116.04114
1.5331001,116.856766
1.6508712,116.53172
1.3637177,112.52189
1.5133649,112.33351
1.4940894,110.82993
1.3943578,109.28141
1.4447079,107.111855
1.4276849,107.00845
1.4358947,107.87354
1.3765182,104.60292
1.4525054,104.44192
1.2220323,100.86277
1.3375498,102.47734
1.1376684,95.45142
1.2649889,98.131805
1.0824693,94.9626
1.0747782,93.82462
1.0937862,94.13556
1.0885673,91.93631
1.0072112,96.13976
1.017259,89.65734
1.0537529,87.66509
0.88737947,87.77121
0.9889057,85.188995
0.8616366,83.03493
0.9245451,83.803055
0.9072855,80.59811
0.8597158,78.34488
0.8949074,78.131035
0.9769888,78.306656
0.926443,81.620224
0.9179472,76.90543
0.87506115,76.19671
0.844504,73.92534
0.8513632,71.84093
0.8118195,73.34758
0.7654914,70.22617
0.8025588,75.20253
0.706702,74.22628
0.62504286,73.224075
0.52581906,73.45529
0.564734,74.97657
0.5673342,77.50727
0.5722198,74.257355
0.5283103,78.29215
0.5504566,77.08758
0.6398356,80.343834
0.6040771,83.75048
0.6771122,81.94781
0.68270475,87.03896
0.79491717,87.64548
0.9128485,90.24957
0.92997515,95.365135
1.0355389,94.65248
1.168498,97.36347
1.258362,97.12342
1.3190655,101.45408
1.4428573,105.91963
1.4659321,107.88333
1.6067808,111.33228
1.6104114,112.256516
1.6854267,115.42531
1.6694063,116.50523
1.7906268,117.695526
1.8219609,124.43569
1.9233099,122.586426
1.8103647,121.68927
1.914207,124.35244
1.7916644,127.489334
1.8404268,128.8897
1.8878645,130.9028
2.0437965,127.34785
1.8435318,129.76921
2.0213275,131.02303
1.7297828,128.86734
1.791101,132.21745
1.8270727,131.58507
1.697422,129.27812
1.8869191,125.40937
1.810841,125.93595
1.7240175,124.17636
1.731057,127.02805
1.6866472,127.205475
1.5388763,124.140434
1.6575266,124.60212
1.5510135,122.43603
1.6016145,122.322685
1.4784003,119.663345
1.4559038,118.03558
1.3843691,115.61756
1.4655322,115.90309
1.5240602,112.95717
1.3797016,114.469345
1.3464277,110.303535
1.4058343,113.50699
1.3826114,107.38931
1.2711078,108.75848
1.3413016,105.21587
1.3767644,104.86428
1.2975416,102.215004
1.2817373,103.73809
1.1001072,100.13454
1.206148,99.860344
1.0942497,97.05774
0.9803837,97.35522
0.90857446,93.63779
1.0545931,94.80385
0.80436814,93.89711
0.91795224,91.36931
0.7054161,87.219696
0.82468367,88.634186
0.75255764,87.02913
0.82123446,88.05447
0.8173559,82.72135
0.7668478,86.25186
0.63672656,84.55276
0.74922323,80.632675
0.71391004,78.78203
0.7418743,78.48868
0.701007,78.41494
0.73301613,72.83566
0.6292924,78.39267
0.63091713,74.78889
0.6177688,73.15752
0.59640265,72.43293
0.45030418,72.01753
0.5832387,69.63182
0.48318356,71.817276
0.43935546,72.35027
0.50357395,70.96343
0.2846035,74.50677
0.3875167,74.077515
0.29007018,74.13094
0.19800228,77.41957
0.29943326,76.524635
0.33941796,78.934746
0.33206674,82.19383
0.3940338,80.776024
0.4434374,85.691666
0.5597468,86.39114
0.58499825,86.548416
0.64752823,92.78271
0.8742251,96.76479
0.90550643,92.946655
0.9478538,98.90575
1.0219479,103.3249
1.0324264,102.417206
1.2303625,106.02238
1.3347799,107.17731
1.399908,109.77822
1.4012544,117.16554
1.3700917,117.188896
1.4067649,116.45215
1.5383284,121.398125
1.5038956,128.5003
1.6149213,124.57483
1.6118081,126.023186
1.6635574,126.649826
1.6661084,128.08243
1.628671,130.25456
1.5346019,127.36713
1.5724602,129.55316
1.5871944,129.15741
1.6149842,128.5025
1.5190241,133.66167
1.350043,132.45117
1.5931281,129.36517
1.4925902,130.11649
1.4571986,128.97693
1.4551657,130.33319
1.362149,128.06703
1.3469172,123.28513
1.1926594,128.00804
1.4375693,121.53056
1.1474736,125.268135
1.2605972,123.79511
1.1084785,123.21004
1.154277,120.686485
1.1312132,113.92571
1.0993234,113.30306
1.1587034,116.84157
1.144241,111.100655
1.0635798,113.027985
0.9606343,111.717964
1.0661833,107.016335
0.9463659,106.883224
1.0430801,109.247795
0.99004704,109.548645
0.9430829,103.58735
0.84066373,103.28021
0.88810056,101.62084
0.9221443,96.1709
0.7586786,98.26869
0.8654501,98.30404
0.70225793,93.843864
0.7093907,96.63099
0.5630712,94.166245
0.6625112,90.72583
0.621086,88.80584
0.53903115,85.76957
0.4695427,87.64019
0.42839012,86.20284
0.5316875,87.339355
0.45527923,86.09545
0.553869,81.69047
0.51299477,78.538895
0.373544,79.0131
0.35583335,79.87078
0.40734702,78.76337
0.4203195,77.30323
0.3091103,75.944855
0.4004845,76.37421
0.40102065,75.69194
0.25106847,70.80532
0.092072934,72.397064
0.1653368,75.94446
0.21751884,72.29542
0.17699295,73.91478
0.14186236,73.74989
0.06661244,69.99679
-0.013941555,74.55687
-0.065251045,72.15074
-0.10638023,79.46198
0.0484943,78.93114
0.020709252,79.801956
-0.037211526,78.43523
0.10185741,85.01312
0.119349495,85.15589
0.2393595,83.68533
0.30525872,87.229256
0.37527192,89.97572
0.47457656,91.31789
0.6190774,96.690125
0.7126363,100.504715
0.6487061,98.60484
0.8788524,104.50899
0.9076246,105.20839
1.0355914,109.6946
1.2308409,110.194725
1.1010025,109.58955
1.1997601,119.78441
1.2570235,119.12083
1.219791,115.58094
1.2394303,118.86419
1.3617823,121.93848
1.2929769,121.86929
1.3052562,125.879776
1.3565165,125.17824
1.2238047,125.62804
1.3700233,127.5081
1.3739573,130.18932
1.3932562,128.7238
1.3223416,133.15852
1.4361392,129.96715
1.2523321,128.74263
1.3161969,130.83247
1.3792124,129.47742
1.262081,130.32133
1.1387936,128.19673
1.1446358,128.55725
1.2314502,129.85786
1.1757284,124.42396
1.0580802,127.27629
1.0592412,123.58452
1.0335319,118.369995
1.0131294,121.56186
0.99737394,119.60448
0.97819835,118.207825
0.87654006,116.364044
0.9137864,116.835434
0.9037382,114.76955
0.86712205,113.74471
0.9277659,111.161026
0.8711874,110.8641
0.9122963,106.25926
0.79335237,106.92341
0.76861614,105.21428
0.82671064,106.281
0.8030073,100.984856
0.7420891,103.17723
0.62575257,100.41975
0.7827403,97.83691
0.5515458,98.11025
0.6754424,93.55572
0.4879892,91.78086
0.5714135,87.967834
0.44132924,92.61042
0.45219818,91.50707
0.43631947,88.20054
0.26343176,84.2549
0.37758136,89.04698
0.4561893,86.88668
0.33107963,81.62175
0.22710362,81.70132
0.26839405,81.52646
0.2845642,78.5138
0.34048653,74.5228
0.32162854,76.294525
0.3280007,75.96175
0.27750486,75.969086
0.30436662,74.91837
0.19548917,75.22712
0.23164767,74.66587
0.30666077,72.73495
0.16371137,71.804115
0.046694376,71.95188
0.11994738,73.45803
0.07302486,74.41228
-0.039665032,75.46229
0.024348183,74.264206
-0.056910176,72.47659
0.07370693,73.05342
0.0009124625,78.36396
-0.05618008,77.344604
-0.039650407,80.9925
-0.012068627,81.98358
0.20891951,84.0235
0.22153842,88.58601
0.28742325,90.550026
0.29523775,91.836975
0.529031,94.79968
0.50022197,94.37343
0.65403736,95.7036
0.78047734,100.145836
0.89677906,103.19186
0.98843116,104.60805
0.9759315,107.1314
1.0980818,112.46147
1.1730604,110.54638
1.1206791,110.60576
1.2537129,114.31811
1.3461995,119.68926
1.3915446,121.93676
1.3731263,123.90539
1.4281793,125.72182
1.4321663,123.562584
1.3524317,126.3054
1.5256991,128.27737
1.4946827,128.3211
1.4182224,133.29424
1.4772483,130.45537
1.4426385,131.5364
1.4087124,133.15698
1.4438807,129.30063
1.4858742,130.49918
1.3423988,130.03766
1.3691523,134.31195
1.3167957,128.09937
1.2880998,127.70687
1.3320076,126.76828
1.244116,127.56372
1.2253333,122.56818
1.3085164,123.534966
1.373474,123.74949
1.1700671,121.79598
1.2008437,121.52099
1.1028556,117.68265
0.9950762,121.29513
1.0510722,118.07987
1.1869131,114.42929
1.1898463,112.37914
0.99565166,110.71496
1.0483512,115.29675
1.0692842,110.673676
1.0712607,109.30011
0.93909943,104.43577
0.9974121,102.68445
0.99554396,103.72388
0.8361577,105.07559
0.7931785,101.52638
0.7852397,97.96446
0.9030088,97.790955
0.83006006,95.882416
0.82683164,96.876656
0.66598225,94.82553
0.6249726,93.45677
0.70864564,95.13874
0.6606407,90.828865
0.72737575,88.33317
0.5597108,84.85754
0.59853387,83.2158
0.54222643,82.851265
0.5627445,84.39421
0.64613694,80.69546
0.62997913,79.28769
0.68613654,76.61479
0.53049505,77.85972
0.69131535,76.556076
0.525899,73.192894
0.6187196,76.91045
0.48873812,76.8065
0.44355023,73.14114
0.47573248,73.71243
0.45343196,71.94419
0.5612981,72.85693
0.4208911,72.55445
0.394043,74.05591
0.35670087,74.36142
0.34094232,73.97625
0.3316716,74.445114
0.28807193,75.7442
0.22772595,74.90402
0.33263683,78.0132
0.31279862,78.70395
0.41151887,81.812126
0.5453182,81.68694
0.48744363,86.003975
0.56745994,86.84989
0.55654013,88.00841
0.73593247,91.759445
0.8679487,95.81794
0.8566731,95.988846
1.132828,98.44425
1.1719568,102.941315
1.2412344,102.49352
1.2636988,107.23421
1.3287742,113.13369
1.3680665,113.151276
1.4810927,112.614456
1.5857592,119.31007
1.6538218,117.581314
1.6033452,120.84579
1.6552486,120.59862
1.67838,123.26631
1.6741269,128.32655
1.8062122,129.08025
1.6811023,129.25452
1.739943,127.14643
1.7657524,132.01418
1.6439847,129.0803
1.7649165,129.06516
1.8377622,129.7041
1.7812346,130.2041
1.7509569,129.74092
1.6005527,133.21938
1.7023383,128.7183
1.6376567,131.4876
1.667857,129.23563
1.5959127,130.51953
1.661823,123.81525
1.6052095,127.38036
1.4351001,123.6857
1.5426825,125.29154
1.5394948,124.16539
1.4678316,119.77222
1.4541019,119.311935
1.3350241,118.81734
1.4324546,115.82123
1.3792188,116.08338
1.4540999,113.37376
1.408832,113.33024
1.351702,110.63814
1.398121,109.60676
1.3740046,108.80307
1.2427778,108.18054
1.2346742,107.63131
1.2994744,105.08727
1.2433447,102.79201
1.2448511,101.37174
1.2909636,101.721466
1.1268835,100.04014
1.1680499,96.650314
1.0989528,95.675606
1.1761854,95.99987
0.93486273,92.543396
1.0284106,89.55446
0.87839663,90.525055
0.92204195,88.363976
0.82846373,81.47458
0.7762459,83.67909
0.8714317,85.287
0.87173694,84.35114
0.84134144,80.6769
0.8929978,79.26205
0.97276205,80.51791
0.9007855,78.54249
0.8166767,78.24
0.89902025,74.05373
0.8151469,75.58371
0.74869955,71.24352
0.9464153,77.23527
0.74345213,73.93445
0.8247604,71.38965
0.8107373,73.02987
0.6645496,74.79881
0.67670536,74.42354
0.62904197,73.90367
0.6362295,74.50598
0.57889736,75.980705
0.52606326,75.112656
0.60206413,78.47833
0.53285074,76.48599
0.578012,79.86389
0.51327133,83.61862
0.5947583,79.11904
0.7660553,84.134415
0.7012315,84.27327
0.855462,91.82055
0.944832,92.57617
1.0550567,98.35066
1.1667203,96.12922
1.0857,98.02101
1.4400216,102.121544
1.475719,103.73483
1.448672,108.74969
1.5744092,106.81297
1.5758929,108.68242
1.8372483,111.96933
1.8105621,116.80562
1.7871908,116.71076
1.9062508,121.768196
1.9885455,124.20599
1.8506485,123.53948
2.0272908,124.567726
1.9848559,125.09384
1.9197283,127.52219
1.8632263,128.5057
2.047433,127.09781
1.9210111,129.31863
1.9109167,130.89066
1.9345627,132.7585
1.9316592,133.02318
1.8627789,131.93315
1.8320999,128.17767
1.9161772,128.20392
1.8066746,125.34096
1.8379824,128.14293
1.7636939,128.24944
1.6904987,127.334724
1.703845,127.046555
1.7082533,122.95843
1.6068549,122.99644
1.5036511,123.57878
1.5590136,117.20435
1.6279415,117.080734
1.587074,117.013405
1.5829968,116.09172
1.5236722,113.34169
1.6051471,117.551575
1.5223694,114.24416
1.3462423,112.36223
1.4710509,108.16148
1.550833,104.16094
1.46953,105.102325
1.3576928,106.5556
1.3936665,105.190926
1.3647935,100.32282
1.2518721,100.33835
1.2316666,100.59727
1.3106943,98.10938
1.2129682,95.26793
1.0789771,96.56301
1.1431091,91.39519
1.1298248,91.061165
1.0382353,92.96615
1.1976404,88.65479
0.97720265,87.766945
0.92475724,89.80608
0.9955801,86.44564
0.975142,83.04543
0.91386044,84.94992
0.90086955,80.38281
0.9517088,79.33518
0.92076427,78.05827
0.8391268,73.26475
0.81160647,78.939064
0.9279059,77.48951
0.8006375,74.36821
0.9138542,69.810745
0.70818955,73.681046
0.7548753,76.15419
0.7151427,72.66298
0.6403303,70.36255
0.6347469,73.82085
0.5401558,72.700836
0.5068327,73.03486
0.5088221,73.91811
0.5365959,72.157715
0.42428082,75.90351
0.3779437,74.54257
0.58742553,75.75792
0.4090417,77.77296
0.5117835,77.544136
0.5793366,83.06238
0.6777582,80.80403
0.68979234,86.66723
0.7635052,91.58351
0.8202091,94.757965
1.0061815,91.7165
0.93046856,97.385994
0.989917,94.59714
1.221312,99.562386
1.2643123,105.01452
1.3479277,106.44952
1.4678767,107.4021
1.5955632,109.88617
1.5747524,112.32817
1.6243136,115.958755
1.7212389,117.82483
1.6626002,118.86283
1.6630257,120.982
1.6767372,127.52256
1.7669551,124.42177
1.9046482,128.34213
1.7921866,127.734695
1.7150927,128.69824
1.7476491,127.43171
1.7994369,131.27902
1.738841,129.38165
1.7949334,131.16443
1.7314428,130.26128
1.7732223,131.90738
1.758203,130.68344
1.7156087,130.7654
1.6130338,131.95181
1.6375341,131.03442
1.5988318,127.03131
1.5380037,127.962616
1.5936774,126.3344
1.4387193,124.06802
1.4933472,123.50022
1.4082494,123.35421
1.367372,119.36613
1.3536185,119.92367
1.4459243,117.16779
1.1985161,117.728836
1.3106298,119.29591
1.315654,114.58946
1.2625499,113.153435
1.2783803,112.49956
1.276833,109.123085
1.2370663,110.25922
1.2153473,109.88883
1.2662483,105.799644
1.12233,105.02414
1.0990628,105.19324
1.0919291,99.149025
1.0712492,102.593506
0.99236536,99.99123
0.9838225,95.50593
0.98553133,95.26595
0.78484106,94.94288
0.8526074,91.804634
0.82187366,90.03421
0.72507066,88.0445
0.7283912,91.41401
0.73000616,88.568115
0.63070816,83.47164
0.672726,88.42325
0.47100842,84.53142
0.5922161,82.437325
0.6214784,83.017006
0.57849973,82.88277
0.5818859,76.65069
0.5413272,77.87245
0.59374917,75.87173
0.52074987,75.1898
0.6177281,74.70205
0.48671788,72.08467
0.48773986,76.49415
0.4556572,75.12372
0.3908841,71.51886
0.4294747,71.91453
0.4291571,72.39478
0.21833768,71.67173
0.19924141,71.74057
0.15782738,73.37441
0.08977119,75.99178
0.25654688,78.101944
0.16711034,77.04864
0.13657402,78.42421
0.14229247,77.66333
0.21967317,82.849236
0.21397854,81.62156
0.37751517,84.68976
0.45181525,88.73895
0.54365057,88.65587
0.5334875,91.890236
0.6817171,94.61457
0.8140618,97.659134
0.7759339,98.659676
0.96938676,105.198235
1.0304116,107.47984
1.0724157,107.9921
1.1741904,109.54697
1.2065818,112.742744
1.225614,114.37533
1.3536192,117.7486
1.4237957,120.28628
1.3631289,122.271706
1.3478354,119.572266
1.3725212,125.40721
1.4998027,122.015884
1.4118007,129.49261
1.427608,129.77628
1.542017,131.64459
1.557251,130.23872
1.5132765,130.9684
1.507498,131.579
1.4922452,132.19673
1.4609433,130.56166
1.4330239,130.31381
1.3717331,131.7757
1.4323089,130.84613
1.250316,130.01662
1.2943968,128.33612
1.3019627,127.2949
1.2566572,124.910095
1.1862051,126.008804
1.1357507,121.4281
1.0980624,121.70971
1.1234266,118.957306
1.0767034,120.595215
1.1515222,118.549484
0.89159495,117.22201
1.0578392,116.45125
1.0055498,115.06104
1.0902718,116.94488
0.9247826,110.49754
0.9489116,110.90952
0.9197056,111.00213
0.92312634,110.62988
0.9992031,104.48213
0.89360803,104.46507
0.828919,104.360504
0.7119109,101.54153
0.72896993,100.36
0.85640603,99.02726
0.69980747,96.53543
0.658125,98.648964
0.62008893,95.976616
0.49606606,91.29269
0.5049875,91.6948
0.37311494,92.059105
0.49912238,91.953
0.38083744,87.82896
0.4112078,88.769684
0.38623548,83.91844
0.39906445,85.06003
0.3893795,81.818954
0.3820085,78.59144
0.42244256,81.92031
0.31997266,80.79635
0.32658082,83.63828
0.26923236,76.78589
0.26837912,78.81376
0.30240074,73.03388
0.22114353,76.76474
0.27958554,73.451546
0.2526887,73.73414
0.2565468,72.133194
0.16700393,69.10798
0.124068834,74.465355
0.085267894,71.97846
-0.009968208,71.797
-0.034630384,72.52598
-0.01119033,74.61277
0.056084976,74.47057
-0.057313256,78.1473
-0.0636101,79.51777
0.056930985,78.40588
-0.025470521,82.05529
0.093874454,80.69787
0.18902653,86.45701
0.2595934,85.60009
0.35861316,87.559135
0.4021446,92.16577
0.48316294,93.93063
0.47896022,96.559944
0.7012167,99.546326
0.663336,104.90708
0.9010528,103.50091
0.8370908,109.54257
1.0397713,107.03633
0.96057266,112.83391
1.1473528,115.418625
1.3251994,118.17877
1.2985,122.25381
1.2331595,122.67097
1.3578123,127.06855
1.3591357,117.91949
1.3785002,125.64215
1.2996339,124.38597
1.357014,126.72352
1.3895884,131.03632
1.4247092,129.04602
1.4975215,127.62509
1.2566563,127.83379
1.4051493,131.9365
1.283512,132.71342
1.3603362,133.27538
1.3176132,129.33698
1.1605271,130.85251
1.2265573,126.289375
1.2166699,126.44961
1.127594,126.232704
1.2477576,125.73858
1.1523017,124.40668
1.1268814,123.31127
1.0395391,122.29401
1.0991036,124.16258
0.9961066,119.4274
0.93550414,117.4732
0.97516876,115.27045
0.88625884,116.891815
0.9574649,113.136505
0.97194254,113.606606
0.99370307,111.60448
0.9308662,112.87929
0.930308,109.9914
0.8673456,111.45267
0.97440076,109.74215
0.90215224,107.624374
0.915088,103.07083
0.7796358,98.54037
0.7378325,97.99466
0.7112243,98.270546
0.7161916,98.21435
0.693103,96.70305
0.6843635,96.556175
0.45518416,95.87243
0.5854574,90.689865
0.46144587,92.13403
0.5736059,89.49395
0.47443402,89.426445
0.40293452,89.47155
0.40465996,84.82415
0.58106667,85.88342
0.30707404,82.51933
0.48302996,82.79358
0.38185713,81.50862
0.3816317,75.91824
0.34274715,74.83652
0.4629407,75.67118
0.32620576,76.94539
0.46928293,73.40706
0.35775462,75.79932
0.28896856,75.90559
0.347061,75.59892
0.25295538,77.441765
0.20875834,76.21491
0.2296804,72.42749
0.22408825,72.32271
0.17630315,70.11173
0.09255857,73.54549
0.19436792,72.50586
0.017758919,75.465866
0.1391072,74.93442
0.0802755,78.55367
0.021906525,75.52669
0.16712749,82.052025
0.18396857,82.53498
0.34309778,84.3382
0.32923505,84.61296
0.5452823,89.175415
0.4911674,89.80539
0.56928146,91.18496
0.66594595,95.86928
0.7058563,99.54375
0.88273954,101.88604
1.0896058,102.827675
1.1178436,105.040215
1.2312032,107.469406
1.2799752,110.54356
1.3439746,114.40129
1.3833884,116.73095
1.2874217,117.843704
1.4349823,118.975525
1.4664315,119.63805
1.5702051,125.11612
1.5127307,126.55426
1.6190901,127.04067
1.6028559,127.72748
1.680236,127.01248
1.5979345,125.56647
1.5718579,127.2381
1.6562742,130.11703
1.5552138,128.81876
1.5483564,132.35632
1.5854204,131.18852
1.629498,128.29243
1.5510306,131.88577
1.5023714,129.48647
1.4543815,129.87097
1.4429231,128.12477
1.4097625,129.61174
1.4308217,126.83247
1.3197291,123.61913
1.376181,124.68166
1.2715603,121.87083
1.2375349,122.40264
1.314068,119.01666
1.2733684,115.80602
1.288433,116.22906
1.2215296,114.619705
1.2603613,116.277626
1.16651,114.817665
1.160347,112.20194
1.1396767,112.73813
1.1582401,107.756485
1.217517,107.49265
1.2017788,104.386284
1.1376183,103.9978
1.1265593,102.6904
1.0435075,102.33198
1.1736453,99.272255
0.99363995,99.547516
0.95005995,99.369896
0.85611653,97.99814
0.9219135,94.78339
0.8596086,94.57577
0.7974312,93.761696
0.7146421,92.924706
0.71272075,91.86584
0.7250806,86.195625
0.75702614,84.11336
0.6895813,82.44558
0.6886666,81.15547
0.72327286,81.65717
0.75394,84.71034
0.7845304,81.365944
0.6905083,76.96106
0.7116261,78.473915
0.77186126,77.12916
0.7711389,77.42495
0.76028585,74.54669
0.6490593,74.8344
0.60497236,72.78495
0.65330267,72.65509
0.5812684,70.62718
0.50084424,74.266975
0.48784283,72.920685
0.48026133,69.59219
0.48520616,74.66593
0.41892126,71.66016
0.3693751,77.63767
0.46097004,73.804016
0.50922924,75.868675
0.4720778,79.59483
0.47931328,81.88057
0.44244948,84.714066
0.5528066,84.701836
0.5493378,88.70679
0.7281755,89.23208
0.84248716,95.408806
0.849801,91.58879
0.8531224,94.22168
0.98700225,97.473724
1.0327712,100.825615
1.2972828,102.87852
1.3954235,103.41887
1.3786898,105.74573
1.5040463,110.10994
1.4892106,112.85356
1.6736162,118.24223
1.7667111,114.66813
1.8031003,119.074234
1.8643264,121.19324
1.7230612,122.02971
1.8113496,128.70155
1.9147593,124.544624
1.7722188,130.85683
1.9202505,126.76979
1.9648714,130.82716
1.9145927,128.86966
1.7612339,133.39928
1.8876526,131.58159
1.8170772,129.57178
1.8253837,132.36456
1.8957598,133.16484
1.8228315,130.93079
1.745233,129.37271
1.9208041,127.52395
1.7008879,128.6662
1.7428133,128.98842
1.6989954,124.14851
1.6224892,125.94594
1.6421573,123.21033
1.6191298,124.0044
1.512723,122.38983
1.5929117,123.45868
1.5446169,120.98108
1.4645859,119.40125
1.6198463,116.3949
1.4538281,115.2997
1.4746149,109.40692
1.4423674,112.83034
1.5314744,113.422
1.5567774,110.23351
1.4209831,106.97651
1.5140147,109.32835
1.4496205,103.40085
1.3004621,103.641495
1.283736,103.260605
1.2352982,101.85947
1.1275048,98.63621
1.3318433,99.51616
1.1361203,97.08926
1.1565511,92.14809
1.0554866,92.35329
1.0248674,95.93538
1.0229046,87.08341
0.942328,89.66977
1.0155479,88.181366
0.95873475,87.90938
1.0180746,86.89028
0.8600078,82.286446
0.89330345,82.14375
0.98783594,82.256996
0.95638967,79.67364
0.89247686,76.49084
0.92395043,78.49189
1.0018917,74.27764
0.86147714,75.95421
0.9903034,73.299614
0.90356976,75.53758
0.7724267,73.91052
0.64590704,73.80054
0.7057218,72.18793
0.6923336,76.34505
0.6935813,72.1078
0.65520316,71.57365
0.60971344,71.93973
0.6479951,72.429344
0.55901337,76.574776
0.4673457,75.39541
0.43367425,74.16202
0.4725211,76.47377
0.6037141,77.803894
0.67811376,77.68518
0.7122554,81.15024
0.63750577,86.8103
0.7929616,88.275375
0.9583268,91.66983
0.9495386,93.67465
1.2096498,97.74171
1.18745,98.13441
1.2940363,98.47649
1.3405801,103.17029
1.4242783,105.99463
1.4441949,108.28334
1.5056716,111.91777
1.7642694,110.3957
1.743197,115.49408
1.8237234,114.777725
1.7665668,119.030846
1.9147757,122.37879
1.8745924,122.51274
1.9608324,125.92584
1.8756758,123.63892
1.984661,128.56154
1.8875569,125.84084
2.0414672,128.23334
1.9027925,129.11124
1.9322661,130.84862
1.7967858,129.49022
1.9343047,130.3844
1.8845906,130.18001
1.9176388,128.9446
1.8392434,130.68343
1.8176472,132.76378
1.7279139,131.80283
1.6638076,127.01721
1.8126738,124.65847
1.6663737,124.27125
1.5851772,126.17232
1.5749966,125.287415
1.5961034,124.30428
1.5698801,123.03227
1.4211593,119.03063
1.5470204,115.41938
1.4225335,117.05558
1.5104882,116.37637
1.5023359,114.48832
1.5206105,110.85096
1.4656867,114.214035
1.396392,110.53095
1.3154109,107.8653
1.3533838,107.45728
1.4480534,107.568565
1.2504177,108.46606
1.3466128,102.97996
1.4182352,105.19128
1.188616,99.06568
1.2269051,102.6694
1.1323098,96.80059
1.095704,100.17597
0.9811234,94.7954
1.0235056,93.00469
0.9797404,94.05255
1.0654427,90.4795
0.8806523,91.46228
0.9122362,88.476135
0.8110574,84.77424
0.9083146,83.97613
0.8775363,86.08297
0.8399065,80.63964
0.8118872,78.48637
0.8029348,79.39156
0.8562539,77.56473
0.9215551,75.97576
0.74158305,77.76445
0.80826086,75.30472
0.78061295,74.032585
0.7842795,75.81988
0.7394289,76.964584
0.61692667,73.06022
0.5657416,72.91593
0.5937733,73.66607
0.5988173,75.21567
0.5331465,74.92007
0.4084201,69.993996
0.43074295,72.87411
0.33907893,75.0262
0.3369008,73.38534
0.46978396,75.868034
0.34334594,77.36729
0.40997842,79.90287
0.4954973,81.84733
0.48605978,82.96827
0.53614295,86.50916
0.6525901,85.53854
0.59574366,90.91412
0.74391335,91.27596
0.7939343,95.83688
1.0307941,98.106064
0.99336976,98.77724
1.103159,101.06519
1.1867384,106.39367
1.2615978,107.00005
1.4079516,108.97567
1.3998471,111.92612
1.5403353,111.40113
1.5835198,114.196785
1.5265479,116.650246
1.6456528,114.81857
1.6904688,122.85956
1.6209005,124.80453
1.7449878,126.66209
1.5995971,125.657234
1.7662183,128.48663
1.7115964,131.29665
1.6577023,127.7813
1.6434691,130.8118
1.6947993,127.35061
1.641679,129.26898
1.6126807,129.74721
1.6407299,128.20027
1.6125637,128.83281
1.5244902,129.26552
1.5549328,132.38293
1.5090293,129.61798
1.519108,129.56088
1.4173188,125.21551
1.3995568,123.970764
1.3653668,121.54251
1.3050958,122.825294
1.319837,122.81776
1.2190026,121.234764
1.2923319,117.4325
1.155446,120.00364
1.2217318,114.68161
1.1442871,115.22348
1.0827836,112.990456
1.0965357,113.17287
1.2207539,110.440384
1.2044111,110.77473
1.1489096,106.66322
1.065603,104.13332
1.0647823,109.43971
1.0350035,103.06365
1.0176047,103.39394
0.8955188,100.50056
0.9122552,99.06538
0.78658587,99.111694
0.8274356,97.220795
0.7457375,97.173775
0.82338965,95.52578
0.6955856,94.53145
0.59669113,91.99705
0.5617976,88.72551
0.58999133,86.10926
0.5107888,85.692856
0.4660999,87.549446
0.40571466,84.57467
0.50645715,81.761375
0.44580102,82.71966
0.51628286,82.879486
0.5062219,80.99896
0.5107989,79.74993
0.46380386,75.7413
0.45681557,73.489876
0.39968303,74.72474
0.34900987,74.026
0.32959586,74.37846
0.36887938,76.40124
0.41467255,72.21937
0.23283628,71.82188
0.2067644,73.70196
0.30822757,73.980576
0.20792903,76.11896
0.059980948,73.21762
-0.086995184,73.36414
0.06975323,73.4694
-0.07515137,77.74765
0.04560045,74.26445
-0.0035747678,76.620895
0.040170442,83.32421
0.1189967,84.66985
0.14464219,81.87412
0.31983697,84.80619
0.32852727,87.27059
0.31925857,93.21407
0.5861109,90.7383
0.5244565,93.88586
0.6263991,98.12128
0.76920664,99.83842
0.8707614,103.33208
0.97442985,104.85598
1.040576,111.45026
1.1228138,109.328445
1.1090549,112.926384
1.0597612,114.82808
1.2092664,114.96225
1.412699,116.47714
1.3705387,122.159256
1.3845445,125.71402
1.4644943,126.80326
1.325285,125.43887
1.3239831,128.05757
1.4229538,127.947754
1.3724936,130.38387
1.4424375,133.1316
1.4335591,130.0097
1.2169558,128.91565
1.3446305,127.57582
1.4040508,131.292
1.411039,126.07657
1.2678117,129.47018
1.2684121,131.46384
1.2159407,131.77045
1.2878022,128.12643
1.1275656,125.9405
1.1049942,125.99306
1.032431,124.34167
1.1333821,122.095894
0.9525991,120.21702
0.944067,121.81423
0.9782653,121.63281
0.9426456,118.131744
0.976009,114.015114
0.937264,113.773445
0.8505846,115.61117
0.97796863,111.3191
0.96990234,111.89128
0.9064003,110.46335
0.82940704,106.284294
0.8848717,107.04839
0.9010641,105.320045
0.7853715,106.67119
0.831592,103.063965
0.69782877,100.59342
0.84855556,98.84695
0.5820538,99.19354
0.5773732,99.06583
0.6571017,95.811264
0.5062792,92.64626
0.4706775,93.02313
0.438272,91.568184
0.4370521,91.564896
0.45367235,88.32587
0.41013706,87.106224
0.42807037,85.33693
0.34299105,84.17434
0.31356645,82.61079
0.23564294,84.1655
0.32183072,81.56105
0.24762148,83.64256
0.25063965,78.498245
0.32241887,77.839905
0.36094454,76.26211
0.22112045,76.436745
0.30171627,76.130646
0.2460015,73.73919
0.23353323,73.28366
0.25482032,75.60136
0.13591136,73.05019
0.21690577,74.245865
0.06711251,72.829994
0.15686312,71.03646
-0.0055326917,71.2911
-0.09957453,75.16335
-0.059897378,75.433426
0.038583025,72.82458
0.15399419,76.334206
-0.046882566,80.901566
0.029965015,79.38583
0.1479633,81.67583
0.05639064,82.9177
0.2022369,85.56509
0.22508395,89.88819
0.28873453,89.353165
0.25672597,91.64784
0.6060996,92.400795
0.6704348,95.52486
0.7089255,102.18558
0.7267417,102.55663
0.894438,104.811615
0.95362896,106.51038
1.0586525,109.43192
1.1293721,112.737976
1.161708,116.88121
1.2413461,118.96955
1.2484949,116.400345
1.3805721,122.963356
1.3679978,122.315895
1.3404042,124.14749
1.3757406,125.609695
1.4159617,127.20512
1.470652,129.49693
1.3723258,130.7402
1.3983672,129.72888
1.4429802,128.41325
1.4848622,129.89812
1.3130748,128.1403
1.3263787,129.88461
1.4608095,133.60507
1.4343551,128.18741
1.36868,128.01712
1.3530209,131.55707
1.1411709,127.688
1.2463504,125.63137
1.1522542,125.89173
1.181414,126.91646
1.0975055,122.00991
1.2769006,118.044754
1.1778711,123.88885
1.094069,121.05003
1.1316459,121.115906
1.0217276,116.93995
1.030898,116.93816
1.016447,114.334694
1.118941,112.49641
1.0653532,111.55475
0.90140766,110.154915
0.9935596,111.31675
0.87802225,108.74786
1.0550331,105.389275
0.994645,104.39351
0.89791626,102.167274
0.9496545,99.929306
0.9187864,101.768555
0.85400975,100.51082
0.8784225,100.84741
0.79724526,96.67848
0.76750004,94.07449
0.65473056,94.27224
0.68424845,94.32642
0.6150519,91.380196
0.60917485,90.7572
0.4890903,85.64542
0.4841377,82.81954
0.6054387,85.089165
0.56242645,83.532295
0.5149924,82.677986
0.5389987,83.95749
0.612464,82.00383
0.46426898,81.543175
0.5991931,77.7375
0.5670201,80.0572
0.4564793,74.8212
0.48825008,74.1806
0.5251942,72.794426
0.41205606,72.94345
0.3343035,74.65719
0.38484207,70.173
0.44514453,70.66132
0.36757752,71.42848
0.3085994,71.1852
0.3439627,73.3636
0.24735019,71.9203
0.18596563,76.72355
0.1667083,75.29632
0.14029701,77.21095
0.305586,81.07446
0.1886748,81.87921
0.31212452,81.249466
0.30199936,83.91313
0.459859,82.99263
0.48596555,85.74078
0.52509606,87.82299
0.71969575,90.63404
0.7312744,96.59112
0.78548646,96.72684
0.9685945,102.66199
1.0497633,100.95356
1.0755332,102.29859
1.2245127,106.819115
1.3182467,110.36966
1.3981326,113.22022
1.3787128,114.063675
1.5060389,116.50578
1.4863104,121.211784
1.5749831,119.20979
1.5987778,123.54612
1.6840146,123.284386
1.7502128,127.85954
1.6581639,125.486275
1.6912767,127.21669
1.68501,128.97435
1.7712401,130.57204
1.8275268,130.72688
1.731826,133.76505
1.6225091,130.3938
1.666222,132.34303
1.6122167,130.95148
1.7127274,130.65384
1.6372769,129.74718
1.7144774,129.85524
1.512214,129.30414
1.5687296,128.69508
1.5111303,125.71954
1.5029107,123.82407
1.496206,123.18727
1.4678069,127.26127
1.4613918,121.617004
1.389766,121.023384
1.3602109,120.95235
1.4161025,119.38421
1.3489203,112.079445
1.3976638,116.28518
1.383747,112.734764
1.3629086,110.14612
1.4414147,109.860374
1.2524066,109.75559
1.3293264,109.243965
1.3223584,108.72923
1.2467918,102.725784
1.4211448,101.22805
1.2655287,101.81792
1.2001238,105.418304
1.1171988,102.442314
1.0394152,100.04
1.0950894,98.74594
0.9333647,94.47962
0.9345764,90.8111
0.9470976,91.80705
0.9356128,90.375725
0.83711225,87.76737
0.94343185,88.44647
0.85537463,89.90114
0.8086747,85.50954
0.92805415,83.50687
0.92276955,80.4905
0.892815,83.110176
0.87268686,81.38164
0.82321334,78.933914
0.8721557,80.55178
0.9173248,77.361244
0.8611637,76.70939
0.88307065,77.948364
0.7268265,76.832214
0.7684582,72.99227
0.60879874,74.350624
0.7516847,74.88985
0.7385447,70.69623
0.6008301,72.81928
0.66294235,72.00021
0.61886793,73.50884
0.5810699,73.33466
0.4781669,71.23419
0.49312025,75.29356
0.5495657,77.95491
0.5291782,76.57759
0.4329154,79.72409
0.6944249,80.49141
0.72609735,83.36342
0.7391572,80.61075
0.7333216,86.75339
0.76057154,87.67868
0.91466755,92.73047
1.1135322,93.70635
1.0547537,95.53537
1.17399,96.162636
1.2537367,103.266014
1.4403718,103.13844
1.4424098,106.158295
1.5128882,105.01181
1.6416801,111.87707
1.7118157,112.81585
1.7135504,112.89889
1.7788669,117.124886
1.85103,118.63278
1.9032902,123.09055
1.8842317,123.64355
1.7745626,124.88614
2.0023224,127.79799
1.9979957,124.9999
2.0616226,129.10521
1.9371487,129.38622
1.9356809,129.94131
2.0563147,129.18166
1.9297014,132.84279
1.9871058,130.8902
1.8731793,129.52217
1.936223,128.927
1.8943273,129.58682
1.8323424,127.626884
1.8208312,129.08536
1.7509488,127.051636
1.7432779,127.90427
1.7097951,124.56846
1.700517,126.82062
1.6661814,123.509636
1.6484051,124.296425
1.6285843,123.6462
1.6123217,120.93488
1.6297644,119.77779
1.6042128,115.820526
1.4427897,113.60559
1.4941858,115.19669
1.509087,113.07136
1.4769635,111.42666
1.5856678,110.90135
1.4374532,109.51448
1.5142493,106.95013
1.3472292,107.324234
1.330534,103.870285
1.4551167,102.257164
1.3136147,103.454926
1.3319948,98.28619
1.1689005,95.76632
1.1863035,97.23385
1.395985,94.19607
1.127439,92.10445
1.0464938,92.7163
0.9825451,91.110374
0.92092013,91.890015
0.930403,86.657005
0.9176154,85.47926
1.0399424,89.400505
0.95564574,85.04485
0.91200256,87.65439
0.7938021,82.07765
0.9102812,82.43376
0.96912646,78.69219
1.0226618,78.24253
0.9557409,78.84829
0.8383875,78.51106
0.913441,75.11496
0.8848893,73.87406
0.8236547,76.456566
0.8565957,75.510315
0.8736517,74.12938
0.6896391,72.02426
0.6630984,68.20152
0.6706432,72.60642
0.59781176,75.48626
0.6314676,71.59746
0.56560683,73.68654
0.5431885,72.79886
0.50488764,75.30688
0.5456892,78.82995
0.47751296,77.67624
0.58500695,75.38492
0.66227156,81.757576
0.61920977,85.42285
0.6985625,86.58648
0.74017173,86.60945
0.90486175,87.51927
1.0090487,95.10111
1.0912721,93.51298
1.1198208,97.15052
1.2563146,102.428024
1.2686582,105.206375
1.4729124,106.87678
1.4682382,108.9616
1.5391203,107.31874
1.5500573,114.93207
1.7006756,113.23501
1.7351125,119.58773
1.793014,119.12828
1.785945,122.526115
1.876515,122.442795
1.8677063,124.771996
1.7828751,124.890076
1.8461918,127.48021
1.9068342,128.47098
1.8694285,132.60413
1.9050874,128.17368
1.8257715,129.97736
1.7313075,128.73851
1.8582379,131.71382
1.8755405,130.36809
1.7502853,130.74908
1.8774115,128.99112
1.7161347,130.93527
1.762063,131.10542
1.5686287,129.36702
1.6513805,126.94852
1.6433376,124.856285
1.4185518,120.82012
1.5335431,123.35894
1.3808752,122.22168
1.4185909,121.96208
1.2981917,122.27929
1.4260439,115.75243
1.4052404,116.83586
1.3788399,116.95863
1.2877,110.96746
1.2872168,111.5966
1.2493539,111.759476
1.2511007,109.00189
1.2642797,109.80027
1.3367981,108.122475
1.2804945,108.46905
1.3074105,104.21122
1.197248,102.637344
1.1044791,102.297775
1.2519494,101.09209
1.070242,100.25944
1.016982,99.185936
0.96599674,98.988266
0.9399452,97.29299
0.9340796,95.13807
0.9829807,91.79315
0.88927937,93.4666
0.72175026,89.75595
0.70042145,86.166084
0.6197848,86.89753
0.68124187,84.21973
0.7758807,78.044815
0.60465986,81.67025
0.7340824,80.61501
0.65810484,79.027596
0.6001789,75.950134
0.6442852,78.874374
0.6029062,76.65126
0.48334953,74.6883
0.7025643,74.2535
0.6805162,73.68435
0.5771079,71.88234
0.50493973,72.96704
0.50061756,71.76335
0.35678577,72.78908
0.4489441,72.80167
0.3239686,71.41073
0.27921736,75.108696
0.3159272,71.3463
0.24626301,76.248146
0.20133695,76.2644
0.25054103,76.83475
0.22803761,80.670906
0.23837702,81.03576
0.2961014,81.27002
0.38210616,84.58839
0.36993602,85.66877
0.48510197,89.15672
0.59397596,86.35129
0.67514145,90.46603
0.69121236,93.78724
0.84319955,95.89201
0.9083483,97.70168
0.9899005,104.286736
1.049509,106.02423
1.1024472,106.505196
1.2605175,109.544624
1.318068,109.440605
1.3288113,114.3719
1.4708691,119.61925
1.4433144,117.796425
1.4917103,119.05335
1.4727204,123.99756
1.5578549,123.86161
1.5546696,127.29456
1.6000787,126.806435
1.5499035,128.29213
1.5010327,128.08766
1.5217423,128.17392
1.5290772,130.24324
1.6140307,130.63873
1.5410029,133.49002
1.4537086,129.74522
1.3922337,131.14493
1.465652,130.70023
1.4714606,129.42558
1.4739233,128.03061
1.395337,126.43775
1.4084351,128.5383
1.2559718,125.21173
1.1497766,126.9885
1.1301405,120.97189
1.2100298,124.979675
1.1877854,117.24584
1.1761744,122.81637
1.2801087,117.30049
1.1245927,117.746895
1.014541,113.23804
0.9950761,113.46629
1.0355642,109.76859
0.980091,115.452614
1.0023959,107.24803
1.0173463,108.01264
0.9550273,107.11524
0.92186505,109.748344
0.9460708,108.016075
0.8554587,103.75058
0.89492595,105.74273
0.7803243,103.01711
0.87747014,99.898224
0.71888393,95.00002
0.7207989,96.21781
0.49306267,93.74961
0.61808926,95.29875
0.55234724,92.66594
0.49186358,91.17556
0.4782379,91.98415
0.4320727,89.22633
0.4293716,87.74002
0.37147713,84.61112
0.33929935,87.51843
0.5317407,82.480316
0.42925406,83.277054
0.3837507,84.341515
0.33252707,81.152466
0.3691057,77.18962
0.32038614,78.943565
0.4926073,75.10108
0.3728448,73.98914
0.37817672,74.50057
0.38895354,76.724976
0.17124581,74.64722
0.19830719,73.10438
0.18979867,70.86699
0.16747832,69.02484
0.1882053,71.32504
0.0796261,72.15128
-0.094348386,73.8603
0.03699708,74.58601
0.09024701,75.96696
-0.09199658,75.86472
0.06057156,75.805565
0.039987538,80.25802
0.06594814,82.15286
0.049171865,80.631676
0.18265629,84.01877
0.22715822,89.389725
0.3061472,88.25457
0.27115104,87.65911
0.5223184,96.525665
0.5830038,99.498795
0.59018576,98.27847
0.7146434,100.614044
0.88027495,105.33905
0.9401066,107.778885
1.0414529,109.918144
1.036288,110.127235
1.1181262,112.41931
1.2228777,117.04238
1.23707,118.7926
1.0936152,119.74773
1.3002504,124.65856
1.3946687,125.05858
1.3569438,126.35782
1.3933761,124.51036
1.3831897,128.45099
1.3878227,126.90312
1.2610749,132.16464
1.319846,130.88309
1.3959948,131.93051
1.2926584,130.40628
1.2734019,126.64877
1.3607953,132.92162
1.3570789,133.26346
1.2472336,129.09454
1.1871936,128.67601
1.2007853,129.01515
1.2026011,128.26465
1.0892673,127.50373
1.0519269,128.12172
1.0661733,126.91341
1.0096129,122.257385
0.9770816,122.689545
0.9987091,117.50018
0.9432255,118.50961
0.9263415,118.24505
1.0053906,119.78562
0.91636693,117.54097
0.9270266,112.98414
0.79350466,110.105446
0.8117171,113.38358
0.8981443,112.90073
0.80521965,107.70199
0.8705225,105.82968
0.83009064,107.29299
0.7665203,103.74474
0.70722115,106.15429
0.78978693,100.11262
0.7125654,102.10115
0.6421267,95.581276
0.6490109,98.94539
0.5951372,94.283485
0.5447599,93.991455
0.5379441,91.99019
0.38346723,90.63453
0.3802186,91.79141
0.4920706,84.82838
0.288402,84.083954
0.39041483,84.76597
0.31876233,84.37602
0.48830646,83.62477
0.4222731,78.40158
0.33314776,83.04473
0.35281172,77.49987
0.43100092,78.0923
0.33167532,76.675995
0.49498624,77.38103
0.40064794,75.983925
0.28943253,74.78501
0.23847285,69.37794
0.32645276,74.62632
0.18629101,71.055016
0.24224968,73.63963
0.17593431,71.22415
0.2977636,73.1239
0.19409096,73.470276
0.18859702,72.24309
0.10022498,75.046974
-0.035916958,72.993004
0.004320292,76.71846
0.04358452,75.22751
0.057131983,79.89555
0.082461186,78.47354
0.04591728,84.53949
0.19839163,88.639015
0.27396896,85.76208
0.33729845,91.85634
0.4214296,89.4462
0.5405761,92.40254
0.6155235,98.24842
0.7137851,97.105125
0.85259396,103.64217
0.8958812,102.78099
0.97896314,105.01058
1.1328453,105.69014
1.1640916,110.63246
1.3340955,111.25713
1.2177547,116.01511
1.2977483,119.930466
1.3630943,120.104385
1.4358048,120.265465
1.3651506,123.41215
1.4848365,124.43527
1.4589592,126.643585
1.5001792,126.36194
1.6258811,131.51428
1.6008179,127.83488
1.5373969,130.53232
1.3570112,130.12425
1.5319308,128.06386
1.5911438,130.99617
1.3861866,129.75476
1.4785515,131.97168
1.5660951,128.84312
1.3622373,128.08275
1.4420273,130.95992
1.349938,131.94592
1.3143361,125.385414
1.2658118,129.14626
1.3352209,122.677765
1.3498249,123.09175
1.262657,123.01302
1.2281483,122.450226
1.1866157,122.85008
1.2609558,120.8066
1.2001433,116.57716
1.2524474,112.202255
1.1064882,110.14538
1.1554089,115.40523
1.2305504,111.67468
1.1869632,112.25583
1.1178238,109.13343
1.1646322,101.877884
1.1198252,107.16361
0.90597266,102.76083
0.9799197,101.972916
0.92445815,103.17468
1.0458492,102.99253
0.975725,103.26704
0.8333565,99.48813
0.91917944,95.73017
0.8423856,96.70989
0.81089574,93.55601
0.8224266,94.95218
0.8204107,90.222084
0.7159737,85.76292
0.76062334,86.720184
0.6645218,85.5755
0.6869527,86.26446
0.6383865,83.46068
0.6174534,83.732
0.785807,78.696846
0.69510245,77.84094
0.6837709,78.296425
0.6312069,77.077736
0.6060008,73.82969
0.6008195,76.14157
0.66941166,76.99715
0.6667803,73.0767
0.700878,73.489784
0.5740539,74.39836
0.5490014,72.89447
0.46127522,76.84485
0.5219305,71.58593
0.3629711,69.89275
0.416823,72.77225
0.33510584,73.68241
0.30910835,73.729485
0.35436964,72.18448
0.29367873,76.380035
0.44339237,76.21031
0.3787035,79.6204
0.53831065,81.369125
0.55581594,80.22317
0.5509182,87.69606
0.6493315,87.43362
0.7308953,93.121544
0.7733984,90.14334
0.93686473,93.32685
1.0265714,95.5316
1.0286738,96.51709
1.1842388,104.82622
1.2049838,105.42343
1.4545405,102.40483
1.4991328,107.13794
1.4135897,113.44679
1.600933,116.29793
1.7122449,119.20588
1.7687687,117.492805
1.74356,120.38872
1.7386032,123.71733
1.786625,123.34156
1.7885618,123.5379
1.8002476,127.8577
1.768738,127.01277
1.8924435,131.2477
1.8256254,131.56624
1.8651178,128.55334
1.8004216,130.1666
1.7513344,131.71674
1.8113345,129.50793
1.8293695,130.21701
1.8453448,129.31633
1.828759,130.45714
1.780087,125.547646
1.7008605,129.37372
1.6585181,127.73886
1.608195,125.197395
1.6059047,125.55369
1.499965,125.114525
1.5717521,125.59462
1.5675138,120.94193
1.5116105,118.39688
1.5164288,118.55687
1.5227058,115.446075
1.3889382,115.41894
1.5010219,113.90338
1.508636,113.22964
1.3909463,112.66438
1.4448168,109.53847
1.3355349,108.51006
1.459803,107.26099
1.2865988,107.74759
1.3306248,103.800674
1.3855025,103.50129
1.3034407,97.912544
1.2212214,99.52918
1.1914427,93.19412
1.2765504,95.66976
1.0877098,97.71462
1.1345191,95.68732
1.0804379,92.95054
1.0815214,95.755554
0.9257881,89.87371
0.8860971,87.84399
0.9537198,88.469185
0.899402,85.77403
0.84963304,88.62827
0.98272675,86.29744
0.92707753,81.09059
0.880717,83.23605
0.82177186,80.87286
0.97551596,80.569214
0.8947981,74.490326
0.8054491,75.89873
0.95518696,75.719574
0.8327318,74.06392
0.94803315,72.09963
0.908729,72.999626
0.8859576,72.92187
0.7326156,71.10044
0.7814652,68.058
0.66866374,71.61008
0.6924063,73.12663
0.5750678,75.93237
0.5167496,73.38669
0.45005158,75.26803
0.44988197,75.974205
0.48036897,78.09707
0.48138133,77.83568
0.6076815,79.58606
0.5809849,80.34138
0.6553317,85.30937
0.7373393,86.86663
0.94088435,85.61252
0.9314521,89.35482
1.0871313,90.24491
1.0588646,96.13658
1.2075295,98.151276
1.1481746,96.537315
1.4105257,98.99835
1.4223471,103.82826
1.6135535,108.17789
1.5340352,108.73616
1.6749003,114.322685
1.7496091,113.57909
1.7608958,114.35421
1.8109181,119.43385
1.9427446,120.69643
1.9133394,123.99907
2.0102894,122.61932
1.8068571,123.78548
1.880553,125.598564
1.9936575,129.01027
1.9729593,125.71874
2.0164373,129.04512
1.876558,128.02684
1.9000591,131.32112
1.9096129,129.20387
1.9214646,133.47606
1.9489874,129.93309
1.8640424,129.0705
1.8218012,128.49033
1.8826504,131.13745
1.7461451,127.70296
1.701355,128.13094
1.7542237,124.7697
1.7351406,121.92162
1.7059841,122.90787
1.5723171,123.219215
1.5230927,124.69516
1.4978367,120.37012
1.588299,120.01514
1.573442,117.65609
1.4960251,115.745056
1.5175269,117.12535
1.4638864,115.00124
1.3190483,113.423546
1.4764508,111.635185
1.473688,110.2748
1.4087756,108.564316
1.3577117,107.00096
1.3885313,107.093414
1.3080975,105.1376
1.3150691,101.04968
1.1854317,101.60576
1.203382,99.658
1.1831158,96.197426
1.1805224,95.08638
1.0894336,95.73184
1.085833,93.76348
1.1084149,93.56862
0.9980815,90.97755
0.90650356,88.18296
0.9206849,87.62205
0.8861435,86.77563
0.88481885,87.31893
0.73789924,79.81868
0.8825081,85.17368
0.88321626,79.217514
0.8206198,79.49789
0.86125696,76.445114
0.84575886,78.617516
0.8582481,76.631935
0.837647,76.21971
0.7765839,72.54662
0.69805324,73.70224
0.7692496,73.900635
0.7248357,73.28468
0.6894751,72.683304
0.6193033,71.6735
0.7317062,72.89732
0.46801043,72.91375
0.499171,71.87514
0.57624453,73.329315
0.41726297,74.881294
0.4546827,74.05136
0.4023548,75.99601
0.46837455,79.052704
0.4510943,75.84817
0.53065825,79.12185
0.5620374,82.345276
0.5709191,84.5606
0.6096274,85.92899
0.8086145,85.056076
0.7705613,88.17702
0.9179568,95.12468
1.0136263,96.366486
1.055247,97.29044
1.2818745,100.85504
1.2171566,101.10908
1.2701552,108.650055
1.4919221,108.55065
1.5048158,111.14834
1.6404309,112.644424
1.6270229,113.14625
1.5224425,119.42966
1.612402,121.091225
1.6386849,121.23533
1.7393435,122.60559
1.7452368,124.65274
1.6517363,126.847084
1.8304667,129.08128
1.7256782,132.27373
1.8368751,129.92293
1.7192212,129.53317
1.7523748,127.10844
1.7063763,129.45906
1.7354665,129.1534
1.7231907,132.24377
1.6453727,128.85753
1.7098565,128.42227
1.7088735,128.46725
1.5560216,128.66335
1.5934882,127.835365
1.5174123,127.89094
1.4474692,124.41009
1.3460485,123.82635
1.3119788,122.36092
1.2923999,122.23552
1.2677962,121.45454
1.2348315,118.73345
1.2218608,119.9423
1.2292625,119.28579
1.234824,116.16844
1.3926193,114.02136
1.1553878,112.937004
1.2136523,112.26069
1.2338624,109.04954
1.1232679,109.53479
1.1554315,108.501465
1.1674933,109.39479
1.1243418,105.31289
0.9822352,102.53856
0.90617657,98.36863
0.991994,100.82048
0.9374694,98.94369
0.8996776,97.2632
0.7595756,95.32589
0.73816985,92.43681
0.6894359,93.650085
0.640493,93.123344
0.59631574,90.4408
0.60681903,87.8658
0.5190685,87.67634
0.57459223,85.58416
0.634993,86.3533
0.5735076,86.01666
0.57543546,79.158585
0.5581445,82.64683
0.64748484,81.00442
0.5728981,78.11674
0.5078367,78.593735
0.48382056,75.030914
0.5282078,74.99349
0.4881953,72.24284
0.4144193,74.32903
0.43546262,79.24015
0.35264593,70.41975
0.32020503,74.140495
0.29778764,68.02018
0.27061126,72.9689
0.10399857,74.57611
0.14218365,76.010376
0.23104623,74.41231
0.043233354,73.4944
0.07826222,76.970245
0.14586014,78.41629
-0.03788319,79.88687
0.1385645,78.836914
0.07583917,80.62775
0.21572724,82.11773
0.22301704,87.630424
0.41010186,88.70415
0.54783577,90.84946
0.5099026,92.10886
0.74425673,93.36006
0.6823411,96.30051
0.75335693,97.20803
0.9550072,100.855865
1.018145,103.95301
1.0716355,107.994156
1.1291839,112.441635
1.2090805,113.918396
1.228535,115.51559
1.3560783,118.90458
1.2542421,120.51766
1.3947617,120.65213
1.3044374,121.581955
1.3296872,121.393166
1.4972318,123.35586
1.4973816,128.69702
1.3662281,131.46953
1.4351786,127.81911
1.5333103,129.374
1.3970402,128.57657
1.5203453,129.70804
1.4456636,129.38908
1.4657774,132.15887
1.3203768,130.99294
1.277657,130.78668
1.2780795,129.46104
1.3151833,133.03848
1.2071646,131.51791
1.2623034,127.73805
1.1728537,126.4485
1.0906037,126.75031
1.0029805,123.05511
1.1782308,122.75863
0.92572075,119.321686
1.0184964,122.50199
0.9623381,119.414696
0.94378424,114.72735
0.973803,117.159134
1.0264496,118.25164
1.0263299,113.487335
0.8301258,111.817604
0.93108267,112.16084
0.89590645,109.24617
0.82275885,107.47671
0.8720689,101.916306
1.0045362,102.99744
0.75519955,103.239555
0.7229641,100.08011
0.79015064,101.739624
0.6672875,97.84745
0.69609904,97.01202
0.66707784,96.17436
0.5439813,96.646255
0.59085405,94.39623
0.50679666,90.37608
0.47610885,90.74618
0.42655402,92.33806
0.39845142,89.50584
0.41287374,87.10557
0.32648674,84.16773
0.34661943,80.62807
0.3932802,83.0716
0.22903092,81.06487
0.33971158,80.63484
0.3320975,79.63616
0.31015322,77.43303
0.29402667,76.1151
0.31712434,72.93726
0.24347207,77.72067
0.39014244,75.51362
0.19078493,74.62256
0.16897748,75.60214
0.1756383,73.66979
0.14553794,72.99843
0.084780164,73.0507
0.18964274,75.171616
0.12612441,73.94424
0.025981162,73.4519
0.012939993,72.97011
-0.062260244,76.84362
0.02778187,75.463615
-0.012512526,80.555084
-0.038669154,80.27595
0.04640587,79.62995
0.1400754,85.77588
0.1452697,82.59954
0.19074532,85.92513
0.24245569,90.05123
0.39610487,91.39982
0.48611864,93.19556
0.5710358,97.968414
0.6323303,103.146645
0.7985801,102.71473
0.9597622,106.35382
0.9965011,105.5084
0.96240944,110.356415
1.0584899,109.414276
1.2327721,116.95638
1.1964138,118.970924
1.2340918,119.10991
1.2617611,118.249756
1.2952417,123.44986
1.353312,125.03395
1.32973,126.50104
1.4832802,127.780426
1.402799,130.20467
1.3723593,129.27612
1.5065229,128.55618
1.3309587,127.79313
1.3335941,130.83302
1.2988523,130.76254
1.3807418,130.06369
1.3249215,132.6062
1.2780064,132.03447
1.3367394,130.64401
1.1845642,131.61784
1.3035663,128.77232
1.1923813,126.90073
1.2463717,129.04536
1.226242,123.00344
1.1444671,118.597206
1.0650388,125.58378
1.1173394,121.59762
1.0341301,119.071724
1.0307032,120.95941
1.0853401,118.07173
0.99264383,116.31731
0.9787981,111.61712
0.9098988,115.02721
0.9866024,112.63725
0.9229173,112.31472
0.9694304,108.61232
0.99793077,106.43289
0.95380306,107.91497
1.0384015,104.080284
0.87946564,101.10898
0.79058003,101.86055
0.7826946,101.77662
0.7096205,103.035286
0.8725762,99.60497
0.76795053,100.556854
0.68991613,93.32867
0.6811998,96.22775
0.58012575,91.78492
0.5987964,91.62515
0.6141426,91.65415
0.52593285,88.741516
0.5879668,84.657616
0.45044494,86.05651
0.45342064,84.31281
0.4897198,81.939224
0.45803767,82.6821
0.49151945,79.868614
0.42495233,77.66784
0.3802879,77.697205
0.4328701,77.47965
0.49837956,75.51715
0.49428967,78.32643
0.31312093,74.44328
0.30276158,72.00748
0.29197246,75.85415
0.31447455,71.15442
0.30417797,71.090065
0.20113942,69.66118
0.3123578,71.336945
0.13217603,70.83854
0.11906067,73.662865
0.101862065,74.25507
0.1204282,73.2838
0.12197138,78.17041
0.16407262,76.07852
0.1510478,76.53315
0.24562658,80.75372
0.2805114,78.73359
0.23896651,84.926636
0.3626359,83.34691
0.63972527,88.085014
0.4966947,93.09142
0.6408599,92.78515
0.74620664,96.12749
0.91926664,97.63052
1.0069268,103.98668
1.0245286,105.91933
1.152252,107.726494
1.2459575,107.84973
1.3665838,112.9984
1.3766897,113.870026
1.444183,117.18775
1.4980174,117.44569
1.5122931,117.545364
1.5834697,121.220505
1.6532977,124.571945
1.5788716,123.59039
1.6621706,125.711555
1.7069869,124.389244
1.6039414,126.93262
1.6558263,130.89613
1.6260667,132.91508
1.6910557,128.93814
1.5801382,131.10657
1.5760455,133.9639
1.5925424,129.4325
1.5537169,130.37746
1.630427,131.8746
1.605416,129.08913
1.5431037,130.0597
1.4681028,126.39282
1.4783822,124.88519
1.5722257,128.80144
1.3600509,121.54973
1.3639275,124.806786
1.3958398,119.70694
1.2735351,117.91027
1.3330324,117.13274
1.3582685,117.01047
1.2483425,114.716736
1.3543823,116.89962
1.2412637,112.93455
1.4085286,113.65874
1.3308921,111.232864
1.2177078,109.28831
1.2166455,108.53138
1.259522,106.78583
1.1813353,104.71458
1.084908,106.16631
1.1496105,103.55082
1.1957552,101.08737
1.1558169,99.25655
1.1752776,100.2802
1.0206133,99.3477
0.996252,95.24492
1.01869,93.632225
0.9631089,93.372215
0.7647001,90.18286
0.7912554,87.24774
0.84459484,88.702324
0.803449,87.877556
0.8376525,86.78112
0.6573648,83.51653
0.7764658,80.95207
0.9162054,78.66166
0.7802031,80.46522
0.7520103,77.770134
0.7086979,79.327385
0.80667764,74.50672
0.7679116,71.42102
0.8242162,73.18325
0.7216172,76.389595
0.80085576,72.27861
0.662714,73.71874
0.7202896,70.99468
0.5868543,73.99501
0.5323127,68.405556
0.6088183,71.63197
0.5552488,72.55139
0.55508584,71.34025
0.36997965,72.68081
0.46594968,77.2163
0.3750427,72.25282
0.45770708,77.26986
0.38112706,79.60249
0.44290432,78.47429
0.45224878,81.64947
0.6638562,85.16419
0.7018103,85.03792
0.75332934,90.1923
0.70043314,90.81989
0.9156992,93.735085
0.98942095,95.09394
1.1911026,95.99607
1.1806021,99.882935
1.3288329,102.787025
1.4684256,106.25391
1.4934847,108.12242
1.603123,113.00713
1.6077986,112.85912
1.6992631,114.28618
1.722496,114.31561
1.7473477,121.38661
1.8489294,121.37409
1.8458246,123.12528
1.8433744,124.94626
1.9183297,123.49074
1.9176298,128.44928
2.0814397,129.60893
1.9128999,130.52573
2.0169625,130.78085
1.9507644,133.54216
1.8908298,132.29335
1.8777913,130.27692
1.9506158,126.29194
1.8084639,132.30516
1.9540124,129.01799
1.8154602,130.13695
1.7396923,130.44028
1.7674466,128.66772
1.587144,123.59916
1.6715851,126.77673
1.6824377,125.525826
1.629476,121.80803
1.671692,120.383385
1.6358092,119.8941
1.5083494,122.716675
1.5127622,121.2272
1.5095743,117.244804
1.5649574,114.93321
1.6032317,114.135124
1.6426358,112.778725
1.5210624,110.061325
1.5457622,114.52737
1.5056869,110.84121
1.5176027,107.775635
1.4973576,103.62483
1.4243399,108.13114
1.3949449,104.470215
1.2826648,104.40815
1.3292124,101.55544
1.2816484,96.28053
1.3198361,96.94167
1.2666394,96.62411
1.0760487,95.26775
1.1342577,92.0633
0.96511424,92.35398
0.96098375,91.05449
0.90218276,85.83234
0.9269127,89.26747
1.0249819,85.24214
1.0182124,84.24761
0.94383615,82.13775
0.91607296,80.654884
0.90563583,81.42254
0.9335583,81.99491
1.0233457,77.15748
0.9645136,76.660126
0.925158,72.52738
0.94086444,76.227425
0.88013107,72.4136
0.8100032,72.11875
0.81468946,73.84203
0.81936055,74.12806
0.68987304,71.20052
0.78544337,70.62416
0.78187144,73.2811
0.65850085,73.63386
0.58235246,72.618416
0.4936439,74.69369
0.56692713,74.33727
0.44465402,75.97789
0.55819196,80.51241
0.51060915,80.20463
0.6815228,78.89472
0.5718999,81.12769
0.6622108,80.90203
0.6601526,86.46093
0.7982853,87.40537
0.8941301,91.24009
1.0029399,94.22232
1.0460528,96.49457
1.2152107,94.98482
1.314376,101.132484
1.3457688,104.24509
1.4376287,104.73421
1.5678077,104.88815
1.5788102,109.58408
1.645793,112.73756
1.8091669,112.60298
1.7626022,115.73695
1.7343062,117.64565
1.7841276,121.46208
1.8124633,123.663826
1.9609481,124.40787
1.9510171,125.57688
1.8571907,127.37397
1.8488417,124.38187
1.9211377,130.94908
1.916236,129.77583
1.8500996,131.30917
1.892732,135.0814
1.8993194,133.99686
1.8330448,131.61249
1.9755523,132.68358
1.9115044,128.30353
1.8679581,130.03906
1.7571828,128.87297
1.6589258,130.11716
1.7127603,127.067055
1.6475146,126.734116
1.6375117,123.46272
1.5903543,126.36573
1.5325418,124.1277
1.5870876,123.13699
1.5300279,119.905975
1.4598283,117.5025
1.4151466,118.86734
1.4035902,114.756454
1.3949044,116.28802
1.4342277,115.66235
1.3935052,110.42289
1.4241561,114.80864
1.4117427,108.89098
1.2516195,105.8595
1.3530864,107.00401
1.2427901,106.95722
1.2747086,105.26005
1.2367321,101.42923
1.2173705,99.134995
1.0473989,98.75255
1.1094897,99.986275
1.0483127,96.73314
1.0044593,95.36417
0.9006019,94.40502
0.82519764,91.49411
0.926796,90.69303
0.815727,87.08711
0.7645424,88.83038
0.7843536,87.214554
0.82206213,85.98738
0.831132,85.403885
0.6973792,81.952324
0.70928276,77.7237
0.77350074,79.15059
0.80123544,82.827385
0.76080924,77.7161
0.7230172,77.076004
0.64654505,75.301674
0.65942377,76.525856
0.7097953,74.61655
0.5579751,72.93279
0.6415502,71.83152
0.55922866,73.6803
0.4868067,74.65139
0.40489423,77.27426
0.49871388,67.51284
0.2507533,73.62843
0.28335798,71.3005
0.31938455,74.855675
0.2994381,76.419464
0.2602528,75.44762
0.24918637,77.43064
0.38011405,81.35975
0.39014846,81.10057
0.32670474,82.51747
0.43418732,85.416275
0.514986,86.84423
0.6299552,86.54328
0.6581083,89.51726
0.77986693,95.14429
0.94943607,96.978424
0.98662573,100.43878
1.033301,103.494736
1.1450713,107.81511
1.1143445,106.27642
1.2054588,107.40883
1.418931,114.10679
1.4650322,115.092514
1.489889,113.756874
1.4509383,116.64779
1.4787141,121.87416
1.4490196,122.33739
1.6018653,121.586334
1.5627526,126.179886
1.5722706,129.69601
1.6587347,128.13586
1.5465839,129.145
1.5946511,128.92761
1.6138964,132.43167
1.5240631,130.7145
1.5422801,130.40463
1.5476044,130.52394
1.5277311,129.80217
1.3993763,128.69868
1.4297508,129.05463
1.4203918,130.0085
1.4066379,128.73875
1.3820236,125.38862
1.3133979,129.40355
1.2724935,127.36777
1.313792,123.95999
1.2959983,123.16711
1.2124821,126.29177
1.1025995,119.811676
0.98684037,122.2119
1.1621544,117.06095
1.0810387,114.7365
1.1683604,115.53881
1.036948,113.95298
0.9923384,113.01473
1.0890803,110.36426
0.98621875,111.40523
1.0011448,104.623344
0.9987151,111.56327
0.9280687,105.47289
0.89675874,105.691055
0.9727237,101.06925
0.83150595,99.893234
0.7143747,101.19692
0.9244118,98.98024
0.80657744,96.442
0.58050084,91.98443
0.67975456,93.81038
0.6933979,94.50522
0.54576313,91.09224
0.53367305,91.27413
0.5074115,85.94342
0.56014496,89.165695
0.46184292,86.8427
0.4503924,85.81849
0.52931273,82.67519
0.40238523,87.63328
0.46092236,81.8978
0.3140645,78.38799
0.49384904,78.11159
0.46590126,74.64788
0.4133235,74.86316
0.41479298,75.2201
0.401148,73.88071
0.32982334,76.58768
0.22906789,72.28194
0.2975046,74.44081
0.23520757,73.03881
0.1151932,72.57279
0.090621695,74.96609
0.07699014,71.97093
0.040718745,72.99108
0.0016571512,74.098175
-0.0058006546,72.72601
-0.002655723,76.75038
-0.03000072,77.03239
0.06643354,79.325424
0.03104427,83.0989
0.07549203,84.9816
0.14091782,86.177155
0.21335806,84.96774
0.28976032,87.578316
0.4741864,90.94502
0.46251997,94.26556
0.58440477,97.58046
0.64173365,99.996376
0.7071964,100.6811
0.7361583,102.67964
0.92297804,106.41163
1.0153897,106.35988
1.0455298,110.26011
1.0370902,117.449524
1.1211009,114.7016
1.2354871,117.64683
1.3135748,120.1563
1.3473328,120.13152
1.4540796,121.41205
1.4142877,124.061516
1.357264,126.21129
1.381326,130.4931
1.4459008,129.371
1.3967658,127.54417
1.3762795,128.71
1.40152,129.80893
1.3214397,130.70497
1.4555981,132.13454
1.3792003,127.281784
1.2840803,133.31116
1.3130302,131.77092
1.2733396,128.07909
1.2174954,129.8148
1.1343231,127.585754
1.2092724,125.4528
1.1745178,129.3162
1.0918379,121.52942
1.0307122,122.36701
1.0001606,124.64772
1.0570796,121.64016
1.0038866,117.96788
0.9280064,118.226715
0.9913157,115.213295
0.8906434,118.60447
0.9016577,112.31445
0.93608487,109.37034
0.8767712,108.085434
0.9449825,109.92525
0.8834723,110.15917
0.7865463,106.46234
0.9562178,108.3502
0.78276986,103.98226
0.8506855,105.22068
0.75573504,98.711174
0.78138304,98.85676
0.7349599,98.40143
0.66329086,97.9367
0.5873351,97.905334
0.43231118,95.11003
0.5428182,92.204185
0.5762086,89.29265
0.44595492,88.85786
0.44698253,88.866875
0.34741783,87.04302
0.3917654,86.55855
0.3885862,84.54179
0.31297967,83.17868
0.36047247,82.593124
0.4251685,81.277336
0.3761872,79.45907
0.29539704,75.6431
0.24558702,78.96473
0.29098514,76.04864
0.33837184,75.71083
0.32491896,75.008
0.19629844,71.022865
0.1951399,73.446205
0.21744022,71.58866
0.20281062,70.82455
0.19786339,69.56306
0.08643471,69.3366
0.17715544,73.38767
0.069293305,69.488655
0.08124627,70.53361
0.0627973,73.75022
0.07068152,74.37262
0.06940436,76.15714
-0.041718382,77.618866
-0.06754592,78.78732
0.11085239,81.46237
0.054295503,83.07804
0.28016096,88.79688
0.27670082,86.99457
0.3369264,88.38382
0.3845724,93.33144
0.72259307,94.98811
0.5968146,95.42428
0.77833074,101.55909
0.844438,104.21044
0.9631113,107.712135
1.0821604,109.45994
1.0850962,109.59144
1.2956966,113.22445
1.3051375,115.15683
1.23573,120.8691
1.3262786,126.465576
1.328994,115.81686
1.4768502,122.408554
1.4535911,124.06248
1.3810921,126.11594
1.5267897,127.98967
1.4640033,129.25392
1.512541,127.614136
1.528701,132.72606
1.3923727,129.28395
1.5085475,129.95345
1.4757394,131.4785
1.4009333,130.34737
1.4031818,128.64403
1.3562958,127.770615
1.3399194,124.02191
1.3918731,130.34456
1.356475,127.02041
1.2647732,126.74393
1.3082951,129.59776
1.3232721,125.95944
1.1255661,123.808525
1.2488699,124.93848
1.2356861,120.53309
1.0858243,121.51734
1.2265443,116.503746
1.1874684,119.20116
1.1456851,118.792984
1.1107554,109.79261
1.2007502,110.32257
1.0588281,111.98956
1.0515461,109.65998
1.0082532,107.55642
1.0924083,110.2158
1.1157044,105.94181
0.9241798,105.42056
0.9553926,104.09668
0.90723914,102.29282
0.78195834,101.6504
0.9093045,98.384415
0.9580768,99.69866
0.75918955,96.40097
0.69589037,94.69702
0.77788025,93.26085
0.78791404,91.33889
0.54502624,90.07184
0.6023513,92.60889
0.6784449,89.335594
0.6804726,86.75106
0.5043434,84.0709
0.5684857,84.96831
0.6104812,81.3778
0.57650423,81.82853
0.72006077,77.53936
0.5588771,79.56766
0.62818635,77.16254
0.5643163,78.27172
0.5568986,74.075455
0.62681097,74.94944
0.62440926,76.325096
0.524207,73.5883
0.5648514,75.764946
0.47533348,74.75306
0.46758577,73.701195
0.37377355,72.46398
0.38777718,73.9379
0.3148034,71.58478
0.27802804,73.81172
0.3258432,78.290375
0.25086913,75.492134
0.21734971,78.00537
0.16915064,79.95913
0.31167296,80.78637
0.33353537,85.34353
0.42763606,84.31023
0.49793205,85.825096
0.5630589,88.19769
0.66585726,87.82064
0.82135445,91.51154
0.85963315,94.659676
0.89398736,98.9559
0.9831047,98.77481
1.08187,99.06698
1.2035501,104.06333
1.2937113,106.67263
1.3965214,107.079704
1.3945314,111.30675
1.4543811,118.4349
1.5112157,118.92934
1.6394166,119.02912
1.7145478,122.86684
1.803591,121.71379
1.7262661,120.926636
1.8067713,124.20568
1.8274771,126.1659
1.7519034,127.508995
1.7668618,128.30919
1.763342,127.02476
1.8135626,132.0443
1.8052663,129.73335
1.7635763,130.17406
1.7502875,131.795
1.684995,129.31294
1.6952486,133.47699
1.6757113,128.72874
1.677061,128.52446
1.6347173,130.15002
1.6960282,126.39382
1.5434164,127.01539
1.5585818,124.30345
1.4754556,123.15853
1.5303079,126.14935
1.4546405,124.938934
1.4332689,118.57352
1.5391314,118.83626
1.3833064,117.69954
1.4761392,115.9784
1.4907037,116.36226
1.3996644,113.154205
1.4079603,110.45745
1.4039505,109.77544
1.4428108,111.537636
1.4187065,107.972435
1.373118,103.78809
1.2653353,107.09437
1.2776973,105.20974
1.3389475,101.516014
1.2191689,99.910965
1.1985742,102.50074
1.1727052,96.78404
1.125128,94.68293
0.96953326,95.50618
1.02641,95.089485
0.95553267,93.592636
0.9848834,91.73891
0.9338937,90.69185
0.9711056,86.47738
0.91939634,87.72565
0.91527104,84.70551
0.88567424,84.490005
0.76597553,86.785675
0.8973919,79.09601
0.879191,79.98288
0.88012546,77.5513
0.8745433,76.7614
0.8091207,76.198044
0.88547355,75.240364
0.9175672,76.98082
0.9038042,74.660515
0.82573855,71.12688
0.8410899,73.66769
0.6860944,73.515076
0.64315796,74.863396
0.66283023,74.38731
0.5698066,73.95133
0.5475145,74.67362
0.54602444,75.73888
0.6644393,75.90735
0.5473234,75.57811
0.55971396,78.32543
0.576563,77.86096
0.57500684,76.91732
0.6678608,81.73346
0.57252055,85.0492
0.7101959,84.50876
0.74849105,85.60084
0.8981381,88.38977
1.0097306,95.015465
0.846379,89.95985
1.1766742,97.07067
1.2781702,99.27022
1.3480787,103.921005
1.4132154,101.8137
1.4516718,104.57523
1.584558,108.17576
1.6857848,111.1376
1.7574935,113.2776
1.7517197,114.86498
1.8222375,118.02724
1.8652277,121.7802
1.9828303,121.65158
1.9467171,119.454994
2.0047607,122.99203
2.0090072,124.671844
2.021862,126.45245
1.973512,127.36814
1.9385074,129.50113
2.030864,130.40637
1.9091746,133.37837
1.9437811,132.36636
1.8736002,130.05396
1.9041152,130.38968
1.8626691,131.89156
1.80997,128.39658
1.7886128,131.34451
1.8401566,129.2479
1.7382817,127.92804
1.7980691,124.97454
1.8306003,127.59025
1.6502813,121.51333
1.6294373,122.17386
1.5933151,123.20159
1.5848004,121.64981
1.6190935,122.55507
1.6278813,119.66768
1.5082595,117.12429
1.4964725,113.03481
1.4588888,110.43479
1.588065,112.479774
1.4923732,112.13204
1.4159757,109.485504
1.451726,105.95426
1.4546534,105.88604
1.3639294,103.435104
1.454847,106.137794
1.3175057,96.45292
1.2829187,106.81737
1.2498261,100.38203
1.3324171,103.11774
1.2527928,99.35775
1.1702155,95.14686
1.1585888,94.13446
1.0164857,93.738075
1.0884126,92.448845
0.87795854,92.97845
0.95163226,89.01122
0.9357504,87.96048
0.8791233,89.80628
0.9274661,86.07641
0.8211602,82.5209
0.8616179,80.77965
0.9390445,80.29677
0.95774984,77.37508
0.90378153,78.354675
0.8285432,76.69455
0.8361621,77.08111
0.7866513,72.95825
0.8796504,74.10073
0.74877346,72.43921
0.7260874,74.07327
0.6739187,74.717415
0.6750969,74.18791
0.65087366,72.48147
0.70087945,73.66949
0.46546623,73.99633
0.5001432,74.10366
0.49254313,75.36436
0.42383665,76.07184
0.49943542,76.2925
0.41243804,78.62805
0.5181297,79.309875
0.59386015,78.81382
0.5237781,82.301605
0.63498,81.83549
0.5679519,82.4361
0.8506347,86.74993
0.74160564,91.6185
0.8480587,97.6298
1.0629086,93.76601
1.0967816,96.19754
1.114097,99.68733
1.2620866,100.567856
1.3854436,107.24792
1.4205754,110.53389
1.4263288,109.7343
1.5733821,110.87962
1.6253976,113.05759
1.6488489,115.48554
1.7392722,120.40734
1.6402193,120.14494
1.8261005,122.13151
1.8645221,121.65609
1.7684324,123.80003
1.8596163,129.49835
1.8653315,127.230446
1.7524185,129.46799
1.8155966,131.79474
1.788311,129.5977
1.7129722,131.22708
1.7183834,130.26096
1.7519938,130.30475
1.7357606,131.08505
1.6015744,128.95741
1.7057725,129.58617
1.6616378,126.93687
1.5358605,127.81389
1.621344,127.094154
1.46052,128.11
1.4595959,126.560356
1.5043993,123.16245
1.4653136,125.73736
1.4957178,122.10803
1.3139173,119.91393
1.3713186,118.12534
1.3690948,118.10064
1.3342365,119.387886
1.3129922,114.14789
1.274518,112.19556
1.3135728,109.46534
1.1864809,114.26886
1.1833023,106.12195
1.2627074,105.697395
1.2010763,107.69354
1.0131142,103.76123
1.162539,103.6088
1.0740664,103.58734
0.9696119,95.87239
1.0349903,100.24956
0.87496126,99.40505
0.9118534,96.231834
0.8656879,93.65922
0.7450692,93.03981
0.7905457,92.743355
0.756297,90.91625
0.6653669,88.29171
0.65220106,88.05832
0.61967343,85.95814
0.67294204,86.26093
0.68191105,81.33251
0.6287841,84.87311
0.6220478,79.09387
0.53915274,83.676025
0.6025516,78.86642
0.51813805,77.84836
0.6067271,78.722946
0.5723426,76.19063
0.6247969,76.78705
0.5120626,76.89346
0.4769541,75.70799
0.4818549,71.473366
0.32115185,71.465996
0.3816882,73.67388
0.32699755,72.44534
0.19951515,72.99452
0.19925165,74.019135
0.14934076,74.28672
0.2065668,77.715416
0.14784299,76.97611
0.18873434,75.873405
0.18563057,77.47396
0.32402554,82.292725
0.18286312,81.37803
0.3439956,85.228745
0.3309317,84.57297
0.4259875,90.60731
0.4550284,91.65822
0.56603277,94.44402
0.680058,94.386444
0.8352332,97.626915
0.83897215,99.86973
0.9935445,101.29252
0.9615871,105.671585
1.063954,108.306435
1.2185954,108.02029
1.2300131,112.11767
1.3120633,116.999565
1.4440937,116.59063
1.335769,118.81599
1.4221762,121.27958
1.4315768,120.55382
1.4356562,125.003075
1.4932756,125.659225
1.5207274,128.14511
1.6050755,127.07626
1.502125,131.99959
1.5349619,127.88656
1.5001018,129.95657
1.4480895,132.29465
1.3508958,128.14563
1.4724003,128.94946
1.4154788,131.06773
1.3930594,131.29158
1.377969,130.35004
1.2782786,131.81775
1.2911378,125.18513
1.2549729,127.51055
1.1690676,130.09442
1.2142756,124.808655
1.0323383,122.054825
1.1203722,121.869965
1.0330371,121.771904
1.1210579,119.43745
1.1329275,118.78454
1.1266382,117.47299
1.0269533,114.51175
0.9808412,112.74206
0.96643597,113.84677
1.0113899,111.0341
0.8745224,114.52584
0.96642077,108.1543
0.9090535,106.05588
0.8345023,107.91914
0.80694205,104.3633
0.8210017,104.18428
0.7936466,99.34736
0.78642476,98.63848
0.75027275,102.42852
0.6589537,97.85661
0.63970244,96.07458
0.59206975,94.692116
0.50090843,93.21692
0.41827872,93.787415
0.45600778,91.147354
0.49554384,90.330864
0.49655643,91.66489
0.33629632,88.05456
0.37586805,84.74413
0.40066338,83.60891
0.4060687,82.42581
0.24459788,81.47199
0.42705366,78.45492
0.37454426,82.2571
0.33608714,78.9277
0.3119094,77.244896
0.191215,74.82168
0.289863,74.88573
0.27822828,75.25997
0.26169223,77.34757
0.16303818,70.49141
0.25217605,72.1459
0.14587758,70.45798
0.03706293,67.73056
0.13885632,76.29264
-0.033727195,74.445015
-0.05633659,73.094246
0.036997903,77.23148
0.053450923,73.81641
-0.0632756,74.99811
-0.0860369,76.91532
-0.0827255,82.519714
-0.07578264,80.7766
0.09509618,83.323135
0.15365134,90.516556
0.18847863,89.52942
0.22675201,91.3485
0.2915523,92.90396
0.424102,91.25478
0.591595,98.85137
0.59378487,99.29755
0.73797923,100.11819
0.8489542,105.950165
0.921812,106.92446
0.944162,109.14751
1.001594,111.67047
1.1184312,115.90427
1.1283618,113.54776
1.291699,121.30336
1.27101,119.73265
1.3512781,121.84509
1.3794216,124.54618
1.290366,125.17306
1.3302335,129.21611
1.3044757,130.65546
1.3657975,125.68188
1.3250788,127.18296
1.2457304,128.73764
1.442388,129.61984
1.2706606,131.92433
1.3411304,131.70793
1.2965976,131.58788
1.2489152,131.78322
1.2734387,128.743
1.3202171,128.97032
1.1858375,130.9805
1.0671296,127.510216
1.0899212,126.64191
1.0642464,127.88107
1.0860376,123.16247
1.0176139,122.24962
0.9585678,120.26118
0.9450147,123.09954
0.9739861,122.24716
0.95900863,120.640015
0.98712903,118.86813
1.0474741,113.864746
1.0193051,112.824776
0.9492426,113.51351
0.96861,110.19027
0.98596007,106.808075
0.8157181,112.25099
0.91389805,106.798065
0.88534015,106.89937
0.7698086,102.167915
0.8088399,100.10956
0.71633494,100.40462
0.7270219,103.34661
0.7123777,98.6895
0.6832463,98.77166
0.65785944,96.7827
0.5802461,93.2574
0.61258334,92.84182
0.542013,90.38724
0.46856627,90.42318
0.5183068,87.99428
0.45080885,88.05651
0.38978285,84.778786
0.39207256,82.58775
0.49192333,81.88226
0.41398525,82.86284
0.36713275,83.44669
0.5132255,78.83417
0.35591415,79.02535
0.34881106,77.897316
0.41551524,76.07806
0.5270513,76.200806
0.44977176,75.0968
0.43831816,73.97587
0.26199046,73.64223
0.17883378,70.09672
0.14266284,72.56715
0.21471098,70.80177
0.17418073,71.206696
0.18274565,73.69088
0.142195,71.63222
0.07835676,74.461525
0.19083,74.67823
0.050323047,77.04319
0.077698484,77.75595
0.071628906,78.70962
0.08688515,79.09722
0.22997005,81.93501
0.32616934,85.37934
0.45185432,86.467
0.40734878,89.456474
0.47135344,89.098526
0.56374097,91.53467
0.705617,95.63528
0.8680583,96.56469
0.87021995,98.0305
0.95211065,104.72707
1.0461882,107.337395
1.1352769,111.21938
1.2686093,112.262955
1.3998,114.48051
1.3879576,116.07475
1.4783955,119.00668
1.4984585,121.74216
1.4887798,122.10148
1.5529264,122.24011
1.6372354,126.90716
1.6346085,128.20819
1.6246539,127.29799
1.5611378,129.76912
1.5711142,130.25177
1.549153,129.83315
1.6122289,131.69931
1.5774169,132.38033
1.6656448,131.45549
1.6513252,129.958
1.5287693,128.39552
1.5562088,130.1275
1.4103752,128.13574
1.3816816,126.66014
1.3625518,130.14284
1.3109636,128.3622
1.3974415,126.765915
1.384882,121.93714
1.2969415,119.63632
1.3418903,118.24411
1.2400552,119.90755
1.1904658,120.291534
1.2681993,116.56444
1.2924638,116.46804
1.135441,117.1819
1.2032954,113.884315
1.1612478,110.058685
1.216566,110.304955
1.2134998,111.77954
1.3125504,107.67221
1.2027836,108.13756
1.1802275,106.03658
1.0974624,101.37607
1.1036568,103.06667
1.0581721,102.27431
0.9359466,100.82719
0.9596862,98.811745
1.0092667,99.5601
0.78748447,96.31771
0.8811079,94.93691
0.843902,93.07743
0.775048,93.97597
0.7932539,87.361496
0.79819906,90.77064
0.89590746,85.23418
0.81867653,84.84925
0.6474331,86.787346
0.8019643,81.27882
0.57597786,83.371506
0.63801986,78.87715
0.8130543,78.32873
0.71748096,77.23727
0.71587473,78.44034
0.6664664,75.75066
0.5720267,75.993034
0.7568838,72.49932
0.7180068,72.222084
0.71408635,75.56743
0.5901374,73.644516
0.6068327,71.89862
0.5678556,71.34163
0.49571037,73.73494
0.46744448,70.040436
0.44685045,71.62382
0.358594,74.11335
0.34932065,72.71233
0.4467332,77.69465
0.47106838,77.93181
0.45245123,77.3313
0.46504378,76.24352
0.4790114,81.850105
0.45518738,84.0546
0.6029486,86.71957
0.7569954,87.92098
0.8894678,90.49216
0.83385867,94.5718
0.94199675,95.82097
1.0378047,98.30021
1.1433108,101.239136
1.3034714,103.28213
1.3709902,104.558464
1.4044244,109.44401
1.6526308,106.962166
1.4827285,115.977295
1.6639944,116.523964
1.6904676,118.869644
1.7926605,119.37409
1.9136122,120.22002
1.8550001,123.39894
1.8665347,123.880295
2.004162,126.85345
1.8489085,128.4416
1.8207315,129.57182
1.9530022,131.11002
1.8550322,130.58429
1.8477657,131.25217
1.819984,129.55525
1.8070058,130.54597
1.8248351,131.77141
1.8003342,133.24092
1.9284043,131.69855
1.8210022,125.58957
1.7462908,132.71185
1.725146,126.262505
1.6475285,126.39422
1.5211822,124.39155
1.649259,125.919426
1.5967255,120.566536
1.5475702,121.80172
1.5475156,125.47457
1.5557346,119.49855
1.5535684,118.99353
1.5933629,117.36525
1.507351,118.27703
1.4923388,115.17772
1.4571732,111.86645
1.4093734,110.545235
1.5313023,110.14611
1.5055244,107.82297
1.4396303,107.39873
1.454504,106.24074
1.3960472,106.53567
1.3221557,103.74807
1.3824356,102.72255
1.2352047,98.60375
1.2108912,97.495964
1.1913992,97.17147
1.1520371,96.72103
1.1316129,94.49874
1.0675212,92.952934
1.1194367,93.217224
1.0661626,93.31264
1.0244997,89.27865
1.0215818,86.91822
0.9407741,86.185356
0.9506229,85.93685
1.0452317,83.25973
0.84518856,83.64271
0.79645115,81.27994
1.0296365,81.74805
0.89189816,79.7297
0.9065299,74.210945
0.90888274,78.43977
1.0150365,74.762856
0.84205884,72.39638
0.8452887,72.82086
0.8519605,72.8889
0.75424415,71.54498
0.8035872,74.44717
0.7145488,72.30177
0.74004436,74.1555
0.65321374,75.170456
0.53252524,75.4248
0.52567977,72.07386
0.54982877,77.12629
0.6742273,75.67833
0.52298045,77.79648
0.46973044,77.86951
0.5768279,82.79189
0.67832214,85.48462
0.66239834,81.484085
0.69082654,84.458565
0.88071156,85.84191
0.88638514,89.59363
0.9660692,95.04124
1.073154,93.715256
1.1208311,98.90153
1.259311,99.25403
1.4667051,105.15835
1.4786549,105.56329
1.482037,104.802475
1.6268154,105.600044
1.6501269,112.69071
1.6020647,111.31478
1.7552991,119.221085
1.7981516,119.41397
1.8443247,119.98212
1.8096824,120.776344
1.8956746,125.15439
1.9482453,126.514786
1.8218503,126.68546
1.9837966,128.8059
1.9080101,128.17516
1.9190047,127.335106
1.9286832,131.77853
1.7956879,132.05351
1.8814458,128.16347
1.748015,131.24799
1.869582,129.82947
1.752454,133.7618
1.7647836,129.88503
1.8505602,125.08579
1.8589094,129.14786
1.8144522,128.4802
1.6942474,128.9867
1.7619442,125.480865
1.6139477,124.1871
1.5787617,123.80344
1.5304393,122.9115
1.5878042,121.38206
1.5403261,115.98978
1.4627478,117.383675
1.4821293,115.062614
1.3680135,114.74843
1.3850073,110.81134
1.4016639,111.67342
1.4554405,107.64547
1.4191235,109.77451
1.4969434,107.10093
1.3108867,106.649025
1.3840368,104.71999
1.2349137,105.36542
1.2722739,99.99045
1.3412954,100.9592
1.1763617,98.16359
1.1368,98.74922
1.1396682,97.622345
1.1245044,96.28188
0.90816593,93.81831
0.955814,91.419464
1.0398873,90.153206
0.90620303,89.059845
0.815739,88.62721
0.81127995,85.9012
0.7802805,85.61537
0.87132955,85.00101
0.83453035,80.74102
0.838007,80.1015
0.8122596,81.560425
0.84720635,78.83887
0.78262687,74.35641
0.64842826,73.31421
0.81280017,77.97871
0.7479658,71.13114
0.739825,72.05444
0.6479257,74.75171
0.70885533,73.0423
0.5991884,73.90059
0.59464186,71.82478
0.4408397,70.810135
0.54541314,73.69643
0.5299125,71.710625
0.38433978,76.47957
0.41050422,74.00472
0.38397163,75.187744
0.3875498,75.25187
0.33143818,76.427216
0.40205938,79.72255
0.45615086,81.690414
0.45007902,80.39608
0.5352842,84.38988
0.53534454,85.708244
0.68160945,88.85424
0.77569664,90.97126
0.7390521,94.19188
0.8947802,95.235954
1.0579773,94.60672
1.1776156,101.75001
1.1807655,101.9987
1.1990223,108.74222
1.3138102,108.700516
1.3731194,113.61113
1.4440955,109.82739
1.4813967,112.52986
1.633367,118.30965
1.5748777,122.51518
1.7169425,123.396645
1.5993379,121.480576
1.7312747,125.13138
1.73707,128.10849
1.6094635,125.37123
1.6836144,130.2656
1.6468221,128.94269
1.5526171,131.622
1.6967965,129.73271
1.6931057,129.2337
1.6379393,128.77982
1.6201285,132.06683
1.5623276,130.45927
1.4348063,128.59116
1.4943346,127.11975
1.4106171,129.61185
1.3214622,126.731125
1.3985571,127.19653
1.4077097,128.58742
1.3592198,126.11304
1.36692,126.775345
1.2469096,121.03868
1.3792078,122.71058
1.2163188,119.52653
1.1912295,121.15767
1.2224945,112.90029
1.1354529,115.39537
1.1418439,117.27485
1.1580687,112.90989
1.1068516,111.094536
1.1483642,108.819916
1.1019042,107.56206
1.0838389,106.39868
1.0662158,108.364624
0.91183543,105.05184
1.0975854,103.47945
1.0019066,102.271416
0.8867811,100.60941
0.8090357,99.63158
0.7824132,98.59204
0.81141275,95.28967
0.7445004,99.354614
0.6563706,98.63316
0.61245686,90.15414
0.5777183,91.18724
0.5727227,87.64757
0.56275,90.91606
0.45520702,88.24896
0.45117998,84.29437
0.42875552,79.253654
0.50060964,81.14805
0.5068933,81.23803
0.5547392,82.42897
0.46204916,79.14949
0.48411828,80.045
0.3894087,74.7151
0.5013737,74.85599
0.3429545,76.04968
0.28959212,78.72851
0.40715152,72.84255
0.22153644,71.31955
0.2423729,68.71138
0.18624058,70.89661
0.1537243,72.013504
0.12478053,72.439575
0.0647637,74.762436
0.16212372,72.02332
0.030862253,77.50995
0.026397776,72.48622
0.12342918,80.39266
0.057164636,78.32039
0.13026094,80.055756
0.11629441,82.06277
0.24803002,84.18816
0.28179917,85.6717
0.38345242,89.49601
0.46584544,90.04523
0.5703458,93.77002
0.5713875,94.61104
0.741061,98.98054
0.74318826,99.129524
0.90050334,101.6652
1.0297161,106.0399
1.0571938,106.39815
1.0804111,110.681175
1.1237682,112.89143
1.3211894,114.23005
1.2486109,120.20178
1.1709844,117.7607
1.2704897,120.33369
1.4220445,121.77668
1.3509696,125.75965
1.3782036,127.13296
1.4130983,130.30205
1.4800917,130.15628
1.3792447,126.53584
1.385089,128.71115
1.3584226,133.46161
1.3657725,127.06766
1.277171,131.53001
1.3239439,132.79808
1.4021845,127.48758
1.3823222,129.2291
1.3642493,132.10765
1.2439824,128.07637
1.0741047,128.91968
1.1415031,129.16406
1.1203239,123.69257
1.0687451,125.48128
1.0671462,124.00586
0.8431749,122.646996
1.0843782,118.456924
0.9407608,119.21645
0.9911487,116.44834
0.9655769,117.83087
0.92337805,117.12007
0.8903895,115.24467
0.98214346,116.42945
0.8856777,114.739815
0.842918,108.84794
0.78100556,108.8237
0.7681448,108.55174
0.8011695,104.71169
0.78891593,103.99071
0.8333597,103.61994
0.7283428,99.96129
0.7238148,100.21987
0.7213072,98.859795
0.5936051,95.177765
0.577996,94.97526
0.62811905,95.652855
0.51331115,91.83831
0.52264494,94.23514
0.35573545,90.03092
0.4243899,88.071144
0.36870912,88.34742
0.4753739,88.79686
0.3140324,85.75854
0.37216425,86.37068
0.33648998,77.26884
0.28371146,80.782486
0.37824893,80.44357
0.3967785,80.09682
0.28648645,80.23361
0.27609828,74.95554
0.19921558,73.04595
0.3044079,75.52448
0.27172816,75.91068
0.2731965,71.971436
0.19721468,72.09921
0.08849802,70.93744
0.13998884,71.05847
0.11785448,70.40631
0.004039152,75.786896
-0.04040422,72.05591
0.004001209,73.68321
-0.07259701,74.33407
-0.114800185,75.10279
-0.10222027,76.25882
0.00038236263,78.303085
-0.015880898,81.09488
0.07128576,84.115654
0.13942623,85.99263
0.22994396,84.258934
0.17681974,87.08792
0.38659486,91.823166
0.46101993,93.13214
0.67717534,93.71217
0.62147,98.87004
0.7539324,101.22532
0.8149422,103.23001
0.8626205,103.75788
0.969978,109.59506
0.970341,110.58977
1.1142348,114.54277
1.1779094,114.928024
1.241911,116.69108
1.2759442,119.08085
1.2342106,120.05681
1.3463471,122.339325
1.4314438,125.06062
1.4117022,125.36146
1.4811571,125.3089
1.3780262,128.79573
1.4555773,131.02467
1.4756678,131.5542
1.5717918,129.26968
1.4093311,133.04234
1.4121624,131.34444
1.4338417,131.02768
1.3500879,133.43944
1.3074878,129.56265
1.2645088,126.75735
1.3044714,129.27545
1.1958231,130.68881
1.3284531,124.33425
1.1016296,120.84761
1.1753923,125.814
1.1376606,125.10977
1.0905125,126.11602
0.9703183,120.34348
1.1213758,122.73422
1.1689428,119.70189
1.0411086,116.89873
1.0439676,114.61019
1.0186181,116.6976
0.9980286,111.76121
1.0271947,109.842354
1.0182023,109.62174
0.92650265,111.237015
0.9677469,108.17383
1.0336962,107.869026
0.9895694,105.10314
0.96713686,103.642654
1.0133181,99.15979
0.87964046,102.73526
0.9031071,99.93722
0.87950367,97.622536
0.7643259,93.84679
0.6897252,95.00713
0.6432633,92.8938
0.71311563,94.52939
0.60598445,93.56001
0.6684462,90.96489
0.5130506,88.079765
0.52382207,88.3172
0.58027947,85.78868
0.51631856,84.50922
0.6175886,82.63603
0.47250417,82.22204
0.6087934,80.02632
0.4813895,78.95224
0.56706446,76.7973
0.51062536,77.3173
0.565327,75.38835
0.5858104,75.87035
0.49045345,72.48557
0.37402782,75.029785
0.5458749,71.3078
0.37206313,72.7862
0.43634436,71.072876
0.35874814,74.61013
0.34497616,73.58567
0.3494289,72.049835
0.14729463,74.37053
0.3149027,76.28515
0.3068968,74.48579
0.20350865,78.17599
0.23876815,73.55711
0.21775554,79.724266
0.26658702,79.55611
0.35634953,82.99913
0.47215766,85.65773
0.5139551,85.85664
0.5312569,87.911125
0.6291073,92.85749
0.74759567,97.188934
0.8619994,97.394264
1.0043349,101.2823
1.1111181,103.94835
1.044239,101.10259
1.2797407,106.07771
1.2797831,110.46605
1.4706087,115.252625
1.4770193,114.67367
1.627487,117.03508
1.5405033,118.68778
1.5478545,119.10237
1.6013081,121.36656
1.656728,125.37415
1.7038188,123.467575
1.7281659,128.047
1.7501967,126.69827
1.7127324,129.33348
1.628366,130.7488
1.7305152,130.86473
1.7524316,130.66759
1.7541252,129.07733
1.7583582,133.62997
1.6584697,130.56885
1.6291195,132.83507
1.6227705,129.24223
1.6183095,126.59792
1.6132733,129.44736
1.6150858,126.90941
1.4965374,128.97147
1.485522,124.74805
1.5084846,127.59092
1.4556429,125.29248
1.4039035,123.17968
1.4221474,119.97114
1.3880802,118.52953
1.2625741,118.015236
1.3973618,115.63826
1.2496135,115.914604
1.3497969,112.20343
1.3843827,109.97577
1.3395323,112.3761
1.3614656,108.885735
1.2998592,105.90648
1.2953864,106.09399
1.3227253,107.13065
1.3204594,103.5037
1.187148,105.27955
1.2269539,100.98261
1.1681674,101.14028
1.0980674,100.92112
1.0199997,95.75541
1.0918725,98.57889
1.03075,93.3927
0.96499354,91.86747
0.9100097,91.67107
0.9524158,87.88112
0.9130325,87.80616
0.84438485,87.03608
0.8611145,88.30147
0.84775996,86.58394
0.8355522,81.1767
0.8550358,81.42912
0.8257631,80.4926
0.88420796,80.878365
0.80885124,77.44302
0.8541983,77.09747
0.8238463,76.55969
0.7240668,76.723595
0.81658,73.645546
0.77997035,74.013275
0.75529015,70.616844
0.75046337,73.36226
0.68424934,74.12177
0.66352147,74.16172
0.69315356,73.100555
0.70356584,74.568184
0.56441766,76.730606
0.489004,74.564125
0.47201136,75.71535
0.44669625,80.227165
0.4553551,77.12473
0.5083951,79.764595
0.5715789,79.52775
0.5890716,84.620285
0.747515,83.312225
0.7655679,87.97996
0.91778386,87.9371
0.86401224,90.452614
0.94090176,93.37961
1.1291866,96.44526
1.1680912,96.86227
1.1897933,99.10801
1.3449886,101.67207
1.4112707,106.189865
1.4638737,107.83084
1.6325504,111.80816
1.6284224,112.51363
1.7678382,115.60299
1.8647765,119.56078
1.7755219,118.8665
1.8252052,120.47713
1.9968231,122.220856
2.0178971,124.96761
1.9392463,125.883675
2.0095882,129.82957
1.8850342,128.11789
1.9740453,125.81547
1.9916711,126.66729
1.9415517,133.23418
1.8754783,128.66422
1.8347898,132.15895
1.8443955,132.09322
1.9247253,130.71608
1.931206,131.12828
1.8469886,128.96727
1.9455268,128.04388
1.8148091,129.04759
1.8322703,126.23929
1.6470492,127.024284
1.7428508,125.19605
1.722112,126.14212
1.6376717,122.4567
1.5961518,119.52892
1.5384237,119.20798
1.5792837,116.116066
1.5686305,115.79234
1.5715442,116.497925
1.4375752,111.2524
1.5016727,113.03085
1.433873,106.69861
1.4923394,113.36618
1.4963745,108.7449
1.4242263,106.37328
1.5071069,106.161995
1.4225785,103.728516
1.267624,102.01124
1.3938199,104.19295
1.3337423,102.19607
1.313099,99.59432
1.1914917,96.39915
1.1633143,96.607254
1.2451144,96.1387
1.1497725,92.94803
1.0726181,92.76121
1.0210625,91.2801
1.0013441,86.96888
0.9570651,85.882484
0.99863786,83.560425
0.94836646,84.79826
0.8769991,83.33229
0.8542388,82.41592
0.9070053,79.965775
0.8358931,80.008606
0.9120128,77.679375
0.91410273,78.55076
1.0165542,73.82964
0.86893976,72.89348
0.8364403,76.7212
0.9204771,73.77797
0.828241,72.408585
0.6186251,72.86051
0.7882545,74.294876
0.7351728,70.2411
0.7436175,75.37564
0.68169904,68.32273
0.59250677,71.10765
0.5728725,75.079094
0.5882998,74.602585
0.533394,75.48
0.6473118,78.99991
0.50368696,77.38553
0.5775365,78.54984
0.52511495,82.5008
0.72314656,81.298386
0.721881,86.25405
0.89707315,89.71835
0.9747375,89.78396
0.910919,94.22066
0.9943701,94.667244
1.1828189,99.34848
1.2139063,99.93486
1.3557924,101.81709
1.4338499,105.57414
1.4913645,105.18988
1.4886374,111.981255
1.6153085,113.638016
1.6605824,113.51879
1.7709919,117.63666
1.7822608,121.17527
1.7242938,121.55365
1.7617285,118.31402
1.8030183,126.84525
1.8815192,124.87564
1.8956923,131.54042
1.9766542,130.16469
1.9108945,127.735176
1.8676919,129.98508
1.7881227,131.37535
1.9392837,132.11317
1.804171,128.62202
1.7320448,130.28828
1.7955308,126.698494
1.7437439,133.6975
1.7669913,130.43765
1.765052,130.32747
1.6779889,131.33452
1.6371496,126.09734
1.6491,129.81706
1.5115992,125.41607
1.5563097,124.94179
1.3500079,119.99378
1.452638,124.69754
1.5315218,119.7718
1.4389561,115.96441
1.3783004,117.53201
1.3533909,112.27744
1.2904648,112.467
1.3421183,112.62126
1.3145076,111.34731
1.2000417,110.57697
1.3941305,109.940865
1.3311831,108.02947
1.2345666,107.31738
1.0845596,104.6414
1.2109178,98.73175
1.1629477,98.96421
1.1543716,99.025406
1.1708591,98.23
1.038268,98.115555
0.9304769,96.086494
0.8689507,92.43232
0.8222783,93.177605
0.8919153,95.45083
0.8312976,92.93497
0.755478,90.61749
0.615892,86.94984
0.64685494,87.447945
0.76451147,85.864235
0.5989993,85.162445
0.5723166,81.13855
0.6989336,82.42778
0.6490201,81.630585
0.70995915,81.50598
0.64292884,77.06797
0.582259,76.36522
0.5406396,75.18113
0.55363524,73.24382
0.72341436,72.49144
0.55191845,76.12921
0.55694973,76.15324
0.4570546,72.415695
0.48763633,72.53706
0.40067428,71.84448
0.38255385,75.17296
0.259519,71.74053
0.22113022,77.041214
0.18716626,73.94146
0.27285045,76.25106
0.27065644,76.96101
0.21615495,75.794586
0.35950127,81.31442
0.2692295,82.40245
0.2987072,82.41687
0.44006586,86.069016
0.48438424,87.96624
0.4926585,89.4655
0.7101629,89.66742
0.8098474,95.33014
0.8767213,97.97171
0.9798797,99.39479
1.0486792,101.735374
1.0696514,102.64512
1.1085348,109.8434
1.213146,111.65978
1.3531815,112.1705
1.3677689,114.8253
1.3091263,116.838425
1.3559784,119.420235
1.4868275,118.3217
1.4894195,118.340294
1.6078689,123.40323
1.576173,123.55545
1.564884,126.47547
1.5664688,129.97987
1.543883,130.88652
1.4565556,126.18641
1.6179504,129.98822
1.6639555,130.15277
1.4572178,132.43803
1.4496697,126.949
1.4937013,128.43706
1.406015,128.99332
1.5149554,132.31604
1.4089607,129.53764
1.3169512,129.74753
1.354108,126.42835
1.2654659,125.99668
1.3215841,123.82116
1.1548105,127.750626
1.1443279,123.619644
1.1376861,120.71182
1.0100802,120.48686
1.155174,118.828255
1.0041136,115.14894
1.0625098,120.125984
0.961186,115.11777
1.0804344,115.76923
0.9373821,112.3688
1.0572693,106.91164
0.9368135,106.467995
1.0326382,109.897125
1.0068733,108.62196
1.0496895,104.88828
0.8746204,104.20427
0.8379695,103.96457
0.85076135,101.04076
0.79988605,98.44057
0.8352812,98.24946
0.78783333,97.201584
0.6270796,96.22113
0.650126,96.16382
0.6696231,91.41185
0.5256726,89.19896
0.49064916,90.310684
0.37131518,89.4505
0.3770906,85.82433
0.3888329,85.63883
0.37746406,82.85965
0.41321295,82.84744
0.4541157,81.382
0.42627835,79.55553
0.28149235,76.09288
0.3746675,73.453804
0.31573245,77.42578
0.32109144,75.722885
0.22082165,76.675186
0.29503754,74.976295
0.25182155,71.67766
0.17064269,75.33405
0.20988947,75.180885
0.20272994,71.10711
0.13467102,73.26326
-0.0055802,71.898994
-0.06642095,69.88738
0.12231471,73.35022
0.088183746,72.01552
-0.18177119,72.87908
-0.032759685,78.95346
-0.0623897,79.11535
-0.012489686,82.68825
-0.038827814,80.36673
0.043979123,83.387856
0.1223936,86.32528
0.27441144,90.96281
0.34894422,91.81536
0.3143848,90.29568
0.4394382,93.16456
0.5549466,96.961365
0.651129,98.93614
0.7375644,101.217
0.7688517,101.44769
0.9126643,106.102974
0.95820826,109.18805
1.019192,113.65956
1.1615262,111.478386
1.205163,115.44851
1.1934991,120.26443
1.331474,119.78874
1.3288519,121.74648
1.2397784,124.64805
1.327866,127.79877
1.3577135,128.67215
1.3686332,130.73268
1.3392774,130.92839
1.5353287,127.82853
1.3978024,130.40303
1.3958323,128.9624
1.3785858,133.04535
1.3705536,131.74347
1.3939484,128.8029
1.3297194,130.21187
1.272188,129.59924
1.2309617,129.9787
1.1517355,127.0198
1.1090683,127.429245
1.0830268,125.28782
1.1055915,126.31963
1.0513549,125.84637
0.9917891,123.153275
0.96104324,120.52158
0.8782297,118.74447
1.0191611,119.11731
0.95333993,121.364555
1.0513103,116.298615
0.98224646,114.26943
0.85508734,115.00259
0.95596886,113.530495
0.99672866,109.70899
0.9919829,107.8937
0.918177,106.34156
0.90386164,107.082695
0.7299767,103.99195
0.862644,102.5181
0.78416103,101.666916
0.66060436,100.50415
0.6186887,97.10622
0.65746737,100.83217
0.6417556,98.18863
0.63149476,95.824196
0.56168586,95.35365
0.31421795,88.903534
0.53054005,89.70701
0.3259628,89.65792
0.38440222,85.06894
0.40100873,88.56477
0.4792504,87.78333
0.385272,86.01173
0.33862025,81.898796
0.3044716,81.81668
0.36897457,85.278206
0.38114333,80.8718
0.29762748,79.77443
0.35244006,77.655396
0.3807169,75.67475
0.4029771,75.474594
0.45008895,73.89949
0.36661026,72.88531
0.2727419,74.22867
0.24108067,72.32833
0.2644134,71.42109
0.17761362,72.26156
0.14630291,74.48878
0.12515983,71.62476
0.07372218,72.963684
0.03537869,75.758415
0.06867003,75.7357
0.030693686,80.8438
0.15295342,79.171104
-0.059073,82.27258
0.048831917,79.27777
0.17069907,83.015625
0.09414014,83.62726
0.2095032,87.136215
0.35388032,89.72604
0.40530553,90.87796
0.52129126,89.55505
0.6835799,96.205925
0.623583,100.34698
0.8837091,100.67414
0.9423845,103.473366
0.982296,106.37729
1.1437072,110.6161
1.1880645,111.49232
1.1563419,116.930984
1.4088529,114.70879
1.3587614,115.15237
1.3982738,120.261765
1.4888905,119.070786
1.2858424,124.20039
1.4815722,127.29904
1.6135211,125.75714
1.5530187,126.952896
1.5217284,127.62108
1.4711509,125.91542
1.508045,129.08075
1.5937215,129.03761
1.5432146,130.09264
1.5637982,130.47179
1.4676666,132.85625
1.4205611,130.09698
1.34757,130.13641
1.4832679,132.10835
1.4204966,129.03818
1.412963,128.30882
1.3505162,124.91181
1.2170373,124.76836
1.2389672,125.94753
1.2797363,122.95992
1.1744595,125.37304
1.1616274,119.80801
1.2508858,118.561005
1.2193012,114.76375
1.1620939,116.82928
1.1501932,116.397285
1.0656347,114.34402
1.1897961,112.224335
1.125914,114.29266
1.1099442,110.032684
1.0675355,107.97708
1.0865376,107.86622
1.0916675,107.33576
1.0040625,104.03646
1.0394073,104.38329
1.0166086,103.91261
0.98197085,104.44195
0.8755589,100.49101
0.8637983,98.950455
0.9877428,95.82762
0.8964012,94.22563
0.7216837,91.52426
0.66812027,93.26084
0.76269007,89.288635
0.61187625,90.083565
0.60589874,88.27534
0.59817284,85.74172
0.6523355,83.439964
0.65317607,81.35741
0.77862996,79.41398
0.66303027,80.69125
0.6812564,78.64442
0.5651044,75.845474
0.5822146,74.37141
0.70879096,76.66564
0.618708,76.41753
0.6709602,72.971405
0.6218223,72.82129
0.6448517,73.35506
0.5527178,70.420425
0.45839375,73.00166
0.50060636,69.799545
0.35937437,72.43864
0.47859436,74.05752
0.35616142,73.01421
0.4009354,73.368256
0.3187911,73.0836
0.33492962,73.84081
0.41258085,79.517044
0.45638502,80.35066
0.4142992,81.98569
0.41028845,81.24173
0.46698835,84.03204
0.58210313,87.51672
0.5248442,86.45587
0.686165,89.903305
0.8299929,91.714134
0.9563876,96.32544
1.0743327,95.414116
1.1994643,101.83934
1.278495,101.90728
1.2203559,102.27384
1.4133424,107.16502
1.4626458,111.17207
1.5169542,110.44683
1.664845,115.49774
1.7172154,116.717865
1.7246544,118.1151
1.8382691,121.600136
1.8971474,120.53386
1.8578742,122.44363
1.691872,125.4943
1.7690146,123.63664
1.868465,129.24017
1.8240397,128.67322
1.8258104,129.83414
1.8107343,130.76825
1.8547146,131.46785
1.7892417,131.37164
1.8016013,129.97264
1.8411403,129.95374
1.8562971,131.01299
1.7436017,130.3463
1.5764413,129.28572
1.6901574,130.04933
1.6794504,128.2216
1.6914896,124.99691
1.6936704,126.37663
1.5557562,123.8868
1.6291107,124.420265
1.4574596,121.44941
1.501624,121.23855
1.4522058,121.06987
1.451145,119.63192
1.4168838,116.618965
1.499657,113.385
1.5686405,112.92194
1.4443719,112.46289
1.4577004,112.957085
1.3779489,107.86561
1.4350618,108.36232
1.323155,104.30454
1.2750105,104.92728
1.298523,106.256966
1.3359897,102.277306
1.2498671,101.92708
1.1655113,101.62775
1.2630278,101.657555
1.2097089,96.83338
0.9979372,93.60837
1.041811,91.75523
1.0422779,92.693146
0.8869821,93.82953
0.95968175,89.54477
1.0276606,89.83158
0.97906643,85.543396
0.97745836,82.33478
0.8375772,84.01917
0.8524368,81.95381
0.90123427,79.96066
0.95953864,74.89647
0.83555216,77.66663
0.95594025,76.639275
0.76787794,78.67276
0.866017,75.6287
0.94836473,77.02527
0.8229211,72.32671
0.7805532,74.05166
0.83936954,71.63707
0.764776,70.2739
0.66597384,71.793434
0.7510388,70.1819
0.64662266,72.468254
0.56648564,70.78694
0.5358276,76.17036
0.5177985,75.40576
0.55569667,74.51485
0.6101007,78.92513
0.52916527,79.42803
0.6119142,77.08787
0.5014555,81.807846
0.67872155,83.728386
0.7379173,81.76264
0.83953154,88.45191
0.96384025,88.2984
1.0198846,90.620544
1.0492369,94.992485
1.110486,94.09347
1.3501055,96.734795
1.250987,101.717125
1.4845932,107.95081
1.4935642,107.979576
1.6068211,108.95119
1.6227487,111.74537
1.7514033,114.21817
1.6887048,115.34132
1.7818962,116.970184
1.9620829,120.10036
1.856454,119.07218
1.886819,123.830185
1.9206433,124.054665
1.8876191,126.534966
1.9356154,128.17967
2.028984,130.98122
1.93699,133.42592
1.9853045,130.38278
2.0200932,129.73653
1.9197773,128.00183
1.9170376,130.13748
1.9672631,133.27687
1.9594852,132.07788
1.8717461,128.24284
1.6907243,129.59013
1.718791,129.51865
1.8138404,129.70885
1.6747966,124.99153
1.6990678,126.45323
1.6693723,122.8778
1.6815853,122.189125
1.7274784,124.737755
1.649657,123.13571
1.4939045,122.49743
1.5643921,115.608734
1.556022,116.94094
1.4594556,115.19114
1.4826102,114.82163
1.4723537,111.23901
1.4457302,109.55044
1.4426568,111.41701
1.3552468,110.1421
1.3202463,106.41595
1.3584845,104.91672
1.326062,109.37485
1.3663058,101.818565
1.2329451,101.316895
1.2163565,101.356804
1.1812932,99.339775
1.0769669,95.41115
1.1379788,94.673996
1.0376627,90.810295
0.98610336,94.0838
1.0886663,93.22434
1.026456,85.95135
0.90921485,85.483376
0.8945147,89.94986
0.8896849,83.87072
0.89303577,83.188065
0.85545874,83.07563
0.91921854,82.131714
0.8741896,81.30625
0.84293216,82.194695
0.7303657,78.22295
0.79653555,76.42912
0.88071585,76.467155
0.8119911,75.68687
0.85923773,73.94166
0.7591656,74.256676
0.6279128,72.423164
0.6243681,70.44302
0.6737881,73.047165
0.7168559,72.01931
0.62874514,72.86157
0.5797868,73.74247
0.55759764,72.464615
0.548519,74.74869
0.38274276,74.56113
0.37073502,77.286804
0.43638888,75.998184
0.4332946,79.02846
0.5726028,83.06118
0.52693355,84.31862
0.5503749,82.76501
0.6791088,85.472115
0.7250883,88.649895
0.8172801,90.74261
0.8810538,95.879234
0.9664146,94.69301
0.9967625,100.78487
1.1887338,102.42215
1.2952898,102.5133
1.3848289,108.307655
1.4170389,107.27466
1.4749827,106.12392
1.5123005,114.05577
1.508817,116.2738
1.5505364,120.14723
1.6548511,120.3347
1.6774117,124.23849
1.8058456,122.83177
1.6611646,122.87512
1.7082812,125.63396
1.7653303,130.70732
1.8328621,130.3759
1.7520301,129.70694
1.6820965,130.16376
1.7909279,129.73123
1.8143455,132.30296
1.7198569,132.77042
1.6393139,132.30208
1.5865291,131.9572
1.5467172,132.70628
1.5545477,129.05083
1.5416374,128.32878
1.57129,128.65598
1.5287274,126.64679
1.3781278,130.18527
1.4561746,127.44346
1.3346965,123.30149
1.3808606,121.239296
1.2576042,122.276405
1.3583735,117.802
1.2843292,118.51816
1.281216,118.16421
1.3015556,115.9781
1.1466812,115.068214
1.2184371,114.24625
1.2135856,114.09423
1.1543919,111.16371
1.145122,112.69955
1.1010538,107.848175
1.038717,106.38369
1.1604251,104.97098
1.0141463,102.965164
1.0322165,100.05658
0.9962897,99.74331
0.9132426,99.74559
0.8303675,99.40482
0.9139359,98.53463
0.6783449,95.334
0.6855331,92.726685
0.6799691,92.99288
0.7496824,89.94067
0.5310103,90.12804
0.58693516,89.02227
0.6314744,85.272064
0.5155422,87.617165
0.6480582,83.20369
0.55124104,80.46956
0.5828116,81.56665
0.48118815,80.39335
0.56600946,81.677635
0.46328518,77.13704
0.49628368,74.90057
0.4796852,76.48096
0.5991206,71.823395
0.5047191,76.97287
0.44572338,73.402176
0.41687018,73.03871
0.3274549,73.71504
0.2837228,74.18601
0.25148007,72.59218
0.2063617,71.63077
0.29424125,72.42141
0.1730128,72.04984
0.13955568,73.41769
0.055127684,76.40132
0.06999158,79.892845
0.106616706,79.84726
0.16155487,76.42851
0.19335888,84.33037
0.18115056,84.362114
0.18257366,86.40723
0.3846741,87.22794
0.39683834,90.39558
0.59909,91.02966
0.5641779,93.56666
0.70260835,98.48209
0.78141284,99.990326
0.90658563,101.434326
0.9792712,105.73551
1.0828081,108.77977
1.14756,109.96619
1.1153485,113.170105
1.3436661,117.61025
1.2150459,114.28066
1.3967757,119.391975
1.3953552,118.91456
1.3911794,123.01587
1.3583002,122.957535
1.5168862,128.34238
1.331421,126.15199
1.4960258,126.2325
1.388466,129.33177
1.3849343,130.5996
1.4785329,129.77637
1.4948088,131.88838
1.4507821,131.23271
1.4295063,129.75163
1.2609366,131.54149
1.3565451,131.5944
1.3788954,129.05408
1.2796115,131.76306
1.2662449,128.53995
1.2552633,127.83352
1.1088542,128.08891
1.0891058,129.0702
1.0312892,120.2751
1.0249168,122.876686
1.0706682,125.04928
0.9451002,119.14418
1.0006853,119.940544
1.0061156,118.848404
0.9842897,113.17629
0.8918455,113.92413
0.8969006,112.767334
0.8994132,112.41536
0.84939367,113.336426
0.89956635,107.99398
0.93021864,108.68423
0.8029618,107.8145
0.79112136,104.83572
0.77794254,101.48107
0.702474,100.85446
0.6457471,101.113106
0.68666816,98.8499
0.61600024,97.002365
0.6807938,98.1309
0.5382577,95.8571
0.47208184,96.55879
0.41902947,92.33009
0.42505437,89.602554
0.45026228,88.32875
0.34043923,88.29281
0.35864455,85.36681
0.31156015,88.004776
0.3927055,84.7138
0.25936106,80.85453
0.20152824,82.535835
0.33531934,79.84751
0.30192804,79.94709
0.34082273,77.40028
0.34130648,75.286674
0.2478622,73.59295
0.17296208,73.259415
0.22945948,75.57144
0.22787102,73.00422
0.15987407,69.32371
0.24396922,72.922356
0.12600997,73.11612
0.12193468,72.778076
0.12554365,70.35655
0.0072699212,72.9796
-0.044577025,71.030304
-0.041093525,77.37942
-0.09325488,76.45244
-0.019261915,77.276825
-0.08247183,77.60455
-0.01409961,80.52177
0.069041006,80.42018
0.074840315,82.88989
0.15257312,82.38801
0.21709654,88.837265
0.32975775,85.04848
0.3912657,91.710915
0.5346131,94.16723
0.6286389,97.19622
0.7245625,99.16428
0.7525381,104.0857
0.9277871,103.28928
0.90301603,107.273964
1.0554969,109.55528
1.1667492,112.67043
1.1095321,114.40346
1.2358477,115.42107
1.2251624,119.8764
1.2368928,121.32627
1.3692915,121.22442
1.2916459,126.9524
1.4483007,126.00526
1.3133318,128.0442
1.2913193,128.47902
1.4020005,124.09035
1.3807476,132.47392
1.4377656,129.33084
1.4967363,131.54422
1.337422,129.72086
1.4163933,127.250786
1.3127542,127.062515
1.2919223,132.7707
1.3317348,127.05714
1.2742255,128.90721
1.4682807,128.38274
1.1563778,127.37099
1.1673944,128.7854
1.0483503,124.89578
1.0808431,124.67484
1.1837416,122.43965
1.0898438,120.755135
1.138242,120.13592
1.04307,122.874855
0.96021706,118.01764
1.0490887,113.48024
0.94538075,113.03088
0.98532736,112.655525
0.9131701,112.31761
0.97451913,111.98227
1.0210389,110.59789
0.9236762,108.678375
0.96169454,108.08592
0.89011747,106.24041
0.890434,105.417175
0.9131668,102.22888
0.8011432,101.12082
0.845083,99.218155
0.7247547,98.43044
0.7085585,95.96101
0.5632738,92.76032
0.63728964,94.89294
0.58235544,89.354454
0.57972,91.11759
0.46942502,90.96126
0.5422578,87.95558
0.5030682,86.74343
0.55985385,87.5606
0.39438415,84.45712
0.42694494,83.47293
0.4634635,79.06491
0.45316616,79.71461
0.4322448,80.6031
0.52031004,75.94913
0.48049203,76.265755
0.4071389,76.35849
0.43504193,74.73534
0.43728283,74.051216
0.38523293,74.715836
0.41593003,71.8161
0.23703864,72.57221
0.26377574,70.51188
0.26576445,72.7921
0.36876422,69.70026
0.07272692,72.50511
0.060414627,72.57328
0.14093968,74.947044
0.11475004,73.667274
0.10354945,73.692894
0.2075857,78.06223
0.2429633,78.89335
0.27797592,81.814476
0.3161198,82.47632
0.3588376,84.427216
0.49374658,86.01677
0.40140456,89.99214
0.5404377,91.6062
0.5493852,95.19443
0.7973831,96.35886
0.8946151,100.845726
0.9860417,102.10956
1.0985227,102.6416
1.0684046,105.83353
1.2966653,106.217255
1.2367084,112.56617
1.4325058,115.864784
1.322761,118.38157
1.4500457,116.20322
1.565841,120.11763
1.5879235,123.41735
1.6393162,125.47648
1.5688556,125.30429
1.7091892,123.14844
1.6078242,130.51454
1.7067956,129.78514
1.6530418,129.69162
1.6622783,128.59564
1.6336977,131.21849
1.6991937,130.40834
1.5983155,131.82431
1.6252558,133.86763
1.6524441,130.00854
1.5445741,131.2594
1.6198015,127.99509
1.5430131,127.752914
1.4809446,127.20905
1.4588232,129.63211
1.5393537,123.837845
1.4824713,124.441414
1.4352633,122.59912
1.3667066,121.420715
1.3747087,118.70703
1.3604039,119.59017
1.2789018,121.19182
1.257225,112.61704
1.2756654,114.0009
1.3069521,115.87938
1.3150628,111.97006
1.25668,111.79551
1.1788356,110.75441
1.2682482,107.55287
1.224148,106.11119
1.3414284,106.27504
1.1595675,102.63275
1.2725382,102.67333
1.1512394,98.0266
1.0922235,102.130875
0.9808122,100.05361
1.0638024,97.60637
1.0944747,94.17209
0.8458795,95.75258
0.9337409,94.04603
0.9770478,91.98397
0.855456,89.64496
0.76764894,88.34077
0.7353195,87.51591
0.8085594,87.68619
0.7748411,82.671425
0.8597797,80.798744
0.7619104,81.66793
0.7718583,80.14565
0.69881326,80.64169
