ppg,abp
1.1252793,80.775475
1.1685306,85.37239
1.2909576,87.98099
1.3418572,91.34024
1.3928998,93.88517
1.4319401,102.55701
1.4889048,97.48862
1.6015614,100.36094
1.6813107,104.61468
1.6433005,105.52738
1.6233293,107.0047
1.6915207,110.69535
1.772262,109.65745
1.6793307,108.04158
1.7969713,108.79183
1.7507752,109.00809
1.7038268,114.482185
1.6816802,112.82971
1.6549559,114.167336
1.6293215,109.6353
1.533077,112.73542
1.5057429,105.095245
1.5602535,110.15682
1.5468432,107.21612
1.3919799,102.38212
1.420225,102.52099
1.4484001,105.63426
1.3989933,100.78545
1.3543509,103.92683
1.3344257,101.512985
1.3498604,98.4454
1.2715746,96.731926
1.322389,97.440765
1.3377221,90.93954
1.3314446,88.50502
1.2597485,89.44544
1.2674671,88.816734
1.3187193,81.939896
1.2939048,85.02967
1.191698,83.190704
1.2089266,78.66482
1.0755634,75.2612
1.1043272,74.79917
1.0193934,75.40249
1.0428946,76.58719
0.9952967,70.26713
0.8957908,73.5811
0.9255368,71.28912
0.7937437,69.42314
0.772349,69.718605
0.8044786,63.49409
0.8834016,64.095505
0.8726217,63.79165
0.7949646,63.460823
0.9133162,58.217194
0.84377694,56.85985
0.8441997,55.57401
0.8312225,53.955864
0.7400016,52.448147
0.76488304,53.516743
0.6675538,58.35145
0.67987865,53.809246
0.70509225,51.238647
0.5789958,50.2674
0.58763343,51.572117
0.5587183,56.2956
0.5279606,56.874165
0.4276313,50.929096
0.4748043,59.454674
0.45422044,54.997856
0.5288226,57.103714
0.5720952,59.764233
0.5906174,62.320133
0.6417323,63.13189
0.82088256,68.889114
0.8893413,67.32806
0.93280053,72.368
1.1472535,78.14913
1.1909568,77.41638
1.351009,86.775246
1.4600259,83.24017
1.462256,85.025795
1.6120448,94.15185
1.6647557,100.54059
1.704064,93.31211
1.8493495,99.06935
1.786775,105.67428
1.9618208,102.96028
1.9601015,108.991806
1.9291309,109.35614
1.9177741,110.01434
1.947753,111.55134
2.0178232,109.89687
1.9528913,114.92297
1.916422,112.25959
1.9657034,111.96364
1.8405443,107.471794
1.9219587,113.247505
1.8896106,107.47288
1.8378991,113.32068
1.7182992,113.39579
1.7858688,108.82828
1.690672,107.44689
1.726629,110.4736
1.6454694,111.16931
1.6085533,104.20294
1.633852,99.79946
1.6750809,104.20727
1.6642153,95.352554
1.5261161,96.84194
1.4978639,91.79065
1.5049748,95.54201
1.4639379,95.28761
1.578657,92.779495
1.4631909,91.53246
1.4836816,86.6467
1.4259806,87.96439
1.4385301,84.45015
1.3609272,83.77286
1.2708527,79.475815
1.3059804,77.52943
1.2878618,78.29077
1.2140471,76.06425
1.1133906,74.87636
1.0099149,71.61051
1.0220292,72.56893
1.0976617,72.52935
0.95453495,68.1588
1.0464174,68.490616
0.9524056,63.51053
0.90052444,60.828125
0.9096075,60.11628
0.91343325,54.35454
0.913157,60.222538
0.8660491,56.168262
0.9450351,54.213932
0.8894412,59.016975
0.8474298,50.24682
0.8654518,52.42402
0.89970654,53.851734
0.7279637,52.656754
0.72999376,56.028194
0.7441714,50.74951
0.66255075,53.26108
0.57395256,54.68017
0.6517994,51.79752
0.5200726,52.020683
0.5518231,57.824085
0.54679734,54.359226
0.57512957,62.43179
0.56017876,60.40906
0.6434482,64.3913
0.7141628,66.41089
0.89700896,64.93615
0.9869195,70.87697
1.0399269,67.85705
1.1712484,78.995476
1.29136,80.62448
1.373075,81.198
1.4832704,87.630486
1.4801466,89.57756
1.5818582,93.94384
1.7297988,95.272865
1.7179089,103.39675
1.777573,98.059814
1.9219345,99.96052
1.8151671,103.433846
1.8759738,102.04889
1.9861677,110.524864
1.896119,105.06599
1.8597479,112.08979
1.9295855,107.275986
1.8774844,109.71601
1.8643194,113.47957
1.8605223,112.884705
1.9079654,114.35315
1.8433504,111.80729
1.9383249,110.08841
1.6631815,110.30292
1.7430899,115.493904
1.6765033,109.55601
1.6521517,108.19379
1.695086,100.936935
1.6250612,104.37879
1.5395688,103.8408
1.5697234,104.4946
1.4954925,100.71375
1.3593819,102.97136
1.4389415,103.1099
1.4134537,97.9625
1.4264739,85.98227
1.4435619,90.97399
1.3261651,87.988106
1.3470755,87.11255
1.3045549,81.95415
1.3850456,87.86414
1.2971737,83.80899
1.2222034,80.78633
1.3109158,79.039604
1.0715374,78.81188
1.1989694,75.18285
1.0913731,71.31832
1.0002937,74.11257
0.93673426,77.78242
0.95177287,76.62899
0.812564,64.988014
0.90514684,68.26844
0.8569914,65.92232
0.7214824,65.413666
0.80072296,64.716034
0.6742191,61.189137
0.7621791,60.68811
0.7567781,56.990543
0.67339075,57.702312
0.78548217,61.22636
0.6608192,52.54577
0.7010874,53.191174
0.67426443,53.7765
0.6642451,51.14047
0.62734085,55.390156
0.5714437,57.008274
0.4808395,51.297894
0.48459885,48.55862
0.37909204,48.717777
0.4039148,51.755657
0.32363614,56.91223
0.30899578,56.39582
0.36537716,59.738792
0.3076622,57.9236
0.4343736,59.588726
0.50620633,64.692444
0.58679503,67.87347
0.6175134,68.33027
0.7202868,71.386475
0.78227365,74.72049
0.9283061,79.532906
0.95914125,79.95152
1.0295889,89.07149
1.1887702,82.8171
1.3064548,86.88105
1.3497745,94.00155
1.4501065,99.661804
1.4533066,97.56571
1.4717609,98.63908
1.5898484,101.73446
1.6052303,103.005714
1.6796279,105.29344
1.6447736,107.81644
1.6354821,110.19506
1.6596817,110.973206
1.633515,109.98201
1.6843982,110.0686
1.7020787,109.59455
1.5243189,109.80516
1.5964276,115.42314
1.5145328,117.48805
1.5991366,111.12523
1.501232,111.00225
1.4147259,109.20929
1.3669742,109.94058
1.3287803,107.94455
1.3163804,108.18854
1.2753747,107.46211
1.3375967,104.45777
1.249651,99.302246
1.153843,102.61011
1.1555185,98.1284
1.0987612,96.37202
1.1582215,93.12426
1.1341556,95.50917
1.099372,92.42216
1.0900259,90.78571
1.0817977,88.00185
1.0675473,92.232605
1.0366226,90.90197
0.99283975,83.68946
1.0320733,85.95332
0.91692954,78.54792
0.87729686,80.039604
0.85512894,79.43268
0.72842216,80.29309
0.72687286,73.37472
0.65979075,70.56313
0.65446556,69.5003
0.6691489,69.549805
0.52410746,68.55746
0.5118812,67.425995
0.5320862,66.96188
0.5483061,59.102764
0.47164977,60.900425
0.5229231,59.74946
0.502219,59.46236
0.5562206,61.514465
0.4798254,56.380985
0.35678396,56.628056
0.38750795,54.219208
0.44795266,53.796913
0.37021232,51.34242
0.24276042,56.058216
0.29272205,50.983826
0.2214256,52.235786
0.2161308,49.6257
0.090537965,53.745785
0.098931916,55.779793
0.06002839,60.606087
0.09439646,61.81209
-0.033077393,59.564507
0.06119543,58.524467
0.08373105,62.443745
0.23005779,66.82571
0.27999777,62.908867
0.3373958,72.111244
0.4395149,77.33558
0.5539915,71.749626
0.7251147,76.72042
0.77911925,77.596344
0.87061316,83.819725
0.93611604,84.87144
1.0435572,94.118065
1.1292939,90.085365
1.1340292,96.23958
1.2620006,98.166885
1.2732831,98.86902
1.3473425,100.993225
1.3790737,103.104095
1.360718,108.424355
1.4161404,105.349846
1.466339,110.27941
1.4118958,114.43806
1.4091715,113.55351
1.4212772,111.61253
1.4024162,110.94594
1.413499,111.879585
1.305478,110.82098
1.2381806,113.834236
1.236621,108.85499
1.2319788,110.26543
1.292446,107.31652
1.2153983,110.12263
1.2417493,108.957184
1.0854843,106.9687
1.1046344,103.53778
1.0409085,107.83543
1.0930259,102.515526
0.9928694,102.75811
0.9532523,100.6698
0.9526121,93.29879
0.89345497,95.14672
0.93171424,90.708084
0.894013,92.07329
0.9271863,89.5557
0.9558072,89.57173
0.8947802,88.90687
0.8709148,89.59286
0.83575845,80.14208
0.7740358,81.956985
0.69539535,78.58116
0.69606996,81.2392
0.6538839,82.68518
0.46523598,76.55785
0.5573087,76.37431
0.46693882,72.18326
0.4891295,69.43189
0.44829792,71.21445
0.34674183,67.826096
0.3865021,67.63749
0.321561,63.37373
0.3661631,63.570778
0.3718534,65.547424
0.2557564,62.653034
0.30497456,61.992374
0.33588058,56.23789
0.26472443,57.69121
0.3201688,51.0777
0.2830195,52.02786
0.14037535,47.866394
0.21167192,51.33678
0.15285435,52.302803
0.07353417,54.262314
0.09590318,51.886635
0.010513735,52.186275
-0.0777109,55.62347
-0.03469388,54.15922
-0.05534311,53.801617
-0.11402727,55.72911
0.022675518,53.054848
-0.07118064,60.211224
0.02010817,62.965527
0.105425484,61.931087
0.19196914,66.87983
0.37695125,68.73075
0.44859335,67.489746
0.44625673,71.053795
0.5515226,77.2692
0.6752221,79.78431
0.71691674,81.20898
0.8748973,83.8484
0.99036807,86.54617
1.0007675,89.15161
1.1531789,95.45236
1.3093102,102.00489
1.1991947,97.6513
1.3204684,101.25775
1.3079288,103.77082
1.3595381,104.38478
1.396674,108.94288
1.3966326,110.08718
1.3548212,110.678696
1.3869988,108.12392
1.3890042,114.38161
1.3636014,111.82743
1.3555617,114.62851
1.288856,114.4628
1.3784046,112.90299
1.3606879,112.36635
1.3185886,112.29486
1.1820178,109.1171
1.2056006,109.89785
1.1986382,109.38501
1.1685871,109.63641
1.1230779,106.00724
1.1429324,105.551994
1.0822581,107.31876
1.0362902,101.477936
1.0152733,100.57063
0.9914214,95.0675
1.0012058,96.71013
0.89451987,93.98746
0.9547171,94.2754
1.0517176,86.72847
1.0489489,92.79884
0.88536024,89.25801
0.9402296,84.30537
0.837253,83.983116
0.87294555,83.00498
0.8156841,80.220345
0.7534229,77.331894
0.74876136,84.21294
0.6761914,78.35341
0.57987034,75.91751
0.5368639,72.889755
0.51106596,69.76868
0.5240227,68.89732
0.47484186,69.15969
0.4591329,66.019684
0.45279208,60.009354
0.36708128,63.82763
0.4166776,62.773537
0.45704532,61.32403
0.43429852,61.586193
0.41783515,54.873913
0.45270514,57.750084
0.42760086,55.68076
0.44229206,51.41303
0.43688983,55.974693
0.30843222,52.529556
0.32333663,53.489166
0.2740532,52.39545
0.19796658,55.983948
0.24427679,51.679768
0.102352515,55.226406
0.15681003,57.03852
0.07546693,54.47175
0.09069678,54.67513
0.08343949,63.83568
0.12271757,56.435047
0.2903354,60.28843
0.27571005,63.676605
0.2945972,64.89122
0.488689,68.2117
0.5268025,72.74423
0.6117864,73.29275
0.75687116,76.31894
0.818609,78.39488
0.9686347,79.22508
1.0954831,87.80559
1.2489789,88.04009
1.3178498,89.77143
1.3286468,94.804276
1.4515615,95.54209
1.4171063,98.00937
1.504076,100.83048
1.5002414,103.69146
1.567064,101.41908
1.502135,114.913635
1.5458071,111.829155
1.6056505,110.953545
1.6203207,111.78887
1.707985,112.77561
1.6296805,114.285034
1.5870792,115.28174
1.6381361,112.434906
1.5765772,111.18196
1.4769981,113.962456
1.5551836,112.59944
1.5044726,109.779976
1.4061399,109.01996
1.344784,108.9069
1.4129721,104.619484
1.3069136,105.86382
1.3524432,101.22653
1.2280507,103.79985
1.226844,97.942696
1.2490035,96.98029
1.2842561,94.47328
1.179517,93.07818
1.177066,89.747185
1.2291317,87.725136
1.1967814,91.50769
1.281739,88.54043
1.1845049,91.88933
1.145565,84.456024
1.1537299,82.43377
1.1214678,82.004456
1.0828509,82.11275
0.9917936,80.46842
0.9924175,79.845535
0.9122013,74.79713
0.8519999,76.208755
0.9677761,71.4988
0.7854887,74.51802
0.8105511,70.41321
0.753267,66.47645
0.7550271,64.35511
0.7328782,63.074265
0.7681089,60.93957
0.79547405,64.06041
0.7774049,58.83398
0.79270214,58.469532
0.69456375,56.14374
0.7279194,54.38407
0.7508096,55.97395
0.72425425,56.50082
0.68190056,55.03839
0.6536054,50.531883
0.6645708,54.436085
0.5450912,50.708237
0.5481476,54.25367
0.51495874,56.117516
0.4371057,57.14431
0.37230486,53.127033
0.26251063,58.691765
0.46206173,54.32061
0.45558545,62.290203
0.31318936,61.453968
0.5131834,64.325516
0.60201126,63.71377
0.62082106,65.398994
0.769789,71.59053
0.8439468,70.724655
0.9908263,73.4523
1.0379729,78.83942
1.1769077,81.3334
1.2306062,82.239334
1.3653705,87.78821
1.4795839,89.86078
1.5869176,91.07144
1.6583161,95.17357
1.6287805,98.30824
1.7561246,99.587006
1.7928382,102.76321
1.8065268,106.632576
1.8632624,107.25077
1.9428098,107.702896
1.8161917,112.73361
1.8453438,106.891464
1.9296554,109.60824
1.8129549,110.62325
1.8982906,114.92824
1.8483995,113.863396
1.8757392,114.67575
1.7903992,113.87544
1.7280425,110.072044
1.7826283,110.07188
1.7021253,111.09773
1.6813333,110.83857
1.6970265,109.37867
1.5839478,102.80509
1.6433877,105.34436
1.6400098,107.05495
1.5320541,102.87859
1.4919215,99.620995
1.5017723,94.93579
1.4314826,100.3151
1.4488355,91.79269
1.413688,93.379
1.3985187,96.87456
1.4583722,89.89852
1.4565867,89.12348
1.397533,85.096535
1.3632396,83.8648
1.4017128,84.5235
1.3271557,82.99689
1.3589785,84.69517
1.2712721,77.681564
1.3107699,78.4611
1.1565585,77.01264
1.1307174,76.23501
1.1435196,76.51444
0.9882458,72.689735
1.0344464,70.83685
0.9290688,69.76369
0.92479473,66.22389
0.95047987,66.697395
1.0081909,62.524734
0.8756045,62.47415
0.88337165,58.119324
0.91664,60.820446
0.86678183,57.3118
0.9101921,55.755802
0.855474,54.873344
0.8903273,50.61475
0.8201803,53.548977
0.8291388,57.78311
0.76125145,50.02777
0.7681414,50.168697
0.66689,52.26595
0.6826525,55.797462
0.602046,54.73699
0.607339,56.55903
0.49548244,55.272625
0.5289577,55.22619
0.54800767,58.200485
0.6140032,54.207474
0.6584065,61.288128
0.7622287,65.04202
0.7637401,64.951584
0.83582336,68.39296
0.91397536,76.11174
1.0763546,72.64007
1.1842626,76.9609
1.3297788,80.53922
1.4773827,83.3586
1.4743441,85.02839
1.6359489,90.131874
1.7095596,94.281395
1.6873168,90.23116
1.7412887,96.70563
1.8007096,100.60294
1.8835346,100.218925
1.8549429,101.743256
2.0216608,112.15951
1.960581,111.15565
1.9910889,110.67852
1.9449133,108.52377
2.0417628,111.514015
1.9247506,109.569565
1.9356172,108.17789
1.9258658,113.16045
1.9543219,117.85821
1.8768554,114.52376
1.8967429,114.121
1.7190318,109.4036
1.7583182,107.10234
1.6740772,109.616425
1.6105887,104.67719
1.6180049,104.20167
1.6312488,105.22953
1.6482476,101.643425
1.5600878,99.010765
1.5334357,103.07103
1.497308,102.57829
1.4834781,97.463394
1.4718459,96.6141
1.4661452,90.90742
1.5115703,94.75918
1.4060383,92.46393
1.4602344,90.58463
1.4106452,88.154816
1.3943859,84.37886
1.2509292,85.469765
1.304995,83.18356
1.3009076,79.68853
1.1995975,79.87725
1.1779063,74.76744
1.1186348,74.62594
1.1254785,78.35961
0.96429765,75.32114
0.9175553,70.7111
0.89039254,66.5232
0.93548363,72.20319
0.8704693,66.75934
0.9006712,61.602676
0.89570284,61.296917
0.86948055,58.856117
0.93285316,56.946346
0.86275995,56.64581
0.7936525,56.99219
0.7743354,55.52881
0.8017527,55.03843
0.7295845,53.10686
0.7219094,52.231445
0.67614514,49.11263
0.66173613,51.941364
0.5226093,50.838676
0.5369889,53.689747
0.513381,50.125614
0.4032286,50.982143
0.39916328,54.482193
0.32543245,56.16243
0.5148829,57.62396
0.4386158,55.50081
0.4418599,61.42789
0.45036718,67.36371
0.6037117,64.68812
0.6444409,68.35903
0.6951854,70.96749
0.82545096,79.073875
0.8944069,70.72886
1.0617833,77.36247
1.0867622,82.44259
1.2278392,81.952866
1.365484,89.92713
1.4100184,88.003235
1.5057461,93.300766
1.5415685,89.84145
1.685746,96.208824
1.5911434,98.58331
1.7721573,102.13022
1.7226173,107.1626
1.7458696,110.95666
1.7789444,110.45971
1.7648194,111.3754
1.8496858,112.40637
1.8036916,108.01564
1.7111068,112.41882
1.8216457,113.752754
1.7352557,111.790794
1.6759216,113.58445
1.5812473,111.421005
1.6299424,111.56475
1.5778086,110.527695
1.5920297,108.19258
1.5296249,107.34994
1.4895754,107.47889
1.3730968,101.84731
1.342354,103.423325
1.4686356,103.72049
1.3583355,104.14937
1.2625402,99.852455
1.3134648,94.84375
1.2557062,98.66837
1.2953845,97.19066
1.1963357,92.7355
1.1616981,89.28108
1.1605613,92.8729
1.1910003,87.59887
1.0917299,92.383
1.101148,85.83439
1.0963567,89.034355
1.1229202,83.44813
1.1231296,75.94083
0.9184684,80.189285
0.91800255,79.97842
0.8796865,74.29707
0.7449803,69.69171
0.8057254,70.323586
0.67167336,70.8094
0.6716156,68.8763
0.6623749,66.042885
0.5967774,65.42952
0.55832267,66.68813
0.5818367,64.10758
0.522263,62.846817
0.584897,58.747974
0.49150118,61.21276
0.5760499,60.50141
0.6137233,58.957035
0.55746025,55.436092
0.5272711,54.76448
0.4548093,54.038605
0.4530569,52.21137
0.37721372,54.517517
0.30957353,50.633274
0.33811992,49.235985
0.23160475,53.57189
0.22498186,53.50041
0.12691571,52.107586
0.16052763,55.625584
0.12353714,63.97236
0.1721759,57.14376
0.120577164,60.589108
0.17836712,61.71097
0.26165628,56.73505
0.40796256,65.961655
0.4149111,70.504265
0.49325088,70.79333
0.6982443,74.8707
0.69507605,78.861664
0.7902329,77.27751
0.9446354,85.5076
1.0907751,89.201164
1.1849728,88.637985
1.2066816,93.77017
1.3027138,95.88161
1.3646775,98.28339
1.3307314,99.931366
1.325881,100.74551
1.4629626,101.524025
1.4766967,104.110535
1.4689922,108.85657
1.549009,108.09202
1.4538245,114.92853
1.480546,108.34949
1.5061693,109.91283
1.386884,107.96872
1.4253557,116.02691
1.462927,110.19198
1.3381674,112.06396
1.3851697,107.99935
1.3498367,112.96815
1.2247729,104.8737
1.1875267,108.13248
1.2072098,104.80354
1.1789266,111.35751
1.081014,106.373924
1.16086,100.26088
1.0381259,104.28091
1.0398722,101.74395
1.083275,100.35473
1.0216173,93.14928
0.97904843,95.069496
1.0629642,95.35553
0.92387235,91.33878
0.8831761,87.55073
0.9160399,85.9155
0.9650416,85.94654
0.92078555,88.936005
0.79694843,86.50147
0.64479715,82.72647
0.71415,81.32205
0.7887607,76.00117
0.6482478,78.4942
0.5904333,76.43809
0.57885736,76.10222
0.5023563,71.73537
0.45171836,69.3217
0.3779265,66.01168
0.44121295,65.55751
0.45071417,65.29422
0.36194715,64.7879
0.35116106,63.929787
0.35968202,60.788387
0.42249966,62.367664
0.3858475,57.195248
0.38513452,61.219658
0.3321059,52.0706
0.25853762,55.752155
0.3257119,55.41763
0.30815312,53.445667
0.19443266,50.732594
0.13863584,57.157944
0.13850762,53.74779
0.053939708,46.95249
0.065911524,49.31039
0.020691827,54.13884
-0.049570944,56.97505
-0.058533583,51.915504
-0.034947664,59.12815
-0.04278151,57.96892
0.11489372,59.974415
-0.02101176,65.39097
0.17666453,63.517315
0.1631864,67.66286
0.24595699,66.9919
0.41366938,69.89807
0.41832417,74.59507
0.5214406,77.43762
0.73534733,84.13143
0.7676915,85.075226
0.96440303,85.47543
0.96091217,88.99743
1.11144,93.499466
1.1151224,96.30178
1.2332991,102.89802
1.2664827,95.43094
1.2724278,102.747604
1.390427,107.68178
1.2871217,108.81306
1.4113699,109.65527
1.360229,108.78422
1.3513272,110.50199
1.4693539,113.066574
1.3285972,112.18119
1.3556315,114.3077
1.3393558,109.02646
1.3373072,108.04997
1.3270184,115.91842
1.2145516,114.4376
1.231834,109.62177
1.1899971,105.482956
1.1745076,110.017166
1.057535,105.13456
1.1494938,103.85033
1.028965,101.597885
0.96227044,102.49129
1.0007129,98.19429
0.98101723,103.76953
0.97725356,101.0252
1.0057681,100.07892
0.972406,94.61589
0.8677077,92.35693
0.9662959,91.02273
0.90295553,95.91716
0.8999926,86.06673
0.8965397,87.2939
0.8477626,79.72169
0.8683886,81.360695
0.7426932,79.66397
0.76639223,84.74723
0.75174373,84.57846
0.70978665,81.866844
0.6015915,80.06434
0.49361357,70.65157
0.44624913,72.30772
0.4577722,73.29368
0.48975104,65.086914
0.35828948,72.65605
0.3753794,64.64709
0.32896233,64.48989
0.36818448,59.534817
0.3477338,60.73258
0.45014226,57.38593
0.35783857,60.95795
0.3649876,59.748302
0.39351982,53.739613
0.28089443,52.3139
0.3908288,53.47061
0.250762,56.40012
0.24796988,58.196
0.265262,51.755325
0.15692501,54.06372
0.048924427,55.56682
0.12243946,50.567112
0.09195338,56.687313
0.038601458,58.548424
0.021007968,55.771076
-0.022837387,55.64332
0.107907504,59.71195
0.003600118,60.64415
0.14943784,61.657166
0.24100009,66.35691
0.4030256,67.5019
0.38448834,66.679565
0.48481756,73.380775
0.5223514,76.150276
0.73465,74.48989
0.74590915,82.93611
0.92461556,85.09384
1.0204257,90.599556
1.0366817,91.006996
1.2810948,93.13507
1.199584,92.6681
1.3379923,96.95248
1.345861,97.13897
1.5028852,103.00685
1.4427941,107.25922
1.4975547,105.92442
1.5029802,104.147896
1.5521983,110.27574
1.4747617,109.73091
1.5700761,113.14365
1.4711504,112.45723
1.5061818,109.12622
1.5407323,109.742294
1.4575227,111.55263
1.5458653,113.31305
1.3873821,110.21096
1.4377518,104.794464
1.3161888,105.50672
1.3845309,108.2806
1.3979906,108.84518
1.2890222,107.48609
1.2321441,103.651184
1.2275295,105.112816
1.1471277,101.38887
1.1306409,96.7368
1.0895381,99.64453
1.1467949,98.91847
1.1205323,90.18627
1.086675,89.89095
1.1639873,94.08259
1.1019216,90.039246
1.1371758,90.83176
1.1203364,86.28549
1.0149913,86.043755
1.0598673,86.7779
1.0493454,82.91549
0.9787914,79.55022
0.89417005,78.81626
0.8468158,76.42884
0.90625876,74.40995
0.7655468,72.726715
0.67970085,71.625946
0.6770662,72.66314
0.65832406,67.91742
0.6679547,64.8208
0.69613683,63.111343
0.59914994,60.684586
0.67824256,61.16112
0.7177155,60.705513
0.6154053,61.127182
0.6633853,60.08917
0.5724043,53.073547
0.6315891,54.441395
0.5481614,56.879066
0.6170603,56.222244
0.560422,49.73358
0.5977912,54.10988
0.48207372,52.9847
0.45492917,51.92066
0.42522624,47.697166
0.39071822,53.66338
0.32059127,53.81284
0.35207003,56.904266
0.29600173,53.406277
0.28605697,58.35107
0.27876383,61.202976
0.33002552,59.729046
0.36321458,66.9207
0.5099978,61.92461
0.5608405,70.80592
0.63275677,68.29816
0.8807342,70.166245
0.883799,75.295006
1.0785311,82.34965
1.1721628,79.630394
1.1537474,87.476135
1.3566847,89.39325
1.3714398,93.72792
1.4952773,89.64106
1.6031904,94.28786
1.5739264,96.066925
1.6378804,98.400604
1.7359487,106.365074
1.7772069,106.5122
1.7325324,103.02304
1.777913,108.106415
1.8152722,107.37301
1.8995488,110.03555
1.8629221,109.138214
1.8552122,107.5399
1.826691,115.198814
1.8218411,111.2767
1.7628199,114.34875
1.7775273,110.51345
1.7389848,109.756584
1.705459,104.33442
1.6869651,110.52006
1.5651377,107.340576
1.6629127,108.33897
1.5700287,108.23387
1.5889754,102.83978
1.4882138,102.35334
1.4549137,104.14619
1.5113372,100.250374
1.432351,98.23414
1.4368926,94.63458
1.412676,93.34284
1.3407855,93.99198
1.4371712,87.34401
1.3012514,89.59017
1.3434417,86.77771
1.3242426,86.82367
1.3174585,86.351654
1.3749186,79.918976
1.2956833,78.70311
1.2922852,81.86992
1.13921,79.26079
1.0564607,75.66344
1.027333,78.828445
1.0223805,76.29373
0.93527895,71.04459
1.0073864,77.59977
0.90355116,71.15685
0.8257135,69.0479
0.8606642,70.711426
0.9172446,67.02537
1.0035185,62.981285
0.7512408,57.829296
0.8205353,56.042458
0.9442142,62.421844
0.8602173,52.817616
0.86699957,56.230576
0.9172944,52.348366
0.82985127,54.67713
0.780541,51.257294
0.760885,53.93483
0.75703806,55.221848
0.6591907,51.438126
0.6737079,53.43932
0.5874538,48.95826
0.5747681,50.42584
0.5084066,55.21093
0.547234,55.80752
0.64059925,55.9716
0.4600973,56.938797
0.6184527,62.600117
0.6448816,61.30242
0.7314921,67.226166
0.78655165,65.926796
0.81355226,65.63834
1.0693637,72.53759
1.1509436,78.99019
1.2093688,78.01325
1.3129991,81.022575
1.456843,84.85007
1.5600152,84.07455
1.6577046,86.5868
1.7058957,96.296524
1.7253988,92.636635
1.7552443,100.502785
1.7785157,100.51533
1.8771762,104.621635
1.916407,108.28073
1.9523153,104.980644
1.9552898,106.153946
1.875303,107.54648
2.014702,109.62806
2.0028062,107.82646
1.9543623,117.33478
1.9987795,112.90811
1.8686225,111.16848
1.8929564,114.14845
1.8752185,111.72652
1.8067158,113.52981
1.8378294,106.76243
1.7519712,107.85077
1.776812,108.03443
1.7139184,105.298416
1.6746885,110.00759
1.6888491,103.69238
1.6422026,106.470436
1.5492737,104.98327
1.5374569,98.49803
1.6101446,95.09581
1.5162764,93.34566
1.3866855,93.47505
1.511355,94.30844
1.473173,92.391464
1.5319816,89.91624
1.4132677,90.27116
1.4497715,85.93691
1.4479884,83.54841
1.3247397,86.99927
1.3174284,83.69478
1.3223797,81.85221
1.2384752,83.83585
1.1998816,77.89924
1.1787785,72.00092
1.1106796,76.55404
1.0172547,74.16977
1.0236084,69.604225
0.9411729,71.170334
0.9701248,67.94123
0.8832905,67.13284
0.79754955,64.6018
0.88477653,60.16252
0.8572112,58.821365
0.88897717,59.65969
0.88007206,62.989178
0.9579501,53.1234
0.8943059,57.481937
0.8575222,52.954037
0.79169846,50.95308
0.6999348,48.386467
0.782815,49.544
0.7169685,46.857414
0.6677061,53.284523
0.59264374,51.617023
0.49491096,48.471043
0.5149625,52.24402
0.57305485,55.53662
0.43974832,58.726017
0.42730936,55.792526
0.544718,59.615143
0.6064815,60.079494
0.55484354,63.892586
0.5789292,64.90485
0.6438252,69.2897
0.81448644,70.75343
0.9881379,73.97058
1.0232081,75.06545
1.1750427,79.42777
1.2795941,84.795906
1.3785691,87.3466
1.3713567,82.452484
1.5012119,88.82827
1.6784036,94.85476
1.7010093,95.84283
1.7390692,99.180016
1.8226049,99.43489
1.8129648,103.84174
1.8360876,105.31314
1.8505785,106.79492
1.8260745,110.71651
1.84576,108.04379
1.9211596,109.24363
1.8402057,111.39315
1.8501346,109.19025
1.7654694,116.57918
1.7276195,113.079765
1.8314551,109.88483
1.7443457,112.58175
1.7533314,111.595375
1.7170749,113.013916
1.6703166,108.99818
1.5882832,106.67961
1.6005758,105.684685
1.5139967,113.0853
1.5080034,99.84219
1.4506472,104.07847
1.4519986,99.71949
1.4182616,99.95744
1.3761256,96.77755
1.3239962,93.57482
1.2998226,95.64385
1.4046254,91.27608
1.3011646,92.90959
1.347787,84.64789
1.2718606,87.42855
1.2428659,86.482635
1.1704912,85.2196
1.0475862,82.17222
1.1492326,80.46144
1.1238872,81.34073
0.978993,76.88262
1.0549717,77.08178
0.9590781,75.5359
0.87539625,77.99518
0.8115729,69.81796
0.76316965,71.58675
0.7376237,70.36474
0.8346235,67.76514
0.7389475,65.78846
0.61515635,64.10952
0.66553706,61.62521
0.6927876,58.867096
0.77411777,56.75433
0.6409976,55.684002
0.5935111,56.8484
0.6996896,53.585716
0.572609,61.019173
0.56363505,55.465115
0.5167316,54.95805
0.5356939,51.915863
0.48815164,49.819866
0.44165593,52.309822
0.3283529,47.98814
0.35456792,53.168697
0.3654945,56.046387
0.16504696,54.445072
0.21667549,55.454105
0.23039953,57.477673
0.27070814,55.44811
0.3049683,60.161198
0.26278567,60.24731
0.438929,66.831184
0.3459559,69.995766
0.5253433,70.65123
0.63748163,73.29514
0.8332931,76.94571
0.94919205,76.876045
0.95679325,80.955894
1.1040014,86.54748
1.213225,83.64059
1.30388,93.46072
1.307157,91.258095
1.42344,90.33517
1.4325639,100.4794
1.4580543,102.312996
1.5395491,101.0606
1.5863444,103.12741
1.61568,107.51319
1.5417366,107.065186
1.5661936,104.23148
1.5756068,111.020035
1.5413461,112.95753
1.561631,112.38584
1.6023201,114.46078
1.501279,110.19984
1.4596282,115.5716
1.5214503,109.96851
1.4155654,113.83336
1.3633673,107.26729
1.388739,108.85556
1.3034981,107.49467
1.2533545,108.74475
1.1932172,106.361885
1.1146135,104.72232
1.1964188,105.03682
1.1410272,106.06372
1.1576979,100.70224
1.0955312,99.80901
1.0079176,99.00888
1.0616864,93.56259
0.9848843,90.807556
1.0352685,90.64296
0.9952761,90.02682
0.95730454,85.54808
0.9566965,86.16168
0.90246,86.16128
0.9030022,84.86683
0.8469803,84.72881
0.8626731,78.1804
0.80413026,75.991165
0.8278773,77.56539
0.6274242,77.17988
0.586011,74.08904
0.616418,71.74205
0.5138027,67.037415
0.4367628,65.86333
0.5148176,61.75039
0.42963547,66.283424
0.45403865,64.36847
0.4150305,60.144176
0.38852185,58.80108
0.35774213,57.08911
0.42002857,59.763954
0.3237544,52.629375
0.39564183,57.052906
0.3262798,57.045197
0.29584372,55.02289
0.37398693,56.876865
0.25262687,47.11108
0.19554833,56.11983
0.19547752,50.582188
0.19083735,55.00532
0.10184115,53.144356
-0.0010138104,54.640343
0.0431771,50.510155
-0.0015526385,55.376667
0.09323418,57.85389
0.03450944,62.08839
0.03362948,55.428864
0.03975179,60.61463
0.17162386,63.49668
0.26932177,71.19594
0.37495714,75.39535
0.4662144,76.629364
0.6020205,78.29786
0.7967686,82.893654
0.82599115,84.45872
0.84425557,78.15663
0.94358987,88.728775
0.99636793,91.17087
1.0600212,92.34501
1.1776913,98.32164
1.2514263,96.16335
1.2305229,100.67886
1.3403252,104.82693
1.3123811,115.28901
1.3474412,110.895294
1.3406833,106.02258
1.4282941,110.41094
1.4376533,114.47078
1.3259702,112.34888
1.3386819,112.17072
1.353332,112.83151
1.284209,110.47485
1.2684213,113.0396
1.3172828,112.20176
1.2327446,113.03588
1.1493363,107.67276
1.144032,109.0019
1.1740896,107.411835
1.0659148,104.618935
1.0201918,101.812164
1.0960447,106.8424
1.0522999,108.11134
0.9169694,96.750824
0.9874223,105.5375
0.90725887,98.45496
0.89758945,98.149796
0.94997716,95.19422
0.8843127,93.56905
0.90462536,88.989105
0.8039275,88.915794
0.8638416,89.857765
0.81366813,88.1356
0.7756832,83.9325
0.65800697,86.94229
0.71388805,80.66553
0.57165736,78.2826
0.722117,79.00515
0.49752522,77.119064
0.56837285,79.83329
0.49737737,73.40778
0.5677587,70.61966
0.4451512,66.44341
0.43740228,69.208565
0.3523608,64.44354
0.2832709,65.42565
0.33524665,60.06515
0.33339846,64.117645
0.3184858,62.03511
0.3466638,58.39332
0.27148646,56.351036
0.30875176,58.683098
0.31146923,58.60259
0.19794364,51.1307
0.34315598,53.058044
0.3071023,43.94052
0.20735146,50.59644
0.164708,53.274185
0.13596784,52.71715
0.06258656,50.671494
0.015291727,48.944347
-0.01034658,52.53977
-0.018094262,52.43462
-0.011133679,54.422657
0.03339957,55.9978
0.054715823,59.865685
-0.007471707,61.859207
0.05834554,66.63881
0.17171778,66.12763
0.2653409,69.082825
0.33675915,73.22984
0.44866368,72.25941
0.4577079,74.61293
0.69521946,76.38111
0.7785459,85.46142
0.79096276,87.02622
1.0324328,84.95046
1.0527681,90.683784
1.2071029,91.66644
1.150507,96.631065
1.37746,100.83162
1.3946997,103.445724
1.3206438,103.88547
1.4177978,102.83957
1.3285944,106.17171
1.4357245,108.45597
1.4320582,109.709656
1.5910887,116.95743
1.4388254,110.7468
1.4463105,115.96696
1.3467097,113.439735
1.4448653,107.42969
1.4030807,116.12852
1.42245,112.525
1.3757503,111.09709
1.293603,109.422264
1.2281872,110.51119
1.3299994,105.75194
1.2036405,105.58877
1.1423826,104.75245
1.1429604,101.27846
1.125289,101.31035
1.0786242,102.376205
1.0443732,100.92403
1.0840784,98.04854
1.069912,97.28595
1.0584897,93.24368
1.059861,93.42105
1.0913694,93.139656
0.992438,86.69957
1.0279713,91.54109
0.97659945,86.79076
1.0419242,81.09877
0.898676,82.760025
0.9472742,80.89401
0.8330566,80.334816
0.75473017,77.27868
0.72889614,78.89092
0.87097996,73.44388
0.63206166,73.32462
0.67418736,70.6738
0.6063161,71.08916
0.56119764,62.366276
0.57505757,72.00351
0.4802731,61.783886
0.5445185,64.170715
0.4759302,64.83922
0.6008872,63.014423
0.48865563,56.77839
0.5795318,62.74717
0.60385233,54.16103
0.49075252,54.579678
0.54274356,51.87297
0.4476457,50.07637
0.47203648,53.297554
0.3642669,51.540817
0.36046094,54.78855
0.35402763,50.786163
0.3382324,49.964874
0.24274273,53.598602
0.26388124,49.719757
0.18137157,50.553345
0.2184037,56.022633
0.22524287,60.076786
0.25634524,55.077457
0.21386774,63.126263
0.32526863,61.2573
0.43843812,65.259415
0.4650862,70.623924
0.6437358,68.58081
0.6618707,69.72305
0.82697666,73.484665
0.9284614,78.80756
1.0398781,84.28418
1.0542676,84.55578
1.2682621,88.00412
1.3169771,91.74605
1.390687,88.739395
1.5465422,98.96388
1.5135468,99.52486
1.6164571,104.237625
1.6860627,102.17139
1.665154,107.535095
1.6893802,102.810555
1.66907,106.86753
1.6736033,108.04928
1.6921846,112.747086
1.6888694,115.30771
1.7359463,108.9796
1.704206,107.59021
1.6876073,112.77453
1.6770717,111.424034
1.5996879,109.63383
1.6761373,107.540405
1.5861385,110.90197
1.5383031,110.401566
1.477902,106.86439
1.421475,106.90363
1.419499,109.47886
1.3211057,103.40102
1.4574834,100.2966
1.425584,100.790726
1.3357223,100.24885
1.3776323,96.37947
1.3136134,94.33175
1.3361572,91.56371
1.2515292,96.44669
1.2640262,95.126396
1.2887099,91.53527
1.2547487,88.2127
1.2603357,81.83595
1.2548732,86.3853
1.2932781,87.81574
1.2037486,81.459114
1.0966487,80.66772
1.0945538,77.62349
1.0364354,77.879326
1.0297976,73.46075
0.9411361,68.87991
0.8987377,71.912544
0.915397,68.15788
0.854513,68.2705
0.747955,59.454914
0.8560578,67.04479
0.8348181,63.243687
0.8379307,62.564846
0.8148582,58.865284
0.70146465,64.25277
0.7469999,53.80117
0.78560513,53.58524
0.7446876,53.753414
0.7795462,53.038292
0.71234536,54.588917
0.71264505,53.876682
0.73357546,49.925358
0.665882,51.087025
0.5523359,48.304276
0.60416746,47.951126
0.5647412,51.88529
0.54347444,54.20807
0.41032937,56.62148
0.5176187,53.090378
0.5426587,57.71476
0.5365885,63.030178
0.4453241,58.89543
0.6479547,62.366352
0.6527448,68.635635
0.7893322,66.99399
0.9181999,71.81674
1.0452541,76.67988
1.1219429,77.65384
1.2169619,80.097145
1.330189,87.57411
1.3716799,86.24574
1.4986688,90.94694
1.5802809,89.59404
1.6156878,97.62096
1.7343004,98.155205
1.7922242,98.706474
1.8539928,104.30484
1.8506733,103.40037
1.8987805,113.31418
1.8453685,106.96752
1.8919125,108.91313
1.9572759,111.98894
1.9543064,105.843376
1.9871325,112.58908
1.8982159,117.356636
1.9189761,112.299
1.9053409,113.22692
1.9175633,113.000595
1.8141274,111.236984
1.7467377,113.08434
1.7746071,111.9639
1.7420119,113.03215
1.7479967,108.61407
1.706933,106.46343
1.604153,110.18584
1.6840028,101.655495
1.6366506,98.73806
1.6369525,101.03207
1.5812032,96.2468
1.6151781,98.56563
1.5369353,98.32764
1.4547842,93.03923
1.4838591,92.78194
1.5160075,90.422325
1.4405811,87.68415
1.4149966,86.44292
1.4866127,84.888275
1.382785,87.45036
1.3398968,79.27578
1.3369058,83.52101
1.311582,82.75069
1.1783339,83.66025
1.1296704,80.44753
1.1407955,71.99235
1.0918016,73.309074
1.0776337,72.05373
1.0306759,68.440346
0.9604203,69.41689
0.88893455,65.482155
0.9518522,63.618782
0.9078873,67.42654
0.9634139,64.4051
0.89769685,61.89398
0.97734195,55.26172
0.89820474,56.696648
0.9420834,58.670963
0.8634172,53.56286
0.8817141,57.14412
0.8478472,59.367023
0.8521115,53.583294
0.8049039,48.55726
0.7272252,56.688194
0.6890694,51.44316
0.67369896,58.430584
0.5929238,56.886024
0.5700433,51.487778
0.56973714,58.06606
0.5177528,54.27913
0.59298295,54.808773
0.5124973,60.78637
0.64722526,56.901657
0.69417053,67.6978
0.73592997,64.41999
0.82935286,65.76017
0.8790349,70.74144
1.091494,70.2873
1.1322471,75.020134
1.2807143,77.78796
1.3390082,80.631584
1.5194721,85.393486
1.547308,89.71288
1.5597097,93.8998
1.6774545,95.77386
1.7361486,93.95834
1.8038445,99.83248
1.8385754,101.7584
1.8412609,102.23635
1.9478883,107.22676
1.9574594,107.53005
1.9666802,106.74195
1.9971097,113.32063
1.8857528,107.78167
1.8691924,114.11892
1.8790745,113.973145
1.8286752,113.81433
1.7983322,113.35669
1.7566352,110.89271
1.8556931,108.77715
1.8048447,114.83243
1.7415936,108.48341
1.6288539,108.29157
1.6385288,111.92323
1.5166044,106.3728
1.6489441,105.78169
1.4470865,102.63883
1.5333389,105.39106
1.5487206,102.79222
1.5158458,102.897194
1.409932,94.032364
1.3963916,92.80687
1.4883952,93.46038
1.4403478,94.62232
1.3613292,87.91079
1.3418342,88.68559
1.4112893,83.94559
1.37747,88.22749
1.2803277,82.83988
1.2009256,81.50079
1.2071397,80.99006
1.0348723,76.44239
1.0987873,82.46657
1.0542991,81.43084
1.0378585,73.09147
0.9525737,74.12492
0.9513049,74.17727
0.8221184,67.69193
0.8921996,68.61363
0.8321503,65.9914
0.790492,63.940838
0.78913236,63.332516
0.7401282,58.172695
0.7610726,60.555458
0.760624,55.50813
0.6935742,57.64933
0.7141305,53.018032
0.6949407,55.84773
0.798368,56.729378
0.5830306,50.46748
0.67870325,54.2503
0.6149558,52.59693
0.5927561,49.824944
0.51135474,50.701458
0.42525887,50.952053
0.36676702,54.569
0.39135107,50.701336
0.3433188,56.897827
0.35108364,59.831043
0.39479807,58.358128
0.39705878,54.591206
0.39064378,57.787548
0.4274105,63.584743
0.561162,60.96174
0.6208654,72.97725
0.72893846,67.24705
0.77812076,68.41047
0.9000022,80.78276
1.055516,84.55686
1.0452021,80.74129
1.2368301,85.41065
1.3194224,90.08326
1.3255708,93.37288
1.3857273,95.5134
1.4859087,101.54451
1.5637323,99.06904
1.5980009,100.7053
1.5586277,104.09453
1.6652142,108.54991
1.6412932,105.088936
1.6834544,105.62883
1.7171108,106.82343
1.7086214,114.589775
1.5950164,113.65716
1.6130592,108.69623
1.614039,113.63303
1.6053252,114.2024
1.5772636,112.02038
1.4949472,113.50541
1.5639322,111.1083
1.4705427,111.894356
1.328149,107.448616
1.4698572,103.76178
1.2648138,109.42217
1.3511728,104.67741
1.2457598,104.31922
1.2259324,100.52123
1.1794657,99.55616
1.1477221,100.535545
1.176021,102.2667
1.1049093,96.57133
1.0800868,97.12066
1.1915839,94.257515
1.1234676,89.990845
1.0441065,91.9668
0.9835702,88.0878
1.0732098,89.65604
0.97425795,84.35465
1.022604,85.516884
0.822888,83.20654
0.9174331,82.31819
0.89123106,82.29404
0.7481187,80.08349
0.676231,75.14739
0.6182135,76.3508
0.61966777,69.94295
0.58092535,70.490204
0.55978,67.364296
0.48104355,65.64768
0.50637174,64.691795
0.53310335,63.171772
0.43094864,61.44155
0.51435095,57.96182
0.5508156,60.041996
0.49250832,56.10165
0.49786535,57.9102
0.4422283,56.171238
0.47395402,57.334007
0.40340716,52.59906
0.40650243,56.856663
0.30056277,53.105644
0.21376137,55.821846
0.2208531,53.944454
0.14865077,50.353027
0.11316035,56.437374
0.025685241,53.734203
0.09360059,58.05424
0.030170694,55.49906
0.113706306,56.071693
0.034539375,58.15536
0.13908982,62.51947
0.16007741,65.449745
0.29887614,67.991554
0.37908176,70.04411
0.46530962,66.77633
0.5749726,72.60816
0.7237678,80.122955
0.7878523,80.631386
0.8255447,78.96771
0.98528826,87.18813
0.97064924,87.973465
1.0882356,90.503
1.1788267,93.994644
1.1541206,97.61753
1.2258162,99.604774
1.3253613,101.91735
1.3689169,108.76203
1.3563765,106.47929
1.4079732,105.65812
1.3580508,108.899254
1.4340588,111.88818
1.457723,107.97631
1.3905897,112.86205
1.3844819,112.25665
1.4479432,107.41037
1.376082,113.72309
1.2818587,110.67718
1.2570438,113.24656
1.1874238,109.56589
1.1737446,111.815895
1.1812828,106.91624
1.1457989,106.5325
1.1176735,104.45682
1.1255662,102.42597
1.0065509,106.98502
1.076524,105.34788
0.99553925,100.46768
0.9227833,100.90799
1.0238568,95.83658
0.94363123,95.238365
0.8915513,95.31517
0.9288528,95.97783
0.8063382,95.074646
0.794531,90.899605
0.8326801,86.90628
0.8073599,87.21237
0.81498075,82.0951
0.80002624,79.1082
0.7292603,84.23786
0.6607954,76.40919
0.5915761,79.77004
0.5280117,79.58062
0.47055298,73.22666
0.44818783,74.297485
0.55244887,67.05981
0.41585147,69.03335
0.36497533,67.27629
0.41041,63.4539
0.36111772,62.686344
0.29480454,64.60329
0.26972452,59.697876
0.33552545,60.951313
0.2240453,59.44823
0.33456078,56.514103
0.36079508,52.288635
0.24991699,54.463654
0.32118475,53.587612
0.22871135,51.821354
0.26603055,56.071484
0.20740664,46.81027
0.17077455,53.06478
0.07115647,51.904625
0.055584878,52.779816
-0.073012516,53.295925
-0.07500765,55.124405
-0.07372333,52.22094
0.018658387,57.92464
-0.085210346,59.61219
-0.08366447,56.51704
0.014759038,64.24506
0.16091877,61.583874
0.14624313,64.082726
0.22594321,70.31518
0.37342903,76.159035
0.5055803,75.946495
0.5500706,76.99854
0.66449684,78.622574
0.8088132,78.82012
0.8774037,89.6905
1.0917455,87.48013
1.0471257,93.568665
1.1784077,92.851326
1.192544,99.4208
1.3221734,95.627846
1.3716338,105.5701
1.3329035,103.659454
1.3229868,107.6814
1.4234973,106.17012
1.3545574,110.59108
1.4356891,111.430565
1.4423558,110.66973
1.3493551,111.78873
1.3977108,115.619446
1.3684136,110.137566
1.38671,112.5339
1.3631186,114.03281
1.3646582,107.48478
1.2422415,111.77608
1.2885326,107.61938
1.226746,107.55232
1.1292422,109.86976
1.1359186,107.56675
1.0936414,105.688736
1.1293772,105.96598
1.0510247,101.23981
1.0459219,103.61508
0.98674715,101.78652
0.9707599,95.44301
0.95274144,95.14577
0.98846066,96.40991
0.9737612,91.151764
0.914001,93.70959
0.93766415,90.1446
0.8787734,90.67604
0.89810413,84.88677
1.0060455,82.39963
0.9286613,82.1036
0.7785848,77.619156
0.7926712,80.44031
0.75545835,79.123955
0.55063784,73.74393
0.58190674,76.97002
0.58062583,74.489975
0.4909098,70.60643
0.5201847,70.99151
0.4423277,71.63407
0.42159766,67.16707
0.41154063,68.20653
0.4188712,65.58622
0.4377488,61.971016
0.46265978,62.704205
0.46068922,61.375916
0.4104629,58.980316
0.37607598,60.947067
0.43543184,55.53576
0.39300802,58.326622
0.37121463,49.09136
0.35045955,52.69115
0.2923365,47.19084
0.32687825,49.066647
0.17994139,48.60525
0.12064747,53.545986
0.23635411,54.479393
0.19142689,55.13731
0.21251564,55.69936
0.16813585,57.982403
0.12003846,60.759003
0.15091775,56.267715
0.18688472,62.89842
0.27180856,62.122448
0.40246016,71.85688
0.4135736,61.25086
0.5013384,70.05703
0.6451516,73.74732
0.8002494,73.61631
0.83542186,79.42562
0.927551,83.25143
1.099012,88.791214
1.2017503,90.42644
1.2048538,92.75424
1.2941846,97.21876
1.3135822,92.36721
1.3531107,95.66682
1.5395492,102.73112
1.5288675,102.480865
1.6693647,103.22464
1.6025989,106.10597
1.5932539,110.41822
1.7009718,113.02455
1.5756104,112.35135
1.633553,113.69622
1.5949627,115.21916
1.6198165,107.825806
1.5781088,114.822296
1.663232,112.672485
1.5825748,107.77381
1.4656984,110.59321
1.4449226,106.48815
1.5023764,110.122856
1.4389967,106.820244
1.381686,99.08211
1.3671005,105.332565
1.3442625,106.487015
1.3623842,103.38252
1.2145634,98.92468
1.2528683,99.762215
1.2488848,101.20332
1.2902384,96.625275
1.2892337,93.304146
1.2085937,94.87553
1.2218043,90.959175
1.1040059,91.96061
1.2042638,86.43418
1.1212314,84.96302
1.1429483,84.55626
1.1153108,86.60609
1.1260405,82.34566
1.1271619,78.15262
0.98311245,79.46637
0.9634512,74.84604
0.90527314,76.764305
0.89699596,71.26228
0.76680773,72.40999
0.69110936,66.60204
0.75126106,66.922424
0.72600126,61.581398
0.7188564,63.319103
0.6992799,66.74725
0.6877694,62.528378
0.75872785,58.072845
0.7362228,55.953827
0.69729114,56.80692
0.7453206,53.537884
0.7912607,52.452385
0.7106677,53.049614
0.6808657,56.129795
0.5603664,54.159473
0.46129617,53.016827
0.5886442,54.135563
0.49370638,51.196175
0.45380843,52.335396
0.3390081,55.24175
0.38744375,54.634365
0.3834668,54.060253
0.36016625,54.689034
0.4103277,58.45209
0.48924592,57.25431
0.5040841,62.32017
0.5747303,59.21295
0.5339668,60.877758
0.7782271,63.55119
0.7757607,73.18439
0.91445124,76.10269
1.0174507,77.187126
1.1592287,79.206314
1.2508003,79.45798
1.4052039,87.20834
1.54697,92.281494
1.617259,90.42158
1.5973537,96.15593
1.6388999,97.765305
1.7137367,96.885254
1.7710593,99.38095
1.825801,104.5586
1.9241639,108.78275
1.8969566,108.27522
1.9179101,109.65399
1.9047722,115.93569
1.882076,111.765495
1.9476315,110.411255
1.8901103,117.07719
1.8133285,111.46194
1.8668448,111.46252
1.8369006,111.30096
1.708439,111.05488
1.7214789,111.43239
1.7093633,104.51482
1.7107804,108.328476
1.693448,109.55638
1.542504,109.80211
1.4614155,104.35199
1.6141409,104.58251
1.5979462,107.46371
1.5317687,97.40237
1.4577637,104.56867
1.5527266,95.85315
1.5279201,98.18932
1.4690499,91.24178
1.4542044,90.52251
1.3882211,95.922134
1.383127,86.14246
1.3629566,89.51198
1.355714,86.45692
1.3008636,85.11946
1.3183134,84.04592
1.2928301,83.619995
1.1975821,79.63064
1.2160035,78.40073
1.1203237,71.41733
1.1454524,73.80671
1.0534358,69.864265
0.97492623,67.255325
0.98454213,75.22114
1.0138638,65.603615
1.0344499,62.283924
1.008882,65.9263
0.9046154,61.435795
0.860873,58.332077
0.9170688,55.329758
0.9530404,57.80572
0.9266005,58.073055
0.8941899,53.76145
0.8922762,53.441128
0.8711382,52.38597
0.84440565,53.41067
0.82347393,53.207993
0.7844655,53.3786
0.7379673,54.057365
0.63997734,51.873
0.62499315,52.12081
0.58590394,51.640106
0.5501951,53.350574
0.5577063,54.47801
0.5693111,55.848072
0.53470135,59.32914
0.5426197,61.447346
0.5135623,60.54896
0.73596084,62.729923
0.7494577,66.422226
0.95902115,69.945694
1.0143268,69.89905
1.119965,78.85247
1.1604582,80.180176
1.2798654,80.67112
1.4408174,82.609314
1.5192885,84.02775
1.6166639,91.4774
1.6261568,90.12245
1.7611476,94.37637
1.841427,95.23427
1.8380902,96.994705
1.8842366,99.95159
1.9171606,105.44477
1.9183394,110.08103
1.910648,108.18069
1.9467161,111.23091
2.0511758,111.70977
1.9635493,111.25144
1.9517303,109.33269
1.9492539,111.78083
1.9010196,112.69253
1.9466321,110.348694
1.8949698,111.64133
1.9380717,111.214874
1.8201138,113.37638
1.7647824,106.27618
1.7483995,109.59481
1.6801319,107.29461
1.5955215,108.44957
1.6139308,104.74358
1.5857471,108.00673
1.5160336,105.9202
1.5973431,98.87147
1.5565228,99.48647
1.4699672,97.91272
1.51541,93.77921
1.4672604,96.046394
1.5338339,93.90668
1.4370323,90.079315
1.4045058,87.51147
1.4932561,94.59057
1.3295336,86.224785
1.3586287,82.51781
1.3342783,80.42833
1.2220918,79.3041
1.1628116,80.933464
1.1299675,76.368774
1.0790641,68.43868
1.0104474,71.88765
1.081094,66.856285
0.9340617,70.5818
0.858813,71.681915
0.9593637,67.14135
0.83896035,65.83137
0.8774729,62.778923
0.88403386,61.620556
0.8364986,61.44521
0.8983266,55.860924
0.7960155,62.131474
0.90232915,56.902515
0.89749795,56.354404
0.74600124,55.29053
0.7577305,57.567783
0.70004326,50.93663
0.73310596,50.924896
0.7750976,55.01125
0.6250549,48.131092
0.56827617,55.130863
0.63045084,54.131332
0.5023754,54.25622
0.4123924,50.040802
0.47148204,52.216827
0.49979976,55.347225
0.4260944,57.14395
0.46767896,60.061104
0.4892579,60.274296
0.5276744,62.76876
0.6276155,65.03096
0.722337,70.1152
0.8524791,71.058525
0.9493171,71.04478
1.0711535,77.61763
1.1394093,77.72663
1.2234194,82.60518
1.3657908,84.75064
1.3696009,87.26833
1.4784036,93.864944
1.6634505,95.56987
1.6817331,96.9698
1.6139112,97.61608
1.7079172,98.47081
1.7518207,106.71283
1.7078837,109.35238
1.7842842,107.8246
1.7790724,104.74868
1.7170386,108.00786
1.785088,113.81663
1.8190312,111.644104
1.7594926,110.71574
1.680092,113.76304
1.6658148,110.881836
1.6941855,113.76229
1.6268977,111.13258
1.5828984,108.715866
1.541401,113.69016
1.5111452,110.846016
1.4605625,106.14697
1.4364063,106.05353
1.3622013,105.6733
1.3862617,102.77501
1.293741,103.89609
1.3083508,98.224884
1.2700194,97.39997
1.2452738,98.29157
1.2155244,98.558914
1.1884353,93.28141
1.1450969,89.51736
1.1693299,92.45654
1.136031,90.29121
1.2371312,90.5053
1.1843306,80.88971
1.0901611,87.00347
1.023716,80.67176
0.9750833,79.80342
1.0092047,78.04682
0.8632897,76.99198
0.8125466,82.22303
0.77367294,72.91661
0.8395437,69.8046
0.68564284,66.51131
0.65931803,64.80107
0.5596492,66.37047
0.60532886,66.556404
0.60874975,60.226803
0.6379963,59.682835
0.54841924,64.42134
0.5884542,60.197926
0.57631797,59.984047
0.56298035,57.699116
0.62118345,51.824318
0.59197164,52.71033
0.5007402,53.68622
0.4314189,56.240753
0.45779058,49.431915
0.33308253,50.580894
0.33872965,49.22314
0.25382656,53.947693
0.31095493,46.837532
0.27228954,51.253834
0.16967833,55.09785
0.11220836,56.867756
0.07668833,59.15147
0.07814328,53.24691
0.21272734,56.58992
0.266297,62.078934
0.2808761,69.351494
0.4118825,69.6692
0.455143,70.620636
0.57197195,72.80363
0.6156563,74.3344
0.7550268,72.587166
0.810713,77.385216
0.89720803,83.02501
1.1352844,87.49956
1.1543154,90.13454
1.2769415,92.01776
1.2676591,97.84472
1.368027,98.799164
1.3847803,101.6938
1.3655279,105.79749
1.4488078,99.24452
1.3932716,103.49463
1.4813643,107.8666
1.4113957,110.77119
1.5028641,111.42457
1.5586789,113.49058
1.4880967,113.60829
1.4216542,111.61785
1.4408609,110.043045
1.4247551,107.86522
1.4517055,112.77552
1.2516451,114.38964
1.3530777,109.40413
1.2095805,107.878365
1.206904,110.3455
1.2403761,108.61155
1.1881615,108.35805
1.1334255,103.414894
1.0806943,102.77506
1.1071838,101.562126
1.0849206,103.6616
1.0129545,101.362404
0.99248374,99.63608
0.9731851,96.24469
0.9661726,91.66134
0.91230327,91.67874
0.9544087,92.0977
0.8697047,80.86123
0.8892368,87.655334
0.84096116,79.23138
0.76833457,81.4531
0.8193989,78.80518
0.83111835,83.6246
0.66937,77.74925
0.7133281,77.64385
0.60420597,71.8225
0.5451226,78.15953
0.55427074,72.23034
0.52274495,74.02377
0.3839252,67.433815
0.38012978,64.916824
0.42822167,67.273384
0.38072133,64.16827
0.35837755,60.436394
0.27756727,56.2873
0.2760664,57.998276
0.32828054,58.979145
0.3627964,55.371197
0.3009947,58.99339
0.30748898,56.230373
0.28702757,57.69356
0.22440794,55.737686
0.23668846,54.367622
0.2666925,54.915607
0.08091378,52.430523
0.08964995,50.308876
0.11066107,53.771168
0.035034426,52.565678
0.0019096642,54.785286
-0.106028706,55.38299
0.02364226,59.7513
-0.028224703,59.696396
0.074572764,59.330593
0.072383426,56.05005
0.05813224,62.63529
0.19895566,67.8129
0.23460767,72.08428
0.4005458,70.628456
0.5816403,74.969
0.67358667,81.71643
0.6709482,79.24114
0.80596036,81.24734
0.903298,89.42091
0.943311,89.0848
1.0265803,89.87622
1.1746415,95.24507
1.144214,94.30351
1.2996286,103.088936
1.3461728,101.57573
1.3475435,103.22603
1.3382567,108.70207
1.4066229,107.43722
1.3489043,113.51884
1.2428374,111.68021
1.3844472,116.361404
1.405313,111.37474
1.3605232,110.661705
1.3605883,109.995865
1.2586117,108.86561
1.2657366,114.30698
1.2882167,112.314354
1.1919014,112.92832
1.1803976,107.5646
1.1504349,109.226265
1.1450349,106.426186
1.0744747,109.455795
1.0297464,100.449715
0.9763709,101.605835
0.9689115,98.89279
0.9807399,101.4607
0.88193953,101.99854
0.91774744,99.43714
0.8693202,94.6559
0.96635497,93.05837
0.93818206,93.964096
0.8972901,93.29016
0.914262,89.37854
0.81249577,88.85927
0.84832996,86.21279
0.7808754,82.99778
0.80523854,78.259995
0.70071226,78.07684
0.636068,84.06192
0.57485133,75.315
0.6493337,73.658585
0.5849556,76.109055
0.52387905,73.356
0.44674885,70.36799
0.4285206,67.50539
0.4078732,62.958817
0.4292802,66.26621
0.36435637,62.498512
0.34541816,61.365917
0.42471308,65.45006
0.43766177,63.168064
0.38816613,57.790733
0.4565258,58.851078
0.40280595,56.81232
0.37353447,52.7276
0.36109456,53.240627
0.25889176,52.624397
0.28283277,58.912685
0.17688948,51.540363
0.16091667,54.942307
0.16450658,51.196285
0.02066417,49.936497
0.05557744,56.75088
0.02335898,53.011517
-0.035156827,49.813805
0.04145283,57.71911
0.05636147,55.403175
0.074154384,65.2192
0.10289169,65.18813
0.22740783,61.49179
0.35630688,65.57374
0.37355608,71.90984
0.455483,71.81806
0.65013105,75.12389
0.7437347,77.21613
0.7723301,81.25964
0.93406755,82.51962
1.0547765,87.15577
1.1315372,86.982834
1.277172,91.02325
1.3879235,101.88781
1.3065814,96.74749
1.4858181,104.036255
1.3932267,97.1891
1.4947214,100.81562
1.4455092,105.39664
1.5656825,108.90104
1.5163708,109.31018
1.5484324,112.53892
1.5418717,114.44742
1.4907184,112.45252
1.555576,112.78454
1.4263349,108.69823
1.5202627,110.8427
1.4707192,114.31726
1.4708151,114.73408
1.4436169,111.88211
1.4547929,108.36332
1.3354368,106.00908
1.2415285,104.25643
1.2868633,110.41944
1.2770822,105.623245
1.2025028,102.832886
1.212018,101.57317
1.1180004,103.52714
1.1731275,96.79886
1.1565903,95.455086
1.1267169,95.38186
1.1337885,90.330765
1.0765297,92.91757
1.0719159,89.6605
1.0630238,91.085785
1.0324166,88.331696
1.0450368,80.02872
1.0498937,81.095604
1.0466007,85.20867
0.99288166,80.383125
0.853531,78.99633
0.8824164,76.1759
0.8022074,72.300644
0.7888853,78.58647
0.7156647,74.53291
0.7888964,71.19769
0.71502227,68.61959
0.7164035,67.745186
0.64608806,67.53628
0.56942356,63.471577
0.61869097,63.40639
0.600522,64.45372
0.62960964,61.019848
0.6922395,56.418945
0.63335866,58.957
0.6628648,51.898376
0.56752926,51.92182
0.58507305,53.57302
0.5007167,51.150482
0.51616615,51.01316
0.47584876,50.162697
0.47900274,53.49659
0.3261983,54.87103
0.3543837,52.990284
0.4149667,56.13178
0.30694538,55.061226
0.3712643,56.89741
0.2454107,56.34802
0.250349,60.25943
0.35837087,56.266113
0.29660365,64.2799
0.48311815,62.693027
0.5391028,70.47934
0.66808575,71.586914
0.80889434,70.06096
0.9136393,78.6306
0.98699516,75.630646
1.205783,80.105736
1.2341921,83.61577
1.2884543,92.26905
1.4216638,89.78335
1.5054237,91.63946
1.5413594,97.88056
1.6008388,99.00383
1.6358936,101.34282
1.7667717,104.5742
1.6810073,104.69919
1.7536845,111.66574
1.809177,110.057526
1.912348,112.93636
1.820174,109.46944
1.8852068,106.86356
1.7727177,114.00017
1.8218923,112.035385
1.734499,112.42442
1.7995836,111.799736
1.7207069,111.02819
1.7055513,111.21969
1.6812265,111.68008
1.6124281,108.054825
1.5447783,107.00539
1.638157,109.2398
1.654917,106.86044
1.5544864,102.53841
1.5168533,103.49691
1.500209,102.385155
1.4784172,98.47712
1.4021509,93.38129
1.4199792,93.34756
1.4813075,92.86526
1.50496,92.39531
1.3739971,86.11917
1.3538612,90.067085
1.3480902,82.948654
1.399678,86.69886
1.2549847,82.64865
1.3101807,82.92036
1.2359282,83.779175
1.1997579,79.41675
1.1450897,75.394165
1.0837036,78.80259
1.1226369,73.63323
1.0518941,76.29388
0.9687093,71.47462
0.93634933,65.75157
1.0096421,71.99315
0.8380959,63.62668
0.82663697,66.67357
0.8866513,60.33278
0.87999994,62.132668
0.88312334,61.761673
0.98928255,58.3332
0.9105635,58.966736
0.802986,55.6396
0.84291995,58.97106
0.88497,53.267345
0.801901,57.652294
0.8177122,52.051373
0.7964761,51.39344
0.7149552,54.129955
0.63190246,56.027264
0.67501366,53.00984
0.55626816,53.512775
0.5328502,52.625378
0.628038,53.119156
0.47459668,59.62278
0.51937914,54.315693
0.57590204,57.627453
0.56325096,63.93272
0.64524716,60.960537
0.6591795,65.800835
0.7968171,66.241745
0.87834847,69.06001
1.0325887,72.900276
1.0967488,72.735146
1.2798657,80.43956
1.2544048,79.966705
1.4637337,84.20954
1.4377466,90.85691
1.6055539,91.7775
1.7498392,95.75258
1.7073305,99.00059
1.8118179,97.04328
1.8474194,101.94157
1.9495586,102.4861
1.8611121,105.64504
1.994811,111.78398
1.9643016,112.59573
1.9128709,106.158035
1.9356058,110.91279
1.8953432,110.08866
1.9080988,110.5698
1.9119674,117.4198
1.8961915,109.014465
1.8717903,114.19441
1.9152828,111.14591
1.8601745,110.36837
1.8500544,104.28916
1.711716,109.57271
1.771569,99.9691
1.6891538,108.16116
1.650655,106.5833
1.6629572,103.476425
1.6085927,104.79836
1.6036751,101.85476
1.5656759,101.04655
1.4697863,101.11763
1.4754732,94.076195
1.497233,94.0755
1.4610863,96.44524
1.5128123,93.615746
1.4660085,91.943985
1.5095466,87.6741
1.4611833,87.86074
1.3813392,82.47613
1.2876515,83.00515
1.3578528,79.54869
1.315444,82.40418
1.1701908,77.766365
1.2735429,72.6583
1.1222632,73.45438
1.1289572,69.3114
1.1012669,70.446045
1.0329759,72.09058
0.93963253,71.40714
0.92382777,72.24267
0.87618357,63.179367
0.9104526,63.394638
0.89524627,66.752144
0.88469595,62.541977
0.91443396,59.045475
0.82024914,57.185978
0.89141345,53.664227
0.8626489,53.392544
0.91699964,53.66648
0.8233258,55.94048
0.78320664,52.533405
0.7589097,55.21768
0.68115526,53.914722
0.6126852,50.522285
0.6504933,49.828205
0.5415543,52.943584
0.58068144,55.266483
0.528751,56.003372
0.5382898,56.53828
0.4931528,56.80788
0.5264692,61.28509
0.5426734,60.13995
0.5825653,61.884785
0.6428055,61.52403
0.7564576,64.62584
0.83436966,74.97493
0.9826438,70.38073
1.1490337,77.20128
1.1040215,84.25611
1.2067773,83.23666
1.4212412,83.63772
1.4020205,88.28179
1.5989238,86.54152
1.5831457,96.79394
1.6204853,95.75792
1.6812618,101.856926
1.6917032,104.78228
1.8489068,105.97881
1.8970935,106.52802
1.8504599,104.13227
1.7651709,107.240105
1.8775496,109.190994
1.816538,108.18379
1.9366143,111.09226
1.812685,109.7467
1.7859206,114.62043
1.8501203,117.58874
1.7765199,114.09787
1.7234298,110.4483
1.6623038,111.460815
1.6198643,113.75639
1.538197,113.22727
1.6515445,109.70391
1.6094713,108.63985
1.4457251,107.836395
1.4321098,102.59738
1.471222,98.24105
1.4469095,105.02494
1.3802086,101.59099
1.4460549,102.94553
1.4104419,93.97639
1.3675011,91.37487
1.2911273,94.439415
1.2269338,89.45201
1.2761338,89.52372
1.2959002,85.69309
1.1985368,86.723236
1.1503048,87.52418
1.2099099,83.16765
1.2196862,83.40841
1.1347439,78.991394
0.98961085,73.53387
0.90220374,75.85093
0.8904903,74.94275
0.8509811,73.2646
0.81265795,73.21968
0.73775613,70.672745
0.820583,65.755035
0.728484,69.30938
0.6631491,65.56891
0.681438,61.993927
0.73580986,68.25122
0.63456136,54.19121
0.6463517,61.772
0.5577648,58.502502
0.60864794,55.210087
0.63156843,53.617268
0.61568767,55.905163
0.6231821,51.979206
0.5333733,50.454952
0.5418607,55.226753
0.54238504,53.58326
0.41325575,52.146957
0.35480407,49.03099
0.32042545,55.679985
0.24685107,55.76206
0.29077473,63.933083
0.28270388,52.71115
0.2839478,59.232243
0.19668198,57.827362
0.27286303,61.553112
0.38284004,62.6856
0.4034429,64.84879
0.43638456,69.57071
0.5664544,71.47702
0.73975855,71.21057
0.8124214,78.32755
0.8818738,75.35272
0.9412068,83.85371
1.0400796,83.107475
1.1601571,88.165215
1.2061396,93.62702
1.3827425,89.369354
1.4151766,94.64378
1.5107031,98.11303
1.4994309,108.0865
1.5275583,105.008514
1.6230567,101.22863
1.5346049,111.65328
1.4981163,106.37301
1.4845164,112.8276
1.5244415,113.17486
1.6113826,117.80568
1.534088,108.900154
1.494486,113.16165
1.5363476,112.65094
1.4448776,112.51716
1.5161005,114.216225
1.3881192,112.9992
1.43092,110.28421
1.3688942,110.57653
1.269093,111.86307
1.2558503,107.80488
1.2826289,104.5014
1.1720247,106.27412
1.2116785,102.60501
1.2085769,108.87707
1.1036897,99.61937
1.0969352,97.67478
0.98568374,99.170906
1.0962131,94.2874
1.0736526,93.628174
0.8619008,91.126495
1.0670702,89.10415
0.9813148,91.57712
0.94503,89.25255
0.9047789,83.62339
0.81540334,84.24829
0.84260887,78.49917
0.9133242,82.877914
0.8228082,81.18443
0.7344178,77.30372
0.6859178,75.14702
0.6789902,70.602295
0.5876063,70.498665
0.59183526,72.50256
0.4825106,68.788506
0.42839128,71.250084
0.4006476,65.692505
0.48209828,60.741592
0.45461366,57.649925
0.35057265,60.337765
0.3437934,59.61483
0.4486473,59.38804
0.32491553,58.604607
0.3749444,56.01918
0.3506652,54.574394
0.34434032,52.813606
0.33896786,55.92017
0.2681222,50.431858
0.22907929,51.105644
0.107753135,50.466732
0.11055123,51.934105
0.071581475,53.797707
-0.006630354,54.25501
-0.04527711,55.922565
0.07014615,57.563335
-0.049645368,58.98851
0.07721051,62.08082
0.12653717,62.806316
0.03992438,58.31218
0.17194593,66.460335
0.269177,64.950005
0.350837,73.58426
0.40972915,77.90313
0.5174363,78.74315
0.6764974,78.30218
0.7032999,77.73093
0.91870755,83.255615
0.9214917,87.255875
1.0499536,92.024765
1.1657687,96.59063
1.2208759,97.28115
1.2849386,97.696815
1.2801137,102.259285
1.3802596,106.04871
1.2770559,106.39438
1.317053,108.874695
1.3935894,104.09925
1.4346206,109.336174
1.3537681,110.7269
1.3234113,114.75703
1.347096,107.29321
1.4333553,112.61029
1.3235368,112.60327
1.2305114,107.01052
1.3158195,104.826775
1.2693622,112.12668
1.285026,109.86061
1.197649,107.570274
1.1496593,115.013824
1.0438056,109.13894
1.0424913,109.293755
1.0375332,101.99878
1.0648403,104.18683
0.94310945,100.095604
0.9880198,98.009735
0.9714167,102.591866
0.8881353,93.56838
0.9158016,93.92729
0.9688668,91.79292
0.8985423,88.57264
0.8732028,91.08103
0.8291549,88.22228
0.8370519,84.504425
0.7892876,84.75884
0.7753085,84.92945
0.6921682,78.28682
0.60067564,82.28831
0.7731833,79.74369
0.61893773,85.13381
0.5827726,73.47467
0.43436694,73.84182
0.4889419,74.77913
0.4487468,66.188324
0.40328392,69.76903
0.3288557,67.46822
0.37772974,65.12168
0.3311801,61.509377
0.33799115,63.26923
0.35764518,63.522438
0.2923181,61.357018
0.33905256,61.419926
0.3219287,60.087753
0.37700385,55.922462
0.28597307,50.93939
0.39418215,55.32506
0.24345928,55.725
0.22525188,53.698444
0.085241124,50.753834
0.15698835,52.335194
0.020056484,49.51603
0.059635725,57.837696
0.08866083,55.431545
-0.07140806,54.856697
-0.034145128,55.423706
-0.026587375,60.557007
0.09532454,62.802307
0.06254863,59.452915
0.10907999,64.89532
0.21389866,60.397743
0.24965121,67.23692
0.36190277,69.80469
0.4077552,75.51311
0.52512836,75.086044
0.73795414,79.69293
0.70168215,79.77039
0.9455813,89.66907
0.96681684,85.27189
1.1295816,92.859245
1.1653782,95.65224
1.2751442,99.28197
1.2133088,98.43867
1.3169351,98.6259
1.3648298,100.73451
1.3746918,104.29077
1.557482,111.82892
1.4184463,111.44342
1.4379134,108.97681
1.3411524,113.34165
1.4138668,117.868416
1.487347,112.1474
1.432141,109.81826
1.4012331,114.77738
1.408564,111.27803
1.3187603,110.35325
1.4493909,111.7305
1.2884736,111.07664
1.1792051,113.17619
1.1405159,110.330956
1.2703599,104.504
1.1800106,107.45478
1.1177671,101.61454
1.1627148,103.79771
1.1475966,98.93665
1.0036628,102.452805
1.0665995,97.95163
1.1555303,99.656425
1.1217724,95.45249
1.0309509,92.034805
1.0375322,91.28789
1.020225,86.36234
0.9892784,83.41595
1.0129199,85.437225
0.9783733,86.648056
0.91709846,82.98272
0.8862146,83.19656
0.86261773,78.34969
0.78739583,79.51247
0.68957216,76.48376
0.65861624,76.03424
0.6631286,73.317795
0.65457314,73.84508
0.6169635,67.207504
0.49318802,70.6164
0.45533773,64.516426
0.5548958,63.436775
0.45879808,65.59632
0.6305804,63.01564
0.5292709,58.749924
0.55436057,58.03081
0.5285108,59.51395
0.5452756,55.34083
0.52625084,52.293423
0.4454394,55.51325
0.48614743,50.96026
0.44010806,51.45445
0.4551061,53.388138
0.4430058,52.21346
0.31085256,47.990665
0.28643367,51.442635
0.28220132,50.22285
0.22488365,53.331287
0.28326353,55.157852
0.18524027,54.78487
0.22646019,56.193726
0.28845814,57.73339
0.2372005,61.318188
0.3599434,62.899727
0.5317761,62.73309
0.55437547,68.869286
0.6121202,69.10535
0.762765,72.502655
0.78144294,76.2343
0.93433446,78.120346
1.0798419,82.991455
1.1808436,83.788536
1.218551,90.2543
1.35983,89.812645
1.4268912,95.907
1.5149778,99.07067
1.540713,97.764565
1.5717264,99.74281
1.6290007,103.82502
1.6120701,106.7564
1.7758898,106.43537
1.7176509,107.41939
1.7032709,113.462906
1.7635617,111.98456
1.7588667,114.214775
1.6620306,111.37087
1.6570195,110.83243
1.6722599,110.85513
1.7050846,110.95018
1.6124086,114.40005
1.6749793,109.11641
1.5449954,104.39132
1.6332357,112.79177
1.5616094,108.28517
1.5850747,108.45334
1.4961832,107.07716
1.4429848,105.887726
1.3913566,100.81723
1.3922496,97.83353
1.3785923,94.85401
1.3883393,95.12377
1.2989153,96.2841
1.2872851,93.38674
1.3849282,94.82476
1.3140638,91.47675
1.2575854,88.08035
1.2336785,84.75329
1.2129939,87.85392
1.3529562,86.84696
1.1348836,79.51361
1.1899917,82.500206
1.1513255,80.37294
1.1119617,77.77569
1.0720294,75.17405
1.0395306,78.527725
0.9916712,73.50336
0.8904778,72.02659
0.8842377,76.091125
0.84406143,65.35424
0.8178151,68.54892
0.7972732,65.98372
0.8358851,65.919754
0.7369642,61.85336
0.87296337,62.60435
0.82919633,63.46131
0.79165226,61.45455
0.74457216,59.897068
0.7750909,56.50594
0.7681403,56.976513
0.73699594,49.797356
0.8239904,49.50385
0.6272791,50.138916
0.57766956,51.94818
0.63144433,52.690475
0.5957056,53.491047
0.5393373,49.350018
0.4565583,49.937164
0.42349684,56.51635
0.48772842,56.787792
0.39392078,54.306194
0.5732544,57.531727
0.54871935,54.871017
0.5650283,57.965897
0.6456416,63.479813
0.71870196,74.60312
0.8886534,69.1997
0.91123337,76.6857
1.1540762,75.08799
1.2031802,77.55246
1.2642475,80.62463
1.3614937,85.47525
1.503767,89.51519
1.6142014,88.38982
1.66168,96.89791
1.7629737,102.31454
1.7425442,99.1585
1.8270762,95.75772
1.8819387,102.80752
1.9539651,112.08971
1.8939989,111.75066
1.9609215,108.79939
1.8996316,107.40511
1.9420033,111.48787
1.873775,115.85206
1.9804516,113.901245
1.9919454,116.17861
1.9042839,111.24694
1.8484626,114.30721
1.8009684,112.843864
1.7886162,111.20806
1.6883241,109.61228
1.8030717,107.86632
1.7243133,102.83502
1.6396897,105.106544
1.6285969,101.21579
1.6550219,103.389885
1.5673041,102.60842
1.6190484,104.23543
1.4885315,97.0821
1.5935116,100.16971
1.4834367,92.93967
1.4775206,97.62469
1.5408524,92.56671
1.3956763,92.07424
1.5071622,89.66958
1.430167,94.45444
1.4411296,85.28114
1.4378,84.110374
1.4031832,80.43064
1.3462069,78.975586
1.2437167,77.78091
1.2841816,78.64926
1.2485788,71.94987
1.1891048,76.94614
1.0464414,74.89132
0.9595046,73.43244
1.0743788,67.24526
1.0401102,67.63144
0.9518958,68.54755
0.9252093,65.1777
0.83232784,64.32129
0.9896755,65.23596
0.9623169,59.009724
0.886786,65.550644
0.9785944,54.207054
0.884926,52.88569
0.9079312,56.321075
0.81833375,52.521408
0.9546722,53.885334
0.8254939,53.55036
0.8446553,50.608543
0.77721137,55.186314
0.6508802,52.205944
0.6363517,47.93852
0.64683163,55.123478
0.564825,54.857403
0.68214583,51.03414
0.56315213,55.391083
0.56637156,52.741486
0.49863163,63.458874
0.57250416,61.83076
0.6272431,67.66195
0.82375544,65.17217
0.821986,66.49891
0.9254484,66.751
0.9646093,69.28215
1.1161104,79.15411
1.1548975,79.991486
1.3317323,81.89181
1.4819202,87.56322
1.4308,85.76035
1.6485187,91.38868
1.7265713,97.02444
1.6790935,97.91771
1.8132379,94.85249
1.8804367,102.77865
1.8207324,105.78462
1.8252252,107.44174
1.88505,107.87683
1.860612,102.873436
1.9432355,110.47776
1.9289122,109.405655
1.9032861,110.84456
1.832975,110.16273
1.8772017,115.30801
1.8542216,113.39449
1.77889,111.62182
1.828128,116.04608
1.839521,113.077194
1.7502918,110.87138
1.6931275,108.77924
1.7548852,110.81352
1.6523873,106.028885
1.534632,104.14894
1.5600749,105.61439
1.538359,106.609955
1.5468323,105.15832
1.5143025,97.37792
1.4383063,98.875305
1.342079,93.83319
1.4110843,96.19091
1.3770831,89.271515
1.3562399,92.09824
1.4055797,88.67025
1.334662,83.846375
1.2811284,87.048454
1.30955,91.19177
1.2735977,80.838486
1.1949675,81.09044
1.1399924,79.62266
1.145638,78.03764
0.9907289,78.981575
1.020153,72.80377
0.9681486,70.23271
0.94094044,72.03278
0.88630575,69.06459
0.8765965,75.0336
0.8366374,66.121124
0.7974063,65.175865
0.7812385,61.215927
0.73416924,63.34901
0.73543,57.447994
0.7544267,60.621296
0.75406283,55.89383
0.74648327,50.89558
0.73136556,54.38321
0.7422465,56.925694
0.6594058,52.868004
0.68237984,55.379745
0.5683812,52.336033
0.59996754,49.11128
0.4418074,53.680218
0.5094453,52.403996
0.4296815,53.609398
0.4165277,52.82656
0.31126598,52.32268
0.28209236,56.32342
0.3943913,56.090714
0.35572076,57.867085
0.46156687,61.49979
0.5517018,62.635704
0.5098059,63.42577
0.65464646,69.20318
0.6878292,72.70641
0.789269,75.45103
0.95028275,77.33194
1.0138985,76.54336
1.0748632,84.55251
1.1850264,86.28366
1.2931547,91.481
1.4877187,95.66584
1.4840969,97.77624
1.540131,93.09574
1.6242179,101.290726
1.6065576,99.942924
1.5763985,107.03636
1.6953366,106.565155
1.6723216,104.65997
1.6614906,110.45954
1.6572741,113.47137
1.6427674,106.42029
1.6879791,112.71619
1.592121,111.854065
1.6067333,107.46867
1.6318812,114.12064
1.5752529,115.699814
1.5276676,114.65592
1.5175728,105.86227
1.4030888,108.52591
1.4524281,106.94778
1.4082212,106.42888
1.3290293,103.94515
1.3732613,106.5454
1.2860703,104.46839
1.2359257,104.753845
1.34835,104.57138
1.2218211,97.67579
1.2307385,96.23923
1.1851747,92.48793
1.1461039,97.95558
1.1996741,93.51826
1.1182595,93.40328
1.0732901,91.052315
1.1463723,86.58682
0.9830077,91.43543
1.0578268,84.11046
0.94398165,80.98613
0.94221705,84.942024
0.8945608,80.006134
0.74312603,77.86376
0.7429156,79.81966
0.6493862,75.23299
0.64522153,73.51476
0.60803837,71.641106
0.6276078,74.181206
0.54339135,67.21397
0.52922076,71.05953
0.47988358,65.78631
0.54162574,61.159527
0.43095705,63.689507
0.5201284,58.710033
0.4344388,60.708626
0.4705355,58.37654
0.47895887,58.49275
0.47290716,53.373905
0.37895796,56.24046
0.36737418,52.713356
0.35489073,57.557423
0.3331103,55.701122
0.27504608,53.29917
0.15560526,55.392807
0.18758135,53.63162
0.116825975,50.98299
0.06983196,52.671745
0.07008285,51.949764
0.04549551,52.03698
0.1672656,55.659878
0.09808317,62.409863
0.1201246,63.75132
0.14925158,64.86764
0.2594438,66.10532
0.3903715,74.16524
0.4143426,76.33735
0.5154236,73.71938
0.5913905,76.44832
0.728933,82.64395
0.8052975,86.66104
0.87055343,88.20376
1.0518669,87.08158
1.0810219,93.20016
1.2170533,96.45258
1.265654,101.84937
1.3542072,100.15336
1.2913854,102.442566
1.3555369,107.67837
1.4187888,107.609024
1.440086,105.74623
1.4799634,109.98945
1.3951415,110.68061
1.393626,112.34175
1.4297166,110.93935
1.42086,115.59542
1.4198186,113.87492
1.3334451,113.483475
1.3106146,113.17816
1.2633983,108.13457
1.2778367,114.11556
1.2317095,111.973564
1.2057751,107.046104
1.1178019,109.816536
1.1245621,105.66062
1.0649979,106.261696
1.0312234,101.328415
1.0114992,105.87771
1.0326232,102.496414
0.94935983,96.04237
0.9965616,94.2194
1.0031819,100.0675
0.9398032,89.5838
0.95364743,90.49038
0.8369857,90.848
0.89164716,93.52626
0.8699072,85.677956
0.8320098,87.9039
0.84284127,83.5508
0.7767778,80.81197
0.6885724,83.080414
0.67760456,78.43545
0.61155975,81.17373
0.6104801,76.30466
0.5319361,75.5456
0.44287717,70.22578
0.502389,71.77339
0.42703822,69.770996
0.32675204,73.6467
0.29587793,65.993805
0.29342502,57.225685
0.34410232,60.48547
0.32768133,62.6631
0.37575772,58.536747
0.30445156,63.454273
0.28393015,62.39174
0.31275836,55.615383
0.35903677,51.271935
0.22519611,56.651707
0.24305438,54.550465
0.19068038,52.72337
0.1559947,51.263885
0.15936731,52.396374
0.101202644,54.343204
-0.0034529327,55.490776
-0.045270298,52.180164
-0.06372598,50.62009
-0.16423775,51.885635
-0.07678655,61.332973
-0.019673867,60.048954
-0.024045797,59.07093
0.024828827,56.02094
0.085824154,63.441715
0.13050693,70.08155
0.24045262,73.058205
0.31264144,72.91037
0.4275765,74.5211
0.63026047,77.2212
0.6330721,79.929955
0.8070954,82.95844
0.886751,78.988625
0.9572843,87.638565
1.0810821,94.79356
1.1690092,94.79571
1.1545455,99.45079
1.201107,100.04278
1.2339042,102.91108
1.2888011,104.37318
1.3584515,108.53808
1.4224197,106.574425
1.4080976,107.84036
1.4655372,108.41495
1.4314705,114.33488
1.3378251,110.510796
1.4384488,110.710464
1.3886714,113.54242
1.2881155,109.65478
1.3395787,111.34065
1.2147815,116.513245
1.221463,110.4211
1.2606764,108.290985
1.1011976,110.32483
1.1248175,107.04031
1.1074377,109.54721
1.1495264,108.58125
1.1055778,104.40235
0.94364125,100.64534
0.9755377,101.16251
0.9887215,101.07351
0.9986696,100.01015
1.024306,96.82705
1.0160125,94.91668
0.9695939,91.87077
0.95632637,91.24486
0.8700475,90.27209
0.8590272,88.46683
0.83279765,83.677925
0.9229844,80.740166
0.8526762,82.26486
0.80282974,78.32826
0.6478577,81.02063
0.688311,78.336395
0.6180934,77.16252
0.5637327,71.4054
0.554226,76.69604
0.49976388,72.05127
0.4777739,64.67573
0.48932716,70.79673
0.44388372,68.26491
0.4198604,61.50202
0.45549825,63.770336
0.44034797,62.994022
0.44102332,61.20224
0.43627733,54.46979
0.41803572,57.940964
0.4431364,51.930885
0.43335918,56.04261
0.45044738,55.89158
0.34958747,51.14021
0.25401732,51.67783
0.37850577,52.760586
0.2623539,48.668858
0.21834153,52.793705
0.22151001,52.740307
0.14032105,52.160538
0.19229203,54.554676
0.1465748,55.18183
0.08391612,54.530025
0.14661528,59.82851
0.12625425,60.57143
0.22347456,60.585472
0.3064199,61.62146
0.34452218,67.235374
0.47943547,68.626144
0.52781224,64.933365
0.71450555,75.146515
0.78876257,75.03822
0.89505994,78.67552
1.0564737,80.40254
1.0196795,87.3025
1.1432475,86.24938
1.2375733,94.41607
1.3406234,90.717674
1.4169455,100.535416
1.4361966,97.95444
1.5097052,99.00029
1.531105,101.8541
1.5318407,106.14054
1.5759104,114.62686
1.6561713,108.95939
1.6131142,107.38414
1.5600746,114.139206
1.6147048,112.77821
1.6407709,113.86016
1.5895046,114.99267
1.483483,110.93421
1.5284228,110.26562
1.4339427,110.65726
1.5452307,111.27844
1.5158622,115.300995
1.5265346,103.856514
1.5097423,109.39962
1.4568337,106.22028
1.3140476,105.20402
1.3452933,104.148834
1.234954,101.18502
1.3067932,99.194336
1.2973857,102.3352
1.29454,95.03045
1.2811308,96.876144
1.3164836,97.38615
1.2295816,97.95668
1.185408,91.687416
1.222898,86.136246
1.1635389,83.47984
1.2321663,85.73838
1.0136968,84.90003
1.1115927,82.22288
1.0358974,84.60434
0.98489225,79.116974
0.8772511,75.62188
0.99421483,74.59796
0.8697208,74.09576
0.8012525,73.409195
0.8789827,75.05989
0.78568554,67.28697
0.8009188,69.593216
0.71184444,61.86854
0.6818654,57.90029
0.72602236,62.81622
0.66196406,63.618057
0.81479234,59.120678
0.70949966,61.136627
0.72340846,58.26099
0.6621841,52.37396
0.7780068,57.64992
0.59921545,52.535706
0.5978378,54.059048
0.64919746,51.859356
0.58826184,49.45525
0.5354936,55.369694
0.48313442,47.035877
0.47970384,56.159035
0.4315995,57.83521
0.42709625,55.80733
0.32108963,55.746685
0.36355785,57.16175
0.30586007,57.66208
0.3905315,51.01821
0.5958673,60.75112
0.56922996,65.063835
0.6345872,64.189896
0.76259124,66.605934
0.89838755,72.78509
0.98592585,75.23032
0.9533301,77.165726
1.1539068,80.604256
1.3041836,85.73456
1.335903,91.25995
1.4935502,88.58312
1.5861235,95.27567
1.6728747,91.558716
1.6623234,96.97599
1.7236214,97.46282
1.7295452,107.24166
1.8389132,105.44502
1.7756417,107.348236
1.9063723,105.16322
1.834978,107.25214
1.8361555,112.642975
1.8301483,115.205025
1.8694367,112.41657
1.8543063,110.655304
1.912271,112.04554
1.8154616,113.551025
1.8229748,114.28369
1.867703,113.857475
1.8027499,109.051926
1.7738715,106.582825
1.7736958,111.17663
1.6888384,111.04871
1.6997272,107.309746
1.5346421,103.566
1.5372058,100.26812
1.5698365,106.24083
1.526205,98.84577
1.4414521,97.07416
1.4864902,101.757706
1.4584917,95.970604
1.4260672,96.07224
1.4211375,90.60405
1.5584106,87.965454
1.3823009,89.484856
1.4108266,85.93165
1.4690572,84.30895
1.3760747,85.38877
1.3250111,82.00131
1.3164376,80.94126
1.2112663,79.80962
1.2207565,78.67312
1.1912982,75.47884
1.0957179,74.50808
1.0186236,71.39246
1.0702962,72.33489
1.0333273,65.85257
1.0027558,68.843765
0.91111284,62.23154
0.9979586,66.056145
0.9364776,64.9796
0.9598595,60.008533
0.8987568,57.595562
0.8887779,56.899876
0.8919196,60.71293
0.94522554,55.847446
0.91458446,51.057335
0.9054674,51.454075
0.8537662,49.753258
0.75583744,54.124504
0.7514468,53.50922
0.73663175,55.00748
0.7018239,53.404854
0.61021197,53.381615
0.6178905,49.22396
0.5441099,54.355858
0.62647605,51.8117
0.56901073,57.23686
0.5689237,54.455082
0.61731184,57.768078
0.7405761,62.39505
0.5997475,67.01767
0.7663579,64.7557
0.93903095,66.16868
0.96987,69.813644
1.1359829,74.921486
1.2131982,74.83365
1.3037966,82.60593
1.3159739,84.830635
1.4337385,87.14343
1.5565184,89.82349
1.6816448,95.60401
1.7135681,95.669106
1.7654643,97.65627
1.8517762,100.069756
1.8923724,101.30472
1.9698559,105.17591
1.9298878,108.04082
1.8410745,111.76471
1.9345276,104.364395
1.926129,111.9337
2.0078144,110.28612
1.9801867,111.3345
1.9564767,111.21604
1.8997833,109.22233
1.8807747,114.541824
1.8564075,112.75048
1.8639371,112.99107
1.7544806,111.79172
1.8332134,107.380646
1.6741194,112.57709
1.7481079,101.62144
1.6719581,106.40742
1.5738143,107.51614
1.6574979,103.63611
1.5896556,102.0558
1.6007397,105.846634
1.5594326,99.22683
1.5435389,93.2868
1.3923095,97.83937
1.456786,93.01614
1.3852762,91.29079
1.472844,86.72741
1.3412802,88.89023
1.4225155,86.74235
1.3982027,84.06051
1.3533484,88.86979
1.2852104,82.445335
1.2668924,82.11519
1.1657064,79.91066
1.1816812,75.650856
1.0471139,79.01257
1.1291026,70.58176
1.0561998,67.78311
1.0192738,70.609406
0.8851556,71.019966
0.8919274,70.26196
0.9230466,67.97889
0.95789015,60.936123
0.9151492,61.292244
0.8400398,63.293873
0.8778243,63.300903
0.8301219,60.335583
0.8193878,60.736103
0.81631154,55.248074
0.75339454,54.757294
0.8031032,57.52018
0.6955441,52.210648
0.7222333,52.015892
0.666448,51.564533
0.60370916,51.40025
0.60054886,51.67218
0.51441884,52.073128
0.456793,48.675114
0.42823592,52.442513
0.36498758,57.895912
0.4666167,57.65651
0.4230677,57.95992
0.3986971,58.481133
0.5079593,57.578487
0.6114782,63.114574
0.5699743,68.065926
0.7650233,69.204704
0.8185712,71.009895
0.9801387,75.66429
1.0246559,76.1823
1.1345115,82.426834
1.2010032,84.777504
1.3621094,88.84128
1.353393,93.950134
1.5123191,94.50794
1.5423727,92.95508
1.6519521,94.96977
1.6880255,101.51517
1.7225044,103.38493
1.6463672,103.91211
1.790159,108.79469
1.7877992,105.572334
1.7798462,107.212166
1.690828,110.57198
1.79135,109.60552
1.7712129,110.476616
1.7366909,114.72122
1.7648174,110.905846
1.7787073,109.61562
1.6728381,111.432816
1.5847039,106.43352
1.5597045,111.438736
1.6006413,109.55293
1.4789163,104.59049
1.5008883,106.17425
1.4125583,107.246124
1.4592505,101.914734
1.3869042,103.1224
1.3051764,99.99349
1.2373978,98.680855
1.2613095,100.070175
1.2858541,93.02471
1.258845,92.99369
1.258094,90.94473
1.1799386,94.1668
1.2265949,85.915886
1.1752342,86.619835
1.2133864,86.82085
1.1442016,82.70528
1.0823967,81.32802
1.0219043,84.620605
1.0683682,81.786644
0.8715808,78.42871
0.91816366,77.962105
0.80578685,75.45309
0.76554507,74.9744
0.8146377,74.835686
0.6881143,72.78234
0.7206824,69.203636
0.6570472,65.37958
0.6325923,65.45408
0.61997664,66.74163
0.6623116,63.67526
0.4940401,65.22461
0.5215318,55.9914
0.52923,55.65029
0.60694766,56.35271
0.6036604,58.30173
0.53585064,54.121017
0.49854538,55.28652
0.5071687,54.20431
0.38483676,51.108273
0.3761341,53.255737
0.2990497,52.79514
0.27146423,51.049812
0.14084265,51.347614
0.24316749,50.26722
0.12338465,57.6029
0.17427777,53.252163
0.1168126,60.659023
0.22677913,58.225998
0.16777387,62.876873
0.24405813,62.068867
0.31229872,61.360397
0.36056554,71.032524
0.390555,71.12039
0.56928974,70.77744
0.63107276,75.01774
0.8284847,74.9419
0.9189316,80.41618
0.8978132,83.766624
1.0741959,83.46926
1.2459999,88.856575
1.1899942,93.25066
1.2578506,96.563835
1.3741446,95.25804
1.3943331,103.529724
1.4647053,98.732445
1.3599869,103.30321
1.3914565,108.38405
1.4317981,107.586754
1.455143,112.42992
1.4995188,109.796715
1.5084268,107.28758
1.4388065,111.90824
1.4626352,113.41707
1.4361218,113.80675
1.4272726,113.131134
1.4844319,112.43903
1.3063072,114.92218
1.4049631,112.64551
1.196309,109.439026
1.204146,107.01849
1.187625,109.69278
1.1641783,106.6247
1.1164669,102.85347
1.1732987,105.78625
1.0696942,103.28075
1.0168169,104.83409
1.1020589,100.0498
0.95446575,99.0124
0.99200267,97.38434
1.0472126,96.59028
0.9604925,89.78428
1.000166,93.19444
0.86126673,86.1407
0.9177523,86.940704
0.8640046,87.529144
0.83050454,83.7629
0.8399244,82.96508
0.7412001,82.41365
0.67985785,79.949745
0.6601399,77.61292
0.56957424,80.81645
0.5837921,72.761955
0.5028448,73.62037
0.5046007,66.85924
0.4452486,67.71001
0.38229516,65.15692
0.4183254,67.256195
0.3426341,61.447643
0.33168286,63.669113
0.33131906,60.642002
0.39825276,60.95322
0.37061408,57.435833
0.3010171,59.102924
0.37072188,57.048992
0.2646286,53.285072
0.35982627,57.583675
0.24062498,55.21228
0.2153442,52.667694
0.14129347,51.988792
0.21885142,49.356693
0.012432874,52.965073
0.0062620016,51.97365
-0.018075263,52.17493
-0.013886963,56.72629
-0.07284325,55.445362
-0.056383196,56.04965
0.008404077,59.544743
0.004151259,62.0562
0.094036415,62.6189
0.07743892,64.183334
0.16152585,66.80488
0.3123059,67.73399
0.37476438,68.58724
0.5036218,73.83029
0.59902555,74.891014
0.7198194,85.31221
0.84671545,87.5112
0.92745936,84.671585
1.001603,90.03279
1.0638826,89.65335
1.2332913,97.14284
1.2677276,94.99117
1.311681,102.22138
1.2264911,103.47427
1.2960616,107.28636
1.325456,102.186455
1.308324,108.84093
1.4172611,109.3502
1.3070536,110.060455
1.4522275,112.73193
1.4536784,111.53546
1.370599,108.94949
1.3065956,113.780334
1.2933555,109.86338
1.3375367,111.49335
1.25426,110.26648
1.2230881,111.86891
1.2499329,112.796326
1.1592445,108.54811
1.0687103,105.54649
1.1601206,107.671875
1.103187,105.971535
1.0301522,101.75216
0.90502113,108.40875
0.89455295,104.80132
0.9891849,93.405304
0.8880118,97.14924
0.86303955,92.398155
0.90720505,90.79851
0.9404961,90.77273
0.9685526,91.62505
0.8978738,88.856094
0.88247633,86.42328
0.8294314,81.92587
0.774497,82.841286
0.7544612,80.84083
0.7742481,77.10612
0.73400754,77.02176
0.6567613,75.34328
0.5443265,71.3375
0.5835388,73.00582
0.536996,76.05606
0.44008932,70.9253
0.41138265,70.98207
0.40290642,64.76398
0.43007421,65.587654
0.39765495,62.42971
0.34603795,60.99552
0.43082383,61.212
0.3157881,60.497417
0.3207665,58.213684
0.47270626,59.956688
0.3443535,55.396263
0.3401478,51.233437
0.2883279,56.91256
0.27570295,55.62464
0.19930919,52.84137
0.2218632,50.49959
0.14612235,49.523693
0.107569635,56.863503
0.104298405,50.1564
0.091777265,51.000782
0.041655816,55.880966
0.017258188,55.272102
-0.011088428,59.163273
0.10713926,58.188408
0.124516375,61.289337
0.1262357,61.53577
0.19342896,63.208313
0.3231696,64.304726
0.40972996,66.96028
0.49365357,75.37071
0.5747948,77.89196
0.74497366,76.61592
0.8009585,80.08656
0.8280038,82.539825
1.0980791,85.16999
1.2139299,89.695175
1.2413689,94.68207
1.3463435,93.67465
1.3929483,98.09179
1.4583595,95.87586
1.4374797,103.13591
1.4966811,100.90257
1.3737452,104.76002
1.508295,108.66462
1.5577344,113.44203
1.515186,112.74998
1.5432173,109.89841
1.588257,108.9908
1.5540804,113.37771
1.4941853,113.211586
1.4609287,115.19143
1.520852,109.16405
1.3967357,111.196
1.3845248,108.87909
1.3105122,106.79673
1.312338,113.33254
1.2940165,107.54607
1.2651595,105.502174
1.2060846,103.79124
1.2098185,99.82634
1.1942942,98.60428
1.2109507,101.571205
1.1330192,100.423546
1.1938874,100.16221
1.0979073,94.357735
1.1794171,94.53415
1.1386824,91.63726
1.0882324,90.537994
1.0602069,89.21812
1.0375259,86.49682
1.0559409,87.30534
1.0589622,83.984795
1.0400406,85.94887
0.9228504,80.07744
0.9660986,82.96007
0.83362854,77.12019
0.77037203,78.74656
0.7996673,73.5728
0.8024238,72.03365
0.72185344,71.095505
0.66747284,68.93303
0.6985575,65.219246
0.6531544,65.40099
0.6379509,63.921337
0.6690013,60.459213
0.61438954,61.3014
0.6859121,59.0138
0.6364668,55.969982
0.63657236,61.141193
0.5904279,55.887688
0.5977944,57.07193
0.60359824,57.946228
0.52606463,52.149895
0.6020541,48.499786
0.50866216,55.220264
0.405683,50.085762
0.3538769,54.68972
0.37035537,57.10069
0.35050687,54.875183
0.25964993,57.50944
0.3601514,54.97909
0.28768352,57.890224
0.36786482,56.110615
0.38690594,61.465656
0.39923906,60.92278
0.49989435,69.16749
0.5605189,64.003395
0.6401713,71.41366
0.8311657,71.40007
0.9030758,76.697685
0.9921292,74.81822
1.1320167,83.64462
1.218344,86.20153
1.3818332,89.358925
1.3596588,90.94187
1.4685094,93.36175
1.4586641,96.42479
1.683944,94.24283
1.6911072,96.15747
1.7238234,101.76519
1.7267358,104.6465
1.7504902,106.25102
1.7766128,110.75231
1.8187127,108.48438
1.7741377,108.505486
1.8226451,113.592636
1.7770644,108.73607
1.8980995,112.23996
1.7673066,111.42141
1.7678981,111.66294
1.7192221,116.19742
1.6830206,107.87015
1.742953,106.90264
1.6580818,108.96041
1.6423573,107.800514
1.6048398,106.35519
1.4568186,102.96331
1.5567582,103.78872
1.4612693,100.90003
1.4904768,101.12915
1.462864,97.90283
1.5226318,94.861176
1.3447421,94.759125
1.3877513,93.876
1.3957626,95.23879
1.3976539,92.23846
1.3675059,86.56552
1.2735996,91.817314
1.3985666,84.42001
1.4253916,85.77705
1.2466158,81.30759
1.2654014,81.805824
1.2170194,77.87769
1.262865,71.863495
1.1682463,75.40991
1.0566314,76.21446
1.0499904,73.06894
0.9313747,72.27358
0.9364044,67.50452
0.9414303,72.94771
0.9237466,67.146416
0.8637575,63.661636
0.889654,62.93974
0.88655716,57.129726
0.8832967,62.102818
0.9185009,61.03541
0.8518092,63.480507
0.84726304,59.322506
0.8597482,57.71242
0.85164,56.78452
0.75619453,54.6462
0.7650902,51.836018
0.7402225,50.878086
0.73827684,53.608196
0.6567738,53.84074
0.64776146,52.69924
0.66089875,53.38946
0.5025494,58.28501
0.5418218,49.859753
0.5068804,56.05833
0.4682138,58.499134
0.47871506,57.65634
0.6225875,56.338234
0.66512364,61.750526
0.68381876,64.13629
0.8138891,66.676025
0.9011398,70.203224
0.99019086,72.73225
1.0710615,76.58741
1.2185066,80.94725
1.3570346,80.141525
1.3812767,82.16078
1.5755011,86.416435
1.5645651,93.426216
1.6280328,94.800354
1.709298,93.03873
1.8515999,98.09976
1.8796693,98.19136
1.8016322,98.18847
1.8777388,105.38822
1.9486332,108.99833
1.890736,113.78543
1.9747975,107.26799
2.05793,110.80502
2.029606,114.89298
1.8980228,115.06587
1.9563739,111.810745
1.9378513,113.41193
1.8427837,111.932594
1.8856959,108.01055
1.8755928,110.611465
1.8526002,111.20734
1.8680223,111.90675
1.7246325,111.8262
1.7012827,107.07581
1.6879377,106.72805
1.7173774,103.858475
1.5767201,99.34619
1.5172467,102.8657
1.6091492,98.615875
1.5574571,102.164894
1.5126433,96.97051
1.5542943,95.230354
1.5192618,93.69435
1.409514,94.573906
1.4455675,91.31606
1.4396563,87.20659
1.4151361,85.45358
1.4496565,82.32266
1.3038876,85.93366
1.3241953,82.52899
1.2745441,81.327644
1.2174158,77.38805
1.2475611,74.631935
1.1737696,74.93787
1.056861,75.036476
1.0038836,72.67046
0.9563286,68.80965
0.921518,67.00448
0.9462735,69.56621
0.99802166,65.83588
0.8808748,66.83065
0.8793292,62.39492
0.88146466,61.505558
0.8787331,62.14004
0.9407342,60.590485
0.84956217,57.876358
0.84050053,54.039845
0.92696,52.559612
0.8463256,55.43646
0.80850387,54.80313
0.7560789,48.35793
0.68408936,50.996983
0.6453886,48.391342
0.553163,52.746784
0.6337801,53.21833
0.5429086,52.541718
0.5159861,51.64625
0.5462737,57.976612
0.4845132,62.16188
0.4814013,59.485874
0.4714251,63.750435
0.6009164,64.85651
0.6065575,61.282417
0.7664386,67.91603
0.8617032,73.13007
0.9485437,72.16398
1.0198067,73.597824
1.0977223,75.03234
1.2724138,84.42688
1.3058205,83.94644
1.4754694,88.229065
1.5892975,87.448784
1.7218517,89.91838
1.6640303,96.58753
1.7254189,97.24974
1.7906144,100.99703
1.7707105,102.93853
1.8324523,106.1374
1.8209345,107.12829
1.813869,111.063354
1.9073557,106.51671
1.863002,108.05112
1.7993705,109.08686
1.8233883,111.70897
1.8107841,108.26688
1.8194976,114.51907
1.7237374,112.89603
1.7008057,112.68011
1.6770738,118.05977
1.6617998,109.52074
1.5543349,110.90596
1.6269588,109.0938
1.5631275,108.867516
1.5714759,105.70777
1.5308895,104.33822
1.451503,101.64312
1.39027,105.519196
1.3657327,95.52802
1.3699512,95.78204
1.3606268,98.67017
1.3876083,94.8969
1.3645386,91.175415
1.352628,93.16541
1.315139,90.035065
1.2991735,87.674835
1.251948,83.9289
1.2020593,85.86755
1.1178476,80.83207
1.1855801,84.99717
1.1113976,80.72613
1.0944048,82.85248
0.99095976,78.66348
0.853759,71.83744
0.81782037,75.871635
0.8324437,74.85644
0.7807351,71.71007
0.73709923,70.94592
0.7337911,65.45786
0.72299355,68.79201
0.6653797,66.56808
0.7002452,62.28855
0.7419906,62.996674
0.64761597,56.27455
0.641315,59.113403
0.67747325,56.704376
0.7543295,58.63462
0.57667446,49.88476
0.53730255,53.939045
0.5981313,51.514465
0.5551213,57.517197
0.43756792,53.926693
0.43856615,51.65269
0.32677808,51.614983
0.3173086,54.216038
0.32342175,50.783733
0.30121616,49.44685
0.25445017,50.10419
0.23963301,58.030575
0.2521264,62.123913
0.32863715,57.72492
0.28893116,62.446
0.43962583,63.02148
0.5483549,65.01853
0.6144425,70.89699
0.6834374,75.79967
0.7774237,77.13621
0.8533152,77.11645
0.99246126,82.86222
1.0757797,83.42625
1.2205659,90.70661
1.2366754,89.73312
1.3364313,88.859245
1.3654338,97.17612
1.442802,98.71016
1.479751,97.74874
1.508369,104.308914
1.4639016,104.64902
1.5519456,109.78016
1.5099999,110.485985
1.4764462,109.21994
1.5749167,113.11014
1.5186954,111.74848
1.5274719,111.03016
1.5895567,113.0246
1.5631278,111.220764
1.4676892,112.68194
1.5109243,111.881996
1.3507828,112.83546
1.3015683,109.35431
1.2934471,111.53849
1.2801996,109.754456
1.2974991,104.3569
1.2419962,102.87422
1.1918424,107.3624
1.2045326,104.18152
1.0791566,97.13111
1.1176262,100.872734
1.0551914,96.589096
1.0076649,93.67259
1.0602566,93.3049
1.0606552,96.546646
1.0044206,93.133026
0.95896536,90.489
1.0045681,85.71449
0.9356673,86.77211
0.8824266,87.161835
0.8807378,84.946396
0.8862688,80.4364
0.83315974,80.62273
0.8249261,82.27456
0.74796057,73.040596
0.60248226,75.67405
0.6016779,75.55227
0.604652,70.6328
0.560544,70.507065
0.55835503,68.20855
0.44391203,67.04407
0.44227406,65.17277
0.52125585,63.22603
0.36316174,60.592552
0.4264327,60.540047
0.4031437,59.033157
0.3628852,57.50319
0.46396887,59.35564
0.39518407,56.031563
0.45992553,53.094822
0.31934616,51.931335
0.29410565,55.51978
0.24548255,55.68172
0.1714542,48.13899
0.15785989,51.587395
0.116522476,54.510746
0.02387714,57.70004
0.105468884,55.23348
0.025905484,54.470963
-0.060004506,52.84287
0.003228419,55.540874
0.020131294,60.167194
-0.0036252579,59.890167
0.08528052,66.494286
0.23600717,65.46846
0.31342515,70.428345
0.32817483,70.45389
0.46103328,77.84189
0.60411584,79.67221
0.7184115,78.96601
0.7419274,84.02563
0.8864171,86.57773
0.96507156,88.95397
1.0458155,95.36447
1.12554,95.843414
1.1908804,93.74439
1.2256882,100.28647
1.2805412,102.91857
1.352152,105.630035
1.2928106,107.26741
1.3683997,104.983185
1.3871077,109.33418
1.4374515,112.09826
1.3478984,114.69915
1.3552328,111.41708
1.3485593,111.148056
1.3291091,110.29802
1.343002,107.62981
1.3188425,110.520874
1.2614413,109.47187
1.2756313,114.67443
1.2218165,110.487625
1.1052846,107.85191
1.1567993,109.25033
1.120648,106.36451
1.1136323,104.60167
0.99736357,111.272606
0.92304325,102.04697
0.95001024,100.1259
0.9330396,98.69149
0.9040101,96.642296
0.9040751,96.502625
0.89759123,92.36072
0.9456448,94.6441
0.9345089,94.21899
0.8787667,87.78314
0.81296927,86.376724
0.79986066,84.62457
0.7221597,85.686134
0.7404448,84.02715
0.6795803,81.3496
0.7455187,81.68258
0.69708645,77.92639
0.5666052,75.63847
0.56222427,75.42741
0.5924795,73.978134
0.49193504,69.824615
0.43865272,71.81848
0.36781016,65.60508
0.3771974,69.731735
0.42660683,66.47529
0.39150617,69.445145
0.37513617,58.605633
0.27878973,64.409485
0.2883735,56.190304
0.32162938,58.30882
0.33072674,58.518074
0.24660896,54.224438
0.24197358,54.880703
0.3610575,51.706886
0.18502508,49.279064
0.24863948,53.36134
0.19593444,45.175804
0.058057226,51.595497
0.08641915,46.79037
-0.010917261,54.12213
0.03432504,55.161133
-0.050364297,57.193676
-0.0008580579,57.68271
-0.050760083,57.75868
0.06288476,59.319916
0.047366325,65.44125
0.1149742,64.30107
0.20968634,66.56031
0.2533784,68.82798
0.3567339,71.92869
0.44547853,71.65105
0.62875766,78.502846
0.6654321,76.279594
0.8089766,84.23145
0.8638247,78.11766
0.93203604,92.602295
1.0363979,92.943504
1.1702673,89.394005
1.2022624,94.011765
1.20305,99.032616
1.3965553,102.36735
1.2549031,106.26082
1.3654693,108.08651
1.3846183,108.71295
1.4109439,107.13539
1.4187895,111.67015
1.5277658,110.93432
1.4775265,107.6886
1.38412,112.0231
1.4379148,111.45661
1.4048463,116.021255
1.4776938,116.84066
1.3529055,115.08528
1.3170621,112.55787
1.3606874,108.23066
1.2953682,112.3591
1.1712853,110.99685
1.1907293,105.32159
1.1136711,102.88054
1.215083,100.9109
1.1822485,98.255714
1.1533631,99.42043
1.1255918,100.4164
1.1070061,91.79703
1.0209365,94.119545
1.0050642,94.90764
1.00825,91.933655
0.9430644,92.84129
1.0075316,89.13106
0.8975948,89.99265
0.97662234,87.311264
0.92793405,87.230385
0.87672204,84.63655
0.90056723,82.54726
0.8837379,82.5153
0.7075764,82.131004
0.8138607,78.64912
0.6710319,71.85221
0.691753,68.801605
0.5746105,70.930664
0.54052615,70.308266
0.5226651,66.53312
0.5474852,65.64216
0.5990551,68.226135
0.42834222,63.926964
0.6008011,60.180874
0.5140587,63.227444
0.46599302,57.92753
0.61331457,58.512257
0.6212105,60.721798
0.47276232,54.030216
0.53828686,56.784885
0.50729024,48.671947
0.44608098,52.62059
0.43405002,50.037167
0.41664732,55.073513
0.30919385,60.34085
0.31108335,51.963387
0.23138066,48.64566
0.24069329,51.786488
0.21080199,52.398113
0.20797142,55.52776
0.14391543,55.206944
0.2268557,59.79328
0.33365205,61.3053
0.34434578,64.762215
0.442991,67.0825
0.49672276,68.354294
0.6472694,71.23878
0.7430026,71.59517
0.77555496,76.55885
0.88936234,78.8763
0.9988767,85.483185
1.1618812,86.04334
1.2407769,87.08412
1.4376229,87.2586
1.4588531,91.53953
1.4609969,97.333916
1.5937191,99.2281
1.6497699,100.46237
1.6081413,101.819244
1.6062285,107.39204
1.7214674,105.837585
1.753045,111.54846
1.7401581,109.403244
1.7596457,115.505554
1.7389072,109.013
1.7100384,116.31667
1.6937788,114.691444
1.7115235,112.41894
1.7197863,110.52317
1.6261349,110.88999
1.5956422,111.44246
1.6181211,109.4984
1.5788069,106.41722
1.4653609,112.013176
1.4358354,105.20815
1.4761142,105.696976
1.4283978,104.55326
1.4823629,100.060036
1.3853332,100.185326
1.3518252,107.11993
1.379338,100.17816
1.3026167,97.53962
1.3029281,90.71472
1.3020036,93.53404
1.2903621,89.22055
1.3012979,89.5211
1.2665429,87.85038
1.2390736,89.391014
1.2520386,83.09994
1.1405747,85.55842
1.129395,83.45924
1.0652266,77.15225
1.1596406,79.2628
1.0489808,76.42191
0.95676285,76.41486
0.99644536,78.39308
0.9717918,71.209366
0.85148937,68.72891
0.8152059,67.93926
0.7790074,64.29215
0.8102042,66.33485
0.84686184,64.40878
0.8508692,60.82209
0.86793965,63.785004
0.78886586,57.239414
0.8241625,59.147526
0.84374696,56.297684
0.8093246,57.65027
0.8153348,57.339733
0.7779036,55.02685
0.74502003,55.95764
0.77292025,52.232662
0.73386484,52.72894
0.4979701,52.56013
0.5310763,48.560112
0.48366857,50.479313
0.5057623,49.167618
0.5258931,52.828293
0.486508,54.137314
0.44793877,59.214424
0.46718794,58.536377
0.6084135,60.170856
0.58026475,61.540333
0.7266961,67.09133
0.832938,66.504135
0.8747892,73.51843
1.0260477,75.4987
0.99262196,75.30421
1.2099421,75.51364
1.3355668,80.80233
1.4970583,86.54108
1.5084785,91.82232
1.6251323,95.78662
1.7158738,92.25568
1.7308778,98.22678
1.7710161,97.789474
1.8759677,102.80042
1.8033408,102.73744
1.9101181,107.984505
1.9444004,107.02894
1.9510081,111.55957
2.0193753,106.70028
1.9395291,113.68912
1.9307376,114.897064
1.9552907,110.85638
2.0005848,115.89749
1.903872,107.70914
1.961451,112.46757
1.8339734,109.54249
1.8245791,107.62535
1.8189251,105.97936
1.7214955,108.148415
1.7228773,109.84233
1.6353738,109.92082
1.6695169,102.69506
1.5627782,105.22278
1.5137855,101.14638
1.4909033,96.51362
1.5779926,102.49575
1.4617188,99.134
1.5847119,94.28333
1.450522,93.589264
1.4517419,93.91447
1.4120034,92.44049
1.5381405,90.01732
1.5124992,93.29272
1.3939891,88.73449
1.3906738,82.30725
1.3218772,82.501
1.3117043,80.372215
1.3197987,82.001366
1.3457992,78.81681
1.1321893,76.15312
1.082035,76.384384
1.0767715,71.96867
1.0548803,68.941925
0.9180805,70.38419
0.96714497,67.9283
0.9341278,64.41124
0.8864471,68.665596
0.97623485,61.62534
0.9376369,64.2078
0.9138642,60.933582
0.97371954,59.240936
0.9425625,52.627415
0.95030046,53.669746
0.94295377,59.593605
0.9041024,55.086292
0.8284464,56.127247
0.7854365,52.673508
0.779464,51.0642
0.64328533,50.257465
0.6733751,51.78196
0.74898654,50.000717
0.5850713,52.161133
0.46691778,57.113907
0.5230463,52.013138
0.52526754,52.206444
0.53605616,57.903053
0.57289565,59.66127
0.6191568,61.57757
0.6858526,62.09
0.7021599,66.234276
0.73390734,68.12435
0.870348,72.86257
0.99515504,70.790764
1.1323303,71.39633
1.127815,77.81427
1.3564149,82.77485
1.4857085,84.709984
1.4946724,91.66834
1.6656038,91.52238
1.6932803,95.63695
1.7696238,98.28497
1.8447728,99.07665
1.816425,105.867134
1.916548,106.39695
1.9069207,103.41871
1.9020902,107.89716
1.8495346,107.803894
1.9179324,112.17473
1.9149576,109.39707
1.8633538,110.907845
1.9417456,112.52693
1.8149154,112.38911
1.8394425,112.22331
1.8688067,112.268845
1.873099,111.51103
1.7802974,111.85645
1.7732909,106.969215
1.8101579,110.840904
1.6675398,107.8207
1.6697202,101.574196
1.52927,104.00605
1.5296609,103.87651
1.5145288,101.7389
1.4664209,102.08104
1.5102694,101.40405
1.5009065,94.94101
1.374598,98.83382
1.3123707,90.46373
1.4654611,89.497925
1.391864,92.74223
1.439846,88.90527
1.3386354,88.47125
1.22318,83.200226
1.2580223,84.85744
1.1851864,83.47579
1.1120045,79.83139
1.2315032,80.32295
1.1243676,80.18895
1.0840507,75.676186
0.9815283,77.20219
0.99591726,73.873566
0.98806083,72.902985
0.88058996,66.41264
0.8726422,70.50625
0.8359158,67.33974
0.7808875,62.02036
0.7248324,63.164505
0.79461133,60.46717
0.6835508,63.885277
0.8030755,55.659023
0.74487406,57.618393
0.7487362,56.514423
0.74544936,55.192783
0.6703811,56.830692
0.6679198,48.971878
0.618147,51.293327
0.54902077,51.360622
0.5843897,50.573704
0.51040524,54.61477
0.33909515,51.087734
0.45282394,51.842934
0.36818615,54.818962
0.3487101,56.824497
0.38539794,56.38848
0.34392947,58.624523
0.358224,57.195335
0.42554677,61.72198
0.44901708,64.5903
0.48494557,63.974426
0.65654737,65.55412
0.7326663,75.55997
0.79888046,71.851395
0.88374764,78.00426
1.0094309,78.38633
1.1394514,83.350494
1.3151321,85.86567
1.2649515,88.73335
1.3751112,98.64383
1.3676136,96.666534
1.4512401,99.09879
1.6586229,101.19864
1.6917902,103.00888
1.6579778,102.14785
1.7043759,105.27604
1.6635998,109.06345
1.6427013,115.04236
1.6856817,115.57899
1.6604378,114.46412
1.6332115,110.45145
1.6798981,112.154884
1.5684152,112.91581
1.5805093,108.16753
1.584961,112.62644
1.6001552,109.014465
1.4433383,110.17199
1.477987,110.25947
1.2944694,105.47995
1.4603148,109.7524
1.323102,108.68746
1.2878036,104.009026
1.2662637,104.5394
1.2479638,102.72629
1.2296252,100.38969
1.1592419,97.12912
1.135051,94.68467
1.2252743,96.29021
1.1796172,93.72653
1.045641,90.16028
1.0524789,89.540276
1.1002331,90.429565
1.1799046,83.07382
1.0490216,85.63925
0.99294674,79.48576
0.92025197,85.64203
0.93913317,81.2886
0.85657007,80.59004
0.9308872,78.97827
0.7394068,80.915764
0.69854856,74.61533
0.68465114,70.258194
0.61051315,71.2593
0.5730614,68.31681
0.5274621,67.13749
0.57802224,65.705795
0.60999393,66.21593
0.48228094,64.22329
0.4975176,63.613327
0.5090556,59.75723
0.51065207,57.944855
0.46868813,59.38869
0.50598705,56.78365
0.42799553,55.33273
0.39516628,59.29923
0.40055344,53.049564
0.46726486,52.35109
0.24821468,50.091606
0.30855548,50.7564
0.2082584,53.73633
0.24160482,56.576138
0.14220779,50.406837
0.10140931,54.417595
0.09317546,52.766373
0.076006,57.07911
0.07295688,58.49689
0.045588307,62.018364
0.15072678,61.158913
0.20164695,61.34831
0.24107142,68.17342
0.37052974,69.74891
0.4443875,76.09906
0.57007587,71.119514
0.7126838,77.712296
0.6992943,79.66373
0.8173944,81.35351
0.9072131,85.35321
1.0778657,89.256165
1.1615181,89.69328
1.2068318,98.027054
1.255601,96.87332
1.2942673,104.1203
1.3742545,100.652695
1.3276219,101.91851
1.4438833,104.072845
1.4216244,107.64333
1.4263858,107.43064
1.418926,112.38809
1.4955747,114.601654
1.397299,112.147484
1.3809322,118.63069
1.3635314,117.39504
1.3103633,112.255875
1.3685437,112.93971
1.2803904,111.51244
1.3347023,111.83899
1.2215358,110.78152
1.2546996,108.68241
1.1778185,108.586296
1.0889324,103.50394
1.1587226,101.31162
1.0761236,101.235535
1.0404185,106.20852
1.0691032,100.90889
0.9921414,96.51112
1.0808742,97.159485
0.91482204,98.31977
0.9952792,94.135704
0.85138696,92.194145
0.9044102,90.766525
0.8924039,89.17994
0.8639107,88.17941
0.8622093,86.98895
0.77352065,83.85237
0.750373,80.15004
0.7657491,84.87988
0.7167742,83.084694
0.63259596,78.041595
0.5895468,72.31137
0.53802437,75.71821
0.45306885,72.26005
0.4657034,71.630516
0.4711982,70.77977
0.46089247,71.52298
0.40872595,68.59045
0.32281244,65.834854
0.28496614,64.69077
0.37125024,63.08016
0.31386188,60.012383
0.36018866,57.523914
0.3413637,56.040764
0.24377622,57.859272
0.28234842,57.780285
0.37483206,52.604942
0.29437262,52.127922
0.19516663,54.236294
0.22093731,51.38879
0.100803845,49.07208
0.043316245,53.87308
0.08966652,51.96218
-0.079949394,53.06765
-0.025162643,52.61646
-0.037958015,54.400047
-0.023306204,55.154053
0.008706918,63.506577
-0.020786515,62.60142
0.028872972,62.175316
0.053971127,65.34969
0.1790507,65.40232
0.2269017,68.89204
0.36468294,71.371704
0.42928186,73.69896
0.61550885,76.569565
0.6741848,79.88641
0.78114116,81.71532
0.8700042,89.37734
1.0217074,90.84419
1.0973696,87.59193
1.097941,86.65327
1.097739,97.65618
1.1931527,95.68549
1.3492583,103.5447
1.3742993,104.77881
1.4097356,109.411674
1.380668,105.236435
1.3734988,109.33438
1.4671007,111.707184
1.3268303,114.50089
1.4428005,109.31308
1.3773029,113.905945
1.3440105,116.69889
1.2994014,114.0011
1.3582369,113.55878
1.2515788,110.72916
1.3164687,112.66521
1.2240497,111.69119
1.1713089,107.82404
1.1098276,104.894806
1.2077711,107.835014
1.1180105,110.59055
1.079698,105.44308
1.0528387,103.9045
0.99824643,100.02576
1.0075897,104.81181
1.0092045,98.39792
0.9850181,93.77107
1.0170581,92.464264
0.9460601,93.82999
0.9467084,90.8657
0.86329216,93.61924
1.0015072,88.82687
0.9460449,83.529305
0.82751244,80.503716
0.8062806,80.6583
0.77403545,83.631676
0.7646092,80.48236
0.65652555,78.93971
0.7225766,74.22003
0.64802754,74.46416
0.60241497,73.705315
0.52208596,69.90099
0.5116482,73.76773
0.46225792,70.52972
0.5087607,67.424675
0.41848147,65.61117
0.44982997,67.824974
0.414874,63.346394
0.4371153,58.836304
0.45537925,67.25272
0.44104654,57.179054
0.34299162,57.804497
0.49677756,55.71251
0.3570945,54.07406
0.36527053,52.062965
0.40086728,50.53108
0.32641333,49.16818
0.2589646,52.556656
0.18100804,50.51911
0.27037752,52.516674
0.25379828,53.95482
0.111363746,55.598606
0.06987729,55.632866
0.020646129,52.81981
0.118432686,58.17831
0.11288147,59.708366
0.20592402,62.67779
0.29612508,65.02757
0.38118014,68.01412
0.41957173,75.308495
0.56379855,75.63058
0.6466978,73.27072
0.7429347,77.76617
0.936951,76.60848
0.9897122,78.21126
1.1236935,84.13967
1.1146519,89.7458
1.2713968,92.35
1.356329,98.98723
1.3834426,101.07822
1.4220026,100.282394
1.4803183,101.24401
1.5836831,101.687485
1.577105,106.96683
1.6015805,112.07717
1.6698133,112.39298
1.6320807,110.93428
1.6471413,110.83939
1.548043,118.278824
1.5363022,110.60375
1.4855294,115.61708
1.56148,115.32034
1.554833,116.529076
1.5183231,112.8108
1.5089223,112.490585
1.5249183,112.29246
1.4549236,107.425865
1.4292794,108.51712
1.2856424,104.11774
1.3114259,108.06761
1.3152009,103.95734
1.3053913,99.89037
1.2596247,103.52836
1.2201922,100.51782
1.2588809,99.26224
1.1867255,94.05943
1.19506,91.63876
1.162305,93.95298
1.1736505,90.4114
1.2460917,87.57043
1.1986582,80.918236
1.127793,84.95651
1.1335804,84.11939
1.0783341,84.486946
1.0280312,78.31901
1.0421792,79.267845
0.95421225,79.186516
0.9806463,77.41765
0.90917474,73.68508
0.87449265,72.87738
0.8652718,71.509094
0.7562394,69.8554
0.7731345,65.05634
0.75585294,64.70313
0.7484941,67.300156
0.7549169,61.913902
0.707861,60.1183
0.7196332,63.204918
0.7919873,57.747784
0.7946874,56.1829
0.7022078,53.519188
0.74475795,53.3544
0.6831775,53.83147
0.6563181,50.78002
0.58644474,49.815125
0.5977093,52.073833
0.5523067,49.284157
0.50639325,51.99205
0.4194472,49.94473
0.5460346,56.863598
0.40314364,53.900276
0.40163344,55.790043
0.4158572,59.055855
0.40297523,56.1719
0.34820393,61.638233
0.49581635,61.42899
0.6011008,62.04097
0.64566004,69.00905
0.6873682,70.41575
0.81089675,65.750084
0.9657346,77.354805
0.9664583,79.08275
1.2038299,81.73682
1.2721525,82.21039
1.3910544,86.61726
1.5205386,93.85361
1.4272599,91.03404
1.6511819,95.61532
1.6933268,95.03983
1.7555465,98.606285
1.7124186,101.75211
1.8114079,103.149635
1.9468082,107.38406
1.9378133,108.22761
1.8779883,107.232445
1.9264342,106.52047
1.9120163,110.886826
1.8241944,113.858536
1.8034042,108.34383
1.8211924,107.83435
1.8450047,119.345314
1.864792,111.13069
1.7472166,110.18666
1.7946321,115.69337
1.7679653,106.73214
1.729007,109.631134
1.6738055,104.643654
1.7225797,103.319695
1.5941277,106.02808
1.6031353,99.4132
1.5361134,104.33837
1.4930959,101.14684
1.5910565,96.48306
1.5085001,94.58965
1.4975929,98.45793
1.4232284,93.1026
1.4662731,91.07658
1.4904926,92.19372
1.4755716,85.08048
1.3917301,88.63324
1.4312954,89.648834
1.4128656,85.41548
1.3405255,79.79719
1.3132638,81.02326
1.2058665,82.36848
1.166769,76.10586
1.155933,76.7832
1.2002097,78.13437
1.0217454,73.1735
1.0259427,71.45738
1.0042845,64.93838
0.9588257,63.13765
0.999713,69.730835
0.9356189,63.832245
0.97232026,64.7577
0.89191246,60.53772
0.9349111,62.41524
0.87221444,59.08186
0.9119677,55.524323
0.8771097,54.824974
0.8716466,58.11402
0.882469,55.514492
0.8433918,57.03215
0.7334298,52.414845
0.68885744,53.730373
0.74691224,51.623547
0.6197762,54.736797
0.6835684,51.347664
0.57427526,49.968277
0.6915526,56.193882
0.627246,54.45922
0.5246954,58.383938
0.5449995,60.41624
0.59016556,62.814854
0.64453167,60.961624
0.7074915,59.47775
0.8620187,63.793964
0.9198379,64.097435
0.9655603,68.233574
1.0747551,74.70187
1.1515036,78.84903
1.2220991,81.30658
1.3885298,87.56606
1.4984322,82.72084
1.5725781,86.382614
1.6320951,93.16438
1.717484,93.88903
1.7919633,99.27199
1.8608603,99.30282
1.8798356,98.07387
1.9433365,102.09434
1.9254313,102.91415
1.9845414,111.28187
1.8824656,107.29536
1.9674517,107.06335
2.0123658,105.47778
1.9944603,109.59438
1.9128518,115.01893
1.9309219,111.03438
1.9576002,112.21557
1.9194447,113.340065
1.790632,112.00792
1.78342,110.7148
1.7632486,106.65867
1.8018763,108.803406
1.7484764,109.58817
1.6240089,107.5057
1.626212,105.399925
1.4653457,100.01885
1.6278849,101.584854
1.5253814,100.22109
1.4920409,100.96503
1.5513226,96.97511
1.4647479,91.568214
1.5624871,94.837906
1.3726895,91.496284
1.4818592,88.89706
1.4635959,87.68627
1.4033362,87.234474
1.431704,80.29405
1.2470437,85.661804
1.349984,83.79316
1.2510225,80.44896
1.1832078,82.192314
1.0219983,78.16347
1.0967529,77.98779
1.1007168,76.24305
0.96950847,72.64789
1.016612,72.73264
1.0329328,69.23524
0.87504274,67.84332
0.9673917,69.69056
0.8748907,67.38872
0.83038384,64.93167
0.82170063,60.253605
0.79696375,60.74499
0.89375794,61.750374
0.9460537,61.191418
0.86071604,61.2455
0.7908595,54.1199
0.7938616,54.735825
0.79190123,52.5962
0.67906445,57.959423
0.68142295,53.30411
0.7027409,51.37586
0.5963325,49.544876
0.57061577,55.30718
0.514831,49.66532
0.39492643,48.723442
0.3612505,53.575684
0.47616652,56.97505
0.3464695,57.134842
0.42996246,58.168907
0.5080675,58.4382
0.61217487,63.310177
0.61261874,69.06271
0.75053376,71.40231
0.76828766,72.168434
0.9354481,73.88153
1.0571071,76.0585
1.1361626,78.67459
1.2289976,85.15625
1.336686,85.35572
1.4396989,89.763535
1.4633676,95.640144
1.5575804,96.84524
1.5369996,99.02273
1.6508934,97.078125
1.6712048,106.824814
1.765871,102.00301
1.7765276,108.54765
1.7324858,105.19689
1.7071997,109.53426
1.7833225,108.657036
1.8555939,109.20381
1.7100483,113.40979
1.6925278,108.77621
1.725389,113.89227
1.7858096,115.729774
1.6705344,115.036766
1.6764942,114.154144
1.6028447,112.700195
1.5211686,108.53296
1.4897194,110.57553
1.4798509,106.49948
1.419831,105.18246
1.3975695,102.199066
1.3492583,100.88441
1.4011879,98.697205
1.2871704,97.976944
1.2552165,97.141975
1.2961695,96.17895
1.3028753,96.287704
1.2648791,93.551254
1.1533974,92.781746
1.322738,94.12142
1.1242044,91.531364
1.165523,86.40409
1.1470424,88.22629
1.0337843,84.84706
0.97839546,81.648994
0.9985495,82.53133
0.92611724,82.20785
0.91793644,77.904884
0.7701647,74.85575
0.8584033,75.9356
0.77245843,73.72187
0.764505,71.89097
0.7038742,70.76823
0.61109316,64.260086
0.6194086,64.845955
0.64163977,62.23779
0.5531544,64.19677
0.63667804,58.26932
0.45942718,62.400974
0.6015459,57.917877
0.5449899,53.463707
0.5056975,55.83653
0.56014174,54.61966
0.5551723,53.058907
0.50431436,48.553272
0.5040529,49.46242
0.34849206,49.899204
0.32155937,50.56881
0.25804687,49.136887
0.26999015,52.608624
0.20915766,51.654564
0.17423172,58.595478
0.141096,57.52146
0.15077554,56.61934
0.10984025,62.89776
0.22620466,60.814514
0.2022272,63.725384
0.33345887,63.383575
0.4064062,68.43997
0.4320723,65.516365
0.4855141,74.116264
0.7107849,74.889854
0.7591865,78.278625
0.8505783,78.03962
0.9111649,86.9471
1.0237256,82.56991
1.1278164,90.463196
1.2078167,90.765495
1.2982631,94.000984
1.4453318,98.20396
1.4459059,97.86563
1.3569717,101.25423
1.4874009,109.50085
1.4901948,105.27525
1.5954489,109.03038
1.4309639,110.28044
1.468967,110.63344
1.4427983,110.943535
1.4974548,113.808914
1.3747728,109.8756
1.5172739,109.56245
1.4563823,115.287025
1.4136089,115.23556
1.3559375,112.37355
1.3313001,115.42656
1.3089392,110.04163
1.1460608,111.22008
1.2295966,107.95433
1.0502696,102.22823
1.1806935,104.61975
1.1021374,103.608
1.0124791,96.88192
0.933318,101.62944
1.073589,96.02274
1.0121357,95.025986
1.0362178,91.629524
0.92434365,96.34247
0.8504526,88.690125
0.91163474,90.807495
0.95058984,94.58464
0.96018434,89.00922
0.8683558,85.93585
0.86600506,84.51453
0.77229714,82.51065
0.72838056,80.76889
0.7901752,84.54972
0.6111183,73.85133
0.6353488,74.34023
0.5192342,73.574066
0.39811426,72.14219
0.5079315,74.38948
0.5146882,68.41218
0.44422117,66.07166
0.43765855,69.00508
0.27530602,64.97208
0.35262734,60.66586
0.3673279,59.371384
0.39793774,60.979195
0.34501943,57.759167
0.34396246,55.806553
0.39951715,59.609684
0.2780794,52.5587
0.27355936,53.2649
0.21595834,54.470387
0.3127159,56.9787
0.16306603,52.682514
0.24517639,49.86045
0.049769163,53.90704
0.024277445,51.968338
-0.011959512,55.658367
-0.033487335,52.503017
-0.00074933516,50.811005
-0.09437238,56.13873
-0.090834305,56.511436
0.016532222,59.438572
0.054509517,61.549015
0.020446924,62.10809
0.19900388,65.83978
0.25542578,63.775536
0.3588675,69.822
0.53729224,77.654564
0.68057275,78.53319
0.6392484,84.53071
0.79737824,87.65658
0.9358842,93.92741
1.0019256,88.67789
1.0041494,93.79951
1.0675027,98.26629
1.2480804,94.22477
1.1925461,101.78935
1.2909956,100.57754
1.2786059,106.68301
1.3380268,101.47994
1.3652346,111.33254
1.3000369,113.87619
1.3430123,113.85661
1.3603374,111.683754
1.3963392,113.906494
1.388833,116.00752
1.3022836,111.46005
1.4140446,113.55946
1.2311301,110.76737
1.3111106,108.745384
1.201278,113.37068
1.146753,110.309105
1.1297396,109.53045
1.1252521,101.12258
1.1704466,106.170265
1.047967,105.10566
1.041618,103.17166
1.045886,102.0975
0.9381103,100.18164
0.94474363,99.17976
1.0021636,99.35428
0.9336553,96.96853
0.8908928,95.37829
0.9275789,90.84087
0.977003,87.82732
0.8690858,89.4462
0.92287135,86.3245
0.8267911,90.66536
0.8423541,82.29411
0.7975104,74.955574
0.6705974,78.77814
0.6599526,81.24144
0.65564936,79.12979
0.6457361,75.12361
0.55012596,74.63583
0.48521024,72.63204
0.59669375,72.8107
0.47894338,69.72777
0.3600131,62.298874
0.4272928,63.52304
0.46943167,60.709602
0.29780263,62.28579
0.37531096,61.272236
0.3553647,59.804276
0.36695293,58.41541
0.4357255,56.84945
0.28167057,56.6649
0.36798838,55.70732
0.41315448,51.13232
0.24932484,49.33046
0.19531329,52.066723
0.26251054,54.50161
0.21418862,53.140945
0.110708855,51.84854
0.12117394,53.461964
0.032475594,51.918785
9.472302e-05,55.8711
0.072787255,53.855316
0.038800832,56.06097
0.0053829234,54.52555
0.08108175,60.102417
0.17506492,65.57622
0.26136178,64.9046
0.2868384,67.49894
0.36670867,70.458855
0.45552248,75.29436
0.5825206,75.067856
0.7702424,78.915306
0.85186154,80.94397
1.0358268,83.04979
1.0711942,84.605576
1.1694932,85.19805
1.1813054,89.537895
1.25467,93.660645
1.3505642,99.041145
1.3840466,100.96291
1.3999524,102.28609
1.5692843,108.06738
1.5004634,104.395226
1.5702206,107.43949
1.4722925,110.25797
1.4696411,114.14993
1.5077465,112.58562
1.5683787,116.452194
1.4663708,113.23241
1.4913211,112.67956
1.3834676,110.02423
1.3668439,115.84845
1.4690847,111.36309
1.2985775,112.45867
1.3640256,110.12379
1.3707459,106.308495
1.2617068,113.373085
1.2423524,104.51606
1.1509848,107.83996
1.2941511,104.83767
1.0979835,104.62143
1.1926423,99.22371
1.2132498,100.11973
1.1155705,94.274216
1.0863032,98.132416
1.1317694,93.622444
1.1059959,91.56341
1.109508,91.663536
1.2080299,87.66974
1.1018937,90.08022
0.9924358,88.058655
1.0355792,84.2228
1.0872889,84.92174
0.90032387,77.97068
0.96101475,79.45494
0.84774,79.07222
0.78185135,76.74502
0.7749886,76.18568
0.81529987,77.63214
0.7025541,70.67802
0.70180994,69.91077
0.59344095,66.10961
0.6063881,66.288124
0.6787518,63.593662
0.6591367,65.72981
0.5991232,61.846977
0.634256,61.63909
0.60163474,57.14877
0.64782315,60.79937
0.6638845,57.614277
0.5777084,57.318954
0.59130156,53.44789
0.6473667,52.294216
0.50713986,46.311874
0.473037,52.806065
0.47154865,57.60877
0.39533892,53.5191
0.41008398,51.504707
0.300379,51.25282
0.2949089,51.768112
0.30179328,55.927956
0.28853956,51.71844
0.25830922,58.25999
0.34436625,58.28694
0.43077806,62.410828
0.52170044,66.81792
0.5743081,63.32287
0.69594115,69.47698
0.75426835,75.390755
0.7969811,78.47806
0.9771628,73.03266
1.1500859,81.6028
1.1938773,82.284386
1.3445637,84.23016
1.3960205,90.38568
1.4502442,93.72646
1.5892485,97.08829
1.6102107,104.89945
1.7079645,97.51354
1.7053581,105.97747
1.7282677,106.524864
1.8239063,107.08049
1.7674595,109.69532
1.9266402,108.84025
1.7698003,110.540535
1.8197634,109.54155
1.8634374,109.51773
1.7413555,111.676956
1.7699325,110.35119
1.7336586,113.24586
1.6134913,110.893715
1.6567409,117.05205
1.7292553,110.00655
1.6094825,113.8468
1.5948668,107.18774
1.5984861,102.62743
1.6092565,105.96494
1.549629,106.466896
1.5582052,102.64155
1.4771252,99.83524
1.4806268,95.865715
1.4181911,96.23433
1.4629387,97.77773
1.4508779,93.32309
1.4089409,88.60613
1.3637432,90.815475
1.3561957,88.81035
1.3929554,90.43763
1.3283498,85.21537
1.2890314,84.44363
1.3006023,81.60917
1.3050046,80.09236
1.2228498,81.92694
1.2161493,78.79043
1.121054,76.736946
1.102457,77.918
0.9866083,75.647064
1.0147403,71.40294
0.93158567,73.04703
0.9469327,69.60514
0.8589088,66.22817
0.9396586,70.548195
0.86633694,65.20168
0.92143273,61.025845
0.8751231,64.5719
0.8373195,64.82091
0.8745763,53.071503
0.88618666,58.68318
0.8201745,56.81969
0.8797938,51.87612
0.8506973,54.711086
0.7267416,52.78557
0.7840329,51.827354
0.65419173,55.832153
0.5858224,47.86475
0.6335718,53.71251
0.56724083,51.189053
0.60092956,56.730694
0.5779774,54.820797
0.5133351,55.81024
0.49861336,55.582756
0.577352,61.89875
0.61956555,64.035995
0.5630919,59.199528
0.6936009,67.189644
0.74689245,70.012764
0.91891056,70.86226
1.0688484,70.06392
1.1021183,75.30722
1.1605593,82.72757
1.3701833,82.7784
1.4364337,86.577095
1.4569976,87.33109
1.6741569,88.56919
1.6655971,90.59508
1.7056905,95.13468
1.8164681,96.44981
1.8630987,98.53546
1.9017124,103.60047
1.9165848,109.69792
1.9489366,108.793495
1.9398823,107.96651
1.9905607,108.21834
1.9890244,109.133644
1.8902795,111.039444
1.9300294,113.92877
1.9491475,111.28909
1.9290314,114.423805
1.8707796,115.12519
1.9120731,112.31788
1.838332,113.61938
1.8617636,110.21358
1.713638,108.43871
1.7081319,108.47924
1.7348906,106.397125
1.6198208,110.11833
1.73787,100.64412
1.6118201,104.29056
1.5760062,101.81144
1.6013603,99.519005
1.5831358,100.40974
1.6207743,96.74439
1.5078664,91.36081
1.4893371,92.19747
1.5444666,88.126564
1.4432752,93.03592
1.445383,88.16289
1.4278561,88.81671
1.5245281,84.53918
1.4038604,84.00717
1.383599,75.75596
1.3138417,79.477234
1.2835659,79.88394
1.2352965,72.80047
1.1744474,76.80583
1.1384317,74.82808
1.107107,71.76669
0.98159236,71.20122
1.0220877,71.216515
0.8987295,69.4703
0.88346916,65.3487
0.8758101,65.95328
0.8788609,62.136414
0.9187379,58.692963
0.9237771,57.7192
0.9254335,58.35228
0.8318152,58.950367
0.84796196,53.42833
0.8419788,53.57535
0.81547916,54.01423
0.78456944,52.41041
0.82117575,52.01823
0.67523867,52.10137
0.7322446,55.07199
0.6085798,51.416626
0.5160032,53.426235
0.5231273,55.254208
0.5756762,56.12628
0.45531976,56.444958
0.5939049,57.935925
0.5782713,57.914093
0.5880889,59.823517
0.56964004,59.29404
0.68165493,61.19996
0.74813217,64.99219
0.9224602,71.70847
0.9292846,70.684425
1.0729122,74.00998
1.1712977,82.03851
1.1786611,78.805214
1.3385991,87.22809
1.454252,83.74801
1.4254373,94.25794
1.6146351,89.949875
1.6394068,96.04173
1.7389208,93.094055
1.7206088,99.16059
1.7243984,102.4155
1.7624208,105.231415
1.8657591,104.21599
1.8073695,107.346886
1.8481883,103.415825
1.8583269,111.00509
1.8753846,113.86982
1.8066769,107.71786
1.891125,111.535194
1.831286,114.343956
1.8329153,104.91256
1.7341582,112.356895
1.680335,111.56433
1.7847823,109.42508
1.638261,111.237885
1.5900304,107.8225
1.5656157,105.16849
1.5169021,106.47354
1.4646304,105.5807
1.4414026,107.32484
1.4576865,102.99002
1.3387283,98.88359
1.3636683,98.28084
1.3776059,100.23588
1.3455572,94.10092
1.3399442,94.37296
1.4114074,92.26822
1.3451269,93.36676
1.2701575,89.94098
1.2791289,84.79248
1.1386089,79.1965
1.2450507,84.16412
1.1689081,82.84064
1.098309,82.77566
1.0786396,76.65096
0.86973125,75.457214
0.94980186,79.29204
0.8812963,69.727516
0.80053926,74.6445
0.82537055,72.46665
0.79412514,67.688805
0.755993,70.23118
0.7425904,69.21459
0.74111813,63.80504
0.7417375,63.885445
0.7416643,63.25125
0.6759806,58.594536
0.71043456,57.9896
0.6415884,59.07171
0.78208804,55.18829
0.63616264,54.62318
0.70165294,53.09673
0.54178756,51.888992
0.51478904,47.794827
0.45776138,47.593536
0.44257712,51.54895
0.40375027,52.589645
0.35861567,53.36495
0.34617764,54.473366
0.287737,56.20269
0.3066342,56.017075
0.33411083,53.21054
0.24566755,60.048306
0.3270465,58.899975
0.33088768,60.92206
0.33405843,61.66839
0.54934216,70.31837
0.5756694,74.60205
0.5869512,72.49858
0.80546355,80.12936
0.82131886,79.00199
0.98939335,84.36131
1.1449695,88.76296
1.200152,88.77749
1.273214,91.90651
1.4162928,92.45782
1.3824142,98.76102
1.4155622,100.98317
1.4807026,97.18622
1.4693226,104.51327
1.5353608,108.79141
1.5445031,105.343506
1.6506567,108.01406
1.5974559,109.98827
1.609852,111.04406
1.5153896,113.38313
1.5287541,109.213066
1.556117,106.20351
1.497671,113.470184
1.4973141,114.59611
1.4813269,106.68104
1.3842585,113.59487
1.3552345,113.176834
1.3168259,109.70699
1.3058615,103.731995
1.3210517,110.33343
1.2924303,110.106476
1.1856571,104.89455
1.1187856,103.41223
1.0517645,102.49765
1.080591,96.3968
1.179151,98.92979
1.1041948,95.65607
0.9924719,94.81919
1.0334933,95.11669
0.8804389,95.76374
1.0381935,91.223854
0.9105038,88.21199
0.94025797,90.5767
0.8987211,85.62193
0.90803987,79.29736
0.79065657,85.78429
0.80934733,75.9188
0.8035182,80.7136
0.69906616,75.105034
0.74082583,72.86739
0.605377,74.54393
0.5438378,72.011765
0.51537174,71.60832
0.5004292,68.75195
0.43301597,68.90289
0.41645327,63.93647
0.448974,67.35527
0.44800785,62.399395
0.38358894,58.813046
0.32548806,56.57043
0.44538486,55.298946
0.3879574,56.377293
0.37258723,54.651176
0.4308649,54.690464
0.3207961,50.04491
0.3244745,52.554394
0.32293794,48.88831
0.23582506,46.780365
0.07994743,52.94837
0.091119885,51.29868
0.045910474,49.850105
0.0142226415,51.046852
-0.03164641,52.809505
-0.035233214,57.607014
-0.008452146,55.823597
0.0698398,61.509605
-0.026248265,62.11656
0.121452086,63.042587
0.18531023,65.816
0.26410696,71.576866
0.3559223,71.412605
0.3829979,69.8406
0.53702384,80.130264
0.68950474,83.06746
0.7550322,83.18699
0.85196435,88.04229
1.0103539,84.55183
1.0361367,90.0401
1.1558257,93.912834
1.1603407,98.31975
1.2815825,95.13425
1.2510108,98.18376
1.3005549,103.032845
1.334479,104.81844
1.3055292,106.169846
1.4064146,109.28245
1.4195725,109.17876
1.3861362,111.933754
1.2950488,110.683876
1.3414111,115.571785
1.313013,111.78033
1.3848742,115.01764
1.2974349,114.857994
1.2149972,110.593124
1.2440857,109.46085
1.1375425,110.74684
1.1039766,108.776505
1.0603075,106.71986
1.0737839,110.60927
0.958994,105.601036
1.0087755,104.58545
1.0577018,101.3852
0.99522257,102.0437
0.9413574,97.19933
0.94351184,99.70085
0.9186338,97.977295
0.84777313,91.81867
0.7524401,92.59225
0.9796824,95.49343
0.8543316,91.58469
0.80178946,89.170494
0.87208766,86.340256
0.76726276,86.12479
0.79140204,82.966644
0.6789916,81.06956
0.6959851,81.60292
0.66593724,82.45963
0.59685457,78.334816
0.50681746,71.19835
0.49074817,71.76758
0.46229348,72.80328
0.49456576,70.01119
0.45248136,71.07815
0.33088154,64.819725
0.30515572,72.05169
0.31082213,64.66235
0.3445963,61.678722
0.3166827,63.787624
0.3503101,57.65414
0.26351398,59.39067
0.28119922,58.59685
0.33715612,55.63175
0.29934442,55.739254
0.3087641,56.12798
0.26629698,54.227104
0.2400236,57.367992
0.14863217,52.569
0.14169182,53.745235
0.06719205,52.62654
0.027636085,55.428688
0.015414497,52.378452
-0.07126165,55.43334
-0.038630556,53.44234
0.047659207,57.949467
-0.014513075,62.18672
0.111453965,61.768906
0.10234187,65.54193
0.11642625,66.002426
0.21209833,70.00513
0.36757886,71.198296
0.46095183,70.19266
0.6472038,76.96027
0.63340807,75.12612
0.7446917,81.5932
0.8712122,83.81141
1.0193547,86.47026
1.1542757,89.83398
1.1721811,91.72522
1.2584512,94.08676
1.2381222,99.20833
1.3361194,100.079124
1.3856735,100.16609
1.3293365,111.94153
1.4085577,107.256004
1.4138656,109.14015
1.512228,108.73439
1.4853406,105.882164
1.4420526,110.10205
1.4673117,115.002304
1.4292797,115.22834
1.4441782,113.577614
1.3593473,114.2227
1.4019912,110.78147
1.3807386,109.047386
1.2506915,110.029045
1.3137686,107.16938
1.3447651,110.88607
1.272738,104.742516
1.1872251,102.30603
1.1052054,107.98106
1.1025878,97.60084
1.1077882,101.05872
1.1189754,99.49482
1.0804228,93.686485
0.98236424,94.02961
1.0138446,94.686386
1.0093578,90.04723
0.9492361,95.895775
1.0222871,88.12156
0.96092784,92.645134
1.0309713,82.3661
0.88669,80.01192
0.8771759,81.67225
0.9105137,75.48532
0.8107758,77.80309
0.8638487,78.415215
0.74882954,75.50066
0.64145195,76.00851
0.7165049,74.99756
0.5955354,69.70322
0.6103318,65.53764
0.5876717,68.09002
0.58043367,65.5916
0.54179573,67.03995
0.50464016,62.907124
0.54872644,63.966137
0.5737845,62.880222
0.5746515,57.54667
0.47532654,58.526478
0.49039498,54.44191
0.48479372,55.707867
0.49717644,52.679657
0.49867266,51.623783
0.3955759,53.495174
0.43641403,57.30939
0.36458346,50.136566
0.36393327,52.90292
0.29183477,58.57548
0.33003473,54.433144
0.26852673,48.988655
0.20493248,55.99859
0.15794241,60.811443
0.2351486,57.912903
0.29323393,56.5512
0.20640361,62.85826
0.42229983,62.129597
0.4298857,66.75428
0.53351134,67.02417
0.62735295,72.20713
0.6503943,74.78733
0.88871545,77.85233
0.8962124,84.298645
1.0797386,84.4259
1.1392196,82.66988
1.2683235,87.63736
1.3579859,92.2116
1.4188662,94.97828
1.5183798,95.352905
1.4733342,101.76576
1.5573686,103.47679
1.5920753,100.23126
1.6333834,103.27354
1.7160404,110.44134
1.6606663,107.44296
1.6577804,116.0358
1.7039365,112.457275
1.7564095,113.87364
1.7370044,114.82148
1.7320939,116.29589
1.6468353,109.07595
1.6626042,113.40423
1.5439365,109.75861
1.6352042,112.55977
1.619914,108.82998
1.6328146,110.95031
1.5794779,108.745575
1.4586074,106.68213
1.4224643,105.83992
1.4272109,104.99457
1.3900967,108.41751
1.3520155,102.39
1.4110842,94.46773
1.41486,94.209114
1.3405218,91.82209
1.3731838,94.26364
1.3013337,91.759514
1.2982832,92.744606
1.3123566,88.96333
1.3470525,92.07404
1.259958,87.08406
1.2502967,83.26903
1.2460777,88.61196
1.1972955,80.63267
1.1251366,80.31747
1.0658323,75.73799
1.0478178,77.27285
0.9859695,76.14228
0.95102924,75.3655
0.9139661,73.27566
0.82432735,69.19756
0.8868832,72.1429
0.75467503,68.27568
0.9193634,65.6533
0.7699006,64.10723
0.7909479,57.827927
0.91811264,62.503284
0.7351632,54.517548
0.80839664,56.055603
0.86214316,59.527485
0.9107749,55.842365
0.78041357,49.256237
0.7810124,54.567406
0.76145476,53.127903
0.6907372,53.20382
0.5991636,54.1371
0.59288317,52.031536
0.59078234,51.036747
0.43855768,55.14158
0.4719101,52.160233
0.48112935,54.41349
0.47250637,59.20235
0.5252662,59.609142
0.53733003,56.985123
0.5695978,61.205235
0.67644596,61.982025
0.6697489,66.211334
0.81406486,68.13474
