ppg,abp
1.0261067,77.326355
1.1909674,73.21631
1.2496378,78.37758
1.33596,74.071754
1.4674177,77.17126
1.4710976,76.85111
1.4673185,79.893845
1.6206461,81.403595
1.5730877,86.907234
1.6953847,88.92236
1.6520687,86.6967
1.6831834,86.17695
1.7586027,85.0625
1.7565107,86.2258
1.7302549,85.40342
1.7799007,88.639145
1.7130632,87.836044
1.6629391,80.5318
1.6557692,89.30887
1.6687908,83.78337
1.6662556,84.955696
1.5609652,89.32385
1.578527,84.98622
1.5305091,81.71794
1.4141802,85.37405
1.4880342,87.123825
1.3746722,85.33295
1.423239,82.1339
1.3266327,81.78214
1.3102233,82.582405
1.289545,77.992516
1.3734562,83.54413
1.2713783,78.16713
1.3731914,77.723366
1.3963706,77.084435
1.3082974,79.03692
1.2836062,75.28193
1.2914453,76.68641
1.181771,69.78005
1.1763912,71.91055
1.1509453,68.26088
1.1196197,76.83973
1.0584142,70.34664
0.95376146,70.59151
0.9015171,71.528534
0.88337123,70.939766
0.941001,67.55584
0.86730605,66.96456
0.80654895,64.219536
0.8886679,62.692764
0.8332921,68.85626
0.82763684,62.282295
0.83691704,64.644325
0.821892,63.95487
0.774612,58.392532
0.85041547,60.157436
0.7815764,64.2398
0.83416915,57.23167
0.75281173,56.495987
0.8130609,60.0802
0.69132185,61.100853
0.6839735,55.563644
0.6621005,57.977516
0.62205875,60.074593
0.56152225,57.655766
0.53840405,58.921158
0.5287748,59.444515
0.47003657,59.825874
0.48076928,62.14364
0.50557274,63.435493
0.5415467,66.1847
0.5872631,64.88661
0.62151283,65.72746
0.7891874,66.0909
0.7958577,67.20639
1.0296301,69.7234
1.1406723,73.14524
1.1649219,74.56814
1.2728053,72.22228
1.3665786,76.917725
1.4743493,75.48189
1.6055402,77.128815
1.670531,77.70867
1.7641188,79.80934
1.7969581,87.53214
1.8931996,83.163704
1.7890606,80.24404
1.9472668,88.507835
1.9524487,84.63328
1.9428604,83.459335
1.937041,86.04026
1.9200352,84.997925
1.8852588,84.94004
1.9541869,88.16188
1.9509833,87.077446
1.9337847,88.64566
1.8930787,90.079765
1.8055351,87.45302
1.878366,85.251724
1.7508692,84.72737
1.7528056,88.04616
1.7457883,88.56266
1.6906046,85.32419
1.6128614,82.33299
1.6377084,82.036766
1.5821866,82.56176
1.5617948,82.848854
1.5575941,86.33333
1.5264995,78.86063
1.5522158,78.75265
1.4886127,80.740486
1.5795952,79.437874
1.4468418,78.31956
1.5150561,74.364494
1.4463059,77.62828
1.4127485,76.02853
1.2989411,75.64912
1.3909478,72.592804
1.2745216,70.12915
1.2757126,72.26493
1.2024885,72.440605
1.1338835,72.94655
1.0607895,68.31707
1.0821116,70.680046
1.0006171,68.58533
0.9257907,68.264534
0.9757603,63.648533
0.9675519,67.818825
0.9082905,65.20872
0.97690976,64.89782
0.83193785,62.080105
0.925888,62.318596
0.89416075,61.165607
0.94755614,58.866238
0.84936935,56.745125
0.8913367,64.24294
0.8402888,58.091835
0.9253451,60.306828
0.8094977,57.89021
0.7722433,56.737896
0.77199996,58.0192
0.57162267,61.96805
0.6234022,57.33784
0.56036353,60.852867
0.5180941,60.212337
0.5782741,58.198334
0.52355456,60.167866
0.56030744,62.72627
0.55419,66.71631
0.6443422,67.619095
0.73259705,62.827557
0.8195039,65.92801
0.8740227,66.87503
1.04629,67.48918
1.0970808,67.884476
1.2523941,75.94574
1.2297088,74.523445
1.4451139,71.483246
1.5009973,77.468575
1.661475,77.40546
1.726621,79.549194
1.7236886,76.97107
1.8040141,81.16462
1.8579643,80.730576
1.8745533,80.335724
1.8157898,80.7872
1.99903,87.64441
1.9228612,90.656784
1.9299989,85.954124
1.935121,87.05307
1.8975255,88.48468
1.916844,88.52823
1.898905,88.25596
1.8062518,88.21287
1.8332262,92.56381
1.8407452,82.36241
1.745041,83.11625
1.7352195,83.20436
1.7324042,84.953766
1.6686295,87.16703
1.619878,87.16167
1.6053809,84.5747
1.5643986,79.51542
1.4900247,83.207245
1.5056369,79.76354
1.4932231,82.12935
1.4720302,78.68083
1.3793099,79.10245
1.358797,77.41152
1.4158816,81.96668
1.392097,77.39518
1.4061682,71.762
1.3897108,76.172104
1.2738101,75.15412
1.2972808,74.8876
1.3526051,71.690506
1.2060997,73.85672
1.1763536,75.5578
1.1536586,70.64087
1.0419763,74.2452
0.9575588,72.408936
0.9672439,69.211395
0.85752,65.298294
0.8398875,65.399445
0.84486735,66.935684
0.7951231,64.09111
0.7997595,67.46851
0.7944808,64.06898
0.8011968,63.282322
0.83307076,63.10888
0.80574626,62.625225
0.76390445,58.02327
0.7775246,61.20231
0.7119886,62.515625
0.69978154,57.051563
0.7239388,61.081398
0.6367659,59.387173
0.6033984,63.32848
0.43138072,56.841553
0.45924833,59.268295
0.38883516,62.20093
0.4000073,57.101738
0.31336176,59.587727
0.3387523,59.80388
0.36874568,61.87116
0.36604875,57.94608
0.33708525,62.342087
0.4560092,60.982445
0.45644277,64.043655
0.5563405,66.79629
0.65660596,64.591644
0.8331613,66.77591
0.85706675,71.603745
0.94829607,71.100365
1.0409477,72.28118
1.1623169,75.46333
1.2210094,72.57471
1.3275244,79.65348
1.3984581,82.23241
1.5002272,82.51796
1.4767914,85.552795
1.5639666,81.90267
1.5181125,80.07777
1.63376,81.09308
1.7575008,83.52778
1.6722804,86.40335
1.6612723,82.41892
1.6740469,83.26636
1.6268059,88.46777
1.6427516,84.80979
1.7085233,85.945175
1.6043327,86.530655
1.6266513,87.22088
1.5798244,90.8316
1.5564777,89.06009
1.4932243,90.349724
1.5035685,87.27398
1.3718448,87.335335
1.3359928,85.316826
1.3810264,84.120636
1.2748398,83.968735
1.2930948,82.30509
1.2468646,84.75983
1.1731637,81.16455
1.1292261,78.83466
1.1737576,79.59692
1.118036,82.19603
1.1338418,80.851715
1.1073856,80.1422
1.0802487,77.6413
1.0878098,72.90404
1.1030633,71.36718
1.0367527,68.848465
1.0361043,75.942444
0.95885456,72.064995
0.88673204,72.350685
0.7623969,72.78539
0.8762413,71.04525
0.7875866,64.8601
0.68651015,71.74207
0.6460253,66.00323
0.63588154,70.67008
0.5825055,63.503414
0.5591489,66.9051
0.45071143,67.68129
0.54351026,65.03826
0.446679,61.648148
0.49605876,66.32906
0.40260723,62.28951
0.47405538,63.05093
0.53527224,61.72956
0.4715269,60.040478
0.4733582,61.77923
0.38571575,60.764996
0.30465296,55.730804
0.2611922,59.100616
0.3122048,57.709267
0.17461586,58.487125
0.21800278,58.27811
0.10454458,61.546646
0.08918141,54.63694
0.055297755,58.484276
0.05792567,57.904404
0.096577875,55.605976
0.18539141,62.476715
0.14660047,64.27417
0.27002332,62.275936
0.33346725,63.54697
0.4669506,67.220215
0.40061733,67.50712
0.54433393,68.07032
0.6714327,70.74053
0.79425424,72.25643
0.80793935,73.466644
0.9886002,78.29203
1.0816764,79.15066
1.1192304,78.97738
1.2094419,80.006035
1.3012104,80.86001
1.334425,78.687325
1.3677651,82.732315
1.3567727,83.85184
1.4219401,84.17313
1.3736707,86.37465
1.3559604,89.23169
1.4512019,88.73162
1.373953,92.4082
1.4259301,85.83422
1.4085327,86.45747
1.4058874,88.07184
1.3566828,88.08092
1.323156,87.93852
1.2770844,88.714714
1.2165142,87.49409
1.2093965,87.76413
1.1223655,86.36433
1.1366881,90.62111
1.1378304,84.64602
1.0709507,82.53819
1.0385462,87.465996
0.9807871,80.01006
0.97170955,83.40976
1.0088406,77.92085
0.9696098,80.54725
0.8224476,77.74796
0.8683409,78.50585
0.85211736,77.63274
0.95641226,79.302444
0.84300125,75.27096
0.86215484,75.98964
0.8285649,75.995895
0.7625755,70.893166
0.7502504,71.42973
0.6891421,68.571594
0.7239508,71.14957
0.5360549,72.49484
0.5693867,69.669464
0.4984205,64.570335
0.5018656,68.68978
0.3948079,72.65877
0.39479193,64.91535
0.34346434,60.95177
0.41795728,64.88761
0.34300992,62.428123
0.3469969,61.79466
0.3484105,66.21154
0.41556776,61.2955
0.32070056,56.625202
0.28983444,60.70957
0.27873167,53.446545
0.2714136,58.57779
0.15737167,59.071377
0.2441019,64.47827
0.07725566,58.936775
0.14232709,58.535328
0.050344232,59.438206
0.0648977,56.34787
0.053187136,59.259186
0.017364677,57.03139
-0.0018136094,59.874905
-0.11443527,61.467636
-0.031920917,62.289227
-0.035966095,62.186684
0.056328576,59.51321
0.14341332,62.1016
0.15860736,67.09271
0.32465133,69.5517
0.4170601,61.50284
0.46801114,70.86832
0.5685344,69.48548
0.7855628,69.13412
0.7529891,77.364845
0.81953514,72.50307
1.0018743,78.59185
1.0995439,78.11669
1.1447127,83.64613
1.165698,77.65305
1.3346379,84.85876
1.3128698,84.9962
1.2957822,86.13274
1.2798203,81.05597
1.2952604,85.139885
1.3818101,85.441864
1.4546434,84.78217
1.4313076,87.365326
1.3639867,81.90691
1.3423853,88.72395
1.354749,87.62049
1.3479842,83.60462
1.3450121,90.63959
1.2761197,90.176994
1.3458835,86.564835
1.2368021,87.291016
1.1694162,88.769936
1.1796186,84.77527
1.0520885,80.99576
1.0880305,81.21749
1.0598543,80.03043
1.0348879,83.022545
0.9835383,85.893616
0.96184814,87.725876
0.98978335,76.63904
1.056203,81.376884
0.9523148,77.579544
0.9398077,76.918785
0.9257631,80.1703
0.97871304,78.01385
0.8640397,77.73536
0.9071073,73.31999
0.84742945,75.65058
0.7783579,70.88999
0.7778818,71.779465
0.7596904,71.136375
0.66218764,77.670586
0.59970653,72.3812
0.59638613,70.4644
0.56203383,71.546555
0.5346151,70.794785
0.5528224,68.23727
0.3801527,63.746548
0.48049283,60.364788
0.40370187,63.555794
0.4452642,62.802273
0.44450432,62.578583
0.39264023,59.77343
0.4162309,64.39304
0.43553326,60.957134
0.41548628,58.109867
0.44811448,56.115772
0.3704318,56.03704
0.3487004,59.796127
0.31335026,63.12533
0.19561446,54.84394
0.20243628,58.90229
0.18833686,63.139072
0.066980064,62.059307
0.20282179,55.649723
0.070812315,59.12888
0.14906015,62.289566
0.114698224,60.509464
0.24699844,68.09564
0.18516086,67.56393
0.2100431,62.35171
0.30434525,63.693695
0.4288484,66.86564
0.5811271,66.57985
0.57609713,65.70337
0.7402004,67.871506
0.80951244,73.37081
0.9140173,73.69608
1.0276076,75.94129
1.2330335,77.39186
1.254757,78.53709
1.2747226,75.49555
1.3472939,79.71528
1.5253558,80.89795
1.5185056,85.83154
1.5202429,84.7237
1.5247364,85.237144
1.5610274,89.423
1.6099714,81.13144
1.6303415,85.37612
1.5952709,85.71129
1.5327977,86.618744
1.6346364,91.36537
1.5624789,88.51794
1.6211998,88.08513
1.5716733,87.38561
1.4923905,88.73518
1.5500414,86.50424
1.4444191,81.650185
1.4269698,85.4837
1.3756838,85.67983
1.3485385,83.1694
1.2813838,87.04627
1.3027691,83.936584
1.2091357,84.09881
1.180599,81.343605
1.2389009,79.781525
1.1947504,76.999695
1.1656878,75.30334
1.2325631,75.18524
1.2134113,78.672195
1.1077751,77.3854
1.2088273,76.20535
1.1219693,77.11278
1.0832791,76.72971
1.107401,72.76779
1.0091587,70.16809
1.0377357,71.90556
0.96070504,70.36796
0.92346925,73.89466
0.8134131,67.51578
0.85946375,72.35524
0.8347661,70.54845
0.7537439,68.1465
0.7420389,61.66584
0.7498001,67.99576
0.76680124,66.81081
0.75241697,65.26251
0.6996203,63.161793
0.6945758,62.6041
0.6671007,60.6355
0.7650232,60.306
0.6708925,58.45263
0.67705745,58.779778
0.6590013,62.803738
0.7064383,59.24398
0.6320924,59.46845
0.57664603,57.92383
0.5150986,58.270454
0.58362216,59.72994
0.5607166,59.645782
0.4642731,62.70963
0.3903973,61.03889
0.41813096,61.26999
0.33778405,61.797592
0.32343042,64.40608
0.45762917,59.539894
0.40471348,66.15105
0.57083255,63.15559
0.5753296,67.768936
0.6869778,65.73645
0.7819958,64.70022
0.8446486,73.46013
0.9994434,69.42522
1.1701806,67.9605
1.3050029,73.89097
1.3510365,78.76198
1.3631753,71.56106
1.527336,77.27105
1.6029463,79.50839
1.58567,79.17407
1.7236171,83.9281
1.8063194,85.14802
1.8294877,84.04426
1.8909193,87.395775
1.8344647,85.9091
1.8858078,86.34315
1.8288454,86.34974
1.9419316,84.00175
1.900022,88.36557
1.8603244,86.802666
1.8095901,87.91029
1.8581347,86.72142
1.8177665,87.61547
1.7803649,88.74408
1.6647313,86.623405
1.7298249,90.13588
1.7302101,85.60319
1.6396613,85.07921
1.638622,87.191635
1.5732558,85.16246
1.5327468,81.562416
1.5148766,84.24521
1.6112248,79.696594
1.5024874,79.032326
1.4254144,78.19601
1.5532072,79.908066
1.4199009,79.42373
1.4627724,77.790794
1.4806224,77.65723
1.4089129,75.795555
1.4178206,79.86122
1.4283426,74.19012
1.353494,75.42516
1.3320196,74.931946
1.224904,70.78931
1.1751286,71.37902
1.2470534,70.82041
1.1293899,65.86894
1.112439,69.29019
1.1077377,63.394066
0.95252633,67.65595
0.89525163,67.29831
0.99521214,62.529907
0.8801619,66.01654
0.91098696,63.552475
0.9460622,65.4917
0.8881956,63.490692
0.99594027,62.816162
0.88410544,65.28136
0.861478,61.8414
0.96005374,58.992424
0.8259955,63.24289
0.8696463,56.697823
0.77421504,59.846935
0.767963,62.579998
0.6805561,58.993477
0.6679582,60.965176
0.6764139,55.981007
0.65274715,62.511513
0.5675829,62.46756
0.5484118,63.45448
0.5505057,62.919777
0.5973432,61.602985
0.57435083,62.79614
0.6126839,62.10803
0.6948901,67.545906
0.7004222,66.23178
0.8096465,67.72691
0.94604754,70.10207
1.0374873,69.93407
1.1269748,70.93195
1.2207767,72.317924
1.3249032,72.7925
1.4225057,74.05776
1.467744,75.69502
1.5839473,80.735245
1.6832739,79.30792
1.7912152,80.254654
1.8230453,85.56805
1.8840953,83.30358
1.9061642,82.99755
1.8613988,81.51865
1.9896026,85.25098
1.8968874,87.730316
1.9417919,86.166214
1.9971069,88.78125
1.9124818,84.05129
1.9830697,85.469505
1.9727681,87.96972
1.843866,88.42711
1.8728371,88.81949
1.8626359,84.30549
1.7881207,87.88343
1.8001606,91.64952
1.7870771,87.91493
1.7690899,88.942665
1.6188974,87.51373
1.6762561,88.17394
1.6121566,82.99493
1.5868356,80.919
1.5410968,81.78335
1.4982194,84.58504
1.5059878,80.55808
1.5058818,80.85601
1.4560661,79.08093
1.4090797,81.03186
1.4064215,76.960724
1.3728546,79.43417
1.4561926,73.98599
1.3631793,77.00523
1.3781402,76.08399
1.4371926,75.40119
1.2549379,72.61615
1.2226,67.77071
1.0841352,68.87164
1.1054298,74.35977
1.1159524,68.42519
1.0904737,65.45253
1.0182264,66.936226
0.96436054,67.74325
0.94865745,65.62771
0.9653181,59.607468
0.8219828,64.608955
0.85380596,67.846596
0.91364175,61.943707
0.94434035,63.23683
0.9056863,62.090004
0.77930826,61.15068
0.9176611,58.896133
0.8049943,59.065815
0.80488324,60.935814
0.7648868,60.840736
0.7173169,58.4664
0.6963474,58.849136
0.6354528,51.818718
0.6254205,56.96059
0.5939248,59.4556
0.48393184,52.692734
0.50871724,58.01199
0.44511378,63.04314
0.44292867,58.956764
0.5186865,58.48458
0.44703984,64.49041
0.52796406,65.24207
0.66000104,63.237015
0.59706527,63.162785
0.8093066,65.91436
0.9168486,70.12968
0.98040783,71.04099
1.0911117,70.74832
1.2605482,69.555695
1.2815739,78.29619
1.428829,78.736404
1.4506233,76.70522
1.5597988,77.38319
1.5907056,76.285675
1.7161517,79.740974
1.7112613,85.813576
1.7222655,78.80637
1.7127898,83.74212
1.7817731,86.53583
1.806135,80.51967
1.8455509,88.08364
1.7948725,83.0788
1.7673196,88.39397
1.7848871,88.51374
1.7621827,83.430954
1.7422422,88.85814
1.7411548,88.389435
1.6262677,87.00888
1.700546,88.101395
1.5887806,84.74915
1.5502768,85.83904
1.4690135,89.0149
1.5235682,81.8202
1.4422634,85.07605
1.4331672,81.12934
1.3430359,82.04094
1.3494793,83.95479
1.345273,81.36893
1.3702813,83.27304
1.279486,84.43426
1.3233792,76.096634
1.2043134,78.40514
1.1636513,77.83963
1.2835286,77.13931
1.1886219,78.0669
1.1885597,71.78286
1.1490073,72.40626
1.0939817,75.77238
1.0776907,69.98367
0.95504934,72.04195
0.91385096,65.72635
0.8872365,71.63537
0.892439,70.20045
0.7975253,71.385254
0.7566421,68.516304
0.6501037,70.684074
0.66296095,66.814316
0.57553214,68.42066
0.6202925,62.108532
0.64045924,67.51351
0.6369612,65.57958
0.5849048,61.69719
0.545863,60.843254
0.60173327,61.44225
0.4963975,62.327454
0.55509824,59.2624
0.567168,59.37546
0.48994255,60.208775
0.37238675,60.24659
0.34001666,61.936047
0.36613765,59.22144
0.35742465,63.421097
0.32572767,61.780773
0.16819988,54.863335
0.09211253,60.491184
0.14817232,58.584167
0.10453971,59.032673
0.16344838,59.12804
0.205714,61.089554
0.34961504,61.48705
0.23356605,62.40393
0.3754437,63.713894
0.6102954,67.19886
0.55769426,65.25588
0.70154506,67.93798
0.8229547,70.66933
0.80123407,74.66658
1.0056711,75.69495
1.1074908,75.64577
1.1441854,75.13427
1.2873672,84.320274
1.3315265,83.50125
1.3239784,81.776955
1.4026188,81.53175
1.4826106,78.79527
1.516198,82.57735
1.4246773,83.64053
1.5147539,87.14472
1.4631528,85.33323
1.4469537,85.98996
1.5274199,85.3044
1.6247295,86.95125
1.504119,83.2175
1.4817901,88.09588
1.3222344,89.90573
1.4121963,88.69486
1.4433318,82.72427
1.2869333,87.392166
1.241916,83.89296
1.3648524,84.49896
1.1716193,84.454506
1.0723423,82.40784
1.103975,82.25488
1.1493462,81.37316
1.0868397,83.58628
1.0347828,77.53301
0.9762367,81.16826
0.8947269,78.10994
0.9997643,76.157646
0.9237989,72.43167
0.96234435,75.88466
0.98571956,76.2077
0.98479533,74.26247
0.8869639,72.33102
0.8804281,70.66475
0.8676786,74.21416
0.7909783,74.60335
0.66044235,75.31116
0.745716,71.20969
0.6785307,68.16961
0.6127451,70.93106
0.5285904,72.63036
0.48805368,69.51806
0.47191587,67.84618
0.4425858,65.85465
0.41102764,69.218185
0.34848168,69.33558
0.39937893,61.271614
0.30339873,57.632103
0.3591022,63.67187
0.4004172,60.55481
0.39991492,60.578915
0.3804638,59.80855
0.30113906,57.478943
0.23439881,59.571106
0.25788698,59.84372
0.22046933,63.13793
0.21789862,58.667988
0.09946138,60.616226
0.053788375,57.024673
0.027755326,61.59478
-0.055908754,60.68294
0.009960144,60.029343
-0.009776957,60.472706
-0.04414465,55.973003
0.00609646,64.2351
0.027375434,61.011112
0.07615714,65.05874
0.13441028,70.679214
0.27137336,64.67185
0.33515134,65.777176
0.46109125,72.639496
0.50535864,69.08467
0.65591073,70.28735
0.7073332,74.7327
0.7969297,75.32335
1.0049766,77.09633
0.9883306,79.54858
1.0117302,74.587616
1.2488451,80.49706
1.2377638,81.51842
1.3045853,81.473785
1.2413639,79.81321
1.3261546,84.97497
1.3675379,79.938416
1.4227592,87.05715
1.3884863,90.50499
1.4309684,92.8291
1.3258942,88.990425
1.3686322,85.854126
1.3835468,90.143
1.2924814,87.23864
1.3459026,87.11111
1.2336415,83.306526
1.2445704,87.22602
1.2075493,87.6579
1.1710888,88.3872
1.1914047,89.02034
1.1486788,86.952194
1.0694584,85.34181
1.1101664,81.47136
1.1045907,80.25875
0.92802936,79.70449
0.9321037,77.77026
0.889824,78.195045
0.95096296,81.455154
0.9387707,78.521904
0.8736489,77.94885
1.0244955,76.02043
0.89112675,78.3308
0.8625347,77.52431
0.84169793,76.76382
0.86104363,76.71025
0.77821076,72.474464
0.7031225,75.925285
0.73603964,70.55706
0.6097788,73.96288
0.60536325,69.215515
0.6140258,68.51644
0.48260006,62.34586
0.45955008,71.263664
0.4418281,68.37841
0.41188216,69.30324
0.3682519,64.013466
0.30871138,65.71258
0.43145603,70.17193
0.4122977,63.933807
0.41640672,60.821075
0.46034145,61.90818
0.39797473,62.472225
0.33284822,61.806995
0.28076625,57.610584
0.3318566,56.490147
0.29848778,57.743473
0.22038355,62.189457
0.20002964,56.661266
0.15351059,57.342693
0.20080078,57.9353
0.08429886,57.988716
0.05956311,57.61166
-0.054917116,53.67522
-0.035243418,62.626682
0.057315666,58.00327
-0.00019207784,60.906208
0.009340369,62.37536
0.094752595,67.399635
0.21981034,67.29129
0.26266882,65.6234
0.33676657,63.204823
0.41333595,67.2265
0.53621763,75.53705
0.6806591,72.36721
0.70300794,71.97733
0.887664,78.89621
0.963274,73.11136
1.1360414,77.75861
1.1225516,79.11283
1.273988,84.4351
1.3152677,79.80936
1.3939837,81.67158
1.3982248,83.28776
1.4051352,80.27581
1.4670407,86.098694
1.4916285,85.336784
1.5148586,85.28852
1.4536713,87.54623
1.4828659,84.41203
1.4343019,86.44168
1.4546037,87.895905
1.4637245,89.409035
1.3640326,85.25745
1.4463204,84.30879
1.3602408,83.92674
1.3614436,83.424324
1.2886633,89.22005
1.3276112,83.865166
1.2752773,88.87013
1.1902881,87.17756
1.2460327,86.57184
1.160759,85.50513
1.1053104,79.73575
1.1396813,81.15717
1.0666559,80.488335
1.0801526,78.333275
1.0885386,82.95192
1.0462998,78.20791
1.1197449,79.479614
1.0724475,74.273224
0.9558321,77.318756
1.0167629,75.84904
0.9659975,71.83744
0.9654505,71.72958
0.9795221,71.66491
0.87318695,71.550385
0.86472046,68.724976
0.8735159,69.530426
0.7240236,72.16867
0.6800434,68.277885
0.7401744,67.9463
0.6416359,66.85688
0.6227105,66.35672
0.71075183,66.62395
0.6758279,66.590164
0.59497005,67.651474
0.5613138,60.57484
0.6157981,62.5589
0.6437767,62.178505
0.6489171,57.957024
0.5743255,57.59675
0.5756583,59.376446
0.5929733,59.09431
0.52139056,56.61922
0.45259455,61.872555
0.41169205,61.106136
0.4475587,59.950462
0.37393343,59.081482
0.3389466,60.07307
0.3470527,63.032894
0.28047734,58.91085
0.23229332,59.816586
0.3528229,64.32538
0.30538827,62.93069
0.26157215,59.07568
0.3481023,62.75321
0.45168883,64.90311
0.57959235,68.45848
0.62713456,70.35995
0.70186424,71.438995
0.77963006,67.474754
0.9848757,67.6284
1.0521387,69.37493
1.1325724,73.98362
1.3398957,77.01436
1.344606,78.996216
1.475764,80.15338
1.3992506,78.727974
1.6155677,83.197815
1.574206,85.38924
1.6054698,83.330345
1.740512,84.473656
1.7407123,85.22382
1.6681724,87.197624
1.8040507,87.63778
1.7590065,85.7965
1.728693,83.14526
1.8247671,88.857765
1.7892162,87.36355
1.7199525,87.919
1.7273467,86.19837
1.7218571,88.84361
1.6917357,88.66613
1.6409932,87.058975
1.597852,84.84711
1.643779,89.59557
1.5766001,88.91091
1.5282798,80.8967
1.4663345,79.98827
1.4189984,80.55414
1.411568,82.60493
1.4347986,83.66072
1.3988763,78.54917
1.4369287,83.44236
1.4115288,82.678276
1.3609868,77.981766
1.4080862,75.82035
1.3904762,74.70449
1.3660928,76.86582
1.2988098,79.93044
1.2936125,75.905075
1.2730156,74.95062
1.2373749,74.933784
1.0893193,73.41434
1.1247672,73.40779
1.0811065,74.86581
1.0672024,72.15206
1.052718,66.96702
0.9629666,68.82975
0.95987433,68.450516
0.98376095,68.028786
0.90444225,64.55969
0.88290095,68.50555
0.8924069,64.75179
0.9183274,63.04167
0.83904696,60.620514
0.8661277,59.363907
0.83100665,60.765324
0.80139774,61.137653
0.7501686,59.267662
0.8409621,59.208065
0.74443054,62.017624
0.6290657,60.827297
0.69946617,63.474964
0.72514504,61.501816
0.67024356,59.189407
0.519378,60.41658
0.5937111,56.48584
0.5085116,58.85988
0.5199721,62.256847
0.5092766,62.306885
0.5826563,58.812553
0.5652048,58.227306
0.5581902,64.92118
0.68544567,64.69333
0.73071027,64.54806
0.8517708,63.18595
0.8671235,67.077156
1.020718,71.898994
1.1072588,75.64157
1.3118429,74.61551
1.3304431,73.5297
1.513704,72.40278
1.5455974,78.53664
1.623128,77.446495
1.6984267,80.39445
1.7606753,84.08679
1.8938411,84.25347
1.8870711,83.173706
1.7682208,82.39671
1.9994524,88.97874
1.9473047,86.767654
1.9102892,89.60157
2.008483,82.65229
1.9762404,86.24261
1.9383576,86.64053
1.913344,91.046875
2.0049186,89.98535
1.9671578,86.797516
1.8644078,85.43517
1.8520157,87.978264
1.8278428,82.78464
1.7574005,81.98539
1.7037561,86.65157
1.7310479,84.735535
1.7031122,82.64471
1.6304327,85.24422
1.6602021,83.75583
1.5912652,78.45799
1.5677078,82.57816
1.5227877,78.676575
1.5728204,81.84389
1.5275614,80.05748
1.5256486,80.055786
1.5433841,78.308304
1.4900141,82.90334
1.5112785,76.30837
1.4242989,76.351906
1.4430156,74.96538
1.3728123,73.86029
1.3760215,71.65855
1.2433736,72.55763
1.203174,70.19726
1.2653627,68.07368
1.1870935,70.90413
1.0557138,71.3088
1.1558031,64.21887
1.0499775,70.43463
1.0203509,63.072258
1.0096712,67.31675
0.9421998,62.042053
0.80783236,65.5332
0.96953034,67.0719
0.9584036,66.38869
0.99863094,65.182014
0.9379314,61.06589
0.87118983,62.972206
0.906255,62.131786
0.8913678,58.923073
0.82649195,60.670742
0.7914919,56.01742
0.71320975,57.589996
0.7126147,59.46552
0.67429256,54.315865
0.66756815,55.55539
0.55961347,59.93289
0.58778185,61.917023
0.48441672,56.657143
0.5036635,60.126247
0.47796777,56.319412
0.5703775,61.089222
0.59052724,65.74693
0.65401703,63.14107
0.68653387,62.727585
0.8168329,65.7024
0.91564107,65.261284
0.93901074,71.61426
1.0988909,73.865875
1.2084773,71.813934
1.2635952,72.89186
1.4054455,75.85959
1.5554751,73.35531
1.5016576,77.732025
1.6400484,78.49288
1.7732615,82.3401
1.7175729,78.64142
1.8960619,84.9524
1.7883615,86.109314
1.8233814,83.954094
1.8864447,86.12181
1.8583328,86.51222
1.8611369,85.82653
1.8736621,86.12768
1.8359998,86.95695
1.8305551,91.192154
1.8223325,89.97069
1.742201,90.71729
1.8125682,91.479645
1.7232506,87.830025
1.7996149,88.46163
1.748149,87.14325
1.6158372,83.657135
1.6150478,83.88087
1.6094922,87.23769
1.511411,79.28414
1.5151836,88.50399
1.4509968,82.58344
1.4926906,85.007225
1.3885837,81.3738
1.342794,85.30841
1.382376,79.619576
1.3602566,81.38254
1.4388242,79.04346
1.3104655,78.232864
1.3124188,76.034805
1.2773005,74.63196
1.2128041,74.06701
1.2205447,73.26868
1.1955017,70.86064
1.1460824,73.21321
1.1220421,71.70008
1.0713309,69.68545
1.023194,70.169716
0.9457188,69.434166
0.92084086,66.95615
0.85696995,67.76637
0.79729706,69.10656
0.7646617,68.622765
0.7916877,65.51216
0.794254,63.584972
0.7393706,62.394196
0.79573095,64.84053
0.7735628,62.617767
0.6857647,60.984493
0.69786644,60.54431
0.6916198,60.941544
0.6676208,56.667377
0.6630925,60.850822
0.6252391,59.77699
0.59195614,56.6493
0.4853618,61.15227
0.506056,57.136078
0.4406861,60.404316
0.32280755,57.030933
0.33812985,62.656162
0.30184695,57.954853
0.27173483,57.466717
0.29468,63.603302
0.2886307,65.24006
0.39723775,57.165928
0.43390927,64.58306
0.453633,65.630936
0.5175243,68.96262
0.59570557,71.683716
0.7873278,66.662834
0.8159436,70.21621
0.9068573,71.04604
0.99357474,71.514496
1.1589556,75.85993
1.2513845,73.53629
1.3410144,74.40279
1.4679322,80.406334
1.4637309,81.13916
1.5175637,80.20745
1.5511224,81.35246
1.5917985,84.88617
1.5954894,84.74495
1.6536375,85.2373
1.6255053,85.82252
1.5934998,84.636566
1.6601019,90.6309
1.5407733,88.08119
1.5651112,83.94202
1.5990434,84.76405
1.6146685,89.214676
1.5176455,86.348236
1.4551635,82.98601
1.5038043,85.37067
1.4225967,84.9194
1.4343237,85.389496
1.4018505,82.03245
1.323015,85.71879
1.3421638,82.84195
1.250726,80.22336
1.1916722,84.7188
1.1640944,85.55955
1.132861,84.39175
1.121299,83.16691
1.1691452,78.41608
1.12407,78.71647
1.1113518,81.00655
1.052584,76.8893
1.0642924,76.228836
1.0245391,79.11453
0.94236845,76.524254
1.0155865,72.5034
0.87193805,74.33336
0.81440705,75.3678
0.81081885,72.47172
0.8605298,70.79932
0.66550165,69.01524
0.6926335,66.36282
0.6235015,62.263596
0.6133856,69.47494
0.45182714,64.62911
0.43910655,66.71906
0.50135356,65.357574
0.39249742,68.39617
0.4659849,60.10151
0.39024618,64.11553
0.38753077,64.21165
0.42086372,58.431152
0.47008955,56.26675
0.3575114,59.213505
0.4052637,63.6178
0.35452798,54.09966
0.33194304,58.391476
0.32905102,61.582684
0.27859458,58.314693
0.18403073,60.9874
0.22640283,59.336327
0.14345597,57.867992
0.070806555,57.5042
0.02429278,59.827244
0.079748265,62.533794
0.073389456,62.67088
0.027463453,59.70922
0.13018751,69.10503
0.07860253,62.57678
0.12298631,67.97053
0.25906864,64.34547
0.37856582,68.17484
0.4200666,71.080666
0.5233331,72.71783
0.75172937,75.08801
0.8300955,71.56059
0.9403322,77.51799
1.0061052,78.70242
1.0445484,74.55078
1.0986269,79.10341
1.1539482,79.527
1.2358199,83.40698
1.3244861,83.1587
1.3589414,82.8421
1.3249862,80.78931
1.409497,87.55584
1.4325581,85.4008
1.3270234,87.89398
1.3685784,87.49885
1.3888242,85.04597
1.3886137,84.041794
1.4002689,90.47502
1.3772596,91.154625
1.3086319,84.99505
1.353965,89.71345
1.2349017,85.50946
1.2218355,89.811264
1.163767,81.38705
1.1290022,83.969734
1.056362,85.04975
1.1070749,85.707504
1.114355,80.83446
0.9790456,85.67366
0.9142541,84.38244
0.9307695,77.9801
0.9125941,81.033844
1.0340196,87.13263
0.97414297,77.703354
0.8882285,80.32779
0.8890334,72.688225
0.88570064,76.738914
0.9479065,77.46891
0.78818166,73.00977
0.7699332,70.29773
0.8271454,71.06273
0.666983,75.41415
0.7408819,72.87522
0.6072262,69.15943
0.5162353,68.935585
0.54077965,69.96071
0.4593127,65.089676
0.41939193,67.397575
0.38424185,67.14279
0.31988928,66.86986
0.2398395,67.71441
0.34094158,65.242744
0.32807207,64.12247
0.29375696,60.824814
0.36393705,63.988346
0.33335838,62.97264
0.28510734,61.612995
0.16039902,61.449886
0.26095152,57.640358
0.3064379,60.132233
0.20502643,54.93489
0.2401091,55.94158
0.14709856,59.574593
0.0878138,58.738598
0.10341414,59.853508
0.017161496,64.25086
-0.057846826,59.074917
-0.07573183,58.20834
-0.04053029,62.29693
-0.071686804,63.87847
-0.07435825,64.19536
-0.0016114125,58.28728
0.07195086,62.209732
0.11059391,63.339207
0.22801477,69.26678
0.3009129,69.301094
0.43991125,70.219795
0.45724055,67.835396
0.70992184,68.09399
0.75973076,76.5682
0.906452,70.52401
0.93325406,74.44943
1.0396188,75.10714
1.1091965,74.124664
1.1797379,82.461044
1.303938,79.99406
1.2583098,84.56437
1.3187951,85.68363
1.3481561,79.77068
1.2826172,87.18414
1.4194467,86.53015
1.3377784,85.52677
1.3618333,84.51311
1.4231187,86.9866
1.377025,88.29734
1.478903,88.80618
1.399275,88.47465
1.2879581,89.18431
1.3481085,85.035194
1.2505088,88.21341
1.2841836,90.11788
1.171008,83.86959
1.1199684,85.271835
1.1707107,88.15707
1.1809398,84.949684
1.1136432,85.165436
1.0943084,83.443886
1.0940919,83.64305
0.9999383,83.88549
1.0919542,81.48673
1.0071139,82.57987
0.9530503,79.66606
1.0285891,77.40141
0.97399735,73.90127
1.0003608,76.30185
0.95759565,76.90884
0.9376524,78.03512
0.8679315,70.19697
0.93315977,72.22994
0.8334801,73.82827
0.8125643,66.427284
0.837631,68.82794
0.61066675,68.65728
0.62803155,66.22084
0.61102784,64.815186
0.57969695,68.70051
0.6072093,68.66873
0.52169764,66.57133
0.43971553,64.812584
0.42376295,68.945656
0.53298074,64.68837
0.52518755,62.896194
0.4236732,63.782974
0.4883282,58.59285
0.4590629,59.17186
0.4547465,60.966335
0.44138044,60.829475
0.47849867,63.47361
0.47900698,59.911785
0.32131425,62.126358
0.37812552,59.612217
0.30469492,60.734657
0.27026957,61.576454
0.24233308,60.861492
0.17054363,58.777313
0.211691,60.578846
0.13186477,60.179455
0.21784742,61.262276
0.18895139,60.931072
0.24079712,64.46237
0.25433725,65.73776
0.29375386,65.276695
0.47605747,66.87145
0.46768078,67.16291
0.6442415,68.346596
0.6898532,72.69596
0.7979767,74.524216
0.9371774,73.43792
1.0881318,69.980515
1.0769315,80.89356
1.201908,78.95925
1.3449187,77.54251
1.4174696,80.97255
1.4391237,78.07192
1.5096141,86.45676
1.5831501,83.36445
1.5806656,86.04379
1.6283835,85.768135
1.6378027,86.68003
1.6723328,86.88729
1.6936492,86.12604
1.6637213,86.164795
1.723357,87.97558
1.6598992,87.74668
1.5350277,88.7861
1.6442426,88.368065
1.587477,86.38321
1.5417192,86.37524
1.618869,89.19542
1.5801545,83.45396
1.4738717,83.9884
1.4021088,84.54048
1.4397867,85.81799
1.3588725,82.124306
1.3317924,83.05398
1.333747,82.51927
1.3004769,80.92781
1.2897599,77.6235
1.3332698,81.770294
1.3351535,76.44872
1.3455321,75.88538
1.2293673,80.28021
1.3357115,79.01312
1.1781749,77.46088
1.1239455,72.3205
1.2264572,76.31275
1.2123164,67.08262
1.1410382,79.103806
0.9924426,71.185455
1.0326813,74.86382
1.0623845,75.85508
0.9234951,70.159256
0.9490334,68.072174
0.8676633,64.88268
0.8019863,64.55899
0.7440888,70.84414
0.7541624,66.90404
0.77620673,63.010887
0.77208513,62.165726
0.6665978,62.70804
0.8231176,61.643253
0.7387354,65.58462
0.8412653,62.75528
0.81539184,59.25639
0.7785764,58.326973
0.7571626,59.05013
0.72134787,57.222057
0.6675062,58.857224
0.60468924,57.83883
0.5888106,60.599545
0.5768771,56.39719
0.5019823,59.629955
0.41127354,59.177322
0.44774008,57.774277
0.4205575,59.405075
0.43397716,57.75663
0.34906957,58.037766
0.55242777,61.174377
0.5762381,64.26045
0.5934157,64.833626
0.7150518,65.84529
0.8206994,59.806267
0.90202564,67.11292
1.0153583,69.3642
1.0305933,71.24864
1.2135613,69.17007
1.2608526,72.42277
1.4116524,78.517365
1.5178963,78.91272
1.6347488,81.365265
1.598264,76.79765
1.7055435,81.8519
1.8214685,84.11543
1.8505751,84.15203
1.8389741,85.45266
1.8581613,89.66282
1.8660797,88.64114
1.9096005,82.31289
1.8938386,87.91678
1.9277993,86.79121
1.9160825,85.15682
1.924472,86.44555
1.9018744,88.0581
1.8456883,93.78247
1.7657478,86.278885
1.82798,88.701195
1.8414228,85.8406
1.7078166,82.20878
1.7374408,86.44925
1.6182992,90.13705
1.6709217,89.2515
1.5137252,87.23085
1.5654414,83.70925
1.5319543,82.86748
1.5619463,81.5372
1.5975579,83.86704
1.4786901,78.893234
1.4804885,82.81803
1.534084,80.18273
1.4382496,79.648094
1.4194508,76.935844
1.4064826,73.49475
1.4336064,79.051186
1.3423254,77.790535
1.3807266,70.74337
1.3912934,70.70515
1.2619104,73.97569
1.226083,74.28254
1.2594676,69.60639
1.1730578,70.39042
1.1158117,67.35456
1.0882547,69.72047
0.98930997,69.095
0.9470653,66.76807
0.91645473,66.65094
0.9747551,65.730385
0.9562968,63.403275
0.99941474,63.11008
0.93715173,65.13755
0.90498275,62.017864
0.89414656,61.96737
0.9343187,61.830658
0.93037456,60.350056
0.8182814,59.384815
0.8908277,63.163815
0.7625858,64.4977
0.75165284,55.335228
0.7669987,58.709255
0.6796993,61.295742
0.6304034,56.464302
0.56801105,54.445538
0.58253515,60.781616
0.57373226,60.843426
0.56138206,60.773933
0.5265443,59.67026
0.64319766,61.673355
0.5710375,64.97921
0.68184394,63.63223
0.7769383,65.8291
0.8582845,72.13612
0.89538413,72.16197
0.9663339,68.86194
1.1598341,72.747215
1.2702719,73.35078
1.3726063,75.326996
1.4114337,73.58455
1.5700289,75.87659
1.7064348,76.69192
1.7750653,77.441826
1.8120017,84.047134
1.8183817,75.93764
1.8444532,81.528244
1.862144,87.826546
1.8777832,83.75675
1.9047655,84.88574
1.957528,88.27472
1.9184167,84.63644
1.9186414,86.5263
1.9368199,91.76195
1.9374217,89.22625
1.9434261,87.84004
1.8658252,84.52749
1.8504542,87.56494
1.8697577,87.46634
1.8022355,89.06241
1.7461715,85.33145
1.7636329,84.986084
1.6582278,81.33265
1.6508502,82.30296
1.6648473,84.51068
1.5604781,80.27066
1.5861309,83.28032
1.4747555,80.95735
1.5074229,82.29703
1.4833901,80.79578
1.4985334,80.433334
1.3682183,79.014114
1.4210707,73.83655
1.4509435,78.3899
1.4793212,78.54997
1.3792242,77.65298
1.3023334,77.20086
1.2603575,71.900734
1.3502722,72.04951
1.2303529,70.66245
1.1814923,72.656815
1.1369365,75.78273
1.0929365,68.32061
1.0600706,70.59526
0.9773808,67.04479
0.9791322,70.305786
0.8548504,67.82655
0.8865179,63.46494
0.8287828,60.56979
0.8465626,66.298004
0.87742484,61.147903
0.8054548,64.399376
0.81119287,60.844456
0.77418953,59.752464
0.75728536,60.382324
0.68603826,58.775646
0.72949934,61.236694
0.7110637,55.068142
0.7245172,64.7649
0.6641526,57.697968
0.5681108,61.723675
0.64706266,57.99807
0.52616924,57.266106
0.44529998,56.68988
0.4731998,56.67464
0.37809065,58.84284
0.38176635,61.42643
0.36631927,58.63063
0.460305,62.6895
0.33580238,61.58116
0.5420482,62.160103
0.6177811,72.62789
0.6789525,64.50149
0.7493818,63.17324
0.7698435,63.780666
0.9774414,71.07863
1.1156852,70.046684
1.1757098,71.60152
1.2861592,74.55825
1.405405,71.383644
1.509155,79.20432
1.5504937,77.98659
1.4942589,80.463455
1.5338666,83.37342
1.605901,80.67033
1.6856235,80.162834
1.7644945,86.68498
1.7125952,86.4562
1.8081417,91.557175
1.711404,86.2954
1.7262744,85.20966
1.7469457,83.655495
1.7096276,87.39001
1.6807711,91.667625
1.6839863,88.41957
1.6442608,83.366554
1.5373749,90.31081
1.587702,85.12161
1.5194532,86.4763
1.4704791,86.8288
1.4191481,85.12897
1.4384863,81.86679
1.3286651,83.591034
1.3891077,82.13545
1.2905297,84.4163
1.3148009,79.851135
1.2444149,82.0429
1.1435468,78.90913
1.1571385,83.12465
1.2077656,78.06926
1.1387261,77.43652
1.1880536,78.895676
1.1582069,76.10082
1.1238822,76.20312
1.168435,75.057594
1.0622609,75.3517
1.1204337,73.56573
1.0103596,74.73648
0.8940741,71.13186
0.87577605,70.52167
0.79639846,72.94114
0.8123211,71.50456
0.7352365,69.51874
0.6200538,68.30314
0.6459153,66.661446
0.6414128,65.031944
0.52031827,67.08131
0.6488572,64.32754
0.57800865,61.199615
0.54949796,61.315117
0.6121616,60.052006
0.57410187,59.666447
0.47485274,59.309177
0.49850473,63.29209
0.44285214,62.06742
0.47657207,61.645855
0.39361918,58.772575
0.3861102,59.502537
0.35053444,57.798866
0.283612,62.639294
0.26237616,58.436703
0.1919174,58.50553
0.17422284,58.092453
0.06665741,60.512585
0.12590213,62.681225
0.13279183,59.566704
0.14297128,60.46599
0.086773306,67.319244
0.23313987,61.869717
0.33561018,59.660614
0.34070992,65.428154
0.38863638,66.977
0.63282543,67.98841
0.707873,66.800896
0.7022023,69.73817
0.8992132,71.90256
0.9782517,74.35743
1.0440528,81.61777
1.1444521,75.32756
1.3174021,75.91738
1.3528218,85.11019
1.3121128,80.98316
1.3029448,86.74171
1.4020495,81.701645
1.4253838,84.20675
1.5260595,83.57058
1.4848465,85.34073
1.5300914,88.59827
1.468042,87.542694
1.4512749,85.92667
1.5306332,89.49272
1.3871591,88.463486
1.3964099,85.832886
1.3917121,86.65326
1.338068,90.40161
1.2544813,89.622185
1.2235152,86.34848
1.1905357,88.01449
1.228534,83.5094
1.1042752,80.063934
1.0881007,83.627396
1.0086241,83.110245
1.0204211,89.40594
1.0429327,81.163895
1.0247607,83.653915
0.97446126,82.86545
0.9942082,79.166855
0.9345615,80.36806
0.88847333,78.19103
0.96913743,78.04579
0.9366655,73.55777
0.8892663,74.86743
0.8563902,76.15084
0.7679789,70.37377
0.7429834,74.688644
0.76798725,71.39072
0.7378398,76.2656
0.6779089,72.26734
0.6326012,69.42502
0.52486724,69.9717
0.5414555,63.11716
0.42557138,69.379395
0.44018674,71.573135
0.43514106,66.13155
0.34197086,64.54602
0.43080705,61.411377
0.30169794,66.98786
0.33931968,60.242622
0.29799297,59.52478
0.34056994,61.20663
0.38328436,58.923393
0.28270018,59.843998
0.27726138,62.33151
0.29246014,60.367317
0.24985375,58.40476
0.17645335,61.184834
0.098895974,58.196484
0.0871412,60.04246
0.04991273,59.94089
0.025142206,56.79447
0.017603349,63.216465
-0.099728696,60.480904
-0.063339025,64.146675
-0.16232644,59.125824
-0.010374679,56.515347
-0.030373655,66.67152
0.053493395,65.51399
0.13697459,62.920177
0.18895468,67.58624
0.23672007,70.28526
0.4140284,71.98688
0.5356799,71.16519
0.5840936,73.815094
0.78090334,71.34624
0.8695694,73.22904
0.92424744,74.28721
1.002807,78.672325
1.1273831,79.92594
1.1739408,78.03767
1.2663512,81.16352
1.2223889,81.69974
1.3329288,86.96897
1.2627839,83.68664
1.3782463,84.042244
1.3709887,86.56422
1.3653361,84.36774
1.3286854,83.898094
1.3428398,91.34818
1.3928455,88.37977
1.3054847,86.76709
1.338234,86.996735
1.3276349,82.92736
1.3112706,84.04661
1.2239437,87.43863
1.2076392,81.65947
1.1105744,89.16008
1.2259418,87.96237
1.1500251,85.29292
1.0128589,81.06798
1.0666813,82.6019
1.0955329,82.673546
0.9209889,86.20184
0.9265345,80.96664
0.96732473,84.01131
1.001127,75.6171
0.94269997,79.59894
0.96595895,74.70522
0.9496321,74.43517
0.8771827,74.669174
0.8691379,78.14295
0.88684446,79.36563
0.83838713,73.443985
0.80269885,75.17537
0.8289996,70.208755
0.58787197,75.509445
0.6629732,71.50559
0.62663686,72.56774
0.56007046,70.48477
0.5454469,68.31944
0.45006147,64.53699
0.38646716,67.24222
0.43582684,65.17165
0.32412112,62.94538
0.338222,70.7745
0.4654339,65.41632
0.3540884,64.141205
0.44770983,65.50847
0.42527094,66.50723
0.43422085,60.779594
0.40843388,59.008396
0.3837061,60.3183
0.3120597,61.847717
0.29778782,61.436775
0.31330165,57.58684
0.20061748,61.07697
0.25303587,58.244617
0.12473083,57.92154
0.09114075,59.8374
0.105598606,58.370995
0.031172764,55.88675
0.076788776,59.405163
0.05830773,57.58364
0.06979364,60.115475
0.072001584,60.14035
0.22833134,64.91397
0.2644152,67.13976
0.33188635,67.39569
0.4865267,63.842236
0.60259175,69.27265
0.66198623,74.03259
0.7553731,67.947
0.86993575,74.6008
1.0257251,76.26194
1.1110489,75.5549
1.1292628,79.102196
1.2798587,79.34239
1.3736678,81.359856
1.4131477,77.07151
1.3947595,83.21718
1.4631848,84.3143
1.4874501,84.99691
1.5419703,89.709206
1.5475076,82.52972
1.5570501,86.43665
1.5287659,86.15935
1.5252119,89.24668
1.5876691,88.7294
1.4634874,87.685745
1.4980794,86.38645
1.4867966,86.94385
1.4907513,85.875374
1.4037602,88.90375
1.3936477,86.327774
1.3684568,86.8909
1.3488667,82.84816
1.2706645,88.492966
1.2802966,87.06348
1.207899,87.42791
1.1487216,83.86531
1.1443524,78.1554
1.1973794,80.69845
1.185284,81.213104
1.1659622,78.49071
1.1602025,83.02513
1.0648096,79.62131
1.2084806,79.70283
1.1580182,77.64471
1.0707566,76.98166
1.0783153,74.72577
1.0481979,70.336685
1.015361,73.61929
1.0164901,73.42725
0.9862413,71.03321
0.8561204,68.75477
0.94932073,74.20135
0.89752054,68.244514
0.75187117,67.78995
0.71296334,71.541534
0.689245,74.08503
0.7275191,68.40902
0.77542835,64.10695
0.6307908,64.50646
0.6004671,66.823555
0.55463904,60.549313
0.6734533,58.78027
0.5990292,60.05862
0.68315274,60.765144
0.5889139,63.591843
0.6241536,63.45203
0.62705797,60.699436
0.57031304,54.80678
0.583042,57.625736
0.55951697,59.018112
0.43304294,56.866985
0.46214017,62.346615
0.31820658,59.494076
0.32519472,60.59834
0.40022153,59.622356
0.33004564,63.32745
0.3412489,61.16512
0.3172559,61.9893
0.34449148,63.546726
0.45718744,64.30213
0.5206593,66.22858
0.5912298,67.64434
0.70879686,71.26344
0.80261475,69.43569
0.9647106,72.587524
1.0975999,70.739685
1.1031826,74.439384
1.2555659,73.64186
1.345977,74.31969
1.4611329,78.96797
1.5024226,77.98176
1.5474262,79.38377
1.6117616,80.05476
1.6961261,78.46333
1.664806,83.561966
1.7526678,81.0458
1.7976182,83.60143
1.8161649,88.32131
1.8711836,89.077255
1.840743,93.92781
1.7787561,86.9789
1.8522091,93.88561
1.822473,92.99771
1.7834573,85.84679
1.8170305,85.09337
1.7643508,89.42332
1.7023337,83.582634
1.6871067,86.52408
1.6745071,83.443306
1.5707855,87.24254
1.6205117,85.736336
1.5975313,90.333015
1.5509242,82.17427
1.6201128,83.47292
1.5129408,83.470634
1.4663336,83.93843
1.4802576,81.801544
1.403149,81.63346
1.4277163,78.32081
1.4419702,79.22132
1.426131,77.82404
1.3555498,75.9612
1.4046156,76.78862
1.3053517,75.2437
1.2396278,72.8141
1.2809608,69.57973
1.2928119,75.03567
1.2249707,73.94479
1.0872462,70.423744
1.1688855,68.74832
1.0978891,67.29541
1.0349728,66.817024
0.97798437,68.09375
0.92712253,67.058716
0.95841116,65.92357
0.9595085,65.31958
0.8755044,63.226925
0.8732511,62.408257
0.90851766,65.24318
0.89553595,63.118694
0.8573549,66.55065
0.91706634,62.840824
0.8650615,61.87546
0.87055975,55.52297
0.8559846,59.122555
0.7910134,57.983242
0.7450793,56.671593
0.7777959,59.475407
0.71731544,61.47281
0.66207385,59.30221
0.5933073,57.005287
0.59762985,58.46001
0.56307703,54.92359
0.6231445,54.71784
0.55551535,54.236168
0.5546311,58.82966
0.5666528,62.939552
0.6514344,62.22981
0.731744,67.20396
0.7248989,69.227
0.9381367,68.57353
1.0475572,67.23236
1.1045358,70.556206
1.2373354,75.597115
1.3102903,77.75018
1.3872195,73.24328
1.5035129,76.87846
1.6135515,77.52465
1.718254,80.11088
1.691983,77.191895
1.8906314,80.95942
1.8487371,81.68626
1.8479114,84.24302
1.9123309,84.42354
1.9550056,84.30706
1.9490694,88.0243
1.9976445,86.60677
2.0241451,88.627914
1.9603591,87.62033
1.9786108,87.21394
1.9193926,83.00129
1.931324,88.37949
1.9431496,87.833595
1.8772957,87.78198
1.8311763,90.22586
1.7963867,81.13327
1.8729131,85.548584
1.6685904,91.624626
1.5984129,85.29757
1.7242409,81.144646
1.5214887,80.31108
1.5761153,83.429474
1.5872096,85.57587
1.456373,84.56722
1.5846725,77.87268
1.5366877,79.78675
1.5210553,80.6568
1.478664,78.08913
1.5377152,75.29339
1.4184816,76.4546
1.4146929,77.6087
1.3871385,76.62184
1.4617279,76.65846
1.4191675,77.91589
1.329179,72.27344
1.2498393,72.68062
1.3362212,71.96243
1.1754413,71.23657
1.0779587,67.29797
1.0100508,68.49807
1.0045413,69.83557
1.0007621,69.756004
0.9849375,65.89928
0.97241765,66.907234
0.95309937,64.11312
1.0053774,61.928448
0.87862337,69.18817
0.8904887,64.89553
0.91624963,59.442764
0.9126614,61.922695
0.899786,62.428257
0.94655,60.416634
0.8012842,60.361458
0.7740888,61.847744
0.74366695,60.172447
0.7242755,58.795586
0.7482093,55.92821
0.6385682,56.75749
0.55764663,59.863426
0.48231006,59.370735
0.43875223,59.684433
0.49834388,58.089855
0.4725697,60.70809
0.53602463,64.51413
0.5186365,62.298283
0.6199306,61.4105
0.5781448,66.318214
0.7184196,64.36103
0.80583024,66.72725
0.97797203,72.53117
0.9889288,67.93696
1.1587555,68.65907
1.1759256,78.87333
1.3096133,74.808075
1.4530936,76.32372
1.400407,77.11339
1.6044117,74.17428
1.6286402,79.18784
1.6999916,82.0549
1.7125946,85.6641
1.8149524,82.53375
1.793002,85.92351
1.8027327,85.00313
1.8311614,88.82627
1.8679043,83.58271
1.836006,87.20457
1.7645916,90.67763
1.8990861,86.220146
1.8097805,88.758606
1.7912889,89.57026
1.8168674,84.82832
1.6903075,90.921005
1.7385634,81.15974
1.6375085,84.76167
1.5821303,89.25048
1.5970297,89.59877
1.5488425,84.23438
1.5173872,86.37502
1.4414032,85.97938
1.4509815,85.00327
1.3488907,83.048584
1.4603218,80.93082
1.4076678,82.412125
1.3109963,81.15069
1.3196335,79.9581
1.333338,79.139786
1.336711,79.48085
1.3378457,79.05042
1.2056117,77.71417
1.2118148,74.38452
1.2929993,76.32717
1.1774197,77.06563
1.1357323,71.61325
1.0340289,69.30788
1.0326469,72.90539
0.9536375,71.60544
0.8384265,64.829834
0.8856557,68.2169
0.78941834,67.48031
0.75216067,68.38342
0.6937622,66.67226
0.7341596,65.4906
0.7167086,65.523994
0.6493838,62.76019
0.66618806,63.70731
0.7400942,60.87508
0.6944532,63.922714
0.6245307,60.59246
0.5754692,62.064228
0.64720494,60.364944
0.5400405,58.83729
0.6252107,57.99804
0.5683266,62.322193
0.51423055,61.299118
0.45764387,57.308792
0.30067354,55.830738
0.355088,58.996933
0.3113585,60.477306
0.32339168,59.630745
0.18974374,58.252
0.24988182,58.23445
0.2629194,62.255093
0.23691416,58.499023
0.2601609,68.313515
0.43343002,62.882763
0.44265637,64.88407
0.5244278,62.118656
0.6314297,71.30904
0.726666,66.93518
0.83208185,69.49293
0.93369913,72.91116
1.0220547,77.586655
1.1412315,77.95742
1.2505561,81.77549
1.3198024,79.243286
1.3784996,84.28077
1.426202,80.85513
1.4725697,83.74354
1.5327362,81.23226
1.5834773,85.40926
1.4809098,84.792336
1.5524987,87.60374
1.5490398,86.6328
1.5062854,86.921036
1.5941447,87.4022
1.4641918,86.52054
1.5325323,89.910034
1.4695092,86.7043
1.4632856,86.08497
1.440351,82.75084
1.457519,87.825455
1.3949462,84.28668
1.4352531,84.775
1.306536,89.66894
1.2669061,84.51377
1.204523,86.292496
1.1444519,82.61953
1.147164,85.6783
1.1737069,85.33086
1.1074072,86.5442
1.1204845,81.83559
1.0457413,78.57694
1.0303574,73.468575
0.99318236,80.65432
0.99180764,73.83845
1.0427369,78.51982
1.0541773,77.882195
0.9797432,76.344376
0.865247,79.3264
0.86545074,73.00861
0.7496363,71.19601
0.7336271,76.66087
0.71822274,71.0899
0.68,73.20056
0.6179073,75.63221
0.59814125,71.68848
0.5837165,66.856674
0.5661921,68.919945
0.49379078,66.5214
0.47062162,65.911415
0.39760447,64.07729
0.40650642,70.804306
0.4423598,62.90755
0.46056655,62.387257
0.456488,62.155148
0.3533638,61.290436
0.32094026,57.910004
0.43105766,57.987587
0.32421926,59.440815
0.3135469,58.778664
0.28236294,54.703064
0.20293395,60.629498
0.20767051,56.003563
0.11139828,62.498974
0.07239189,60.324383
0.035822205,59.536854
-0.003538589,59.40299
-0.022365782,58.99456
0.02478476,60.214237
-0.050187454,64.95452
0.022874588,65.789246
0.12971084,62.729595
0.19591862,64.565926
0.19346517,62.547897
0.26112974,70.885376
0.39654106,67.586525
0.5054991,72.43883
0.5928936,72.24368
0.6959273,73.23392
0.82366526,75.41658
0.89734346,75.28343
1.0607381,72.02005
1.0742375,79.10203
1.1134912,76.80492
1.1039917,77.55047
1.2440056,83.54482
1.3459734,85.695526
1.3159326,91.04938
1.3299322,85.64557
1.3904989,83.58716
1.3594844,85.28183
1.345701,86.44909
1.3435317,85.93581
1.2893791,89.34377
1.3106165,86.797195
1.3299892,86.287735
1.3142802,83.54479
1.251268,87.43521
1.2213159,87.384636
1.1786492,84.00943
1.2535614,88.33248
1.1717985,86.60983
1.0539243,83.6478
1.12134,88.31374
1.0580969,86.23627
1.0023113,84.49031
0.9388351,85.75991
0.9715963,80.26805
0.9240415,79.82933
0.85515404,82.75328
0.9601826,79.720924
0.8783816,78.42606
0.92021227,75.376144
0.90044546,76.96545
0.85724825,78.134346
0.8084626,73.19925
0.8509596,75.54884
0.82599866,71.1022
0.69349587,70.673134
0.7150802,70.43682
0.6188205,72.09557
0.57385445,72.405014
0.5846025,67.276215
0.5342489,66.04565
0.48469743,64.94332
0.4167999,69.645355
0.4110391,67.895164
0.29014707,66.389145
0.41794553,64.88108
0.38848567,66.79311
0.31688276,65.06288
0.2910006,64.692764
0.37396607,64.84739
0.31422883,63.326706
0.35861823,61.73557
0.27175045,64.368034
0.28975525,60.260807
0.26098597,59.643555
0.23792157,58.609005
0.24517752,57.09062
0.22185889,55.19518
0.13514125,56.202324
0.020011341,57.052654
-0.013800559,58.404644
0.048992753,60.786938
-0.046611983,60.360367
-0.039038036,60.13264
-0.043537173,61.415592
-0.013590652,62.764736
0.09083795,63.985947
0.121536,67.403854
0.20802209,62.81416
0.25251153,66.776474
0.40066135,74.30832
0.4696114,67.14547
0.5936095,72.830185
0.7386261,71.01906
0.7764449,72.81881
0.9553684,73.950325
1.0074266,75.202126
1.1483847,76.39633
1.2150002,81.92405
1.2110701,76.211655
1.2647039,80.26246
1.3715855,87.81869
1.4009584,82.28778
1.4011878,83.9456
1.448371,83.52317
1.4141273,82.357796
1.401287,84.72739
1.457502,85.48355
1.4339396,89.13744
1.5130087,89.75411
1.3910561,87.73223
1.4003478,92.24444
1.3041707,89.46904
1.4345984,86.672615
1.3486748,85.364624
1.2469308,86.10895
1.3429457,85.20699
1.2169473,90.357414
1.3110616,84.281296
1.2458408,85.07016
1.1210637,78.324776
1.1072053,82.26853
1.1042987,79.215004
1.0629631,84.41392
1.110156,83.95107
1.0904748,82.252144
1.0307393,84.194466
1.0157717,76.66813
1.02185,78.40283
1.0152252,72.98273
1.0021218,74.63213
0.9235958,78.44446
0.9953368,70.491486
0.91534674,77.10111
0.87436384,76.43444
0.8495707,75.99719
0.802457,69.40865
0.7641793,69.14893
0.6652722,71.12127
0.6595943,71.250595
0.5900143,65.11656
0.5476865,68.42891
0.49868357,68.099174
0.5378768,66.89998
0.56496626,64.17151
0.5703185,62.29023
0.52621675,60.191914
0.48275137,64.37757
0.55855465,61.532234
0.46890038,64.00788
0.53532743,58.381516
0.54442084,60.67004
0.5144522,57.52113
0.4182303,54.652935
0.34844404,59.27588
0.43520057,57.800697
0.37154818,60.093292
0.33533263,59.91449
0.3671028,61.27364
0.25669956,54.23478
0.22079152,61.834713
0.19506851,59.20004
0.22080472,57.795307
0.24008834,62.69492
0.30533817,63.034416
0.36919543,66.7586
0.4662184,66.43196
0.5530329,62.36549
0.5663533,68.397385
0.6761038,68.07427
0.8793796,70.17075
1.0037547,72.38201
1.1393113,74.89815
1.199715,74.90547
1.2302186,77.59551
1.3436148,77.213875
1.4699011,73.25442
1.45341,76.79895
1.6362628,83.70437
1.602694,80.8601
1.5762763,81.24312
1.6437122,84.16082
1.6747793,83.3026
1.7183148,87.27083
1.7589668,86.08017
1.7066576,86.9843
1.7143477,85.16803
1.7479931,87.08493
1.6567247,89.89093
1.7149848,91.682724
1.7154094,88.031364
1.6044782,86.04531
1.6491237,86.16683
1.5801482,90.21427
1.6230596,91.09725
1.4688339,90.02924
1.3933898,89.38928
1.3504074,84.19202
1.5057341,83.93892
1.4266125,80.03379
1.341365,84.49212
1.3875961,77.95425
1.3356559,78.05811
1.3931437,77.95136
1.3033603,78.360664
1.3096371,76.16234
1.3662639,79.42637
1.2805008,76.25894
1.2321949,77.92685
1.2547325,73.465614
1.2842907,72.70404
1.153703,74.39218
1.1309336,72.16873
1.0471975,71.923836
1.0323355,70.6204
1.0801089,71.00535
0.9641377,69.43097
0.888657,70.831726
0.879912,63.704563
0.86480045,64.75822
0.8591537,73.51095
0.81886554,68.831116
0.7973354,69.28297
0.79244936,63.918724
0.8481455,60.66318
0.79908293,64.78458
0.77788436,57.52389
0.7894104,57.96106
0.8257126,59.42439
0.76678413,62.574978
0.75392896,56.810413
0.76335096,61.743023
0.6548226,61.094017
0.7297035,61.78581
0.631695,64.45675
0.6575812,53.00577
0.5423266,62.418423
0.5258003,55.867096
0.45253852,62.29172
0.4579533,55.328896
0.46995944,58.74345
0.5281842,64.53065
0.55432504,65.19564
0.5911014,62.252804
0.69815964,65.52396
0.81940955,63.616547
0.8312608,65.741264
0.9684979,70.02392
1.0783154,68.63259
1.2220659,70.77121
1.3464553,75.64003
1.372972,77.042366
1.4388038,76.12695
1.5384662,78.790596
1.63355,81.77321
1.684384,87.04032
1.771767,81.77171
1.8069599,82.369865
1.886415,80.872505
1.8944921,88.26854
1.8163446,85.18551
1.8495998,83.165726
1.921131,88.45483
1.8928975,85.77892
1.8977848,89.87977
1.8809845,88.57108
1.8963823,85.401085
1.9064089,89.85146
1.9314665,85.51364
1.8158715,93.97469
1.8714567,85.81083
1.7805407,87.76187
1.7184792,86.08387
1.7240651,86.5113
1.6468036,88.09229
1.6491311,83.73896
1.6234182,78.6909
1.7318581,83.18963
1.5276853,78.34419
1.5775619,83.42941
1.5582918,78.429054
1.5137675,84.42751
1.4969193,79.75679
1.424699,78.49455
1.392855,76.13358
1.4728872,78.131775
1.5057077,74.865555
1.3984281,76.001175
1.3137991,73.90393
1.3099346,72.72933
1.3858956,69.83632
1.3262385,70.08618
1.1740565,64.30533
1.1817743,68.327515
1.1298797,69.507805
1.0394219,66.06687
0.99463916,69.57764
0.9397263,67.38283
0.90602493,69.43634
0.96782124,62.45457
0.9727327,62.330387
0.97100776,60.741947
0.93771154,63.055355
0.95579076,63.08421
0.8983052,56.750927
0.90441245,61.30217
0.90073395,61.738262
0.9627653,63.69393
0.9272523,62.813427
0.8666161,58.465405
0.7383197,54.412487
0.80199605,59.114197
0.6486434,56.91316
0.56432337,61.568317
0.63896847,58.489635
0.6223057,63.433468
0.61844665,59.63044
0.500295,62.78615
0.48276743,60.499344
0.55029804,63.46011
0.56511927,61.10142
0.6586688,63.955338
0.7804352,67.93917
0.8157752,69.58192
0.94079286,69.38661
0.9615698,67.31168
1.0534077,69.62855
1.1916244,70.575264
1.3519197,74.1721
1.3791044,72.95676
1.5099175,76.06675
1.6075386,76.705635
1.72384,81.67702
1.7000401,77.665184
1.7455522,81.70785
1.8049799,84.20635
1.7901548,79.63213
1.8767782,85.97706
1.9293245,83.62219
1.9359288,85.75826
1.8691232,91.02103
1.9517862,87.173805
1.8573409,85.308395
1.877013,87.235
1.9341986,89.63455
1.9300176,83.572876
1.8713351,86.43721
1.946016,83.4897
1.753567,91.89003
1.7835451,87.24428
1.7064521,84.80933
1.6785861,86.8965
1.7336982,85.694725
1.600062,85.96836
1.5758197,80.175415
1.4608672,84.73814
1.5205274,81.93858
1.4513799,84.108315
1.4544052,82.78085
1.4075259,75.0173
1.4966159,78.71894
1.4175556,78.37205
1.4109752,79.24138
1.332724,76.21264
1.3911076,74.3915
1.3400087,72.716095
1.323396,75.638794
1.1794944,71.60343
1.2202338,72.94781
1.10831,70.301
1.1350358,72.59366
1.081071,68.79389
1.0198573,69.56914
0.856946,69.67951
0.9216147,65.984024
0.8961998,70.96433
0.83450794,68.96637
0.8488013,61.160385
0.7350149,66.77699
0.80484694,67.23607
0.7119899,60.84032
0.7724808,63.19981
0.85827464,63.774097
0.7711046,59.998867
0.7195917,57.766766
0.6356874,63.52433
0.72105056,56.545002
0.68006724,56.56543
0.6065574,59.618126
0.6542788,56.690254
0.5327844,59.568985
0.48759845,58.785694
0.47265294,57.80018
0.41682357,62.731304
0.3436701,61.92684
0.3827601,61.473198
0.27257293,62.4761
0.3619853,63.959652
0.34406406,61.52108
0.3989823,64.94245
0.5267735,64.50179
0.5855668,67.7908
0.67231005,67.071495
0.71950966,68.715195
0.8799225,65.41482
0.9661644,72.045616
1.1036214,72.808754
1.1839478,75.75595
1.2204686,75.85529
1.302401,80.63912
1.3630637,80.809784
1.5355189,78.07855
1.5299566,77.45643
1.6582795,85.89221
1.5970825,81.432816
1.7089593,86.03486
1.6901819,83.08516
1.6860301,85.295204
1.6948606,84.40029
1.7325786,86.74625
1.7248846,85.00158
1.7353938,87.796616
1.7267109,91.82084
1.5855181,86.14223
1.5934615,89.65872
1.529181,85.164825
1.528142,85.959015
1.5564477,87.44159
1.4264318,85.40338
1.4549104,83.652084
1.3243719,87.30941
1.2964557,80.772514
1.2946578,83.348885
1.3139758,87.75588
1.2224739,83.76552
1.1457072,81.67471
1.1921468,85.619156
1.1721256,81.52129
1.1127858,86.762436
1.192264,77.91425
1.1715927,77.471565
1.120904,80.12014
1.0775232,76.21227
1.058167,75.7294
1.0485462,74.44655
1.036184,73.74032
0.9183147,69.29077
0.93217784,71.797585
0.8428335,71.01167
0.77487636,72.27024
0.66328895,72.68537
0.69082975,66.470406
0.56659156,69.082375
0.6015928,67.5803
0.6151041,64.983696
0.5718635,64.83132
0.4646179,65.24499
0.5096891,62.012794
0.5099287,64.54447
0.43946275,62.911774
0.39999714,66.94519
0.48271158,56.25579
0.5223246,62.00727
0.4481569,60.944275
0.44486713,58.076973
0.36252123,57.439095
0.36766508,60.594345
0.21904576,56.828304
0.26211354,58.503387
0.26073185,57.05778
0.22273567,62.171143
0.11495803,60.918407
0.05695249,55.52171
0.06364105,64.0958
0.09192588,56.77825
0.09946216,59.480316
0.120275624,63.707497
0.16778558,62.7143
0.21330465,65.04884
0.24360062,67.82201
0.28305104,66.50469
0.4288965,66.70171
0.6141622,73.38918
0.7227232,71.43601
0.7836572,74.09991
0.92235047,76.31927
1.0345608,72.5009
1.074891,79.07061
1.1207762,81.296814
1.2139653,78.219696
1.2487935,82.27737
1.3529434,83.268814
1.3413731,84.84661
1.3530753,82.54822
1.4136258,87.384315
1.422747,84.590866
1.4160398,83.826355
1.4076972,88.89011
1.443978,82.93561
1.4058253,88.37152
1.5099841,84.71031
1.3998967,93.58945
1.2921284,90.92782
1.3461239,86.113
1.3202412,84.34393
1.2881058,89.37976
1.1759696,87.7661
1.1451095,86.08655
1.1029986,87.06972
1.1092637,85.551285
1.0923173,81.37936
1.0349568,84.62908
0.95762646,82.1407
1.0108212,82.9289
0.93657047,84.42304
0.93576777,82.916115
0.98641694,79.133835
1.0003691,84.50888
0.9503516,73.63691
0.90172106,78.48398
0.92660075,74.22332
0.8859579,73.644966
0.728552,74.35412
0.7877943,77.19168
0.7231641,70.80473
0.71840876,75.06137
0.6571768,71.04092
0.49343064,66.911606
0.50308865,71.81208
0.5300633,66.67362
0.45575956,67.42667
0.4331888,69.19701
0.44624487,64.03159
0.3741308,66.90104
0.35041723,63.69816
0.32860652,63.963634
0.37292418,66.40847
0.23988572,67.982605
0.32779807,64.15433
0.3095691,63.745487
0.2549837,57.733593
0.32497093,63.806263
0.32942745,57.403477
0.25335008,58.028545
0.2402516,57.006165
0.17497088,57.5772
0.23372424,56.76713
0.082910724,56.237457
0.04541403,57.87549
-0.019111587,56.388805
-0.07862861,55.44097
-0.05421799,56.88552
-0.10391107,62.0266
-0.08665276,63.95941
0.008583165,65.45243
0.06603859,62.87291
0.068701774,66.22365
0.10742355,67.48757
0.2662832,63.45014
0.3756997,69.02911
0.4617963,67.29666
0.65342456,69.5998
0.7993645,65.99876
0.82648593,71.92392
0.885946,76.54091
0.98207426,80.247925
1.0597261,79.75649
1.0827788,79.53396
1.2554014,84.48713
1.2185479,80.78296
1.3129461,84.6158
1.3399336,82.825874
1.3520523,85.7616
1.3572475,84.90061
1.3913025,83.372574
1.3264529,84.264206
1.4654039,85.70425
1.4255155,86.90074
1.3678744,90.08723
1.2989722,90.67996
1.3499358,90.7949
1.2753675,86.71418
1.352267,88.317
1.2576426,84.61439
1.2273735,85.38352
1.131196,82.18301
1.210436,84.9564
1.1038744,88.12807
1.1064599,82.396
1.0234958,81.61639
1.023423,83.65962
1.0041103,81.469986
0.9665131,82.66348
0.94283336,83.23153
1.0186032,78.732506
0.9198908,79.34459
0.9749812,81.10216
0.9216344,74.67017
0.82298255,73.15798
0.869201,73.18478
0.8681138,72.8759
0.823286,71.65464
0.7949581,74.70421
0.6854286,74.582535
0.70137244,75.087265
0.5882179,69.119644
0.6917219,69.72857
0.58446586,68.91329
0.5567812,69.406006
0.4486347,65.98064
0.533697,66.84767
0.48691824,66.13359
0.4441231,62.12072
0.4440276,60.966633
0.50841755,64.51116
0.38037425,63.13845
0.3581835,68.70615
0.42562062,60.995857
0.4336062,60.89168
0.43037704,64.09575
0.36951527,58.11376
0.3244765,63.865635
0.35344234,57.518974
0.35875773,52.853695
0.28951895,56.265835
0.18904178,58.50027
0.14148594,56.44845
0.1310244,58.29512
0.04365014,59.611324
0.069969095,58.96401
0.09052999,57.355335
0.10706779,56.926147
0.11827879,63.049324
0.14157869,62.38279
0.22808078,62.8434
0.39099255,64.53783
0.42041138,65.40461
0.44218332,66.677055
0.6910696,66.01931
0.6489573,74.959076
0.8256249,72.252525
0.9085305,72.28944
1.0908247,76.31588
1.1803578,77.0952
1.2784747,82.81863
1.3338709,78.00626
1.3582451,85.880295
1.4726584,80.734436
1.4436333,81.08854
1.5430362,81.0281
1.4966311,83.84019
1.5351769,85.84613
1.5369631,90.86638
1.5755342,85.75394
1.5766777,86.30704
1.544088,86.250175
1.5140185,89.751625
1.6661328,83.95042
1.5019175,84.77781
1.5061212,87.306725
1.5068203,86.3884
1.4996654,85.39675
1.4864329,85.197716
1.4862287,84.705025
1.3835211,87.757706
1.3473678,84.353905
1.3571299,86.25647
1.2639108,80.420975
1.201364,77.53654
1.2461877,81.09823
1.2492292,79.58256
1.2260057,81.104614
1.1936526,82.00027
1.2078687,80.634476
1.2468019,81.93186
1.2056513,75.51368
1.2367448,78.15496
1.124796,75.23819
1.0546461,72.43656
1.15443,72.06754
1.0976238,69.341095
1.0636706,69.01912
1.0012724,67.769485
0.9154325,71.82325
0.8820212,67.72065
0.96925616,72.12291
0.826831,68.946884
0.8684039,68.062584
0.68431956,70.75265
0.7119723,68.36883
0.6938654,60.540913
0.6959093,64.79158
0.7971433,63.012978
0.7167059,60.48188
0.6114847,61.224716
0.7433788,64.9027
0.6656908,58.45809
0.6611864,55.385487
0.7455395,57.22519
0.6220205,56.157322
0.6189086,55.51465
0.6604199,53.685833
0.5331351,52.743595
0.47657835,60.238445
0.4495269,58.11479
0.41980085,60.11944
0.40932748,60.85558
0.31874102,58.358665
0.3493021,60.242146
0.4229511,59.841278
0.4840724,61.247883
0.44375932,65.10872
0.5590197,60.447147
0.52424,64.974106
0.64167815,69.922874
0.83146197,64.88471
0.9425647,70.409645
1.0612445,66.93013
1.122486,71.32686
1.2043594,68.28129
1.2786026,69.796745
1.4381402,77.53734
1.5174487,74.30828
1.6292316,83.11209
1.6622647,79.69312
1.7186744,80.36696
1.774822,85.2442
1.7952223,81.5418
1.8421038,81.726
1.8874083,85.23603
1.8594283,89.136024
1.9098599,87.35327
1.9471853,84.38836
1.9340984,89.11073
1.8790644,91.50989
1.8442342,85.87528
1.8508976,83.945496
1.7963314,87.710945
1.8462402,88.80558
1.7316384,88.48822
1.7316058,89.664665
1.7178042,88.593765
1.6114234,86.71711
1.6156075,85.26383
1.5698396,82.93715
1.5421625,84.397095
1.4525983,83.738716
1.4700019,85.50886
1.4636402,78.1213
1.5714172,80.408
1.5457457,79.72428
1.5362843,77.731575
1.4037763,81.08536
1.3818752,75.317924
1.4272319,71.42428
1.4002106,74.8313
1.3646679,71.519485
1.3551327,74.389015
1.3503851,73.92843
1.2021228,74.499054
1.2604,72.55389
1.1581928,70.48186
1.1754193,70.6896
1.1059253,72.394135
1.0246559,69.23595
0.96401787,68.45243
0.97563684,65.69994
0.9072823,65.38774
0.8894804,62.333794
0.92091537,61.68306
0.89645654,60.484867
0.9545479,60.450497
0.92159235,60.607628
0.9109874,60.197414
0.9179947,56.163666
0.8448403,64.8521
0.8577733,57.378654
0.77320373,59.96018
0.84453595,54.7971
0.75492173,58.605568
0.707932,58.97155
0.6584278,57.142403
0.66779655,59.532925
0.59391016,58.63871
0.63158685,59.02338
0.5475368,60.689766
0.53257006,59.21455
0.57002985,61.718174
0.6082159,64.96478
0.6395252,62.038635
0.7652657,62.137215
0.75784105,66.10701
0.87804234,63.51295
0.93246377,70.33561
0.95557916,71.184525
1.1425062,70.95367
1.2104859,66.53201
1.3486481,71.25877
1.461103,75.80713
1.5177746,77.96121
1.740489,80.82934
1.7895343,78.41087
1.8235077,78.58829
1.8226255,80.19902
1.8855968,85.453636
1.8459415,82.65305
1.9160286,86.92861
1.9611628,85.23708
1.8814173,86.98255
1.9443713,87.81915
2.0109851,83.82188
1.9766908,88.82266
1.9708521,85.899605
1.9297429,83.03211
1.8873487,89.96694
1.9494952,86.94481
1.8273402,87.43753
1.8989689,83.98267
1.8310561,92.37143
1.8061848,89.505714
1.7652874,87.444916
1.5689933,86.60302
1.5757828,86.3861
1.6249748,84.04889
1.5530491,85.15066
1.5583566,78.59226
1.4972847,78.76067
1.5602427,78.70285
1.5137283,80.622475
1.4434172,80.74447
1.4678707,78.28157
1.4083605,75.93864
1.4597358,80.03602
1.4303416,73.802086
1.5004365,76.65743
1.4142764,74.56382
1.3301443,73.1284
1.2603858,74.39745
1.1434498,72.55359
1.1663672,73.57268
1.1294978,72.84887
1.1186298,68.52887
1.0466706,69.57629
0.9057435,70.09488
0.94653535,65.76404
0.8262369,65.91661
0.95960534,65.94321
0.8747487,67.626045
0.8651157,55.30109
0.96065414,64.58584
0.9193354,62.35895
0.9017395,64.41656
0.87654376,60.213123
0.8618635,66.527435
0.84029585,59.170914
0.8604362,62.442608
0.75027615,58.088223
0.59994125,63.512924
0.7024015,59.09933
0.63210654,58.988625
0.54576737,57.14613
0.57380533,57.519676
0.52364457,57.876984
0.48998097,60.17516
0.45119646,61.470654
0.4221581,64.383316
0.4902909,65.48066
0.5787515,64.83761
0.5381679,64.895836
0.6166649,63.218
0.6758604,69.447395
0.8442282,68.43429
0.95488656,66.308624
0.9267987,72.35307
1.1847585,69.45247
1.1790363,73.93535
1.3081509,73.19823
1.4652137,77.86918
1.4928777,77.25906
1.5371444,80.909615
1.53906,81.80399
1.6173706,80.19571
1.6673071,82.49636
1.7211908,81.51984
1.7990245,82.51087
1.7777231,84.6606
1.8705931,87.232895
1.7707998,85.72942
1.767513,87.55031
1.7238901,86.025764
1.8107967,85.31932
1.6874532,83.23592
1.8508238,85.14752
1.6469822,89.58038
1.7208694,88.43703
1.7090641,84.40659
1.5707154,90.40745
1.50856,82.8582
1.5831006,85.2468
1.4473126,86.015434
1.4808267,78.90096
1.4196979,81.094894
1.4052217,85.3335
1.3246754,82.16219
1.3463973,85.05289
1.2442527,80.76428
1.2419963,78.94773
1.2694234,75.45825
1.2268754,79.460655
1.2693008,72.40667
1.2419882,76.737144
1.1581402,74.83857
1.1179487,73.64773
1.1189332,74.7271
1.0291374,71.64415
1.0894625,73.15163
0.98368245,70.88705
0.94557637,73.12795
0.9234927,66.24807
0.823993,74.83613
0.78277403,71.17906
0.71333075,66.4912
0.76874834,68.20503
0.5813153,63.785637
0.6598667,65.485176
0.6869567,62.817524
0.5645708,65.546326
0.5934838,65.574356
0.56674606,62.781662
0.6180114,59.330456
0.6447908,60.312683
0.5674337,64.19873
0.6117621,61.55864
0.5882798,55.3107
0.5517397,59.510853
0.4892157,62.863297
0.35329875,54.52922
0.37978145,55.703148
0.32928303,58.131516
0.31301078,60.94787
0.23917162,59.893192
0.2590559,57.13614
0.14645325,61.934002
0.16840348,59.82651
0.16421175,62.32869
0.1906162,62.001877
0.3426906,59.84279
0.27919397,64.876396
0.38417062,66.886406
0.45078564,67.92366
0.6636832,69.15997
0.6385084,70.16335
0.82742965,72.15441
0.91637355,70.72892
0.97699535,76.3037
1.0660937,74.12492
1.1478605,77.18453
1.2317384,82.2949
1.3010083,78.52141
1.4724216,77.91066
1.437705,82.77643
1.4714389,83.01472
1.462683,84.43058
1.5404359,83.72416
1.460118,88.289955
1.5791265,85.44846
1.4444487,87.163895
1.5114717,82.957924
1.4801619,89.53849
1.491227,89.27232
1.4169168,88.08102
1.4813436,86.161095
1.3760151,84.267136
1.2999171,88.22557
1.3392495,86.491196
1.3818518,88.85019
1.1425749,85.65198
1.2584827,84.64779
1.1725708,83.138336
1.2196244,83.32631
1.1208614,84.95824
1.0588602,81.492355
1.0735269,86.2256
1.0203298,82.55979
0.9857873,78.96843
0.96191275,80.4286
0.9196234,78.06186
0.9809898,76.32233
0.9789519,75.4233
0.892323,77.78153
0.78521836,74.20835
0.8192056,71.45675
0.78606606,72.6723
0.7563932,74.65599
0.7471157,71.201546
0.6523423,72.97223
0.5990072,71.27813
0.6571544,67.67702
0.63936734,68.33987
0.43729442,66.36505
0.46303084,69.51306
0.4438978,68.019135
0.47497305,64.77675
0.35715395,64.555016
0.39916864,67.630135
0.32792088,70.19243
0.31366464,59.66995
0.3292321,60.387993
0.3819137,63.50817
0.34334955,64.01364
0.32934818,60.174316
0.3240912,62.16526
0.35260928,60.617764
0.23008344,57.254772
0.27236128,58.234333
0.13714278,60.342266
0.09215295,59.752617
0.07394954,60.69796
0.04521881,60.710083
0.030310053,58.18427
-0.029954406,63.330345
-0.06497023,61.617252
-0.01838157,63.697525
0.020671181,63.81849
0.13893093,62.309986
0.022589838,62.89531
0.2094774,63.996662
0.3177965,65.76742
0.46778324,69.32292
0.4844117,68.45403
0.6087028,73.020256
0.6695381,72.56653
0.85330665,79.25838
0.84977263,76.630135
1.0143801,75.94432
1.0610067,83.430725
1.1710367,82.013626
1.1641191,80.994514
1.3890427,83.13183
1.292117,78.73311
1.3094693,87.93006
1.3853861,85.13471
1.3580139,85.07472
1.3940735,81.13584
1.3500848,87.23749
1.3598047,86.25036
1.3329877,87.95245
1.3499188,85.183174
1.3558807,90.02456
1.3595896,86.68262
1.4023434,86.890396
1.2119657,86.412735
1.213636,88.41489
1.1730033,86.883286
1.1787031,83.58301
1.067959,84.11879
1.0568085,83.33332
1.0141515,83.6802
0.940546,83.08817
1.0328876,83.75122
1.0205926,82.62691
0.89549536,80.55057
0.91743755,80.75971
0.95184577,78.06587
0.9221514,76.566826
0.9113196,73.679756
0.9345674,74.71394
0.8815141,79.142395
0.89847547,74.24435
0.7878289,73.26516
0.7910432,76.97271
0.67606777,69.70704
0.67788243,72.56709
0.65625644,72.96062
0.5909228,65.15803
0.5471397,67.37092
0.58228076,67.051674
0.491045,66.35618
0.47714972,69.3662
0.39964408,68.104065
0.37168756,60.16652
0.33650956,64.89103
0.33123755,64.57175
0.35870227,61.387356
0.33739248,66.80281
0.36103606,61.609684
0.33605352,56.258408
0.38263297,61.081074
0.35059798,58.68426
0.3160975,64.13621
0.29899785,63.05162
0.26580697,58.28935
0.19518408,53.893894
0.18966797,63.42083
0.12053618,61.393696
0.018866697,61.230415
0.054603487,57.13711
0.05474592,55.984848
0.02774462,60.151455
-0.06295513,56.93846
0.045249112,64.246346
-0.035992783,65.27524
0.15558252,64.5351
0.16819799,64.25486
0.23887166,68.068695
0.3190436,66.89279
0.52571315,64.80509
0.50079197,70.82566
0.71714514,75.8169
0.8229081,75.03988
0.9160614,75.41114
1.0376797,77.4921
1.1025542,75.26497
1.1817782,79.231476
1.174816,79.20081
1.3458347,83.76217
1.3670622,82.77333
1.3879589,81.299835
1.4113648,82.27336
1.4512218,87.74963
1.4715582,87.639145
1.4930462,88.9028
1.5183105,86.870415
1.4289317,83.73647
1.4535477,86.410515
1.5118831,86.55348
1.5109242,91.495926
1.4148488,91.107506
1.503392,83.26952
1.4901788,85.931946
1.3589082,89.52369
1.2913241,85.31278
1.2992351,83.45555
1.2422639,85.15076
1.2967902,86.15548
1.2993847,81.402954
1.1652,83.61297
1.0818474,82.56252
1.1972855,81.83014
1.1342692,78.574615
1.0912526,81.1098
1.1039513,81.1468
1.0783275,81.05588
1.0163265,76.82466
1.0683953,75.1214
1.0759319,75.645615
1.022188,72.59806
1.0142763,70.08754
0.95529556,72.3211
0.96281886,72.54509
0.9304901,76.043335
0.88224465,72.872406
0.7395873,75.19253
0.78923094,71.458176
0.8199929,68.89061
0.66226065,68.92884
0.67304844,65.99561
0.5816203,64.88013
0.66539764,70.164406
0.6185154,65.28503
0.63034666,61.05031
0.55225044,65.721695
0.59060335,62.527493
0.54030424,59.792908
0.56536883,61.340553
0.646177,63.44489
0.5189539,55.821815
0.5807568,55.19284
0.6469317,60.650284
0.44730988,59.167023
0.4900867,60.068058
0.38994125,61.34457
0.42221934,60.198208
0.30631897,60.52403
0.27913177,56.579365
0.29307643,59.78706
0.2631579,64.20781
0.23278213,63.27975
0.26376137,61.35273
0.253494,57.307407
0.33797616,66.26039
0.456065,65.92326
0.4801971,62.883503
0.61948526,66.28056
0.67296404,68.72136
0.77349097,68.68188
0.8770141,71.616806
1.042887,73.22402
1.1637288,73.412506
1.2673396,75.66084
1.3201526,75.539635
1.4484366,78.57071
1.5348752,78.84518
1.5527393,79.80321
1.5882599,85.14326
1.6471685,84.419685
1.6965816,85.960434
1.7357372,84.085
1.792727,83.01257
1.7418295,85.704506
1.8338991,82.42167
1.7254438,84.6071
1.7892299,87.189354
1.7375984,88.82163
1.7234496,90.46197
1.6943742,87.01249
1.7010161,87.487434
1.7068554,85.34566
1.6385903,85.24204
1.6520997,90.42657
1.6294777,83.5434
1.4987464,89.50839
1.496923,83.24266
1.4716836,84.58741
1.5132128,82.77888
1.3839327,84.358795
1.4060694,80.88965
1.2898626,85.6041
1.3154858,82.7934
1.3788357,77.95411
1.3705816,79.33309
1.3536206,81.8977
1.3173343,76.77955
1.4215897,77.97125
1.311996,75.72677
1.3188637,79.2151
1.2194958,74.27007
1.1808567,68.79866
1.1191798,73.89468
1.1404538,72.71711
1.1482623,75.27105
1.0473062,69.96832
1.0061486,64.661804
0.9074101,66.76826
0.86602086,68.710365
0.94285136,68.289345
0.96338433,67.08347
0.8717608,66.52404
0.8702048,62.501884
0.84986854,60.179947
0.8262774,64.12829
0.81723326,66.19674
0.8706511,62.82571
0.8594171,63.23518
0.7993265,59.639774
0.7697911,57.56341
0.77423686,55.48078
0.78799456,57.29726
0.68203163,53.60482
0.77333164,62.091015
0.6705014,58.813663
0.65914273,57.826897
0.61870337,55.03273
0.57889026,57.581326
0.4893898,62.34582
0.6104242,60.692924
0.55107033,63.80302
0.59614074,63.233902
0.56239116,63.148903
0.65107155,59.9062
0.8378592,65.566536
0.771353,68.832985
0.8534886,69.28064
1.0000172,71.337685
1.0801806,72.473076
1.2617122,72.08985
1.4090526,77.01308
1.5101297,71.78953
1.5835112,79.62806
1.5982289,74.76065
1.6912322,81.7761
1.8335887,81.06171
1.7588328,83.19909
1.8402781,85.2147
1.8464977,81.15183
1.9037834,87.48704
1.9078935,84.07811
1.9715289,86.59351
1.9821345,87.81191
1.9319544,87.25941
1.9380041,87.9342
1.9312347,84.596466
1.8595922,86.17466
1.9183695,87.69259
1.9220575,85.3975
1.8714198,86.70514
1.7312207,89.39651
1.8264335,89.11022
1.7909453,84.653244
1.7248933,87.081795
1.6689703,86.59978
1.738533,80.22359
1.6180215,80.94956
1.6336868,80.867516
1.5497789,86.38066
1.5391067,84.70783
1.5642124,81.76233
1.5089568,80.9559
1.4959996,81.940865
1.4354235,77.991356
1.3493016,74.92516
1.4835305,76.61927
1.5117586,75.74374
1.3812917,70.89427
1.3756127,74.84187
1.393635,77.384445
1.3517532,72.75241
1.2580011,74.13329
1.2647414,69.2709
1.1889808,69.29431
1.0210297,68.44516
1.0418994,69.33682
0.9961645,68.00304
1.0049232,66.21369
0.91408867,67.6626
1.010531,67.343094
0.9247283,62.05546
0.9367796,67.844
0.96971214,64.14414
0.8414697,64.985954
0.9060868,62.348255
0.89231515,65.02896
0.8604306,61.731052
0.8994735,55.45574
0.8542785,61.054077
0.72149885,58.76062
0.8164147,60.821518
0.7993951,53.92616
0.6305017,53.18235
0.5566154,61.478065
0.5992775,57.650856
0.56442165,57.37541
0.56231064,60.4228
0.53704894,59.052914
0.53025645,64.71354
0.43520966,65.96197
0.57502013,64.50213
0.65921885,62.46862
0.69400424,64.45289
0.81273615,65.90888
0.8368759,70.669655
1.014169,67.75097
1.1312433,70.33025
1.2021155,70.13625
1.2811848,73.33459
1.3791004,71.796265
1.502534,81.36333
1.6059662,77.79273
1.7046611,76.320305
1.7686207,83.76232
1.7999654,78.563416
1.7619044,79.3924
1.8726478,86.12166
1.8445863,83.89172
1.8730578,88.73417
1.8895638,84.037704
1.9009184,86.24431
1.8160826,89.25115
1.9483154,86.4979
1.8999064,88.39154
1.8244972,91.921936
1.8082114,92.94578
1.6528379,92.73837
1.837286,88.66733
1.752037,84.58562
1.6352637,84.50102
1.6225586,83.159935
1.5887958,88.60368
1.5968573,85.26256
1.4451594,88.37713
1.4794183,81.97871
1.4529908,82.58788
1.4543512,78.847496
1.4742577,78.863335
1.4298544,81.61854
1.3720273,82.70573
1.3097234,76.59983
1.3256203,75.876
1.3367683,78.54427
1.2563472,78.66171
1.3387948,74.97172
1.254159,75.800606
1.2679439,71.440186
1.2013221,73.852615
1.1303663,72.0899
1.0430412,67.831116
1.071128,68.67387
1.0373455,70.561165
0.9605932,68.44483
0.85122436,68.97169
0.89343643,67.038475
0.73046756,64.354126
0.8274355,62.49107
0.7647331,63.229588
0.74176115,66.09156
0.7439236,65.226555
0.7548821,65.999435
0.79111797,59.970547
0.76217043,57.51227
0.7424786,60.816883
0.6867162,63.664215
0.7461567,54.905514
0.63202286,61.298916
0.57687527,56.870674
0.6033808,57.610893
0.5252652,60.66226
0.48697868,61.21466
0.3853986,54.852512
0.42055055,60.224125
0.31456992,57.543617
0.33668733,59.075836
0.29839316,57.500248
0.22819819,65.48499
0.3135016,60.518826
0.40302658,59.47719
0.4354973,63.125813
0.4532789,64.19622
0.5521713,66.14443
0.60554034,66.73266
0.7199085,70.02462
0.90378994,69.53724
0.9660593,71.852135
1.0119815,69.99377
1.1669549,80.81557
1.2083124,74.42447
1.332897,80.02343
1.4000648,76.79763
1.4365003,83.907265
1.5340668,84.3128
1.5138606,84.32031
1.5945065,83.03405
1.653811,81.22999
1.6234386,88.569855
1.5835528,92.62604
1.6143439,88.156
1.6814389,88.17789
1.635884,90.167336
1.6358854,87.67313
1.5848476,90.9064
1.4800259,90.151405
1.4874569,85.084816
1.4885262,88.095535
1.4503684,89.14788
1.417055,88.113884
1.3354658,87.45105
1.3092542,82.56604
1.2072165,82.05067
1.2589612,77.96696
1.1717713,82.226295
1.1014425,80.76119
1.1785471,82.59163
1.0875752,81.359314
1.1086261,79.85991
1.119692,80.80412
1.071263,81.205124
1.1092933,76.44339
1.0595514,76.16115
1.08598,76.395836
1.0358553,75.38956
0.9596202,80.59816
0.9101338,78.098724
0.91034496,79.23173
0.85987884,72.56903
0.8216932,72.29768
0.76436156,70.122475
0.7247206,71.13576
0.59767526,66.22959
0.56310534,70.36049
0.56988907,67.799736
0.49880287,69.12064
0.48192608,67.033005
0.4962537,67.97759
0.41517672,65.78162
0.41293496,62.578346
0.5622274,62.515472
0.38638526,66.49776
0.49696606,61.02896
0.38908705,56.216656
0.35671,60.94236
0.38129023,59.48015
0.38426855,61.588074
0.40106994,57.48392
0.32470247,61.377556
0.20152661,62.47158
0.13889952,58.787563
0.14065604,62.19504
0.120941214,58.472366
0.0043165055,60.25921
0.07369443,59.955593
0.036784068,60.80325
0.03700677,62.715366
-0.026930002,64.53581
0.08495882,66.34944
0.10221343,61.74915
0.0926701,68.799675
0.32403496,65.88312
0.45197022,67.94854
0.5174387,65.90743
0.54405564,74.55997
0.67784446,69.41675
0.82670486,72.02028
0.9651391,73.17122
0.96364164,78.401825
1.1096334,74.522804
1.1331246,77.53455
1.2456326,76.94396
1.2482537,82.105644
1.3613334,84.87662
1.3786318,82.739235
1.3390816,88.01855
1.2974145,86.41849
1.3615822,86.98952
1.456464,84.95413
1.3969375,90.36615
1.4191816,89.02493
1.3533885,87.94265
1.320575,92.33379
1.3180447,89.84504
1.35483,86.962555
1.376706,90.16793
1.2216707,85.052444
1.160578,88.09397
1.1409436,83.137955
1.0924114,86.04953
1.1249808,81.594086
1.0548224,83.268265
1.025501,84.30572
1.0420184,78.30878
1.0521882,78.63117
0.9604658,81.440865
0.94357765,78.92741
0.95419985,80.52233
0.99135405,79.22047
0.84966373,78.86711
0.921514,80.274445
0.91029936,77.980095
0.9045356,74.57122
0.836362,73.52327
0.7512791,69.04843
0.7880583,73.69004
0.75041586,72.546524
0.6875531,73.05428
0.59665775,70.71963
0.58978945,69.413925
0.523604,68.548416
0.4476022,71.32422
0.40868467,67.44025
0.36702222,70.740944
0.3184871,67.7548
0.321547,66.66548
0.33691832,66.32113
0.31918073,64.88338
0.35948765,61.757607
0.34493458,63.53195
0.28100348,62.513783
0.2981406,58.55048
0.33154273,61.98426
0.33013904,61.775383
0.31051564,55.15717
0.2619532,61.802525
0.16376847,60.005978
0.13273002,60.551308
0.20373034,57.53775
0.09154966,58.30857
-0.008864558,58.142925
-0.035111263,60.088943
-0.02433159,60.990765
-0.038842645,61.62777
-0.002973428,64.254776
-0.054213896,59.982555
0.07448508,62.70608
0.070845515,61.554108
0.122175135,63.705967
0.257814,64.374306
0.32831287,72.93179
0.3645725,67.126854
0.5527072,69.06071
0.6014038,72.098404
0.74417406,78.41266
0.88502955,72.15405
0.91964394,76.42809
0.9941033,76.40702
1.1400162,83.78913
1.1969596,83.536964
1.2033862,81.215706
1.2879661,84.09451
1.2901235,83.75479
1.3978958,83.320335
1.3500284,84.53571
1.3827217,83.07169
1.4566673,89.31695
1.475843,85.52038
1.4527763,86.71746
1.4001993,88.03079
1.4459662,87.4017
1.3632637,88.08866
1.3714252,87.74845
1.297974,86.481804
1.3249971,90.118256
1.3245674,89.93605
1.2694991,85.91549
1.2306739,83.96949
1.1561973,82.86372
1.1058912,88.02687
1.1400803,83.665306
1.0626915,81.278496
1.0830956,85.33475
1.0179529,80.23649
0.9728902,81.4066
0.90566427,78.229675
0.9445902,77.706795
1.015037,78.10273
0.93426,72.72256
0.92717326,74.507164
1.0070767,72.78129
0.9382848,73.51365
0.86076957,71.20718
0.8186678,73.844345
0.84497094,72.956535
0.8208796,66.62101
0.80022156,75.30976
0.7422231,71.36905
0.64147353,72.48399
0.5749431,71.07178
0.57268643,65.08732
0.53321517,68.84562
0.5288736,62.52229
0.49840236,66.16594
0.481023,62.71935
0.4779637,66.18441
0.47444803,66.26969
0.51324844,62.516926
0.46304625,59.368034
0.50388366,56.3938
0.40405566,62.219097
0.5001688,62.8856
0.42512494,56.952827
0.4625207,54.921913
0.41094622,58.131912
0.32390058,57.091183
0.26525453,57.57634
0.2549156,58.78787
0.30074692,57.02501
0.13638256,56.11529
0.20708923,63.00662
0.20302825,64.299835
0.14780812,62.20038
0.21197203,64.28809
0.16897106,56.577675
0.32339272,61.954815
0.32919887,64.150955
0.42448092,65.87391
0.504488,72.33849
0.65320665,69.70779
0.6591778,72.27423
0.75239205,72.59283
1.0443786,73.41935
1.0881976,70.0818
1.1928291,74.963165
1.2422959,75.93354
1.3971723,77.91578
1.3592377,83.14766
1.409597,80.56595
1.5239693,87.95014
1.5389651,82.25065
1.5793636,83.72241
1.6376216,85.13728
1.5720271,86.45665
1.6025342,84.963394
1.5625983,86.14344
1.6320872,87.2044
1.6116649,84.81987
1.6343342,89.95457
1.6611785,85.00692
1.6406782,89.98041
1.622106,89.6566
1.5960081,86.61746
1.5375596,86.0958
1.4628924,84.892334
1.4416292,86.23115
1.4642582,85.91
1.4654421,79.11509
1.3655634,84.78912
1.3684086,79.13725
1.3432132,83.942055
1.3364984,80.81947
1.2800789,83.1164
1.2453597,76.83557
1.2193612,80.21491
1.2260059,80.000404
1.3123548,78.65492
1.2200882,75.445595
1.2224526,78.587036
1.2049474,75.0336
1.2151139,75.30636
1.1942899,73.75895
1.095392,72.56514
1.0530052,71.46278
1.0688263,72.184296
1.0205549,65.51803
0.89883715,72.275955
0.9216584,67.387344
0.8417778,70.39136
0.8939637,62.956078
0.8560458,68.58355
0.7424807,64.00877
0.7703194,62.72509
0.83188325,61.898186
0.75375265,63.835762
0.75926584,64.345184
0.77350444,63.783108
0.8755915,60.729202
0.8113106,57.602287
0.85896796,62.629032
0.77321196,59.036896
0.6893076,57.13823
0.6876276,61.98838
0.57757246,64.18872
0.6053595,58.299324
0.52386385,60.518433
0.5484211,59.226597
0.43037108,62.669765
0.47053826,61.271324
0.43676543,62.96781
0.42254764,60.484306
0.48789766,60.39832
0.5414759,58.347496
0.56533563,62.055336
0.5844846,67.79588
0.7124115,64.472305
0.78936243,63.11779
0.8487266,67.459015
0.9605138,68.765
1.0904547,72.42049
1.2279764,74.08848
1.31796,71.28507
1.3230197,74.1101
1.4935056,75.951515
1.5948645,76.4246
1.5406783,79.973076
1.74135,81.54911
1.8269902,83.17661
1.8488734,79.3585
1.8023702,85.31915
1.9138265,83.85304
1.9328594,86.59253
1.8294524,86.87398
1.8886144,84.17275
1.9539979,85.68086
1.8992441,87.57259
1.8526742,88.86576
1.9012958,87.83703
1.8661404,85.61674
1.775702,86.07447
1.8608118,89.34346
1.8076134,86.129196
1.8218546,84.53834
1.6396582,83.359795
1.6213971,85.76962
1.7211307,87.56963
1.6307842,87.70564
1.5813105,85.42291
1.5173918,81.65079
1.5221504,81.59219
1.514172,79.23234
1.530386,82.56641
1.5246557,80.2844
1.3990473,77.64066
1.4092615,74.672714
1.4031625,76.23079
1.4845221,79.74089
1.440231,72.58231
1.471054,75.29737
1.2876253,69.03503
1.2751118,78.21446
1.2013047,71.82816
1.3239778,72.705864
1.1598195,71.66112
1.1897076,71.08323
1.0560716,64.26847
1.0574869,67.66441
1.0083735,66.06063
0.96167845,69.33304
1.0313206,69.36976
0.93371034,66.22064
0.98168087,64.43029
0.9524017,60.323147
1.0000156,60.761456
0.9465642,65.90286
0.87641245,62.564785
0.87347186,61.579613
0.9062288,62.96063
0.84942514,59.09691
0.87612045,63.070335
0.8551837,53.618725
0.6871096,60.35494
0.8039693,56.862736
0.6633263,58.589733
0.6674467,53.982346
0.619936,61.135822
0.5927268,58.132957
0.5482878,61.33188
0.5415716,55.929405
0.599493,61.26468
0.57737726,64.943886
0.63896185,64.10018
0.6998095,63.221954
0.67728937,65.67352
0.9068881,68.47218
0.97418773,69.466156
1.1140752,67.483025
1.1410372,70.736115
1.292886,71.985985
1.410362,82.571014
1.4557903,78.201035
1.5801607,79.22657
1.6363553,81.22587
1.7115856,79.72005
1.6867242,87.68024
1.8932612,83.72167
1.882871,85.312996
1.7947102,88.91437
1.9282868,84.139755
1.9794749,85.5453
1.9469903,85.989006
1.9186342,83.90406
1.9410303,86.37437
1.9447781,87.63266
2.0205545,86.430305
1.8649082,88.484985
1.9199936,91.15466
1.9028999,85.10336
1.8049397,87.433655
1.7945046,87.094536
1.80141,84.93368
1.7211105,84.40905
1.7110289,86.67208
1.6420557,85.179375
1.5301411,85.295166
1.52774,84.66748
1.5262536,83.7473
1.5826331,84.80597
1.4391149,86.547554
1.5033284,81.742004
1.5547194,80.302444
1.4147978,74.86539
1.45405,78.0812
1.4935347,74.924194
1.3697861,81.05273
1.4370353,70.23821
1.3098301,79.96604
1.2694403,72.05197
1.3495135,71.628136
1.2346978,75.19387
1.1642817,73.007164
1.0807359,68.66786
1.0470884,69.21865
0.9976459,67.48561
0.96580416,66.848175
0.8771102,66.348335
0.8617199,65.9838
0.8598816,69.71895
0.8959479,66.73831
0.8143637,64.531685
0.8266732,59.1509
0.79335034,67.62761
0.74107623,56.932713
0.7784123,62.07806
0.7678791,62.757423
0.83650124,59.63171
0.83149433,57.930077
0.7050674,58.24622
0.69288045,60.758305
0.66191244,62.370586
0.5910807,61.538094
0.5125,56.43846
0.49175546,52.9507
0.51021683,55.297684
0.4430649,62.41298
0.44164586,60.571392
0.3874286,63.656796
0.44878975,64.344284
0.42701298,61.335995
0.4231043,61.369865
0.52152103,66.62014
0.548242,68.76822
0.6453678,67.00718
0.72766894,67.83785
0.8738821,70.00573
1.0482466,71.946785
1.074968,66.508705
1.134238,76.09656
1.2556494,74.29283
1.3969032,73.58025
1.4553812,76.18917
1.5692939,78.80364
1.6218325,80.0553
1.6010227,78.45681
1.5727671,81.27463
1.6978654,83.404335
1.7390134,84.92781
1.7291677,88.476746
1.7621162,87.68558
1.7011926,88.30265
1.7893896,89.8386
1.6725451,89.16816
1.6928171,90.483955
1.6337274,82.51719
1.5998479,90.986824
1.6138812,90.96564
1.5343871,87.52467
1.5584615,92.648285
1.5636841,89.560684
1.5241834,86.55861
1.4662764,86.342865
1.3807808,83.32358
1.3600563,86.37713
1.2862902,84.58495
1.3022429,84.005165
1.2342329,81.417404
1.1873081,80.54921
1.2853268,79.421906
1.2487322,82.29579
1.207547,75.74254
1.2227433,76.86764
1.189108,78.47559
1.2722846,78.07427
1.1039642,74.734245
1.115467,77.13349
1.0466082,75.3052
0.96899843,71.80022
0.87730455,76.06943
0.97611964,69.26743
0.8284124,74.792
0.76126575,67.73874
0.74041414,71.71395
0.72082025,69.30098
0.71006286,65.63991
0.60923916,68.12424
0.63760185,66.7438
0.58825564,65.96562
0.5776025,62.402905
0.48791426,65.55366
0.54340965,60.958088
0.46596745,59.57211
0.5537758,61.88023
0.609411,56.075115
0.5461688,61.117947
0.5363755,62.194508
0.44654304,56.49889
0.39345056,56.76172
0.33710998,60.932205
0.3819759,54.807156
0.3079163,58.759304
0.18923962,60.234146
0.15423033,59.456577
0.09724071,58.801327
0.1261178,58.851887
0.014304649,57.511364
0.1285413,56.165833
0.07064052,63.233627
0.23690528,60.768383
0.2164966,64.79482
0.4131606,63.193466
0.38200763,70.71125
0.46737808,69.70016
0.61555237,73.440636
0.67307395,67.26205
0.7472102,72.74777
0.87785417,78.74072
0.93541354,76.91838
1.0553762,74.85374
1.1443297,78.32804
1.2131062,77.352844
1.2431625,78.944244
1.3483299,78.83703
1.3995795,85.85036
1.4852537,84.307945
1.4265263,83.61734
1.4352432,84.36712
1.479506,85.864685
1.488606,88.60257
1.4025024,91.111465
1.4219898,88.088875
1.4816089,87.90331
1.4178692,86.775444
1.4380924,87.68803
1.3555791,90.277916
1.3295114,90.13668
1.240049,87.15864
1.2044301,85.30335
1.1941886,86.09631
1.2330552,84.11019
1.1842157,81.54507
1.1281635,86.86488
1.0262918,88.13804
1.0310119,77.43116
0.9498462,78.691536
1.0443183,79.61876
0.97558516,78.94282
0.9237339,80.031006
0.93351734,78.24796
0.9353896,76.11185
0.91086924,76.73753
0.9436246,79.45215
0.9297036,73.988
0.8277598,74.8949
0.8383648,73.6127
0.8290046,77.42966
0.6918949,73.70379
0.69435763,73.38736
0.61451596,73.34335
0.5600541,66.12965
0.48073372,69.02161
0.55292666,67.67565
0.46551684,69.1407
0.51057214,61.871048
0.37975502,68.1652
0.37046036,62.834637
0.34572688,60.429203
0.39588305,63.06623
0.36792916,60.54615
0.3024377,63.299706
0.31532347,63.41563
0.39762092,63.022858
0.3018713,58.806286
0.28615463,56.36178
0.26967213,60.120888
0.24957699,60.78734
0.21890426,63.429226
0.078377016,57.062473
0.13661729,57.506397
0.11085166,62.507584
0.045171026,59.51751
-0.0046431874,57.875954
-0.0076744156,57.172836
-0.11001224,60.15371
-0.028107934,60.56513
-0.030231502,62.119812
0.045867994,62.776352
0.060665008,63.037395
0.14095522,62.244854
0.1879668,67.12503
0.3585536,66.92356
0.3929449,68.933014
0.4919318,71.25831
0.70857334,68.78271
0.7853197,71.65169
0.87166435,77.084
0.94308174,78.72646
0.9608168,77.98237
1.1539894,80.781
1.1578852,80.91889
1.1854568,78.45496
1.1985588,86.943085
1.3234252,83.049866
1.3148029,79.07235
1.4171416,86.62364
1.3736988,85.36496
1.3463956,86.61636
1.3612524,86.88855
1.2761043,86.81065
1.4202416,84.47663
1.4088088,87.009514
1.2922034,87.90662
1.2910439,82.92679
1.2911664,92.10908
1.2726872,85.138794
1.1369256,81.192444
1.1177409,86.64698
1.1264616,84.77969
1.1040332,87.2934
1.0114112,87.512245
0.9865113,80.61208
1.0139521,82.2732
1.0204428,84.18333
0.97848016,77.13625
0.92548347,75.710014
0.93586373,79.09521
0.8720104,72.71326
0.9047087,74.8459
0.95616084,82.00047
0.9448783,75.87915
0.93933755,74.87366
0.98550826,75.325325
0.85571295,71.33465
0.8792939,74.48222
0.79908276,73.781876
0.7456029,68.8665
0.70541674,76.484276
0.5225304,72.24802
0.5489388,71.55626
0.613564,69.84245
0.37589738,59.959305
0.5052471,69.91287
0.35907525,63.84017
0.37638307,62.646187
0.34171286,66.24157
0.34798026,61.429493
0.34246743,62.20418
0.3886133,59.508476
0.3346548,63.495636
0.32482806,64.60122
0.34127128,59.996136
0.41242957,57.418575
0.3735903,58.816055
0.30865785,59.951717
0.22306013,56.368095
0.29286876,59.410934
0.196274,63.08727
0.12278834,60.41134
0.17636414,64.69844
0.10855046,59.72007
0.0792877,58.31623
0.04188047,64.06458
0.019363748,61.903843
0.047361534,62.62972
0.15922599,60.35651
0.17479521,61.821774
0.15800872,65.03178
0.30886394,65.18781
0.4525673,65.508415
0.5816621,67.50102
0.61683756,64.62272
0.7599904,69.16327
0.857619,72.73647
0.9070941,72.72992
1.1703705,76.001816
1.2195437,74.7759
1.2662811,80.57816
1.3358424,79.88745
1.3687546,79.26725
1.4089928,82.46085
1.4296229,88.54428
1.476818,86.72463
1.5202286,87.2698
1.5107833,87.75091
1.5081356,84.943375
1.5567089,89.09589
1.4622005,85.87117
1.5630969,88.38155
1.5050573,86.63378
1.523891,86.15522
1.5206225,86.05912
1.4921533,91.06824
1.4069046,84.717575
1.4289656,85.64587
1.344322,87.73108
1.3443247,84.394905
1.2535211,86.47608
1.2471702,81.9294
1.2552438,81.239365
1.1502188,85.120155
1.2635196,80.01454
1.2415214,84.52536
1.1609343,83.81849
1.1774693,76.500824
1.212064,81.18333
1.1455171,77.65346
1.1540781,77.78775
1.0972352,77.186966
1.1016157,73.70312
1.0532278,78.37125
1.1031886,74.973694
1.029913,72.81664
0.98617476,69.35708
0.84737045,72.574135
0.9158143,73.29101
0.8463973,67.45809
0.8751329,68.15006
0.73848087,68.077866
0.72238696,67.979706
0.7389739,66.04449
0.61722517,70.765205
0.64790434,66.77541
0.646084,61.370346
0.6757648,65.24469
0.67373556,63.72546
0.6371507,62.34588
0.6437474,57.45086
0.6820022,60.190556
0.573806,57.54127
0.6597858,62.78828
0.6397518,60.14399
0.4692871,61.16384
0.59757996,61.40607
0.489932,60.06047
0.4467002,60.830162
0.33799484,59.292564
0.34071118,58.278816
0.36159086,59.113327
0.22751348,58.80539
0.28986228,60.083534
0.3026153,59.96275
0.32283553,66.43755
0.3464012,63.532936
0.4208453,62.923748
0.5405305,66.20013
0.6208378,68.16624
0.6611346,68.95161
0.72512364,65.769035
0.90064317,73.28408
1.0110582,70.927765
1.057601,70.12377
1.2502034,75.26705
1.3441492,77.66029
1.3985189,76.5545
1.5132236,79.87756
1.5689554,83.35227
1.5806547,83.47459
1.715037,83.66458
1.7814623,82.533554
1.7412989,83.60676
1.8363944,86.32885
1.7394868,84.84569
1.7854266,84.88289
1.8385048,88.91211
1.8685484,90.076225
1.881676,89.412575
1.7554891,82.65921
1.7751127,88.37905
1.8798242,86.84263
1.798834,88.02215
1.7284304,85.530716
1.6670815,86.50756
1.6238528,85.56929
1.6591346,83.35266
1.5106518,89.22892
1.5847199,88.86298
1.6128229,82.24356
1.513692,83.31772
1.4248412,82.79338
1.5433058,81.20747
1.4345042,78.68087
1.3833491,79.11255
1.3031914,78.59515
1.4293929,80.585144
1.4530568,78.16707
1.4583673,71.37329
1.374524,73.72588
1.3844432,74.699036
1.3159705,74.668335
1.3660153,73.20258
1.207168,72.16118
1.2453696,74.559105
1.1659632,74.303215
1.0405596,69.124725
1.0566638,73.411674
1.0658307,66.40858
1.0330657,70.73226
0.9085988,68.92468
0.93081486,64.647446
0.93572986,61.87813
0.87667483,63.269783
0.8757839,62.954433
0.8463497,63.829514
0.8571414,62.916786
0.85216177,64.09021
0.9487848,60.719692
0.8448659,59.482758
0.9065539,58.761288
0.8852425,63.37923
0.8559531,58.5637
0.82393986,59.68242
0.7534064,56.59803
0.7383223,59.607903
0.70066917,57.033806
0.6168171,60.817513
0.5613804,60.314903
0.50337064,58.02988
0.5186335,58.41336
0.44258434,56.18673
0.568784,66.000496
0.5133351,62.018475
0.58717626,65.27946
0.69442284,64.01024
0.800401,61.47281
0.87762094,67.60018
0.996771,69.68758
1.1165416,67.24729
1.2433616,69.28341
1.1982603,72.92266
1.4020338,70.57024
1.5429721,71.948296
1.5760334,79.020294
1.7804264,78.86814
1.7563299,80.81136
1.8212075,83.39211
1.8393437,77.28822
1.9002494,84.325714
1.8970711,82.65068
1.931997,84.69744
1.937084,84.80283
1.9430248,85.3131
2.0583518,90.04188
1.9702826,83.111885
1.957565,88.33651
1.9942291,84.74524
1.8774306,88.927734
1.871791,89.247086
1.8381978,87.54238
1.857819,88.97889
1.7790669,86.24555
1.7428887,85.47718
1.815008,83.68927
1.7179813,83.0808
1.6254679,86.42464
1.6532478,81.845085
1.5312477,83.72531
1.5743681,81.9593
1.5332333,81.41107
1.4915003,81.04477
1.5684583,84.55355
1.4793086,83.69214
1.4981327,76.77385
1.5129898,77.527626
1.5132322,74.122
1.3877767,74.824745
1.4041377,76.43601
1.4236563,74.45827
1.3359634,78.1224
1.3006624,75.460625
1.2955546,74.3638
1.2164937,64.8359
1.2146213,72.62794
1.0896847,67.64703
1.1400893,69.3374
1.0190176,66.94496
1.0036795,68.30481
0.9128915,61.874947
0.9401179,67.06233
0.876262,62.715847
0.8643559,66.384926
0.81093013,57.911118
0.8643555,60.510788
0.8840242,64.72862
0.91733205,58.929077
0.8806055,61.97592
0.838184,57.92199
0.9455111,61.595177
0.89272964,59.26817
0.81854546,57.2748
0.64484733,61.32548
0.6494316,59.034714
0.72219795,56.918232
0.55562925,64.241974
0.6007493,59.094894
0.60479957,59.201057
0.4660065,64.88388
0.45703217,63.378548
0.42185503,60.638355
0.45927593,62.66553
0.60028666,62.984898
0.6287082,61.441723
0.7330547,64.30277
0.82248086,62.2584
0.9235221,68.98966
0.9402874,70.64732
1.0713854,67.8325
1.2337352,73.001854
1.25331,73.68418
1.4691948,76.01666
1.4570938,73.049385
1.5072756,77.24698
1.620702,79.73697
1.7522783,81.98374
1.7320211,83.21683
1.7498498,82.279724
1.7376169,84.045845
1.8109397,87.31449
1.8480238,85.79762
1.8027358,84.82735
1.9084369,87.76914
1.8898973,85.6799
1.7447121,92.36509
1.8590951,91.992645
1.8494382,88.10043
1.6960664,88.348236
1.7339253,86.66509
1.7513855,88.68052
1.6760367,86.98807
1.6215366,86.81383
1.5902376,88.18546
1.5361373,87.75387
1.507463,82.203766
1.500224,81.62035
1.4180368,85.853096
1.4805497,76.180824
1.3580387,83.53605
1.4465837,84.45838
1.3614814,80.03854
1.2437705,80.62436
1.3009015,76.122154
1.3592249,76.177864
1.2510045,75.58235
1.1955724,76.686646
1.2599846,72.56426
1.2489581,69.370544
1.1604635,73.39872
1.0335621,67.33715
1.0616131,73.36062
1.0570823,69.34949
1.0536736,69.8728
0.97621775,69.77173
0.8454766,67.92649
0.7973047,67.903435
0.79404193,68.29539
0.631837,68.429535
0.801931,65.652245
0.689996,60.714607
0.6555549,67.426476
0.70053226,63.938
0.6195745,63.749798
0.6693899,60.889828
0.6619372,69.055305
0.6320168,60.65067
0.56375885,61.308193
0.5759011,57.219276
0.64737576,57.227722
0.6208061,61.63066
0.46936667,55.834297
0.48305267,61.19329
0.36530665,59.068455
0.2955273,56.181095
0.30992833,61.274704
0.24535096,59.14502
0.21365288,62.368206
0.2518157,62.348568
0.19545454,59.07329
0.21985532,64.58069
0.24896182,63.36939
0.4057435,63.957085
0.5141281,64.40178
0.4629696,66.82546
0.591846,70.59369
0.6418696,72.70879
0.81320834,74.911736
0.9260851,72.848434
1.0357656,73.84079
1.0122486,75.06681
1.2525923,78.797905
1.2364857,79.440414
1.3270695,77.791176
1.4388545,81.80653
1.3840526,79.07869
1.5724113,81.1421
1.5666809,84.12671
1.5125371,83.50826
1.5088549,84.91979
1.4827636,84.98589
1.5225084,83.992134
1.4712988,90.33291
1.5937321,85.89093
1.6028297,91.34422
1.5669489,88.08617
1.5264444,89.17343
1.4700557,86.3094
1.4652053,85.655106
1.3572356,85.43412
1.4007889,87.15529
1.2167752,87.59738
1.1862459,82.69191
1.2098507,82.16588
1.1607159,83.881775
1.2320247,86.15646
1.1380259,81.23416
1.0518599,79.03901
1.0461766,80.25822
1.0794871,78.72057
1.0665233,79.65879
1.0610934,77.461586
1.0525101,75.79472
0.9808108,78.06399
1.0220269,78.326096
0.9188453,75.3665
0.9399517,73.124084
0.83599716,72.46937
0.8731291,73.55627
0.73729235,71.42463
0.8482348,66.47221
0.7028295,68.12822
0.6798851,72.16802
0.5950147,69.5601
0.56416893,68.66563
0.5389012,71.7449
0.44241837,66.3913
0.4573528,70.427444
0.41954163,66.26807
0.45374757,67.14758
0.38178515,65.66908
0.4430204,60.970078
0.3707701,58.28465
0.45865047,58.94805
0.37317836,58.670265
0.39839688,64.72532
0.25748172,59.92293
0.2687984,56.331486
0.23680763,58.963966
0.21575145,59.63656
0.2314085,59.05523
0.17035334,62.58766
0.053883504,55.85437
0.078891024,56.719414
0.005393527,62.41939
-0.01731264,58.27321
-0.017472764,62.943283
-0.04643287,61.674976
0.090087205,62.14946
0.032767814,60.536167
0.16002636,66.08664
0.13746814,66.369415
0.32863283,65.53286
0.37204802,68.29723
0.50028026,72.4719
0.563611,69.894745
0.65447086,79.180374
0.8070038,72.5927
0.907033,74.55507
1.0384455,76.59512
1.0522547,78.90719
1.2128787,78.833145
1.2595707,79.48154
1.2682279,78.739525
1.3605784,80.933685
1.264565,82.78486
1.350685,83.601105
1.3810008,86.352394
1.3433193,86.200264
1.3490307,93.80678
1.3564489,86.30292
1.3235223,88.18556
1.365437,89.51095
1.3116472,82.68584
1.3167671,81.057655
1.3050281,86.87493
1.2090985,83.7182
1.2565029,82.95509
1.2279679,88.580475
1.1594719,88.95062
1.0850806,85.09903
1.0391924,89.27404
1.0513273,82.34018
1.0243468,85.090164
0.98922074,83.664375
0.9128626,82.843445
1.0304905,83.094086
0.9470756,80.23026
0.9235592,79.77695
0.945939,76.61056
0.9011474,78.74768
0.90122974,75.08429
0.8917238,76.141136
0.8330678,75.5999
0.7746515,76.97708
0.78241944,72.65863
0.6975164,72.46887
0.69169945,77.2679
0.6091651,66.66265
0.6194143,66.78064
0.49311337,68.15748
0.5346166,70.57855
0.5417711,74.585464
0.41295946,67.87784
0.3845721,65.76122
0.36689392,66.42811
0.27700117,62.75913
0.32071233,66.64325
0.32653213,63.615246
0.3416205,62.468845
0.29645467,59.04837
0.31326693,61.04681
0.29241085,60.517742
0.37519693,62.390114
0.28321573,59.696983
0.31096634,58.844246
0.2178115,59.26383
0.12313712,61.549007
0.21908022,58.986736
0.1291847,61.52969
0.06896925,55.989838
0.035921775,62.77902
0.029397355,60.35501
0.017047638,57.50395
0.011332658,64.11076
-0.06018337,63.52948
0.09885784,61.422344
0.017077545,61.649227
0.09862613,63.31938
0.18505329,66.428764
0.25605902,66.594925
0.39844185,66.86849
0.43339416,66.72638
0.55660146,73.81758
0.68836427,69.913086
0.7288619,73.61402
0.9054203,75.10615
0.94371545,77.593315
1.0813321,77.77396
1.1446371,76.64282
1.2917198,79.2898
1.2781304,80.95135
1.3887811,80.417786
1.40853,85.57574
1.3943387,89.51537
1.4661864,86.24783
1.4105203,82.81797
1.3950644,87.212715
1.4352193,84.40643
1.4243406,86.174194
1.4732941,85.87241
1.3716966,88.27268
1.3355786,85.44551
1.3402786,87.534096
1.3591167,89.96141
1.3509263,84.365326
1.329964,84.774055
1.310247,88.61443
1.2741652,86.85606
1.1892657,88.07126
1.1644051,82.545494
1.148599,80.60377
1.129282,83.44038
1.0075479,80.70895
1.0118324,84.659515
1.0681853,81.57204
1.0921936,79.20136
0.9860058,79.34937
0.9466423,77.18735
1.0846736,80.03328
1.0490277,76.249146
0.94337976,71.58901
0.9372706,77.19726
0.9814212,75.78903
0.9243387,72.369225
0.9041188,71.11131
0.7967644,73.069664
0.84197783,67.89843
0.7244207,66.0856
0.72462505,68.95637
0.58421797,71.159065
0.5957085,66.024506
0.63685095,69.979004
0.6068935,67.05828
0.54540384,64.553566
0.50828105,62.84001
0.5615644,61.20617
0.5873701,61.00712
0.57980305,59.47165
0.5528636,65.44573
0.53047574,57.173626
0.5692875,59.370697
0.52391744,58.907036
0.5014723,62.260944
0.4185971,58.189472
0.40972692,57.140877
0.37354806,60.348206
0.31427288,58.607998
0.2901528,57.726746
0.24589707,55.65836
0.13648042,57.517017
0.18049428,54.288815
0.22807012,63.130417
0.1845856,57.193764
0.22002311,64.76584
0.32121626,67.912964
0.36175486,62.78884
0.35239393,62.66393
0.49012816,67.30293
0.54918635,69.69445
0.7729778,68.107635
0.82178384,69.92296
0.92920494,72.82113
0.98360413,74.170204
1.1000782,77.571815
1.257065,73.85762
1.3197043,76.24015
1.4017317,78.30002
1.5506989,82.14779
1.4341198,83.39422
1.5438886,84.34706
1.5902568,86.18538
1.6503773,85.316055
1.7294714,85.33986
1.6932641,85.614235
1.7476509,84.91304
1.8025169,87.26398
1.709818,86.65375
1.7236574,88.66714
1.6529431,85.40563
1.6293662,86.37481
1.689566,86.77055
1.7061247,88.49353
1.6063634,82.801865
1.6182295,88.5954
1.5082703,82.66396
1.4681948,89.43053
1.5129279,83.88163
1.4199451,80.91473
1.3743142,86.20514
1.4083751,85.67181
1.3708661,80.47664
1.3305497,80.6736
1.3506621,82.791466
1.3252901,79.789215
1.3638762,81.41003
1.2931117,79.0092
1.3494313,78.94398
1.30512,74.15202
1.2670588,77.252106
1.1963711,71.48869
1.226991,73.681526
1.1438097,74.45375
1.1734699,73.72964
1.1925137,73.30739
1.0197552,75.64753
1.0065776,69.10029
0.95285773,70.48737
0.9771091,68.45889
0.88417333,68.68124
0.82761836,67.054474
0.8578432,63.44672
0.848052,64.026054
0.73943037,67.90838
0.82159466,61.49692
0.7930658,62.470425
0.81266415,58.90261
0.79294395,62.508293
0.8259765,63.395306
0.7391611,61.99267
0.83938056,58.684696
0.7672222,58.79863
0.73799765,60.408676
0.79051083,62.503254
0.631696,61.65503
0.6061448,64.23473
0.54256487,62.15263
0.50901693,56.366867
0.5362652,59.039093
0.46892303,60.184563
0.46901017,60.09897
0.47970796,60.733784
0.47977966,65.51678
0.5691313,62.375874
0.6116314,65.40884
0.6731643,60.628822
0.76496565,67.502655
0.8825521,64.46827
0.9576753,68.185555
1.0119951,68.41288
1.1174366,73.9153
1.2952623,74.6136
1.3777871,74.871284
1.4867145,76.47999
1.6057284,77.24391
1.654364,75.449005
1.7352645,82.20393
1.7778703,77.89518
1.8251294,84.14167
1.8699234,86.855865
1.8913604,79.899025
1.9569979,83.81469
1.8967942,85.6471
1.9314685,85.80882
1.9177865,89.48952
1.9554106,87.99869
1.9219127,86.121376
1.8604205,88.479546
1.9039711,85.48519
1.8844644,88.06711
1.8140763,83.70085
1.8480486,84.372
1.7742268,87.423645
1.7266644,83.4958
1.7537297,87.54401
1.6561767,90.39764
1.6424481,77.83344
1.4994377,81.62947
1.5926378,79.92359
1.4785324,80.21129
1.5450759,80.92278
1.5626298,83.23648
1.5150377,81.328766
1.467186,79.38249
1.4730974,80.438736
1.557298,76.39294
1.4775028,78.10791
1.3957398,79.955795
1.4229885,74.25866
1.4113913,75.01019
1.3855044,74.51989
1.3379722,74.76313
1.2745849,69.278404
1.1454498,72.24179
1.1499438,68.05608
1.1749384,67.75589
1.0908786,68.75939
1.0772403,62.872494
0.967067,64.43937
0.9765152,68.2333
1.0031322,63.700092
0.8334897,62.523613
0.9738936,66.59709
0.98688304,62.285748
0.91194075,64.81902
0.9125502,60.767853
0.9289727,61.44637
0.9453458,56.40804
0.8823386,62.16601
0.87477046,58.617916
0.7942399,61.058716
0.7401383,58.367146
0.71880513,60.94217
0.73460937,64.52196
0.6927102,61.882084
0.65860975,56.24049
0.7083725,61.64543
0.5699822,60.03822
0.53593713,64.896835
0.5769688,62.247276
0.5459938,63.42877
0.5314357,62.224007
0.6857481,62.57935
0.76023114,68.79705
0.77840734,61.32423
0.85213864,66.93468
0.9993654,65.02819
1.0532148,69.095604
1.1785495,73.019424
1.3538244,71.79331
1.3713474,76.68338
1.5214671,76.7327
1.6084652,82.28471
1.6427269,78.45959
1.7746842,79.392204
1.8121387,82.02913
1.7523189,82.47386
1.8962169,85.23917
1.807645,84.78117
1.9024591,86.147675
1.9001942,88.13559
1.9233456,85.04895
1.8822165,89.44453
1.911041,84.48416
1.9152073,84.74607
1.8704175,85.00768
1.8576849,86.56536
1.8813535,88.26704
1.7491572,88.31004
1.8035655,85.06053
1.7657155,85.1791
1.7214947,83.57159
1.6276842,88.30945
1.6291238,85.20784
1.6073768,83.64918
1.5506366,86.18572
1.521275,88.021706
1.4510347,80.951485
1.5041248,81.25693
1.4636701,80.40305
1.4435927,82.28964
1.4560639,82.45621
1.4684507,82.84294
1.3616651,75.12092
1.3351066,79.9334
1.3308877,71.00431
1.3064475,76.742226
1.3669657,72.466484
1.3402021,76.22919
1.1922188,73.686615
1.1155039,70.25626
1.1506383,66.98088
1.0595323,69.70061
1.0908003,72.4723
0.98350394,67.30602
0.97302896,65.24541
0.8946893,68.940254
0.8275989,71.03756
0.8367594,67.48232
0.834371,68.20953
0.74735606,64.488205
0.7233384,64.19094
0.7201564,57.615578
0.8213672,61.13887
0.7467438,60.15379
0.78941447,60.3798
0.67350495,59.421265
0.6483982,62.237705
0.64871377,59.25462
0.566381,59.744026
0.5608156,56.161194
0.51691335,54.36587
0.49246275,59.878788
0.4244953,59.25083
0.4085705,60.944283
0.3961565,62.773148
0.41481683,63.914104
0.36509457,62.34046
0.2999013,60.75842
0.41314963,60.954178
0.37349907,61.61962
0.47716138,63.97413
0.6342232,64.67277
0.748782,64.843155
0.76652694,69.15169
0.8570908,72.867096
0.99313414,71.70357
1.1347284,73.74109
1.1951852,72.29107
1.1840496,74.110115
1.3582002,80.575806
1.3521754,83.078735
1.4629034,80.70361
1.4830303,82.76098
1.531599,80.14108
1.621924,84.08943
1.6409291,85.269875
1.7078311,85.4538
1.7053024,86.184364
1.6297796,88.23481
1.5962726,88.342255
1.6326131,85.93019
1.6071599,87.31898
1.5805436,84.59872
1.6360269,87.83892
1.5448307,91.823456
1.5812488,82.493324
1.5490719,84.5915
1.5732883,90.43095
1.4979918,87.02446
1.4150349,83.13318
1.334801,81.90827
1.2969667,89.26116
1.2662911,86.09036
1.3314954,83.45051
1.1883427,81.83681
1.262011,80.05637
1.1685909,83.254166
1.2128054,80.452156
1.0934708,76.75218
1.1200686,75.79979
1.0855038,76.3423
1.071704,73.26894
1.1248083,73.94246
0.9845466,72.80321
0.9970892,67.90167
0.96651375,71.24481
0.9046621,74.88619
0.8913145,71.20062
0.83838737,76.95386
0.8020528,68.61865
0.67756903,71.165375
0.7058816,68.66961
0.6600226,65.64141
0.59258485,66.642654
0.49149537,68.573875
0.49840042,65.55354
0.515067,65.37049
0.45710734,64.786964
0.48769885,63.258442
0.5449572,60.47022
0.5064904,61.60053
0.52302146,62.027954
0.4220221,63.912567
0.4775687,54.550976
0.43304062,61.934315
0.37479466,59.090233
0.3396973,64.56893
0.30889198,56.447117
0.1889505,55.466724
0.19900306,54.48356
0.18456082,60.717033
0.12003395,54.1465
0.079646215,58.57309
0.07184632,59.817104
0.03199288,62.98623
0.06706273,57.59013
0.05514981,63.677628
0.12985033,68.838135
0.22352748,61.241905
0.25982416,66.649124
0.4020804,64.09907
0.49529627,69.153625
0.51124126,66.28829
0.64370936,70.86502
0.7441793,74.4721
0.8709809,75.26073
0.99997544,74.40384
1.152405,78.8237
1.1382712,80.693535
1.1854411,79.32185
1.2713759,83.042435
1.288668,82.57189
1.4025791,83.303406
1.3420595,84.97171
1.4697374,86.328705
1.4116323,84.87394
1.426014,88.33707
1.4825504,88.10702
1.4658288,86.29396
1.4008276,84.48315
1.3684874,85.5561
1.3722668,90.71048
1.3261436,86.108345
1.3499966,90.96211
1.2937882,89.03806
1.1652493,85.74829
1.2032621,88.27057
1.2534413,86.16756
1.1844591,86.92698
1.0801431,84.16507
1.0180696,80.26795
1.017911,85.34701
1.0920633,84.18462
0.9994451,80.02029
0.9662176,80.11369
0.924605,83.57095
0.9491946,79.78218
0.9874325,77.75888
0.9385336,78.45521
0.9711348,78.30561
0.85828775,75.40802
0.8859284,71.429054
0.75542593,76.88061
0.8484969,71.620224
0.77472687,71.925224
0.6696212,69.73785
0.6284577,72.07596
0.6323841,73.18237
0.5933867,70.891
0.49220586,70.53196
0.38985276,68.78848
0.38777226,70.738174
0.428836,68.63817
0.353878,64.11184
0.35660723,67.05987
0.36010846,66.15189
0.36614364,63.778694
0.42588204,62.844944
0.27280158,63.728992
0.3787739,61.62058
0.32288784,65.181175
0.31661093,64.4856
0.25813073,61.561737
0.22420621,57.939457
0.19370587,60.933693
0.17331994,59.050724
0.26945126,54.92209
0.12604237,55.759007
0.031031834,61.36959
0.04145435,60.141945
-0.05674029,59.6313
0.031830948,58.928917
-0.075631894,60.274193
-0.09742112,61.43842
-0.006502761,63.90167
0.04954356,66.63357
0.15203327,64.47806
0.2382688,64.76689
0.2648868,69.8896
0.43279925,67.8392
0.51621324,70.69475
0.56192863,70.41368
0.69337296,72.12154
0.7907895,74.68704
0.8493071,75.91817
0.96093816,75.03892
1.0544043,75.23181
1.2075179,79.226875
1.170574,83.524216
1.2730734,81.74748
1.3210874,78.67457
1.3885221,88.40638
1.3563951,85.60054
1.405194,88.41886
1.4389813,87.35189
1.4142703,92.393654
1.3756799,85.42001
1.3904259,86.81739
1.4107072,87.161125
1.3179849,89.25005
1.3964777,90.22132
1.2796592,85.0227
1.23968,90.54808
1.2366318,83.12535
1.1744248,82.66621
1.224698,88.08636
1.1761647,82.73695
1.1561667,88.86827
1.0815929,85.005806
1.0299017,84.869865
0.98152995,83.591064
1.0249944,79.3124
0.99946374,77.459335
0.9826248,77.662865
0.9222121,78.51447
0.9182727,77.41047
0.91868865,76.6949
0.89798075,76.84556
0.88800824,74.01701
0.8992027,73.70157
0.85509366,68.87004
0.7601391,74.28117
0.8361659,72.77536
0.74247146,71.01717
0.67990714,73.93003
0.5869973,70.45815
0.5661515,70.87373
0.6522642,70.81299
0.5100024,67.550674
0.5211475,68.576965
0.45074007,65.29769
0.39467758,65.08931
0.5027118,58.620876
0.41809395,62.507175
0.3912786,64.67357
0.4616973,65.62921
0.41489002,60.655434
0.40008527,64.204994
0.45700252,62.441563
0.45520228,59.10826
0.44026738,58.627403
0.40168023,57.09195
0.35201487,58.145832
0.2776941,58.144226
0.22344169,62.919098
0.26499957,58.438374
0.1783867,57.8035
0.14367154,59.227688
0.12502176,58.043125
0.14934717,60.15241
0.13925357,60.456886
0.15034512,63.621872
0.08803339,63.67526
0.18566243,63.865246
0.23068707,66.83354
0.2683394,67.31755
0.36323962,66.20442
0.5012552,68.71365
0.7237129,69.4956
0.77099746,72.0332
0.83801067,73.24003
0.990991,73.61157
1.1493723,74.62173
1.1815435,76.11243
1.2563967,71.97138
1.3405484,84.803116
1.3859291,82.19183
1.5502535,85.74928
1.468222,82.0998
1.481163,82.24719
1.5282092,84.9114
1.6271788,86.15918
1.5151563,86.04742
1.6897007,86.24774
1.6475179,85.84398
1.6339183,86.78006
1.5835096,87.20425
1.6070461,85.45156
1.5901196,88.44891
1.5216184,86.92925
1.4964303,90.01637
1.4641583,89.11856
1.4688928,90.444496
1.3555399,89.83513
1.3390026,84.42912
1.3289024,87.856926
1.3227309,82.56433
1.334122,82.322365
1.2222383,82.81305
1.3079717,81.240715
1.276953,80.01329
1.1860281,77.52983
1.2610421,78.73587
1.2114903,83.341545
1.2084273,79.04108
1.1779975,73.01119
1.1734619,75.56303
1.1925334,75.90419
1.1314994,73.641396
1.1136575,74.45089
1.1628551,74.72482
1.0777992,70.901955
1.0473547,70.09307
0.9259783,68.99027
0.8856406,69.170876
0.8561284,69.65349
0.84625703,68.38888
0.7759524,70.33788
0.74183965,67.30989
0.75045395,66.501724
0.7166015,68.45295
0.6389459,64.69338
0.6719368,62.73495
0.6033314,62.0075
0.702068,64.35467
0.74719924,63.538345
0.75808585,60.15947
0.66813356,62.46242
0.66773796,64.54462
0.6831556,59.511517
0.6048297,58.32638
0.51016915,60.283054
0.575181,58.75947
0.53711426,57.01266
0.48639357,59.600956
0.41504073,64.846146
0.3400342,63.231087
0.41318262,60.121105
0.34054047,57.983406
0.37754166,62.12367
0.35716048,61.847725
0.49961558,64.84409
0.49856037,66.957726
0.53909737,67.47685
0.7341162,65.32743
0.89050573,66.22322
0.84218866,67.81331
1.0147465,71.9534
1.1765518,69.70832
1.2494996,71.814224
1.3653522,75.41854
1.4052163,78.92667
1.4838302,80.22245
1.5665946,81.02348
1.6099781,84.05931
1.6829888,79.95381
1.7740942,80.23724
1.8345144,80.700676
1.845778,83.45095
1.8808562,85.97216
1.8255005,85.98475
1.9008154,89.81406
1.8590753,86.19211
1.8337513,88.81446
1.8611492,86.21852
1.8377074,86.79931
1.9127449,89.14783
1.7897824,84.614555
1.8885098,91.189354
1.7181844,84.40872
1.733228,84.7591
1.734804,85.09073
1.6842366,85.99903
1.5428598,86.402214
1.5891566,88.318085
1.5445431,82.64559
1.5732669,83.88634
1.4491634,78.622055
1.4501358,82.743324
1.4535618,78.278
1.4488441,76.50758
1.485973,81.46043
1.4227208,77.82959
1.4263309,68.77293
1.3678427,75.07161
1.4348758,81.228905
1.3850789,74.99594
1.3272871,76.620125
1.2840068,78.94226
1.2293464,72.703926
1.1889597,72.73694
1.1752416,69.69184
1.1725873,68.890594
1.0594065,70.08608
1.0829335,64.15892
1.0020922,70.418655
0.9877902,70.526764
0.9556897,67.445694
0.86622286,62.418236
0.87778926,64.33728
0.92424864,63.51775
0.92308575,60.49341
0.8798461,64.7663
0.87201333,59.595604
0.897639,61.20918
0.94326735,62.262207
0.864608,59.067017
0.8792056,60.713318
0.848371,59.30633
0.79876745,59.033623
0.6924831,63.282017
0.74974555,62.991127
0.70393884,59.009354
0.5574997,59.87483
0.5308048,54.996582
0.62469083,62.339355
0.57135046,58.93274
0.5317795,61.325058
0.5367034,63.30874
0.69444937,64.10232
0.6549862,58.673023
0.74198806,60.16165
0.82709134,67.05299
0.89795345,70.14789
0.9717115,64.386856
1.0786405,70.248535
1.2884837,69.39064
1.3523027,72.04477
1.4471371,76.73567
1.52367,79.438065
1.6399343,76.925476
1.7313503,75.48983
1.802571,79.164154
1.7627748,83.57192
1.8946468,80.77152
1.8981552,84.67968
1.8909318,81.86287
2.0272112,83.310905
1.9710013,84.25115
1.9431561,86.14949
1.9476142,86.00003
2.0019717,88.50374
1.9303423,87.03298
1.9881648,86.8643
1.9797587,87.768524
1.8502339,84.70008
1.9297472,88.306854
1.772348,88.80116
1.8075814,83.75514
1.7695407,87.76032
1.7148342,82.11538
1.6237636,83.03529
1.6456138,84.01735
1.6429882,83.169
1.5145576,84.22308
1.5772628,81.35492
1.5594561,80.63248
1.5143037,80.51072
1.4952006,79.58516
1.4081199,79.073715
1.5644091,80.427444
1.4061948,76.631065
1.4518541,79.53708
1.488831,75.632034
1.4463568,71.85369
1.3120316,75.20349
1.4113733,76.99112
1.2364354,72.3711
1.2688404,71.15943
1.1499956,76.42691
1.1476661,67.24846
1.0219154,71.13346
1.0588046,66.17359
0.91698647,70.714874
0.92037064,68.53317
0.95747143,68.42214
0.8536237,68.45446
0.8265121,65.70139
0.9090169,63.787926
0.86185277,64.82543
0.8594626,63.499207
0.81633985,62.742332
0.87586576,62.875084
0.78831255,59.65451
0.82441103,59.326237
0.70492727,62.21456
0.66721076,61.219193
0.7172822,56.72939
0.6378223,59.267315
0.5937663,56.983696
0.61255485,60.07889
0.481641,56.05232
0.513723,57.725574
0.39717922,56.93749
0.48897725,62.479443
0.49601313,61.650177
0.41466716,62.68302
0.58613575,63.947144
0.5452,63.185944
0.6360729,64.41412
0.68943316,67.00262
0.75569004,68.073074
0.9800203,69.83363
0.9353555,69.64475
1.1015567,72.354645
1.2478766,74.8986
1.2581308,74.530815
1.3953913,74.481544
1.4570779,76.181625
1.508433,76.99006
1.6058646,81.55688
1.7147545,77.7991
1.7577037,79.071335
1.67842,79.57665
1.8167315,87.83705
1.6970813,87.9994
1.8089013,84.46586
1.736336,85.64621
1.7604872,87.13251
1.8329145,90.85284
1.7528082,87.786804
1.7104473,89.82282
1.752746,90.0143
1.6327574,84.67115
1.6308502,87.384705
1.5896386,88.6805
1.6209067,85.06744
1.4776516,92.87392
1.4519142,86.7158
1.5475818,84.2933
1.4094584,84.82833
1.3921369,75.70419
1.3017633,84.19249
1.337463,80.18584
1.3395646,77.27997
1.3180015,81.54591
1.2658747,78.75271
1.3853694,81.20304
1.2424997,80.51594
1.2464535,75.29833
1.2056527,75.30401
1.2367665,75.06024
1.1977446,75.58644
1.0894014,70.020615
1.0632242,77.75934
1.0187963,67.52726
1.0251825,72.84686
0.883697,69.783485
0.8885575,70.45689
0.848745,70.3184
0.8224483,67.72981
0.7644386,65.64251
0.77871555,66.00525
0.6666805,64.893715
0.66160727,71.14882
0.60305005,59.84326
0.62235963,60.53112
0.5922266,65.419685
0.59415936,61.036922
0.6499238,63.27231
0.62330365,61.404293
0.61342186,61.73851
0.581814,63.45241
0.46725032,55.90195
0.4262522,58.405212
0.48454264,63.79074
0.39886662,61.619244
0.3361845,57.884365
0.34020546,58.808926
0.19268745,60.368214
0.26483476,58.46121
0.25274438,59.94544
0.20462151,63.361824
0.20096998,63.61513
0.23194635,62.57326
0.20226134,61.303352
0.1996556,59.477936
0.2769537,66.26267
0.37129095,67.313896
0.5022393,64.59662
0.5884156,67.97328
0.6735172,68.78346
0.8381474,72.89171
0.9779602,74.213745
0.9869682,76.74531
1.1475341,74.7137
1.1076185,74.54337
1.3269236,78.7486
1.3069429,77.7708
1.3222691,77.40952
1.4249228,83.20814
1.4552006,75.692024
1.5711646,84.86834
1.5464996,83.47944
1.5864807,90.93808
1.470739,85.15348
1.412751,93.01226
1.4729439,89.03403
1.4688138,90.27828
1.4979359,88.374596
1.5015236,83.13129
1.4658803,95.21135
1.3966213,87.29018
1.3517393,81.87095
1.3576485,92.16376
1.2804875,85.5124
1.277559,83.43035
1.229153,82.56261
1.2234032,85.89672
1.0872327,79.71561
1.1009555,85.90328
1.0423882,83.857216
1.0709354,77.284904
1.0669212,84.308975
0.9644988,77.131615
1.0570884,79.10354
0.96894187,79.012665
0.9603147,76.01096
0.94246686,78.15056
0.9191192,73.83639
0.9357056,75.4309
0.797783,72.16049
0.8454724,72.12696
0.7619614,75.51782
0.7091354,73.150246
0.6659159,73.039215
0.61774075,70.979935
0.6235572,71.09278
0.56046766,65.938515
0.48308316,69.29467
0.44620612,67.21466
0.3839771,67.839874
0.35610077,66.27169
0.40020105,68.7375
0.37624618,62.279064
0.34208488,57.538254
0.36507285,64.944
0.38627222,57.838474
0.33977503,59.273197
0.27681348,63.20122
0.29939803,58.993088
0.31891575,61.75761
0.30358633,62.888985
0.3153202,59.637222
0.18861927,56.234734
0.15359132,53.233253
0.14990844,54.436306
0.11509957,58.69994
0.010212576,56.056625
-0.06912396,55.16352
-0.062658116,59.425945
0.0023632823,60.185417
-0.04696391,61.52677
-0.018812163,64.46285
0.020675452,60.481216
0.16133942,66.01281
0.16740094,64.53084
0.28448868,69.76223
0.44119963,68.56039
0.40594658,68.32674
0.66495836,72.35522
0.62331754,69.49637
0.75486284,76.7656
0.905778,81.29596
0.9727293,79.88021
1.0881193,78.65106
1.1479561,81.02163
1.2615768,81.96682
1.2876861,80.08535
1.2260709,85.313156
1.3145342,83.838264
1.3769151,85.541794
1.4535567,83.501625
1.3573705,89.0262
1.3942319,87.74507
1.3657228,88.387505
1.4228132,88.96525
1.3332688,86.7292
1.3425161,79.21516
1.2979822,87.95692
1.2823296,87.99839
1.2266445,87.09709
1.1452028,86.446594
1.1988044,82.4845
1.2029902,85.66013
1.1101259,85.797264
1.0778625,87.762794
1.0761883,82.06166
1.0347074,81.506485
0.91149,79.61957
0.96349883,77.9724
0.928227,78.91033
0.9630122,81.1651
0.9153384,80.059814
0.8257872,77.75295
0.9914342,78.48271
0.9116672,73.03124
0.859112,76.563774
0.93354326,79.95741
0.8332824,75.306076
0.67986155,78.89527
0.6882556,70.87197
0.6467154,69.83532
0.6569766,71.18466
0.6110911,73.33384
0.53065014,70.844505
0.5472409,69.860695
0.46217546,69.01312
0.41404694,72.76454
0.34906098,68.0432
0.39856163,69.27083
0.36686406,63.117867
0.47116286,64.81085
0.33352035,65.21033
0.31194872,64.8915
0.45540875,58.882885
0.3389244,60.612705
0.37937137,59.033947
0.32352248,59.198566
0.31614965,60.19013
0.27345216,63.145195
0.26359838,63.149067
0.23182055,61.84772
0.077318735,58.842045
0.1404861,58.068447
0.073385045,57.27367
0.07492132,55.707584
0.0769946,59.4001
-0.052662883,57.6932
0.030441523,57.341908
0.07302439,58.524025
0.056941554,63.71017
0.123243846,61.42032
0.19505198,64.24609
0.27643526,65.00343
0.38014215,64.87184
0.47532424,65.996704
0.59220356,70.66108
0.6794871,70.04308
0.7788006,73.091606
0.8883144,78.99623
0.9600633,75.64434
1.1055102,77.07806
1.1869742,79.25219
1.2384887,82.64426
1.2422433,79.73519
1.3827116,81.73622
1.410224,85.02762
1.4678277,87.92279
1.4989816,82.357666
1.4172328,83.720795
1.4558412,89.544395
1.4404911,87.08528
1.4799156,87.406624
1.5030054,86.45255
1.4522618,93.36216
1.5076919,84.45868
1.4098401,87.714745
1.4664949,86.38469
1.3688644,85.57994
1.3636792,85.43026
1.3017013,87.09425
1.2607503,84.9495
1.2359499,85.60847
1.288104,83.25366
1.2362535,85.601524
1.1792843,83.40625
1.1696788,84.501
1.1239634,83.48693
1.0916985,84.09935
1.1968397,78.299355
1.0289223,78.868546
1.0360117,75.9786
1.0983204,76.413765
1.061343,75.88715
1.0654943,75.83405
0.9075457,73.54857
1.0927038,73.28812
0.93912834,72.01214
0.9429696,73.00728
0.950286,74.79334
0.90317035,67.96776
0.78035647,72.548874
0.73849505,72.65014
0.77986693,68.29855
0.7372992,68.30488
0.73741907,63.191837
0.64387715,66.447426
0.58275086,69.219124
0.65314335,64.357506
0.53597915,60.63002
0.61957234,63.587475
0.58615476,60.9327
0.64890313,61.450462
0.6209893,66.70573
0.63076895,60.858418
0.565031,62.73471
0.5573556,60.607395
0.5481005,62.480392
0.54543495,60.092545
0.40822658,61.188484
0.40804863,56.88541
0.36099118,58.929955
0.34092012,58.800453
0.28243056,57.56024
0.2732549,58.47707
0.3227262,63.29692
0.24945712,59.394455
0.21324903,58.836323
0.31515884,57.405247
0.3018884,63.09998
0.41430217,63.20893
0.50773805,69.31656
0.6000573,65.59459
0.6729903,65.179955
0.853454,68.09006
0.9685559,74.73669
1.0678159,71.66468
1.1897116,75.87958
1.2162601,72.66313
1.3470441,76.16575
1.4200075,74.67747
1.5684001,76.96973
1.5888338,77.426865
1.6971027,86.00748
1.7039654,80.85413
1.7115328,83.16321
1.7246292,85.23497
1.8147546,89.102486
1.6617547,86.14581
1.8392681,88.91048
1.8922065,85.86007
1.7952437,87.83267
1.7889793,88.28663
1.7278162,86.83043
1.8119944,88.82457
1.7341061,88.14024
1.6593131,90.85155
1.6871667,88.10479
1.6254334,88.80834
1.5294453,88.15001
1.5859101,84.05733
1.5772791,83.13208
1.477041,88.08187
1.4732022,81.73783
1.3876846,83.20433
1.438203,79.33279
1.4921502,83.56333
1.3919673,75.58335
1.4489601,82.41329
1.3947499,78.65183
1.324361,80.22308
1.3228365,78.05968
1.257154,69.52562
1.2619115,77.9408
1.3381926,73.844246
1.3217399,73.2574
1.2558615,73.16877
1.1722932,68.77201
1.1954652,73.72475
1.0658712,70.174706
1.097987,69.6954
0.9376524,67.85612
0.9041743,69.702705
1.0187925,66.73155
0.88124025,70.174545
0.81476194,67.17651
0.8631885,64.95099
0.87163734,65.3091
0.84919375,59.282085
0.892665,60.65208
0.8042795,59.91314
0.95345706,59.756725
0.8136382,60.817444
0.7714822,62.435738
0.78943473,58.23694
0.80275446,59.375668
0.6929794,54.183514
0.6917986,59.365757
0.71540344,57.77572
0.6609187,58.898342
0.58017755,56.130424
0.581339,59.54498
0.4877612,58.652042
0.46189746,63.003895
0.51061976,57.751453
0.52347755,64.886986
0.65539676,62.316483
0.5297179,64.57552
0.6480483,64.53828
0.7838172,65.89252
0.8324462,70.64383
0.916069,65.72347
1.0352263,68.35851
1.1172304,69.8313
1.2921103,73.375465
1.3843467,76.26783
1.4621274,69.88305
1.4917328,79.014465
1.5733947,78.89311
1.7301046,79.781235
1.80741,80.46931
1.8570498,84.44655
1.8763653,77.34825
1.7999579,84.23875
1.9506098,84.93734
1.9369632,86.67961
1.9022452,85.87538
1.9963127,87.536316
1.9616209,86.92125
1.9046738,83.90191
1.9234126,87.2315
1.9051677,88.38136
1.931135,84.89987
1.936166,88.242905
1.8917195,87.4664
1.8246448,82.58328
1.7898601,85.81831
1.7071041,85.64687
1.7125338,86.05416
1.6298658,84.015915
1.6053294,84.01769
1.5736653,83.07332
1.6115046,82.91384
1.5588654,82.84502
1.6118575,81.30668
1.5367393,83.56377
1.4971385,79.05782
1.5345558,78.298355
1.5004338,75.156746
1.5130334,78.419815
1.4665734,73.78833
1.4489346,75.75633
1.371247,73.75196
1.3515592,72.41852
1.3051835,70.30969
1.263754,73.48706
1.2509091,71.54059
1.2098808,71.31806
1.1455024,70.04872
1.0883834,70.94766
1.052788,73.58137
1.0120466,65.36611
0.9338536,66.917145
0.94115674,66.400085
0.96249634,61.740166
0.93191874,64.587265
0.90982044,62.130535
0.9136464,66.23002
0.8797676,66.51158
0.89968777,64.87355
0.8806614,56.90109
0.8856711,64.13834
0.8181182,56.41316
0.9434203,64.17692
0.8317548,60.389984
0.7244734,61.641575
0.73194873,61.78885
0.6856116,59.18186
