ppg,abp
0.979953,99.12628
1.1317265,98.59075
1.1826317,107.15207
1.2610241,111.61439
1.3020005,111.29185
1.4154868,118.52701
1.4306132,117.211914
1.4920064,124.279144
1.5909871,126.60289
1.6373252,124.821144
1.6227723,132.62906
1.5928485,130.98438
1.6821855,135.09122
1.7290462,141.15236
1.7369914,135.69382
1.6936555,139.1334
1.7264849,146.50322
1.8236367,143.22218
1.7962224,143.9765
1.7737225,144.71635
1.7539372,142.34018
1.7794988,142.49918
1.7339617,143.07793
1.625754,151.4366
1.6221036,147.42984
1.6914796,141.64534
1.6235412,149.35345
1.6828823,141.64714
1.5678506,140.10461
1.5424622,140.8754
1.5108867,141.66454
1.4735647,139.245
1.4669584,134.85597
1.4842387,133.18747
1.4681247,134.37355
1.4314389,129.16086
1.4766746,131.85686
1.5160693,128.99855
1.4576039,122.21908
1.4061415,129.98534
1.4438097,125.17751
1.3662065,121.60846
1.4082468,123.92663
1.3816555,119.284035
1.4323815,115.962425
1.2677143,110.361374
1.3281231,111.55527
1.3513802,109.73103
1.3091909,110.40584
1.371457,102.79867
1.2951548,105.0917
1.2350268,102.69157
1.2202797,94.18559
1.2263863,90.06852
1.1967852,97.68815
1.0914053,94.452
1.0587732,91.21391
1.1133637,88.605644
1.0107527,94.59236
1.0357697,93.473404
0.9741896,89.14171
0.89080644,88.47027
0.92756015,83.09877
0.8321499,81.57524
0.9177977,78.186386
0.86091655,74.38614
0.8880422,79.57675
0.81880563,71.95945
0.8157356,72.36919
0.94050837,72.05371
0.8886287,67.8993
0.81876093,65.95054
0.84779155,59.942173
0.8724956,64.09341
0.87684494,64.093956
0.78636867,59.208725
0.9493976,60.11175
0.77014613,59.997906
0.83417386,56.444267
0.7895331,53.905807
0.7662402,54.51871
0.7656409,54.1968
0.71193635,55.469677
0.6480033,54.273056
0.66591454,58.021652
0.5948243,58.51436
0.5850879,59.739223
0.6165258,51.70762
0.46250942,54.627693
0.4939507,62.40112
0.48900598,65.15645
0.47709376,63.40014
0.6230462,69.30538
0.5517506,64.010765
0.6146645,66.97469
0.64488935,74.38404
0.70490235,72.57654
0.6967502,75.98317
0.8244018,80.709015
0.9347668,83.08647
0.977158,85.26629
1.1229326,95.252686
1.1768597,94.81516
1.2285672,95.525635
1.3943408,102.215645
1.4566333,97.22504
1.490925,108.499016
1.5393064,108.59676
1.6275276,113.70252
1.6578418,116.1037
1.7773199,120.892815
1.7882774,124.19597
1.8262085,123.98062
1.9174838,133.34024
1.8848,132.16508
1.9292252,134.34367
1.892017,135.0735
1.9392793,137.0298
1.9359828,139.34587
2.0328164,141.62595
1.9556872,142.85936
1.9645712,143.80676
1.9580432,138.94057
1.9251317,150.04004
1.9739456,143.4495
1.9557884,147.98183
1.9039935,148.99113
1.9404348,146.05582
1.8509518,142.58551
1.889126,145.19359
1.9045893,141.49875
1.8409975,145.35658
1.7605821,142.10985
1.7618341,141.73477
1.7862455,136.56801
1.6531242,138.26971
1.6992689,133.6431
1.6688766,137.42192
1.6995696,131.67781
1.6147867,127.2863
1.6010656,131.23907
1.5805659,129.62584
1.5431842,127.47998
1.5427963,126.897644
1.4962046,121.71634
1.6027967,121.07907
1.5472684,115.587555
1.4816747,114.99329
1.5041722,112.88182
1.5670711,115.55911
1.5220877,108.7249
1.4793421,113.590706
1.4838778,110.56086
1.4313262,106.62904
1.3913789,104.178856
1.3977702,100.859276
1.4273103,98.248344
1.3152727,100.67321
1.1644439,100.42302
1.1978084,94.33414
1.2179401,95.18892
1.0933859,90.89567
1.128712,87.9375
1.0358543,85.943535
1.0663664,87.68586
1.0175569,84.88641
0.9246579,88.19938
1.0119054,81.317474
0.90693337,81.69252
0.81319654,77.12879
0.8308229,73.47155
0.9336829,74.53544
0.8856846,72.62893
0.84085023,66.69336
0.8495853,67.67456
0.80430293,68.73568
0.8972716,61.60732
0.7912024,65.121605
0.8072724,63.657093
0.81619835,55.523365
0.841892,60.36224
0.8263726,59.97247
0.8042173,54.67186
0.8012597,55.605244
0.69401383,56.951405
0.71905774,57.186035
0.61356586,55.526516
0.6516941,53.857285
0.6028587,53.922585
0.6194112,54.627373
0.49344656,59.00047
0.3980924,56.96659
0.4050558,60.629906
0.44683215,56.895935
0.44497484,58.479115
0.43885612,59.914425
0.43877482,63.083538
0.46443468,65.287605
0.47681287,74.293686
0.5420713,72.35292
0.6193284,79.661026
0.66824245,77.841415
0.7644067,82.27995
0.83168435,81.93262
0.86922324,86.99261
0.9173186,94.115265
0.9988007,88.564674
1.1272049,92.96229
1.1604066,100.90884
1.3027376,100.30004
1.367904,110.50061
1.3421888,103.43353
1.4346148,114.645905
1.5343852,117.634384
1.4889562,122.171524
1.6479722,121.208145
1.6430986,117.7786
1.6790191,128.25754
1.757013,128.4762
1.7795998,132.14305
1.7238904,131.44398
1.7721789,134.41457
1.7534682,138.78242
1.6789374,137.39345
1.7528846,138.36687
1.7404835,138.76125
1.6814798,145.1117
1.6801378,141.92926
1.7082806,145.40012
1.6743373,142.72026
1.6987332,144.81259
1.7309523,146.97629
1.6874405,142.73694
1.6730089,143.03178
1.6615636,141.03375
1.536369,144.56111
1.491202,142.54253
1.5267141,140.822
1.5390159,140.88509
1.4275988,138.56232
1.4598532,136.49829
1.4182886,136.27959
1.3373438,133.67271
1.3921306,126.86201
1.2759461,129.97949
1.2583646,125.394424
1.2728883,127.1801
1.2760006,128.55977
1.2708708,124.223595
1.2949066,123.8109
1.1486621,117.19363
1.1754229,119.732124
1.1987977,111.77875
1.1425022,113.55457
1.2026588,112.56483
1.0987107,111.49207
1.1709949,106.71853
1.1607643,105.54487
1.111685,105.35074
1.0216353,102.91333
0.9873542,99.92871
1.0303541,103.2148
0.9677486,97.57174
0.8412441,93.32847
0.8963698,94.57709
0.7942252,93.461945
0.8123595,89.84278
0.815912,84.21713
0.63734674,85.73168
0.5954763,83.24931
0.7332162,81.45142
0.60464627,83.284645
0.5834549,79.27436
0.48420632,74.61719
0.54986334,79.885506
0.5588189,72.46312
0.48205245,72.75267
0.5250693,71.59633
0.57510746,68.84246
0.5448413,62.751392
0.46124253,65.04172
0.4909465,64.74077
0.5375639,60.686264
0.5685209,60.653503
0.51857376,59.949406
0.39714852,56.608227
0.39343375,57.444016
0.3691614,54.75505
0.33147743,56.084175
0.28232893,55.4975
0.33637157,60.102303
0.32255286,56.96319
0.24185325,51.176937
0.21877576,56.49321
0.12883282,57.002842
0.17016496,58.88382
0.074838735,58.720078
0.11853361,61.017994
0.13709216,64.33545
0.031287804,60.457043
0.015461569,64.36774
0.08508061,67.152824
0.17298475,68.60905
0.16042918,66.5037
0.29235908,74.860596
0.21495746,75.9384
0.36482364,79.6661
0.43822178,80.50966
0.42982954,80.96925
0.56963515,91.3985
0.5912683,96.19389
0.70712024,93.90757
0.8718428,96.723404
0.89421946,99.813896
0.9714131,105.23936
1.0279197,110.134705
1.0473611,114.71818
1.1223906,113.142975
1.1185997,116.500565
1.1522462,122.77379
1.2656279,126.37829
1.324828,127.3615
1.378308,131.66362
1.3787278,129.2276
1.3553809,135.05873
1.4047781,134.71059
1.3971835,139.38223
1.4063245,138.24132
1.3596654,141.54587
1.4145038,147.35645
1.4732826,146.22008
1.4082506,146.03123
1.3617882,145.12274
1.4262772,146.8575
1.3744217,149.749
1.3322151,149.64786
1.3731143,147.67198
1.3143967,144.69762
1.2262703,149.94217
1.21188,144.9187
1.214559,144.07431
1.2743855,139.85658
1.2004912,142.4366
1.1891537,139.93011
1.1157244,139.02856
1.0759844,136.72743
1.136281,132.83542
1.0392214,129.62564
1.0657763,130.69803
1.0413386,133.95154
1.0032246,131.34175
0.8835637,124.547935
0.96586823,120.532425
0.9703206,122.761765
0.92314184,122.122696
0.9090362,116.43345
0.9209849,116.58365
0.912974,116.82135
0.83631176,108.69396
0.81896055,111.26697
0.86599946,111.28964
0.8901475,109.898834
0.7913859,109.69937
0.84812605,103.51971
0.9169861,98.52652
0.68234247,96.42709
0.7345344,94.79264
0.69234776,95.49747
0.6655558,94.6537
0.6072044,91.82165
0.59396917,93.85885
0.5741776,85.13608
0.46211722,88.27709
0.44197515,88.12046
0.45423105,79.522835
0.35581207,79.78905
0.34222886,81.233826
0.33281755,79.6151
0.3223151,76.5266
0.4547265,75.963234
0.32522237,74.98772
0.2564535,71.03955
0.3218244,67.613205
0.26902387,69.6314
0.3499882,63.624313
0.37019604,60.74093
0.30934775,61.211895
0.28342834,64.078674
0.33505625,60.318253
0.21827619,63.221928
0.2524458,53.67124
0.20698829,60.246677
0.2699847,58.036686
0.17696393,56.649002
0.17461635,56.99839
0.18464848,59.430954
0.057831354,52.371933
0.03152636,56.072556
0.106033,57.487373
0.07550264,58.67282
-0.06878635,56.86556
0.020016808,58.321644
0.0069070603,61.753567
-0.028925808,66.30252
-0.06610166,65.106705
-0.003322944,65.17823
-0.008258234,69.81544
0.06207202,69.98392
0.11021156,76.440926
0.21879266,78.131294
0.2941862,77.93946
0.35945663,79.71445
0.35518566,79.46387
0.48601016,89.38918
0.5178985,89.65796
0.6447277,92.096535
0.72286916,98.92293
0.8030853,100.64689
0.90761626,105.189865
0.84568435,107.27752
1.101391,112.922195
1.1665844,119.1686
1.2284117,119.06115
1.213663,117.79695
1.2332937,121.91873
1.2793919,128.62442
1.231893,129.9441
1.4131008,132.78342
1.369343,136.28694
1.3657317,131.91382
1.4368745,138.66649
1.4220874,142.29315
1.4399673,138.13222
1.5289233,144.21814
1.4569594,146.54579
1.51328,142.67236
1.5127419,146.53969
1.441957,144.19975
1.3872288,144.28598
1.4058642,147.41708
1.4225038,146.85066
1.3958434,143.41824
1.4278536,144.09673
1.3866687,145.19185
1.2577413,143.73682
1.2880006,138.33331
1.2425383,143.3999
1.3109466,136.83853
1.2328407,134.3197
1.1874201,137.07721
1.1766927,139.1599
1.1907588,134.29999
1.0920881,130.31393
1.1549623,126.65095
1.0442194,127.27336
1.0715961,129.57959
1.2257001,124.75803
1.1124809,120.20161
1.1489676,123.18428
1.0994995,116.341545
1.108104,116.465935
1.1855468,115.113304
1.0135454,113.180786
1.015,111.46663
1.144369,110.00364
1.0272653,106.330025
1.0797093,104.38817
1.0231973,103.83366
1.076054,101.130745
0.873281,104.05175
0.92126966,99.17753
0.85103333,94.98487
0.85748035,95.69546
0.8196777,95.33089
0.7252934,92.12426
0.7259513,84.65451
0.7405375,82.327545
0.6445204,84.223915
0.6573094,82.70775
0.6190017,79.565575
0.68764204,79.95013
0.58115214,74.293144
0.5314342,77.81491
0.56918615,75.5393
0.47214377,71.41202
0.6067153,69.03861
0.54820603,67.643616
0.5249471,64.94475
0.5742246,67.70241
0.68216115,61.311867
0.60155,62.01307
0.5902018,62.979862
0.57285523,60.434402
0.5020122,60.776035
0.59278053,54.87267
0.50604075,53.109028
0.47646543,56.151554
0.49784926,58.774693
0.5157099,54.038246
0.33363426,56.60395
0.35214463,53.726948
0.28877962,56.35532
0.3196914,57.42609
0.3307752,57.877777
0.2870087,57.681488
0.2742537,58.223564
0.26881856,56.80239
0.32442912,64.66544
0.30754665,64.76095
0.3648462,69.08069
0.36543956,67.93751
0.39611942,69.48956
0.43046373,76.27809
0.4275488,73.8556
0.48407233,79.354195
0.6039617,79.47644
0.7562315,83.94077
0.7411843,86.904594
0.81970626,93.09291
0.9084216,96.145096
1.0888263,98.486435
1.0576137,102.553
1.23229,101.81517
1.2727729,100.74636
1.3714776,113.88877
1.4685162,113.35984
1.5296776,115.830795
1.5002872,121.03924
1.565714,121.65983
1.6391851,127.0688
1.7727948,127.51124
1.7076057,135.63689
1.7307241,132.18309
1.7932926,137.94363
1.7107028,133.0708
1.8675215,140.8741
1.7903363,142.59985
1.8091607,142.77292
1.8736835,144.77412
1.7479165,143.91899
1.8357319,146.17262
1.8513635,141.8523
1.8123591,138.37799
1.7633487,145.37578
1.7970872,147.39282
1.7269623,143.9327
1.7450643,146.99658
1.6742525,144.46762
1.6746914,145.22867
1.7459575,144.69305
1.6847929,139.70865
1.6797075,136.11568
1.6504054,139.54416
1.5176545,138.30685
1.4945327,135.9736
1.5511469,132.58002
1.4791762,123.69236
1.442981,128.32379
1.4087692,125.79795
1.459973,126.6927
1.4579154,125.33564
1.4664996,120.13729
1.4235635,120.10082
1.4223461,117.32819
1.3974485,112.056145
1.335923,114.39618
1.367133,111.64539
1.3910861,110.634766
1.4105816,112.32678
1.2918007,111.93704
1.4195545,105.88152
1.3861254,108.85929
1.3077481,99.81134
1.2702878,99.01507
1.2986395,102.97671
1.2320688,97.96837
1.1777792,97.65564
1.1905134,93.34888
0.9994703,92.84616
1.1008539,89.618645
1.008632,84.186424
1.005341,89.70535
1.0586281,84.49021
1.1159477,85.197
0.9585096,82.481804
0.91605204,81.127144
0.9252356,75.31116
0.9690072,75.68457
0.9596493,77.70118
0.91334593,72.79905
1.0012424,72.29714
0.89280534,66.93656
0.8673932,64.335884
0.88211536,65.09533
0.96060294,64.388306
0.88099146,57.525257
0.8741285,61.985916
0.7563534,53.85566
0.86365163,61.07703
0.79896414,58.705585
0.73472637,56.76889
0.83932644,63.485374
0.6739697,57.59873
0.70301473,59.523617
0.6983877,54.51478
0.5428154,52.120216
0.6569581,56.709534
0.6390644,56.185383
0.658141,61.85966
0.54405105,65.19609
0.51605445,59.705147
0.5909379,60.906345
0.53838515,62.166756
0.49106815,64.683266
0.59494096,66.90963
0.7213869,75.23935
0.5975751,72.75787
0.7426326,77.20215
0.7810689,83.62039
0.8944423,78.88214
0.98452824,80.894394
1.0633993,90.205505
1.0383247,86.468094
1.2057956,90.55142
1.2429485,102.0111
1.4381694,98.785446
1.4505994,105.78017
1.5134726,113.689545
1.6020728,109.23243
1.6819837,116.99293
1.6969229,118.76814
1.6726792,121.525185
1.651391,120.02831
1.7443739,131.45808
1.8780359,126.82149
1.8378766,129.31888
1.9133277,134.24301
1.8822198,133.44086
1.9098445,136.79735
1.8882678,138.98724
1.914071,138.83165
1.9859815,142.59079
1.9171582,142.73666
1.9356934,141.11423
1.9205092,144.98366
1.958196,142.48874
1.9298314,144.36102
1.9093107,143.44983
1.8681371,149.10214
1.8377024,144.25629
1.9229639,148.83212
1.8429307,142.50383
1.6990284,140.90721
1.8044904,144.64651
1.6673622,136.9128
1.7005237,137.52936
1.6319762,139.3802
1.602421,133.44365
1.5887066,135.55246
1.5590273,131.33575
1.4646174,131.39642
1.5646743,129.44473
1.5682585,130.06679
1.4760319,125.391464
1.4685227,124.40744
1.5698204,120.48841
1.5211504,120.64007
1.4681916,122.61768
1.4283624,119.217064
1.4052446,117.03563
1.3832277,109.60331
1.469015,109.19741
1.3702852,113.0968
1.4597857,107.262535
1.3844479,108.78455
1.4205939,105.78955
1.3295856,103.913315
1.3359016,99.785385
1.2848899,99.72063
1.1975838,98.98019
1.1553354,97.74199
1.0574476,87.846405
1.1821724,94.617134
1.108059,89.51686
1.0562007,89.627
1.0759481,88.1217
0.9333188,86.63067
0.9697246,83.222694
0.8981991,82.79127
0.8347595,76.697205
0.8815436,76.79322
0.8654836,76.18344
0.82245773,74.954216
0.77333564,71.24976
0.7814,66.98632
0.8900965,68.63537
0.8156728,66.31112
0.7516862,70.790695
0.8822972,62.953365
0.81385744,61.17693
0.8550524,57.20463
0.67133063,59.210632
0.6576588,57.5594
0.6661305,57.483414
0.6668695,55.18124
0.746171,56.42919
0.5945756,56.121372
0.63317066,56.64062
0.5249455,55.130043
0.5067589,52.40956
0.47453308,54.39459
0.4915112,56.449608
0.46527314,59.80081
0.40780368,60.1138
0.4360803,63.340687
0.32252377,63.5102
0.3733218,64.19324
0.33505222,69.688034
0.41587636,65.45959
0.42557472,69.39829
0.36885092,72.33087
0.56580114,73.92186
0.6125729,77.14926
0.6162851,79.02003
0.7805364,84.27187
0.7391799,90.790436
0.92348033,87.76448
1.0000653,94.457275
0.99460024,95.12662
1.0822113,103.07379
1.2028576,103.044205
1.3238757,104.057556
1.241392,109.82295
1.4203103,115.92868
1.4375316,113.9318
1.4715147,118.690186
1.5276986,124.74078
1.5766981,122.35084
1.6779524,128.34143
1.6391201,128.01024
1.626077,131.49452
1.6167685,134.53432
1.6806548,137.98122
1.6964705,137.48438
1.6510959,138.95987
1.6710297,141.76483
1.6766558,141.97104
1.6208408,147.96002
1.669577,148.02202
1.6673642,147.3521
1.6251304,144.00375
1.5717369,145.60254
1.6262232,144.66664
1.6262853,143.66286
1.5223987,143.4528
1.5757278,144.0139
1.4887273,139.07472
1.4800992,144.07349
1.4868721,141.53954
1.2638996,140.94545
1.3550462,134.19531
1.3054297,138.58148
1.2161939,136.20132
1.3351382,136.06909
1.2596196,131.92264
1.291793,128.98862
1.2504722,130.54866
1.1673474,124.86619
1.1659089,123.192085
1.1958807,122.09677
1.1971377,118.732056
1.1726646,122.82031
1.176918,118.05671
1.1360021,114.63092
1.0960171,116.708084
1.1007142,110.317635
0.98956436,112.51817
1.0551558,112.90494
1.011515,104.9327
1.0377244,106.929085
1.0315844,104.26473
0.9131164,99.90761
0.935513,99.447
0.95146656,98.63483
0.8156626,95.85548
0.86901593,94.29778
0.7458281,94.16155
0.66924685,89.89319
0.64492106,83.2515
0.6767329,91.42069
0.5781897,87.63886
0.5651261,81.76275
0.6245498,81.34869
0.48928326,83.89414
0.48380873,73.27504
0.5000351,74.345
0.5289861,75.64495
0.5085916,71.64075
0.5304713,70.24147
0.47284588,65.97855
0.4311904,64.90845
0.47411647,64.030914
0.34280038,66.30231
0.44638947,61.32377
0.36951637,63.674263
0.43716702,55.433155
0.50989544,58.480564
0.2601429,59.265865
0.3655269,57.04059
0.34132892,55.24618
0.2655092,60.1407
0.2094223,60.46767
0.1997595,56.170788
0.17622352,56.801506
0.079010755,57.98979
0.14182436,56.13669
0.12791497,59.49144
0.06008574,59.215714
0.11386024,58.562023
0.074860185,63.56745
0.00854748,61.109386
-0.059516184,62.111546
0.066282496,67.260445
0.024359189,70.23992
0.1475894,73.57221
0.21222278,75.93088
0.3282808,74.73583
0.20905808,81.04366
0.38154605,83.48444
0.53348666,83.94041
0.5208651,91.963745
0.5636564,91.38906
0.65550137,99.17364
0.7421365,99.51038
0.87679183,103.63548
0.8739073,105.54157
0.9791668,106.86388
1.0021855,111.503365
1.1026803,116.39534
1.1773282,120.10205
1.1668198,118.404335
1.1697727,124.49814
1.3153068,129.0852
1.3047976,127.781906
1.3658406,132.54076
1.3251616,137.27101
1.3214734,134.12886
1.3726716,134.28636
1.3889481,139.63602
1.4509141,141.11449
1.4055746,141.42091
1.4667324,142.41762
1.38894,143.74704
1.3296945,147.03352
1.3714521,147.33365
1.3643483,146.6017
1.3920724,142.81213
1.3061867,144.90158
1.2838322,141.91524
1.3788444,147.19336
1.2971843,142.5872
1.2280775,142.5896
1.2135499,142.70842
1.1613019,139.21161
1.1280721,139.14024
1.0106288,133.213
1.0913341,136.03854
0.99551314,132.16283
1.0090399,130.50612
1.0417559,133.64397
0.9089277,125.24135
0.98122156,125.77559
0.95279986,129.33539
0.8916075,120.86236
0.92218184,121.60084
0.9517688,122.18079
0.95855147,124.179405
0.9191416,113.69828
0.8477885,115.39744
0.8318666,110.919235
0.88893735,111.11669
0.8966911,109.617836
0.7713907,109.88507
0.81799895,106.53536
0.85858476,103.08501
0.7727006,98.43926
0.7959547,94.98772
0.6364285,99.07913
0.6502079,94.3672
0.6836227,96.22589
0.56164455,94.61777
0.5900751,92.95783
0.5444985,87.82047
0.51530164,84.3729
0.574385,84.46932
0.40519464,80.79935
0.4266874,81.85506
0.4099372,79.73514
0.29368487,74.1136
0.31271556,75.92139
0.3586852,74.4276
0.30308965,73.46409
0.33604944,72.66612
0.31479895,65.664444
0.36656862,63.784298
0.3656599,67.26251
0.34308988,63.378654
0.26622802,63.17853
0.36954683,62.84177
0.4129611,58.7326
0.3237123,61.767326
0.34050342,55.236572
0.26315492,57.25061
0.28837875,58.682156
0.101752274,58.61127
0.20400727,55.91131
0.19541915,54.92317
0.023900494,56.386356
0.042945433,53.53825
0.042092104,54.932507
0.030163646,58.63592
-0.026679605,56.805042
-0.01671939,58.35577
-0.009146565,60.68382
0.029498814,65.78816
0.00024003559,64.98099
0.027406389,67.70124
0.019516781,69.12742
0.1366604,73.64141
0.2267316,78.86296
0.18989961,74.541794
0.24533114,82.07696
0.3776787,84.2293
0.4281349,85.56359
0.5828285,87.555016
0.68123215,96.16148
0.6370788,93.69506
0.8052381,96.59305
0.8674903,103.10705
0.9603516,103.57179
1.0633337,105.054504
1.1628814,111.525925
1.2052033,112.97987
1.1958767,113.40265
1.3123485,122.452774
1.3284539,122.014175
1.3218362,124.98216
1.3748375,129.47261
1.4540882,135.04669
1.3521817,135.15254
1.4150532,131.89923
1.4588534,139.78355
1.532054,140.71971
1.585447,144.10768
1.5957588,141.86453
1.536684,145.81154
1.5626725,146.64247
1.4393314,143.68262
1.5661056,146.55798
1.3978431,146.60835
1.379051,145.76347
1.4438401,144.38573
1.4508425,145.76952
1.4249487,144.26357
1.3951802,144.2938
1.4733407,140.68489
1.3004242,137.82362
1.3767954,139.79828
1.2989103,136.59427
1.2590185,135.06454
1.2611821,134.77428
1.2370589,134.30559
1.2343246,134.8476
1.2204143,132.15073
1.1740401,132.52704
1.1670365,124.5135
1.161929,125.96519
1.1222597,125.998215
1.1288211,124.36072
1.1241392,120.71448
1.1714668,118.42762
1.2311665,114.71722
1.1593053,118.483986
1.0727341,111.47434
1.1521643,112.054016
1.0822277,108.4987
1.1049244,107.09246
1.1016482,108.10037
1.0061325,106.33705
1.0745476,101.23267
0.94564295,102.258224
0.91624534,100.57474
0.85380733,94.17295
0.94805264,96.955185
0.88472825,94.48372
0.8167289,96.36247
0.7547928,85.40788
0.6769183,87.05133
0.7677439,79.6499
0.6708457,80.80558
0.7116918,81.39615
0.68272424,77.89912
0.65642256,74.53087
0.6798848,78.07854
0.70145786,74.58581
0.71224576,72.839745
0.69261205,70.73586
0.6483392,70.55678
0.5969202,69.129295
0.6876728,61.24254
0.7319004,61.974037
0.7528334,65.598694
0.7181633,60.472286
0.69370705,64.99068
0.6558812,57.049618
0.5927045,58.067097
0.516545,55.393723
0.5578492,54.60452
0.48335356,53.9211
0.44775727,53.932373
0.37763688,53.035824
0.51469797,58.85582
0.45938855,62.28301
0.40918514,58.216568
0.36581495,51.83298
0.4235785,56.3699
0.33964807,61.80379
0.3723999,66.369354
0.3530196,60.791805
0.2914324,61.462685
0.3537013,65.89341
0.286649,67.07973
0.5044462,66.03427
0.476547,74.73164
0.61137855,74.70381
0.65367615,72.93211
0.71332777,84.26471
0.7859739,81.76696
0.9012898,91.04329
1.0049846,92.00317
1.021904,101.855675
1.0837762,98.66121
1.2476001,97.64358
1.2303436,100.57857
1.3764578,105.277374
1.4070734,109.290695
1.4634467,115.43324
1.5722989,116.1969
1.5641596,121.09087
1.6926452,119.810425
1.7203819,132.27606
1.771346,126.49666
1.7445818,134.45096
1.8414786,133.05684
1.8022385,137.0663
1.7945437,135.62126
1.9331175,139.02504
1.831184,143.81471
1.8533266,142.60884
1.8558817,144.19067
1.8087544,144.36589
1.9050071,143.08188
1.8426027,144.88184
1.8819748,142.78912
1.8541546,143.35532
1.8162655,144.38301
1.7555299,145.30888
1.7428057,140.30522
1.7281109,140.12926
1.8061243,142.09215
1.8310051,140.89052
1.6902661,139.98318
1.6815635,140.79008
1.5903056,135.22427
1.6459008,137.79904
1.5987856,134.33353
1.6096317,133.18713
1.5327283,130.17055
1.5303551,132.60214
1.5420593,127.31108
1.475894,126.451195
1.4608095,120.33885
1.4924675,122.0058
1.4261672,126.0523
1.5578253,120.22164
1.5390586,114.1718
1.530244,113.40527
1.4385315,110.32368
1.3925127,108.60722
1.445065,109.59923
1.4420133,110.51803
1.3204974,105.62957
1.3891748,102.75057
1.3930489,100.92931
1.4122266,100.827034
1.2476829,99.62898
1.318005,97.94048
1.1538824,97.55397
1.1794448,92.08051
1.1942209,86.11609
1.0698005,85.895226
1.0606897,85.01635
1.1064727,88.868645
1.0065163,82.1653
1.0423099,82.46657
0.9789331,77.52048
0.99548095,75.781364
0.95157266,78.851326
0.9929552,74.4596
0.9814869,70.4845
0.948694,68.280594
0.88792664,69.92004
0.81878895,70.030045
0.8502385,69.21486
0.91412896,68.90492
0.89708513,65.79017
0.8417132,60.495716
0.9467912,59.674606
0.9649116,61.509716
0.93514764,60.89464
0.87604535,56.404293
0.75694996,54.87484
0.78327996,55.027218
0.830433,60.162148
0.74837893,53.669582
0.6397966,54.588554
0.58279,56.464684
0.6210454,54.000084
0.5731506,59.245144
0.60721654,60.59478
0.586204,58.82592
0.59356666,56.65161
0.5956554,62.6374
0.59831244,63.00838
0.5714815,69.14655
0.61894405,67.06227
0.57830703,72.62419
0.7679881,70.600525
0.8367671,73.61546
0.8193246,75.97498
0.8365464,80.059746
0.9859124,81.749466
1.067297,85.6937
1.1095372,91.31107
1.1577978,93.9999
1.29982,99.63523
1.3986036,103.01342
1.4880092,102.12675
1.5147119,108.113304
1.5941647,115.66359
1.6169904,112.62135
1.700399,118.021255
1.7209507,119.39596
1.7957822,124.24618
1.699586,126.86869
1.8772131,130.52887
1.9098063,130.10452
1.9076242,132.63535
1.8737283,135.65051
1.9338381,136.971
1.9952583,141.7859
1.9452962,141.5123
1.9790306,141.83257
1.9275864,143.08554
1.9260436,149.74872
1.8847338,147.16112
1.8887203,146.67607
1.8549064,146.22711
1.9212815,143.52852
1.8233937,144.2633
1.8781918,145.41685
1.8282088,146.42181
1.8450706,142.04718
1.7638328,137.34196
1.7220858,143.47813
1.7489231,141.02762
1.6657691,137.36284
1.6979524,138.96904
1.5679084,138.52382
1.5568221,130.74002
1.5382147,133.00847
1.619069,131.26122
1.4450502,129.46106
1.491016,130.78691
1.4706006,122.41229
1.5069183,123.05242
1.4116434,123.35662
1.4036494,125.42156
1.3838537,120.424866
1.4588394,119.79498
1.3998609,116.08262
1.3173488,113.79641
1.3464187,108.8151
1.3927759,110.17458
1.4377633,103.53298
1.2818186,108.67725
1.3350496,105.64525
1.2833501,103.64968
1.2134525,102.82638
1.2370163,93.617035
1.1871748,94.371925
1.1350225,92.57927
1.1622436,89.092186
1.0682015,91.28193
1.0113455,87.61187
0.9722407,84.76398
0.9134171,85.572495
0.91249067,84.40724
0.8443371,82.84697
0.7923778,82.11481
0.8110801,77.445
0.84064555,79.38098
0.67961127,75.7691
0.7324895,73.3617
0.7650725,70.26098
0.79085964,69.63596
0.69968706,72.68555
0.7430513,62.892025
0.7319332,60.048656
0.7015573,63.554134
0.678515,62.935364
0.64734834,61.65286
0.78048223,61.37064
0.71496975,58.20935
0.65529466,57.252518
0.66234034,52.197014
0.6168843,55.312298
0.62747306,55.42193
0.529345,55.326035
0.4928012,54.678383
0.4286643,54.348022
0.3493816,55.053078
0.35200962,56.362885
0.37584466,56.693325
0.3333793,60.059673
0.37347874,58.56098
0.26413417,63.49602
0.2630209,61.77174
0.3083344,66.648674
0.33956254,69.5741
0.31527507,71.322075
0.38999856,72.10186
0.48772138,72.40486
0.5819791,76.903496
0.5950721,81.632706
0.5616719,83.78488
0.8256411,88.03476
0.812147,93.148926
0.8407481,97.96213
0.9877041,97.998955
1.171146,102.61936
1.128836,105.67542
1.2325096,109.7537
1.3639531,109.005646
1.3256999,115.81037
1.3482022,114.0399
1.422764,120.978035
1.4797641,127.59936
1.4082761,122.18646
1.5241693,132.3196
1.5113567,128.58495
1.5967857,134.21016
1.566634,139.23097
1.5334699,137.88422
1.7190074,138.60388
1.5811871,140.5219
1.6134938,137.79832
1.5613222,143.43115
1.624324,148.129
1.5531583,144.31166
1.6039863,139.33813
1.5996143,143.25417
1.4881833,143.22806
1.4735295,149.31274
1.5225587,149.02438
1.5040144,144.8923
1.4276398,146.51054
1.4063094,144.60262
1.3922911,141.61795
1.3710186,141.03763
1.2924614,140.36555
1.3203986,139.86731
1.281813,135.01636
1.3217806,133.94734
1.1962447,133.76628
1.1287631,130.86101
1.1299089,131.50325
1.1276618,130.37187
1.1723889,129.46754
1.0803049,126.12771
1.0767233,122.11829
1.0182214,121.08438
1.1161139,119.540306
1.0583888,113.644615
0.98706305,110.44409
1.0418519,113.652794
1.0049517,112.156166
0.94869417,110.46447
1.0617996,108.295334
0.88770247,106.63155
1.0209273,103.54607
0.8677433,103.56041
0.8319194,100.99718
0.8553999,99.76176
0.84272665,97.41833
0.84619874,93.6784
0.76182824,89.73166
0.73110634,90.09122
0.49591595,89.438805
0.65238804,87.84602
0.5547045,90.448296
0.57001555,89.87027
0.52914983,78.6213
0.4545607,77.69
0.47405985,80.73398
0.41054785,78.82529
0.4572414,68.0881
0.40690565,72.91252
0.47275782,70.05565
0.43607944,69.16213
0.40230566,71.30205
0.40250885,67.29202
0.29258534,66.81741
0.40969452,63.98868
0.34615207,62.04936
0.3660562,59.457096
0.39794865,60.75803
0.31868595,61.634205
0.3371473,59.60321
0.30011708,57.362366
0.16612966,58.401443
0.24106613,56.76862
0.21420987,55.54604
0.1909794,55.84885
0.07385041,56.09072
0.0712216,57.54808
0.064520895,59.27581
0.08515828,55.912163
0.018088352,61.504353
-0.008298328,59.814407
-0.12186197,62.847565
0.028557451,61.594536
0.020065939,64.43062
0.04128941,69.81968
0.09241872,70.93061
0.29633942,73.71213
0.1309911,73.84299
0.18429278,77.6416
0.25780463,82.091225
0.36518645,82.10822
0.46156272,80.75614
0.57563347,88.55606
0.55799353,92.567116
0.6214746,95.32334
0.74705595,100.42458
0.8936791,105.630455
0.8699366,106.02439
1.0491401,110.07971
1.0478779,113.02125
0.98715854,118.01832
1.0832667,122.120636
1.2502137,124.01643
1.2179499,123.041794
1.2189399,128.3315
1.2484417,133.97804
1.3745903,135.5194
1.3146096,139.10146
1.30882,136.59508
1.4378945,141.51729
1.2917281,143.65224
1.3687471,140.63617
1.3596833,143.7948
1.3552519,146.68895
1.3294513,144.43396
1.4301317,140.83237
1.3389808,150.83115
1.2811309,146.58713
1.3091376,142.5593
1.3525385,143.79842
1.2933984,139.63959
1.2726417,141.79172
1.2900041,144.67007
1.205062,137.88344
1.1587187,141.11246
1.1873863,139.77144
1.1414832,141.48291
1.0687292,136.68834
1.0988041,136.57025
0.97026753,137.3586
1.06173,131.23892
0.99307346,130.40094
1.0687932,128.59409
1.0113031,127.41018
0.92835575,123.09232
0.96395403,128.25887
0.9469513,118.342285
0.97186923,118.865105
0.92451555,116.30464
0.93735206,116.81902
0.9494494,117.002235
0.9139546,113.13734
0.8361678,112.02855
0.78235924,111.25452
0.8773108,103.69732
0.87070405,99.67103
0.8426844,107.549
0.82656926,101.89719
0.76401925,94.57441
0.6639105,97.28025
0.7227462,96.78289
0.67218983,87.89285
0.6195563,90.144066
0.5423153,88.06743
0.50089777,90.31367
0.56067735,84.07574
0.4895099,85.66553
0.38872868,84.1073
0.40153834,79.15745
0.4090115,74.499466
0.36017707,77.34907
0.37856883,78.79487
0.35127252,77.97668
0.39611053,71.74956
0.32071036,66.82308
0.31792885,72.097244
0.418113,66.190926
0.42218372,66.0139
0.35286453,66.51135
0.3212767,59.515556
0.35221425,62.453777
0.36935967,58.083668
0.29531357,62.47501
0.29132283,56.91517
0.33089447,59.028538
0.29854575,55.858196
0.284467,57.1979
0.18544284,51.88835
0.232468,56.552807
0.19596902,57.351734
0.0763426,56.98489
0.06335271,55.01628
0.043073725,55.096138
0.07631931,59.627136
-0.039461564,61.339558
0.09008022,63.842976
0.020458242,61.194374
0.057621866,67.17173
0.04167727,67.68028
0.17562124,69.067085
0.08158876,73.9339
0.21868244,76.07006
0.18484125,73.064995
0.44419926,79.25678
0.44554147,86.07541
0.5529081,84.92755
0.5365924,88.77476
0.6692215,90.6315
0.74726063,99.95972
0.92097926,99.99482
0.8877663,109.35776
0.98473555,105.20236
1.1093729,107.44876
1.1234397,112.9752
1.328035,115.96468
1.3646495,116.38691
1.3546271,121.644196
1.3961656,124.1705
1.4677085,126.44705
1.4462271,130.10129
1.5554998,135.05911
1.4726402,134.56776
1.5197026,136.50035
1.5909804,139.98187
1.5883424,143.85315
1.5674086,140.26448
1.6076441,143.05933
1.5681869,145.26123
1.5754027,139.17014
1.559526,141.13194
1.5386846,144.26787
1.523052,143.9402
1.4526069,143.84872
1.4743023,146.7554
1.4476599,143.41466
1.5074224,151.35112
1.458466,141.33437
1.3777331,146.13773
1.4703981,141.11522
1.3753974,142.59328
1.4761541,137.87125
1.4056197,135.40349
1.2931697,138.09843
1.3290291,130.6662
1.29607,131.8256
1.2605187,133.56404
1.2919762,126.518745
1.2456964,128.86165
1.316692,122.53621
1.2489581,120.968376
1.1948314,123.75155
1.2190241,118.617195
1.2009845,116.62019
1.1987619,117.72999
1.2163868,116.143486
1.222564,113.006424
1.1930025,112.715775
1.164512,110.132614
1.1988152,108.23794
1.1315917,102.21481
1.0819584,102.88388
1.0605948,99.64892
0.98051316,101.17172
1.0108284,93.53596
1.0509742,96.267876
0.9087772,94.61229
0.91765016,93.84826
0.9166867,90.79778
0.8082752,90.2688
0.84257054,84.48336
0.7873197,82.99182
0.72978526,82.29453
0.7127489,81.438095
0.6600418,75.21912
0.67923754,79.51593
0.7619491,74.51504
0.71681803,74.23277
0.78697324,72.16232
0.78468174,70.6961
0.7333557,66.43997
0.7351489,65.57104
0.73006624,65.27468
0.6499861,59.076035
0.67682165,59.979702
0.68703127,60.78506
0.77078193,63.472168
0.7034931,61.75427
0.6904923,61.728905
0.7307584,57.920967
0.69296426,58.669155
0.5981313,56.818855
0.64264953,55.604836
0.52017707,54.09315
0.55622244,52.818607
0.5102557,53.12676
0.41637748,55.97921
0.4302361,55.482437
0.43270436,54.31378
0.40961012,57.745525
0.43403348,67.10031
0.2946722,58.442753
0.41222647,67.81646
0.435209,64.629074
0.44266003,69.45365
0.5785536,67.76757
0.55979437,70.96763
0.55376184,76.04757
0.86871725,77.18405
0.89401215,80.52303
0.98173493,89.10235
0.9341924,89.96714
1.0934654,94.71106
1.0918686,96.478806
1.2698295,98.00775
1.3147804,101.60095
1.3564923,105.51921
1.4669373,110.98785
1.5070373,112.32642
1.5609148,114.17386
1.6186345,120.21227
1.6597235,121.80052
1.6933619,124.48911
1.7735987,128.58327
1.783494,127.00366
1.8286287,131.30069
1.8496318,137.36351
1.8293962,139.30724
2.0289757,140.74724
1.8687806,142.56976
1.9583296,138.47829
1.925279,141.53893
1.856435,138.19833
1.893091,143.5777
1.909608,145.99812
1.9218733,142.90561
1.8867166,145.07193
1.9059504,146.88763
1.8460397,145.37672
1.8568711,142.22224
1.8761497,141.22543
1.8512714,144.66655
1.7508458,141.25392
1.8067487,137.19121
1.7914287,139.0051
1.6650553,133.96773
1.6779653,138.18063
1.687451,136.27611
1.71661,135.65723
1.5544621,129.98338
1.6029497,129.89684
1.6292706,130.06546
1.528796,123.64795
1.4980515,130.18811
1.5093937,125.23693
1.5020968,123.96813
1.5033048,120.68066
1.513517,115.975334
1.3882965,117.06567
1.4783942,117.2757
1.4943856,113.367966
1.4332713,111.4715
1.4996296,107.155495
1.427404,104.02023
1.4424888,108.08271
1.338759,101.24887
1.3502654,108.93954
1.4036322,97.90122
1.2747247,97.32869
1.2699399,93.83459
1.2445364,93.6255
1.1611552,97.375015
1.0720636,91.10483
1.1586499,90.27831
1.1730155,88.176414
1.0743763,86.7989
1.0884162,81.01576
0.8787446,87.08593
1.0416777,80.99601
0.9444969,80.06221
0.96255815,75.62383
0.98053384,77.108795
0.98283255,70.64436
0.8885571,70.76371
1.0023003,66.65582
0.94227093,68.94146
0.9912161,67.91832
0.9271693,66.65618
0.9089284,62.134865
0.89678305,59.072357
0.92151105,58.883522
0.8761953,59.64031
0.8549589,52.072357
0.8020236,55.407307
0.80879915,55.290516
0.6397527,55.065983
0.8087401,56.794235
0.6777322,54.913765
0.7165635,53.694027
0.65826255,55.090717
0.60786515,55.752903
0.58941406,59.427116
0.6086953,59.320095
0.5090247,56.23901
0.5244187,64.29085
0.54034126,60.024776
0.57821476,64.66577
0.51758116,65.95773
0.6067517,69.4413
0.6321987,69.15438
0.69723874,76.53109
0.76792103,77.12822
0.7679517,77.387566
0.87963927,81.4236
0.9295125,89.18139
0.9771246,87.599304
1.101182,92.50878
1.2222747,91.05063
1.2863196,97.67657
1.2663584,99.616394
1.313491,101.594635
1.5493366,107.07413
1.5568277,112.282974
1.5817164,116.377686
1.6677985,116.785614
1.6981603,119.05667
1.8415791,128.04413
1.7981719,125.511314
1.8664596,131.35902
1.7691119,132.87807
1.8749837,136.89136
1.8118644,137.96465
1.8934611,135.37437
1.8613364,138.42719
1.8715504,140.85205
1.8178208,140.56944
1.8416259,143.73128
1.8677973,142.32196
1.8483934,144.85985
1.722748,140.43713
1.8400712,144.05554
1.7872733,145.3672
1.8130333,146.7322
1.755314,144.06804
1.7353846,140.14932
1.7704787,142.84209
1.7185171,142.7452
1.7080892,140.48654
1.6217473,141.88695
1.6201079,136.13138
1.6360943,135.94873
1.5877581,138.59209
1.4743112,135.50883
1.5503324,132.49416
1.470863,131.01674
1.5504797,128.98233
1.4394257,131.92285
1.325404,128.93834
1.3857797,119.668175
1.3543763,119.507164
1.3429035,119.39615
1.3584263,119.202835
1.3210192,111.94494
1.305779,119.86357
1.2750356,115.75128
1.2926499,106.77755
1.3014847,108.970345
1.2486824,111.13586
1.2925293,107.06837
1.1800368,103.156876
1.1307837,98.02481
1.1534656,100.46151
1.068509,105.06525
1.0673233,91.254616
1.0180515,98.354965
0.9876658,93.269485
0.94173014,90.00447
0.92423373,88.81254
0.8956645,86.29441
0.8754122,85.89531
0.83597827,86.65317
0.8450828,78.90897
0.76913494,78.70385
0.7863919,81.00363
0.7085614,82.63674
0.73140496,72.63002
0.56805474,72.719345
0.7110597,71.93758
0.7193677,72.21345
0.652164,66.76432
0.7576291,63.60602
0.60012496,62.237698
0.7077506,68.72592
0.65727186,58.512222
0.7180491,57.02098
0.5719461,57.47135
0.58208805,56.988777
0.5513871,58.27439
0.54487705,56.4241
0.5583695,54.883152
0.5338074,60.43653
0.40791312,57.30046
0.41884744,56.538788
0.44517034,55.705967
0.26783973,54.52865
0.33737049,58.224445
0.28891036,62.10788
0.2717451,56.439037
0.22596793,58.984753
0.25656202,61.041924
0.248281,59.934208
0.2264905,65.15823
0.2062869,69.29104
0.26722878,74.51753
0.3440059,74.096405
0.49351582,79.483665
0.35666656,74.58187
0.52557814,78.71863
0.63080794,81.76526
0.64401025,89.423904
0.7442987,90.26714
0.86079764,94.94565
0.8396961,96.29626
0.89743656,101.74204
1.0713277,104.05333
1.1763525,106.92077
1.2115684,115.64094
1.2676376,109.71564
1.2678671,115.717186
1.3379389,125.53595
1.411265,125.49177
1.4256059,125.400696
1.4110178,128.11899
1.4111,132.61232
1.4817106,131.1474
1.4909816,135.05638
1.5225366,139.11572
1.5798248,142.60355
1.501812,143.05833
1.5869907,140.021
1.5422403,141.74031
1.5647331,147.11919
1.5667377,145.69556
1.5284929,148.543
1.4527842,145.08911
1.4915476,144.13217
1.4695529,145.26532
1.37576,148.63011
1.3617386,142.08606
1.410794,144.40999
1.357985,145.13936
1.3023527,139.981
1.3449923,139.40588
1.2651638,135.2988
1.1769115,138.31747
1.1492918,136.34055
1.2282231,134.64435
1.1394452,129.89096
1.1747935,130.4058
1.1574674,129.88916
0.9845467,127.64261
1.0520468,124.20113
0.9742436,128.7469
0.926647,121.69828
0.9333444,121.79845
1.0187789,123.999214
0.9802881,123.796394
0.9536372,120.486626
0.9121756,111.95393
0.89560825,106.69744
0.9107317,103.77095
0.94514793,105.98519
0.9278412,105.37632
0.92457956,108.9122
0.8296084,103.62037
0.75264364,100.733894
0.8385135,94.06734
0.7592911,95.130165
0.6517115,89.08701
0.6743833,87.24113
0.65970045,88.39986
0.5535774,90.87296
0.54675025,88.610344
0.4728058,87.067245
0.530199,84.24462
0.40841943,82.56308
0.4375988,77.05378
0.39716727,79.41002
0.48102787,77.69785
0.38465896,74.22568
0.30452365,73.66505
0.2961132,68.24973
0.46373487,69.54857
0.45266008,64.58807
0.3358464,68.01726
0.40403503,63.878586
0.29899368,67.29368
0.29020467,63.946518
0.24535517,60.979206
0.35322696,55.888275
0.285257,61.06697
0.23086205,60.42283
0.25136057,57.38632
0.28292555,55.739998
0.2616808,55.649334
0.19666617,53.72263
0.1379023,55.799774
0.14264673,56.87927
0.091126665,57.962246
0.06067002,58.24565
-0.048251715,57.80509
0.025809765,62.719887
-0.11009428,59.374725
-0.025209334,60.85202
-0.07979207,65.19907
-0.051415645,62.543636
-0.041675467,69.11472
0.035165984,69.5148
0.1571241,68.235596
0.23365512,76.93048
0.26469654,78.93262
0.23648497,80.55939
0.3462563,86.52124
0.3957617,87.37943
0.4474457,91.43059
0.4828575,90.882164
0.64675194,100.9633
0.79723847,99.559044
0.8537689,104.22497
0.9243507,108.71011
1.0746154,113.149925
1.0188097,114.37556
1.0203651,117.35101
1.2050223,119.72668
1.1947838,122.56941
1.1884024,123.550476
1.2645518,127.701836
1.3190613,133.64941
1.3603153,136.73744
1.3002213,135.66985
1.3035324,141.87856
1.3743688,135.77129
1.3481882,142.43225
1.3208933,141.36092
1.4537084,144.58554
1.3565017,144.94505
1.3406631,146.12024
1.4227396,140.9547
1.387209,143.40178
1.3597816,147.90262
1.3312309,144.14558
1.2900256,144.05391
1.3070049,143.3039
1.271454,144.06328
1.3082757,141.78159
1.2168837,139.73442
1.1589993,142.23613
1.1549273,137.18019
1.1956742,136.43143
1.0958818,131.793
1.1399516,131.95117
1.0594269,134.6388
1.083725,134.49355
1.0601013,132.95602
1.0243983,125.67037
1.0524595,129.79555
0.9933983,125.587875
0.99315274,123.38731
0.9553797,121.38694
0.92125845,122.07634
0.9435698,117.41658
0.9211946,115.259865
0.8964972,109.15062
0.88254136,109.54177
0.8321842,108.128845
0.92100096,105.1582
0.86032546,106.88177
0.81743616,108.151535
0.81795704,101.992165
0.7552537,100.52242
0.7987371,99.035446
0.78070444,97.11182
0.7477439,95.83404
0.70862913,98.0992
0.66918784,89.05199
0.6365623,91.476166
0.5953997,88.122185
0.6067357,88.26078
0.5298489,81.6257
0.5055568,85.17816
0.45054665,82.55649
0.44639787,77.739265
0.42155,78.3556
0.4376641,75.226456
0.4609336,72.32982
0.51270694,69.76715
0.41876525,69.094765
0.5116966,65.040535
0.4432784,63.428486
0.43903422,62.271862
0.41667658,64.16986
0.4976712,62.63084
0.42288616,60.545227
0.3329585,56.97106
0.4719183,57.601513
0.38598925,56.449734
0.43320405,52.776405
0.2526554,53.055138
0.3119645,53.677002
0.2554182,52.66543
0.23664014,60.040123
0.24835487,59.964462
0.13288584,60.06747
0.13406028,57.64593
0.19391464,59.28692
0.1742983,61.352386
0.12639016,56.33988
0.12750764,62.398533
0.07721048,64.40594
0.0770179,64.63852
0.17177641,67.68069
0.22248927,74.46747
0.2705607,75.27676
0.36248627,73.21186
0.40870267,75.90764
0.5275044,76.660484
0.49282977,84.390396
0.58246547,86.05003
0.7641083,92.24454
0.7678082,95.443115
0.8034406,95.59071
0.9644336,98.154366
1.0249218,105.516945
1.0865246,109.15451
1.1293498,105.060265
1.2618326,113.21407
1.3977423,116.53664
1.4407384,118.29364
1.4272549,118.43926
1.510929,125.70775
1.4738896,128.72137
1.5685304,131.25684
1.4361408,130.6486
1.554434,131.1839
1.5947014,137.07344
1.647853,139.23987
1.7077152,136.1229
1.591083,141.711
1.7429132,143.93266
1.6316408,144.54813
1.7423587,147.85039
1.7230731,142.94322
1.6913579,143.65314
1.643749,144.59566
1.6477346,151.27576
1.6850642,143.95776
1.5802428,145.72784
1.5025438,142.88618
1.5750314,142.28857
1.5074527,143.00294
1.5100465,141.6307
1.4774896,137.59575
1.4732466,138.27428
1.4422543,137.83408
1.4278362,135.09096
1.3812947,131.78664
1.3610129,133.30205
1.3782314,130.54947
1.3669336,129.59212
1.2908685,125.092384
1.3985986,128.05566
1.3441308,124.44982
1.3469113,121.23351
1.2920924,119.061935
1.2131577,120.23949
1.3008316,114.79673
1.1955119,113.93408
1.243578,110.2563
1.2128905,105.74621
1.2145598,110.48524
1.2636673,106.84897
1.2748687,103.10115
1.2215655,101.91894
1.1114798,100.5302
1.212092,102.99666
1.2273431,95.46562
1.0697398,95.65021
1.0274713,93.522705
1.0730699,91.647
0.94086146,90.71279
1.0050702,90.467224
0.9181535,87.02531
0.9407471,80.21301
0.8768098,83.37919
0.8850906,79.128654
0.75121164,81.707664
0.7011725,77.102745
0.8431049,74.65201
0.8820047,73.12043
0.8489214,68.31355
0.8235761,66.99832
0.788972,65.596306
0.72253853,68.03637
0.77830267,60.162937
0.7554252,65.4002
0.82333463,61.800785
0.75414294,60.36693
0.7927967,61.53797
0.81224024,57.28697
0.8287099,58.487656
0.71691436,55.16387
0.6808782,54.948513
0.6635882,53.7946
0.5931593,53.07208
0.60130215,55.608753
0.6021879,53.635036
0.62679935,57.57783
0.49219695,56.806675
0.54839975,54.994488
0.46558642,56.587273
0.47894743,56.636105
0.49963966,57.815872
0.5074233,61.436028
0.55446243,67.49
0.57558614,70.11665
0.65737677,65.23585
0.6011125,71.198906
0.6872323,74.82912
0.66495734,73.13269
0.72678643,83.783585
0.889016,87.71021
0.9312127,83.907166
1.0525624,89.55468
1.1348451,93.06088
1.205397,96.09351
1.2766541,99.71511
1.3489668,99.24848
1.4557756,104.00868
1.5858186,112.19241
1.5527627,114.36032
1.5667762,118.66662
1.6225077,118.157684
1.7749858,121.57739
1.7650421,123.43876
1.8686684,125.87001
1.8514013,126.89975
1.9071261,133.18745
1.910262,135.28883
1.9679563,135.7602
1.9199693,137.63951
1.898567,136.38971
1.9133061,141.91199
2.0057406,143.7604
1.9136664,139.10463
1.9457586,141.783
1.8583028,144.24748
1.9206136,146.5317
1.8348908,146.58592
1.9611055,141.9916
1.997415,143.2131
1.8054862,143.7719
1.8018137,142.82587
1.8781741,144.4191
1.7436879,141.88492
1.7294768,139.2329
1.6356965,140.30612
1.6674033,139.69609
1.6896836,135.62006
1.7119794,135.26054
1.6650928,131.97426
1.6262085,135.85759
1.6074291,131.81366
1.5050853,128.17215
1.5579146,126.95398
1.611517,126.424225
1.5537571,120.05941
1.6212258,121.18111
1.4734495,121.09124
1.4906839,118.52588
1.4961203,115.5898
1.5113649,118.21947
1.4144064,112.7703
1.468261,110.469505
1.4885831,107.94932
1.4609368,106.61194
1.4625593,107.5907
1.3613262,103.41013
1.4317023,99.88602
1.2519485,102.20492
1.2874966,99.09782
1.2346907,92.90177
1.2354611,91.0921
1.164939,92.460144
1.1552075,91.99203
1.1533129,91.50809
1.0816994,86.79406
0.9920924,85.62653
0.98592645,87.24426
0.9846202,77.19496
0.9450084,78.32135
0.99162847,80.257774
0.93283224,77.11277
0.8789594,71.52861
1.0102917,69.73796
0.95911,67.79354
0.88503027,69.854645
0.8571413,67.945946
0.9234278,65.39125
0.926284,65.820854
0.9405825,61.058376
0.86260206,60.991676
0.9143222,60.941483
0.8788805,62.396145
0.77339935,60.400677
0.8074893,55.347603
0.8023207,55.507854
0.8269396,57.934143
0.70272624,55.44013
0.6458874,54.29395
0.63923454,56.6753
0.57551736,54.663082
0.5224606,52.4313
0.5156831,58.981674
0.58088726,61.52994
0.46759868,64.15788
0.52146727,60.95279
0.4438116,60.215282
0.51863176,65.56661
0.5092081,65.268234
0.54162806,65.51705
0.5683068,72.69494
0.549659,78.863304
0.7307427,76.63018
0.76672506,75.329834
0.86155,84.18963
0.8578229,84.729546
0.9511244,93.687096
1.0869422,96.06079
1.0999415,98.54141
1.2071403,102.44242
1.2683183,105.1248
1.3744832,105.82037
1.4879066,110.0393
1.5681579,109.87834
1.5267129,114.182304
1.5780605,115.30532
1.6946107,125.59589
1.7321185,126.5935
1.7548999,128.41011
1.7577387,130.60384
1.7468417,129.88937
1.7300577,134.57103
1.7719617,130.92236
1.8340333,138.57628
1.8532321,134.68777
1.8203104,141.78401
1.7830881,142.78377
1.8657904,144.01898
1.8836577,143.90872
1.7881596,145.5592
1.7693869,146.19888
1.7667052,146.57327
1.7352625,149.3301
1.8091161,142.48064
1.8098035,146.53142
1.7497724,145.40852
1.7108601,138.93477
1.6151294,140.76434
1.710366,137.43985
1.5642248,138.7688
1.512758,140.0526
1.4977312,139.7018
1.5053638,137.24744
1.447813,132.3129
1.4828241,131.7052
1.3439949,130.03996
1.4129078,128.30922
1.3687434,127.43182
1.2783971,125.94185
1.3094809,123.97703
1.3248761,125.227875
1.3482137,122.56073
1.3664771,118.7283
1.2158241,114.44565
1.1485327,118.99011
1.275121,118.125534
1.2842889,109.86494
1.2823062,104.92141
1.2482518,109.21872
1.2153063,104.87011
1.1610247,107.02107
1.0731672,102.35942
1.081188,101.996414
0.9239028,99.787315
0.99065596,99.40745
0.9755679,99.87534
0.8797313,95.74327
0.91471785,92.65568
0.8643196,91.18202
0.7785817,84.60845
0.7709023,81.36604
0.72235703,81.74689
0.6853184,82.853966
0.6578849,72.48756
0.6451539,81.123024
0.59014356,78.90172
0.63354987,70.19689
0.6426309,70.67549
0.64558864,72.40438
0.6601187,71.99497
0.58562994,68.9643
0.5882395,67.71818
0.5683644,64.72024
0.61798966,63.10464
0.5529808,60.779736
0.5421296,57.09945
0.4682214,61.66865
0.529798,57.438667
0.57674974,56.597797
0.46396372,52.72736
0.4094893,58.22471
0.39448792,56.023476
0.39244115,53.03945
0.30612165,57.844482
0.2542522,53.37785
0.21876302,54.768303
0.25530887,56.763893
0.124430805,59.87458
0.12410196,58.02877
0.20365098,63.279438
0.124848254,63.602943
0.2812254,66.56218
0.14092876,68.984566
0.16745459,71.378716
0.29494345,73.843445
0.21991447,73.21932
0.36321104,76.78716
0.34018323,79.25524
0.4604692,78.25261
0.5782533,83.41689
0.64275223,95.0438
0.76835775,90.723526
0.769599,93.96773
0.89219946,101.01881
0.95373315,101.46349
1.0851022,102.85778
1.0621874,110.06365
1.114776,110.09178
1.2852737,118.110855
1.2304113,118.02029
1.2447785,126.2306
1.2875639,123.028046
1.3613647,129.53786
1.2849988,127.898224
1.3614829,134.22943
1.4661511,131.74551
1.4314141,134.58421
1.4254756,138.48824
1.4257168,139.43518
1.3592038,143.27591
1.4481757,139.94234
1.4472644,143.80417
1.6039543,146.74971
1.5497472,142.3761
1.4160473,145.52203
1.4334979,145.62886
1.455804,150.0324
1.3145959,147.03899
1.4082012,145.75842
1.4262837,140.46625
1.2847142,143.48232
1.2967482,148.36052
1.2168832,138.98495
1.1925775,141.57166
1.1751531,136.69821
1.2496328,137.1086
1.192557,138.17813
1.0534141,135.59033
1.1110181,129.0616
0.96194756,132.91156
1.0722687,130.50322
0.9782544,131.23984
0.9755559,126.1729
1.0563865,122.46562
0.96181047,122.32077
0.99345285,120.70211
0.9416211,119.58999
0.92585516,115.933365
1.0167112,111.853325
0.92091125,114.06246
0.8800317,108.51466
0.96384114,109.2452
0.9333621,110.03078
0.82536596,100.943375
0.8529589,105.01608
0.7841546,101.19333
0.69765943,99.30007
0.8153545,98.22554
0.67636824,99.96072
0.62878543,97.34237
0.65224355,92.15732
0.6249597,90.11525
0.6044633,90.78836
0.5321233,86.04576
0.34401435,88.00826
0.4243946,83.584694
0.36404297,80.69177
0.4532047,81.247116
0.3682581,77.31112
0.3961015,74.529236
0.36244747,75.378456
0.374811,73.17259
0.28277582,67.45181
0.2980656,66.916626
0.41377926,69.23819
0.28751618,64.95113
0.40189147,71.05912
0.291723,66.02902
0.27071995,62.685833
0.3228762,62.244553
0.3380421,61.86478
0.31822604,59.545
0.3008713,59.18673
0.27236983,53.702606
0.16192976,53.68196
0.15835623,59.96809
0.14367862,54.87409
0.07474624,53.97691
-0.026915478,57.10719
0.06166163,57.000534
-0.002712964,60.822342
0.02804023,56.61367
-0.12565713,59.369434
-0.010291341,63.451694
-0.046881292,64.7696
-0.039508328,66.469
0.0149947135,62.968655
0.10914552,70.773155
0.052338183,70.39659
0.15894333,74.947815
0.13846959,75.757355
0.18763758,75.141136
0.2494265,79.86838
0.38609156,82.21561
0.50113326,86.42151
0.5020629,92.818115
0.61356944,91.39573
0.77674395,95.93448
0.7595724,99.75118
0.92860603,102.042984
0.86582655,110.33555
1.0194827,114.13106
1.0436901,115.16686
1.1358488,117.93824
1.182333,121.348785
1.3157455,127.65922
1.1646315,128.43698
1.2679946,132.0357
1.2930628,130.47803
1.3392886,131.24907
1.3156817,140.91081
1.354698,137.94302
1.3617452,137.46634
1.3663536,145.21278
1.3826995,138.51791
1.3723024,143.01337
1.5389414,143.83237
1.3659337,144.3967
1.323713,144.05351
1.3929596,143.49915
1.4670974,144.94655
1.4157693,145.20547
1.3597046,145.65038
1.2566078,144.33153
1.3197566,140.2829
1.2750877,144.05399
1.2232096,146.69237
1.2105533,143.40453
1.1305515,140.12532
1.1970214,140.46204
1.0978957,138.09442
1.1670326,133.75827
1.0971494,134.9677
1.1689211,129.34195
1.1164774,129.93185
1.0636443,129.96269
1.083936,131.15172
1.0429883,128.591
0.91689533,125.339584
1.0579629,123.521255
0.9468682,119.3807
0.9916063,117.29565
0.9980155,117.917465
1.0423541,112.94956
0.9790586,111.21775
0.92634946,108.87102
0.9407109,105.38545
0.96162546,106.742065
0.94316834,99.346886
0.8779323,103.70155
0.8123412,103.89891
0.8166193,98.80667
0.8345861,102.05607
0.7413588,95.955925
0.83957905,94.0092
0.6549404,90.139046
0.7939001,90.341324
0.60707295,90.90342
0.68512475,84.32038
0.5257884,81.548775
0.5311807,83.644
0.46989202,82.29124
0.56800866,82.476776
0.461268,77.24061
0.4859044,78.399185
0.4819193,73.987946
0.49717575,69.40448
0.4147807,68.68534
0.4733651,72.024895
0.46840817,63.2062
0.48665485,59.90122
0.55116946,61.945976
0.43932,60.237953
0.58463234,65.35866
0.5280225,56.85526
0.37633672,58.399643
0.3550579,57.131027
0.5070189,57.36825
0.4281317,54.323917
0.47313276,58.670456
0.39179212,53.546017
0.32690132,53.94476
0.23103859,55.740376
0.22636193,56.298237
0.3172748,57.451855
0.19896105,58.124573
0.10241928,56.46142
0.14547467,58.54762
0.17981969,64.03579
0.1934418,67.39637
0.32091418,63.857483
0.29952475,65.66439
0.20838973,68.81963
0.4501063,76.953964
0.43706295,75.48593
0.46327862,77.86291
0.5480094,83.53662
0.5558222,84.68447
0.7382276,86.46534
0.73841757,88.32691
0.91676384,97.44142
0.9445722,97.924706
1.0900326,98.54662
1.108075,103.76851
1.1417705,108.03353
1.2988507,110.110214
1.3067181,119.11094
1.4051691,113.8034
1.3483393,122.41088
1.488368,121.13116
1.61117,127.166145
1.5741428,130.2082
1.5856293,127.57772
1.6531005,136.83595
1.6587042,134.56569
1.7093118,137.14273
1.7008995,138.76962
1.7739271,139.42107
1.7913563,143.9978
1.7663312,142.62534
1.8693208,143.75206
1.7351099,142.80537
1.7239643,138.13536
1.6378427,147.01076
1.6638949,147.10657
1.6901351,142.62279
1.6468104,144.15273
1.6914544,144.77585
1.6537489,138.65343
1.5376953,145.11176
1.6529578,141.90115
1.6314666,144.79253
1.5540394,140.95811
1.5009497,135.33556
1.4157622,134.9014
1.5121313,135.97502
1.5103413,133.22887
1.353695,131.40498
1.3831226,134.73666
1.3738024,130.87688
1.4090266,123.32899
1.3688322,124.04356
1.375037,121.5597
1.3902714,122.378395
1.2966783,116.12214
1.3599309,117.02205
1.3915645,114.59838
1.335495,116.177124
1.2962096,110.23952
1.3759339,110.3015
1.3166196,107.35492
1.2852355,107.62158
1.3229845,103.207825
1.3041388,106.00972
1.2063518,101.66194
1.201998,98.663925
1.191889,97.93716
1.1842269,94.27142
1.0551066,92.241585
1.1442515,93.915184
1.0552739,91.8402
0.9735558,88.60798
1.0249021,86.53469
1.0103939,83.7994
0.85434103,80.20015
0.9464921,79.633484
0.9052018,75.20432
0.8750285,79.578384
0.8684411,72.07126
0.8890091,74.03337
0.82148635,72.21628
0.97849625,70.83885
0.8623931,67.44889
0.87838805,68.80693
0.8827011,64.607506
0.88773453,64.11396
0.7633389,63.171085
0.841911,58.876987
0.8367429,58.638725
0.8388182,59.626896
0.8180116,60.908028
0.81032497,59.3875
0.7263274,54.97737
0.67920625,55.972157
0.65379524,50.829414
0.66769224,54.49617
0.6581646,56.50257
0.61740494,53.88243
0.5762302,55.11136
0.59612846,54.55269
0.5227157,61.64476
0.52929455,66.3137
0.5315292,58.651066
0.45716932,65.49712
0.5702868,62.574024
0.58182085,66.09922
0.56359756,70.30635
0.634896,72.63371
0.7214298,78.05152
0.7601329,79.77279
0.8517904,81.148384
0.98802376,84.86839
1.0103077,84.486145
1.1264683,89.41879
1.1386843,89.134315
1.2163334,101.105316
1.3785765,95.60205
1.4403143,106.44932
1.4202292,105.43884
1.5688038,107.061714
1.6109583,110.57396
1.684589,117.100494
1.6127541,118.10027
1.7548043,121.03207
1.8831159,127.902596
1.874563,130.98373
1.9323251,132.57184
1.8966177,135.70331
1.9703797,136.50412
1.9464484,136.63669
1.9700139,138.39114
1.9578857,140.23726
1.9337374,141.75905
1.9747417,139.25642
1.9233352,145.21236
2.0311413,146.31367
1.8925942,143.95117
1.9382218,145.13899
1.9261445,142.42273
1.8895646,145.53731
1.8505741,144.2008
1.8801848,147.4866
1.8182937,144.46246
1.8619477,142.19412
1.7968055,138.44781
1.7943286,143.60547
1.7749016,139.71944
1.6654525,140.62573
1.6692812,137.28705
1.6553673,135.48409
1.7493749,137.8406
1.6655778,133.66006
1.5706699,129.44815
1.5139707,126.45642
1.6455536,123.67852
1.4836509,125.41319
1.530512,121.69681
1.4471686,122.754845
1.6028928,121.07939
1.5924388,117.637375
1.5199337,117.11492
1.5093868,111.89617
1.4856794,107.3947
1.4714184,114.61213
1.3749207,108.10141
1.4525943,102.77467
1.4254498,103.51622
1.3309832,101.24423
1.3414574,102.444305
1.3631564,98.24128
1.2745404,95.861465
1.2266005,95.101715
1.1995828,91.75943
1.1206164,92.05008
1.1383836,89.13412
1.0817834,88.22092
1.0520906,85.621056
0.95197797,85.16996
1.0638105,82.017746
0.93025905,77.671906
0.9968026,79.07794
0.92614126,78.04109
0.91573024,76.824715
0.9468385,75.22707
0.9043703,68.19526
0.8763553,67.90208
0.86704737,69.025856
0.9356497,63.837555
0.91945076,65.3607
0.8851449,63.497574
0.82843775,59.143715
0.8355156,60.279945
0.8602049,62.336098
0.8257317,59.895073
0.815284,58.20723
0.71809316,56.84041
0.726063,57.57403
0.6778701,59.28661
0.6151842,54.625614
0.6111126,56.104744
0.6310832,59.44678
0.52589375,58.657387
0.6315313,55.36394
0.48016748,59.73691
0.48277938,59.31957
0.46825057,56.436367
0.46584827,60.218094
0.38515317,64.83478
0.43731764,64.590805
0.41770062,69.98238
0.49039635,68.877556
0.60480887,68.03073
0.6347147,76.851265
0.7535459,76.29486
0.7556595,77.65618
0.8501888,82.07035
0.9237927,86.32054
0.97451013,90.13191
1.0681312,96.25237
1.08642,94.47627
1.2006497,99.282135
1.1765673,102.10932
1.2664785,107.66414
1.4189814,108.09707
1.4909112,119.732025
1.4443322,118.31873
1.5135252,120.190056
1.5181231,123.65751
1.6373564,124.88151
1.6650666,122.50818
1.6610813,130.20638
1.692964,132.1003
1.8178283,131.19472
1.8170786,139.75465
1.7099646,138.55476
1.8633375,140.7781
1.6897773,139.76907
1.843976,142.43587
1.7284551,142.74545
1.6616533,140.58244
1.6840606,151.64395
1.687054,145.13715
1.6007143,141.6608
1.742666,144.02745
1.632352,151.42847
1.5984423,144.87828
1.6187841,147.34816
1.6531984,143.30516
1.5580535,142.47179
1.5425649,141.6211
1.5421686,139.61716
1.4891608,137.15749
1.4065309,139.84029
1.4047416,130.50084
1.3889102,138.4524
1.279495,135.90619
1.3373866,133.12704
1.2830042,127.51009
1.2167532,122.55977
1.2081356,126.20449
1.2573961,126.705666
1.2458078,121.54267
1.251434,121.760956
1.219548,118.51809
1.2085463,112.35986
1.2513388,112.73381
1.1653854,114.39031
1.1304177,110.05238
1.0864633,110.01811
1.1251066,108.66541
1.0902457,104.48231
1.1884686,106.066536
1.0110623,104.57583
0.88346714,100.41339
0.8913208,100.54034
0.9732151,96.27055
0.8310844,95.310585
0.8374786,89.766624
0.74523216,88.05927
0.80562454,88.99438
0.7027302,86.24751
0.686168,84.118904
0.58623904,86.44585
0.68641716,83.9792
0.69422024,80.29732
0.6243572,77.30849
0.60630023,77.76915
0.5633838,73.09574
0.5276952,72.44567
0.50561106,67.846016
0.4683309,67.780464
0.63734055,65.69249
0.61117274,66.84986
0.44684276,65.01031
0.50885284,64.694
0.51717895,60.329582
0.5076407,60.780407
0.5307166,57.10376
0.44994316,56.823494
0.3901167,56.280422
0.42067513,54.160896
0.330794,56.650757
0.33414263,57.022484
0.26910096,58.908928
0.2804431,57.796974
0.17010483,60.170155
0.18300873,60.419716
0.12255924,59.271183
0.1724747,61.017113
0.101364136,60.56906
0.05955275,60.252975
0.10924777,65.53238
0.14103101,64.76937
0.05906398,69.47959
0.065366335,63.73874
0.18997742,70.94814
0.29171008,71.48245
0.24479027,74.91821
0.4277339,81.23608
0.35240203,84.86195
0.48506558,86.18499
0.6153638,91.57049
0.6236414,90.852196
0.6965799,95.68452
0.808222,101.28693
0.90699303,103.78627
0.91921586,103.76693
1.023146,112.7793
1.0439234,113.68281
1.0789874,115.455864
1.1924356,115.76764
1.2596079,124.095695
1.2558215,124.98032
1.3450549,120.258156
1.4081869,131.57515
1.4233174,133.92973
1.3773217,131.07707
1.3767639,135.80598
1.3453835,139.81654
1.4372685,138.27455
1.48005,143.58078
1.3810978,141.36655
1.4435467,145.28444
1.450124,143.93686
1.4342035,143.73332
1.3230863,146.74147
1.3875767,140.7762
1.4033264,145.47516
1.3183967,146.06049
1.3439244,145.68616
1.2990059,142.51103
1.301815,143.20993
1.2363061,139.16655
1.2263777,140.4399
1.1698734,141.18898
1.1579539,139.94205
1.1115406,140.95326
1.0495137,138.43202
1.0920976,137.8241
0.9661229,135.0759
0.93677783,130.67134
1.0211788,127.95572
0.9983635,127.79291
0.97416514,127.54826
0.97530144,121.60791
0.9379608,124.21793
0.9327561,117.63705
0.8380923,118.06411
0.87685955,113.95974
0.86637425,111.75056
0.9545211,112.146095
0.77223206,114.07716
0.961657,111.120834
0.84535533,109.7686
0.81916285,105.76908
0.7678285,104.31551
0.66991436,106.05846
0.69629586,97.78074
0.73192036,97.12792
0.5838863,95.99566
0.7560009,95.69885
0.6140838,89.92041
0.5326739,90.927895
0.48605353,86.209
0.47480202,84.93481
0.43972555,85.168625
0.43795133,80.94294
0.3959487,81.604095
0.369235,82.98827
0.291338,81.4688
0.35327408,73.582
0.30239183,73.42447
0.33432788,75.13643
0.30688658,71.49483
0.3657514,71.15586
0.37890944,68.40774
0.28333622,66.5206
0.28791362,64.07503
0.2779349,61.463318
0.42089418,66.26708
0.30740938,60.42679
0.3126811,61.196095
0.3396498,60.8337
0.26198265,53.709084
0.2646292,57.406376
0.15818827,53.331543
0.1354138,56.422726
0.11992385,53.130177
0.15945007,56.862103
0.09611795,55.799507
0.0524911,59.430294
0.08103513,57.71524
-0.045610685,53.972363
0.0182531,57.002777
-0.10667798,62.67502
-0.015412231,59.941353
0.016610865,64.910194
-0.09976452,64.419495
0.077278316,65.050995
0.09993312,65.67499
0.21461558,70.690544
0.10067108,78.13865
0.18008462,77.29332
0.38275108,80.27461
0.44705036,84.45069
0.45865935,84.36651
0.61314315,94.71467
0.65418684,98.08431
0.6503311,100.31784
0.8766579,101.161674
0.90511,107.07858
0.87693965,109.38552
1.0840986,107.45598
1.0160773,115.259125
1.1286384,114.4118
1.1966963,123.197495
1.2351781,127.99383
1.3900293,124.2501
1.2367992,127.74472
1.279564,131.34566
1.3469949,132.71814
1.4182136,135.5766
1.4959172,137.90714
1.4072725,140.98941
1.3510917,142.82358
1.4794626,145.85065
1.4041319,142.81258
1.449332,141.11584
1.3869039,147.64232
1.4747293,146.51166
1.4349743,143.14053
1.4495498,146.1147
1.3849815,145.6633
1.3492174,146.27193
1.4606115,142.54219
1.2813929,139.69974
1.3512645,142.65941
1.2652297,139.81389
1.2509758,137.63771
1.2573376,143.55519
1.1875695,136.70876
1.1587636,130.4352
1.2651204,135.0917
1.1853603,134.25197
1.1089458,132.0433
1.1407542,127.529205
1.0891085,131.32883
1.1754158,122.53367
1.1229379,126.28167
1.1099955,121.1823
1.0768945,117.4693
0.9891434,114.49825
1.0696158,119.37584
1.106728,115.559204
1.0277667,113.16466
1.0547374,114.8172
1.0258914,111.71565
0.9474145,107.39224
0.985345,102.07943
0.96961635,107.34009
0.9909065,102.64103
0.95488137,97.70584
0.916028,102.282166
0.85565835,95.865265
0.84095764,91.56371
0.7699944,90.855316
0.74584067,87.509865
0.71594816,89.55126
0.7234753,84.85188
0.61792445,84.56976
0.63241935,84.64795
0.620479,81.91806
0.58108455,79.082245
0.6230982,77.09592
0.5153439,71.14222
0.5903632,73.59416
0.67175066,75.22178
0.58609515,72.229164
0.5868741,67.52446
0.6114768,67.1316
0.60534245,65.973
0.6309889,68.5768
0.4747226,63.679005
0.60325396,65.70628
0.5175559,60.609283
0.46648887,60.96126
0.49270502,56.092052
0.53960127,55.418835
0.46659353,59.400894
0.4694242,56.566875
0.43562302,58.197838
0.4254864,58.35061
0.3720505,54.595142
0.3554102,56.353416
0.34016228,59.06937
0.4014846,55.89667
0.27897862,62.942055
0.35009202,60.896435
0.2088699,61.10929
0.24766617,66.087715
0.26794413,65.45161
0.2192782,64.520195
0.18898498,65.65237
0.3143903,69.355316
0.48667985,75.041245
0.4397554,74.054245
0.54813826,81.35288
0.7005367,81.05927
0.78901386,86.433754
0.84308755,85.551125
0.88970685,93.2078
0.9839049,95.035515
1.04943,97.69524
1.1773083,104.52579
1.1548,106.29692
1.290054,109.254005
1.3853537,118.525635
1.418092,114.08773
1.4815848,118.73412
1.6271663,118.84135
1.543154,121.41894
1.6880263,126.43644
1.6647085,130.42639
1.7652537,135.26659
1.7821048,132.27835
1.7525084,131.68039
1.8435824,136.44652
1.8003407,138.83455
1.7783121,138.18025
1.7221471,137.96326
1.8708779,143.0809
1.8223318,145.11447
1.7344308,140.10123
1.7330629,150.43526
1.7753531,145.58174
1.8068556,146.14993
1.790738,143.4507
1.8246479,147.78416
1.7218083,144.20581
1.6970732,143.60323
1.696698,140.80238
1.6805547,139.19
1.7354445,137.82387
1.64551,134.25275
1.615586,137.66203
1.575914,135.23903
1.5390232,133.63637
1.6051389,127.12843
1.4806277,130.01753
1.4629314,133.42111
1.5185912,129.16455
1.4103338,123.65947
1.4648712,122.852165
1.430905,122.903404
1.4176879,118.618095
1.3549169,118.67579
1.4877071,117.76678
1.4102066,118.685265
1.4533079,113.768776
1.3730935,110.164764
1.3807726,109.197
1.4105097,105.51665
1.3971639,110.62184
1.3076481,105.42839
1.3224149,102.53832
1.2642157,101.24197
1.2584087,101.14438
1.2458016,100.442024
1.1437628,91.134094
1.1101804,96.01056
1.108614,90.18264
1.062555,88.07843
1.071755,88.89394
0.9164015,82.52954
0.9813717,86.08238
0.9710058,81.060394
0.9007494,81.206665
0.9270997,75.3633
0.8977307,81.30656
0.9360659,79.58688
0.912604,72.13266
0.90666187,67.38021
0.8590351,69.80077
0.8861963,68.27377
0.8655872,65.999054
0.90674406,67.24495
0.90264213,61.68889
0.8582478,62.79913
0.8480232,59.933075
0.8879806,57.46152
0.8549259,57.40804
0.7969005,59.469475
0.73249793,56.858574
0.7476961,61.36708
0.7608505,59.18132
0.69653857,51.366604
0.6201126,55.960842
0.6242072,54.72039
0.73682463,56.007137
0.60034496,57.24487
0.6482778,55.2289
0.5528065,59.335804
0.5167648,61.228355
0.5347662,64.237144
0.6002017,61.948196
0.630295,68.01613
0.6232594,64.396545
0.6365185,69.66804
0.6920266,68.88957
0.73734975,75.34848
0.8460425,79.15579
0.8460392,84.945595
0.92461234,88.15661
1.1270244,89.866234
1.024341,86.601395
1.1661923,94.85679
1.2518133,99.00155
1.3678377,97.183266
1.4174259,106.92458
1.444712,106.91597
1.5508509,107.625114
1.6555002,113.98244
1.7101319,119.126945
1.7593625,117.252556
1.7729095,123.02278
1.7685468,125.23709
1.7499082,132.30405
1.9082892,132.2091
1.9797457,134.84464
1.88182,137.64008
2.0074046,136.41501
2.0811422,141.90405
1.8961854,142.00073
1.8642848,146.52081
2.0781524,142.11723
1.9506595,140.7892
1.9387746,143.86488
2.0815852,145.91653
1.9128163,146.83331
1.9373933,142.07065
1.9906838,140.88835
1.9095625,146.8075
1.8825094,147.68367
1.8779954,149.65724
1.7091233,148.6745
1.8210806,138.1554
1.6897058,140.12326
1.7049443,145.3753
1.6848263,139.7479
1.7409724,137.57971
1.6146114,140.49164
1.5759243,135.97762
1.609352,129.0395
1.6811575,130.58759
1.6283891,128.88687
1.4489603,129.91678
1.547812,124.50873
1.4381351,123.75121
1.4902787,123.778
1.4965863,116.79906
1.4436564,116.92926
1.4584556,113.839
1.4424025,112.37411
1.3800939,112.658775
1.4389479,112.83183
1.3505462,106.56853
1.3639966,104.684525
1.3224353,102.00137
1.3061616,104.2031
1.3050933,100.16877
1.2089609,98.68558
1.1489774,93.20002
1.1563674,93.26391
1.104845,97.49257
1.1013153,88.77273
1.0752741,93.48697
1.0160378,88.198555
0.9709958,86.25622
1.0550585,83.47533
0.91686743,82.4483
0.8933611,78.37409
0.84168285,80.067154
0.8912768,77.0854
0.8261231,74.39682
0.78949946,72.09939
0.8233125,73.666214
0.7495685,71.07866
0.74702847,68.05355
0.77986014,65.176216
0.8856923,64.33698
0.8784888,63.582268
0.76075643,61.858143
0.7949107,65.541916
0.7509003,61.780148
0.6689058,57.08748
0.70939016,54.606358
0.75253713,58.37048
0.65949583,58.29276
0.6152342,55.440533
0.5425551,57.23883
0.42802835,58.487846
0.5246921,56.558052
0.51162183,55.494476
0.44136867,59.370205
0.4007761,57.668945
0.3792873,58.563763
0.37377304,56.559765
0.42671987,62.609818
0.36472693,58.367783
0.42863724,66.19476
0.32669377,70.152214
0.42180383,68.59292
0.44768023,68.97798
0.5069945,78.57847
0.52886105,74.90264
0.7600847,83.70172
0.7415257,83.28356
0.8713714,81.61918
0.93435115,90.49004
1.018233,90.943474
0.9591216,96.02513
1.039143,99.73179
1.1997433,103.779305
1.1641917,104.47593
1.3076159,109.42678
1.3613158,113.47294
1.4010102,115.69267
1.478235,121.17622
1.4898552,122.35344
1.571484,126.97078
1.6373556,127.461914
1.5642706,128.07751
1.62758,134.13647
1.6701549,133.9361
1.6505986,135.77206
1.6642467,141.3958
1.6352655,138.27177
1.6691294,140.40044
1.7090023,144.6809
1.7498051,141.23865
1.6644577,146.38614
1.6512493,142.4505
1.633125,143.43312
1.6496972,142.52533
1.5811973,143.5766
1.6226363,148.29343
1.580497,146.8254
1.5151888,147.38129
1.52653,144.54422
1.4161953,140.39534
1.4307795,140.19852
1.3797395,140.38492
1.4235284,138.74902
1.3782297,137.05554
1.3493569,131.53835
1.231108,136.97699
1.3894783,133.21309
1.1643598,127.28513
1.1595908,125.45432
1.1663722,127.819305
1.1642076,126.418015
1.1914749,119.88828
1.1162988,123.44615
1.0884141,112.737625
1.1604135,116.196434
1.1075293,116.40911
1.1689012,118.00012
1.0910531,110.87435
1.0870191,104.50915
1.0004467,108.93669
1.0659503,105.631424
0.9819266,99.72008
0.9733977,101.26399
0.9902995,101.62617
0.8537605,101.1141
0.8426758,95.68669
0.78880596,90.34599
0.773052,92.83053
0.7548527,94.23559
0.70676297,91.97519
0.62095326,87.38461
0.61211383,88.35025
0.5980824,84.33341
0.58799684,83.550255
0.56310195,80.790375
0.57056844,77.72082
0.4988483,76.59933
0.53522205,74.56849
0.4322845,72.59852
0.45639881,72.03646
0.5113211,67.75274
0.44565198,67.58831
0.52077436,61.701527
0.38256896,62.68543
0.43277133,62.41885
0.4884251,61.477455
0.48909545,61.779503
0.31646994,62.088104
0.32256335,57.58207
0.34630984,59.25744
0.36728105,60.219784
0.25091726,51.00605
0.25854814,53.081688
0.23611753,51.96459
0.11332289,55.752426
0.22820535,55.885582
0.078082845,55.366653
0.041520003,57.079964
-0.0055045737,52.94707
0.06810343,58.61766
-0.059030622,61.444942
-0.054509286,61.002346
0.025801556,62.125458
0.007879058,69.07088
0.08246903,66.490746
0.058257055,74.50434
0.14552581,72.40744
0.2130621,80.052986
0.17751454,77.923355
0.25159672,79.497055
0.3544819,80.57129
0.4959245,88.287636
0.5501506,88.45795
0.5701207,91.75037
0.64855236,97.10287
0.7679819,100.45953
0.8929897,103.47625
0.90271276,108.53721
0.9971635,108.7859
1.0699259,111.79696
1.0652796,112.952934
1.1507773,120.97162
1.1815797,123.578804
1.3803148,124.025764
1.2806275,128.28883
1.356279,132.69891
1.301887,133.99072
1.3231522,138.04056
1.4300404,138.84746
1.4516307,139.16942
1.3064864,141.69608
1.3806791,138.52713
1.3711345,141.03966
1.2458267,143.09528
1.3473626,140.3501
1.33501,148.76555
1.342757,144.90355
1.2951255,145.33694
1.375912,140.24234
1.3361354,148.04857
1.2315378,146.1419
1.2334733,149.63332
1.1965586,143.28769
1.2201196,142.83241
1.1574268,146.28914
1.2252554,138.9297
1.0634257,136.86392
1.0556817,138.86304
0.9626344,139.6261
1.0791821,134.99927
1.0835396,133.00279
0.99696743,128.85326
1.0479745,129.83116
1.0547211,126.30126
0.9760544,127.72922
0.95251095,118.755516
0.89524406,119.28453
0.9815272,119.16988
0.9031184,121.62902
0.8502708,115.423515
0.91121936,119.96209
0.9617187,114.33113
0.88975805,105.82194
0.85000247,109.601944
0.8984197,109.41196
0.83116275,105.495346
0.76266176,101.265915
0.7868663,103.99752
0.7839814,100.28451
0.618606,99.4178
0.6383571,97.01887
0.5765486,94.701485
0.5451769,93.35858
0.4804499,87.86246
0.58702886,91.48557
0.5510829,86.29734
0.52020997,82.7361
0.38840744,80.284645
0.43417877,79.39916
0.35608232,81.605865
0.35005468,73.62897
0.33152163,76.8324
0.4144094,77.661545
0.3293414,67.55417
0.34574476,71.5656
0.31423053,65.858536
0.3711545,65.33764
0.31249073,67.551926
0.24632886,65.74051
0.3449624,66.77796
0.22522096,61.046944
0.30085182,64.09089
0.26735902,61.070187
0.2764405,59.011917
0.24216937,57.047398
0.23096779,52.436268
0.22592756,53.92589
0.1670524,54.837376
0.18477456,58.55828
0.065249585,55.40509
0.044294946,53.75693
0.021302845,55.50949
0.004847051,56.535786
0.0656761,58.66309
0.031695165,59.585712
-0.012877604,58.714775
0.034968954,64.77777
0.06468299,64.64869
0.07874486,65.78604
0.118907325,69.124825
0.09577624,71.170586
0.15548807,74.833496
0.2636025,73.038086
0.22930536,76.84226
0.34480307,78.41025
0.46837932,84.95257
0.5166481,87.429344
0.6143867,91.0718
0.699697,97.6107
0.7433219,101.09014
0.8739848,107.53403
1.003189,105.48011
1.0749887,106.684875
1.1781956,110.618095
1.1362836,121.69894
1.2122949,121.66018
1.2983459,118.79883
1.2754505,124.03549
1.3283557,128.17287
1.4267703,130.66759
1.4658799,136.21088
1.4279857,135.67126
1.4679991,136.16862
1.4876456,139.09488
1.4717662,143.33615
1.5367895,148.60301
1.5274758,139.59843
1.4945053,138.83723
1.5378525,143.73724
1.4995174,144.9111
1.4767883,149.68114
1.463657,143.16637
1.384182,140.94055
1.4136013,147.75775
1.4414692,143.06471
1.3571404,145.15317
1.4886874,145.049
1.3256657,142.64494
1.3746787,140.87556
1.3230188,140.76088
1.2817713,139.61275
1.2695222,136.13896
1.2865713,138.54129
1.2198799,131.28923
1.3099483,134.01862
1.1248233,132.29659
1.1148571,130.02907
1.2025833,129.53307
1.1723193,131.93584
1.1674238,125.6174
1.1623414,123.02333
1.102572,121.310776
1.1187563,120.48446
1.0255558,114.2342
1.1761819,116.8452
1.0965539,107.773705
1.1508168,108.858894
1.147957,112.48391
1.1762258,107.09567
1.053461,100.83853
1.1618367,104.34249
0.9964363,100.03155
1.0050066,96.00198
1.005346,99.87941
0.8643888,94.88354
0.84722954,91.65003
0.8151959,88.6907
0.8031027,92.18984
0.70339733,90.51451
0.79125875,85.82965
0.71534204,87.6059
0.7197051,83.335686
0.6599048,80.95591
0.63051003,76.72571
0.75093997,78.5035
0.6566945,76.25354
0.6792995,77.15849
0.6444065,75.510574
0.6065819,69.28923
0.6100334,67.996864
0.66291296,71.767265
0.70872307,65.794075
0.73679185,60.075745
0.64766574,64.384415
0.6555582,64.49249
0.63894,61.47093
0.65806717,56.54356
0.65208346,59.109184
0.60892886,55.677223
0.5213025,56.4365
0.5665121,56.960026
0.5624566,54.472744
0.49021724,58.10257
0.44558355,53.396015
0.34994236,56.01288
0.36765757,57.27994
0.42280623,57.63729
0.34892398,60.650055
0.38088453,59.220802
0.3608347,60.5263
0.3039208,62.24947
0.35180414,63.1043
0.4276747,69.87988
0.37267068,64.19203
0.44640875,69.99829
0.49547943,75.34987
0.5936379,75.014275
0.62061423,78.6407
0.6631556,82.66202
0.7279758,86.97001
0.90513736,89.67399
0.95225257,96.20206
1.0376778,96.67088
1.1285542,98.55435
1.2173904,102.2465
1.2904267,106.29562
1.4129919,108.88386
1.3645941,110.52429
1.501173,114.05942
1.6090417,119.71587
1.6849418,123.80708
1.6038318,122.91606
1.702424,125.423996
1.7141242,129.49428
1.8134826,130.59467
1.7835028,133.57108
1.7759519,135.39638
1.8572253,135.38307
1.8078558,142.40166
1.7622387,143.79222
1.9241118,143.87325
1.9058003,138.89949
1.9226899,145.64763
1.843405,141.94215
1.8497239,144.84967
1.8192385,144.68442
1.851528,144.25061
1.8368359,146.79912
1.7419279,142.09988
1.8353893,144.239
1.6934484,144.78445
1.7432494,138.62364
1.7825376,142.48648
1.6761973,138.87302
1.7152952,142.97696
1.633164,133.98886
1.608371,132.02681
1.5549077,138.10895
1.571511,132.65001
1.5158253,129.3807
1.5063521,130.23824
1.5826615,130.01126
1.4124837,129.82957
1.5804698,125.533264
1.5141674,123.37714
1.5356159,118.00134
1.5281184,118.19487
1.5210627,116.27065
1.4122249,112.9014
1.4888003,111.66683
1.488814,110.555984
1.415581,105.43218
1.3967146,108.533844
1.350057,105.087616
1.4609613,103.918045
1.3475529,98.32698
1.2798979,99.151
1.2538103,97.722694
1.268011,93.68257
1.2284222,93.5758
1.1036948,96.155594
1.1853786,90.82848
1.1747861,89.976006
1.1359315,85.00405
1.0037831,83.15326
1.0391488,86.380455
1.0867549,81.141426
1.0314226,80.765594
0.92737377,80.39679
1.0019586,73.85529
0.94893885,77.38825
0.87568885,73.22033
0.91586185,72.61875
0.948056,68.979774
0.9891993,65.32828
0.9047094,65.28793
0.8755397,61.424763
0.89437425,65.81621
0.92939913,62.2507
0.9880976,61.36064
0.80548763,58.880447
0.9691754,58.467663
0.79758745,54.92824
0.8001521,53.958294
0.8267299,60.178272
0.7961615,49.82974
0.7267669,54.694195
0.7419943,54.97495
0.6363047,57.110065
0.5672077,57.46908
0.5805502,60.907154
0.48587605,56.76554
0.5845743,58.08724
0.55732983,60.47592
0.5363992,63.108444
0.4978715,60.542355
0.5532506,66.36664
0.5949344,66.410706
0.59431684,73.10041
0.648516,72.44094
0.723342,78.73453
0.81397974,75.26362
0.7908452,79.86178
0.9369946,82.667076
1.0787761,87.907845
1.1668069,97.10325
1.153605,92.89679
1.2894658,95.19053
1.4244058,103.744934
1.4219033,108.13602
1.4902867,105.75313
1.5048299,111.417534
1.5548108,110.06755
1.6981028,118.74794
1.770248,122.44598
1.8132403,123.84075
1.7959383,128.89714
1.8833153,132.65785
1.929515,130.40373
1.9425224,133.06944
1.9559422,138.2055
2.0135,131.95253
1.8965908,137.53145
1.9864225,142.30122
1.9921533,139.2776
1.9143338,141.30173
1.9750034,145.45224
1.9423853,144.66342
1.8466127,144.15971
1.8468169,144.2474
1.8888456,150.40709
1.8672436,151.77235
1.8382262,147.69708
1.8344287,144.34088
1.8083419,142.97719
1.7775278,141.03212
1.6825994,142.5916
1.6931629,140.68211
1.6106945,136.31822
1.6950084,132.48984
1.6085588,138.13866
1.6066964,135.45724
1.5537704,133.64877
1.5278542,130.36954
1.4764857,129.16455
1.5332046,131.36615
1.5260949,125.78818
1.495045,125.99728
1.5063334,123.065414
1.3323722,123.77889
1.4687415,122.58288
1.5103565,113.347466
1.3889234,114.949875
1.3636463,117.405556
1.4020063,111.3292
1.3917742,108.8939
1.3549181,104.39555
1.3439254,106.07505
1.273701,102.740685
1.2259775,100.32698
1.3085661,94.07372
1.1538613,100.288925
1.1958652,97.920074
1.1103176,87.46436
1.0540136,94.20803
0.97518545,89.62413
0.90306413,90.27477
1.0456301,86.65204
1.0637922,84.17486
0.8530974,82.33715
0.7946921,78.43871
0.837799,79.57979
0.7667408,77.4841
0.8481032,75.88203
0.81266403,76.04635
0.733544,73.12166
0.7768861,71.202614
0.83881265,71.543274
0.7620173,71.11868
0.7374968,67.71277
0.75835246,67.4019
0.66461825,65.26849
0.8603224,61.50657
0.7530552,60.94524
0.69553655,61.770992
0.6841672,61.963875
0.6735365,59.293602
0.63401365,55.119465
0.61183256,55.633907
0.5935946,54.720814
0.47959933,53.12514
0.41495132,53.530987
0.47083458,56.22105
0.31331757,57.96676
0.37815472,59.54434
0.31444606,57.38864
0.2786762,60.43713
0.3325597,64.749886
0.26548225,62.594463
0.3646171,63.552254
0.4307517,66.06265
0.33721533,65.64525
0.46570885,77.54106
0.3650311,73.14448
0.45061186,75.48242
0.4865257,79.28392
0.6187602,83.43421
0.6134965,88.73474
0.7207229,83.16117
0.93524003,87.94577
0.8163476,93.41659
0.9802402,101.20176
1.0652267,94.51993
1.1450232,105.00168
1.1600678,111.084785
1.3297868,112.784645
1.392026,115.77291
1.3924214,115.42013
1.3805858,118.37644
1.4470798,123.51398
1.5072052,127.22361
1.5891188,131.56938
1.5737199,130.98514
1.5785234,133.16615
1.6315465,138.55176
1.6305598,142.12276
1.571415,139.15384
1.5793315,138.78543
1.5482293,142.41942
1.5544755,142.88795
1.542255,144.10155
1.6534162,147.11548
1.632952,145.47661
1.5912012,150.09258
1.6072199,143.0325
1.5547876,151.32353
1.5045931,144.19601
1.5084532,145.22964
1.554319,142.10385
1.3449912,144.9168
1.3698332,140.20319
1.3871646,143.17969
1.362461,138.13486
1.27281,136.81053
1.273666,137.86357
1.1697605,131.93176
1.2327212,134.93929
1.1106867,128.92699
1.1936643,131.50505
1.2224944,131.11125
1.1351061,130.4024
1.1243823,125.27572
1.1095792,124.30446
1.0495179,121.046875
1.0755268,116.68953
1.0524218,116.04665
1.0586145,113.076096
1.0495753,111.74291
1.0767314,109.74849
0.9407525,110.420525
0.91944724,107.61319
0.99640435,103.44072
0.9139861,103.61601
0.8443018,104.34382
0.81648505,98.95049
0.8819365,97.227325
0.7911983,94.11052
0.66908866,100.12498
0.7149361,91.876724
0.5869754,95.55242
0.60119736,90.833244
0.678917,92.6411
0.6438835,86.94039
0.45740744,89.79487
0.51621324,82.95797
0.42008877,76.430855
0.49025312,80.89188
0.43661243,76.0373
0.42713156,73.50163
0.40378964,68.94217
0.40320238,64.037254
0.42445263,72.28352
0.39145485,70.091705
0.36444998,64.28968
0.39919344,66.37385
0.4196011,60.263218
0.4183127,64.48061
0.32685158,63.36472
0.32845703,61.256893
0.3884951,60.377964
0.3269198,58.543613
0.34233424,56.532085
0.23064557,60.37891
0.19293275,55.921543
0.11773554,59.34933
0.07392021,56.405445
0.07875551,55.02277
0.11320386,53.035805
0.0060746293,57.806324
0.022260282,59.100273
-0.009979243,59.50343
-0.0039309324,60.708187
-0.056739476,61.6998
-0.08219628,64.11526
0.020438435,66.37786
-0.01256075,64.6004
0.039915904,70.511856
0.084824994,73.5766
0.16598192,73.991554
0.17423078,76.84896
0.26460552,77.876205
0.35261455,84.70564
0.4102327,87.21821
0.5393575,89.26188
0.6276601,93.1004
0.6940205,96.7454
0.8094812,103.610535
0.8124362,104.3865
0.94818777,103.41278
0.9398914,106.76534
1.0470116,113.21539
1.0845536,117.73405
1.1012462,121.63505
1.1519737,118.474014
1.1979762,123.13361
1.2813721,128.99849
1.3555809,124.634674
1.2204103,132.18439
1.3481014,134.32465
1.3525399,136.20811
1.3729339,135.9431
1.3922772,141.44731
1.4673231,142.08617
1.249079,140.67552
1.3690345,141.11665
1.4099936,144.4804
1.3109807,144.95544
1.3071822,144.74756
1.3116535,143.16887
1.3222764,141.53001
1.2554466,144.55894
1.3143649,141.97339
1.2109406,140.23381
1.193531,143.67113
1.1839354,138.66968
1.2528718,139.99533
1.147468,137.57301
1.1157564,137.39508
1.0819254,139.07927
1.0638785,133.56947
1.10607,132.90266
0.9405762,131.0356
0.98722845,127.96524
0.9809865,126.90536
1.034389,128.5173
0.9201599,128.42383
1.0160952,125.218544
0.8346455,119.76608
0.9262535,122.47564
0.9630286,116.48245
0.93563765,117.46847
0.89876014,113.99972
0.9416492,115.15865
0.93093985,108.19436
0.89773566,107.38423
0.87594724,104.54642
0.8567567,106.748535
0.88182753,101.08678
0.7086621,105.77516
0.80149037,96.88829
0.7683923,97.69384
0.6738521,94.32544
0.6445092,93.6878
0.5689386,92.64356
0.56387043,89.66369
0.53462243,91.609314
0.54355395,89.02684
0.45011207,82.58178
0.4013131,82.29991
0.49238282,78.13016
0.41558328,80.99744
0.3574524,78.210075
0.29620823,75.48644
0.3677368,72.83034
0.38520923,68.58306
0.43938896,70.850494
0.3714857,74.0188
0.38759628,67.08899
0.3224189,64.71574
0.30761212,66.7345
0.353255,64.47582
0.39512417,56.677944
0.3729238,57.67131
0.3640738,60.40086
0.29110077,60.633167
0.29048988,54.951496
0.28352803,63.29658
0.18337221,54.494736
0.25798437,57.34494
0.15754864,55.677437
0.20849723,55.117188
0.09681979,57.557404
0.112401985,58.513023
0.08227243,55.247177
0.016878132,61.1661
0.08019363,61.445488
0.04462404,63.17872
0.0450869,64.73325
0.12383587,65.489815
0.08298394,68.226654
0.14036676,67.08458
0.28231543,72.701584
0.23826979,69.89177
0.36003444,76.20062
0.39765647,80.79858
0.44464538,84.543945
0.53304416,87.50512
0.5817647,92.97023
0.71740294,92.401924
0.89935577,96.02131
0.86968035,97.4456
0.8902224,101.71555
1.0650946,107.24522
1.100932,104.22086
1.1713971,115.294556
1.2536597,112.9568
1.209485,119.2164
1.4229617,123.03543
1.4327128,128.3278
1.417315,131.41252
1.4283564,128.83398
1.5182971,131.8601
1.4903024,130.03517
1.5165163,137.63864
1.655511,136.46992
1.5427607,142.30777
1.5811177,141.12474
1.5287911,138.74437
1.5298349,140.41173
1.522462,145.58736
1.5171695,143.51117
1.619305,142.52243
1.4919201,146.42915
1.5263106,143.38422
1.4519743,143.31625
1.5861567,147.45702
1.499439,143.04803
1.4468888,142.80876
1.4359819,139.9918
1.3879672,144.59352
1.3319724,142.26657
1.3731923,140.02625
1.4062626,139.29811
1.2972803,138.40848
1.3226479,137.39322
1.3417203,130.9776
1.3376122,134.65425
1.2929112,127.744286
1.2524927,128.35866
1.229298,127.2144
1.2406945,120.76803
1.3094867,119.99141
1.2659028,117.87944
1.222432,113.3574
1.232884,119.43708
1.2431166,111.02976
1.2225403,111.636986
1.2520522,112.57879
1.1384722,106.49258
1.1914052,108.93178
1.1099942,110.876686
1.1208633,106.128944
1.1519358,99.211235
1.1074638,100.755684
0.9657197,103.22534
1.0425336,94.02882
0.93618774,90.069374
0.93459266,93.11333
1.0055523,85.838974
0.86620283,89.8397
0.8323966,88.16148
0.90683806,85.95218
0.8418507,85.522316
0.8371571,83.39455
0.74343824,78.2968
0.8148618,79.69759
0.7067736,71.70516
0.7011977,73.393875
0.71547157,76.75486
0.66934365,70.68506
0.77716875,67.132
0.68460983,69.088524
0.8522131,67.46597
0.7526194,65.04018
0.72217077,62.17285
0.74686146,62.111923
0.747777,61.77464
0.68455774,60.34435
0.6620048,59.788593
0.6268868,54.39113
0.61345726,58.786167
0.6863938,54.253544
0.548447,59.90951
0.5509949,57.159145
0.48135766,54.43275
0.4941411,58.326984
0.49930683,51.80299
0.41829646,59.67418
0.46681136,59.38196
0.30097598,63.760548
0.36953858,56.87031
0.45172966,62.041294
0.38659889,65.78857
0.3791187,65.37363
0.40693894,72.048904
0.5542371,72.57977
0.5683169,73.78939
0.7103202,78.51949
0.762133,76.89146
0.8533391,78.989845
0.89100903,87.17472
0.83568037,94.56351
1.0430714,90.60279
1.1453782,93.23248
1.252894,100.40294
1.333265,97.49399
1.3428717,106.128456
1.4713969,107.8587
1.4877654,109.00471
1.5424141,113.7951
1.6382358,119.91882
1.6730285,121.49411
1.788609,125.91071
1.7623101,126.13709
1.8162136,131.70737
1.8399963,134.06973
1.7932128,135.96097
1.910977,136.22913
1.9358294,141.7506
1.9462376,142.41423
1.9240619,144.30052
1.9032083,142.60739
1.9459002,140.73433
1.9187016,142.76414
1.9252381,145.46133
1.907773,143.83684
1.817091,145.87619
1.8215134,142.814
1.8437675,148.84428
1.7775524,142.29378
1.7704432,140.42401
1.823358,143.93076
1.8055841,141.1802
1.7195829,138.21632
1.7696211,137.49034
1.760669,138.8141
1.6848521,134.77664
1.6292802,139.0346
1.6396358,133.89476
1.5031074,131.06403
1.6566162,128.67557
1.5378197,131.40341
1.6307803,130.04198
1.5572,127.639015
1.6084578,125.98733
1.5510244,127.74806
1.5182588,119.712975
1.5249997,120.16277
1.5333647,111.06812
1.5054651,109.0544
1.4045942,113.30166
1.5097526,108.63285
1.5157238,112.213295
1.4773415,104.62725
1.4553207,106.990776
1.3990189,99.33706
1.3721143,103.558525
1.3801277,102.50014
1.2583592,99.54847
1.3000673,95.02527
1.1763065,96.570335
1.2831936,91.98641
1.153668,89.76073
1.0428178,83.46783
1.1014098,91.726814
1.0504048,84.05068
1.0562208,82.47588
0.99578315,80.60552
0.9275803,79.00957
0.91414416,80.27552
0.95730716,74.02348
0.998866,74.420166
0.8964668,70.1409
0.9749348,69.61609
0.9603064,68.41881
0.9537796,68.4579
0.94724214,70.9111
0.96962374,63.932888
0.9704151,62.72537
0.9240244,60.775135
0.87693566,57.76795
0.8388195,57.24211
0.91946137,56.330025
0.8521286,55.666225
0.82359755,57.1929
0.6903734,59.70715
0.71707124,53.06042
0.6863958,56.678154
0.7280063,55.833755
0.63527966,53.46702
0.6659092,61.979713
0.6214556,55.457714
0.5055068,58.103786
0.5858132,59.666546
0.5249169,60.47314
0.50900537,66.21114
0.56271446,63.724083
0.5698168,60.22387
0.6085548,66.19169
0.69524914,72.45959
0.6079702,72.747086
0.7141479,76.13114
0.79928434,78.55172
0.7931798,85.07207
0.960744,82.95715
1.0686921,89.23053
1.0677233,90.3088
1.0664891,94.186
1.1220295,100.60081
1.2743509,97.19561
1.4712973,104.44112
1.5122066,108.73722
1.6363109,110.80809
1.6553537,114.074394
1.7583059,118.10313
1.7707758,120.385895
1.6506771,123.548935
1.753148,129.7303
1.8166144,129.6753
1.9318337,129.60173
1.8875412,130.39381
1.8614435,135.74986
1.8643525,139.93346
1.9040215,137.2462
1.921528,139.01172
1.9485118,139.85532
1.7912775,145.156
1.9311587,143.67004
1.9064703,143.81639
1.827363,143.2857
1.8836118,145.21123
1.9287034,149.89992
1.8016567,145.49625
1.7395957,144.47383
1.8776656,143.44696
1.7433752,140.46509
1.7188225,136.19257
1.6538229,143.805
1.6730422,140.20886
1.6111546,137.44963
1.5789998,140.98685
1.626616,133.89615
1.5084227,136.38258
1.5491937,131.32913
1.4292412,131.01794
1.5245723,129.14334
1.415828,129.76913
1.4024501,125.639595
1.4225532,122.0621
1.3656313,121.294556
1.31946,121.02798
1.2569523,120.46131
1.4309148,115.845345
1.2589386,119.162704
1.3537992,109.725
1.2870427,111.40795
1.248072,107.86715
1.2608393,105.954285
1.2393954,105.204315
1.1833044,106.49963
1.1702493,106.0338
1.1601167,97.51427
1.0973604,100.0796
1.1316545,100.381546
1.0374769,93.482445
1.0823463,96.31182
0.940921,90.482574
0.9420613,95.50083
0.8826524,92.49528
0.7951766,83.69757
0.74771786,82.48786
0.7663306,82.50542
0.717938,79.60769
0.6857794,75.88846
0.7394538,74.3582
0.7192341,80.09367
0.68588597,72.68325
0.7023791,71.59784
0.7273844,71.408714
0.69367445,69.949455
0.69574577,65.99786
0.61645937,65.284195
0.65023464,61.280003
0.595485,61.06515
0.72733134,55.4093
0.56644344,59.54335
0.5318531,55.287205
0.6043364,56.2538
0.5321995,57.183796
0.4391058,54.73885
0.40519556,55.68498
0.4943402,55.174934
0.3394309,57.1306
0.3116678,56.272
0.30374256,56.965374
0.38703716,57.68276
0.32544777,61.84711
0.21251301,56.33898
0.23849396,60.691525
0.23874138,63.399303
0.26092374,66.205
0.257189,66.4197
0.25328752,70.820145
0.29434347,69.60546
0.304732,69.2801
0.36898127,75.50178
0.53746367,79.26466
0.5698056,82.21516
0.6539746,87.49676
0.66684437,88.21892
0.75177664,86.54062
0.88703007,94.32256
0.9830789,97.222115
1.0149605,101.3882
1.0838675,102.67042
1.0615585,105.90876
1.1731899,111.54011
1.2819903,115.88811
1.3392028,115.06526
1.3639948,122.09043
1.3933645,125.2698
1.4731834,127.69476
1.4892511,130.83542
1.405901,128.27312
1.4915707,132.02306
1.5651011,140.9405
1.5314809,139.82019
1.5524487,137.577
1.5874137,140.78723
1.5624087,143.1271
1.5972215,140.65355
1.4758586,143.91068
1.5177797,144.48923
1.5404254,144.79837
1.4265461,146.60114
1.552845,141.91145
1.4823449,145.61081
1.3953863,143.11517
1.3728217,143.90219
1.4784266,144.64168
1.4528221,142.86452
1.3430835,139.4914
1.2520505,140.84875
1.2008578,139.30705
1.2342215,137.0504
1.2660358,138.98982
1.1120604,133.47394
1.1683323,134.43044
1.0842223,130.9729
1.0584291,128.59406
1.1012043,122.7073
1.0933919,126.936325
0.98613715,125.457466
0.97202116,124.23637
1.0348871,121.81944
0.9707051,117.890076
0.9439645,116.81525
1.0123558,116.07796
0.96566343,111.25319
0.920445,110.42764
0.85122746,107.87488
0.9378597,106.899895
0.90088433,103.63757
0.8686073,100.46893
0.8255114,100.35807
0.7339895,98.86301
0.76208824,99.81821
0.71712434,97.281845
0.72530097,94.102844
0.62187576,97.07294
0.60059655,85.649284
0.5060158,87.95464
0.5104258,83.62389
0.50320226,84.34019
0.5301956,81.96327
0.36282524,82.85696
0.4347593,79.32285
0.3404238,78.41877
0.32627895,75.28654
0.37203774,72.81828
0.39057237,72.63649
0.3086187,70.21174
0.4202552,68.4035
0.40153193,65.291176
0.32967314,67.46434
0.38375843,68.9816
0.39499536,61.011383
0.35440525,65.658134
0.36848783,60.321552
0.2567946,57.307343
0.25385025,61.96472
0.18157844,60.08078
0.26582974,59.384003
0.22900477,54.964123
0.19926432,56.389748
0.18742457,55.36216
0.10308667,58.616474
-0.01608166,58.46059
0.038364004,56.028984
-0.06411908,55.305733
0.006500804,60.70809
-0.10912709,58.624325
-0.03697074,64.770905
0.033617895,63.73074
-0.027931543,68.71818
0.03349153,67.36614
-0.027502717,66.660904
0.044302396,70.25552
0.10205412,76.35214
0.131485,73.632675
0.31871903,86.91346
0.274611,83.52721
0.35921028,86.04825
0.4850978,88.33327
0.5542169,89.4567
0.58156693,92.887985
0.6629344,95.63412
0.7566447,98.34829
0.8273661,106.36193
0.913546,109.66344
0.95055205,110.11837
1.1150863,116.24437
1.1245157,117.95097
1.0667437,125.118164
1.1704019,126.13583
1.2197484,124.0624
1.2711939,129.55025
1.2612169,136.88396
1.2743883,132.33195
1.3472736,139.66142
1.3135056,136.92128
1.4091058,141.66748
1.4028085,138.55202
1.3385215,140.75987
1.3264595,144.19368
1.367951,145.52281
1.3805075,147.27893
1.3456159,145.29317
1.3366193,144.90877
1.3770726,145.28574
1.4118674,145.66591
1.270867,145.10275
1.2640487,141.79317
1.214877,139.73653
1.2791313,141.4807
1.161041,148.15898
1.2042985,139.04521
1.132524,138.38898
1.1598737,138.78023
1.0968251,136.9271
1.0825688,131.9406
1.1585122,137.51495
1.0158992,129.9308
1.0207694,129.06113
1.0611409,128.65663
1.016727,127.16316
0.99647015,122.29553
1.0815569,123.24911
0.94535387,123.68639
0.967302,120.24304
0.97918695,115.52539
0.8974616,112.518936
1.0181301,112.842186
0.9713689,111.028435
0.88654953,110.069374
0.8907484,106.35201
0.8872826,108.22327
0.89388037,103.472374
0.82961875,99.976204
0.8682266,99.177765
0.8504454,95.87839
0.793988,93.78489
0.80535454,95.84923
0.67311573,92.98956
0.7138561,90.24612
0.6821634,87.46053
0.6203734,87.57015
0.54727006,86.2741
0.5287908,81.51773
0.45978308,83.27208
0.47304595,78.39073
0.48968133,81.34012
0.42146203,78.99523
0.35821313,75.754814
0.40520242,73.53678
0.39744282,74.237114
0.4440591,70.17012
0.4791226,68.74722
0.4438091,68.45363
0.514998,64.717
0.5011251,68.75619
0.36579445,60.311253
0.39852,61.453564
0.4767022,56.31443
0.33867076,62.444424
0.45943168,56.974117
0.37108517,59.501835
0.31372672,60.207718
0.3444078,59.067646
0.32402235,54.52429
0.28496203,55.25744
0.2870847,55.7343
0.195825,53.917023
0.1322259,56.52842
0.20255525,55.538475
0.16125537,59.142204
0.1379161,56.796223
0.17784539,63.215435
0.109640725,64.50615
0.15117787,63.432823
0.20797524,65.208725
0.1700179,71.81521
0.22111389,73.71186
0.33632138,73.809555
0.40427247,73.59384
0.5127298,83.22069
0.62131,81.58279
0.59583986,80.371475
0.6901048,92.432045
0.81899273,93.04732
0.8270387,99.56489
1.0233854,98.58043
0.92972785,104.56147
1.07578,101.30529
1.2003858,112.544106
1.3391995,113.55691
1.3413401,114.33611
1.3229595,116.11222
1.4404376,124.0372
1.458217,127.68388
1.5229944,135.22592
1.5037525,132.27446
1.6140077,133.26073
1.5362505,135.91263
1.6201929,140.10481
1.6010947,140.81454
1.656904,142.67392
1.6366407,145.04634
1.6941309,139.89996
1.5963115,140.62148
1.6086644,144.2296
1.691684,140.65195
1.6237036,145.50462
1.62403,148.551
1.5359492,143.55824
1.547915,141.95145
1.5622674,147.40698
1.546721,142.22568
1.5139577,140.13219
1.5460654,138.21767
1.5563406,141.4843
1.4677722,141.21921
1.4579297,138.57518
1.4200592,139.24176
1.4373432,132.71263
1.4108747,133.96939
1.3607508,132.1134
1.2574769,126.23621
1.3014619,129.48811
1.2932328,126.442986
1.3573172,124.13708
1.3169779,123.40477
1.3241657,118.82567
1.2548361,121.90257
1.2359993,120.13266
1.2571933,118.90485
1.2671952,109.81917
1.2413925,110.94494
1.2242644,113.19689
1.2630101,109.5541
1.2137419,106.108246
1.3195152,102.38317
1.2512267,100.37822
1.1515472,102.866066
1.1508249,102.04549
1.0766728,94.96457
1.0226886,94.44171
1.0751399,97.76361
0.99806076,96.20236
0.9172874,85.87869
0.9919776,88.13041
0.9312904,84.02582
0.8762055,83.80009
0.8715881,83.44283
0.8677717,83.03825
0.74077284,82.35121
0.8345014,75.03875
0.8316081,77.91222
0.7818512,72.482124
0.8803405,69.596275
0.78772515,68.08722
0.79085225,65.81387
0.7923962,69.16534
0.83980954,69.51728
0.8844583,63.823734
0.8054616,59.88679
0.85649216,62.4728
0.8023878,58.589615
0.797406,59.513367
0.76787263,55.3048
0.68116283,51.985622
0.72334886,58.573326
0.71430993,59.254093
0.6337153,54.748646
0.6107099,54.432045
0.6714632,53.53304
0.5303759,53.38533
0.4695289,53.81039
0.45192745,58.11504
0.56309605,60.81896
0.49531007,62.270073
0.54693973,61.895
0.39413446,63.95095
0.56090105,62.839214
0.59837407,66.28659
0.53750014,71.255775
0.61633724,75.93621
0.6158953,72.10811
0.7497673,75.6692
0.7869097,77.13596
0.7466385,84.8825
0.9698037,84.99934
1.032663,91.219185
1.1468513,90.7921
1.2596697,97.764694
1.2906324,100.1851
1.3851044,101.97573
1.4444786,110.214134
1.5195751,109.69877
1.5739874,112.88202
1.5418423,114.93598
1.6011835,117.00888
1.6895373,122.38696
1.8413528,123.542
1.8243846,129.94858
1.8436482,131.53181
1.9348496,132.51645
1.9053403,133.77307
1.9367478,137.64818
1.9418596,134.35583
1.9123902,137.97055
1.974543,142.08418
1.9504831,139.87305
1.924812,142.40782
1.9716072,146.39948
1.9358234,144.47307
2.0272665,144.9019
2.0095212,145.63756
1.877427,144.1967
1.926328,146.81038
1.8369709,143.46779
1.845744,142.26921
1.7456688,143.05733
1.8126115,144.03593
1.7758343,143.12979
1.7714926,141.06998
1.7164118,136.59468
1.6556164,137.98032
1.666673,137.14653
1.7120935,133.7084
1.6122828,129.07607
1.5871215,134.0023
1.412112,132.58391
1.5864131,129.31627
1.6104833,122.651375
1.5025042,123.4177
1.520708,119.39315
1.4714427,123.60241
1.4876097,119.63371
1.4742408,119.06053
1.5066324,115.45658
1.4556365,114.177925
1.4338354,108.423256
1.4093238,112.052895
1.4127524,109.667435
1.446805,100.25288
1.4778135,101.36169
1.3405346,99.05205
1.3740035,101.44462
1.2979053,95.382095
1.169798,97.95588
1.1856303,95.8792
1.1808437,91.7813
1.0325654,92.618744
1.101631,91.05499
1.1256045,86.59786
0.9767699,86.086395
1.0212313,84.23592
1.0481722,84.42505
0.9512536,81.519875
0.9569133,74.74261
0.95893085,75.30804
0.93407255,71.7594
0.95935917,73.802155
0.9436599,72.284874
0.96285087,64.676414
0.9912681,64.303314
0.8151461,61.601597
0.82967687,65.37504
0.8652234,61.368122
0.86890507,61.165955
0.8569666,61.479946
0.8504341,55.688194
0.8364407,53.714565
0.88370067,56.27265
0.8507399,59.350914
0.80843735,56.969936
0.7271703,55.969536
0.57355773,59.59717
0.6128369,59.02843
0.666883,54.631706
0.52416134,59.872883
0.6345629,58.749832
0.605201,59.188744
0.5272798,58.69008
0.51655567,66.63517
0.49716878,67.57851
0.5094702,63.761044
0.50315,65.39857
0.5167288,71.03509
0.62612253,71.89495
0.6596659,76.7166
0.69278073,78.82921
0.7402964,81.34904
0.89246875,86.49417
1.0148906,80.27928
0.98379564,87.21441
1.0807319,91.83436
1.1691115,97.79305
1.189468,96.91655
1.2984247,99.771965
1.3503617,104.16505
1.5052301,110.693214
1.5188893,113.56973
1.5006795,114.52122
1.6344529,120.23955
1.6660544,127.0048
1.6751019,119.804535
1.6939615,130.1218
1.7184505,127.063736
1.715488,133.40872
1.7996379,132.70059
1.6709661,135.13675
1.8401638,138.83072
1.8477753,142.72256
1.8431168,141.672
1.8182952,137.82742
1.8069794,143.95117
1.7917109,146.19273
1.8094894,142.2727
1.8581795,142.72084
1.7826227,142.07976
1.741259,146.24916
1.7896338,147.47864
1.7691382,146.1806
1.8160037,144.48416
1.7135063,144.73997
1.6375738,144.14874
1.6747688,141.78355
1.5734179,137.94392
1.6300952,136.33672
1.4414706,139.6859
1.4763932,136.7251
1.4349294,133.53587
1.4589626,128.66035
1.3797027,133.87215
1.4595045,128.63239
1.3443482,128.48637
1.3664559,122.05145
1.3835896,120.54261
1.2946407,124.67795
1.3532927,118.25631
1.2951791,123.74904
1.2223448,113.630035
1.2885731,112.91767
1.3716562,116.35033
1.1970571,110.797325
1.2077533,110.719124
1.1540209,106.56395
1.1411138,103.470566
1.1982728,101.944756
1.0544035,101.87575
1.0768945,100.86627
1.1316177,99.71268
1.1046069,98.64862
0.95275056,93.19748
0.8715311,91.63911
0.80674034,89.44237
0.8309683,93.920845
0.8226171,86.57281
0.77778697,89.28828
0.79013634,87.45422
0.82947373,80.71913
0.68190366,80.440056
0.66449916,78.1841
0.5373828,77.85558
0.66049016,71.34321
0.5514694,71.78942
0.58710104,74.943886
0.6230169,68.58715
0.6108158,67.427505
0.5626089,63.097935
0.5987714,62.34452
0.5689418,64.714905
0.65826786,59.57858
0.55265623,59.36969
0.46599633,59.60036
0.53988224,59.756268
0.48941708,57.454983
0.4208035,57.641937
0.37556866,58.322815
0.37208518,56.46482
0.29645994,53.711235
0.24464451,53.387108
0.29195413,55.889416
0.17675662,58.72221
0.26084515,59.954422
0.20593385,63.091156
0.15345463,60.261402
0.059225116,60.333523
0.12905419,63.301224
0.26658466,65.34172
0.15574409,65.54156
0.12810951,69.071724
0.21205106,70.54595
0.2906214,74.046364
0.35657015,77.00492
0.37171856,78.008
0.51434654,80.628044
0.44513488,81.024086
0.5516473,88.932846
0.6824224,91.98014
0.77711827,97.07421
0.8330482,97.382034
0.92509866,95.10807
0.9841846,106.53478
1.0847538,108.795975
1.0859308,108.103
1.230954,115.418434
1.2335213,114.96529
1.1955118,116.78254
1.3906474,123.97875
1.3690284,127.855736
1.4224807,129.20885
1.4830374,123.116196
1.4080813,135.11136
1.4837153,136.45721
1.4876041,140.40408
1.4852827,142.4915
1.5125086,140.64436
1.4022102,144.45662
1.4655659,143.51976
1.4675428,146.79489
1.4565979,142.66129
1.4627304,143.59464
1.4240931,138.17278
1.4296328,146.30849
1.404031,141.92717
1.4698057,141.80325
1.3459946,145.18762
1.3583862,143.54448
1.2907448,141.77307
1.2275752,144.18771
1.2491602,138.61195
1.1823812,140.72977
1.1564,138.08221
1.1470686,136.7336
1.1220881,138.70692
1.1421564,129.22147
1.1252211,127.97537
1.0941474,129.62778
0.9242247,125.05417
0.99156636,127.06405
0.9750344,119.356445
0.96609235,120.79729
1.0492502,116.300735
0.9154559,118.51125
0.9001239,114.99697
0.9547386,119.10682
0.86495245,117.3214
0.91047066,110.890335
0.82720816,110.98793
0.87468404,102.0578
0.7250716,105.60044
0.8225556,102.063515
0.78550315,98.783226
0.6594219,98.329926
0.70588344,95.17929
0.59681994,99.51121
0.7164895,97.06688
0.66474026,91.85353
0.6073416,91.36948
0.5850037,88.89463
0.49310043,84.51894
0.46098477,84.711815
0.40491712,81.7978
0.43264535,79.34732
0.43728745,80.35054
0.29814115,79.154366
0.33082283,74.67126
0.35556462,73.89922
0.21168603,72.71183
0.39134723,76.00742
0.3194068,70.745995
0.30513403,69.448586
0.4462397,64.06218
0.33191216,66.32236
0.36841407,63.630596
0.20331831,63.22265
0.32394138,58.563946
0.290475,60.250076
0.2746975,57.00931
0.17988132,58.270855
0.24621712,61.78873
0.18544236,53.660393
0.1505105,53.580154
0.12426679,54.74696
0.07529045,54.52782
-0.00063861127,54.812843
0.07434051,60.15491
-0.09282297,56.33865
0.03797251,61.739815
-0.050140772,60.66352
-0.004131846,60.103428
-0.040845137,66.1292
-0.0070418688,59.96607
-0.026101114,67.21501
-0.022544902,67.57845
0.10955689,75.13624
0.06561645,75.29561
0.24256279,75.79717
0.28088757,72.83282
0.30978587,86.927826
0.30052873,83.11383
0.40163177,85.8771
0.57218486,93.35099
0.6118676,92.38581
0.6942748,98.44464
0.74366957,100.72344
0.8833651,104.177925
0.8907419,104.07817
0.9879601,111.13862
1.0691944,116.17653
1.0019778,119.4295
1.242172,122.9867
1.1944069,124.30221
1.2607348,122.80821
1.3302313,126.35027
1.2900376,128.81511
1.3971108,134.46849
1.3282843,135.68045
1.3378562,139.23465
1.3715153,140.02023
1.3235065,145.71056
1.4274516,140.35818
1.3662292,144.5817
1.2923856,143.50969
1.448255,142.80069
1.3872482,145.50398
1.337896,142.75446
1.4086109,145.3188
1.3436087,145.31744
1.3100907,142.52182
1.3478138,145.62642
1.3456222,144.71121
1.2626251,143.0746
1.2718711,136.27403
1.1559863,141.21414
1.1778662,140.14848
1.1733805,137.26595
1.1140268,133.80058
1.1028007,140.27629
1.1087252,133.87881
1.151112,132.68205
1.098946,130.17645
1.0535798,130.66122
1.0992441,124.3067
1.0297145,121.91119
1.0617064,124.570335
1.0328561,121.06118
1.0451531,122.762566
0.9660997,114.077866
0.9470634,112.85667
0.9351845,116.36412
0.91807324,111.91237
0.88775474,109.4418
0.98654926,110.385765
0.94809717,106.95569
0.8443782,106.4677
0.8297589,108.2362
0.98062974,98.795425
0.9200674,98.71655
0.9072991,95.10929
0.7006744,91.52604
0.80452365,93.36483
0.6909024,90.77205
0.6392828,89.91073
0.7796844,88.82402
0.6383498,85.86525
0.584035,79.80594
0.5277524,82.50082
0.59535134,82.17127
0.5386258,81.87767
0.54231334,80.45672
0.5450626,71.62969
0.5617019,75.9112
0.51288337,73.49364
0.5151936,71.424126
0.5500282,66.741425
0.4658658,64.47508
0.48134333,61.039616
0.49159333,68.90935
0.51414937,64.78887
0.50421697,56.755615
0.47356373,58.504826
0.5118086,53.38445
0.44281596,53.807255
0.5165778,59.346413
0.32075307,54.363865
0.4309178,55.587257
0.3865339,53.299374
0.35391843,54.42789
0.29139256,58.76039
0.1686792,53.043556
0.21295781,57.928493
0.22317524,57.954834
0.13316739,60.192562
0.2010791,62.823635
0.17929937,62.808838
0.19040881,62.271362
0.28321663,68.183105
0.22630838,67.38812
0.2158129,69.37081
0.34338087,66.66154
0.37133542,72.861496
0.43472114,79.30168
0.6269379,84.31589
0.7062962,85.63926
0.75967544,93.19465
0.7637016,86.3034
0.9132364,94.90802
0.938464,101.16609
1.0373334,96.887726
1.1406927,104.954025
1.2146889,107.123024
1.2071264,111.07627
1.3690784,115.605225
1.398204,111.97699
1.532673,116.6539
1.5271015,120.96744
1.6467893,119.420876
1.5843238,127.77079
1.6424483,126.794174
1.6658751,128.40672
1.732088,132.94324
1.6871569,131.7806
1.6544832,139.02794
1.7255521,140.65579
1.7584089,144.67825
1.7848805,139.7609
1.7853268,143.7471
1.6791505,148.44508
1.7829175,142.97383
1.7854387,150.99559
1.7656538,147.9465
1.7605929,144.56868
1.669584,147.38953
1.7020512,144.39658
1.6957146,145.29102
1.6278368,142.63977
1.6287156,143.44278
1.5763988,138.30496
1.5087348,140.96642
1.5528415,134.44252
1.579629,138.88829
1.4909146,132.47983
1.4132743,136.35419
1.385356,133.8417
1.366223,128.29149
1.4989179,131.13281
1.3455236,127.910164
1.4092916,122.84802
1.3126075,123.16802
1.3480786,121.604095
1.4039434,121.07477
1.2959821,122.44708
1.3152709,113.491585
1.3411505,114.05354
1.3807334,117.08408
1.3194023,113.3514
1.300097,109.43995
1.3221325,103.60929
1.2869445,105.97098
1.2551575,101.925995
1.2086226,101.281654
1.1132411,97.979866
1.1834974,97.503845
1.1754211,97.76878
1.0598509,90.34915
1.0464734,90.97745
1.1559867,93.11362
0.948534,87.75777
0.9185061,87.94147
0.8962119,87.55127
0.8511848,88.13095
0.8806221,78.97502
0.9805244,77.538124
0.8813787,73.97401
0.84691757,71.50711
0.8358776,76.427864
0.8634361,69.518425
0.81316,70.47062
0.8149627,64.530266
0.815297,64.59623
0.85035574,61.84016
0.83253026,64.3931
0.8261233,60.134487
0.73919374,58.55598
0.83024305,57.529907
0.82836044,58.468952
0.8347085,59.69459
0.7419771,62.402294
0.7585679,57.38805
0.7620432,56.84184
0.7276808,56.656612
0.7403958,57.47376
0.6549235,58.89069
0.695551,55.811195
0.55539656,59.896782
0.47982168,61.801052
0.4608572,61.99271
0.55780953,58.043694
0.48414975,62.629173
0.49904862,64.182785
0.5611548,65.52657
0.6231168,66.62527
0.5881437,69.472694
0.72154456,72.97859
0.6815829,79.01508
0.73344815,79.06332
0.990723,78.89462
0.96111965,85.40277
0.9038766,88.036964
1.099787,93.505394
1.1545147,92.73388
1.2439963,95.51426
1.3336968,105.36052
1.3333838,101.73064
1.554394,107.45619
1.5934248,109.114426
1.6077058,114.02777
1.6778923,120.398476
1.7619852,118.98075
1.8602602,123.02721
1.797238,123.31156
1.8799047,130.48726
1.9442868,130.06276
1.9733486,130.95822
1.9923875,137.87935
1.8190382,138.53116
1.909606,139.86517
1.9501203,137.4617
1.9288503,142.11613
2.006584,141.3948
1.9559896,142.27368
1.9144517,139.05594
1.9312209,143.79524
2.0133548,145.13614
1.9640074,148.14879
1.9134213,146.87619
2.0293934,144.94765
1.8755772,138.8312
1.8588381,143.86652
1.8804585,144.36354
1.7899308,140.2849
1.7907482,139.07591
1.7403494,140.46739
1.6648216,139.52933
1.810098,133.34387
1.628246,135.42923
1.6733675,135.36491
1.634279,129.97708
1.6175876,134.65454
1.5290831,131.47678
1.4813792,130.22618
1.477602,123.87107
1.4814477,120.33417
1.5160091,123.79419
1.569084,122.20521
1.5100862,117.87708
1.4836478,112.44811
1.3951627,113.28037
1.5175718,113.314606
1.3556565,109.45336
1.441172,110.31853
1.3950707,107.241264
1.3898076,103.637375
1.4378997,101.11545
1.3028171,102.04639
1.2999341,102.75593
1.2324264,97.18874
1.260053,92.16804
1.2339507,94.62788
1.230061,91.02623
1.0365095,90.28667
1.0687612,87.500114
0.98759586,86.290344
1.0050905,82.829445
1.0276266,82.3134
0.89072365,75.80417
1.0450671,78.203445
0.91907096,78.91368
0.9008771,71.30774
0.898056,74.53113
0.8629535,72.78905
0.8936642,69.76931
0.8865299,69.08524
0.8864482,66.32436
0.83331084,67.55582
0.8416164,63.575138
0.83132964,62.17593
0.85224646,58.2999
0.8340397,59.82288
0.89584535,56.81649
0.8164636,56.949398
0.5990253,60.350807
0.6660917,52.092865
0.72381276,58.616253
0.5875121,56.057304
0.6448969,55.15195
0.6043486,56.302467
0.48676693,56.116383
0.4497614,57.34048
0.45934206,62.27271
0.41600308,60.814247
0.5214877,59.55228
0.44865122,63.5942
0.5415296,60.85131
0.44539452,66.57232
0.5400443,69.81754
0.5815772,74.74973
0.53472626,71.861275
0.6636436,75.53124
0.601706,80.86582
0.76808697,80.11002
0.7852236,76.787766
0.84935963,83.38174
0.88036764,91.35145
0.99129486,92.74036
1.0419087,97.31276
1.1573142,99.43819
1.2480161,103.11851
1.262238,104.332245
1.4156324,109.14569
1.3944992,111.49657
1.4432238,114.65926
1.5662223,121.72807
1.5768547,121.48246
1.6063297,129.12903
1.6568598,126.10961
1.69565,128.57932
1.6955605,131.85612
1.7391227,132.36856
1.7423235,135.36624
1.7120296,134.9006
1.7536635,138.25961
1.7221974,144.98705
1.7604582,141.08441
1.7626251,148.22295
1.7633225,145.56989
1.7006023,143.21358
1.6691676,144.96648
1.7076834,148.57591
1.7329485,143.48427
1.6961107,146.12395
1.6176078,147.2934
1.6431613,143.14156
1.5982312,141.17752
1.4899486,144.43141
1.5330731,140.91309
1.5754522,141.3181
1.4801593,137.43207
1.4714097,138.65457
1.4345515,133.44247
1.3289934,134.85649
1.3617758,133.64517
1.3870269,127.52105
1.2740248,129.57384
1.28165,130.33017
1.280944,123.94643
1.2343562,123.27925
1.2848783,125.033615
1.2486253,119.248856
1.1186209,116.87256
1.1930664,116.99198
1.2348483,116.92007
1.085481,107.9792
1.1084158,114.37549
1.1489275,109.98151
1.1448404,103.301155
1.1047012,105.34026
1.0813829,103.92577
1.0338683,100.68185
0.9360449,99.67374
1.0127503,99.91922
0.96791905,99.553055
0.8972351,90.59114
0.7712069,93.0682
0.83804554,93.51327
0.79584825,88.21538
0.689851,84.99182
0.7124103,80.38485
0.63081026,83.6421
0.6083331,80.77323
0.65990496,78.707275
0.53543717,75.25903
0.5774615,76.38335
0.526928,73.248215
0.48822364,69.48926
0.55527306,74.05588
0.5098105,71.68532
0.47563377,65.0528
0.63534534,65.36306
0.4756285,66.34236
0.48559442,63.259098
0.43466523,65.966545
0.52089965,59.2159
0.43914187,56.086544
0.39458492,57.33645
0.40007755,57.150677
0.3833843,55.604187
0.3768532,58.541058
0.37037945,56.84999
0.33826044,54.707626
0.24088787,57.896423
0.2143001,54.560425
0.20745449,61.283337
0.18748535,59.438545
0.062838435,59.939133
0.1002244,61.96057
0.11204312,66.30123
0.05846925,61.62394
0.11267894,63.578003
0.104148686,66.28654
0.18687819,68.723495
0.14650267,72.072876
0.20604697,75.11108
0.12398534,79.24335
0.3345183,79.02993
0.48838925,82.189
0.5756688,83.25525
0.54339415,88.732895
0.5942786,95.018875
0.73320705,95.19793
0.8384734,98.75235
0.9796111,96.6733
1.0013173,105.8262
0.9433783,107.53153
1.1636372,111.74293
1.1081184,113.45659
1.2156321,116.42637
1.2218032,122.139534
1.1993879,127.03372
1.2979946,128.22385
1.3800865,127.0538
1.3917973,132.00768
1.3420229,134.2846
1.4114388,136.36325
1.413927,135.60867
1.3340828,137.92047
1.4101039,141.11153
1.4188396,142.32031
1.437902,147.31332
1.3285307,143.7854
1.3978966,144.83603
1.3067584,144.26494
1.340592,147.84915
1.3982735,148.70413
1.3607131,142.9347
1.3523892,140.37831
1.277012,143.25648
1.2304571,143.08878
1.2124757,141.39598
1.2085116,138.83458
1.1603827,140.25105
1.1836158,136.12035
1.1421579,139.53383
1.1077968,138.5447
1.0859907,129.17873
0.9902564,136.37373
0.9718698,126.66059
0.9543237,128.68915
1.0295624,126.49416
0.9756465,125.59564
0.9290921,125.20653
0.9525231,120.52747
0.9232844,121.26889
1.0220052,120.691605
0.96272457,117.69456
0.86380106,112.89858
0.89391273,115.168205
0.9159186,110.01751
0.8183416,107.17228
0.8436569,108.92891
0.85714096,102.7181
0.74019444,102.24584
0.8031846,101.75144
0.7344225,102.36617
0.7103734,95.77946
0.66032714,101.06364
0.6189439,100.6173
0.67822313,89.27331
0.5486856,89.34529
0.5040163,88.0354
0.47232,85.53468
0.4331061,87.07791
0.5341096,85.34118
0.41663468,80.56271
0.30166176,78.13362
0.34132758,78.198326
0.41505662,74.16342
0.2478064,75.518135
0.2515852,69.9187
0.31793866,73.85538
0.3561496,71.16693
0.28558394,66.14893
0.2905143,64.84635
0.3667405,63.201733
0.3047844,63.54681
0.3287942,60.45728
0.23679677,62.11675
0.17659992,61.507557
0.27281475,58.628967
0.21820085,59.190437
0.2268183,56.690914
0.16041398,55.002163
0.15566804,56.29189
0.06461071,52.775257
0.021574663,54.436344
-0.011008097,55.29375
0.054085452,56.76803
-0.007609505,57.982742
-0.0002534019,57.638924
-0.0058089057,62.752773
-0.044418573,58.60596
-0.103109255,67.46924
-0.03712369,61.871696
-0.07227253,66.95211
0.056211144,69.737114
0.16667563,72.47227
0.15784828,69.28669
0.17227341,78.49127
0.1962155,84.1189
0.3040536,81.13612
0.3443356,83.41489
0.50447947,92.94906
0.4934584,89.390114
0.629694,94.18003
0.7967035,101.47483
0.79794014,101.94764
0.87988365,106.48874
1.0304164,108.95745
1.0457448,107.667274
1.008888,112.70805
1.0714241,121.76011
1.1249114,127.72388
1.344333,125.928055
1.397669,130.20647
1.2899913,128.9133
1.3639199,135.02963
1.2909342,134.44604
1.4423208,135.40295
1.3729212,137.87166
1.3982279,141.29752
1.5127746,139.86671
1.4627545,137.43704
1.4196732,144.42146
1.4655566,144.42514
1.4407078,149.28906
1.4091009,145.6485
1.4296356,144.75607
1.3560946,146.0667
1.3476696,146.85774
1.3503082,143.59535
1.3360277,145.62082
1.3645473,139.82768
1.3792852,145.19104
1.292254,143.45863
1.3308933,138.49245
1.1615864,140.82584
1.2918681,139.64337
1.2249644,134.61714
1.1454074,131.9081
1.152147,131.38724
1.142156,131.59941
1.018754,130.52243
1.1215106,128.23164
1.0503985,128.33914
1.1878022,123.36892
1.0742195,122.74127
1.0838577,118.27954
1.1272254,118.27669
0.9897234,117.2533
1.0655584,114.84122
1.0758543,116.92285
1.0422517,112.07854
1.039035,108.73244
1.0997967,106.2016
0.92767304,104.01866
1.0338907,99.955925
0.94866323,101.312706
0.98615503,102.81393
0.98774385,96.98826
0.92067796,94.97316
0.9146042,95.49718
0.7451385,93.66363
0.70536965,87.423325
0.73195153,93.04557
0.71544755,86.032
0.67594606,82.08475
0.6015,86.713585
0.61748606,79.71011
0.5757422,80.2977
0.63718575,79.26753
0.5551351,73.66256
0.61663884,70.29774
0.57733023,72.86533
0.5428148,70.93747
0.55890083,68.742355
0.5258431,67.60765
0.6209335,65.21595
0.5125904,62.90762
0.6193495,61.848312
0.6648368,56.37649
0.66895634,63.102356
0.64249665,60.02429
0.5421401,62.35124
0.48926577,54.49674
0.55022806,54.7414
0.49387455,54.70082
0.5202655,54.829613
0.3996712,58.24058
0.42891368,54.30772
0.40494087,52.267933
0.38987514,61.11324
0.2918393,57.650196
0.34067348,60.578335
0.1804534,59.473736
0.3255834,61.380302
0.24529879,66.90838
0.30232885,61.5727
0.26295188,67.446266
0.41071737,67.92855
0.41479582,69.88538
0.4367027,73.636566
0.46774343,76.090004
0.4795097,81.015434
0.57863325,80.72816
0.62286824,83.35844
0.84070617,87.638054
0.8976345,95.53277
1.0395068,96.570335
1.0000584,92.225174
1.1542616,102.70866
1.2546158,105.617676
1.3705359,105.83625
1.3889215,111.58105
1.3924342,112.51915
1.4886262,122.72581
1.6106011,120.50603
1.6324289,130.02695
1.6011665,123.877914
1.7122424,128.67206
1.6803993,133.72462
1.7528216,133.73103
1.7075363,137.21202
1.7987018,136.08836
1.7304593,139.57274
1.768465,145.56424
1.8013779,142.7934
1.9322515,143.12279
1.7175206,146.42139
1.7392057,147.4768
1.7899296,144.91011
1.8076897,146.46213
1.8076972,143.7614
1.764972,143.27101
1.7482167,148.89525
1.7053646,144.3443
1.6914862,143.72658
1.7293857,141.44276
1.7058088,145.22537
1.5956494,140.52374
1.6544331,141.23737
1.5457956,139.74695
1.5213443,136.71498
1.5991786,134.7176
1.5390929,133.62859
1.4890884,129.99417
1.4720607,129.46945
1.3930075,126.964424
1.373394,125.4054
1.4187688,123.04026
1.4326082,123.89309
1.4835913,119.76024
1.3873858,119.580315
1.4758074,115.24279
1.429347,114.280876
1.494844,114.195206
1.4344262,114.581635
1.3616534,109.95079
1.4938977,105.39739
1.3877892,102.108894
1.4004475,107.313194
1.223246,106.56991
1.3021702,100.838005
1.3613249,101.3374
1.2323465,98.31176
1.1499027,95.472626
1.2003773,97.25364
1.0819943,91.835785
1.0428002,87.773926
1.1040094,87.2704
1.0328925,88.04054
0.959238,82.375305
0.9484574,86.2668
0.90157616,77.34531
0.94596684,78.137505
0.95658135,81.01501
0.9607561,75.48067
0.89790094,71.74434
0.8369887,72.5636
0.949596,71.53488
0.8680966,70.13692
0.91427964,65.10508
0.9595815,68.12202
0.93448657,59.85194
0.9007256,59.05542
0.8829383,62.59415
0.87866443,61.999287
0.87033474,58.29413
0.85168856,58.20469
0.7615232,60.06606
0.7711189,53.054646
0.782123,55.11265
0.7107763,50.98056
0.65790945,52.098923
0.6966048,54.621166
0.59490913,60.923733
0.58764935,56.061546
0.562868,63.07745
0.49762693,63.770847
0.54441744,61.271454
0.49217796,62.388386
0.5116945,66.54637
0.5541994,65.63526
0.5875471,70.043465
0.5971673,65.55728
0.72174317,68.922554
0.7043346,78.62327
0.76249886,77.06204
0.96435827,81.80648
1.0266497,85.14722
1.0136507,86.07625
1.0965236,92.01727
1.2239432,91.46313
1.3095534,105.72082
1.3564621,100.99614
1.4633955,102.591446
1.5089085,109.79968
1.5109953,107.120926
1.6280951,114.694954
1.7001746,115.33845
1.7290031,117.94149
1.783558,123.81493
1.8315252,125.89485
1.9056978,131.15483
1.9064764,134.60931
1.8721025,133.09027
1.9673271,141.85391
1.9990828,134.27502
1.9894578,138.3031
2.0268338,135.28224
1.9941028,138.13399
1.9163694,147.8343
2.0121067,144.22267
1.9411077,146.4216
2.0538292,143.54048
1.9594774,149.40508
1.988392,145.0699
1.8622013,144.74332
1.8620739,149.94147
1.8220388,143.2319
1.8790896,142.43735
1.7946676,143.59395
1.7616429,139.5491
1.7865368,135.69968
1.7305653,134.6966
1.6980606,138.83807
1.6328921,140.348
1.7328554,133.94357
1.6431321,132.1269
1.5877526,129.43196
1.5926039,130.40898
1.6241338,127.44676
1.4738418,125.593475
1.5011188,124.45056
1.3561764,120.18768
1.476268,118.83929
1.4992759,120.518074
1.4053099,123.35024
1.481672,112.7034
1.5171547,113.26996
1.4216671,106.706764
1.4001875,112.28646
1.3729757,111.86305
1.3072927,106.77626
1.4035044,104.88888
1.2757609,102.07576
1.2651126,101.692474
1.2721498,101.460846
1.235133,97.6605
1.1877928,95.880165
1.1686598,93.929955
1.0768158,93.636894
1.0852206,84.356544
1.1013805,87.45282
0.9785693,84.81378
0.96707386,88.611885
0.8738876,79.176994
0.85576063,79.83932
0.8418623,78.80437
0.96921074,76.768875
0.8702349,74.17859
0.8687379,71.09503
0.8012192,72.32302
0.7963081,71.32481
0.88177717,69.05367
0.90841144,64.23211
0.84120715,62.693733
0.8443658,66.5718
0.86653775,59.752216
0.79244906,62.11178
0.7520517,59.209473
0.64796,55.940025
0.729383,59.921143
0.69331217,55.107048
0.6504522,56.613674
0.57363915,52.00109
0.55716205,59.684387
0.5817129,57.19195
0.51894236,61.292374
0.5530564,55.02817
0.47993514,56.020782
0.4344858,60.772743
0.33174777,59.808548
0.3893599,58.07326
0.35238534,64.30376
0.37364742,64.09585
0.5301208,65.9272
0.44507465,63.540295
0.49113885,72.75764
0.49866122,67.791
0.4495878,75.43751
0.56485534,78.04745
0.6418871,79.82345
0.84656924,85.47967
0.7927025,83.888214
0.9117353,91.29567
1.0035155,92.46559
0.99712837,96.455086
1.177405,97.57355
1.2514955,106.696976
1.3073748,107.51922
1.3105556,118.03221
1.3563317,118.137924
1.3994828,111.97427
1.4728277,116.37562
1.5487491,122.65442
1.5413312,127.87324
1.6074159,126.87779
1.7019316,131.77841
1.5989351,132.6826
1.6155767,134.98862
1.5805959,138.23055
1.7256484,139.5927
1.675553,140.29233
1.6531353,142.82494
1.6839787,147.04832
1.6839983,138.97731
1.7050917,144.83545
1.561764,145.74551
1.6487733,141.59099
1.6504868,146.62706
1.6687031,144.60393
1.6364853,142.8994
1.6865535,143.15593
1.5694734,146.64803
1.5310884,141.00288
1.4929432,140.65149
1.4799856,143.98224
1.4542454,145.13889
1.3092207,145.09164
1.3463765,137.60591
1.393648,134.1908
1.1858175,128.73184
1.261217,131.98987
1.2580056,129.69574
1.2330749,127.131165
1.2845685,128.65681
1.1550884,125.43114
1.1422371,123.546745
1.1219842,123.87671
1.0967766,119.6068
1.0424542,118.55546
1.0476173,115.86867
1.0962569,116.16366
1.1461303,107.95783
1.1440448,109.76471
1.0607727,110.958275
1.0001537,105.06401
1.148851,107.52339
1.0212436,104.14055
0.92600596,98.70098
1.0112541,97.94503
0.83692217,97.92861
0.77591103,97.785904
0.81016505,89.06632
0.6287035,91.319016
0.7487601,91.191666
0.6765994,87.37164
0.61737925,83.68639
0.6587953,86.84893
0.5766074,79.67652
0.5651778,80.91594
0.4942035,78.70108
0.45296443,80.92506
0.46166342,72.86688
0.49526072,74.986496
0.5453455,74.127525
0.42580897,65.18056
0.5154049,72.84974
0.47474802,67.59239
0.460909,65.471275
0.32247818,68.11121
0.45602715,67.40225
0.4408399,58.922775
0.43594068,58.701893
0.40788984,57.942734
0.3620166,61.821518
0.24322627,56.3783
0.30195907,57.66614
0.33357084,53.659378
0.2991653,59.796753
0.26131752,57.41728
0.1429075,57.349968
0.11744439,58.22996
0.07416554,60.806847
0.075605854,55.43259
0.07422247,57.879265
0.11954297,59.52474
0.07271639,62.941963
-0.000630359,63.14044
0.05558913,66.750496
0.06921256,67.49161
0.0867799,68.29087
0.13321018,69.53224
0.18489446,72.644295
0.20197147,74.00729
0.30875906,82.92076
0.37669086,79.95475
0.39228204,87.80589
0.51459396,90.363846
0.5539009,94.01996
0.62835914,96.73973
0.72488743,99.836975
0.84362084,98.279205
0.8643128,104.75631
0.97155,108.54276
1.0994744,109.399796
1.0633186,116.29577
1.1191354,119.80121
1.173239,122.412094
1.1847863,120.708885
1.2856853,127.77964
1.2997118,125.56698
1.3131511,130.87192
1.2782443,131.14104
1.4713519,137.05397
1.3337867,142.30118
1.3846194,142.91434
1.320332,136.98215
1.3206363,142.28091
1.3910469,145.2831
1.4156168,142.59744
1.3061014,147.46887
1.4579258,144.29764
1.3687495,145.0294
1.3513662,142.10876
1.3995894,142.5649
1.318244,146.78801
1.2183447,144.4092
1.2245255,148.50931
1.1717503,143.87311
1.180867,141.54773
1.2069969,136.72414
1.162134,139.11098
1.1104494,142.06319
1.1879803,137.45233
1.0723115,133.18861
1.0305316,132.03401
0.9907584,130.66411
1.0527151,127.82469
1.0366044,126.41396
1.037952,127.44596
1.0253019,121.47189
0.8719016,122.53162
0.9151455,119.17342
0.93973714,118.036705
0.93451375,112.43438
0.8805137,107.1265
0.9180476,115.065056
0.9390188,109.76312
0.71797335,108.33403
0.7992486,107.09469
0.7924111,102.70643
0.7568178,104.80826
0.7623591,106.673645
0.7211286,101.779594
0.7026224,98.29157
0.6906125,97.87189
0.6035,93.156685
0.60817003,88.53284
0.5612993,88.693214
0.54609555,90.02014
0.46237683,85.803375
0.42757672,85.05171
0.41525227,81.2681
0.37544698,83.50615
0.27989414,78.39037
0.37413144,74.72538
0.4012935,76.3385
0.35180542,69.55388
0.39817214,70.03432
0.3766728,70.59463
0.3620227,67.00524
0.32355127,68.60641
0.37915918,60.937916
0.3606169,64.80261
0.2635327,60.74571
0.3467749,61.672337
0.34702495,60.80698
0.37863722,55.507214
0.34703565,62.81097
0.32241455,59.79652
0.30528006,54.91022
0.1930047,55.70789
0.2407222,53.993507
0.070101514,54.054855
0.1315828,56.984577
0.11612037,55.5009
0.106109746,58.088657
0.022309013,56.944496
0.031338267,57.526653
0.06299866,60.29358
0.034206077,59.60709
-0.012440434,62.56954
0.004143833,67.098076
-0.06691902,65.95633
0.07508518,67.21546
0.12899686,69.93021
0.17710093,77.15672
0.234656,78.4024
0.33463672,80.56529
0.30423856,80.3822
0.5640199,87.5549
0.43095073,92.268974
0.7030041,94.29646
0.6718269,96.075066
0.8368967,97.15402
0.81781083,107.45804
0.9821731,109.39393
1.0416838,109.76665
1.0826832,112.35717
1.2501862,115.281105
1.1164051,114.79435
1.2511588,125.648094
1.2343541,121.16073
1.3458508,128.9978
1.3231814,128.88055
1.3548695,134.75923
1.4572262,135.64076
1.4435651,135.10123
1.4621164,136.7716
1.5302719,139.38715
1.5431889,142.05547
1.4928503,144.15381
1.4039673,144.29842
1.5323529,146.97614
1.440195,144.2069
1.475771,146.22253
1.5330721,147.43794
1.4643548,141.65033
1.3686088,144.15631
1.4356512,139.13727
1.454112,148.2085
1.4184725,144.74866
1.3673422,146.04431
1.2739522,136.99005
1.3009703,142.29698
1.3149747,138.74892
1.2916025,131.80075
1.1692822,133.93892
1.2382014,133.29259
1.1837746,133.45593
1.197059,134.82642
1.1378362,135.46729
1.2322971,125.348816
1.2099913,122.88184
1.2718229,122.07576
1.2449527,120.92031
1.0677227,119.44701
1.1539193,118.46871
1.1546896,113.75694
1.154937,114.68564
1.1132286,115.37315
1.1445566,114.80044
1.0253648,107.490204
1.0590471,110.04444
1.0681449,103.88049
1.0371888,101.78942
1.0734497,99.6741
0.97869897,99.80946
1.02838,95.63703
0.84826875,96.59758
0.8548922,89.96794
0.8724571,96.98287
0.825,92.02459
0.905058,86.84202
0.753304,84.94714
0.6538733,86.36774
0.7024265,82.941345
0.6909477,82.21693
0.75650984,78.4775
0.7447341,75.56642
0.6063363,75.5521
0.6879623,76.68904
0.5809204,66.53635
0.7262819,70.308105
0.63661903,67.78921
0.746866,70.44026
0.6081553,68.878296
0.5753149,66.67824
0.6651878,64.53628
0.6488676,62.525967
0.70534074,60.384773
0.62180877,55.16719
0.711176,58.927536
0.5448968,56.437904
0.61857927,53.536213
0.55804133,59.499435
0.57842237,53.889984
0.48066804,55.95778
0.5002591,54.98259
0.4287937,62.307907
0.43883464,55.751503
0.43756908,57.2167
0.31972542,54.949192
0.33094183,57.45559
0.28982714,63.52452
0.33515373,65.23337
0.36354604,65.78387
0.42613542,67.43191
0.47957638,68.94982
0.48939112,71.39092
0.56238574,76.276665
0.618348,75.207886
0.7412822,80.117004
0.7496104,79.3345
0.8459747,82.487
0.9165838,85.553246
0.9998777,89.54094
1.01671,93.973015
1.161559,97.92411
1.2331294,97.95392
1.3779805,99.84149
1.3690962,108.856705
