ppg,abp
0.99145824,71.85851
1.1922221,75.76026
1.1319708,78.661766
1.2351094,73.85702
1.3791151,77.872086
1.3684641,81.2879
1.4775074,77.550224
1.5203314,85.55825
1.497565,81.7639
1.5677608,80.99011
1.6935222,83.58774
1.6719673,84.65808
1.7310102,88.37483
1.7409455,90.06231
1.7788739,88.749214
1.7310858,88.25077
1.7729797,88.12378
1.5673571,89.18786
1.7287788,89.02238
1.7726552,90.15817
1.6054947,92.48606
1.7399646,85.76555
1.6764634,86.28597
1.7668269,86.77691
1.6856534,90.76949
1.7025331,92.54484
1.6177465,85.051094
1.6990814,89.085144
1.5550208,90.25747
1.6857293,87.70444
1.7198184,88.765625
1.6901577,86.1619
1.5152227,90.871666
1.5239944,84.59756
1.5281656,86.36872
1.5054488,84.1734
1.3913348,83.05387
1.3603216,82.09053
1.3389391,85.1944
1.4241798,85.80655
1.455988,78.77355
1.374723,78.65859
1.3554071,80.8728
1.4815531,80.23118
1.2746133,78.11686
1.3928721,82.04417
1.3377969,78.545616
1.3367336,75.20035
1.3495318,75.657585
1.3443494,77.33205
1.2574942,73.80054
1.2946346,76.325226
1.3370243,75.80322
1.4238262,71.743034
1.225853,74.012436
1.2201947,75.999695
1.1784483,69.57719
1.2407397,72.92124
1.1503117,71.82302
1.0656662,64.96947
1.0527773,70.60437
1.0357659,69.24155
1.010821,70.16074
0.99608713,68.13203
0.86450964,70.83192
0.95675373,66.75036
0.9679493,64.338234
0.9276271,64.66214
0.8310902,62.94826
0.8295997,62.262543
0.8921148,64.795105
0.8577073,61.39853
0.7180838,63.571476
0.77308273,61.528553
0.90081704,59.526375
0.9143124,62.447235
0.82218295,56.388855
1.0442222,59.41407
0.880643,58.00988
0.8464934,60.890945
0.8180792,56.58854
0.8419345,55.359154
0.81739485,54.1097
0.8381816,55.892136
0.7136886,56.417675
0.65671045,61.81567
0.6785351,54.069523
0.6875349,52.835068
0.5996563,54.99358
0.6605673,54.79201
0.6197889,57.308056
0.50687826,57.994747
0.5315745,57.55416
0.49710208,55.592392
0.5081395,60.49894
0.5426272,60.73418
0.46781507,57.32947
0.67262405,58.125626
0.55878997,61.02517
0.68743384,62.222157
0.70394564,63.006668
0.67612284,64.44062
0.7875398,63.921585
0.91686916,62.448734
0.92902195,63.70357
0.9509264,68.27541
1.0541598,67.14337
1.1242177,67.66233
1.3757504,69.981926
1.353809,72.07529
1.4262112,77.21308
1.5555726,72.41307
1.6010529,77.84989
1.604628,75.804634
1.6824504,75.27376
1.7347752,83.295204
1.816075,82.337425
1.852044,82.13148
1.9300222,80.696014
1.8977295,81.03205
1.9909652,83.2052
1.9900366,83.60937
2.0102158,85.52498
1.9554262,84.5543
2.0260181,87.89254
1.9498048,84.18214
1.9572777,88.62751
2.0787969,87.33398
1.9090699,87.81956
2.0042624,89.402275
1.9033515,92.05883
1.962543,92.437904
2.0045438,90.22162
1.8668252,88.25697
1.7931126,88.27293
1.8804827,89.68284
1.9003788,88.94981
1.8689643,91.2002
1.7966568,85.367355
1.8762051,87.785255
1.6951628,84.97244
1.7106116,79.45653
1.738757,89.459595
1.6497146,86.123474
1.6838304,85.50777
1.7240653,85.30192
1.5493993,84.06301
1.5785978,83.09953
1.5733179,80.0346
1.5640208,81.10109
1.5927943,80.915085
1.517735,79.01143
1.5069989,80.42979
1.5204766,76.51529
1.6059802,75.48798
1.5360571,76.48666
1.4457054,77.34468
1.3679962,76.78366
1.4974989,74.023415
1.4756463,75.32048
1.3484703,73.71635
1.4305944,73.944756
1.3937246,78.70093
1.3752728,69.02786
1.3176947,72.237785
1.2859958,71.274635
1.2660686,74.26571
1.2379214,74.17311
1.1717635,72.02896
1.0381567,69.1482
1.1812016,67.907036
1.0348239,68.72951
0.985484,69.29583
1.0011607,67.706604
0.89123344,62.00096
0.9372095,65.23637
0.87636644,62.89659
1.0139722,63.51759
0.9772124,62.787495
0.8943076,65.11848
0.84515697,61.27816
0.92619747,58.601612
0.95015407,60.906063
0.802413,59.660625
0.8198214,59.072628
0.8383357,60.11225
0.79846954,63.04824
0.8299626,56.9838
0.77924037,62.698418
0.7353213,55.067722
0.63437456,56.30923
0.75907934,56.97677
0.66264653,57.622055
0.610882,56.541134
0.57113427,55.49663
0.5301656,54.424698
0.634272,56.263836
0.46471936,59.580013
0.4769442,56.149773
0.52997804,55.58583
0.4876002,58.42567
0.42920777,58.15641
0.5514282,58.70744
0.38603264,59.997047
0.45193508,62.629642
0.4509959,57.75101
0.45510805,63.513844
0.5432945,55.59175
0.50015634,60.440025
0.5784016,63.95293
0.60232806,68.34679
0.7878037,66.72242
0.76044816,65.994
0.8107178,66.043274
0.94170946,69.55888
0.97434103,68.4709
1.0664201,72.03994
1.1767528,76.09491
1.1481752,71.0708
1.2447236,76.78951
1.3519188,75.041626
1.405441,77.09051
1.5633006,77.40541
1.5848156,81.32449
1.5856681,76.30206
1.6346844,79.024796
1.5498946,80.88471
1.8250198,81.60064
1.6359571,84.61512
1.7205374,83.32709
1.6204245,86.58443
1.7622786,82.0004
1.7370842,85.46642
1.6636258,87.12092
1.8261735,85.16346
1.7780346,90.591415
1.7344626,88.250465
1.8202922,88.44265
1.8553274,90.53829
1.6838056,87.40062
1.6294129,92.41446
1.781976,83.95624
1.6604323,93.56451
1.6012521,87.103134
1.6500366,90.02766
1.5565805,85.07023
1.6429424,82.96348
1.5552802,85.8805
1.4667866,86.69652
1.4296308,91.13342
1.3617593,88.00696
1.3612862,86.708
1.2431698,85.24931
1.409783,87.15057
1.2230102,82.630066
1.3106213,85.38554
1.3172182,85.21151
1.1759529,81.639885
1.2681493,80.12021
1.1977886,83.826965
1.1876321,80.82681
1.0621725,78.89698
1.1142299,77.15509
1.0670031,79.116646
1.1528608,74.5157
1.121285,77.38774
1.176882,75.68515
1.0756567,77.28767
1.1467702,73.11568
0.9482452,70.70479
0.9762115,72.985535
1.0668952,75.99189
0.878171,76.782715
0.94881344,68.621635
0.9239275,71.17738
0.75477344,73.133575
0.8370645,66.71206
0.85323924,68.76572
0.64954644,69.55215
0.68462205,69.106964
0.6890313,65.914955
0.5850486,66.10109
0.5267445,64.80322
0.597313,63.570923
0.5144811,68.07818
0.5042359,61.041607
0.48053274,61.087822
0.46428314,60.318718
0.48822284,63.49251
0.47095272,62.410816
0.507211,62.93659
0.4918226,58.45713
0.4663844,56.687286
0.40059254,59.26455
0.5529532,59.96237
0.6509655,56.781265
0.4525111,56.364784
0.3161199,56.5909
0.31913137,53.77951
0.4345363,54.8995
0.3578507,51.199352
0.27223295,57.29749
0.3130441,53.564236
0.333733,58.784157
0.23314802,54.048344
0.20787242,49.52443
0.19743036,53.826363
0.070303604,55.482918
0.16156656,57.031628
0.1299188,58.910267
0.010381541,57.320244
0.040308535,60.85038
-0.02365239,60.194298
0.033416625,58.0634
0.06729171,63.86605
0.03959856,59.04284
0.20405996,60.052914
0.117287785,61.23524
0.22733632,65.787254
0.31202528,62.050915
0.39920813,66.406906
0.41989425,67.194664
0.54839605,66.667145
0.55384034,66.65613
0.6331237,68.76473
0.70139885,69.53536
0.79504365,70.51292
0.90343475,73.04363
0.93006927,76.76865
1.0624983,78.642784
1.1052037,74.217415
1.0235583,77.59995
1.1098306,77.977264
1.1222882,81.58874
1.2748013,83.265434
1.3106066,84.545166
1.3626708,82.11531
1.287935,87.19961
1.2808166,86.49794
1.3446364,87.39222
1.4105991,89.5753
1.3723387,88.76308
1.3923539,88.05066
1.4505564,89.07437
1.4181718,89.84543
1.4500936,87.225746
1.5280348,88.9147
1.4482709,90.93343
1.4447949,89.584114
1.3464243,86.055786
1.2668695,89.380905
1.3757854,87.02954
1.3740721,89.59605
1.2324437,90.95849
1.2338519,85.96524
1.0884691,83.50131
1.1972901,91.92779
1.1566463,83.67882
1.14405,88.72414
0.99004,87.532745
0.96748734,85.68262
1.0508784,86.106544
1.1273327,82.904076
0.95677054,81.8152
1.0844644,84.36205
0.859576,84.701256
0.943466,81.248795
0.9897819,81.51122
0.8795264,82.43796
0.9095267,81.921555
0.9003162,79.374916
0.93648833,80.06528
0.8754033,80.20435
0.9653448,80.129616
0.880396,77.21339
0.91006744,75.09827
0.8812335,74.68673
0.80009866,77.82076
0.73641783,74.02612
0.852605,77.1754
0.7190523,72.29931
0.8497467,70.08203
0.6622025,65.372
0.6217002,73.11561
0.7275623,71.94464
0.6345953,66.569305
0.6352484,72.26071
0.47697142,67.00949
0.44717142,67.85529
0.5304616,67.08769
0.63329345,69.78591
0.5135193,67.295425
0.22762254,63.206326
0.3563294,60.376053
0.33619145,62.090187
0.37129956,57.843334
0.31704253,62.691677
0.4124097,66.16947
0.31229427,60.36629
0.18511102,63.88109
0.33959088,59.649967
0.28311536,58.005512
0.30384877,58.74304
0.2927305,58.890404
0.19415444,56.62116
0.27688646,56.83408
0.21042967,55.187347
0.32431492,58.243923
0.25292027,53.93661
0.2344965,58.73398
0.24575323,56.666367
0.24970105,56.23152
0.103614874,59.75972
0.045987178,54.38998
0.064996175,57.95688
0.10527073,51.47266
0.037349332,55.603874
-0.08006893,59.148487
-0.0440037,55.374607
-0.09118388,56.973938
0.034359407,56.268208
0.0073834234,57.860756
-0.007460266,60.013687
0.06729557,60.22219
0.08114445,60.030643
0.12026385,60.81626
0.10151676,62.827805
0.33424598,67.95621
0.22581053,66.197136
0.30905196,63.381996
0.4101538,68.19776
0.52171314,66.60924
0.49937826,66.39414
0.79112256,66.330345
0.8856557,72.232895
0.9228826,71.627594
0.9233098,72.74516
1.1012241,69.118866
0.87540746,76.00938
1.0853722,77.60302
1.1778493,77.73527
1.2667769,78.50384
1.3481656,76.260376
1.2891166,83.49405
1.3175209,82.36801
1.474076,83.89528
1.3866549,81.78533
1.4254533,84.74012
1.4233912,83.556595
1.528371,82.42689
1.4543087,86.101395
1.3839927,86.62559
1.5526257,92.630974
1.524645,89.76116
1.4635549,89.88874
1.5073527,90.66942
1.4554297,89.74044
1.5271527,88.19545
1.4124824,91.35974
1.4509405,91.683075
1.3891304,85.88012
1.4317371,88.05208
1.4045163,89.577835
1.4349164,88.6781
1.3567266,91.47423
1.3096027,86.97265
1.3230274,87.763176
1.3527344,91.51871
1.2077928,85.2908
1.2376574,84.3736
1.2261149,78.81553
1.243948,86.452354
1.0230896,84.05118
1.1432184,80.838455
1.0462022,82.54012
1.153036,82.01269
1.1962429,81.710266
1.1453977,83.85821
1.1538063,80.05389
1.0630492,80.60501
1.0535852,78.32166
1.2331408,80.60528
1.1413925,76.74816
1.1192299,73.49072
1.1486237,76.09424
1.0655248,75.61491
1.1226112,77.02499
0.976846,75.8153
1.003835,75.56166
0.9966778,76.17469
0.94771326,74.888054
0.94720685,70.96571
0.93895024,72.28594
1.0040011,68.32904
0.8764145,73.14902
0.7221019,71.78987
0.8505554,71.90001
0.8013255,62.850616
0.73014736,69.29362
0.814482,66.96939
0.7514394,67.77047
0.62602794,62.98594
0.5959593,67.205734
0.6977103,61.588596
0.74751663,61.52074
0.6223875,62.603443
0.7102265,60.26822
0.6764226,60.881466
0.65450567,57.291122
0.6579559,61.396492
0.60740376,58.259018
0.71412015,57.772427
0.63177514,57.665077
0.6038788,53.139854
0.6005161,57.98748
0.65392834,52.81752
0.7203759,58.249523
0.5244814,54.963024
0.6077284,61.246525
0.561319,58.311897
0.5542927,57.074142
0.52813804,55.015068
0.38137895,58.35618
0.5627846,54.9157
0.46595994,54.848442
0.4358642,55.17556
0.29937607,57.000103
0.3871209,58.284115
0.4145008,54.464188
0.3072598,59.31457
0.36802995,57.221596
0.32520583,57.139423
0.4054325,59.10304
0.612551,62.71318
0.4612187,64.89556
0.55594665,62.6463
0.53591335,65.637314
0.7232805,69.64957
0.727914,64.2758
0.7326146,65.53346
0.9824982,63.530838
1.0677991,70.848946
1.0521482,69.368416
1.1815848,72.63056
1.2988236,70.3604
1.2411504,73.84848
1.3366795,79.09086
1.5110742,76.59217
1.5344532,73.4524
1.6198051,83.17072
1.6314148,77.13855
1.6769278,78.952866
1.7247174,80.98499
1.7742587,81.485985
1.8537523,80.8237
1.7121326,84.098694
1.8495103,87.10335
1.833904,88.075096
1.7150229,82.6596
1.8211329,86.55569
1.8992417,90.87607
1.8894116,90.27143
1.8072566,89.78029
1.8468138,86.732765
1.960072,96.77772
1.8490262,89.8206
1.9360403,89.35118
1.7512856,89.761536
1.886299,84.35575
1.8000354,93.06647
1.8149279,91.86266
1.835767,89.49401
1.7736917,86.40245
1.7899944,86.67193
1.651091,90.5626
1.58916,90.291176
1.7217593,86.32844
1.6521033,86.26186
1.5014881,83.63446
1.5894291,82.17873
1.5381533,83.42268
1.5662172,82.53732
1.5425715,81.10594
1.4302938,80.42737
1.566918,84.50892
1.4847734,79.21812
1.6113201,81.404655
1.436036,76.28194
1.5081563,77.25939
1.5065345,80.17119
1.4620897,80.77111
1.4683167,77.09451
1.4545333,80.92361
1.4837992,71.84361
1.4837457,77.237076
1.3379445,76.71881
1.3171549,73.54506
1.3818136,69.66338
1.227768,69.50959
1.309806,72.69416
1.2849245,71.48407
1.2690084,70.46537
1.3122529,72.32386
1.0663877,64.35214
1.1176502,69.82862
1.1539202,68.21229
1.0977705,64.585754
0.9831863,70.20363
0.99666214,66.17382
0.9955427,60.769146
1.1107119,59.8532
0.9381352,66.59931
0.85937333,59.372276
0.96882576,64.712456
0.9722785,60.678143
0.8804329,61.70231
0.928144,63.95985
0.9825121,57.263763
0.8841615,59.51951
1.0114955,62.6302
0.9440625,55.307438
0.8209593,56.80636
0.8968772,57.147026
0.98864895,58.01807
0.9289623,56.37519
0.8050343,55.12173
0.86056405,55.79432
0.8137411,55.083767
0.67566997,56.933292
0.7548007,55.84822
0.73423576,55.624588
0.6327224,57.937042
0.6476489,53.618217
0.53107345,55.45422
0.6673736,56.63697
0.6115945,55.488747
0.5097363,56.961437
0.6796896,55.308514
0.6537245,59.161293
0.5146188,58.82781
0.54529196,58.017838
0.6225289,63.56044
0.6802001,62.417076
0.6045618,63.90337
0.63087964,64.687454
0.8837879,60.507965
1.0142639,66.15491
0.93608654,70.42753
1.0911286,69.505875
1.1578155,64.670746
1.2205782,69.13229
1.304089,70.40132
1.2663739,72.87838
1.3134307,73.79702
1.479612,72.958305
1.5592773,75.75517
1.6185384,79.92222
1.6690538,80.18694
1.7151364,83.9059
1.7233158,79.359436
1.7297899,78.49414
1.9068931,80.17918
1.8937018,83.86134
1.834975,89.05051
1.8919058,85.78818
1.8580974,87.52656
1.8132821,81.10277
1.9102416,86.30756
1.9539365,89.131065
2.0426137,90.209274
1.861733,88.05684
1.7501674,88.81105
1.9620517,88.457085
1.9514484,86.54002
1.9738199,91.27643
1.7767394,89.09845
1.8414788,89.06491
1.8177862,87.71258
1.8410667,87.76907
1.8162798,87.779274
1.7047943,84.81637
1.7210997,89.7328
1.6574686,90.09862
1.6841258,87.9183
1.654525,88.053764
1.5799948,86.07017
1.6119456,85.33793
1.6060894,85.299065
1.527687,86.84609
1.4656076,83.04864
1.3999032,82.26783
1.5555035,81.95757
1.4049358,81.17482
1.456995,77.50355
1.3593796,81.29515
1.4469919,75.91033
1.4483318,81.11689
1.4546452,80.192986
1.2841964,81.29481
1.3286259,79.0775
1.3175662,77.37044
1.2931776,76.93596
1.3408939,74.78669
1.3660574,75.17721
1.3564024,74.77939
1.2311412,76.017075
1.0669792,73.43249
1.1607566,75.02746
1.2229276,72.65908
1.2086139,67.362625
1.0816337,69.58586
0.9169812,72.35699
0.9735207,64.94452
0.90679085,67.170204
0.83793926,62.850304
0.80136913,66.869095
0.82096714,68.40501
0.7942011,66.45219
0.78885347,64.59532
0.72525734,63.341705
0.7481048,63.626987
0.7475396,62.50158
0.683865,57.282555
0.7704533,59.63392
0.800629,63.930683
0.7862767,62.273037
0.70203394,54.651596
0.5903189,59.820633
0.6498558,57.76466
0.7248152,58.513058
0.6270165,55.166996
0.63375396,57.373318
0.63794374,61.956535
0.5788457,54.082005
0.5919733,61.447266
0.6717379,58.29731
0.62293047,55.72965
0.5881267,57.16231
0.4205636,54.537586
0.41843888,54.875366
0.5207286,55.940098
0.3486152,56.63281
0.22210963,60.79107
0.25943834,60.349186
0.31502357,55.84834
0.26565596,55.576145
0.2718975,58.832367
0.27534026,57.16418
0.30200735,57.186825
0.31605226,57.593338
0.3431704,62.13806
0.35296696,62.212936
0.4523621,63.65019
0.4170857,64.11215
0.62934256,63.89942
0.5748873,66.1402
0.6765468,68.54221
0.70578015,66.90623
0.780277,72.0797
0.87388754,74.03761
0.95951974,70.43544
1.0661016,76.03479
1.135126,71.77897
1.1465652,76.67363
1.1225173,77.70753
1.3005357,80.02225
1.3816035,75.93763
1.2711519,84.14405
1.4415318,80.88816
1.5212836,77.65277
1.4661816,84.422356
1.4568372,82.971725
1.5095093,85.25944
1.5875744,85.550285
1.6668937,90.94628
1.6354886,84.875305
1.544954,85.31373
1.5498265,88.54663
1.5501412,83.269135
1.5372398,89.58393
1.5690355,84.20565
1.5913303,86.49764
1.5257441,91.11904
1.5806396,88.049576
1.4766523,87.05438
1.5138109,94.363625
1.395716,90.5856
1.5685351,93.35412
1.324637,90.71087
1.4301116,87.9242
1.2336025,90.86934
1.3236634,85.80834
1.2726077,86.935165
1.2027141,86.52406
1.1999141,87.70977
1.17553,83.64895
1.1535299,83.981926
1.128593,81.8188
1.135357,82.52461
1.1314228,86.147095
1.0201858,85.96328
0.96030796,84.02471
1.0130336,83.179855
1.0383126,78.99015
0.914258,82.426254
1.0363001,78.76815
0.96267474,74.67451
1.0989418,82.663216
0.89813805,77.47013
0.8727647,78.42101
0.86935705,76.30042
1.0736523,72.24462
0.92653936,73.12875
0.9501491,74.550514
0.89170647,76.015884
0.7988475,68.43831
0.7675209,73.93156
0.76088697,69.55784
0.65879023,70.967865
0.7185605,70.97938
0.66209465,71.914276
0.6879563,69.13765
0.48100343,65.58198
0.56368124,66.94162
0.5528036,67.31963
0.45429555,61.518177
0.38675076,65.17132
0.3510622,66.938774
0.4428195,62.480396
0.37284458,66.32381
0.34207964,60.402134
0.39486203,64.60025
0.33333245,61.53258
0.3705283,58.30034
0.29519668,60.424976
0.4070142,60.8658
0.2875814,57.70646
0.3476133,57.08247
0.37649056,55.526855
0.4165934,59.0078
0.2712156,58.613613
0.33587524,55.968708
0.28462845,60.24681
0.20211937,59.72371
0.18883793,56.2517
0.1532784,57.323837
0.24812396,55.129658
0.10911521,56.55548
0.08995819,57.360176
0.001948018,55.242054
0.078675345,54.472
0.011851871,56.882946
0.044276875,63.56381
0.07345566,62.93385
-0.021867909,55.345592
-0.029636545,57.73828
0.028660554,58.572792
-0.0060303677,58.766327
0.09137855,60.96009
0.056601807,59.41425
0.062416784,61.977604
0.17539074,66.975204
0.3457097,62.872826
0.34659997,69.79429
0.3461886,63.98463
0.3399411,70.35316
0.5248837,67.59875
0.534625,72.2477
0.5720645,69.76588
0.7306766,73.147125
0.7583086,76.50669
1.0035408,78.20372
0.83237827,76.03443
1.0077914,75.97179
1.0797937,77.28937
1.0972103,81.90225
1.2413609,77.33166
1.0076617,80.3825
1.1695547,81.96183
1.3753617,79.12312
1.2480187,82.923676
1.3682522,80.89517
1.2770461,83.157845
1.292111,85.516624
1.3969102,86.174324
1.360544,84.73674
1.4759251,88.50359
1.4268992,91.18367
1.408555,88.21287
1.3536888,93.91592
1.2870831,88.575294
1.4049199,91.62479
1.3170716,88.511894
1.2857676,87.60825
1.3195666,89.80929
1.2622113,85.92074
1.1750863,86.69284
1.144108,84.04295
1.1370064,86.39464
1.2098315,86.99582
1.2393731,87.183914
1.0898899,84.04784
1.1316556,87.307785
1.1081992,90.391754
0.99342483,86.01553
1.1415812,85.1907
1.1068535,81.819305
1.0936217,83.60888
1.0016586,79.88062
0.9490566,82.98161
0.89299226,80.54118
1.0452707,81.63046
0.9769596,81.63068
0.9005815,76.52621
0.9272966,77.94315
0.9339341,78.98599
0.86198443,77.54978
0.9219947,75.76431
0.95157254,80.53745
0.91553944,78.40256
1.0204858,75.19843
0.86845773,71.06606
0.91457736,75.59616
0.811051,74.074974
0.8190439,73.83527
0.75084436,75.01
0.7018657,66.942726
0.7564624,69.16755
0.7141303,69.713165
0.70876783,69.94781
0.7297541,69.20418
0.5529189,68.14589
0.56918937,66.62014
0.49741915,66.84084
0.5560735,67.08706
0.475914,68.96789
0.51067173,60.37717
0.5427213,63.037872
0.4465481,63.388885
0.4845506,64.35542
0.41784894,58.676453
0.355072,58.797
0.38639748,60.4314
0.44339645,58.65951
0.41881952,59.202984
0.51373345,59.730843
0.4430673,56.0155
0.4282778,57.62155
0.3828928,59.814796
0.34266075,58.278053
0.4112433,55.7954
0.37803352,57.32922
0.4237773,56.461594
0.3687066,56.19739
0.26916832,56.41093
0.18067443,53.32336
0.2220191,54.648716
0.2591086,58.65035
0.22758663,60.550934
0.09648448,58.86727
0.054065667,60.98118
0.16458894,59.172905
0.110895455,59.24625
0.05494987,56.867718
0.117196344,59.80887
0.18209824,60.095493
0.25973704,60.235107
0.17494301,59.692688
0.11513571,60.89141
0.2482649,59.89195
0.37885192,63.949104
0.43677673,63.847324
0.5062106,68.06981
0.6472471,68.37714
0.5827892,70.41232
0.6867332,68.00409
0.7892353,71.85552
0.7970091,70.57746
1.0299977,73.90731
1.0163043,76.961365
1.084427,70.92104
1.1692907,76.941246
1.1789061,72.36634
1.1702499,77.50778
1.3367397,82.08149
1.4324855,83.933945
1.3474076,79.54268
1.4157321,85.966286
1.567168,85.88766
1.5447437,84.903595
1.5455211,84.027885
1.576573,86.134285
1.6041332,87.73063
1.6318388,89.567795
1.5024362,85.90874
1.6908928,89.784
1.6866573,89.726074
1.464834,87.24918
1.6809851,88.261185
1.6764737,89.87083
1.7055331,87.23201
1.6855357,89.01137
1.4938288,85.765816
1.6230565,89.69416
1.3903394,88.55569
1.5926341,87.360374
1.5800774,87.45747
1.5726943,85.4032
1.5314035,86.66472
1.5603889,87.030655
1.4968609,85.01016
1.4445629,83.36389
1.4249791,83.1733
1.4023385,83.87814
1.3839289,87.84654
1.3481746,81.824326
1.3010676,81.267395
1.337762,84.89093
1.2751316,82.55295
1.4340843,79.380264
1.3817552,77.1499
1.3890826,79.37429
1.2946681,77.06682
1.3783139,81.18167
1.2758617,80.713295
1.2321239,78.433334
1.284734,75.956116
1.2066408,74.75557
1.2550993,77.75716
1.2726299,76.89554
1.2033745,76.13713
1.2028449,75.37747
1.1869321,74.58503
1.1940085,75.46127
1.1299918,73.74116
1.1105179,71.65816
0.9901785,71.22698
1.0858153,66.25443
1.020718,69.35513
1.0510252,68.253296
0.87246555,68.61959
0.8776047,64.77944
0.8236202,64.954704
0.9087742,68.62457
0.68557256,65.60846
0.9486171,68.91981
0.89605,60.424706
0.7863722,63.859753
0.836994,61.270622
0.78196025,60.84831
0.8374736,60.47264
0.8578087,61.067825
0.806628,63.063602
0.810145,61.60313
0.7898441,56.543926
0.76347387,58.5589
0.8591683,57.467194
0.7206166,59.522633
0.8328377,56.188313
0.75615543,56.674496
0.6937086,54.91564
0.73455817,56.328495
0.68718517,59.082405
0.70967084,57.46999
0.68322706,55.78677
0.6627409,55.100677
0.64134336,51.661926
0.49315518,54.745445
0.5049529,57.14598
0.5402122,54.601494
0.5271217,57.613293
0.48009494,54.71712
0.45940167,59.24015
0.579238,56.58745
0.5302247,60.64076
0.52187556,58.67092
0.48420954,59.721638
0.599212,61.533165
0.7578663,61.31151
0.77295434,64.2865
0.75335854,62.410583
1.011009,66.36946
0.8861138,67.429306
0.9521356,68.43022
1.0850644,72.31797
1.2629268,68.91924
1.2567517,72.28949
1.2673575,71.09049
1.364725,75.59059
1.5225837,77.2829
1.6638272,78.66082
1.5473537,73.48402
1.7221379,79.32837
1.7503653,79.522026
1.7523149,79.07198
1.9283586,84.5172
1.8281033,85.27262
1.8168032,87.30817
1.8858795,81.70958
1.9224012,81.65964
1.8507466,84.356705
2.0022976,85.04523
1.8566658,85.7898
1.9285525,82.89918
2.0645416,86.71866
2.0603259,88.45923
1.9746425,90.30071
1.9422026,88.18356
1.8559742,90.84364
1.9080309,89.88455
1.8999621,89.442406
1.9748974,91.50919
1.9487134,93.3333
1.8389643,87.691795
1.9016609,90.09784
1.8952479,91.34826
1.8737613,89.42731
1.7335536,88.37387
1.7570488,87.116554
1.7433741,87.11077
1.5608646,90.52838
1.6709582,85.22401
1.5576185,79.97934
1.6701612,84.933365
1.6279161,79.99255
1.6761206,85.09865
1.5927205,85.32383
1.6121268,79.29602
1.6171684,81.68351
1.5649891,77.46525
1.4552418,74.36974
1.6265916,78.420006
1.5943819,79.18552
1.4921163,79.32721
1.4941386,75.75657
1.3524016,74.48656
1.3890624,78.62805
1.4629831,76.50644
1.3903682,74.64646
1.4213281,75.50371
1.2537085,73.308876
1.3337736,74.87379
1.3519882,73.11567
1.1909888,70.4887
1.2565197,71.19292
1.276872,70.11012
1.2357166,66.92773
1.1369388,67.63808
1.1060203,68.432045
1.0792966,64.90832
1.0233533,64.00583
0.9844171,67.9834
1.0638946,66.44281
0.9470801,64.80815
0.9776908,61.958378
0.9039095,61.737495
0.89427215,65.1762
0.93796,61.2343
0.86716586,64.99463
0.8144846,62.57533
0.87381244,62.724907
0.7734686,61.627678
0.90658283,60.689514
0.91261023,59.400402
0.80238354,57.64342
0.8253315,59.80624
0.79670084,57.047356
0.7775348,60.3774
0.85728884,57.34823
0.8702823,55.660316
0.8372091,58.084324
0.70863193,57.242554
0.76872724,53.137226
0.7351056,57.288296
0.6478459,57.22182
0.5371986,58.389275
0.5077167,57.752674
0.4634448,58.08691
0.56116724,55.67765
0.5084142,52.71063
0.4741719,58.226826
0.4223172,59.503452
0.5497422,56.260597
0.6040908,58.593746
0.42264596,66.77783
0.5308864,59.578793
0.5432149,61.12057
0.7465491,63.77242
0.6409357,65.3321
0.74541116,62.797726
0.90083116,66.64955
0.9925291,69.49377
0.88211465,66.9891
1.0158739,72.91997
1.1635929,70.47793
1.1517762,72.984245
1.371354,73.667885
1.4340385,73.32045
1.4666446,72.316605
1.5465124,76.8124
1.524539,78.14977
1.6164798,75.014435
1.6629725,81.47397
1.6133459,82.59853
1.6222179,82.192986
1.6956296,82.856224
1.5961051,84.648605
1.857589,90.79987
1.8006362,83.05585
1.7711693,87.54341
1.8590934,88.627785
1.8172802,89.17729
1.8108244,90.51553
1.7511904,87.7221
1.8397878,87.805305
1.825101,88.05554
1.749561,87.02883
1.7570343,91.713715
1.747204,90.488945
1.7370291,89.99606
1.7296365,89.94651
1.6669589,89.19286
1.6751027,89.37955
1.6927929,86.180046
1.6104718,87.611336
1.5841197,83.25862
1.6415656,87.94978
1.4718746,87.49067
1.5932053,86.30163
1.4639722,86.4244
1.4768841,87.58611
1.4157871,82.43822
1.4841292,83.41909
1.4042871,81.89781
1.4501851,86.82855
1.2975761,85.173515
1.3433585,81.98856
1.2912174,80.95532
1.3039366,82.09655
1.2464218,75.57399
1.1937723,80.03323
1.1557676,80.3636
1.3071529,74.01763
1.1950486,79.27157
1.2067069,78.63391
1.1603298,71.160736
1.095653,75.72417
1.221609,69.958176
1.2146494,76.15376
1.1348922,73.90875
1.0110017,76.70196
1.1621321,65.61135
0.9390308,71.648384
0.96826583,68.852974
0.8206541,69.27885
0.92940706,72.08348
0.8197897,71.32047
0.79073936,68.61669
0.71094227,67.05938
0.71301955,68.58885
0.7066461,66.6475
0.6099178,68.78059
0.5521576,66.09246
0.5099338,62.367565
0.71783674,62.9992
0.5394005,61.05937
0.5241753,60.69514
0.56737584,61.501846
0.46480894,61.07284
0.60115707,59.49413
0.4991221,63.443245
0.6106123,63.54462
0.5333733,60.164223
0.47683057,57.242035
0.59911567,59.80979
0.53430647,60.799927
0.37655196,58.96491
0.41507953,56.581757
0.45254186,55.56328
0.53552395,52.530716
0.44019377,56.31603
0.16168442,56.92159
0.27612722,56.721367
0.24680662,51.004272
0.14488773,55.908764
0.09987379,52.76648
0.21171208,54.167755
0.09915006,57.0952
0.19345196,58.934597
0.23566532,55.469418
0.14862518,54.75038
0.15772785,59.41465
0.13183324,63.04111
0.19341342,62.044914
0.14848046,58.80158
0.35444018,58.100067
0.3216344,66.99386
0.28823072,65.0459
0.3208939,61.779343
0.55149055,62.798912
0.5496836,67.71244
0.5981664,68.92618
0.704435,72.39072
0.74966806,67.173195
0.87989944,75.678566
0.8536855,79.067795
0.94363844,75.42045
1.0597785,75.17599
1.1469014,77.58008
1.0737834,76.4601
1.2759374,77.90537
1.2154322,79.14593
1.329173,79.62008
1.2635227,80.46838
1.4078461,87.16271
1.2402676,88.55193
1.3682952,81.83276
1.5009255,84.86396
1.3393549,87.49274
1.4754452,85.7784
1.5892617,85.22421
1.382072,85.68519
1.4360272,90.230865
1.4510337,89.06736
1.4140583,92.47914
1.4335874,89.20835
1.3617973,93.94914
1.3150508,88.68797
1.3990685,85.10031
1.3308144,89.021515
1.3361739,91.28085
1.3294915,89.0008
1.3874356,91.78673
1.3025194,93.79472
1.1919252,88.44038
1.0994498,90.81882
1.1214138,87.59351
1.0667042,88.44686
1.1362658,89.33632
1.1042281,84.76192
1.0226983,84.48445
0.95541346,85.971695
1.0068225,82.9516
0.9748014,84.21278
0.93215257,84.84726
0.97655576,79.44694
0.9551654,82.492195
0.95341736,85.3553
0.7976111,78.12833
0.9924346,77.01404
0.93732136,80.98174
0.90016645,75.676285
0.81596774,75.37754
0.8108439,75.079704
0.77424145,74.81164
0.8561479,74.72857
0.8821465,80.12052
0.74868184,76.68408
0.87809545,74.0479
0.69185334,73.16261
0.78300065,70.61665
0.6969702,70.36838
0.7068752,68.318306
0.5981383,68.703354
0.5760371,70.05962
0.5202226,71.79866
0.47572014,66.60622
0.61979884,67.24317
0.30844632,62.762123
0.50541395,67.09905
0.43316084,65.8847
0.3662967,65.75237
0.4537994,59.228947
0.30693564,64.769165
0.37452525,64.90186
0.2870038,61.761154
0.37868717,59.763577
0.23170877,57.37118
0.34961063,62.1277
0.40198255,58.71726
0.4121384,59.204197
0.26590085,60.282417
0.12855853,57.192253
0.3064376,58.39278
0.3366879,56.369984
0.25088438,58.713947
0.22403431,55.941128
0.18016301,60.621685
0.11931623,54.49198
0.12189027,57.524128
0.20093046,50.75794
0.1217312,56.401314
0.023136746,52.925156
0.06891324,53.580376
0.010721219,55.388287
0.032440174,56.91091
0.05977474,59.14857
0.042443346,58.12494
-0.12251103,63.152893
-0.010876589,58.629974
-0.093673125,61.022865
0.020940978,61.474792
0.022445476,61.15361
0.0751061,63.78273
0.06837145,59.314793
-0.0481781,63.99666
0.27418035,66.31919
0.38624182,64.44249
0.31038916,64.27712
0.46015415,64.714516
0.4195271,71.699524
0.5564062,71.07582
0.58522147,70.88149
0.8025561,69.63243
0.9518753,76.045456
0.890613,75.88172
0.97482777,81.64084
1.1029911,79.72902
1.1055198,77.542336
1.1978016,78.30834
1.2643254,80.68495
1.2916416,80.302986
1.2355478,80.513084
1.3003465,85.33223
1.3905299,80.991325
1.3000058,85.69738
1.4566072,85.87223
1.4088751,89.132126
1.469413,85.20666
1.4554534,91.07989
1.4905483,93.527885
1.4257636,86.1002
1.4315039,90.68318
1.4318749,88.544395
1.4478451,92.081276
1.4884291,91.0044
1.5369763,89.11782
1.4630531,91.647415
1.4129819,88.73396
1.3414646,90.41713
1.3261484,86.86317
1.3587966,87.05384
1.2838261,86.13804
1.2800101,89.41625
1.3076835,87.80021
1.1604062,88.56249
1.1696829,87.76421
1.1828282,88.29985
1.200903,83.91037
1.0916117,84.22223
1.1897538,80.80543
1.0933723,80.499664
1.1106066,80.18662
0.9556668,84.56397
1.0605913,82.98681
1.1764773,82.22277
1.0921963,78.99306
1.0291674,81.725975
1.1880627,81.59217
1.0821629,77.888336
1.0827466,80.87861
0.96670675,74.68661
1.0213397,75.321236
1.108987,77.76493
1.00804,72.53119
0.9730087,73.00281
1.0254143,74.219604
0.94428116,71.60623
0.8327641,74.02218
0.7552285,73.70266
0.8519866,69.72227
0.8531394,68.05756
0.76838183,70.969284
0.73892057,69.28487
0.7955316,69.216675
0.76689005,67.1398
0.628032,71.6078
0.6883152,66.94129
0.61217344,60.08874
0.7247289,65.08108
0.66540825,61.34906
0.603927,64.115616
0.574561,65.422745
0.6901658,60.23788
0.5460663,63.33799
0.6378878,59.21248
0.6514471,59.322186
0.56348115,62.807865
0.5848301,57.59038
0.57709736,58.37984
0.6404844,58.213615
0.73538643,57.06871
0.61865157,56.21564
0.53312284,53.355114
0.46288812,54.948242
0.4145571,53.383358
0.42804694,55.21572
0.4333717,53.708355
0.40835604,58.231037
0.47083274,56.107094
0.3368345,59.404713
0.3590763,58.3756
0.25614354,54.321312
0.24259372,55.542595
0.33987787,57.40674
0.32639986,57.12834
0.18181862,56.577927
0.29831806,54.39913
0.34109944,60.168213
0.30778238,59.81577
0.31672397,62.58555
0.29050648,60.67663
0.34951285,59.039078
0.3809626,62.849583
0.4897512,65.11666
0.59412175,65.6383
0.6870224,64.09812
0.76474494,65.270805
0.8435661,65.764084
0.7645421,69.816765
0.9847283,68.06024
1.1885239,68.120636
1.1894011,72.328445
1.2531711,73.61155
1.2176862,72.764534
1.3513469,79.99028
1.540893,77.07869
1.4803427,79.5545
1.5168751,83.14041
1.5392717,78.81936
1.6409798,80.22255
1.712195,86.28537
1.7686225,82.18476
1.7648246,87.776024
1.6956747,84.15182
1.6804079,90.63265
1.838028,91.14958
1.7201775,84.585884
1.8382275,83.474815
1.8502622,89.57131
1.7428243,87.99121
1.7933184,93.87594
1.7689453,88.71433
1.7424108,92.14677
1.8237845,90.22729
1.7803378,93.88532
1.8448778,89.388435
1.761349,90.19816
1.8578628,88.53746
1.8417511,87.65652
1.7071171,86.46941
1.730981,86.54781
1.7616978,87.74663
1.6547517,89.50052
1.5270107,88.18931
1.5188636,81.64357
1.5490223,82.65863
1.5992546,81.431046
1.4272692,82.44174
1.5355277,86.35374
1.4795073,83.598335
1.4895347,80.49472
1.5219985,84.06848
1.517904,82.42048
1.4018532,82.01008
1.4369361,81.38615
1.514032,75.87607
1.444396,77.59589
1.3716077,78.15148
1.4174347,78.0186
1.3088082,71.58297
1.4871646,75.93069
1.2949512,72.84043
1.3674787,72.930115
1.4108403,73.01831
1.3814225,73.92255
1.29496,71.20724
1.3452544,75.174934
1.2076999,65.93321
1.1487043,68.32252
1.2544324,67.0796
1.2628648,68.213585
1.1028726,68.67237
0.9885561,70.05145
1.0350626,68.8141
1.0475621,64.8981
1.1085999,63.1321
0.96198857,62.196423
0.9041983,61.802345
0.91825986,63.682854
0.9800178,60.021862
0.9680582,65.58527
0.9763073,63.252422
0.87757105,58.828457
0.8581687,57.811092
0.9097038,60.055286
0.9156457,59.90857
0.9017703,60.18361
0.9871679,58.871166
0.9315154,59.331417
0.91062295,56.910717
0.9344002,57.912502
0.7737706,57.05943
0.8096401,60.31219
0.90599275,59.839764
0.8170499,56.60671
0.69674987,50.873516
0.7426967,53.827644
0.67876154,55.135387
0.7015143,55.961292
0.59979635,54.27392
0.5971419,59.281574
0.6524639,53.529865
0.6666764,54.939335
0.6447611,58.364033
0.5759109,53.653393
0.5400826,56.060703
0.4449711,56.43747
0.59078044,57.60344
0.513587,56.772503
0.6974828,63.77154
0.6070589,62.312645
0.67715514,61.152725
0.65846443,60.229454
0.85345453,67.114456
0.9156331,65.32054
1.0271665,71.68408
1.0474532,66.94014
1.1909229,71.177475
1.1934158,65.638535
1.3046136,74.29247
1.4681834,72.35005
1.5127636,69.63749
1.5100296,76.27673
1.5877562,76.29157
1.6149392,77.08594
1.6321341,78.18567
1.8380352,78.2858
1.7577276,82.57263
1.7538882,79.95908
1.7942865,77.85054
1.8803998,84.549934
1.8073293,86.56516
2.0025048,81.28212
1.9524381,85.120575
1.9129521,84.15915
1.8799006,87.87175
2.0745146,87.17544
2.0570297,89.43996
1.8861834,87.92443
1.9520421,91.773544
2.0324392,86.45532
1.9963878,89.23221
1.9231488,91.309654
1.8695118,91.05704
1.8193007,89.75475
1.9156175,91.67231
1.9326105,90.971405
1.7940755,90.2407
1.7600664,85.72029
1.8045453,91.56195
1.8212293,89.38829
1.7706515,83.7754
1.6691579,84.17666
1.6847069,85.8725
1.5301621,86.83775
1.5198619,84.053116
1.6385384,84.32713
1.6365498,84.93476
1.6081307,82.17541
1.5179659,83.47871
1.5147641,83.804924
1.5125321,81.00107
1.5167103,77.072205
1.5518129,76.86538
1.4020141,81.42598
1.4516946,79.16073
1.3852111,79.29332
1.5073692,79.630516
1.4879942,74.35208
1.3210856,75.26705
1.460746,74.07753
1.334889,72.682045
1.3004661,71.13821
1.3604316,72.96429
1.3089182,74.02169
1.186424,74.51213
1.0519633,73.103745
1.072319,67.14888
1.133525,72.85173
1.1027001,69.99434
1.113981,65.71562
1.0413496,67.510704
0.8358402,71.35501
0.85125303,66.120026
0.88299745,63.302044
0.94427615,67.072525
0.8798864,64.809395
0.8953137,61.676743
0.8476324,65.94254
0.9526749,64.078
0.7691745,59.971886
0.7502155,64.40842
0.73304045,62.21828
0.6664768,59.829197
0.8716481,60.175377
0.82019085,56.843006
0.7798119,59.27815
0.7158798,58.552845
0.72826093,59.418766
0.7487001,60.335697
0.64449173,52.686977
0.69286114,56.86928
0.73248166,59.260994
0.5332718,56.389744
0.6165047,55.8501
0.50466746,55.13646
0.5694235,53.968304
0.41501328,56.011463
0.35182086,54.384354
0.43206078,57.277767
0.3363935,54.215828
0.38428777,53.373398
0.36978343,56.19104
0.36106682,56.07592
0.34035546,58.208492
0.40164098,58.717384
0.4835128,59.219486
0.46587023,56.518116
0.39411253,58.806427
0.48498645,62.464252
0.57860005,60.107006
0.48080707,63.076176
0.6854328,66.327995
0.7504085,67.28586
0.79623485,67.4607
0.77868915,68.0608
1.0176953,71.47349
1.1103332,71.76656
1.0506754,70.57913
1.1496958,76.52495
1.1756339,73.58521
1.2810235,72.08633
1.2538869,79.513466
1.3597672,77.24653
1.4128892,80.85556
1.5263101,80.69986
1.5088971,81.11943
1.5137109,85.020195
1.5940843,88.905594
1.6425915,86.791824
1.5918579,82.67492
1.6944876,84.99981
1.6082574,85.45154
1.6867404,88.99238
1.5773138,86.596756
1.5768862,86.78583
1.642954,84.37378
1.6046647,90.20885
1.6822264,89.57988
1.532104,92.09092
1.6252462,90.528755
1.5844715,91.088264
1.5897819,87.029686
1.5671811,97.10665
1.515845,90.35171
1.5650861,85.78874
1.487945,92.66577
1.4875387,90.7222
1.3658308,87.6924
1.3567837,85.01049
1.3709003,89.45286
1.3016518,84.56415
1.2607571,86.76606
1.2665842,86.89896
1.2277542,84.06677
1.3188587,85.646416
1.1567234,86.37373
1.2536161,83.85012
1.1019936,83.70332
1.153627,80.2238
1.0575731,84.663734
1.1404933,82.43942
1.1223848,82.55104
0.98854315,76.395256
0.99862576,78.2962
1.0758371,76.23709
1.0068865,79.96528
0.9968443,72.9409
0.9689788,73.2641
0.96156365,77.51446
0.8904415,75.83775
0.96955556,74.15416
0.8537078,71.82163
0.9184793,71.994965
0.8856273,72.67571
0.78810066,70.87808
0.6478553,69.63761
0.7602316,67.326805
0.71326953,72.72349
0.5729919,67.449326
0.6614793,68.0567
0.54250133,66.93681
0.5545648,66.213684
0.5003703,70.18883
0.58572817,65.06315
0.5085593,67.535034
0.39026374,66.09335
0.47056434,61.697918
0.41990826,61.31457
0.41658175,57.497864
0.41895002,59.140896
0.4609686,61.779633
0.3044569,60.47401
0.49128097,58.301254
0.3954896,59.61821
0.26183584,61.920624
0.4216002,58.966915
0.46795595,55.631634
0.4044737,57.02201
0.25469404,55.319805
0.31186804,57.017918
0.4012361,54.82505
0.21362774,55.84671
0.2007823,58.390587
0.17796952,55.25412
0.1083934,53.122673
0.04787089,55.64133
0.09123928,55.294724
-0.00138176,60.757584
0.08693771,58.697895
-0.00021904214,57.93486
-0.0073830658,56.84328
0.023882728,61.15931
-0.034750633,60.616753
-0.12444006,59.118813
-0.023607288,60.854744
0.11510447,60.238533
0.1478948,61.40696
0.12789269,62.866657
0.28984794,62.26398
0.23008467,61.027596
0.32462192,64.156715
0.40570647,63.332497
0.44761983,67.7505
0.5883083,71.81027
0.7484402,67.46999
0.7085985,71.597664
0.74703753,71.76623
0.7253097,74.307304
0.90333754,77.39282
0.9419715,79.59749
1.0237021,76.79359
1.131089,79.06301
1.1432621,80.844894
1.251684,78.19686
1.256326,84.42704
1.3777013,84.89881
1.4208359,85.34137
1.3349234,83.90071
1.2957776,84.912025
1.393459,82.91551
1.4123046,89.50761
1.4773183,86.984116
1.2981526,84.29735
1.3303158,89.759155
1.3614681,91.49509
1.4654424,89.4885
1.4112065,85.236015
1.4316905,87.57452
1.4010078,87.91432
1.3007706,93.50068
1.4068965,88.86705
1.2680817,88.476875
1.3545369,90.23638
1.2373347,85.741325
1.2101932,86.14403
1.1395636,87.88811
1.1064256,88.0296
1.186673,84.90585
1.0327339,86.92516
1.0747932,82.599846
1.0129842,89.190216
1.0383134,85.389694
0.96399695,88.1188
1.0020206,82.65837
1.0277454,87.63613
0.95227957,84.05541
0.8698731,82.45132
1.0052909,74.717094
0.9556151,81.97773
0.8759629,82.53361
0.8093415,81.71887
0.94525695,80.209755
0.8931641,82.53581
0.9682618,77.822975
0.92224383,74.07589
0.8685004,72.864655
0.8757794,76.16449
0.81945086,70.4565
0.79278314,75.31767
0.73014575,75.68509
0.81694645,73.80941
0.84958756,76.36853
0.7790837,75.92458
0.5948851,72.75565
0.76438445,74.12272
0.5511771,71.40039
0.5220837,68.049934
0.5371704,68.04537
0.46809512,67.687035
0.52250165,62.8286
0.41153005,67.90277
0.44728717,68.003716
0.38762447,61.562885
0.54169506,61.241188
0.3491585,66.78013
0.36887518,61.349033
0.46096936,63.574753
0.32960355,62.72947
0.36019334,58.92806
0.3222767,59.56609
0.34232134,56.702385
0.24323404,60.619946
0.3457209,59.602146
0.3255343,58.047268
0.39995816,57.81307
0.38379076,58.23924
0.32917923,55.993584
0.22376648,56.53032
0.3660398,55.54175
0.27833918,56.285
0.269658,57.175545
0.22444794,54.84774
0.24375588,53.510326
0.026456548,59.6635
0.26658103,60.290344
0.10624567,55.15581
0.06875906,56.395973
-0.00907253,56.261868
0.03518424,54.47665
0.07795273,58.23484
0.074099906,58.8484
0.14332832,59.03551
0.094890215,59.93979
0.14389284,62.25218
0.08837818,62.34746
0.16368558,64.74244
0.3122258,60.11021
0.23798405,65.3214
0.38019904,64.358665
0.46608213,65.72362
0.54609686,64.86527
0.582305,63.442738
0.65460795,68.56164
0.78185433,69.44787
0.82162845,71.381096
0.95926046,73.6842
1.0571743,76.31174
1.0472472,77.837494
1.2358181,77.67858
1.0960722,81.19426
1.27802,80.28036
1.2921838,79.980225
1.3809788,81.47227
1.3817989,83.2241
1.4803437,80.73506
1.4069476,81.89293
1.4581941,85.41205
1.4875859,85.03731
1.5892838,88.3278
1.643856,90.518654
1.4244108,90.16534
1.5485909,86.92897
1.580863,88.951164
1.5454836,88.72672
1.588583,90.68231
1.6336973,90.120186
1.4587841,91.526344
1.6217446,88.44291
1.5821503,88.626785
1.5149945,90.13912
1.5856054,91.1232
1.532015,86.02032
1.5250651,86.37738
1.4800618,86.834984
1.373861,87.173615
1.4750177,92.11492
1.4031627,90.98341
1.4920279,87.09826
1.4184189,85.271675
1.3466831,84.04013
1.270197,82.76537
1.269124,82.718285
1.2647443,81.93854
1.2091012,82.43783
1.2464474,83.652664
1.1397344,85.84627
1.2336526,81.724976
1.111373,80.65827
1.1515421,80.89665
1.2187867,78.00378
1.1902275,77.5339
1.2602005,70.559555
1.1060553,77.18648
1.2537063,77.444145
1.1714729,80.16967
1.1769066,73.882515
1.1288657,77.22944
0.99630904,72.76007
1.0710708,73.24622
1.0720134,73.67958
1.0555984,71.94271
0.9464605,71.74726
0.99485445,71.53279
0.99315625,71.86818
0.9764042,66.992516
0.9715777,65.2893
0.8839919,67.298965
0.8307485,68.00207
0.8501498,64.42117
0.8146461,66.208954
0.8612631,67.31027
0.86686766,59.05698
0.76838076,63.300133
0.8279829,62.729492
0.77067244,60.60141
0.7600118,61.85549
0.8160342,59.831787
0.8436023,58.44694
0.7082689,58.757942
0.68713963,58.51841
0.67964154,58.2909
0.7390267,59.36513
0.79215,54.808334
0.7234186,58.868286
0.7361685,58.80168
0.68680084,53.166367
0.67207676,51.291794
0.6491397,59.967113
0.6346409,53.629925
0.59502316,56.590443
0.74255747,55.77031
0.59582824,55.96405
0.5134584,58.624672
0.46981868,51.70708
0.44671598,58.476105
0.39932394,59.12089
0.4511857,53.143585
0.30072448,53.490276
0.3596069,61.10178
0.47165322,58.366398
0.4980474,57.794212
0.5435888,60.012398
0.41796878,63.555443
0.5451822,59.482437
0.69842,64.83524
0.55516464,65.00385
0.6759516,67.37642
0.83295816,64.624886
0.84664917,65.61511
0.91097194,69.62261
0.89116734,71.79909
1.0489236,69.332794
1.1885805,74.69677
1.1679993,74.38971
1.2954593,74.27722
1.4029962,78.018005
1.4086447,81.4303
1.5483836,77.44852
1.6657816,75.454765
1.6468207,77.83083
1.7099144,82.345406
1.6665535,79.88448
1.7326261,81.361206
1.7942151,82.5916
1.8109723,84.610435
1.7958776,84.22991
1.9150285,89.19549
1.8576999,90.8205
1.8868202,85.84819
1.8729478,88.13069
1.8353595,86.68726
1.9373207,92.76778
1.9328767,88.6613
1.8842239,89.47592
1.9119387,88.34977
1.9378611,88.5186
1.8987279,87.89516
1.8766837,88.06938
1.8996309,90.346725
1.8131207,87.9281
1.8607868,90.00515
1.836682,89.03802
1.9053687,87.39308
1.778139,86.22316
1.8144593,89.43399
1.6831235,86.874886
1.7227279,86.02019
1.737319,86.1727
1.6966926,86.46451
1.6277664,87.47837
1.5618085,81.60172
1.6135666,82.439255
1.6153827,82.52009
1.6219049,81.06326
1.6039463,80.40717
1.5262783,84.54487
1.5156171,77.218605
1.4426966,77.057365
1.5024953,78.58232
1.4142691,77.588394
1.3628976,77.04422
1.3843381,71.72713
1.51775,73.24891
1.5279777,73.29289
1.458201,74.68896
1.4068997,69.01164
1.4293156,76.84728
1.3802263,74.87314
1.2977483,74.955475
1.1921418,73.20658
1.263646,70.11252
1.3412853,70.61552
1.185212,70.64739
1.0738511,66.15447
1.0666132,67.50267
1.1078963,66.77186
0.97227424,63.277588
0.9862397,65.84124
1.1055093,66.42776
0.9984868,65.557076
0.9515645,66.21562
0.9724697,61.327568
0.9369096,65.06319
0.88758016,65.149055
0.972295,64.339584
0.9821607,64.596306
0.86316955,62.781555
0.7810018,63.15969
0.88391995,59.04932
0.9658157,57.63225
0.9022704,59.628162
0.92368335,58.387295
0.96373785,55.48935
0.86041,60.128162
0.85159445,56.811417
0.80841774,55.157322
0.77549076,60.47291
0.76285434,53.897255
0.78597575,56.85349
0.744568,59.762066
0.708409,55.18297
0.64002645,57.67385
0.61026925,53.038876
0.59483254,55.32936
0.53691304,60.28269
0.5274689,56.005295
0.4806909,54.7239
0.51311255,57.255314
0.5531128,53.78148
0.38612062,58.05789
0.49552393,62.622215
0.71463716,63.865158
0.59237856,59.094334
0.58366686,60.74687
0.7725989,63.934708
0.76601505,65.44418
0.95385,66.26492
0.76548195,66.371544
0.9613132,67.4263
1.0283343,68.549416
1.1667833,72.96567
1.2046654,68.258545
1.2166295,73.00427
1.3250755,69.97155
1.2841848,74.93503
1.4681225,77.7806
1.4843506,80.66294
1.6664839,79.408325
1.6887861,80.575615
1.7798973,80.90101
1.7946619,83.45474
1.7651088,84.067184
1.738146,84.66214
1.8657918,84.70348
1.795406,84.3237
1.8182719,89.341515
1.8181003,87.49702
1.8908474,87.46286
1.9100481,86.85139
1.7673453,84.385315
1.9045676,88.962585
1.9539192,86.814125
1.8539712,93.933975
1.8739142,87.25776
1.798232,88.72695
1.9462669,88.88679
1.852419,86.281654
1.7077183,86.50009
1.7038255,86.88421
1.6940812,90.13804
1.6489913,85.80957
1.7475693,87.39356
1.6434163,87.534515
1.6285906,89.851616
1.5586499,87.12675
1.6103297,84.37807
1.5349759,86.03951
1.5355179,83.23343
1.4009974,87.00362
1.4074906,81.80905
1.4809234,83.050514
1.2847698,86.87938
1.3835137,81.34163
1.3484305,82.766335
1.2949551,82.54145
1.3212398,82.411606
1.2528389,80.23748
1.284352,80.0708
1.2276222,80.08587
1.2721342,80.042465
1.2675848,79.98502
1.2400174,78.04636
1.1598743,73.97522
1.2432156,79.97827
1.207571,74.42377
1.1733407,75.657776
1.1072564,69.712555
1.148234,70.17454
1.0562329,71.199905
1.0774857,68.50773
0.95509326,69.351166
0.99691814,67.76628
0.7809784,68.17091
0.87692416,65.62447
0.8832357,69.73875
0.8458708,68.0863
0.85124105,63.932014
0.718563,62.78017
0.7565537,63.784073
0.7277431,64.99483
0.5675561,65.838295
0.6379876,63.72166
0.66046906,63.30416
0.6053924,61.32262
0.6727437,63.63618
0.53545934,62.90506
0.6732725,61.141777
0.58026165,59.874058
0.5969823,62.972214
0.6735754,56.916515
0.6903364,56.158134
0.48643762,55.994358
0.55733895,59.078995
0.4677729,52.854748
0.472098,55.730434
0.43673775,54.40572
0.41924784,61.561897
0.42519167,57.450703
0.41462252,55.91197
0.46053842,56.101654
0.22322787,55.662533
0.20934935,52.181095
0.22697864,57.295082
0.1577596,60.284008
0.16353175,57.68679
0.1486582,58.525158
0.12475082,60.386032
0.17190765,61.161987
0.16427359,59.86236
0.21885045,57.438614
0.2510167,61.632023
0.30297238,59.38213
0.35047305,65.865974
0.43725678,65.6319
0.4287916,63.975197
0.502091,68.198074
0.63488203,68.68959
0.63555944,70.465744
0.70269954,67.98508
0.8635444,69.38329
0.8484456,74.7708
0.99284273,68.92964
1.0087353,75.34103
1.0681976,80.37367
1.1874683,78.27979
1.1728944,78.66792
1.3029674,77.68698
1.2424968,85.19057
1.4205726,83.42544
1.4637828,82.23688
1.3426834,80.27598
1.448757,84.40382
1.381054,87.1029
1.4420655,83.937584
1.4806249,86.36564
1.5549053,85.58777
1.4878498,86.98135
1.4866617,88.971146
1.4163256,85.42036
1.4699291,89.49705
1.4564394,84.47487
1.4763162,86.16448
1.4651572,88.39741
1.5670232,88.85012
1.5035056,88.29671
1.4231353,90.34874
1.377427,89.486176
1.4387393,90.72898
1.3521204,90.184944
1.2994033,90.120125
1.3615853,89.52298
1.2844763,88.9737
1.0934424,86.21799
1.169054,85.72852
1.1500242,81.29785
1.0136865,85.84175
1.0468738,82.36446
1.0422679,84.21846
1.0425693,88.32723
1.0973171,82.60342
1.0197148,83.91075
0.97084105,84.596886
0.9515561,82.00606
0.9421801,74.454414
0.9471098,84.210304
1.0536567,80.17317
0.88863826,79.26152
0.8673227,74.879166
0.8471317,79.73857
0.9237373,73.14637
0.8932386,77.08939
0.8347919,72.63247
1.0174235,68.85027
0.8062183,71.27457
0.90537816,72.22213
0.8037108,69.071754
0.73167783,71.65762
0.6995271,70.68536
0.5993905,67.48488
0.5619863,67.95832
0.57266414,65.990814
0.4687983,69.84177
0.5524045,69.929634
0.4018522,69.58777
0.5233704,66.71908
0.39482006,64.35677
0.46778828,64.521904
0.43383533,60.30848
0.43178895,66.01698
0.388582,64.35065
0.32454002,60.368404
0.38884965,65.20043
0.36484233,63.275497
0.29346347,61.117817
0.28618702,59.158974
0.42297673,60.30811
0.33312052,61.37206
0.35057467,56.542503
0.26110274,58.811317
0.30758882,57.775368
0.2933372,53.48016
0.3417249,60.180973
0.18086523,55.056625
0.266253,54.774345
0.22942723,55.643826
0.18808514,57.09973
0.106207,58.351757
0.10391041,57.896965
0.114185914,57.01584
0.02450044,57.4486
0.021853726,54.702637
-0.023687573,56.88714
-0.0141209345,56.031067
-0.018226631,57.72175
0.07375128,56.4765
-0.052538145,56.39061
0.029435521,63.621437
-0.15177576,61.61379
0.049345195,62.628162
0.0065593706,60.940044
0.079283066,61.483265
0.18223977,62.775642
0.11344285,60.22258
0.24705294,62.307564
0.29467872,66.02041
0.38192675,66.73761
0.5388026,66.42714
0.54590964,72.17687
0.70411795,72.661385
0.689551,75.35561
0.6914748,74.49262
0.8553501,74.09139
0.9415518,76.39527
1.0048342,76.98373
0.956247,78.01767
1.0655017,80.50319
1.2004753,79.87993
1.2059776,80.2444
1.2646768,79.22163
1.1982081,82.98478
1.3369715,84.730225
1.3832476,85.278755
1.4804062,85.26328
1.364886,87.55896
1.3147131,88.75352
1.4078196,86.03566
1.327634,88.3959
1.3958554,86.07335
1.4210103,90.18721
1.4425966,89.9937
1.3691057,91.31554
1.3067188,87.07591
1.4836053,92.67925
1.3663106,92.31429
1.2218943,86.301865
1.3590713,86.689865
1.3100942,94.33207
1.2186527,90.34657
1.2244524,86.31702
1.2346572,85.61094
1.307815,90.58638
1.2550454,85.71479
1.2263207,89.056755
1.1255512,86.461235
1.1387755,83.630165
1.1959323,84.97661
1.1106417,87.03657
0.9907857,81.31313
1.0803568,80.199265
0.9635366,80.23732
1.0054088,76.8994
1.0722011,82.28073
0.97303635,78.32511
0.99487036,78.12906
1.1079413,79.370834
0.8933748,78.19302
1.0496346,80.3972
0.9944626,79.81217
0.90998995,74.56478
0.92712426,73.41632
0.96502364,75.64006
0.88206124,73.440186
0.91293406,70.23788
0.8302859,68.84179
0.82576674,72.31079
0.78356755,72.973885
0.8077357,69.489815
0.7051195,69.62832
0.7091399,69.93576
0.7085315,64.60918
0.64737153,67.34724
0.65357524,65.96298
0.78498566,67.28736
0.6221967,65.480606
0.48944736,68.3428
0.6359805,66.43643
0.42933124,67.06279
0.62622815,61.362183
0.4219892,64.95861
0.54577327,62.94617
0.5652565,64.329414
0.52219784,64.07816
0.542974,60.75741
0.5050057,62.547073
0.5704166,59.25757
0.50395507,57.851673
0.5160985,60.97486
0.6035857,59.373173
0.42812598,58.186325
0.44395584,59.396587
0.5990698,57.864136
0.6065374,59.41551
0.40101132,55.37247
0.32933688,56.070995
0.4445341,58.199776
0.28950208,56.101368
0.28474078,56.18318
0.29444054,55.95283
0.23371369,56.15267
0.30825883,59.17204
0.2532893,57.511395
0.14862521,59.38564
0.23336403,61.966923
0.07394493,55.526867
0.2509474,56.14076
0.16818053,59.396286
0.3313311,65.20885
0.26752308,63.235832
0.36328432,61.52324
0.29465517,60.794357
0.40481052,61.416058
0.4674673,62.29225
0.61518806,68.53826
0.7180223,69.18581
0.7710091,70.392365
0.81116545,69.787094
0.9060014,72.37337
1.0120804,69.511665
1.1004101,73.61422
1.1012548,72.66485
1.1648524,71.269
1.2610264,75.26595
1.4646885,75.02908
1.3159003,78.24281
1.5551565,79.072624
1.5334126,85.0188
1.5725148,80.33892
1.5702049,87.88676
1.6318295,84.433014
1.6522827,85.42244
1.6720867,85.58678
1.6895509,86.89257
1.6768953,90.16722
1.70379,88.440796
1.7124441,88.314415
1.6860298,86.20385
1.7281247,91.18624
1.6758935,84.84069
1.6992117,89.84945
1.6628833,88.770386
1.7839854,87.30544
1.6990175,90.73831
1.6923908,89.13614
1.6744192,88.48609
1.6682683,89.80217
1.6459037,89.213356
1.6016234,88.6497
1.5835145,89.2139
1.635556,86.61065
1.5325358,86.50277
1.506998,83.75995
1.4003344,86.72738
1.3983483,90.88583
1.4297155,85.839455
1.4263507,87.47937
1.4923035,82.47185
1.389953,83.785545
1.3744234,81.2794
1.5207927,82.78014
1.3240975,79.74771
1.4552069,77.55313
1.3400171,80.63823
1.3582963,82.6506
1.3302692,77.93794
1.3803555,78.21161
1.3589438,76.5754
1.35496,79.06482
1.4027091,75.15851
1.2641801,76.45682
1.3484927,75.80955
1.4096637,71.47109
1.3478552,74.795364
1.166339,74.93682
1.156101,72.44631
1.3639945,71.29651
1.1692736,68.93376
1.1322829,72.42739
1.1055405,69.593445
1.0779788,67.14714
1.0946708,70.23692
1.0964228,68.02481
0.9118168,70.9346
0.93182987,69.4005
0.9396011,63.52247
0.894666,64.79749
0.87059355,62.569675
0.8251662,62.808754
0.792361,65.103836
0.9439902,59.11317
0.88798547,67.76659
0.8476645,59.003487
0.9137141,60.1453
0.90068465,60.37802
0.83271086,61.5563
0.79202306,55.9702
0.9772091,60.942787
0.7923744,52.152412
0.8010101,56.510597
0.8035387,58.234684
0.68302906,58.61084
0.80028087,57.868614
0.7712442,54.510216
0.7175697,56.81858
0.77103525,54.796867
0.7446665,57.0345
0.7348322,57.44728
0.76224047,60.882385
0.58349717,53.68765
0.53441787,55.467796
0.5792331,62.289463
0.5702654,59.731667
0.56763244,58.247616
0.61340785,57.252693
0.5615466,61.469173
0.5802369,59.853962
0.6412132,55.66131
0.50304186,63.862026
0.67428225,64.953026
0.71511596,70.33957
0.7809177,62.310505
0.8775623,62.096508
0.79120445,62.788933
1.0261068,67.48528
1.0620146,68.09894
1.2368975,70.038795
1.1886575,70.96873
1.228689,70.71118
1.4268696,71.14215
1.460484,76.99981
1.5579197,74.06186
1.5689734,77.5257
1.6507347,75.887115
1.710129,76.07614
1.7550509,83.63234
1.7578298,84.56645
1.9573773,83.00969
1.8587487,83.45025
1.7926543,84.22314
1.8321658,81.518005
1.9012369,86.05201
1.9994526,83.91564
1.9728001,83.66091
1.9971292,86.95705
1.972967,88.022835
1.9920576,87.77911
1.9030796,88.343834
1.8174655,89.10921
2.0069191,89.06436
1.9003648,87.912575
1.8991673,90.929565
1.8717533,88.1
1.9693624,87.73343
1.8761326,89.088974
1.8216192,91.576675
1.9084114,90.928406
1.8580925,89.42988
1.757327,91.03424
1.6404471,84.863976
1.861996,85.61582
1.6858331,85.23351
1.7169064,83.64348
1.7410158,85.48883
1.6610966,83.68542
1.6441705,85.612175
1.6321095,87.932495
1.5771726,81.77487
1.6086581,85.19444
1.506258,82.85949
1.517615,85.17645
1.5408361,80.499176
1.5588458,80.42756
1.5770818,80.09155
1.5265977,76.94418
1.4297681,78.01702
1.4184735,82.877075
1.435473,75.122345
1.4729842,75.67368
1.3844966,72.11672
1.5364457,70.80435
1.3476367,72.19342
1.3907244,72.55391
1.3953525,72.237175
1.3910398,73.10261
1.2897143,70.23717
1.1874542,71.16327
1.1823398,68.107185
1.1875536,64.31435
1.0599449,69.363846
0.917431,67.57112
1.0359336,66.09758
1.0389236,68.137115
0.8873274,67.19126
0.89740855,67.1645
0.91955394,64.843666
0.87646186,63.613472
0.9921378,61.914474
0.8547858,64.53704
0.84466016,61.957523
0.89264184,60.905018
0.802278,62.392483
0.90468377,58.1113
0.85037863,63.703056
0.8090084,58.853706
0.8819291,56.935715
0.83020806,58.163826
0.8077893,54.716522
0.82195246,58.823452
0.8543513,56.35609
0.7643003,56.752274
0.66220134,56.775322
0.7702277,57.35111
0.58358675,58.173885
0.5714052,55.80183
0.6260428,55.904644
0.57662934,59.18861
0.5618169,54.189327
0.42076302,61.837715
0.4514093,55.63995
0.5095666,52.980663
0.35992983,56.92727
0.44075006,57.94045
0.397833,56.83866
0.29061016,60.318172
0.4426867,54.903244
0.48927417,58.35183
0.486622,60.96922
0.55257654,62.032196
0.5828496,60.21509
0.6488225,62.54271
0.77809507,67.87123
0.80081505,66.42684
0.86338156,62.328674
0.9332604,65.46119
1.0741025,70.22775
1.1464801,68.76865
1.1684892,75.52804
1.2126726,70.71134
1.302615,71.392944
1.3286961,76.462326
1.345049,72.52165
1.4641713,75.34204
1.4793844,79.168884
1.4905384,83.64349
1.5734705,80.98436
1.6237458,81.90552
1.6414979,83.77587
1.698224,83.33647
1.7493933,88.246864
1.7220716,84.232414
1.772396,84.418816
1.7919989,84.73629
1.611337,89.969765
1.5571235,92.17247
1.7468697,87.49017
1.6232867,87.00331
1.7977062,89.310135
1.7366557,89.89181
1.6574699,87.482185
1.6534392,88.695496
1.6251925,91.33618
1.5950806,89.90884
1.6154559,87.905136
1.6531532,90.94577
1.5117706,88.562584
1.5143908,90.79272
1.4972094,88.57483
1.4399778,86.563934
1.4499118,88.363144
1.3803521,87.16791
1.4804586,84.1767
1.3683867,83.84684
1.3038605,89.007774
1.2628347,85.187546
1.3723024,86.51574
1.2131459,80.437164
1.1882845,81.484985
1.2037435,82.618484
1.270624,81.270546
1.0997157,78.17832
1.2276165,83.50803
1.0846026,77.783264
1.1563424,79.25788
1.1042526,78.06671
1.1839864,75.11138
1.1364759,77.74639
1.1024309,79.75215
1.0113819,75.375626
1.0464598,73.13285
1.044006,72.34776
0.97625613,74.21868
1.1283737,72.13555
0.8744591,72.32342
0.8310563,75.277504
0.8090498,71.02937
0.8026253,68.63056
0.75823635,69.6041
0.72400564,68.85462
0.74123377,71.00071
0.667567,66.20221
0.66926724,65.09757
0.62042767,65.631905
0.51915884,61.613297
0.53083587,64.181015
0.56976384,65.51834
0.4912911,66.09968
0.4332142,60.829323
0.45257044,58.88866
0.42333812,58.865734
0.5158147,62.46721
0.37112015,61.670876
0.4847732,60.289764
0.41519317,61.36393
0.560402,57.89657
0.40827343,55.61958
0.46021459,59.07811
0.41614926,53.25768
0.4734193,59.18053
0.41401216,55.34193
0.2919855,55.544754
0.33183283,56.73191
0.33608943,57.602596
0.22795095,55.289368
0.30365533,55.428074
0.19604777,54.004425
0.12976825,56.053936
0.14799844,55.941017
0.08589669,58.096283
-0.049947955,58.814556
0.005966331,54.794796
0.07603852,55.05037
0.14307152,56.87183
0.11442409,57.113956
0.07286806,59.750572
0.24843445,62.512356
0.08528179,60.428963
0.11234074,64.00095
0.34149548,61.20593
0.24190536,63.990643
0.35252237,65.21684
0.49181545,66.984276
0.42080846,67.86929
0.5478598,72.02382
0.5837857,74.039986
0.68310666,74.27463
0.803308,71.931854
0.89697635,75.47345
1.0044361,74.36062
0.96969384,74.340004
1.0012118,79.14242
1.242284,75.258446
1.0568522,80.07108
1.2603863,83.82442
1.3178849,78.143425
1.2238288,83.68126
1.2732639,78.50653
1.3337,83.979935
1.4204636,85.40819
1.4221542,84.2789
1.3598002,90.26879
1.2419201,91.74974
1.4303728,85.106544
1.3676741,88.84214
1.3705577,91.45431
1.3306539,91.67003
1.4048104,88.265724
1.3803148,88.39778
1.3129987,87.234116
1.2739718,89.94317
1.2873156,89.50853
1.180821,89.18618
1.2431518,90.022934
1.2197425,89.995415
1.1807611,88.33009
1.1797222,86.71648
1.2088189,92.05201
1.1043556,86.39224
1.1163888,89.102356
1.0770171,88.59538
1.069052,89.258644
1.1408932,90.79381
1.0504792,85.6213
1.0322155,84.92762
1.0026617,78.9751
0.75845814,81.978966
0.9448351,82.61209
0.9305809,85.76473
0.87101996,78.71358
0.93238854,83.46195
0.98166806,79.7247
0.9254248,76.71661
0.8603241,77.056465
0.8565772,74.641045
0.85733443,75.22716
0.70192444,77.46136
0.83611834,76.03428
0.7974874,75.06975
0.7862559,75.18386
0.77695876,74.39585
0.797071,68.51208
0.72112125,72.39386
0.7088237,76.28675
0.65669596,70.76974
0.6042465,68.11791
0.58733594,66.165436
0.62542444,67.81562
0.4982671,68.50158
0.5119769,68.8816
0.39786467,66.30843
0.48882243,66.60709
0.29930165,63.210564
0.28831348,65.98441
0.4210199,64.03059
0.3595656,64.25111
0.21585606,64.12227
0.35502535,63.24757
0.3009885,63.705166
0.33014622,62.66969
0.3141949,59.958504
0.28938344,60.02131
0.2777308,59.091927
0.38133386,62.32561
0.2594595,55.565063
0.27634302,55.07846
0.35781282,57.668392
0.26959968,56.680946
0.34234872,54.645126
0.25590676,59.331646
0.30085504,55.468796
0.15384445,55.19334
0.17262414,54.865494
0.26201355,55.30004
0.11432301,54.10752
0.060117994,56.617165
0.13640207,51.588764
0.08269594,56.923527
0.06037977,55.762943
0.0076306816,57.163414
0.045964923,60.312035
-0.05887413,57.70953
0.049488366,56.027653
-0.024804996,59.74229
0.05168221,58.45389
0.055394273,65.0522
0.16277188,58.747494
0.17619368,61.766964
0.19928417,62.839622
0.3050522,63.6323
0.38338727,64.141884
0.45316306,65.80412
0.4948391,70.240654
0.564153,71.091255
0.6170313,73.662704
0.7922572,71.63998
0.85080624,74.55277
0.9757601,72.36932
0.9869956,76.04207
1.0010567,74.31106
1.0127118,76.343185
1.1357179,79.83726
1.250161,81.67149
1.1971408,77.80506
1.3661766,79.930824
1.3755472,85.01495
1.4026763,82.68949
1.5125276,85.60223
1.4551226,81.06481
1.4047726,84.640526
1.4022287,89.42657
1.4106793,88.398346
1.3743318,90.34222
1.5661877,88.768654
1.5002073,88.88672
1.4768971,87.18815
1.4236747,91.28468
1.4767196,86.62319
1.4327006,89.26911
1.3639312,87.64217
1.4998384,90.75988
1.553896,89.00175
1.2415241,90.87694
1.5214095,87.65481
1.3980775,90.614365
1.441707,93.64657
1.4290427,85.90047
1.2300189,88.652794
1.3346485,88.53856
1.3749676,89.116776
1.2027683,85.585205
1.253984,87.05437
1.2451507,83.8707
1.250386,82.74769
1.1308196,83.98354
1.2544045,82.16743
1.1268045,84.26726
1.122093,83.70823
1.1393464,79.06754
1.1876636,81.1598
1.2035369,82.332115
1.11734,76.79334
1.1136929,82.98869
1.1597008,78.73622
1.1714069,70.421196
1.0050851,77.6706
1.0791311,74.72534
1.0820923,73.5581
1.0510149,74.670235
1.047804,71.92369
0.96094537,73.84436
0.99337053,73.343704
1.036074,70.376976
1.0048192,73.975525
0.87415564,70.88641
0.8820832,68.960365
0.9104243,71.14029
0.75546,64.20457
0.84216446,64.150604
0.77931356,68.49941
0.65152663,67.78091
0.66626984,64.844536
0.64426553,61.208805
0.70414776,68.16844
0.59279406,63.269356
0.70567787,64.00952
0.66784614,59.44513
0.6352477,59.04763
0.58814895,58.638187
0.67167073,59.460224
0.69668937,56.662395
0.655611,66.421844
0.5667528,55.572807
0.6124434,60.534443
0.64887166,62.035103
0.7355606,56.587803
0.55255115,56.024624
0.59498584,59.16953
0.612722,55.520355
0.65706235,59.181305
0.47704944,54.043945
0.4041106,54.972694
0.5130486,57.683426
0.5812637,55.446835
0.49731475,55.352703
0.40745464,53.710327
0.3428841,59.109043
0.31710222,58.651775
0.30215296,57.826565
0.46609822,59.204884
0.3646579,58.24532
0.41113886,58.448055
0.39717418,54.234688
0.4169685,61.723396
0.4004187,58.29791
0.6027224,65.23165
0.4735238,66.55102
0.62490463,60.82912
0.7719517,70.31443
0.7907185,63.339573
0.8313655,64.78364
0.8856974,69.07661
1.0715146,70.26837
1.0635276,70.89382
1.1472905,77.32431
1.1718752,72.06714
1.2436029,75.40662
1.4676125,75.84896
1.3337137,75.36173
1.5464412,78.87341
1.6098868,79.27707
1.6213027,77.816185
1.7359159,81.03547
1.779429,82.23329
1.6753938,84.59166
1.7944403,84.42566
1.7834512,85.746635
1.7907729,87.25682
1.8494233,88.04251
1.8945812,88.65579
1.8119417,85.35899
1.9104329,91.89937
1.913422,87.412384
1.7866236,89.605354
1.8840115,92.61875
1.8815702,87.6824
1.7510562,89.68097
1.8445867,83.94672
1.8475769,89.48484
1.8195208,86.224396
1.8104819,88.045006
1.8436193,87.676384
1.7420336,88.49777
1.5605203,86.094444
1.7514111,88.15373
1.7486836,84.796776
1.6013066,83.89806
1.7292249,84.21203
1.6882622,78.46793
1.6877402,86.06704
1.6614795,83.26786
1.647566,85.69588
1.5475458,81.35239
1.6512141,85.22339
1.6209794,84.55958
1.5307043,83.91979
1.6657342,80.39556
1.4953879,81.308975
1.557883,81.843376
1.4939291,80.80645
1.4464587,77.29194
1.4482839,78.358765
1.3820184,75.20791
1.5062838,76.31331
1.3588891,79.611824
1.4522213,75.83377
1.4527637,73.85018
1.3386742,74.717415
1.4218135,76.859024
1.2117608,74.84509
1.2688254,72.43276
1.4018675,73.8715
1.2425163,72.04656
1.1303083,70.27373
1.1377748,66.28367
1.2007504,70.80054
1.0966477,67.36576
1.1546825,64.66455
1.0377612,67.60528
0.994828,63.134712
0.87493086,66.85537
1.0151815,61.775948
0.9559201,65.68938
0.9156521,65.11019
0.8987178,63.813755
0.92307127,62.19008
1.0049746,64.24943
0.9811869,62.374825
0.9566721,60.14588
1.019878,55.56968
0.95047146,55.728275
0.9674277,60.48918
0.8524793,55.289974
0.90423995,61.54008
0.90347683,55.953613
0.8521566,53.616302
0.8217991,58.53294
0.90259075,53.03541
0.65257055,57.42257
0.84438735,59.433655
0.68937355,57.04284
0.6288224,53.6494
0.68120503,57.163548
0.6955903,51.47942
0.56203747,54.82433
0.72852874,61.849102
0.5365084,54.12164
0.60622776,58.11167
0.55914503,56.191402
0.5794413,56.72248
0.5547266,60.923344
0.45113274,62.58179
0.58282113,62.307938
0.7380951,64.11158
0.6432669,62.95893
0.6706124,63.32984
0.75817764,65.11555
0.87747395,68.50563
0.879927,65.33859
0.9858553,65.41674
1.1122245,73.04203
1.1435993,73.340225
1.2187715,73.32434
1.2855476,73.098015
1.4436268,72.35354
1.5474657,76.26763
1.5161859,70.97789
1.5363411,78.43802
1.6805073,77.480034
1.760234,80.08237
1.6782968,76.929054
1.7935543,80.38305
1.7073851,84.868416
1.8312879,79.63114
1.8474977,85.589226
1.8124242,85.31796
1.8844352,84.47908
1.8495972,85.84068
2.0022094,86.302124
1.885406,90.11211
1.8805834,91.22377
1.8444194,91.020386
1.787799,89.88952
1.95571,88.8879
1.939582,86.19023
1.7981305,85.73197
1.8616135,90.33329
1.8220372,88.19441
1.8696352,93.12803
1.7775863,94.513176
1.8777105,89.774124
1.7610017,82.531334
1.6609076,85.96567
1.6173369,87.466644
1.7006886,88.14934
1.5562588,87.32963
1.5832295,87.61849
1.566801,89.40276
1.4673879,83.52788
1.5367624,85.30967
1.46505,82.25116
1.6088889,87.4106
1.5008205,81.27254
1.5153738,81.65607
1.3929553,84.73103
1.39787,81.5496
1.5141572,80.90521
1.4515475,79.12023
1.4859221,77.080765
1.3515148,74.623535
1.3393698,76.21516
1.2878191,76.61558
1.298452,74.91339
1.3455623,74.44946
1.2247851,76.34461
1.2012751,72.58519
1.0949597,71.20125
1.2110322,75.97539
1.175957,72.39502
1.1317781,71.64957
1.0605905,70.409996
1.0523992,68.773575
0.96464837,70.35306
1.0967101,69.70236
1.0029792,68.309784
0.90433997,69.91968
0.7942975,68.66833
0.8340821,69.9122
0.8186585,66.367905
0.8160818,62.710724
0.77361107,60.550407
0.7138841,62.519905
0.6748097,69.67218
0.8149009,65.778564
0.6928865,57.34513
0.7578734,60.132576
0.76902616,61.120724
0.75106287,61.05127
0.6615126,58.91153
0.7270013,56.817867
0.7331718,61.94266
0.7206209,56.853264
0.7425509,57.18812
0.6809884,54.785583
0.5780531,55.659863
0.5557696,55.767544
0.7315046,54.202076
0.45097265,53.064762
0.39590043,54.124535
0.3973425,55.085567
0.5124809,54.043625
0.4185356,51.223866
0.36964202,60.04593
0.35426584,56.85325
0.20362271,58.641212
0.25279644,50.395546
0.31137985,59.24616
0.24128939,56.82849
0.20319031,55.60029
0.22714895,59.716602
0.25805578,59.03219
0.3692256,64.42499
0.3902053,60.776623
0.39565173,60.91954
0.43295503,64.23262
0.49256122,64.496895
0.47799915,69.77986
0.5813524,65.26983
0.71380335,69.11919
0.7400565,71.46392
0.7805244,68.00887
0.95671374,75.63225
0.99422234,74.04072
1.0733181,74.23621
1.1155915,74.01532
1.2293725,71.0222
1.2847682,78.620895
1.3763342,78.18843
1.41105,80.6735
1.4204379,83.35046
1.358164,83.00433
1.4457954,80.95231
1.4452074,83.706635
1.4768485,81.36916
1.5203301,86.25521
1.5395755,84.75429
1.5051048,84.49307
1.6532575,87.727684
1.6112509,84.06225
1.5079539,89.86252
1.5403152,85.00143
1.540546,86.75054
1.5889939,90.0786
1.6010844,92.88955
1.502465,88.31938
1.5459145,87.5641
1.5524582,88.49542
1.4859039,89.723694
1.4113674,91.455605
1.5653083,88.883995
1.3507079,85.04335
1.4541311,91.85518
1.3507832,88.67796
1.2075619,87.63865
1.1138774,84.99887
1.3230942,85.29175
1.2575684,82.76335
1.2631694,85.40059
1.1070141,82.385475
1.2212377,86.514626
1.1699637,83.725136
1.0608846,84.50878
1.1141207,79.38505
1.076642,84.67012
1.0325906,78.45629
0.96973747,82.43679
1.0741425,83.23513
1.0752348,75.86018
0.9135163,77.12937
0.9362239,76.45467
0.9524634,80.10537
0.91725165,76.89682
0.9144298,75.91368
1.0091913,70.6046
0.8383191,73.88873
0.9080269,75.74352
0.8362637,74.78778
0.7623632,69.16445
0.78744465,68.90354
0.762779,68.20382
0.7666312,69.23468
0.6370142,73.129776
0.6940825,66.72272
0.59944,69.006096
0.607253,67.19856
0.5265458,63.348732
0.56636417,61.4006
0.35283998,66.2551
0.49052307,64.052376
0.4281142,67.59353
0.4260871,66.629265
0.42582676,61.101295
0.3958959,59.510338
0.40025017,60.582283
0.38839924,61.74573
0.4441115,60.046795
0.3792204,60.05885
0.36341068,61.426895
0.323505,60.419727
0.3307127,58.879974
0.37228274,59.354202
0.35200164,53.139553
0.41907528,58.064327
0.19573757,56.850307
0.25415477,57.748577
0.23919727,56.29332
0.18583478,54.105106
0.17078362,56.77278
0.12021879,56.2329
0.03550993,49.677563
0.20937125,60.650127
0.034843225,56.42633
0.032711133,57.568157
-0.05161165,55.783108
0.041019812,59.494858
-0.115687475,56.09046
-0.058106832,58.38916
0.05706782,57.61559
0.0781156,59.005535
0.024705388,56.804733
0.070094004,60.418266
0.09057458,60.33231
0.25798044,62.617035
0.29779154,64.81462
0.3188097,65.39482
0.35190436,63.577526
0.36564368,64.68265
0.3811607,66.89381
0.5272633,69.01079
0.64110506,69.89975
0.63668853,74.1829
0.71322775,68.64129
0.7808212,68.84333
0.9102799,75.72739
1.0851537,74.54611
0.91562545,79.80619
1.0681357,77.578064
1.1108575,76.63324
1.1551166,80.23776
1.3589431,86.26106
1.2780627,81.063416
1.2999179,86.00538
1.3703808,83.92694
1.4128106,85.602005
1.3381908,87.8227
1.2468499,85.29918
1.3821206,85.346886
1.3931847,88.3674
1.3231053,87.17308
1.3849891,89.33111
1.3703892,91.2309
1.2718081,88.08642
1.3101374,89.24863
1.3572841,91.22404
1.4007936,90.747444
1.2904898,88.6611
1.388002,90.44169
1.2566968,89.62136
1.2786348,87.69415
1.1978508,87.77493
1.1211253,90.3228
1.1440614,85.30981
1.2060491,87.346756
1.0131184,89.45038
1.1208165,87.222694
1.1059711,82.86367
1.0504371,82.363785
1.0883539,83.76233
1.0462376,80.538956
0.9015939,85.27665
0.9720118,78.72217
0.975867,81.82633
1.0131544,79.51599
0.9802971,80.35513
0.98747814,84.221054
0.9253765,82.33667
1.0255461,83.93188
0.9210325,76.88445
1.0422115,79.55057
0.9921914,77.40847
0.9911391,77.000275
0.807573,72.11666
0.8645491,73.29495
0.84002656,72.60759
0.7574173,68.85016
0.7116216,70.911156
0.6971869,70.61216
0.8063746,67.42497
0.7261275,69.90169
0.63369644,69.76957
0.61255556,70.297676
0.64371276,63.464474
0.6025106,67.07491
0.5199521,59.726463
0.51650363,69.81772
0.46232826,65.18377
0.5793982,60.638947
0.34181353,63.58645
0.5209664,65.38088
0.3846839,61.285923
0.511952,64.33626
0.4174024,62.703354
0.5419293,63.59499
0.45145872,64.767075
0.39359397,59.840424
0.37871566,59.336002
0.43669492,58.508873
0.43514636,57.793392
0.4273049,59.98325
0.32256654,59.02158
0.46332732,56.093857
0.4113864,53.7252
0.3318737,55.82523
0.37495756,57.337093
0.34148368,57.390553
0.25232258,53.931503
0.2537341,59.132336
0.19656782,54.43517
0.20460686,55.34745
0.24855399,58.437817
0.21885976,59.126404
0.1888778,52.34842
0.15098958,59.449562
0.104957215,57.904434
0.083561786,57.03089
0.21729325,56.497894
0.16861817,59.697277
0.16106796,61.495724
0.08164634,57.980473
0.15448087,58.797802
0.37268484,62.760303
0.3373211,64.03921
0.36221653,60.915764
0.48532113,65.854866
0.5411026,68.227394
0.5313627,64.38955
0.61977756,65.8173
0.665032,69.57426
0.92138636,71.75336
0.95402294,73.39019
1.1186422,74.03839
1.0223709,73.24922
1.0852215,72.75388
1.2505151,78.221695
1.4528644,81.57109
1.3944844,80.37509
1.4164888,81.49295
1.4062697,80.999405
1.5400833,83.417625
1.5546297,83.32316
1.6402093,82.25568
1.5847925,86.18487
1.5907456,87.8534
1.5939608,88.78844
1.7267675,86.556786
1.5902777,91.20105
1.6021636,84.59913
1.6638174,86.33249
1.6002009,88.28916
1.7341152,85.19356
1.5798488,91.62594
1.6787984,90.810844
1.6725973,91.020386
1.5575538,89.41532
1.5637579,87.56367
1.5566716,85.79379
1.6102673,85.30111
1.642283,90.98532
1.5135068,87.31851
1.6482314,85.24695
1.4517684,86.27899
1.551133,86.890076
1.4458253,89.23476
1.4612751,89.13141
1.4835337,84.77416
1.3450438,81.55233
1.2962013,82.59554
1.4843389,88.004456
1.3799843,84.74824
1.2359446,81.63877
1.3120745,79.618774
1.3548625,84.71938
1.2543532,77.16331
1.2824025,78.3452
1.216692,77.74449
1.3784513,80.14879
1.233075,80.65632
1.1444879,74.722084
1.2359564,77.374016
1.2394085,75.306656
1.219784,69.47805
1.2685549,68.25444
1.1062425,72.57288
1.1107776,73.68538
1.1288736,70.40962
1.1526824,71.41601
0.9886128,72.97412
1.076703,66.57955
0.9706692,72.35888
0.9585881,71.43011
1.0106268,71.64536
0.86537445,67.25072
0.9866706,64.32183
0.8290429,68.09266
0.7781445,66.25739
0.8211177,62.897377
0.68053323,66.286964
0.8481008,67.56298
0.9001583,59.185238
0.7994751,63.490993
0.7838091,60.0193
0.8344665,61.20612
0.87956977,63.247524
0.80596983,59.55304
0.8722307,60.215275
0.8495011,56.413536
0.8954644,58.389988
0.8466208,56.63059
0.8202298,58.044933
0.69777083,58.38918
0.73448294,59.09211
0.7239966,54.346195
0.67311436,56.981907
0.6801751,52.28548
0.5754897,57.36163
0.63290435,54.30461
0.5813761,55.74191
0.65849894,53.532726
0.5349349,55.29072
0.48469463,57.282436
0.50994706,55.151863
0.4850909,54.254208
0.4690991,55.451942
0.46029854,56.692894
0.3470323,57.529766
0.4528048,57.568295
0.5293391,60.998352
0.52539593,60.697758
0.6977483,61.792004
0.652525,62.91874
0.70500493,60.84063
0.81931543,62.502262
0.79600984,65.413605
0.94100314,62.806698
0.93281156,68.43929
1.1459242,72.94702
1.2057574,68.23078
1.1014836,76.48938
1.295118,73.48432
1.3304302,75.442665
1.4416701,76.11128
1.6028355,78.806335
1.5427978,76.08397
1.7785294,77.23464
1.7727852,81.14882
1.7271057,82.09486
1.7871991,82.74016
1.6957744,84.5077
1.8975147,82.96325
1.9322872,78.09537
1.9900947,85.67615
1.8970598,85.85189
1.8143259,85.99141
1.9690578,87.70812
1.9336363,91.2011
1.8097049,90.041595
2.0053167,87.86945
1.9477441,87.498985
1.885978,93.20564
1.9517678,86.55968
1.9467728,88.39574
2.0325143,90.91224
1.8233602,93.49443
1.8250107,90.25879
1.807078,88.48026
1.9138489,88.86488
1.7364477,88.17086
1.8509089,85.39709
1.8324591,87.415535
1.7163558,86.47151
1.7674148,88.94104
1.5444064,87.679184
1.6170182,85.91312
1.767543,86.17224
1.6335893,82.4623
1.5791869,84.57556
1.5869148,80.66638
1.6116321,81.421745
1.5740994,82.62719
1.441706,83.2427
1.4057297,82.658325
1.5413595,81.549065
1.558073,79.557846
1.571278,81.15711
1.5391994,79.38085
1.5021584,75.7286
1.5213732,78.45829
1.4084762,79.62779
1.4421961,70.61757
1.4589278,76.65451
1.4202377,73.58844
1.3347989,73.70933
1.3498574,72.368866
1.374103,70.171135
1.3350292,72.54792
1.2671064,74.48725
1.2410067,69.129326
1.1160433,69.303604
1.0862659,68.00099
1.1433096,68.66126
1.2015129,66.29433
1.1680694,67.996155
1.077301,66.389626
1.0659395,69.274956
1.0073481,65.26619
0.94987196,59.986523
0.9128963,66.28125
0.97119176,65.079185
1.006686,62.873806
0.89934176,58.501553
0.8521021,63.905712
0.84752625,59.21751
0.8341855,57.447704
0.9310779,59.587917
0.9009667,54.285694
0.8703241,60.816986
0.8512775,56.15264
0.8328984,56.82144
0.9198206,54.456127
0.81749845,57.041634
0.80522746,55.75083
0.6760823,57.16923
0.6734481,58.499348
0.7186746,50.352047
0.6684187,57.838844
0.6754121,51.177055
0.6142407,53.152897
0.57128614,54.964108
0.31626183,57.99773
0.5658568,54.84727
0.43517572,55.122112
0.40173146,57.037033
0.54845107,61.054077
0.4559401,58.661907
0.4067053,61.98833
0.49050087,60.004005
0.38256395,62.00491
0.5938339,61.17398
0.6122148,63.336456
0.7061914,64.56913
0.64133143,67.24221
0.87818784,63.758457
0.90323484,63.478092
0.91574067,64.63274
0.9943969,70.44016
1.20926,71.3493
1.2421776,77.38046
1.1761864,71.18911
1.4002417,74.68877
1.4322398,74.843376
1.471054,73.55883
1.4380338,76.309456
1.4477522,79.85456
1.6341333,81.28311
1.719209,78.1028
1.7122725,81.01462
1.7648809,79.90745
1.807259,84.49909
1.7087847,84.842636
1.8487028,91.104095
1.6481955,86.808044
1.8055953,85.02963
1.77522,88.19969
1.8222291,85.81348
1.8364793,87.19094
1.7733644,87.68339
1.7362987,88.4079
1.8483009,88.91136
1.7604187,92.36961
1.7216606,87.167435
1.7694741,91.49954
1.6925485,86.68073
1.7243997,88.67668
1.635476,86.3437
1.6371284,88.31882
1.576371,90.41941
1.5802388,88.80872
1.6273664,91.95004
1.4927472,84.753
1.6074518,86.33632
1.3663111,83.962456
1.4317982,82.81379
1.4577181,81.88663
1.3585634,79.06763
1.3696666,84.17799
1.4291372,84.18153
1.3520409,82.02233
1.3210258,81.7274
1.1779271,82.33271
1.1754097,82.48743
1.3310931,76.83513
1.2792392,79.95496
1.1250762,78.017456
1.2208407,79.9493
1.2625723,79.796036
1.1421549,77.8414
1.2060444,74.11492
1.1425687,73.67206
1.2044213,73.16322
1.1368083,72.011
1.0035603,73.37237
1.0511956,76.4905
1.1518172,77.1707
0.9565418,72.474625
1.0054744,70.05861
0.8997173,73.68634
0.8418217,70.27009
0.8956818,68.97467
0.81597614,67.31635
0.7469956,69.7383
0.74254507,67.62771
0.7031951,68.882065
0.6117489,65.26646
0.67596155,66.687164
0.6957493,62.44259
0.6594838,63.140396
0.6397406,62.296547
0.40107614,61.388462
0.5844794,62.13047
0.5505694,60.799747
0.6322804,58.372387
0.438795,56.923096
0.55812263,54.8511
0.60369694,56.268368
0.5009946,60.42328
0.51866335,55.865505
0.57563764,57.46337
0.45375544,54.731003
0.5803574,57.050526
0.4423829,57.62197
0.4373277,55.92312
0.44455567,53.39911
0.22147049,55.739075
0.27831003,52.778072
0.21066986,54.474648
0.07131024,54.483562
0.15120876,55.437637
0.12554874,56.15533
0.14046173,58.243958
0.07653946,57.10758
0.108864546,60.811012
0.1446084,56.547153
0.09498532,59.59056
0.08172644,59.627193
0.22423983,61.7537
0.034399968,61.93513
0.25829023,62.229786
0.2058536,61.765396
0.22601886,63.390923
0.37595993,66.25394
0.37809804,63.399815
0.4088728,68.35534
0.5517219,72.21583
0.6275433,72.11764
0.7660587,70.133
0.75256795,71.95128
0.9833037,72.21939
0.9312644,78.28444
0.9917697,79.225
1.0238304,78.60088
1.1636462,75.792305
1.202049,80.5359
1.2771269,80.22095
1.1978766,79.41337
1.3175371,80.13741
1.2730536,83.39038
1.3185308,81.81216
1.4188999,81.632774
1.3407537,88.87287
1.4731696,87.53057
1.5205795,88.0284
1.4414824,85.96047
1.3123667,84.61404
1.4607964,88.744286
1.3663355,87.43166
1.387116,90.955376
1.3913399,86.46128
1.4574293,90.64442
1.4641796,88.502045
1.3686157,88.8554
1.3079507,89.00674
1.33261,86.97577
1.412869,84.6415
1.3749814,88.7584
1.2790358,87.05334
1.1926644,85.79136
1.2206304,87.45785
1.261053,88.15101
1.1882843,86.913536
1.2630978,88.671776
1.144424,84.1912
1.063326,85.62844
0.960727,82.958466
0.97308385,83.80678
0.9724386,82.00636
0.9569159,84.81194
0.9387534,81.543915
0.9886596,79.23565
0.99521905,81.9885
0.9730443,79.521255
0.8391528,76.344505
0.9059581,75.946495
0.9877251,81.08006
0.803583,69.55104
0.83791304,78.12585
0.8637852,74.38817
0.8321995,75.915886
0.7767238,72.48252
0.7635829,74.99829
0.83647025,68.59449
0.7766271,76.58738
0.7631588,70.11325
0.69279623,70.36584
0.6201828,67.62642
0.7234238,70.73783
0.61248577,70.29836
0.49623495,68.86787
0.53318924,70.262794
0.45781603,67.56083
0.48774534,67.689705
0.3548891,64.7924
0.40281045,68.53028
0.3516111,64.27706
0.35314748,65.24056
0.33431464,63.738106
0.39688265,63.73981
0.24091956,66.62469
0.4393057,60.156666
0.25173113,60.558586
0.30377555,60.082516
0.34449568,62.736248
0.3285537,56.750633
0.35691935,57.807457
0.28810596,60.884857
0.28802413,54.403522
0.2795114,54.37626
0.43186304,55.33395
0.17283599,57.192524
0.29268718,56.47238
0.16437197,58.91497
0.13572238,58.36327
0.17076728,53.40288
0.07120823,54.185318
0.04477599,54.60992
0.024649361,56.161106
-0.07861,54.1277
0.018594982,55.202427
0.0049879667,57.384506
0.010941468,56.885166
-0.085850164,60.644356
-0.055392865,60.781532
0.03210484,63.936302
0.09652779,61.981636
0.07878712,57.654778
0.040188868,60.69211
0.1281985,65.583046
0.20762515,59.88399
0.14680134,61.412163
0.3166627,65.51165
0.50069475,66.97354
0.3800455,71.14514
0.5476845,69.257
0.6026365,68.49849
0.792118,65.332855
0.7589468,69.37246
0.8032323,71.55079
0.9843652,71.87919
1.113776,74.934875
1.0933609,77.1021
1.1743318,77.73675
1.3243765,73.829
1.1795574,85.07583
1.3568414,82.28315
1.3092638,82.00604
1.3692175,83.808975
1.384401,84.00798
1.3754553,84.39422
1.3727835,85.846985
1.4604132,87.73018
1.3984432,86.39067
1.3582876,88.11029
1.4389223,90.31163
1.4725853,86.66005
1.3219976,86.51256
1.431472,84.177605
1.500842,86.059135
1.4430381,90.46683
1.462472,89.30693
1.4387951,89.0525
1.2711282,88.26781
1.4623086,88.65056
1.3572338,85.0084
1.2995666,84.89276
1.3174915,87.59037
1.3097861,89.0545
1.2691095,85.063995
1.2734157,92.45308
1.148088,87.685745
1.1810877,87.87278
1.1527077,83.407845
1.2008581,83.728775
1.0950725,84.58066
1.006263,85.49348
1.0545024,81.72776
1.0537703,85.21346
1.0683944,78.87731
1.0797961,83.327286
1.0413285,79.83035
1.0679404,79.40048
1.004531,83.93554
1.0622178,77.39652
0.966735,76.99101
1.1019588,73.84817
1.0127325,79.63547
0.958991,73.85496
0.99612707,78.37524
1.059937,70.04674
0.96864563,76.90231
0.87380415,74.4456
0.93180716,74.69434
0.90821904,71.6563
0.9438773,69.88503
0.8954713,70.99871
0.7695191,66.89
0.77923644,69.48399
0.7226998,69.64786
0.7320751,69.98931
0.6403738,67.75304
0.6275388,66.45675
0.5819836,59.670895
0.49074948,64.6572
0.56927097,65.76431
0.5463936,65.87076
0.6387256,60.666332
0.6178526,62.54399
0.5550933,59.599983
0.5766161,60.377056
0.52781475,60.458225
0.5231532,60.973827
0.590856,57.508114
0.70074195,58.257587
0.63834286,58.15027
0.4382703,61.149303
0.5881167,56.133007
0.5187231,57.49997
0.39521232,58.32591
0.5861552,55.83079
0.5054365,54.32161
0.48515993,55.57345
0.41035098,54.44275
0.34113708,53.04291
0.46920857,56.85948
0.4286357,57.241234
0.40350124,57.878597
0.35231638,55.742054
0.21113507,61.1644
0.2572261,59.743538
0.2115534,54.100315
0.3285404,60.187466
0.25214037,58.91985
0.2673805,54.94424
0.28866336,60.93074
0.2725403,62.906536
0.4194682,66.775856
0.4501355,63.322292
0.55184674,60.852856
0.59689635,67.79181
0.780235,66.366875
0.75048363,67.15518
0.6765495,69.04383
0.99479485,71.54617
1.0273868,72.00719
1.0114328,73.25114
1.1806272,73.46787
1.2034898,72.67317
1.3405548,74.767235
1.4491915,77.35212
1.431013,79.21584
1.5459436,77.65888
1.6466405,76.55731
1.600645,82.57462
1.7182547,78.54177
1.704927,81.857086
1.6549382,82.39309
1.6830482,83.7596
1.7822815,82.55896
1.7277054,80.351654
1.7082784,88.51047
1.7862073,88.16549
1.8423203,87.88687
1.7312497,87.95039
1.7894384,88.43188
1.759168,86.902664
1.7347372,88.52142
1.7857159,88.790985
1.8297731,91.169304
1.7558728,89.1499
1.7728764,87.69799
1.8125815,94.038246
1.7384522,88.81469
1.6483535,83.027565
1.5589075,90.14039
1.702843,90.059746
1.6227679,85.85744
1.4576312,86.5193
1.5784653,87.53883
1.5079736,88.40748
1.4804426,85.47264
1.5287689,87.37936
1.5168607,83.39226
1.431265,83.14241
1.5632212,84.90311
1.4109437,83.619354
1.4424789,82.10873
1.4147319,80.61351
1.5286996,78.73927
1.4873924,78.21087
1.427096,77.554825
1.3865788,75.31477
1.5124626,78.42786
1.2439203,72.27428
1.4721166,77.56737
1.4574538,77.07721
1.4018161,73.51925
1.4190506,70.85265
1.3452916,71.32858
1.3377243,70.12761
1.3327758,74.982925
1.2953088,70.401245
1.1877583,69.74921
1.2248946,69.00383
1.1789869,72.0096
1.206032,70.09368
1.0952382,71.675316
1.1303124,67.315125
1.0797017,66.69336
0.99428666,70.14419
0.94768876,68.82554
0.85076547,64.882774
0.9022576,64.93976
0.9995956,64.3257
0.91696095,58.89951
0.95452124,62.531498
0.8505347,62.544453
0.875646,60.11874
0.88944465,60.455715
0.98593915,59.25037
0.8706063,60.57481
1.0156384,58.187218
0.9446812,58.17779
0.95211583,55.0024
0.93708444,58.336464
0.7907865,57.982704
0.78956777,54.847187
0.7910175,54.586594
0.8063584,57.904575
0.8464964,51.324303
0.7444484,52.952324
0.6760634,57.643238
0.90047014,51.964436
0.645929,59.76027
0.6335968,55.76801
0.6066122,53.466434
0.5731875,52.120617
0.5316614,55.669594
0.50040185,54.264412
0.4986425,61.66977
0.5367617,58.383415
0.5513807,57.774307
0.622511,63.02756
0.56023294,61.768173
0.6581827,63.43707
0.70098245,62.715057
0.76979697,63.337254
0.8119744,64.85065
0.82646585,66.02757
0.9052469,63.67554
1.10555,70.61134
1.0376378,65.84207
1.3020048,68.30432
1.1342046,69.033806
1.4562701,72.85899
1.2530638,75.20196
1.4969492,76.12338
1.6989015,74.28877
1.6204872,77.223656
1.6720655,78.54463
1.692114,79.485435
1.7690294,78.81757
1.8256016,83.3542
1.8678155,84.24022
1.8347474,85.30888
1.884295,83.31145
1.8911438,81.432045
1.9168915,85.14953
1.8722621,86.16666
2.005411,82.957184
1.9172314,86.61628
1.8651268,85.158905
1.9799598,92.82093
2.0084875,89.81034
1.8578496,87.24067
2.0138893,87.7554
1.9665377,83.80651
1.9526161,89.29213
1.8177052,88.99436
1.7818153,94.7797
1.8184435,89.96141
1.8263397,89.2618
1.7318077,87.2998
1.7586542,90.60364
1.9355896,89.700386
1.756817,89.06732
1.656305,85.84863
1.668815,87.543816
1.5866185,85.578156
1.6076422,85.329895
1.582641,87.17602
1.5004349,87.63458
1.6204693,82.94917
1.547799,81.672325
1.5546788,80.92168
1.5023602,82.02931
1.5085568,85.02884
1.4927418,78.41863
1.3933505,76.69869
1.5087649,76.90215
1.4511206,77.1234
1.3298494,79.68235
1.5020546,73.962
1.4536036,79.92142
1.3950351,78.0085
1.3207849,76.0342
1.2010645,70.85071
1.3820175,71.65453
1.262072,74.8957
1.1771483,75.151405
1.2433512,70.21953
1.1619545,71.19671
1.1768533,70.79951
0.9860517,71.78164
1.1336455,67.8878
0.9067644,65.382195
0.99418575,67.356705
0.916885,67.1688
0.9289797,67.708145
0.94776595,66.27275
0.86104476,67.28446
0.85289955,67.791725
0.84251314,65.436966
0.9021522,62.734573
0.8185391,64.83659
0.80350596,64.802315
0.7450206,64.17722
0.7763111,62.02399
0.7641926,61.298046
0.74453956,60.822025
0.82126313,57.696026
0.83219045,57.8967
0.66977876,55.58289
0.69899684,57.326416
0.76609623,62.77169
0.6934007,61.747925
0.81579924,57.2569
0.6837491,52.008266
0.6490833,55.94836
0.5860511,55.554688
0.5926279,55.61066
0.5650665,58.49153
0.44086486,53.865265
0.4407652,52.2925
0.44705364,59.26242
0.36881202,55.258503
0.311193,56.897625
0.29237399,60.51557
0.41727772,55.76432
0.3573918,59.065186
0.3780593,61.715866
0.32948208,58.56824
0.39900047,56.587917
0.40085697,62.392918
0.45288974,65.29439
0.44875163,63.508972
0.5386541,64.83783
0.56865275,62.696323
0.7189954,68.22612
0.6991692,71.76282
0.8697401,68.10672
1.008907,70.843925
0.9567132,71.24881
1.0704234,70.74789
1.1589617,72.35065
1.2891753,72.140175
1.2565389,79.34143
1.2738492,78.68998
1.3005238,80.76385
1.400195,79.05032
1.6101439,79.95258
1.4643699,83.696754
1.3538686,78.52739
1.5637612,81.88945
1.6092248,85.5584
1.5599935,81.866844
1.6313246,84.4792
1.6321313,90.3647
1.6303612,86.93528
1.5903833,86.91086
1.5352077,89.260124
1.6258556,88.49604
1.6566234,87.76342
1.5253164,85.72119
1.6808879,92.71919
1.5769678,89.119576
1.5931419,92.20422
1.5802985,89.19354
1.5559384,88.668274
1.5688545,86.521645
1.4396989,90.76462
1.6224524,84.57935
1.4390311,89.33853
1.461246,83.666725
1.3664107,85.88555
1.303914,87.994484
1.3942667,86.18414
1.285864,83.93374
1.247484,84.14668
1.2194045,86.311806
1.2086828,81.23415
1.2277793,84.12754
1.1699872,81.39227
1.0323879,86.62392
1.1426688,81.62826
1.1261628,83.02084
1.1733555,80.33405
0.98252267,79.05923
1.1525613,72.808334
1.0881137,75.56912
1.0067486,78.97105
0.9577368,77.61052
0.9936626,76.272026
0.9462376,78.022385
1.0465465,67.58045
1.03429,69.60005
0.9226086,75.9196
0.89083385,72.90704
0.9827902,69.32834
0.88839203,74.37465
0.76654875,72.67634
0.7901047,69.7498
0.71591914,72.87772
0.7645582,70.001526
0.6590399,72.34004
0.6711885,71.6223
0.62998253,63.48836
0.6447496,66.852646
0.62421125,63.721947
0.47719592,65.80509
0.40749294,63.35404
0.39287254,66.78868
0.39656356,61.345196
0.4059016,63.74596
0.35259777,60.7359
0.43128294,60.055885
0.4350863,60.020233
0.3392734,66.9723
0.37822914,59.8603
0.4397365,57.065834
0.3302009,60.401672
0.31430912,53.527428
0.3927918,58.068287
0.35041517,57.403774
0.33445507,57.161037
0.3217413,57.294624
0.29903325,57.45879
0.30773208,57.37228
0.12656315,52.38608
0.29374757,53.861057
0.16093238,54.92887
0.17312165,56.346645
0.09592238,57.277515
0.037063435,57.051193
0.01844794,53.519093
0.0074141514,55.52013
0.0029944577,52.75491
-0.0243832,58.204693
0.026732603,60.75173
-0.046259902,58.329895
-0.046464004,60.193874
0.04184176,63.03325
0.06748603,62.935116
0.061049905,63.861805
0.32580197,62.31646
0.32795537,68.36993
0.11886217,69.421
0.43887314,71.43661
0.3767002,66.9986
0.5387593,73.213585
0.63317853,68.16898
0.7022195,72.68002
0.7782256,75.8111
0.92084795,75.94293
0.9289432,72.04792
0.95489895,78.13917
1.0090632,77.029175
1.1650561,75.06624
1.1411963,79.93765
1.1589651,81.9824
1.1545203,84.16983
1.3414031,86.76854
1.394017,84.03749
1.2996259,83.63372
1.4309336,80.20346
1.2972798,84.41031
1.3494895,88.400635
1.3728596,86.4102
1.3181534,86.04561
1.4769235,88.77874
1.4018055,88.0073
1.4433417,88.60595
1.3580227,88.20445
1.3338627,91.68756
1.4239029,86.81757
1.2902273,92.11902
1.3134791,87.81745
1.2886419,88.8152
1.3696814,87.75288
1.2008114,87.980545
1.2574215,92.37512
1.247056,85.93029
1.0424039,90.23403
1.210444,90.31318
1.0969492,87.04564
1.0659065,87.22856
1.1688035,84.19686
1.0788212,82.717125
1.0207415,89.62118
1.0011007,89.719124
0.99642843,83.96274
1.0583903,79.80996
0.9390888,80.07851
0.9687673,79.285545
0.9326331,79.401024
0.960065,77.24681
0.9727214,79.45789
0.8637998,77.73047
0.89064,80.84543
0.9947099,81.31298
0.9166328,72.59889
0.8956024,78.3866
0.8642039,75.16774
0.8523984,76.554146
0.83663034,76.402695
0.80932885,73.86188
0.75182134,72.3569
0.6882701,75.574905
0.77099514,66.62436
0.7047984,69.8217
0.6000148,69.98133
0.6633033,66.812546
0.51315445,70.82661
0.55001545,69.45174
0.5609581,67.610954
0.5578405,65.032845
0.41792053,64.44773
0.47436976,63.114883
0.39712712,64.23768
0.40844095,62.332314
0.31170765,64.5976
0.4592394,62.86024
0.34178108,62.800053
0.38289008,56.779785
0.29555148,59.532238
0.36273187,57.915592
0.37536108,59.662903
0.3744103,60.10869
0.43679994,60.50084
0.3551337,55.681206
0.41588968,57.726192
0.4077565,56.19907
0.3193518,57.846233
0.21716623,58.80762
0.25024396,57.446964
0.2682985,59.18658
0.235284,58.983185
0.22070642,55.726604
0.12025764,53.82735
0.1510087,56.74602
0.08266984,55.966873
-0.037893243,58.28717
0.16657819,57.20383
0.089259684,55.26383
0.1632339,53.421803
-0.018204905,56.939613
0.09048998,60.977074
0.08508394,57.915974
-0.006420642,58.94095
0.017752925,61.772663
0.14169784,63.025803
0.08354381,60.191303
0.3005534,62.637646
0.26598158,69.02897
0.37997192,63.981377
0.54292434,64.88879
0.53116953,71.768166
0.5343845,65.76791
0.73295623,67.79296
0.73384666,70.42415
0.8169745,70.5273
0.93854696,75.78286
1.0311214,75.37832
1.1202183,77.69219
1.223404,77.34033
1.2363354,75.11693
1.2408221,81.27176
1.2485685,80.360916
1.4188339,83.229866
1.3848252,79.47885
1.3491536,83.00842
1.4007444,82.98123
1.3929833,85.36909
1.4531268,82.736916
1.5113648,86.40125
1.627921,84.00044
1.638299,86.70901
1.5623589,88.18183
1.6029187,90.07078
1.6544425,89.67314
1.5894723,89.24285
1.6104476,94.5071
1.4828078,89.5436
1.6621392,89.79913
1.5138369,91.22131
1.4440383,91.048485
1.4997747,88.7879
1.5309824,89.669914
1.5420748,88.372795
1.3581703,89.28749
1.4333874,82.8475
1.3549409,85.784546
1.4218808,86.5567
1.4176803,87.43033
1.3632975,84.37924
1.4329038,84.92726
1.335411,91.615746
1.2688656,83.78049
1.2064805,82.18752
1.306132,77.99496
1.248854,78.993515
1.1629317,83.1855
1.1495429,79.19675
1.203837,76.74793
1.2296691,76.167786
1.1735568,80.985466
1.2042785,79.10426
1.0997463,78.86659
1.2708473,78.807884
1.3243719,77.618126
1.1486266,73.331375
1.1188196,75.05676
1.1342067,72.54149
1.1415682,72.51819
1.1461043,72.93643
1.1116775,72.018196
1.1096189,73.14754
1.0702816,72.94717
0.9151034,72.58394
1.013213,67.94125
0.8607208,69.52651
0.8415927,67.07475
0.95401984,64.03121
0.77319664,67.5849
0.84890556,67.40684
0.8657857,70.289696
0.8289088,67.00705
0.72646654,64.75337
0.7466135,61.55878
0.7848111,59.08957
0.78614014,60.128166
0.7237496,64.128685
0.6992344,62.339622
0.78048897,61.545692
0.65865636,63.667347
0.7064332,59.71055
0.7307872,61.655293
0.7843335,57.38043
0.70917094,59.804943
0.6457857,54.329243
0.6989247,53.434185
0.6002908,55.415054
0.6663616,58.545254
0.6338903,55.379223
0.59600836,54.254814
0.5926996,57.018578
0.5366693,57.42746
0.5363822,59.51627
0.5874748,57.22713
0.41378435,56.711403
0.4800009,55.23784
0.48699078,58.819683
0.37421137,57.94017
0.34023556,58.81433
0.55444425,53.459656
0.4318767,54.144173
0.4438309,62.33787
0.46750173,63.096455
0.4948536,63.606804
0.5973071,59.60665
0.59737027,67.50981
0.6323104,60.587383
0.6904266,64.821365
0.716406,69.73247
0.8487724,67.87382
0.8953856,62.71014
0.9952627,67.85966
0.9979392,66.37159
1.1484097,74.59324
1.2950456,70.87941
1.3079957,77.143036
1.3370694,76.36249
1.3682477,78.74093
1.4774472,80.30648
1.6979256,82.643814
1.6296147,78.51179
1.6659906,79.17026
1.7138556,78.59946
1.7567564,81.90309
1.8374822,82.70256
1.8422008,83.081696
1.8208182,83.63005
1.844307,85.25703
1.9281635,84.961395
1.9685894,85.27498
1.955569,89.61894
1.8956778,88.54686
1.9209603,89.07132
1.8992056,90.86585
1.9425728,90.71836
1.9986274,90.42728
1.9206282,90.52185
1.9347595,88.95777
1.9031965,88.51818
1.9456257,86.321526
1.8018957,91.03037
1.8213506,87.99231
1.700881,90.04449
1.751972,87.56454
1.7636168,88.27539
1.6949015,88.14689
1.7535557,86.80281
1.7039708,88.29161
1.6647862,85.97379
1.6300969,82.63082
1.5901176,85.44212
1.4759034,86.186485
1.6952146,81.44652
1.5174361,82.20301
1.5349004,81.779465
1.6569458,83.39612
1.497954,82.679726
1.5425253,78.68112
1.3947644,77.794525
1.4188128,77.81005
1.3945035,79.10595
1.444941,80.26476
1.407449,76.6855
1.4635898,74.46507
1.4550612,78.50944
1.4020569,76.297295
1.3848182,74.659805
1.4206841,76.99471
1.3960271,74.96892
1.4201394,70.828224
1.2903486,70.89967
1.1515731,69.35425
1.3215195,76.48638
1.2188164,69.27979
1.09213,72.055016
1.081399,68.93262
1.0929403,63.41761
1.0564724,68.94779
1.1201761,66.63962
1.0441366,67.05253
0.96650195,65.6458
0.9842852,62.53475
0.8099244,65.98836
0.938337,63.201424
0.869982,59.99893
0.900726,63.07535
0.9907558,60.68142
0.89256775,55.311214
1.0211918,59.120182
0.92402685,58.263023
0.90670073,58.63735
0.9343465,56.809834
0.86395514,58.990093
0.91439325,56.657825
0.8796336,56.93332
0.79310113,58.771076
0.8418361,55.16984
0.82152367,58.424362
0.8060512,54.479626
0.86100864,57.172478
0.73463744,55.143024
0.6247696,55.265976
0.6460173,60.051914
0.6334767,55.625927
0.61742395,55.86431
0.63528216,58.254307
0.48599187,54.495895
0.49934462,55.188778
0.55632657,56.032345
0.47369412,56.893257
0.5476465,63.19002
0.5210793,57.95948
0.5442276,59.796257
0.6410527,59.5383
0.73309124,60.10349
0.6914956,62.978542
0.7692147,63.522522
0.89136785,66.7238
0.851724,71.40182
0.91331214,65.25739
1.097137,69.83985
1.1825024,69.39568
1.2047377,70.971886
1.2891489,71.82862
1.3797065,74.41811
1.47978,75.162506
1.5238676,80.291275
1.4903868,80.53742
1.6027445,80.67005
1.6060529,78.349945
1.660291,80.71127
1.7315329,84.71239
1.7315089,86.492935
1.8292228,86.875786
1.7849774,84.799736
1.829961,84.91035
1.8198571,86.13427
1.8346517,93.442604
1.7907465,87.75002
1.9141289,89.18526
1.8698488,87.62815
1.7459869,90.59044
1.8589584,89.55028
1.8385597,88.18641
1.7353269,89.48608
1.7625035,88.27268
1.9171997,88.98656
1.7947053,91.03492
1.7734901,88.86628
1.7047185,90.34314
1.6669458,88.38509
1.6649319,85.97921
1.5856614,87.548676
1.7199777,88.3416
1.6601715,87.99978
1.5160261,86.46261
1.5847342,83.66377
1.4679769,85.72662
1.5299035,82.4609
1.4084991,85.48991
1.5051105,81.943924
1.472123,82.115425
1.5757313,80.949265
1.3883803,79.38599
1.4044157,80.24419
1.2994404,80.72886
1.2938409,79.90037
1.4080954,78.21301
1.2839242,82.91456
1.2785634,78.04933
1.2526165,75.69126
1.2109561,73.00355
1.1907879,75.04939
1.2617637,73.94889
1.3091894,75.73366
1.1937184,73.49247
1.1479816,73.915825
1.0407279,73.75866
1.0867181,70.53383
1.0083131,73.02528
1.0224103,73.65344
1.1034185,69.16763
0.91777223,70.03974
0.8857704,67.1449
0.78566444,67.03114
0.7855704,67.8579
0.7942083,66.053185
0.72930896,62.13753
0.74508744,67.45677
0.71109563,68.69733
0.63404596,63.912716
0.72218716,61.408516
0.712891,64.85857
0.7049394,62.290363
0.5881262,62.166996
0.670911,62.86936
0.5699403,60.542587
0.54857683,58.098427
0.71794856,57.536522
0.6428304,60.907684
0.5869271,60.582653
0.54490775,52.990295
0.55177855,57.48658
0.61351925,59.209026
0.50111866,56.76926
0.54102284,54.678146
0.4594003,51.836895
0.5595095,58.37171
0.4497615,56.02041
0.31927684,54.03866
0.40686676,55.49448
0.30346447,59.262657
0.19668758,56.85208
0.17902258,58.351395
0.3175956,57.50068
0.14865305,58.519566
0.20438515,57.274586
0.25047266,61.905186
0.097931035,59.975536
0.22232588,62.24449
0.14755946,59.45599
0.26301822,57.41589
0.25944558,59.43069
0.27209198,60.8555
0.34684807,64.496284
0.47380957,68.623566
0.51078904,67.63907
0.6529896,70.80341
0.71382195,73.490364
0.64229804,71.18601
0.91829395,67.10202
0.844008,75.43979
1.0094752,74.83826
1.0765407,74.02509
1.1522375,75.53298
1.1891361,77.799866
1.1380281,73.10127
1.332087,78.49872
1.2955389,80.96963
1.348703,80.39702
1.336843,81.056564
1.3952396,83.745346
1.5185534,84.2852
1.4091017,85.70642
1.5215186,86.650406
1.488002,85.522285
1.4234759,82.139534
1.5139501,88.03717
1.5182451,88.76351
1.4409623,90.53038
1.4832375,88.677956
1.4137162,87.964806
1.5377854,89.54124
1.4245726,87.229416
1.4327067,88.682785
1.4234388,89.536095
1.4151385,89.8177
1.2477856,87.905716
1.391771,90.645485
1.3354686,91.05753
1.3090098,85.31031
1.2776167,91.65921
1.1945047,84.92574
1.1744623,86.65611
1.165931,86.01623
1.20226,85.72442
1.1381807,83.43366
1.2031194,85.611984
1.1173782,85.3178
1.1572098,80.97273
1.084053,83.35604
1.1190972,77.88382
0.9554621,77.42629
0.9496267,82.57981
1.0009288,82.1234
1.0195545,77.62158
0.98272157,81.411804
0.95968497,82.67126
0.87414896,77.15481
1.0659485,80.521255
0.94275355,80.25165
0.89390063,81.85369
0.7794843,76.121315
0.6851045,76.75499
0.8187191,73.7195
0.7918211,70.00007
0.75641215,73.42501
0.8181945,67.40613
0.6670941,72.98677
0.7369008,73.1532
0.6621625,69.579636
0.54691386,69.8038
0.6577271,66.220055
0.49599797,66.62292
0.44219986,65.62156
0.47588703,68.03893
0.37821022,62.63246
0.43573472,66.251015
0.41199043,67.71302
0.38893095,59.975655
0.27578548,62.599598
0.38553208,65.91674
0.36000544,58.514576
0.37110907,60.982796
0.34315497,57.481407
0.36863503,62.672886
0.42486092,59.34271
0.42556804,58.44744
0.29953918,56.025406
0.30026734,57.471893
0.33799025,57.093204
0.3199373,56.419445
0.2185574,54.558308
0.2373006,56.830864
0.26578546,57.151546
0.18205164,55.136925
0.20479874,56.918884
0.20536332,55.2395
0.11944745,58.287075
0.13293521,53.462208
-0.010413822,60.28183
0.09105024,51.881542
0.0033336952,57.488346
-0.0003363141,61.493412
0.035746753,56.506214
-0.038420547,61.436554
0.025205413,58.397285
-0.030445503,60.89703
-0.07670444,59.004185
0.0043288455,61.265682
0.087323666,62.001415
0.051334146,64.44201
0.15235017,60.432487
0.15086916,67.656425
0.12966906,70.15652
0.3037258,66.09084
0.43254882,67.36666
0.5283742,66.10623
0.62908894,69.700356
0.55768216,72.61852
0.66702825,67.23532
0.66847295,76.36419
0.75094587,76.63892
1.0063288,79.33387
0.94869,76.69277
1.0370009,76.92969
1.0228196,80.04275
1.0881138,79.816345
1.2774918,80.6083
1.2668436,82.536575
1.1476618,83.689575
1.2691424,88.60944
1.2857032,87.737976
1.3002012,83.18182
1.4491328,86.81627
1.3817526,89.74566
1.3561361,85.61898
1.3856041,86.53798
1.444802,88.13739
1.4034821,85.699486
1.4564462,91.95262
1.4028699,87.876
1.4701415,86.100746
1.3990576,91.738846
1.4204328,90.687294
1.2830509,86.0622
1.4674673,90.46623
1.2742503,86.82412
1.3288481,91.931885
1.3182629,90.46244
1.1391761,94.06024
1.2812375,87.61266
1.2012542,86.71459
1.1572156,86.89409
1.1051819,86.23687
1.0774643,86.47685
1.1310543,83.60678
1.1525384,81.59088
1.0618554,81.35732
1.0893296,83.42011
0.9647773,80.39408
1.0678655,81.71784
1.1043322,80.81973
0.9994688,82.099655
1.0621688,79.05682
0.9218468,82.93098
0.90424925,82.01213
0.945835,81.65493
0.8806626,77.704384
1.0373553,80.71699
0.94696337,74.19268
0.9676158,76.22052
0.9304451,73.6191
0.84234583,76.920944
0.9692221,74.63445
0.73394483,75.51428
0.8612598,73.20386
0.72718525,70.36069
0.81021553,71.72705
0.74287534,68.64809
0.7389119,68.895706
0.7014297,67.24389
0.6416241,71.46234
0.69295937,69.4185
0.5479968,67.253746
0.57770944,70.21681
0.56399024,64.21404
0.48502073,67.815025
0.49551722,64.12343
0.599552,65.269104
0.4776501,67.112
0.393156,62.788155
0.4547618,61.454605
0.42188314,60.65072
0.38578376,62.09134
0.48796412,63.825428
0.47071484,61.466335
0.4686981,56.177784
0.4679848,59.82466
0.41635844,56.54191
0.46026546,56.891582
0.44847718,58.477947
0.54354614,56.874
0.4381804,59.133286
0.4481307,60.67438
0.39972994,55.815083
0.45234618,53.255825
0.3154663,57.03704
0.27202877,53.96381
0.29441738,57.901917
0.38319412,53.595886
0.14926897,51.58703
0.21506129,60.754776
0.20581713,55.647297
0.03953441,58.999195
0.16495351,59.292484
0.22378895,58.193623
0.1035672,62.791462
0.20049207,63.56447
0.28725573,59.335434
0.4311761,64.45371
0.37227145,65.18762
0.4587471,67.32674
0.4847089,71.62616
0.6045511,66.31426
0.70210874,64.4847
0.82234424,69.70754
0.89610106,72.75195
1.0360645,67.689476
1.0197467,71.75174
1.1496432,75.52628
1.1416317,73.923
1.3273247,73.97833
1.28061,74.37916
1.3230264,81.876656
1.4588541,76.01714
1.4614546,76.84415
1.6231629,79.68986
1.7011257,81.09474
1.5918157,82.90023
1.6169841,81.17644
1.6838437,88.53731
1.7394364,88.270065
1.7521242,86.56492
1.7590668,88.00197
1.7455131,90.15198
1.6737956,87.748
1.7239492,87.013664
1.7818427,89.68603
1.7006295,90.02798
1.782357,86.824326
1.7267342,90.30667
1.6472933,90.12681
1.696195,85.202576
1.751564,91.212944
1.6069313,90.39994
1.6857716,87.77838
1.6474115,90.08975
1.7629169,86.7606
1.6058068,86.21207
1.6878232,88.17286
1.5274416,86.218925
1.5537486,85.27333
1.4066414,87.45155
1.4328452,84.52886
1.4900707,86.03411
1.4286987,84.03882
1.3196623,84.924706
1.2763808,80.76634
1.3747004,80.88493
1.3335974,84.52482
1.407094,81.34744
1.3471931,80.47034
1.393032,78.662384
1.2919171,78.5609
1.3492341,79.099785
1.3271928,80.31208
1.4309235,79.468636
1.2185663,73.45511
1.439302,78.22436
1.1793451,76.9905
1.2547852,70.56061
1.3026234,73.5864
1.2653788,71.15856
1.1632937,73.877686
1.191483,68.98142
1.104023,69.32944
1.1927338,70.67267
1.1513181,74.24829
1.0604725,72.99052
1.0583162,68.34468
0.9540719,63.253086
0.9582029,66.06613
0.98251736,66.80406
0.94855654,67.40747
0.9301317,62.323837
0.8191832,66.38678
0.91896534,63.023445
0.82570314,59.52237
0.87856144,60.6311
0.8211199,64.36174
0.93392926,64.70814
0.80526054,62.812088
0.8705404,59.049347
0.8065034,61.160095
0.7898243,57.30654
0.81153315,59.72332
0.97490245,58.572628
0.93486845,56.169937
0.8638089,61.2243
0.7665158,55.644646
0.6878241,50.658356
0.6972678,53.287983
0.74444693,52.971157
0.70837885,58.739464
0.67448944,52.541035
0.59301984,50.99973
0.6526127,57.28327
0.5116946,52.00481
0.6580585,55.961567
0.59101003,58.00751
0.49813828,55.4104
0.42411083,56.70793
0.5464798,60.038483
0.55700123,57.614544
0.6064961,57.42943
0.5097439,59.585636
0.6158015,58.53177
0.65975934,56.940056
0.7447501,61.037663
0.74565864,63.056465
0.8041708,63.427322
0.8701686,61.47432
0.9794362,67.29699
1.0692066,67.461754
1.0583711,67.23219
1.172914,70.98279
1.2052859,71.77806
1.4491168,72.41086
1.5086128,78.58576
1.5265759,75.43598
1.5224513,78.20015
1.6468151,79.11875
1.7657901,78.14725
1.7636625,81.03685
1.8229835,82.26679
1.8673717,75.85046
1.7631968,77.30094
1.9254782,85.02269
1.874968,86.34115
2.0090387,87.92334
1.9257494,88.47577
1.8509766,84.79336
1.9999037,88.31512
1.8903377,87.17763
2.0527549,91.651146
1.9682461,90.97843
1.9796052,85.829475
1.9146091,90.36099
1.9823172,89.76773
1.9466062,89.935104
1.8886064,88.56385
1.9399991,87.40683
1.9328264,91.01781
1.8349795,84.41671
1.7872831,89.84308
1.7964952,87.770424
1.7648335,85.74579
1.7220801,89.221634
1.7441897,86.0991
1.6092323,86.87764
1.7590406,86.90107
1.6367768,87.98734
1.6510187,89.75783
1.646362,87.07943
1.5190294,83.99507
1.4924083,82.0782
1.5747205,83.728
1.5084167,76.21995
1.4954587,86.19886
1.5358486,79.67739
1.5348988,82.59306
1.3588278,78.44778
1.4624228,76.155846
1.455538,79.64973
1.4695218,75.57662
1.4474822,78.35565
1.3580259,73.91308
1.3381314,74.52142
1.447524,75.65989
1.4264199,72.266174
1.2959425,76.02134
1.2279648,71.77651
1.3337219,73.390335
1.246655,71.661766
1.241072,71.50592
1.1144404,67.565056
1.085621,73.92049
1.1318486,68.60128
1.0895358,64.00086
0.9698794,68.54757
1.0239956,65.07163
1.0094966,65.6911
0.91696155,63.222424
1.0473554,66.40361
0.88934195,58.685364
1.0168475,59.231476
0.8511413,64.92235
0.7909825,61.929813
0.8714739,62.16947
0.84350103,61.706516
0.83571774,56.02339
0.7419381,63.102264
0.7829162,61.829067
0.86136967,60.20384
0.73359257,61.181828
0.8092628,60.66718
0.71549684,57.299118
0.6847946,57.522972
0.69009966,54.334217
0.70385337,55.382496
0.7454535,55.93904
0.66712314,56.872272
0.5272285,51.87324
0.57588834,57.856556
0.5350661,57.114506
0.45384914,53.738243
0.41974127,62.588654
0.555967,53.150932
0.48557597,57.813004
0.3575862,54.833565
0.47070906,60.468693
0.4087512,58.9708
0.3775551,58.61147
0.37364057,59.45781
0.56196207,61.563217
0.6144406,59.6983
0.5369874,64.41518
0.6005549,60.454224
0.6860984,63.926933
0.7586864,62.035435
0.7331754,66.91527
0.7448024,64.995674
0.9294999,69.381294
1.066402,69.28479
0.9510933,76.04574
1.1916629,72.49205
1.331639,78.07854
1.3748478,71.49492
1.2287529,75.35509
1.3834373,73.88285
1.6266398,79.24263
1.592198,82.7616
1.5586351,76.24891
1.6665871,78.6854
1.613572,83.41985
1.6488374,81.451225
1.8077544,88.25
1.627427,88.14256
1.6326098,84.18939
1.74947,85.96481
1.7627888,80.57069
1.6657754,89.561455
1.7443372,91.09191
1.7646228,88.08739
1.6972727,91.920845
1.7929717,90.98443
1.8128927,86.30366
1.6373516,88.35848
1.6830703,91.096664
1.6056305,95.78647
1.6405215,88.59436
1.6784128,90.194405
1.6790854,90.15324
1.6293408,90.95494
1.5196452,88.64524
1.4442136,87.22313
1.4810871,91.84468
1.4524335,87.939995
1.3988073,85.06178
1.4447366,86.74141
1.3731774,83.41818
1.2700988,89.63424
1.2096353,83.26115
1.2040769,85.3467
1.1992449,84.37618
1.1662928,85.39663
1.1492506,84.84072
1.1317611,79.07948
1.229194,75.74928
1.0854622,78.4291
1.1697689,78.45137
1.1715972,77.64002
1.1330134,73.6494
1.2121786,79.408516
1.1365333,77.16463
0.969885,75.747826
0.95740706,75.50422
1.0285156,74.45025
1.0283298,77.080574
0.98316145,73.962814
0.94682175,75.07558
0.9576269,72.59526
0.9032432,74.67818
0.8806939,73.55773
0.80353117,70.96695
0.75647014,69.30299
0.8432562,69.178925
0.8523244,72.557396
0.64708424,68.352325
0.49954465,68.79718
0.5727371,65.80334
0.5557221,66.971085
0.4414921,65.07411
0.59209824,66.62386
0.484201,66.0268
0.43305066,63.34267
0.4572294,62.643436
0.37510553,64.93087
0.42672482,62.137726
0.4983106,60.082767
0.5667823,60.342487
0.43523324,63.463856
0.4888016,63.583035
0.3642407,58.116993
0.34539244,60.207314
0.44736147,56.37339
0.32356676,57.187057
0.3683469,56.12399
0.41074303,54.287884
0.32898286,54.961365
0.35308552,53.996643
0.18099812,61.54728
0.12302142,57.16119
0.2359222,56.60711
0.09112006,54.239906
0.17306751,54.830807
0.12722115,57.400776
0.090521626,57.78247
0.08966495,60.343616
-0.026178202,54.064377
-0.02157078,59.83987
0.018861976,60.8169
0.021297771,59.154976
0.07082269,63.566166
0.21396162,65.57021
0.23598506,63.78105
0.13638072,66.49459
0.21852617,64.58249
0.22316183,62.7748
0.48225668,70.54517
0.48686683,67.9719
0.54086214,76.05009
0.68807805,70.72037
0.7954699,72.07833
0.6711888,70.77627
0.85295516,72.118454
0.9272492,71.10105
1.0417603,75.073326
1.1296784,80.7672
1.07425,78.14677
1.229491,77.89234
1.2061778,79.00544
1.2762948,83.67375
1.255673,81.70198
1.3928423,85.13983
1.2812006,87.3441
1.3577545,87.10214
1.5229582,90.778114
1.3954082,85.58163
1.3635021,88.383766
1.385251,88.159805
1.4596051,87.39978
1.3562702,89.252106
1.4570675,87.09787
1.4404826,88.74649
1.286811,90.48334
1.2465501,87.71708
1.4531732,88.13815
1.3098679,89.47175
1.3427447,84.806046
1.3182245,88.515465
1.1865684,91.44296
1.2833141,89.21327
1.2851074,87.14418
1.1424906,91.75702
1.2041469,82.57797
1.104288,85.03329
1.1532955,83.8054
1.1785511,85.055824
1.1761726,83.53204
1.0781513,83.43658
1.1180274,86.7172
1.0363318,89.191925
0.9782727,84.74326
0.95678115,87.381256
1.0160241,81.103836
0.9878314,81.663826
0.8860818,78.41119
0.8046545,77.74918
0.87728775,76.936935
0.96984535,78.08234
0.93921876,75.63257
0.94075227,73.94047
0.94100446,75.65832
0.8636991,80.57426
0.95306605,77.294014
0.79744524,78.82092
0.78805155,70.65075
0.74809855,70.807175
0.6982449,74.006676
0.6263325,71.49556
0.70497346,72.4512
0.50706834,71.72645
0.6235409,66.922874
0.60160244,67.24296
0.655158,70.51808
0.53605825,66.724625
0.41201013,64.793076
0.35105732,69.63356
0.4312347,67.05956
0.40716475,69.13649
0.3771649,61.5565
0.34323797,60.35441
0.3997001,63.703438
0.39875686,65.53075
0.3313357,64.14096
0.40344018,58.1157
0.31799614,57.669487
0.46514508,60.774574
0.31576154,59.717735
0.25368047,58.462643
0.31213355,63.129494
0.36382484,57.656746
0.29095662,58.49108
0.31789052,58.38045
0.36229068,54.8625
0.27712053,53.006203
0.1699181,57.620552
0.15883511,62.822212
0.26916245,58.809723
0.15458614,58.02749
0.2449614,55.863144
0.049375243,53.633755
0.046667818,55.64628
0.10218206,56.57091
0.011323759,61.548622
0.05713201,58.841564
0.11200859,56.305405
-0.04698396,57.98616
-0.008259446,59.160397
0.02681611,58.070084
0.083359584,59.842163
0.057179842,57.73263
0.121320345,63.99841
0.19840318,62.37992
0.21987608,62.602554
0.32972232,68.68823
0.3720064,68.25202
0.4210429,65.08693
0.5799431,69.508125
0.5240315,71.83515
0.68911386,69.8056
0.6495545,70.390045
0.88071567,75.79711
0.92086416,74.452194
0.87390167,75.71527
1.0631773,76.67784
1.0557121,78.66191
1.2478753,79.789246
1.2836114,77.53893
1.20152,85.08889
1.5025319,85.30669
1.3057419,83.92362
1.390333,85.87832
1.4650108,85.12058
1.4912227,86.15407
1.5919591,86.964096
1.4808298,88.81841
1.4075009,91.951225
1.4511962,84.26916
1.6002362,89.347664
1.4692035,85.886665
1.5296423,90.63242
1.434744,89.41986
1.4950238,88.579315
1.4437848,91.90274
1.5384583,86.89204
1.4219822,86.978935
1.454627,92.03454
1.4529151,91.09578
1.4462402,90.1661
1.3491615,92.03649
1.3988627,90.58805
1.4214101,84.06219
1.368327,84.93055
1.364893,87.72487
1.2905415,85.75503
1.2723414,90.58449
1.3054967,83.67264
1.2035285,89.02695
1.1421245,83.479034
1.1267343,84.255936
1.2497042,80.868614
1.0399643,79.13328
1.1094164,81.231636
1.2417442,79.11417
1.1511806,76.99556
1.2157283,79.7916
1.1638132,74.871124
1.1628882,82.10731
1.0871978,77.86922
1.1475703,75.91019
1.1059783,74.264786
1.0179006,71.024345
1.1055588,75.92675
0.9837936,77.97845
1.144438,72.30585
1.0082326,71.88398
1.162505,70.76387
1.036162,69.003365
1.0008129,74.988174
0.97757196,70.60859
0.85694015,71.68785
0.8834867,66.44562
0.6804029,67.707695
0.7232584,66.09107
0.65168,70.553535
0.78850555,65.962
0.69173336,66.42405
0.6639389,67.45941
0.6128765,61.075005
0.5485924,65.54131
0.6736678,62.22326
0.7250079,63.243286
0.68145454,64.34945
0.77525705,62.765682
0.6106715,58.09133
0.6133437,56.786163
0.6787606,58.90021
0.6431261,62.008724
0.73713326,59.214443
0.6605412,60.44763
0.70393276,58.753986
0.63265795,59.689003
0.576522,54.51195
0.63922673,58.815666
0.6760774,58.131794
0.55786073,56.57666
0.49513617,55.506584
0.48683608,59.011803
0.4593671,55.069912
0.3493139,56.543816
0.353728,54.18402
0.4579102,55.245834
0.32010397,56.967308
0.31716567,55.930225
0.37450144,57.47999
0.41095513,61.253067
0.34797,60.72633
0.31221628,61.197212
0.37977087,63.35362
0.4237547,61.79204
0.498257,59.491253
0.6237127,61.894432
0.60357237,64.63322
0.6538736,63.002537
0.7353087,68.01575
0.7416091,70.33198
0.9115106,66.66921
1.1507598,69.78603
1.113976,68.152016
1.1677575,70.13442
1.3263817,68.8135
1.3499457,69.88078
1.3889111,72.67635
1.4462281,77.02262
1.4631798,78.123955
1.43638,76.420784
1.5431788,77.3833
1.6808534,80.50048
1.6875473,80.907524
1.8589275,82.8932
1.8258334,79.33672
1.7272078,82.70732
1.8287809,87.02055
1.840529,86.57967
1.7634885,88.403786
1.8868996,90.40403
1.8913779,85.77616
1.910538,86.79771
1.8392514,88.66892
1.8072962,86.47602
1.8116548,91.38572
1.9859183,86.45328
1.9704428,92.086784
1.7898208,86.93197
1.8812497,91.35044
1.8037717,85.12839
1.8842565,86.30261
1.863551,86.55371
1.7612482,88.276054
1.7611092,90.02653
1.6851662,84.97582
1.654606,84.45882
1.660793,86.94614
1.7192807,87.28075
1.6959333,87.956825
1.611399,81.939644
1.6955447,87.51473
1.5660021,84.55621
1.5680068,88.60988
1.4737965,83.59447
1.566634,83.22098
1.3449742,81.42891
1.479225,81.69179
1.4923277,81.04629
1.5502292,78.75038
1.4610194,79.344505
1.3786824,77.8628
1.4354305,76.39621
1.4176935,75.51158
1.4791495,76.87426
1.471404,75.17249
1.342607,73.4389
1.3681545,73.07948
1.3936853,72.406715
1.3292209,74.57355
1.2571803,72.92939
1.3796526,72.012115
1.3197592,68.84991
1.1909231,71.49449
0.96882856,75.770874
1.1808884,69.18685
1.114149,68.1481
0.9947155,67.02526
1.0170286,69.722305
1.0539662,66.392395
1.0331236,66.36631
0.92340773,69.65742
0.8995684,64.12009
1.000557,64.36149
0.97394484,64.26445
0.95561624,62.709663
0.8055645,64.256905
0.92665577,60.800426
0.96864873,63.25045
0.8773737,62.390568
0.9150084,59.933693
0.89195275,60.66464
1.0176414,59.456387
0.9074099,57.205803
0.89648944,52.55079
0.7985028,55.10648
0.8229496,62.55408
0.76881903,55.658913
0.7585356,54.89465
0.8679336,52.803368
0.6549676,59.781185
0.6480034,56.49022
0.59411854,56.626804
0.6845755,53.64834
0.51641214,60.402287
0.5183089,54.149017
0.515049,56.247692
0.5360803,56.618603
0.6490099,63.289085
0.53615,64.1782
0.5593537,58.749046
0.6504037,57.826355
0.693977,60.899338
0.6284418,61.974346
0.79600364,67.512024
0.7146075,58.031704
0.864569,64.996315
0.7186587,62.879185
0.87617457,67.49118
1.0217124,67.7898
1.211811,63.76087
1.1063414,70.892105
1.2393858,72.13206
1.3943654,71.15361
1.2311891,73.56714
1.3831723,77.44484
1.528106,77.411125
1.6450571,79.24717
1.6744001,77.17724
1.6887517,80.52818
1.7969766,79.483284
1.85497,79.897446
1.7220397,81.91725
1.8263211,82.94466
1.8826098,85.140274
1.8305507,84.91217
1.8975642,86.82029
1.9281133,89.856125
1.8389046,86.37965
1.930272,88.58051
1.9282866,89.97686
1.9499028,86.13939
1.9930747,81.87553
1.8195199,86.15094
1.859119,87.95769
1.8667858,89.27297
1.8832855,92.29278
1.8752229,90.51199
1.8268701,94.405594
1.6974558,86.66681
1.7724551,87.04967
1.7859784,91.34612
1.7216098,87.465485
1.7510958,89.41382
1.6940916,88.98002
1.6801119,86.140625
1.656348,87.25233
1.6809363,88.562645
1.4916251,85.75458
1.5090826,80.66298
1.5158938,79.72213
1.4875603,83.07808
1.4830407,81.28626
1.4416075,81.81037
1.4200801,82.95532
1.4690949,84.38689
1.3734585,78.40119
1.2863256,81.14982
1.4276875,80.92021
1.3251375,79.17643
1.3453331,77.858925
1.4681748,79.95229
1.3862327,79.31196
1.3189259,72.08923
1.3204063,72.1335
1.2522087,72.553955
1.1922477,72.96584
1.2485805,72.42576
1.2798936,72.171486
1.1302578,67.12061
1.1452816,68.4387
1.1186022,73.96196
1.0136725,71.51953
1.0485241,64.94261
1.023416,67.09402
0.9817904,68.545616
0.9304583,65.20262
0.9089536,68.43407
0.8369706,64.45744
0.96624786,65.38273
0.7710454,64.73548
0.6882631,63.241177
0.7628677,58.953968
0.6981429,58.923782
0.62056106,61.244972
0.737528,59.802242
0.7506729,63.65005
0.62363017,58.130356
0.7374688,55.829338
0.5753382,56.924553
0.5985786,60.00989
0.5815201,56.553326
0.57534546,57.461536
0.6005559,59.092583
0.6041032,59.485146
0.53743964,58.186634
0.52991366,56.92502
0.5770538,55.08019
0.5494562,59.088802
0.49570405,55.725582
0.4670686,55.462925
0.32451046,55.51511
0.30746415,57.813225
0.32964867,55.785675
0.18201832,59.616787
0.28358486,55.40539
0.29183513,59.20145
0.18587582,55.97339
0.23545213,61.639694
0.3266814,56.632236
0.3588886,63.315582
0.3136999,56.40689
0.32236895,58.60636
0.36479804,62.830433
0.4312039,64.266075
0.5717427,64.57772
0.55388224,67.24213
0.62820995,66.75696
0.6864486,67.02072
0.79134065,74.06306
0.85869765,69.9871
0.98192453,75.29656
0.9735792,73.93114
1.0986108,75.584694
1.185202,75.13389
1.1270494,79.91121
1.2625842,73.39035
1.2365212,76.84983
1.5422021,79.86035
1.4273463,79.080635
1.399684,78.5378
1.466063,80.46551
1.5141697,84.99931
1.6391338,86.92466
1.5337242,84.772255
1.47353,86.12815
1.5366995,89.68733
1.5511763,88.901726
1.5862216,84.38885
1.5470004,91.029915
1.5402131,91.8599
1.5298439,89.60094
1.5762945,90.68555
1.5256512,90.12306
1.4319988,87.44362
1.4705166,92.44342
1.5759543,89.331154
1.4536372,90.627686
1.5408415,89.22527
1.3093504,86.21588
1.3310096,89.4597
1.3650205,91.429924
1.2873149,85.31055
1.2834295,85.49309
1.2446618,82.49518
1.1583252,85.28369
1.2512871,84.06197
1.1650227,87.63211
1.2214614,79.945206
1.1150485,80.99513
1.1511015,82.18971
1.1854029,86.82467
1.0978805,80.42319
1.0891967,81.36461
1.0531334,78.46554
1.0142684,79.712326
1.0476949,77.0034
1.1540942,79.71141
1.0195304,76.14972
0.9916012,74.632195
0.90691996,73.19779
0.96263444,74.74066
0.94927955,76.90559
0.85959494,75.92328
0.8127309,75.7192
0.92448395,74.33815
0.73041964,72.38261
0.95834184,70.131485
0.81798434,69.01395
0.6883955,72.38151
0.77126956,70.76436
0.62047833,68.76776
0.6048665,64.41739
0.5912698,69.103836
0.5138035,68.08739
0.43699712,68.30762
0.37294224,65.93269
0.46930784,69.96135
0.5248669,67.80628
0.40329248,65.493324
0.42203176,63.567852
0.4027518,59.306877
0.3081551,62.774284
0.31420526,59.066402
0.327469,64.776024
0.37264395,62.417465
0.4101465,59.148045
0.2627259,54.995075
0.3336076,58.74683
0.23647797,60.91017
0.2343582,61.38558
0.227472,55.87996
0.38959315,55.591434
0.2729388,54.937206
0.3358175,58.156384
0.28585124,56.590797
0.1454273,53.16634
0.16140182,56.450417
0.16814837,56.92568
0.099791296,57.034298
-0.04308685,55.414997
0.09092531,56.966183
0.027872594,54.08984
-0.010868061,55.457546
0.014184435,54.475254
-0.11523677,55.71749
-0.05455758,54.601593
-0.13655415,58.463406
0.056775257,57.86432
-0.003981175,66.11153
0.057219483,60.588577
0.22219172,65.36268
0.26217103,65.91084
0.2838556,62.922966
0.27245533,63.46101
0.36715576,64.734924
0.54642695,67.939606
0.46516135,63.83248
0.46996582,69.417274
0.6776734,69.46168
0.7623949,70.75596
0.7291577,74.69685
0.9826826,74.99837
0.90765435,73.273735
0.9204094,72.33222
1.1441425,78.19589
1.0723637,76.228935
1.1777865,79.10551
1.2780812,82.28136
1.2140967,84.82692
1.3492872,79.701706
1.1340692,84.97086
1.3365434,83.83061
1.4696497,87.86308
1.3851345,88.562515
1.2813125,90.09479
1.3031986,85.45351
1.3862375,86.743225
1.3278579,85.49797
1.3637437,86.35615
1.3560008,85.075806
1.3787684,91.51015
1.3381068,93.43727
1.4135529,89.315895
1.3026512,87.92204
1.3329914,91.32281
1.3312199,89.996284
1.206822,84.89974
1.3386856,90.28577
1.1920514,87.18871
1.0596551,83.26056
1.0870057,88.28607
1.1844802,85.9552
1.1994054,86.78922
1.1066635,85.79025
1.1120563,79.628654
1.0598507,82.2168
1.0946361,84.219246
1.0179418,82.352875
1.0310516,84.266716
0.996318,82.94407
0.96943504,80.63396
0.99493825,80.62593
0.95651096,82.41325
1.0454131,84.4587
0.98332727,80.50242
1.0674503,78.76463
0.95717597,75.371765
1.0161883,78.66477
0.8983452,74.0437
0.892696,75.19345
0.82994974,74.950005
0.8989078,74.06144
0.87860954,72.422775
0.8542627,71.37926
0.8610428,71.7194
0.76081586,70.95341
0.6601193,71.42965
0.7586887,68.932686
0.6899908,73.68542
0.5483971,69.04353
0.74026006,70.35242
0.5911206,68.65505
0.49897468,70.260414
0.55126077,67.068474
0.44067818,67.46486
0.5083006,65.722275
0.43253168,63.783707
0.50224775,68.24557
0.5116152,63.47387
0.35959327,64.34076
0.4693652,63.320175
0.45655563,64.206314
0.4098648,64.59478
0.42279044,58.3491
0.4296276,62.43999
0.41836172,56.778126
0.4891772,58.88306
0.39429262,55.78636
0.45506975,53.874348
0.36627597,60.13724
0.39054063,55.340706
0.19301924,57.80693
0.5233196,60.01248
0.33369535,57.908337
0.2799957,54.357525
0.2653987,59.23682
0.2726537,51.323536
0.15507591,54.601322
0.14750558,57.011845
0.16732974,60.012512
0.20981741,55.682705
0.16264987,58.626827
0.18460658,61.39112
0.05617372,53.950607
0.15072733,58.22386
0.1619859,62.752792
0.10602974,60.703632
0.19544138,58.977486
0.26237217,61.949745
0.31942245,64.0272
0.35822913,62.64198
0.3664309,65.30712
0.5106927,64.16382
0.5582206,65.93885
0.6495038,66.83166
0.68521583,68.012024
0.7959344,68.327515
0.8548971,72.827065
0.94065297,75.612564
1.064938,70.93927
1.1159095,74.374985
1.2341291,75.75879
1.2054433,75.435295
1.2339067,78.81043
1.3917193,82.85554
1.341116,82.48634
1.3959776,80.57346
1.437758,83.19073
1.5280254,82.74265
1.565096,85.50162
1.5260445,86.57888
1.5200483,85.14646
1.587424,86.11931
1.6003715,84.08489
1.6066298,85.19303
1.6641121,88.45887
1.732513,85.91535
1.5691644,88.569885
1.7075125,92.829
1.628005,90.42655
1.694712,93.275475
1.5401394,89.875946
1.5419916,88.81883
1.6319731,89.80109
1.5686573,89.19751
1.4813446,89.81875
1.6274998,88.6504
1.4982228,88.20173
1.5688654,91.39705
1.4669545,87.74264
1.530247,86.963806
1.5157281,84.25599
1.3116019,84.72685
1.370429,81.831985
1.5013357,82.7554
1.3904028,84.334946
1.3721966,83.7228
1.2642238,79.95347
1.3147985,81.77143
1.3201575,81.2143
1.3132628,82.945724
1.3404763,79.184074
1.3432784,81.88281
1.3650113,78.830376
1.1921997,77.986244
1.2465216,74.6115
1.2742548,73.72448
1.2871828,74.112785
1.201699,78.224945
1.1256448,76.79287
1.2478721,75.75854
1.2355896,75.0341
1.3032382,70.60492
0.9888275,73.632576
1.2230371,70.768814
1.026147,66.86595
1.095211,68.97219
1.1108683,65.97203
0.88919395,69.238914
0.93371946,69.7091
0.9360121,68.70296
0.9923195,69.46278
0.82633686,62.569588
0.9424746,66.06354
0.85941035,65.89482
0.780959,68.66382
0.7668862,64.69152
0.8379915,65.14993
0.872141,65.71628
0.8194507,61.416
0.9151393,61.816887
0.8551785,60.058502
0.66457623,63.128994
0.7684111,61.77472
0.7857803,62.728035
0.7346099,58.59877
0.82757944,60.44739
0.7484059,56.241318
0.6802969,59.268925
0.847868,58.26247
0.88051534,56.29305
0.7404646,56.515232
0.8182118,55.84772
0.7653665,55.54963
0.72230905,56.63168
0.63163465,52.71936
0.49467546,56.9386
0.54906297,56.80392
0.49938178,57.810898
0.43875253,58.411465
0.53331304,57.65718
0.52001405,58.81426
0.64983505,55.282997
0.4283414,61.11391
0.5211002,60.574875
0.53819335,58.55566
0.59801507,61.127575
0.65276766,60.423298
0.63729674,64.338585
0.76140076,63.10659
0.7830956,65.617516
0.82198465,63.387928
0.9528389,64.87993
1.0892404,67.679115
1.0836031,71.069664
1.1158062,69.8747
1.1943346,70.562515
1.3537266,69.82014
1.4505962,72.20298
1.4885787,77.07822
1.5204507,77.83753
1.4901642,74.09963
1.7201488,75.551575
1.7277822,78.99496
1.814171,79.371346
1.8126247,80.83531
1.7506434,79.80796
1.8923682,85.396965
1.9405373,86.56563
1.8608624,83.37786
1.9323733,85.52438
2.0270648,84.823586
1.919809,84.26382
1.9338975,87.431694
1.8763454,89.35871
1.9203466,88.183136
1.9069997,87.536835
1.882146,88.640335
1.9652691,88.13991
1.9100515,87.42394
1.8436666,93.132385
1.8783859,88.640236
1.8849154,90.3638
1.8709145,88.90055
1.8592812,87.42004
1.7684237,92.21174
1.6848992,91.70737
1.7743915,87.68324
1.8449885,85.03253
1.7160401,85.74172
1.7370939,86.80861
1.7877183,87.48315
1.5960854,84.87164
1.7266878,81.09294
1.6036704,84.27946
1.5224212,78.68728
1.4278452,82.58956
1.5178168,79.26616
1.525932,80.43239
1.620038,83.813255
1.5606768,80.457596
1.5590554,76.846146
1.5389813,80.82018
1.5125461,77.39017
1.481592,77.91046
1.4349474,77.15647
1.4868114,75.66659
1.475827,77.588615
1.4665642,73.217064
1.3431712,72.00872
1.3582214,72.56382
1.3853129,70.97584
1.2842346,74.24901
1.2737851,76.305885
1.2667692,70.69884
1.3138465,69.70967
1.2409061,71.824875
1.1830478,69.47775
1.1615623,69.03268
1.068899,64.08349
1.0546539,68.74488
1.0562513,64.051056
0.9438756,63.770275
0.9562973,68.753914
0.8880932,64.53663
1.0106709,62.375267
0.9457793,59.99986
0.80170774,64.51934
